Data from BA57757_Reflection_00042.txt Node
Date: Mon Nov 18 15:02:45 EST 2019
User: vgr7
Spectrometer: USB2G7710
Scans to average: 3
Trigger mode: 4
Integration Time (sec): 2.000000E-2
Electric dark correction enabled: true
Boxcar width: 10
XAxis mode: Wavelengths
Number of Pixels in Spectrum: 2048
>>>>>Begin Spectral Data<<<<<
177.721	-6.77
178.105	-150.87
178.488	966.11
178.871	-443.1
179.254	120.5
179.636	565.52
180.019	-35.68
180.402	26.83
180.785	-152.34
181.168	60.18
181.55	169.77
181.933	58.55
182.316	15.08
182.698	-5.7
183.081	21.87
183.463	-12.73
183.846	13.85
184.228	7.83
184.611	-64.25
184.993	-143
185.376	217.55
185.758	165.11
186.14	25.07
186.522	61.44
186.904	10.54
187.287	-312.84
187.669	231.81
188.051	51.07
188.433	37.24
188.815	50.26
189.197	35.43
189.579	41.59
189.961	13.71
190.342	9.29
190.724	6.08
191.106	20.15
191.488	17.26
191.869	29.4
192.251	11.62
192.633	-0.04
193.014	0.53
193.396	-21.16
193.777	-19.12
194.159	-22.24
194.54	-16.55
194.922	-0.02
195.303	2.73
195.684	-5.09
196.065	12.19
196.447	8.39
196.828	2.52
197.209	16.18
197.59	10.19
197.971	32
198.352	35.12
198.733	45.43
199.114	45.5
199.495	45.48
199.876	41.8
200.257	46.94
200.638	50.04
201.018	48.29
201.399	56.35
201.78	63.22
202.16	67.92
202.541	70.41
202.922	49.46
203.302	36.28
203.683	52.66
204.063	54.07
204.444	64.73
204.824	47.4
205.204	22.35
205.585	22.02
205.965	-8.54
206.345	-37.68
206.725	-42.08
207.106	-71.35
207.486	-69.73
207.866	-74.54
208.246	-80.63
208.626	-96.87
209.006	-72.98
209.386	-93.2
209.766	-89.57
210.145	-77.42
210.525	-51.76
210.905	-45.12
211.285	-38.54
211.664	-36.44
212.044	-42.33
212.424	-64.55
212.803	-58.26
213.183	-35.46
213.562	-11.21
213.942	7.77
214.321	29.51
214.701	25.64
215.08	30.23
215.459	47.03
215.838	37.76
216.218	41.2
216.597	38.74
216.976	42.65
217.355	56.59
217.734	46.82
218.113	46.39
218.492	41.69
218.871	51.42
219.25	43.1
219.629	55.38
220.008	49.62
220.387	54.49
220.766	45.38
221.144	32.3
221.523	28.72
221.902	22.33
222.28	7.41
222.659	17.74
223.037	19.8
223.416	7.63
223.794	16.43
224.173	12.23
224.551	15.12
224.929	7.63
225.308	4.01
225.686	9.01
226.064	7.68
226.442	7.85
226.821	10.51
227.199	11.24
227.577	1.4
227.955	3.39
228.333	0.39
228.711	4.04
229.089	6.03
229.467	4.29
229.845	6.63
230.222	8.79
230.6	7.9
230.978	7.28
231.356	8.33
231.733	8.3
232.111	10.58
232.488	10.71
232.866	12.35
233.243	12.62
233.621	12.5
233.998	13.74
234.376	12.15
234.753	11.16
235.13	10.23
235.508	12.29
235.885	13.04
236.262	14.08
236.639	13.78
237.016	11.99
237.393	12.03
237.77	10.45
238.147	10.23
238.524	9.82
238.901	9.96
239.278	9.15
239.655	8.53
240.032	7.58
240.409	7.37
240.785	6.95
241.162	6.98
241.539	6.82
241.915	6.39
242.292	6.52
242.668	6.61
243.045	6.79
243.421	6.62
243.798	6.01
244.174	5.67
244.551	5.55
244.927	5.58
245.303	5.62
245.679	5.62
246.056	5.43
246.432	5.45
246.808	5.36
247.184	5.24
247.56	5.05
247.936	5.02
248.312	5.14
248.688	5.19
249.064	5.17
249.44	5.08
249.815	5.24
250.191	5.35
250.567	5.22
250.943	5.17
251.318	5.23
251.694	5.38
252.069	5.42
252.445	5.54
252.82	5.69
253.196	5.58
253.571	5.67
253.947	5.67
254.322	5.68
254.697	5.62
255.073	5.45
255.448	5.51
255.823	5.37
256.198	5.45
256.573	5.46
256.948	5.38
257.323	5.46
257.698	5.35
258.073	5.18
258.448	5.2
258.823	5.17
259.198	4.98
259.573	4.98
259.948	4.99
260.322	4.86
260.697	4.66
261.072	4.69
261.446	4.61
261.821	4.55
262.195	4.6
262.57	4.53
262.944	4.66
263.319	4.75
263.693	4.64
264.067	4.59
264.442	4.6
264.816	4.67
265.19	4.62
265.564	4.48
265.938	4.5
266.313	4.51
266.687	4.4
267.061	4.69
267.435	4.68
267.809	4.61
268.183	4.75
268.556	4.72
268.93	4.75
269.304	4.73
269.678	4.95
270.051	4.81
270.425	4.88
270.799	4.78
271.172	4.74
271.546	4.87
271.919	4.82
272.293	4.83
272.666	4.76
273.04	4.73
273.413	4.85
273.787	4.89
274.16	4.92
274.533	5.08
274.906	4.9
275.279	4.98
275.653	5.02
276.026	4.85
276.399	5.05
276.772	5.1
277.145	5.07
277.518	4.95
277.891	5.1
278.263	5.07
278.636	5.05
279.009	4.9
279.382	5.07
279.755	5.02
280.127	5.06
280.5	5.02
280.872	5.09
281.245	5.09
281.617	5.09
281.99	5.18
282.362	5.25
282.735	5.22
283.107	4.96
283.479	5.07
283.852	5.06
284.224	5.01
284.596	4.78
284.968	4.72
285.34	4.81
285.713	4.82
286.085	4.86
286.457	5.06
286.829	5.15
287.201	5
287.572	5.02
287.944	4.89
288.316	4.99
288.688	4.94
289.06	4.85
289.431	4.78
289.803	4.72
290.175	4.68
290.546	4.76
290.918	4.84
291.289	4.76
291.661	4.87
292.032	4.95
292.403	5.12
292.775	5.28
293.146	5.19
293.517	5.04
293.889	5.03
294.26	4.95
294.631	5.04
295.002	5.07
295.373	5.1
295.744	5.2
296.115	5.18
296.486	5.14
296.857	5.35
297.228	5.52
297.599	5.46
297.97	5.41
298.34	5.42
298.711	5.63
299.082	5.63
299.452	5.6
299.823	5.62
300.194	5.64
300.564	5.7
300.935	5.73
301.305	5.85
301.676	5.99
302.046	6.05
302.416	6.17
302.787	6.25
303.157	6.3
303.527	6.39
303.897	6.5
304.267	6.67
304.637	6.63
305.008	6.62
305.378	6.87
305.748	7.09
306.117	7.06
306.487	6.95
306.857	7.21
307.227	7.45
307.597	7.48
307.967	7.55
308.336	7.61
308.706	7.7
309.076	7.72
309.445	7.79
309.815	7.77
310.184	7.77
310.554	7.79
310.923	7.67
311.293	7.71
311.662	7.62
312.031	7.6
312.401	7.64
312.77	7.86
313.139	7.91
313.508	7.97
313.877	8.13
314.246	8.31
314.616	8.23
314.985	8.07
315.353	8.17
315.722	8.25
316.091	8.3
316.46	8.42
316.829	8.44
317.198	8.5
317.567	8.74
317.935	8.87
318.304	8.98
318.672	9.19
319.041	9.18
319.41	9.42
319.778	9.54
320.147	9.54
320.515	9.35
320.883	9.34
321.252	9.27
321.62	9.36
321.988	9.47
322.357	9.61
322.725	9.69
323.093	9.85
323.461	9.88
323.829	9.91
324.197	9.92
324.565	10.15
324.933	10.26
325.301	10.31
325.669	10.3
326.037	10.34
326.405	10.49
326.772	10.67
327.14	10.83
327.508	10.95
327.875	11.05
328.243	11.29
328.61	11.3
328.978	11.42
329.346	11.51
329.713	11.47
330.08	11.55
330.448	11.68
330.815	11.57
331.182	11.68
331.55	11.83
331.917	11.91
332.284	11.86
332.651	11.81
333.018	11.86
333.385	11.82
333.752	11.97
334.119	11.91
334.486	11.82
334.853	11.8
335.22	11.75
335.587	11.75
335.954	11.71
336.32	11.7
336.687	11.81
337.054	11.79
337.42	11.85
337.787	11.84
338.153	11.91
338.52	11.96
338.886	11.93
339.253	11.87
339.619	11.91
339.986	11.98
340.352	11.98
340.718	11.86
341.084	11.96
341.451	12.12
341.817	12.22
342.183	12.27
342.549	12.15
342.915	12.17
343.281	12.2
343.647	12.19
344.013	12.31
344.379	12.19
344.745	12.14
345.11	12.2
345.476	12.2
345.842	12.23
346.208	12.24
346.573	12.31
346.939	12.39
347.304	12.32
347.67	12.27
348.035	12.36
348.401	12.47
348.766	12.5
349.132	12.34
349.497	12.29
349.862	12.3
350.228	12.51
350.593	12.56
350.958	12.62
351.323	12.63
351.688	12.58
352.053	12.68
352.418	12.76
352.783	12.65
353.148	12.67
353.513	12.62
353.878	12.65
354.243	12.66
354.608	12.62
354.972	12.62
355.337	12.72
355.702	12.68
356.066	12.68
356.431	12.63
356.795	12.6
357.16	12.59
357.524	12.53
357.889	12.36
358.253	12.41
358.618	12.36
358.982	12.3
359.346	12.25
359.71	12.09
360.075	12.02
360.439	11.97
360.803	11.92
361.167	11.9
361.531	11.84
361.895	11.71
362.259	11.72
362.623	11.73
362.987	11.63
363.351	11.6
363.714	11.55
364.078	11.46
364.442	11.4
364.806	11.32
365.169	11.31
365.533	11.27
365.896	11.07
366.26	10.98
366.623	10.94
366.987	10.92
367.35	10.92
367.714	10.88
368.077	10.79
368.44	10.77
368.803	10.63
369.167	10.54
369.53	10.58
369.893	10.51
370.256	10.43
370.619	10.34
370.982	10.2
371.345	10.09
371.708	10.05
372.071	10.02
372.434	9.96
372.797	9.85
373.159	9.77
373.522	9.78
373.885	9.67
374.247	9.62
374.61	9.52
374.973	9.43
375.335	9.32
375.698	9.32
376.06	9.25
376.423	9.26
376.785	9.19
377.147	9.07
377.51	8.95
377.872	8.86
378.234	8.84
378.596	8.8
378.958	8.76
379.321	8.72
379.683	8.64
380.045	8.57
380.407	8.49
380.769	8.4
381.13	8.33
381.492	8.34
381.854	8.21
382.216	8.17
382.578	8.16
382.939	8.1
383.301	8.03
383.663	7.96
384.024	7.84
384.386	7.86
384.747	7.8
385.109	7.77
385.47	7.7
385.832	7.64
386.193	7.6
386.554	7.56
386.916	7.51
387.277	7.47
387.638	7.47
387.999	7.4
388.36	7.34
388.721	7.26
389.082	7.15
389.443	7.07
389.804	6.99
390.165	6.92
390.526	6.9
390.887	6.84
391.248	6.77
391.609	6.72
391.969	6.67
392.33	6.61
392.691	6.51
393.051	6.47
393.412	6.39
393.772	6.33
394.133	6.28
394.493	6.21
394.854	6.11
395.214	6.01
395.574	5.98
395.935	5.96
396.295	5.95
396.655	5.93
397.015	5.91
397.376	5.88
397.736	5.81
398.096	5.75
398.456	5.7
398.816	5.66
399.176	5.63
399.535	5.54
399.895	5.47
400.255	5.44
400.615	5.4
400.975	5.37
401.334	5.28
401.694	5.19
402.054	5.13
402.413	5.14
402.773	5.1
403.132	5.07
403.492	5.08
403.851	5.03
404.211	5.01
404.57	4.98
404.929	4.95
405.288	4.93
405.648	4.88
406.007	4.87
406.366	4.86
406.725	4.85
407.084	4.83
407.443	4.81
407.802	4.8
408.161	4.75
408.52	4.72
408.879	4.7
409.238	4.71
409.596	4.71
409.955	4.67
410.314	4.67
410.673	4.63
411.031	4.57
411.39	4.56
411.748	4.53
412.107	4.52
412.465	4.51
412.824	4.46
413.182	4.44
413.54	4.42
413.899	4.39
414.257	4.37
414.615	4.35
414.974	4.35
415.332	4.31
415.69	4.3
416.048	4.29
416.406	4.27
416.764	4.23
417.122	4.19
417.48	4.16
417.838	4.14
418.195	4.11
418.553	4.09
418.911	4.05
419.269	4.04
419.626	4
419.984	3.99
420.342	3.98
420.699	3.98
421.057	3.95
421.414	3.93
421.772	3.9
422.129	3.89
422.486	3.88
422.844	3.86
423.201	3.85
423.558	3.82
423.915	3.8
424.273	3.78
424.63	3.79
424.987	3.77
425.344	3.76
425.701	3.75
426.058	3.74
426.415	3.74
426.772	3.71
427.128	3.7
427.485	3.7
427.842	3.68
428.199	3.66
428.555	3.66
428.912	3.65
429.269	3.64
429.625	3.63
429.982	3.62
430.338	3.62
430.695	3.6
431.051	3.59
431.407	3.61
431.764	3.61
432.12	3.58
432.476	3.57
432.832	3.55
433.189	3.55
433.545	3.52
433.901	3.53
434.257	3.54
434.613	3.54
434.969	3.52
435.325	3.55
435.681	3.56
436.036	3.54
436.392	3.53
436.748	3.53
437.104	3.53
437.459	3.52
437.815	3.52
438.171	3.53
438.526	3.53
438.882	3.52
439.237	3.53
439.593	3.53
439.948	3.53
440.304	3.54
440.659	3.53
441.014	3.55
441.369	3.52
441.725	3.51
442.08	3.5
442.435	3.5
442.79	3.47
443.145	3.46
443.5	3.45
443.855	3.44
444.21	3.42
444.565	3.41
444.92	3.41
445.275	3.39
445.629	3.36
445.984	3.36
446.339	3.34
446.693	3.31
447.048	3.3
447.403	3.3
447.757	3.29
448.112	3.28
448.466	3.26
448.82	3.26
449.175	3.28
449.529	3.25
449.883	3.23
450.238	3.22
450.592	3.22
450.946	3.22
451.3	3.22
451.654	3.22
452.008	3.21
452.362	3.19
452.716	3.21
453.07	3.23
453.424	3.23
453.778	3.25
454.132	3.24
454.486	3.25
454.839	3.25
455.193	3.24
455.547	3.23
455.9	3.23
456.254	3.22
456.607	3.21
456.961	3.23
457.314	3.22
457.668	3.24
458.021	3.24
458.375	3.25
458.728	3.24
459.081	3.25
459.434	3.24
459.787	3.25
460.141	3.26
460.494	3.23
460.847	3.23
461.2	3.21
461.553	3.24
461.906	3.25
462.259	3.23
462.611	3.25
462.964	3.29
463.317	3.29
463.67	3.31
464.022	3.3
464.375	3.31
464.728	3.32
465.08	3.32
465.433	3.31
465.785	3.3
466.138	3.31
466.49	3.32
466.843	3.34
467.195	3.36
467.547	3.35
467.899	3.39
468.252	3.4
468.604	3.42
468.956	3.41
469.308	3.41
469.66	3.42
470.012	3.44
470.364	3.41
470.716	3.44
471.068	3.43
471.42	3.45
471.772	3.48
472.123	3.51
472.475	3.51
472.827	3.54
473.178	3.55
473.53	3.53
473.882	3.53
474.233	3.52
474.585	3.51
474.936	3.51
475.288	3.49
475.639	3.5
475.99	3.5
476.342	3.53
476.693	3.54
477.044	3.54
477.395	3.52
477.746	3.51
478.097	3.49
478.448	3.49
478.8	3.49
479.15	3.47
479.501	3.46
479.852	3.45
480.203	3.44
480.554	3.44
480.905	3.45
481.255	3.44
481.606	3.44
481.957	3.45
482.307	3.45
482.658	3.43
483.009	3.43
483.359	3.42
483.709	3.43
484.06	3.42
484.41	3.43
484.761	3.44
485.111	3.45
485.461	3.45
485.811	3.45
486.162	3.46
486.512	3.47
486.862	3.47
487.212	3.47
487.562	3.46
487.912	3.47
488.262	3.46
488.612	3.47
488.961	3.49
489.311	3.49
489.661	3.5
490.011	3.51
490.36	3.52
490.71	3.53
491.06	3.53
491.409	3.54
491.759	3.54
492.108	3.55
492.458	3.56
492.807	3.58
493.157	3.58
493.506	3.58
493.855	3.6
494.204	3.61
494.554	3.64
494.903	3.67
495.252	3.69
495.601	3.71
495.95	3.73
496.299	3.74
496.648	3.74
496.997	3.76
497.346	3.8
497.695	3.83
498.043	3.86
498.392	3.89
498.741	3.92
499.09	3.96
499.438	3.99
499.787	4.01
500.135	4.04
500.484	4.08
500.832	4.12
501.181	4.16
501.529	4.19
501.878	4.23
502.226	4.29
502.574	4.34
502.923	4.38
503.271	4.42
503.619	4.47
503.967	4.52
504.315	4.6
504.663	4.63
505.011	4.7
505.359	4.74
505.707	4.81
506.055	4.88
506.403	4.93
506.751	4.99
507.098	5.06
507.446	5.13
507.794	5.19
508.141	5.27
508.489	5.34
508.837	5.41
509.184	5.49
509.531	5.55
509.879	5.63
510.226	5.71
510.574	5.8
510.921	5.88
511.268	5.97
511.616	6.04
511.963	6.14
512.31	6.23
512.657	6.35
513.004	6.43
513.351	6.5
513.698	6.6
514.045	6.69
514.392	6.78
514.739	6.88
515.086	6.98
515.432	7.08
515.779	7.17
516.126	7.27
516.473	7.36
516.819	7.46
517.166	7.54
517.512	7.63
517.859	7.72
518.205	7.81
518.552	7.91
518.898	8.01
519.245	8.07
519.591	8.16
519.937	8.25
520.283	8.36
520.629	8.5
520.976	8.63
521.322	8.76
521.668	8.88
522.014	9.02
522.36	9.16
522.706	9.3
523.052	9.48
523.398	9.65
523.743	9.82
524.089	10.01
524.435	10.18
524.781	10.36
525.126	10.52
525.472	10.66
525.817	10.81
526.163	10.93
526.509	11.08
526.854	11.19
527.199	11.32
527.545	11.43
527.89	11.54
528.235	11.67
528.581	11.81
528.926	11.94
529.271	12.09
529.616	12.23
529.961	12.37
530.306	12.5
530.651	12.67
530.996	12.84
531.341	13
531.686	13.19
532.031	13.38
532.376	13.57
532.721	13.77
533.065	13.97
533.41	14.19
533.755	14.4
534.099	14.64
534.444	14.85
534.788	15.09
535.133	15.33
535.477	15.56
535.822	15.79
536.166	16.06
536.51	16.32
536.855	16.64
537.199	16.93
537.543	17.26
537.887	17.57
538.231	17.91
538.576	18.26
538.92	18.6
539.264	18.91
539.608	19.23
539.951	19.52
540.295	19.78
540.639	20.04
540.983	20.32
541.327	20.58
541.671	20.84
542.014	21.09
542.358	21.34
542.701	21.62
543.045	21.88
543.389	22.14
543.732	22.41
544.075	22.69
544.419	22.96
544.762	23.23
545.105	23.54
545.449	23.84
545.792	24.15
546.135	24.49
546.478	24.84
546.821	25.17
547.165	25.57
547.508	25.98
547.851	26.41
548.194	26.78
548.536	27.17
548.879	27.57
549.222	28
549.565	28.41
549.908	28.79
550.25	29.21
550.593	29.6
550.936	29.97
551.278	30.36
551.621	30.82
551.963	31.24
552.306	31.63
552.648	32.05
552.991	32.43
553.333	32.77
553.675	33.14
554.017	33.5
554.36	33.85
554.702	34.2
555.044	34.51
555.386	34.91
555.728	35.23
556.07	35.64
556.412	35.97
556.754	36.33
557.096	36.72
557.438	37.07
557.78	37.45
558.121	37.85
558.463	38.21
558.805	38.58
559.147	38.94
559.488	39.3
559.83	39.66
560.171	40.03
560.513	40.4
560.854	40.67
561.196	41.02
561.537	41.32
561.878	41.63
562.22	41.93
562.561	42.24
562.902	42.61
563.243	42.87
563.584	43.2
563.925	43.48
564.266	43.74
564.607	44.02
564.948	44.32
565.289	44.57
565.63	44.84
565.971	45.08
566.312	45.42
566.653	45.68
566.993	45.85
567.334	46.08
567.675	46.3
568.015	46.62
568.356	46.83
568.696	47.07
569.037	47.33
569.377	47.63
569.718	47.83
570.058	48.03
570.398	48.28
570.739	48.51
571.079	48.7
571.419	48.93
571.759	49.19
572.099	49.38
572.439	49.56
572.779	49.7
573.119	49.95
573.459	50
573.799	50.15
574.139	50.37
574.479	50.48
574.819	50.68
575.158	50.83
575.498	51.03
575.838	51.23
576.177	51.34
576.517	51.44
576.856	51.62
577.196	51.82
577.535	51.95
577.875	52.09
578.214	52.31
578.553	52.42
578.893	52.5
579.232	52.65
579.571	52.9
579.91	53.12
580.25	53.27
580.589	53.54
580.928	53.78
581.267	54.01
581.606	54.24
581.945	54.4
582.283	54.47
582.622	54.67
582.961	54.81
583.3	54.99
583.639	55.22
583.977	55.42
584.316	55.48
584.654	55.62
584.993	55.75
585.332	55.99
585.67	56.25
586.008	56.42
586.347	56.55
586.685	56.59
587.024	56.75
587.362	56.75
587.7	56.92
588.038	56.98
588.376	57.08
588.715	57.18
589.053	57.3
589.391	57.46
589.729	57.52
590.067	57.63
590.404	57.77
590.742	57.89
591.08	57.88
591.418	58.03
591.756	58.17
592.093	58.27
592.431	58.31
592.769	58.27
593.106	58.44
593.444	58.53
593.781	58.63
594.119	58.66
594.456	58.85
594.793	58.88
595.131	58.92
595.468	58.91
595.805	58.95
596.143	58.99
596.48	58.98
596.817	59.06
597.154	59.16
597.491	59.27
597.828	59.36
598.165	59.48
598.502	59.49
598.839	59.56
599.176	59.7
599.512	59.73
599.849	59.86
600.186	59.85
600.523	59.92
600.859	60.06
601.196	60.16
601.532	60.23
601.869	60.21
602.205	60.31
602.542	60.45
602.878	60.55
603.215	60.59
603.551	60.78
603.887	60.8
604.223	60.87
604.56	60.9
604.896	60.86
605.232	60.97
605.568	61.07
605.904	61.01
606.24	61.01
606.576	61.12
606.912	61.25
607.248	61.3
607.583	61.28
607.919	61.26
608.255	61.25
608.591	61.29
608.926	61.45
609.262	61.46
609.597	61.48
609.933	61.52
610.268	61.59
610.604	61.61
610.939	61.67
611.275	61.75
611.61	61.73
611.945	61.84
612.281	61.85
612.616	61.91
612.951	62.09
613.286	62.13
613.621	62.16
613.956	62.22
614.291	62.28
614.626	62.48
614.961	62.59
615.296	62.68
615.631	62.71
615.966	62.69
616.3	62.79
616.635	62.9
616.97	62.95
617.304	62.93
617.639	62.98
617.973	63.07
618.308	62.99
618.642	63.12
618.977	63.21
619.311	63.29
619.646	63.3
619.98	63.33
620.314	63.32
620.648	63.37
620.983	63.4
621.317	63.47
621.651	63.46
621.985	63.5
622.319	63.58
622.653	63.62
622.987	63.7
623.321	63.72
623.655	63.72
623.988	63.68
624.322	63.72
624.656	63.7
624.99	63.72
625.323	63.75
625.657	63.7
625.99	63.59
626.324	63.53
626.657	63.63
626.991	63.72
627.324	63.79
627.658	63.86
627.991	63.79
628.324	63.82
628.657	63.77
628.991	63.82
629.324	63.85
629.657	63.86
629.99	63.91
630.323	63.86
630.656	63.9
630.989	63.96
631.322	64.02
631.655	64.08
631.987	64.1
632.32	64.14
632.653	64.17
632.986	64.24
633.318	64.28
633.651	64.26
633.984	64.09
634.316	64.12
634.649	64.09
634.981	64.11
635.313	64.08
635.646	64.09
635.978	64.07
636.31	64.05
636.643	64.04
636.975	63.98
637.307	64.16
637.639	64.14
637.971	64.17
638.303	64.19
638.635	64.12
638.967	64
639.299	64.03
639.631	64.1
639.963	64.04
640.295	64.07
640.626	64.03
640.958	64.1
641.29	64.11
641.621	64.05
641.953	64.04
642.285	64.06
642.616	64.13
642.948	64.14
643.279	64.03
643.61	64.09
643.942	64.16
644.273	64.04
644.604	64.02
644.936	64.03
645.267	64.01
645.598	64.11
645.929	64.24
646.26	64.16
646.591	64.09
646.922	64.23
647.253	64.27
647.584	64.23
647.915	64.25
648.245	64.19
648.576	64.21
648.907	64.37
649.238	64.34
649.568	64.33
649.899	64.43
650.229	64.63
650.56	64.64
650.89	64.65
651.221	64.78
651.551	64.77
651.882	64.82
652.212	64.83
652.542	64.83
652.872	64.84
653.203	64.97
653.533	65
653.863	64.95
654.193	64.88
654.523	65
654.853	65.03
655.183	65.08
655.513	65.12
655.843	65.08
656.172	65.15
656.502	65.18
656.832	65.19
657.162	65.17
657.491	65.15
657.821	65.11
658.15	65.03
658.48	65.13
658.809	65.17
659.139	65.27
659.468	65.22
659.798	65.21
660.127	65.19
660.456	65.22
660.785	65.17
661.115	65.24
661.444	65.24
661.773	65.19
662.102	65.19
662.431	65.25
662.76	65.16
663.089	65.01
663.418	65.02
663.747	64.97
664.076	64.95
664.404	64.94
664.733	65.02
665.062	64.99
665.39	64.84
665.719	64.74
666.048	64.73
666.376	64.78
666.705	64.8
667.033	64.75
667.362	64.79
667.69	64.89
668.018	64.82
668.347	64.79
668.675	64.85
669.003	64.76
669.331	64.83
669.659	64.77
669.987	64.86
670.315	64.88
670.643	64.82
670.971	64.81
671.299	64.88
671.627	64.91
671.955	64.96
672.283	65.1
672.61	65.03
672.938	65.06
673.266	64.97
673.593	65.07
673.921	65.08
674.249	64.92
674.576	64.92
674.904	64.99
675.231	65.05
675.558	65.02
675.886	65.14
676.213	65.01
676.54	65.23
676.867	65.26
677.195	65.38
677.522	65.41
677.849	65.3
678.176	65.27
678.503	65.21
678.83	65.26
679.157	65.13
679.484	65.23
679.81	65.2
680.137	65.31
680.464	65.32
680.791	65.42
681.117	65.59
681.444	65.55
681.771	65.62
682.097	65.68
682.424	65.94
682.75	65.88
683.077	65.99
683.403	65.83
683.729	65.81
684.056	65.8
684.382	65.78
684.708	65.92
685.034	65.96
685.36	65.89
685.686	65.72
686.012	65.87
686.339	65.79
686.664	65.78
686.99	65.68
687.316	65.52
687.642	65.38
687.968	65.41
688.294	65.35
688.619	65.25
688.945	65.05
689.271	64.74
689.596	64.74
689.922	64.85
690.247	64.87
690.573	65
690.898	64.87
691.224	64.83
691.549	64.88
691.874	64.89
692.2	64.97
692.525	65.03
692.85	64.94
693.175	64.95
693.5	65.03
693.825	65.03
694.15	65.08
694.475	65.17
694.8	65.16
695.125	65.36
695.45	65.45
695.775	65.51
696.099	65.73
696.424	65.92
696.749	65.65
697.073	65.71
697.398	65.62
697.723	65.77
698.047	65.73
698.372	65.81
698.696	65.75
699.02	65.69
699.345	65.73
699.669	65.85
699.993	66.01
700.318	65.88
700.642	66.06
700.966	66
701.29	66.04
701.614	66.02
701.938	65.86
702.262	65.94
702.586	66
702.91	66.02
703.234	65.98
703.557	66.12
703.881	66.2
704.205	66.19
704.529	66.1
704.852	66.22
705.176	66.13
705.499	66.06
705.823	66.15
706.146	66.22
706.47	66.21
706.793	65.93
707.117	66.01
707.44	65.99
707.763	66.07
708.086	65.86
708.409	65.84
708.733	65.97
709.056	65.89
709.379	65.93
709.702	65.73
710.025	65.54
710.348	65.43
710.671	65.37
710.993	65.47
711.316	65.54
711.639	65.58
711.962	65.61
712.284	65.71
712.607	65.56
712.93	65.39
713.252	65.27
713.575	65.4
713.897	65.39
714.22	65.36
714.542	65.42
714.864	65.45
715.187	65.59
715.509	65.5
715.831	65.42
716.153	65.33
716.475	65.41
716.798	65.52
717.12	65.66
717.442	65.56
717.764	65.49
718.085	65.44
718.407	65.34
718.729	65.3
719.051	65.45
719.373	65.51
719.695	65.53
720.016	65.43
720.338	65.7
720.659	65.69
720.981	65.58
721.302	65.57
721.624	65.71
721.945	65.52
722.267	65.63
722.588	65.68
722.909	65.61
723.231	65.41
723.552	65.25
723.873	65.15
724.194	65.22
724.515	65.19
724.836	65.04
725.157	65.25
725.478	65.28
725.799	65.03
726.12	65.31
726.441	65.4
726.762	65.45
727.083	65.09
727.403	65.13
727.724	64.96
728.045	64.89
728.365	65.04
728.686	65.19
729.006	64.98
729.327	65.14
729.647	65.2
729.967	65.28
730.288	65.32
730.608	65.36
730.928	65.31
731.249	65.39
731.569	65.69
731.889	65.54
732.209	65.47
732.529	65.36
732.849	65.17
733.169	65.49
733.489	65.46
733.809	65.71
734.129	65.77
734.448	66
734.768	66.11
735.088	66.12
735.408	65.97
735.727	66.37
736.047	66.21
736.366	66.33
736.686	66.33
737.005	66.38
737.325	66.3
737.644	66.38
737.963	66.37
738.283	66.2
738.602	66.08
738.921	66.08
739.24	66.33
739.56	66.53
739.879	66.32
740.198	66.49
740.517	66.27
740.836	66.24
741.155	66.45
741.473	66.29
741.792	66.18
742.111	66.29
742.43	66.01
742.748	65.66
743.067	65.58
743.386	65.57
743.704	65.71
744.023	65.96
744.341	66.24
744.66	66.42
744.978	66.26
745.297	66.52
745.615	66.65
745.933	66.74
746.252	66.51
746.57	66.38
746.888	66.24
747.206	66.45
747.524	66.68
747.842	66.44
748.16	66.68
748.478	66.43
748.796	66.41
749.114	66.58
749.432	66.79
749.749	66.56
750.067	66.87
750.385	66.73
750.703	66.65
751.02	66.02
751.338	65.84
751.655	65.66
751.973	65.63
752.29	65.28
752.608	65.3
752.925	65.54
753.242	65.6
753.56	65.57
753.877	65.52
754.194	65.42
754.511	65.33
754.828	65.16
755.145	65.55
755.462	65.56
755.779	65.33
756.096	65.4
756.413	65.51
756.73	65.28
757.047	65
757.364	64.64
757.68	65.03
757.997	65.16
758.314	65.39
758.63	65.35
758.947	65.82
759.264	65.9
759.58	65.65
759.896	65.45
760.213	65.76
760.529	65.84
760.846	65.7
761.162	65.95
761.478	66.07
761.794	65.9
762.11	65.85
762.426	66.01
762.743	65.86
763.059	66.07
763.375	65.96
763.69	66.2
764.006	66.62
764.322	66.56
764.638	66.52
764.954	66.7
765.27	66.72
765.585	66.75
765.901	66.66
766.216	66.81
766.532	67.08
766.848	66.87
767.163	66.66
767.478	66.49
767.794	66.58
768.109	66.54
768.424	66.67
768.74	66.74
769.055	66.58
769.37	67.1
769.685	66.99
770	67.36
770.315	67.5
770.63	67.05
770.945	67.01
771.26	67.15
771.575	67.11
771.89	66.72
772.205	66.42
772.52	66.45
772.834	66.01
773.149	65.73
773.464	65.7
773.778	65.65
774.093	65.83
774.407	65.83
774.722	65.8
775.036	65.75
775.351	65.69
775.665	66.11
775.979	65.64
776.293	65.77
776.608	65.32
776.922	65.3
777.236	65.42
777.55	65.44
777.864	65.12
778.178	65.16
778.492	65.21
778.806	65.4
779.12	65.48
779.434	65.83
779.747	66.03
780.061	65.9
780.375	66.34
780.689	66.25
781.002	65.55
781.316	65.45
781.629	65.03
781.943	64.78
782.256	64.69
782.57	64.64
782.883	64.5
783.196	64.66
783.51	64.04
783.823	64.08
784.136	64.3
784.449	64.53
784.762	64.55
785.075	65.06
785.388	65
785.701	64.51
786.014	64.86
786.327	65.33
786.64	65.52
786.953	65.11
787.266	65.38
787.578	65.88
787.891	65.82
788.204	65.95
788.516	66.34
788.829	66.04
789.141	66.1
789.454	66.48
789.766	66.61
790.079	67.47
790.391	67.46
790.703	67.31
791.016	67.35
791.328	67.64
791.64	67.48
791.952	67.03
792.264	66.95
792.576	66.76
792.888	66.59
793.2	66.41
793.512	66.76
793.824	66.55
794.136	66.3
794.448	66.84
794.76	66.88
795.071	67.16
795.383	67.67
795.695	67.71
796.006	67.53
796.318	67.52
796.629	67.41
796.941	67.3
797.252	67.8
797.564	67.41
797.875	66.93
798.186	66.82
798.497	67.09
798.809	67.85
799.12	67.84
799.431	67.38
799.742	67.73
800.053	67.68
800.364	67.72
800.675	67.61
800.986	67.4
801.297	68
801.608	67.78
801.918	67.97
802.229	68.38
802.54	67.78
802.851	67.85
803.161	67.38
803.472	67.13
803.782	66.87
804.093	66.47
804.403	66.43
804.714	66.98
805.024	67.69
805.334	67.12
805.645	66.98
805.955	66.85
806.265	66.66
806.575	66.32
806.885	66.12
807.195	65.87
807.505	66
807.815	65
808.125	64.8
808.435	64.19
808.745	64.08
809.055	64.55
809.365	64.65
809.674	64.45
809.984	64.49
810.294	63.96
810.603	64.35
810.913	64.05
811.222	63.69
811.532	63.41
811.841	63.56
812.151	64.06
812.46	64.48
812.769	64.62
813.079	64.79
813.388	64.95
813.697	65.65
814.006	65.27
814.315	66.11
814.624	66.65
814.933	66.29
815.242	66.43
815.551	66.39
815.86	65.86
816.169	66.31
816.478	66.19
816.786	67.16
817.095	67.25
817.404	68.19
817.712	67.97
818.021	67.36
818.33	66.56
818.638	65.43
818.947	65.28
819.255	65.41
819.563	65.34
819.872	65.38
820.18	65.37
820.488	65.22
820.796	65.53
821.105	65.38
821.413	65.71
821.721	65.59
822.029	65.56
822.337	65.67
822.645	65.92
822.953	66.12
823.26	65.79
823.568	65.85
823.876	65.76
824.184	65.97
824.491	66.18
824.799	66.33
825.107	66.64
825.414	66.65
825.722	66.68
826.029	66.88
826.337	66.91
826.644	66.96
826.951	67.09
827.259	66.92
827.566	66.96
827.873	67
828.18	66.97
828.488	67.34
828.795	67.45
829.102	66.88
829.409	66.84
829.716	67.1
830.023	67.51
830.329	67.28
830.636	66.98
830.943	66.83
831.25	67.26
831.557	66.74
831.863	66.74
832.17	66.73
832.476	66.36
832.783	66.22
833.089	66.1
833.396	66.21
833.702	66.53
834.009	66.46
834.315	66.41
834.621	66.48
834.928	66.01
835.234	65.87
835.54	66.38
835.846	66.3
836.152	66.48
836.458	65.6
836.764	65.57
837.07	65.6
837.376	65.71
837.682	65.65
837.988	66.19
838.293	66.37
838.599	66.1
838.905	66.33
839.211	66.84
839.516	67.22
839.822	67.53
840.127	66.69
840.433	66.74
840.738	66.3
841.044	66.42
841.349	66.17
841.654	66.79
841.959	67.51
842.265	67.28
842.57	67.36
842.875	67.71
843.18	68.08
843.485	68.97
843.79	67.82
844.095	66.78
844.4	67.13
844.705	67.1
845.01	67.39
845.315	65.92
845.619	66.45
845.924	67.04
846.229	66.13
846.533	65.07
846.838	65.5
847.142	66.93
847.447	67.55
847.751	69.32
848.056	68.49
848.36	67.59
848.664	68.22
848.969	67.48
849.273	68.68
849.577	68.99
849.881	67.06
850.185	66.1
850.489	67.87
850.794	66.98
851.097	66.42
851.401	66.05
851.705	68.24
852.009	65.83
852.313	64
852.617	64.36
852.92	67.2
853.224	66.53
853.528	65.47
853.831	65.79
854.135	64.57
854.438	66.56
854.742	66.93
855.045	67.78
855.349	68.15
855.652	67.33
855.955	66.73
856.259	68.73
856.562	71.95
856.865	70.65
857.168	69.93
857.471	70.29
857.774	71.9
858.077	71.33
858.38	73.83
858.683	76.42
858.986	75.63
859.289	75.64
859.592	76.12
859.894	76.65
860.197	76.86
860.5	77.02
860.802	74.23
861.105	75.51
861.407	75.79
861.71	78.2
862.012	78.22
862.315	79.84
862.617	80.15
862.919	80.06
863.222	79.76
863.524	80.65
863.826	79.79
864.128	78.13
864.43	78.96
864.732	76.09
865.034	73.42
865.336	76.97
865.638	75.69
865.94	75.09
866.242	72.73
866.544	73.16
866.846	72.36
867.147	72.92
867.449	69.89
867.751	67.84
868.052	66.4
868.354	69.16
868.655	68.53
868.957	66.72
869.258	64.05
869.56	62.98
869.861	64.32
870.162	66.99
870.463	69.81
870.765	70.44
871.066	72.03
871.367	72.15
871.668	71.14
871.969	71.32
872.27	71.47
872.571	73.95
872.872	72.15
873.173	71.98
873.473	71.98
873.774	74.01
874.075	75.37
874.376	74.76
874.676	70.86
874.977	73.43
875.277	72.6
875.578	73.9
875.878	75.86
876.179	74.33
876.479	73.12
876.78	71.36
877.08	71.04
877.38	71.6
877.68	72.78
877.981	70.63
878.281	72.08
878.581	73.41
