Data from BA57750_Reflection_00003.txt Node
Date: Mon Nov 18 15:46:29 EST 2019
User: vgr7
Spectrometer: USB2G7710
Scans to average: 3
Trigger mode: 4
Integration Time (sec): 2.000000E-2
Electric dark correction enabled: true
Boxcar width: 10
XAxis mode: Wavelengths
Number of Pixels in Spectrum: 2048
>>>>>Begin Spectral Data<<<<<
177.721	-37.82
178.105	-19.87
178.488	-2670.49
178.871	126.1
179.254	84.87
179.636	109.19
180.019	210.59
180.402	118.75
180.785	-71.96
181.168	-37.72
181.55	-55.05
181.933	40.54
182.316	62.67
182.698	79.12
183.081	123.63
183.463	188.73
183.846	323.39
184.228	272.5
184.611	316.78
184.993	245.52
185.376	264.76
185.758	234.64
186.14	162.61
186.522	153.96
186.904	77.16
187.287	55.15
187.669	150.43
188.051	111.02
188.433	145.2
188.815	290.93
189.197	14792.31
189.579	2021.74
189.961	12678.95
190.342	5797.67
190.724	-281.71
191.106	-165.85
191.488	-262.43
191.869	-244.75
192.251	-267.31
192.633	-108.69
193.014	-90.16
193.396	-169.87
193.777	-156.81
194.159	-171.26
194.54	-196.92
194.922	-178.51
195.303	-106.67
195.684	-85.32
196.065	-53.87
196.447	-46.01
196.828	-75.29
197.209	-66.71
197.59	-36.69
197.971	-65.59
198.352	-62.04
198.733	-63.82
199.114	-60.1
199.495	-52.6
199.876	-36.93
200.257	-25.75
200.638	-20.75
201.018	-22.67
201.399	-23.11
201.78	-14.32
202.16	-41.64
202.541	-56.46
202.922	-78.96
203.302	-110.69
203.683	-126.27
204.063	-135.61
204.444	-103.55
204.824	-87.11
205.204	-77.4
205.585	-85.07
205.965	-62.32
206.345	-63.86
206.725	-77.99
207.106	-98.06
207.486	-159.76
207.866	-175.39
208.246	-140.34
208.626	-141.53
209.006	-138.21
209.386	-163.12
209.766	-193.98
210.145	-199.39
210.525	-154.14
210.905	-107.43
211.285	-107.39
211.664	-63.07
212.044	-67.43
212.424	-53.64
212.803	-39.64
213.183	-47.59
213.562	-92.65
213.942	-60.38
214.321	-51.14
214.701	-37.06
215.08	-37.56
215.459	-25.56
215.838	-17.27
216.218	-26.47
216.597	-7.96
216.976	4.46
217.355	13.91
217.734	13.72
218.113	16.24
218.492	8.31
218.871	3.77
219.25	-6.26
219.629	-15.98
220.008	-10.73
220.387	-23.46
220.766	-34.5
221.144	-42.22
221.523	-41.02
221.902	-56.39
222.28	-68.57
222.659	-63.98
223.037	-54.12
223.416	-46.46
223.794	-60.51
224.173	-47.28
224.551	-49.44
224.929	-45.13
225.308	-44.59
225.686	-29.47
226.064	-21.65
226.442	-19.15
226.821	-14.58
227.199	-9.96
227.577	-11.93
227.955	-14.49
228.333	-12.76
228.711	-5.21
229.089	-1.36
229.467	1.93
229.845	0.17
230.222	1.14
230.6	-1.72
230.978	-2.34
231.356	-2.4
231.733	-1.55
232.111	0.62
232.488	-0.59
232.866	-2.7
233.243	-1.91
233.621	-4.57
233.998	-4.03
234.376	-4.31
234.753	-3.9
235.13	-3.7
235.508	-0.71
235.885	-1.07
236.262	-1.42
236.639	-3.34
237.016	-3.87
237.393	-2.44
237.77	-0.18
238.147	0.03
238.524	0.33
238.901	0.7
239.278	1.81
239.655	2.8
240.032	2.09
240.409	3.01
240.785	3.14
241.162	3.06
241.539	3.23
241.915	2.99
242.292	3.23
242.668	3.13
243.045	3.49
243.421	3.31
243.798	3.45
244.174	3.89
244.551	4.1
244.927	4.01
245.303	3.98
245.679	4.04
246.056	4.06
246.432	4.15
246.808	4.16
247.184	4.19
247.56	3.8
247.936	3.61
248.312	3.32
248.688	3.68
249.064	3.72
249.44	3.83
249.815	3.8
250.191	3.84
250.567	3.99
250.943	3.72
251.318	3.64
251.694	3.69
252.069	3.68
252.445	3.7
252.82	3.74
253.196	3.78
253.571	3.85
253.947	4.07
254.322	4.17
254.697	4.14
255.073	3.78
255.448	4.08
255.823	4.56
256.198	4.68
256.573	4.49
256.948	4.59
257.323	4.6
257.698	4.7
258.073	4.91
258.448	4.99
258.823	5.02
259.198	5
259.573	4.96
259.948	4.86
260.322	4.91
260.697	4.79
261.072	4.72
261.446	4.63
261.821	4.35
262.195	4.31
262.57	4.32
262.944	4.35
263.319	4.26
263.693	4.04
264.067	4.05
264.442	4.29
264.816	4.18
265.19	4.21
265.564	4.26
265.938	3.96
266.313	4
266.687	4.15
267.061	4.32
267.435	4.16
267.809	4.19
268.183	4.15
268.556	4.12
268.93	4.19
269.304	4.24
269.678	4.56
270.051	4.49
270.425	4.6
270.799	4.59
271.172	4.63
271.546	4.64
271.919	4.68
272.293	4.49
272.666	4.63
273.04	4.58
273.413	4.4
273.787	4.45
274.16	4.3
274.533	4.2
274.906	4.04
275.279	4.19
275.653	4.11
276.026	3.99
276.399	4.25
276.772	4.3
277.145	4.36
277.518	4.35
277.891	4.43
278.263	4.31
278.636	4.44
279.009	4.46
279.382	4.64
279.755	4.75
280.127	4.78
280.5	4.76
280.872	4.82
281.245	4.97
281.617	5.08
281.99	5.08
282.362	5.14
282.735	5.1
283.107	5.15
283.479	5.15
283.852	5.22
284.224	5.14
284.596	5
284.968	4.81
285.34	4.72
285.713	4.7
286.085	4.79
286.457	4.77
286.829	4.76
287.201	4.74
287.572	4.64
287.944	4.66
288.316	4.69
288.688	4.65
289.06	4.55
289.431	4.47
289.803	4.56
290.175	4.51
290.546	4.78
290.918	4.8
291.289	4.86
291.661	5.06
292.032	5.2
292.403	5.25
292.775	5.53
293.146	5.6
293.517	5.7
293.889	5.78
294.26	5.76
294.631	5.71
295.002	5.6
295.373	5.65
295.744	5.53
296.115	5.75
296.486	5.75
296.857	5.78
297.228	5.81
297.599	5.78
297.97	5.91
298.34	5.78
298.711	5.8
299.082	5.92
299.452	5.88
299.823	5.84
300.194	5.91
300.564	5.82
300.935	5.8
301.305	5.73
301.676	5.72
302.046	5.92
302.416	6.13
302.787	6.33
303.157	6.33
303.527	6.52
303.897	6.35
304.267	6.53
304.637	6.57
305.008	6.67
305.378	6.72
305.748	6.67
306.117	6.62
306.487	6.65
306.857	6.64
307.227	6.7
307.597	6.63
307.967	6.68
308.336	6.7
308.706	6.7
309.076	6.67
309.445	6.71
309.815	6.52
310.184	6.53
310.554	6.47
310.923	6.46
311.293	6.48
311.662	6.36
312.031	6.35
312.401	6.38
312.77	6.42
313.139	6.43
313.508	6.46
313.877	6.52
314.246	6.44
314.616	6.27
314.985	6.22
315.353	6.29
315.722	6.34
316.091	6.35
316.46	6.36
316.829	6.45
317.198	6.45
317.567	6.38
317.935	6.19
318.304	6.16
318.672	6.12
319.041	6.18
319.41	6.21
319.778	6.13
320.147	6.29
320.515	6.2
320.883	6.11
321.252	6.19
321.62	6.04
321.988	6.21
322.357	6.3
322.725	6.41
323.093	6.37
323.461	6.32
323.829	6.46
324.197	6.38
324.565	6.49
324.933	6.41
325.301	6.54
325.669	6.58
326.037	6.55
326.405	6.65
326.772	6.58
327.14	6.69
327.508	6.74
327.875	6.54
328.243	6.62
328.61	6.63
328.978	6.68
329.346	6.89
329.713	6.83
330.08	6.79
330.448	6.6
330.815	6.6
331.182	6.56
331.55	6.46
331.917	6.52
332.284	6.46
332.651	6.45
333.018	6.49
333.385	6.5
333.752	6.58
334.119	6.55
334.486	6.47
334.853	6.49
335.22	6.54
335.587	6.71
335.954	6.63
336.32	6.65
336.687	6.65
337.054	6.66
337.42	6.7
337.787	6.78
338.153	6.87
338.52	7.03
338.886	6.98
339.253	6.97
339.619	6.98
339.986	7.03
340.352	7.07
340.718	6.99
341.084	7.04
341.451	7.1
341.817	7.1
342.183	7.23
342.549	7.19
342.915	7.14
343.281	7.12
343.647	7.13
344.013	7.1
344.379	6.93
344.745	6.85
345.11	6.81
345.476	6.81
345.842	6.75
346.208	6.68
346.573	6.77
346.939	6.78
347.304	6.75
347.67	6.68
348.035	6.71
348.401	6.7
348.766	6.81
349.132	6.77
349.497	6.74
349.862	6.76
350.228	6.73
350.593	6.68
350.958	6.58
351.323	6.58
351.688	6.6
352.053	6.76
352.418	6.82
352.783	6.9
353.148	6.88
353.513	6.84
353.878	6.82
354.243	6.84
354.608	6.83
354.972	6.95
355.337	6.98
355.702	7.06
356.066	7.16
356.431	7.09
356.795	7.12
357.16	7.11
357.524	7.01
357.889	7.03
358.253	7.07
358.618	7.08
358.982	7.08
359.346	7.06
359.71	7.01
360.075	7.01
360.439	6.98
360.803	7.02
361.167	7.01
361.531	7.03
361.895	6.94
362.259	6.94
362.623	6.87
362.987	6.88
363.351	6.83
363.714	6.74
364.078	6.73
364.442	6.69
364.806	6.71
365.169	6.73
365.533	6.73
365.896	6.74
366.26	6.76
366.623	6.76
366.987	6.76
367.35	6.76
367.714	6.75
368.077	6.71
368.44	6.7
368.803	6.73
369.167	6.7
369.53	6.68
369.893	6.65
370.256	6.68
370.619	6.66
370.982	6.62
371.345	6.65
371.708	6.71
372.071	6.74
372.434	6.74
372.797	6.69
373.159	6.65
373.522	6.62
373.885	6.71
374.247	6.76
374.61	6.8
374.973	6.74
375.335	6.74
375.698	6.81
376.06	6.82
376.423	6.8
376.785	6.82
377.147	6.93
377.51	6.92
377.872	6.95
378.234	6.98
378.596	7.04
378.958	7.06
379.321	7.01
379.683	7.03
380.045	7.03
380.407	7.1
380.769	7.13
381.13	7.16
381.492	7.08
381.854	7.02
382.216	7.02
382.578	7.04
382.939	6.99
383.301	6.94
383.663	6.87
384.024	6.89
384.386	6.93
384.747	6.9
385.109	6.96
385.47	6.9
385.832	6.93
386.193	6.88
386.554	6.86
386.916	6.81
387.277	6.82
387.638	6.82
387.999	6.83
388.36	6.81
388.721	6.82
389.082	6.8
389.443	6.79
389.804	6.79
390.165	6.81
390.526	6.85
390.887	6.9
391.248	6.91
391.609	6.91
391.969	6.85
392.33	6.81
392.691	6.77
393.051	6.77
393.412	6.76
393.772	6.74
394.133	6.76
394.493	6.79
394.854	6.75
395.214	6.76
395.574	6.72
395.935	6.68
396.295	6.68
396.655	6.72
397.015	6.74
397.376	6.78
397.736	6.84
398.096	6.84
398.456	6.83
398.816	6.87
399.176	6.87
399.535	6.87
399.895	6.88
400.255	6.89
400.615	6.92
400.975	6.88
401.334	6.92
401.694	6.91
402.054	6.89
402.413	6.93
402.773	6.88
403.132	6.89
403.492	6.91
403.851	6.91
404.211	6.91
404.57	6.9
404.929	6.87
405.288	6.8
405.648	6.77
406.007	6.77
406.366	6.73
406.725	6.75
407.084	6.77
407.443	6.77
407.802	6.77
408.161	6.72
408.52	6.73
408.879	6.69
409.238	6.71
409.596	6.73
409.955	6.72
410.314	6.73
410.673	6.7
411.031	6.73
411.39	6.73
411.748	6.73
412.107	6.74
412.465	6.73
412.824	6.75
413.182	6.73
413.54	6.71
413.899	6.73
414.257	6.73
414.615	6.71
414.974	6.72
415.332	6.73
415.69	6.73
416.048	6.73
416.406	6.74
416.764	6.72
417.122	6.72
417.48	6.71
417.838	6.72
418.195	6.74
418.553	6.73
418.911	6.73
419.269	6.69
419.626	6.68
419.984	6.68
420.342	6.68
420.699	6.7
421.057	6.72
421.414	6.73
421.772	6.72
422.129	6.72
422.486	6.7
422.844	6.7
423.201	6.71
423.558	6.7
423.915	6.7
424.273	6.7
424.63	6.69
424.987	6.69
425.344	6.69
425.701	6.68
426.058	6.65
426.415	6.66
426.772	6.67
427.128	6.68
427.485	6.69
427.842	6.68
428.199	6.68
428.555	6.66
428.912	6.65
429.269	6.65
429.625	6.65
429.982	6.69
430.338	6.66
430.695	6.68
431.051	6.67
431.407	6.68
431.764	6.68
432.12	6.69
432.476	6.66
432.832	6.64
433.189	6.64
433.545	6.67
433.901	6.66
434.257	6.66
434.613	6.66
434.969	6.67
435.325	6.65
435.681	6.66
436.036	6.65
436.392	6.65
436.748	6.65
437.104	6.64
437.459	6.63
437.815	6.65
438.171	6.64
438.526	6.65
438.882	6.67
439.237	6.67
439.593	6.69
439.948	6.7
440.304	6.71
440.659	6.74
441.014	6.73
441.369	6.72
441.725	6.72
442.08	6.72
442.435	6.73
442.79	6.72
443.145	6.72
443.5	6.72
443.855	6.71
444.21	6.72
444.565	6.73
444.92	6.73
445.275	6.72
445.629	6.72
445.984	6.7
446.339	6.69
446.693	6.68
447.048	6.66
447.403	6.65
447.757	6.65
448.112	6.62
448.466	6.62
448.82	6.63
449.175	6.62
449.529	6.6
449.883	6.59
450.238	6.59
450.592	6.59
450.946	6.57
451.3	6.58
451.654	6.58
452.008	6.57
452.362	6.54
452.716	6.55
453.07	6.55
453.424	6.57
453.778	6.56
454.132	6.57
454.486	6.59
454.839	6.61
455.193	6.62
455.547	6.62
455.9	6.63
456.254	6.63
456.607	6.65
456.961	6.66
457.314	6.65
457.668	6.67
458.021	6.67
458.375	6.68
458.728	6.69
459.081	6.69
459.434	6.69
459.787	6.7
460.141	6.7
460.494	6.71
460.847	6.71
461.2	6.71
461.553	6.7
461.906	6.69
462.259	6.68
462.611	6.67
462.964	6.69
463.317	6.69
463.67	6.71
464.022	6.7
464.375	6.69
464.728	6.7
465.08	6.7
465.433	6.69
465.785	6.69
466.138	6.67
466.49	6.68
466.843	6.67
467.195	6.66
467.547	6.67
467.899	6.66
468.252	6.65
468.604	6.66
468.956	6.65
469.308	6.67
469.66	6.66
470.012	6.69
470.364	6.68
470.716	6.67
471.068	6.65
471.42	6.65
471.772	6.66
472.123	6.65
472.475	6.67
472.827	6.68
473.178	6.69
473.53	6.7
473.882	6.71
474.233	6.74
474.585	6.73
474.936	6.73
475.288	6.73
475.639	6.74
475.99	6.75
476.342	6.76
476.693	6.76
477.044	6.77
477.395	6.78
477.746	6.79
478.097	6.78
478.448	6.81
478.8	6.81
479.15	6.82
479.501	6.84
479.852	6.85
480.203	6.87
480.554	6.87
480.905	6.87
481.255	6.88
481.606	6.89
481.957	6.91
482.307	6.91
482.658	6.91
483.009	6.91
483.359	6.91
483.709	6.91
484.06	6.9
484.41	6.91
484.761	6.9
485.111	6.9
485.461	6.91
485.811	6.91
486.162	6.91
486.512	6.92
486.862	6.92
487.212	6.92
487.562	6.93
487.912	6.94
488.262	6.93
488.612	6.93
488.961	6.93
489.311	6.92
489.661	6.92
490.011	6.92
490.36	6.93
490.71	6.93
491.06	6.93
491.409	6.95
491.759	6.94
492.108	6.94
492.458	6.93
492.807	6.93
493.157	6.93
493.506	6.93
493.855	6.94
494.204	6.94
494.554	6.93
494.903	6.9
495.252	6.9
495.601	6.91
495.95	6.92
496.299	6.91
496.648	6.9
496.997	6.9
497.346	6.92
497.695	6.9
498.043	6.92
498.392	6.92
498.741	6.93
499.09	6.92
499.438	6.93
499.787	6.95
500.135	6.96
500.484	6.96
500.832	6.99
501.181	6.98
501.529	6.98
501.878	6.98
502.226	7.01
502.574	7.01
502.923	7
503.271	6.99
503.619	7.02
503.967	7.01
504.315	7.02
504.663	7.04
505.011	7.06
505.359	7.04
505.707	7.05
506.055	7.05
506.403	7.07
506.751	7.09
507.098	7.11
507.446	7.12
507.794	7.12
508.141	7.11
508.489	7.11
508.837	7.11
509.184	7.11
509.531	7.13
509.879	7.15
510.226	7.19
510.574	7.21
510.921	7.2
511.268	7.23
511.616	7.24
511.963	7.22
512.31	7.22
512.657	7.25
513.004	7.25
513.351	7.27
513.698	7.27
514.045	7.25
514.392	7.26
514.739	7.24
515.086	7.27
515.432	7.28
515.779	7.3
516.126	7.31
516.473	7.32
516.819	7.3
517.166	7.29
517.512	7.28
517.859	7.28
518.205	7.3
518.552	7.3
518.898	7.3
519.245	7.32
519.591	7.33
519.937	7.32
520.283	7.32
520.629	7.31
520.976	7.33
521.322	7.34
521.668	7.33
522.014	7.35
522.36	7.33
522.706	7.34
523.052	7.33
523.398	7.34
523.743	7.36
524.089	7.38
524.435	7.39
524.781	7.4
525.126	7.4
525.472	7.41
525.817	7.41
526.163	7.42
526.509	7.41
526.854	7.41
527.199	7.42
527.545	7.41
527.89	7.43
528.235	7.42
528.581	7.44
528.926	7.44
529.271	7.45
529.616	7.44
529.961	7.44
530.306	7.46
530.651	7.45
530.996	7.46
531.341	7.46
531.686	7.46
532.031	7.46
532.376	7.46
532.721	7.46
533.065	7.47
533.41	7.47
533.755	7.48
534.099	7.48
534.444	7.49
534.788	7.51
535.133	7.5
535.477	7.5
535.822	7.49
536.166	7.48
536.51	7.48
536.855	7.51
537.199	7.52
537.543	7.53
537.887	7.54
538.231	7.51
538.576	7.51
538.92	7.51
539.264	7.51
539.608	7.51
539.951	7.5
540.295	7.51
540.639	7.5
540.983	7.5
541.327	7.51
541.671	7.51
542.014	7.52
542.358	7.52
542.701	7.53
543.045	7.54
543.389	7.56
543.732	7.55
544.075	7.56
544.419	7.56
544.762	7.55
545.105	7.55
545.449	7.55
545.792	7.57
546.135	7.59
546.478	7.6
546.821	7.6
547.165	7.59
547.508	7.58
547.851	7.6
548.194	7.58
548.536	7.58
548.879	7.6
549.222	7.57
549.565	7.58
549.908	7.59
550.25	7.6
550.593	7.6
550.936	7.59
551.278	7.58
551.621	7.6
551.963	7.62
552.306	7.62
552.648	7.63
552.991	7.62
553.333	7.62
553.675	7.64
554.017	7.64
554.36	7.63
554.702	7.66
555.044	7.63
555.386	7.64
555.728	7.68
556.07	7.64
556.412	7.64
556.754	7.63
557.096	7.63
557.438	7.6
557.78	7.61
558.121	7.64
558.463	7.66
558.805	7.63
559.147	7.58
559.488	7.58
559.83	7.59
560.171	7.62
560.513	7.61
560.854	7.58
561.196	7.59
561.537	7.6
561.878	7.57
562.22	7.58
562.561	7.58
562.902	7.56
563.243	7.57
563.584	7.59
563.925	7.62
564.266	7.6
564.607	7.61
564.948	7.63
565.289	7.6
565.63	7.57
565.971	7.56
566.312	7.57
566.653	7.59
566.993	7.59
567.334	7.58
567.675	7.57
568.015	7.59
568.356	7.58
568.696	7.61
569.037	7.62
569.377	7.66
569.718	7.68
570.058	7.68
570.398	7.69
570.739	7.7
571.079	7.68
571.419	7.72
571.759	7.72
572.099	7.69
572.439	7.71
572.779	7.73
573.119	7.76
573.459	7.79
573.799	7.79
574.139	7.78
574.479	7.78
574.819	7.79
575.158	7.8
575.498	7.8
575.838	7.79
576.177	7.78
576.517	7.76
576.856	7.75
577.196	7.75
577.535	7.74
577.875	7.72
578.214	7.7
578.553	7.71
578.893	7.71
579.232	7.74
579.571	7.76
579.91	7.75
580.25	7.75
580.589	7.68
580.928	7.73
581.267	7.76
581.606	7.76
581.945	7.76
582.283	7.77
582.622	7.76
582.961	7.74
583.3	7.73
583.639	7.77
583.977	7.77
584.316	7.78
584.654	7.82
584.993	7.84
585.332	7.89
585.67	7.86
586.008	7.88
586.347	7.86
586.685	7.87
587.024	7.87
587.362	7.86
587.7	7.92
588.038	7.92
588.376	7.94
588.715	7.96
589.053	7.99
589.391	7.97
589.729	8
590.067	8.01
590.404	8.02
590.742	7.98
591.08	7.96
591.418	7.95
591.756	7.97
592.093	7.96
592.431	7.93
592.769	7.96
593.106	7.96
593.444	7.95
593.781	7.94
594.119	7.92
594.456	7.92
594.793	7.9
595.131	7.88
595.468	7.92
595.805	7.91
596.143	7.89
596.48	7.9
596.817	7.92
597.154	7.93
597.491	7.99
597.828	8
598.165	8.05
598.502	8.05
598.839	8.02
599.176	8.01
599.512	8.02
599.849	8.04
600.186	8.07
600.523	8.12
600.859	8.15
601.196	8.23
601.532	8.24
601.869	8.21
602.205	8.17
602.542	8.13
602.878	8.14
603.215	8.14
603.551	8.15
603.887	8.12
604.223	8.13
604.56	8.13
604.896	8.15
605.232	8.14
605.568	8.13
605.904	8.14
606.24	8.17
606.576	8.2
606.912	8.17
607.248	8.16
607.583	8.15
607.919	8.11
608.255	8.06
608.591	8.05
608.926	8.1
609.262	8.13
609.597	8.11
609.933	8.11
610.268	8.12
610.604	8.15
610.939	8.18
611.275	8.21
611.61	8.19
611.945	8.21
612.281	8.18
612.616	8.18
612.951	8.19
613.286	8.18
613.621	8.17
613.956	8.18
614.291	8.19
614.626	8.23
614.961	8.23
615.296	8.22
615.631	8.27
615.966	8.28
616.3	8.22
616.635	8.22
616.97	8.26
617.304	8.25
617.639	8.26
617.973	8.24
618.308	8.2
618.642	8.21
618.977	8.18
619.311	8.22
619.646	8.27
619.98	8.27
620.314	8.29
620.648	8.3
620.983	8.27
621.317	8.29
621.651	8.28
621.985	8.25
622.319	8.3
622.653	8.26
622.987	8.25
623.321	8.35
623.655	8.39
623.988	8.41
624.322	8.4
624.656	8.41
624.99	8.45
625.323	8.41
625.657	8.41
625.99	8.43
626.324	8.47
626.657	8.49
626.991	8.49
627.324	8.46
627.658	8.49
627.991	8.53
628.324	8.49
628.657	8.48
628.991	8.55
629.324	8.55
629.657	8.59
629.99	8.6
630.323	8.59
630.656	8.6
630.989	8.59
631.322	8.62
631.655	8.61
631.987	8.66
632.32	8.74
632.653	8.68
632.986	8.66
633.318	8.62
633.651	8.62
633.984	8.64
634.316	8.63
634.649	8.55
634.981	8.5
635.313	8.56
635.646	8.56
635.978	8.58
636.31	8.57
636.643	8.61
636.975	8.66
637.307	8.64
637.639	8.59
637.971	8.61
638.303	8.58
638.635	8.49
638.967	8.42
639.299	8.41
639.631	8.5
639.963	8.47
640.295	8.52
640.626	8.54
640.958	8.53
641.29	8.55
641.621	8.57
641.953	8.55
642.285	8.51
642.616	8.49
642.948	8.47
643.279	8.49
643.61	8.44
643.942	8.39
644.273	8.41
644.604	8.44
644.936	8.38
645.267	8.4
645.598	8.54
645.929	8.59
646.26	8.59
646.591	8.57
646.922	8.6
647.253	8.6
647.584	8.56
647.915	8.57
648.245	8.52
648.576	8.6
648.907	8.7
649.238	8.71
649.568	8.72
649.899	8.72
650.229	8.69
650.56	8.7
650.89	8.73
651.221	8.73
651.551	8.73
651.882	8.75
652.212	8.81
652.542	8.77
652.872	8.73
653.203	8.73
653.533	8.75
653.863	8.78
654.193	8.75
654.523	8.77
654.853	8.72
655.183	8.76
655.513	8.79
655.843	8.78
656.172	8.77
656.502	8.79
656.832	8.75
657.162	8.82
657.491	8.79
657.821	8.77
658.15	8.76
658.48	8.72
658.809	8.74
659.139	8.68
659.468	8.68
659.798	8.66
660.127	8.68
660.456	8.69
660.785	8.7
661.115	8.74
661.444	8.76
661.773	8.83
662.102	8.88
662.431	8.82
662.76	8.84
663.089	8.86
663.418	8.87
663.747	8.88
664.076	8.88
664.404	8.92
664.733	8.9
665.062	8.88
665.39	8.95
665.719	8.95
666.048	8.98
666.376	8.91
666.705	8.98
667.033	8.87
667.362	8.82
667.69	8.74
668.018	8.74
668.347	8.73
668.675	8.75
669.003	8.79
669.331	8.88
669.659	8.86
669.987	8.85
670.315	8.86
670.643	8.79
670.971	8.83
671.299	8.89
671.627	8.91
671.955	8.94
672.283	8.96
672.61	8.91
672.938	8.91
673.266	9.04
673.593	9.05
673.921	9.03
674.249	9.05
674.576	9.12
674.904	9.06
675.231	9.05
675.558	9.09
675.886	9.05
676.213	8.94
676.54	8.95
676.867	8.96
677.195	8.86
677.522	8.96
677.849	9.05
678.176	8.99
678.503	8.94
678.83	8.96
679.157	8.96
679.484	9
679.81	8.99
680.137	8.88
680.464	8.8
680.791	8.85
681.117	8.8
681.444	8.83
681.771	8.84
682.097	8.88
682.424	8.86
682.75	8.89
683.077	8.92
683.403	8.88
683.729	8.96
684.056	9.01
684.382	9.01
684.708	8.88
685.034	8.92
685.36	9.02
685.686	9
686.012	8.9
686.339	8.98
686.664	8.96
686.99	9.15
687.316	9.25
687.642	9.41
687.968	9.45
688.294	9.49
688.619	9.53
688.945	9.51
689.271	9.39
689.596	9.33
689.922	9.43
690.247	9.53
690.573	9.49
690.898	9.59
691.224	9.63
691.549	9.58
691.874	9.61
692.2	9.53
692.525	9.62
692.85	9.69
693.175	9.65
693.5	9.62
693.825	9.61
694.15	9.55
694.475	9.46
694.8	9.48
695.125	9.42
695.45	9.37
695.775	9.31
696.099	9.38
696.424	9.39
696.749	9.3
697.073	9.38
697.398	9.46
697.723	9.38
698.047	9.33
698.372	9.35
698.696	9.39
699.02	9.43
699.345	9.4
699.669	9.52
699.993	9.51
700.318	9.59
700.642	9.5
700.966	9.54
701.29	9.54
701.614	9.56
701.938	9.61
702.262	9.73
702.586	9.84
702.91	9.9
703.234	9.92
703.557	10
703.881	9.94
704.205	9.86
704.529	9.8
704.852	9.83
705.176	9.87
705.499	9.9
705.823	9.99
706.146	10.02
706.47	9.85
706.793	9.81
707.117	9.8
707.44	9.86
707.763	9.83
708.086	9.77
708.409	9.76
708.733	9.66
709.056	9.58
709.379	9.65
709.702	9.64
710.025	9.8
710.348	9.74
710.671	9.61
710.993	9.72
711.316	9.7
711.639	9.63
711.962	9.68
712.284	9.65
712.607	9.6
712.93	9.55
713.252	9.63
713.575	9.62
713.897	9.62
714.22	9.7
714.542	9.82
714.864	9.9
715.187	9.9
715.509	10.03
715.831	10.08
716.153	9.9
716.475	9.96
716.798	9.89
717.12	9.81
717.442	9.85
717.764	9.79
718.085	9.95
718.407	10.11
718.729	10.07
719.051	10
719.373	9.95
719.695	9.92
720.016	9.89
720.338	10.01
720.659	10.06
720.981	10.01
721.302	9.99
721.624	9.91
721.945	9.87
722.267	9.87
722.588	9.64
722.909	9.61
723.231	9.55
723.552	9.51
723.873	9.53
724.194	9.6
724.515	9.54
724.836	9.48
725.157	9.56
725.478	9.53
725.799	9.49
726.12	9.54
726.441	9.59
726.762	9.73
727.083	9.62
727.403	9.68
727.724	9.75
728.045	9.74
728.365	9.85
728.686	9.98
729.006	9.91
729.327	10.07
729.647	10.31
729.967	10.25
730.288	10.23
730.608	10.31
730.928	10.38
731.249	10.35
731.569	10.39
731.889	10.24
732.209	10.21
732.529	10.28
732.849	10.26
733.169	10.31
733.489	10.23
733.809	10.23
734.129	10.14
734.448	10.02
734.768	9.85
735.088	10
735.408	9.96
735.727	10.13
736.047	10.16
736.366	10.03
736.686	10.02
737.005	10.07
737.325	10.1
737.644	9.97
737.963	10.05
738.283	10
738.602	10.23
738.921	10.36
739.24	10.39
739.56	10.31
739.879	10.44
740.198	10.56
740.517	10.65
740.836	10.59
741.155	10.53
741.473	10.53
741.792	10.27
742.111	10.26
742.43	10.15
742.748	10.17
743.067	10.22
743.386	10.35
743.704	10.4
744.023	10.61
744.341	10.5
744.66	10.6
744.978	10.73
745.297	10.57
745.615	10.39
745.933	10.46
746.252	10.74
746.57	10.39
746.888	10.12
747.206	9.97
747.524	10.1
747.842	10.46
748.16	10.8
748.478	10.96
748.796	11.04
749.114	11.21
749.432	11.14
749.749	11.09
750.067	10.98
750.385	10.72
750.703	10.61
751.02	10.73
751.338	10.84
751.655	10.6
751.973	10.39
752.29	10.65
752.608	10.69
752.925	10.52
753.242	10.52
753.56	10.47
753.877	10.65
754.194	10.67
754.511	10.41
754.828	10.23
755.145	10.12
755.462	10.2
755.779	10.14
756.096	10.1
756.413	10.12
756.73	10.45
757.047	10.72
757.364	10.55
757.68	10.63
757.997	10.26
758.314	10.6
758.63	10.64
758.947	10.51
759.264	10.55
759.58	10.43
759.896	10.76
760.213	10.87
760.529	11.12
760.846	11.04
761.162	11
761.478	10.92
761.794	10.83
762.11	10.81
762.426	10.76
762.743	10.98
763.059	10.98
763.375	10.65
763.69	10.57
764.006	10.75
764.322	10.91
764.638	11.09
764.954	11.03
765.27	11.13
765.585	11.13
765.901	10.98
766.216	11.06
766.532	10.95
766.848	10.92
767.163	10.66
767.478	10.65
767.794	10.69
768.109	10.61
768.424	11.03
768.74	11.02
769.055	11.12
769.37	11.05
769.685	11.1
770	11.53
770.315	11.5
770.63	11.47
770.945	11.15
771.26	11.28
771.575	11.46
771.89	11.28
772.205	11.23
772.52	11.12
772.834	11
773.149	10.79
773.464	11.03
773.778	11.35
774.093	11.45
774.407	11.45
774.722	11.74
775.036	11.28
775.351	11.34
775.665	11.14
775.979	10.91
776.293	10.77
776.608	10.36
776.922	10.46
777.236	10.38
777.55	10.68
777.864	10.34
778.178	10.31
778.492	10.83
778.806	10.73
779.12	10.95
779.434	11.18
779.747	11.8
780.061	11.63
780.375	11.29
780.689	11.32
781.002	11.51
781.316	11.47
781.629	11.74
781.943	12.08
782.256	12.27
782.57	12.47
782.883	12.41
783.196	12.49
783.51	12.29
783.823	12.26
784.136	12.14
784.449	12.33
784.762	12.35
785.075	12.19
785.388	12.4
785.701	12.96
786.014	13.32
786.327	13.28
786.64	13.37
786.953	13.41
787.266	13.12
787.578	13.1
787.891	13.12
788.204	13.13
788.516	13.02
788.829	12.94
789.141	13.37
789.454	13.83
789.766	14.26
790.079	14.41
790.391	14.26
790.703	14.41
791.016	14.41
791.328	14.19
791.64	14.5
791.952	14.83
792.264	14.04
792.576	13.8
792.888	13.78
793.2	13.85
793.512	13.75
793.824	14.04
794.136	13.85
794.448	13.99
794.76	13.74
795.071	13.32
795.383	13.4
795.695	12.96
796.006	13.02
796.318	12.3
796.629	12.55
796.941	12.9
797.252	12.98
797.564	13.31
797.875	13.28
798.186	12.52
798.497	12.06
798.809	12.18
799.12	12.24
799.431	12.12
799.742	11.76
800.053	12
800.364	11.92
800.675	11.61
800.986	11.35
801.297	11.46
801.608	11.35
801.918	10.84
802.229	11.16
802.54	11.11
802.851	11.49
803.161	11.13
803.472	10.68
803.782	10.38
804.093	10.06
804.403	10.41
804.714	10.62
805.024	10.72
805.334	11.33
805.645	11.41
805.955	10.95
806.265	11.58
806.575	11.35
806.885	11.31
807.195	12.29
807.505	12.77
807.815	12.69
808.125	12.76
808.435	13
808.745	12.6
809.055	12.22
809.365	12.34
809.674	12.12
809.984	12.38
810.294	12.4
810.603	12.12
810.913	12.01
811.222	12.14
811.532	12.69
811.841	12.87
812.151	12.9
812.46	13.09
812.769	12.81
813.079	13.12
813.388	13.29
813.697	12.74
814.006	12.41
814.315	12.71
814.624	12.34
814.933	12.66
815.242	12.2
815.551	12.47
815.86	12.41
816.169	13.07
816.478	12.22
816.786	12.47
817.095	12.7
817.404	12.53
817.712	12.9
818.021	12.72
818.33	12.06
818.638	11.8
818.947	12.18
819.255	12.73
819.563	12.85
819.872	12.58
820.18	12.42
820.488	12.6
820.796	12.64
821.105	12.82
821.413	12.73
821.721	12.89
822.029	12.98
822.337	13.1
822.645	13.06
822.953	13.27
823.26	13.36
823.568	13.2
823.876	13.18
824.184	13.18
824.491	13.13
824.799	13.19
825.107	13.13
825.414	13.12
825.722	13.02
826.029	13
826.337	13.12
826.644	13.29
826.951	13.22
827.259	13.16
827.566	13.12
827.873	13.31
828.18	13.49
828.488	13.42
828.795	13.25
829.102	13.46
829.409	13.53
829.716	13.3
830.023	13.89
830.329	14.02
830.636	14.11
830.943	14.14
831.25	14.49
831.557	14.82
831.863	14.88
832.17	14.66
832.476	14.7
832.783	14.82
833.089	14.62
833.396	14.67
833.702	14.96
834.009	15.19
834.315	14.89
834.621	14.62
834.928	14.5
835.234	14.46
835.54	14.32
835.846	14.32
836.152	14.26
836.458	13.7
836.764	13.78
837.07	13.61
837.376	13.73
837.682	13.54
837.988	13.07
838.293	12.77
838.599	12.84
838.905	12.76
839.211	12.25
839.516	12.51
839.822	12.49
840.127	12.62
840.433	13
840.738	13.07
841.044	13.2
841.349	12.91
841.654	13
841.959	12.62
842.265	12.05
842.57	12.86
842.875	12.28
843.18	12.51
843.485	12.31
843.79	12.2
844.095	11.89
844.4	13.58
844.705	12.96
845.01	13.35
845.315	13.62
845.619	13.69
845.924	13.36
846.229	13.89
846.533	12.86
846.838	11.61
847.142	11.05
847.447	9.99
847.751	10.48
848.056	9.98
848.36	10.54
848.664	12.69
848.969	12.78
849.273	13.52
849.577	13.04
849.881	12.15
850.185	12.8
850.489	12.6
850.794	12.13
851.097	14.95
851.401	14.9
851.705	14.79
852.009	17.53
852.313	17.87
852.617	16.75
852.92	17.95
853.224	17.98
853.528	19.74
853.831	21.06
854.135	21.51
854.438	21.73
854.742	19.59
855.045	18.42
855.349	14.83
855.652	15.65
855.955	15.36
856.259	15.74
856.562	15.35
856.865	13.37
857.168	12.71
857.471	10.89
857.774	11.77
858.077	12.51
858.38	11.16
858.683	9.71
858.986	9.14
859.289	7.13
859.592	6.37
859.894	6.59
860.197	8.01
860.5	8.16
860.802	9.08
861.105	11.8
861.407	10.48
861.71	12.7
862.012	12.54
862.315	11.82
862.617	12.25
862.919	12.14
863.222	13.75
863.524	14.99
863.826	16.13
864.128	15.31
864.43	14.03
864.732	12.61
865.034	13.53
865.336	14.34
865.638	16.33
865.94	18.36
866.242	17.39
866.544	14.41
866.846	13.44
867.147	12.82
867.449	12.12
867.751	13.76
868.052	14.31
868.354	13.21
868.655	14.34
868.957	15.16
869.258	13.67
869.56	13.74
869.861	11.64
870.162	10.73
870.463	11.19
870.765	11.32
871.066	13.58
871.367	14.75
871.668	14.81
871.969	13.08
872.27	11.63
872.571	9.67
872.872	11.79
873.173	12.43
873.473	13.97
873.774	14.47
874.075	13.38
874.376	13.49
874.676	16.25
874.977	14.81
875.277	14.63
875.578	14.8
875.878	14.74
876.179	15.47
876.479	15.68
876.78	14.82
877.08	15.13
877.38	13.92
877.68	13
877.981	12.49
878.281	14.1
878.581	15.49
