Data from BA57750_Reflection_00013.txt Node
Date: Mon Nov 18 15:47:32 EST 2019
User: vgr7
Spectrometer: USB2G7710
Scans to average: 3
Trigger mode: 4
Integration Time (sec): 2.000000E-2
Electric dark correction enabled: true
Boxcar width: 10
XAxis mode: Wavelengths
Number of Pixels in Spectrum: 2048
>>>>>Begin Spectral Data<<<<<
177.721	106.78
178.105	90.54
178.488	2804.92
178.871	-40.11
179.254	-22.24
179.636	-126.1
180.019	-43.19
180.402	200
180.785	280.72
181.168	122.46
181.55	215.22
181.933	169.29
182.316	215.32
182.698	232.59
183.081	285.01
183.463	402.09
183.846	698.2
184.228	523.4
184.611	599.3
184.993	480.68
185.376	692.17
185.758	594.7
186.14	856.71
186.522	564.98
186.904	376.34
187.287	284.82
187.669	536.73
188.051	420.8
188.433	744.98
188.815	1115.12
189.197	45561.54
189.579	4717.39
189.961	24573.68
190.342	10495.35
190.724	-548.77
191.106	-450.61
191.488	-714.04
191.869	-715.85
192.251	-696.13
192.633	-302.64
193.014	-258.13
193.396	-379.88
193.777	-358.3
194.159	-295.95
194.54	-331.98
194.922	-284.02
195.303	-129.16
195.684	-137.51
196.065	-78.37
196.447	-95.46
196.828	-106.71
197.209	-81.48
197.59	-79.36
197.971	-112.41
198.352	-101.38
198.733	-126.4
199.114	-123.07
199.495	-106.73
199.876	-95.64
200.257	-88.94
200.638	-97.66
201.018	-98.49
201.399	-105.33
201.78	-93.78
202.16	-100.76
202.541	-116.01
202.922	-124.41
203.302	-179
203.683	-195
204.063	-178.39
204.444	-143.79
204.824	-147.04
205.204	-168.4
205.585	-167.46
205.965	-131.48
206.345	-166.31
206.725	-123.66
207.106	-124.85
207.486	-170.79
207.866	-189.59
208.246	-161.69
208.626	-131.22
209.006	-137.6
209.386	-148.03
209.766	-150.1
210.145	-170.43
210.525	-127.83
210.905	-121.71
211.285	-145.27
211.664	-96.42
212.044	-183.39
212.424	-127.99
212.803	-76.32
213.183	-71.14
213.562	-94.32
213.942	-61.79
214.321	-47.38
214.701	-56.83
215.08	-68.78
215.459	-79.19
215.838	-65.51
216.218	-66.04
216.597	-58.6
216.976	-58.51
217.355	-50.43
217.734	-55.31
218.113	-54.52
218.492	-63.02
218.871	-62.72
219.25	-48.55
219.629	-61.59
220.008	-53.53
220.387	-69.97
220.766	-87.4
221.144	-105.76
221.523	-105.92
221.902	-126.69
222.28	-165.2
222.659	-183.85
223.037	-166.9
223.416	-165.84
223.794	-185.19
224.173	-161.86
224.551	-139.82
224.929	-113.72
225.308	-92.84
225.686	-75.28
226.064	-70.68
226.442	-61.22
226.821	-43.62
227.199	-46.11
227.577	-41.55
227.955	-39.33
228.333	-34.38
228.711	-30.17
229.089	-22.12
229.467	-20.38
229.845	-21.79
230.222	-17.93
230.6	-17.6
230.978	-14.51
231.356	-10.6
231.733	-9.17
232.111	-8.62
232.488	-10.56
232.866	-9.92
233.243	-10.74
233.621	-10.88
233.998	-9.74
234.376	-9.34
234.753	-10.84
235.13	-8.93
235.508	-8.83
235.885	-8.95
236.262	-9.84
236.639	-9.52
237.016	-10.25
237.393	-7.84
237.77	-5.47
238.147	-5.63
238.524	-4.16
238.901	-3.79
239.278	-3.1
239.655	-2.2
240.032	-1.23
240.409	-0.66
240.785	-0.23
241.162	-0.16
241.539	0.26
241.915	0.29
242.292	0.29
242.668	0.62
243.045	0.85
243.421	1.29
243.798	1.74
244.174	2.25
244.551	2.24
244.927	2.42
245.303	2.45
245.679	2.39
246.056	2.47
246.432	2.6
246.808	2.73
247.184	2.31
247.56	2.14
247.936	1.79
248.312	1.87
248.688	1.89
249.064	1.83
249.44	1.55
249.815	1.63
250.191	1.71
250.567	1.69
250.943	1.53
251.318	1.34
251.694	1.2
252.069	1.1
252.445	1.33
252.82	1.23
253.196	0.9
253.571	0.72
253.947	0.95
254.322	0.72
254.697	0.64
255.073	0.95
255.448	0.92
255.823	1.06
256.198	1.34
256.573	1.5
256.948	1.81
257.323	2.27
257.698	2.42
258.073	2.3
258.448	2.38
258.823	2.44
259.198	2.45
259.573	2.41
259.948	2.22
260.322	2.2
260.697	2.12
261.072	2.14
261.446	2.12
261.821	2.04
262.195	2.07
262.57	1.93
262.944	1.79
263.319	1.8
263.693	1.78
264.067	1.66
264.442	1.47
264.816	1.23
265.19	0.99
265.564	0.99
265.938	0.92
266.313	0.76
266.687	0.62
267.061	0.84
267.435	1.05
267.809	1.08
268.183	1.05
268.556	0.99
268.93	0.94
269.304	1.02
269.678	1.24
270.051	1.41
270.425	1.63
270.799	1.8
271.172	1.96
271.546	1.88
271.919	1.89
272.293	1.97
272.666	2.01
273.04	2.03
273.413	1.93
273.787	2.1
274.16	1.99
274.533	2.14
274.906	2.01
275.279	1.86
275.653	1.93
276.026	1.75
276.399	1.76
276.772	2.03
277.145	1.99
277.518	1.96
277.891	1.79
278.263	1.63
278.636	1.58
279.009	1.62
279.382	1.95
279.755	1.96
280.127	2.08
280.5	2.13
280.872	2.14
281.245	2.16
281.617	2.2
281.99	2.27
282.362	2.28
282.735	2.07
283.107	2.12
283.479	2.21
283.852	2.33
284.224	2.49
284.596	2.33
284.968	2.4
285.34	2.34
285.713	2.41
286.085	2.45
286.457	2.53
286.829	2.54
287.201	2.49
287.572	2.41
287.944	2.33
288.316	2.33
288.688	2.3
289.06	2.36
289.431	2.35
289.803	2.41
290.175	2.47
290.546	2.73
290.918	2.73
291.289	2.65
291.661	2.77
292.032	2.76
292.403	2.82
292.775	2.97
293.146	2.98
293.517	2.93
293.889	3.09
294.26	3.08
294.631	3.03
295.002	3.03
295.373	3.07
295.744	3.09
296.115	3.14
296.486	3.11
296.857	3.04
297.228	3.01
297.599	3
297.97	2.89
298.34	2.93
298.711	2.97
299.082	3.01
299.452	2.99
299.823	3.07
300.194	3.01
300.564	2.87
300.935	2.88
301.305	2.79
301.676	2.62
302.046	2.7
302.416	2.72
302.787	2.71
303.157	2.79
303.527	2.78
303.897	2.79
304.267	2.99
304.637	3.07
305.008	3.26
305.378	3.33
305.748	3.55
306.117	3.44
306.487	3.59
306.857	3.56
307.227	3.62
307.597	3.63
307.967	3.73
308.336	3.71
308.706	3.85
309.076	4.09
309.445	4.12
309.815	4.02
310.184	3.99
310.554	4.04
310.923	4.04
311.293	4.02
311.662	4.04
312.031	3.85
312.401	3.91
312.77	3.83
313.139	3.88
313.508	3.85
313.877	3.78
314.246	3.78
314.616	3.88
314.985	3.86
315.353	3.7
315.722	3.67
316.091	3.74
316.46	3.56
316.829	3.45
317.198	3.65
317.567	3.69
317.935	3.8
318.304	3.86
318.672	3.98
319.041	4.08
319.41	4.04
319.778	4.15
320.147	4.16
320.515	4.19
320.883	4.12
321.252	4.2
321.62	4.46
321.988	4.52
322.357	4.49
322.725	4.54
323.093	4.81
323.461	4.98
323.829	5.01
324.197	5.19
324.565	5.26
324.933	5.15
325.301	5.09
325.669	5.18
326.037	5.21
326.405	5.24
326.772	5.35
327.14	5.31
327.508	5.42
327.875	5.4
328.243	5.54
328.61	5.58
328.978	5.53
329.346	5.64
329.713	5.53
330.08	5.71
330.448	5.62
330.815	5.48
331.182	5.49
331.55	5.5
331.917	5.45
332.284	5.44
332.651	5.56
333.018	5.77
333.385	5.67
333.752	5.62
334.119	5.64
334.486	5.55
334.853	5.71
335.22	5.77
335.587	5.77
335.954	5.61
336.32	5.57
336.687	5.72
337.054	5.69
337.42	5.79
337.787	5.81
338.153	5.92
338.52	6.11
338.886	6.22
339.253	6.27
339.619	6.31
339.986	6.42
340.352	6.43
340.718	6.39
341.084	6.42
341.451	6.57
341.817	6.56
342.183	6.63
342.549	6.6
342.915	6.53
343.281	6.58
343.647	6.62
344.013	6.63
344.379	6.44
344.745	6.45
345.11	6.46
345.476	6.36
345.842	6.4
346.208	6.35
346.573	6.35
346.939	6.42
347.304	6.44
347.67	6.35
348.035	6.33
348.401	6.31
348.766	6.29
349.132	6.19
349.497	6.19
349.862	6.3
350.228	6.35
350.593	6.31
350.958	6.26
351.323	6.26
351.688	6.35
352.053	6.51
352.418	6.55
352.783	6.58
353.148	6.65
353.513	6.65
353.878	6.62
354.243	6.6
354.608	6.61
354.972	6.57
355.337	6.72
355.702	6.82
356.066	6.95
356.431	6.87
356.795	6.95
357.16	6.92
357.524	6.79
357.889	6.76
358.253	6.84
358.618	6.92
358.982	6.89
359.346	6.86
359.71	6.81
360.075	6.72
360.439	6.69
360.803	6.68
361.167	6.66
361.531	6.65
361.895	6.63
362.259	6.57
362.623	6.59
362.987	6.51
363.351	6.43
363.714	6.35
364.078	6.38
364.442	6.29
364.806	6.28
365.169	6.3
365.533	6.31
365.896	6.23
366.26	6.18
366.623	6.21
366.987	6.19
367.35	6.24
367.714	6.23
368.077	6.21
368.44	6.21
368.803	6.19
369.167	6.16
369.53	6.11
369.893	6.09
370.256	6.15
370.619	6.13
370.982	6.05
371.345	6.02
371.708	6.04
372.071	6.06
372.434	6.02
372.797	6.01
373.159	5.87
373.522	5.86
373.885	5.85
374.247	5.82
374.61	5.76
374.973	5.69
375.335	5.62
375.698	5.59
376.06	5.51
376.423	5.47
376.785	5.46
377.147	5.43
377.51	5.43
377.872	5.37
378.234	5.33
378.596	5.39
378.958	5.28
379.321	5.23
379.683	5.16
380.045	5.15
380.407	5.12
380.769	5.19
381.13	5.16
381.492	5.09
381.854	5.02
382.216	5
382.578	4.93
382.939	4.94
383.301	4.9
383.663	4.85
384.024	4.84
384.386	4.83
384.747	4.8
385.109	4.8
385.47	4.73
385.832	4.67
386.193	4.63
386.554	4.62
386.916	4.58
387.277	4.6
387.638	4.57
387.999	4.51
388.36	4.46
388.721	4.45
389.082	4.44
389.443	4.39
389.804	4.4
390.165	4.36
390.526	4.34
390.887	4.3
391.248	4.31
391.609	4.29
391.969	4.26
392.33	4.23
392.691	4.16
393.051	4.18
393.412	4.16
393.772	4.11
394.133	4.09
394.493	4.09
394.854	4.01
395.214	3.99
395.574	3.99
395.935	3.96
396.295	3.94
396.655	3.93
397.015	3.95
397.376	3.88
397.736	3.9
398.096	3.86
398.456	3.84
398.816	3.83
399.176	3.78
399.535	3.71
399.895	3.68
400.255	3.67
400.615	3.62
400.975	3.59
401.334	3.55
401.694	3.56
402.054	3.5
402.413	3.49
402.773	3.44
403.132	3.4
403.492	3.39
403.851	3.37
404.211	3.31
404.57	3.29
404.929	3.3
405.288	3.25
405.648	3.21
406.007	3.2
406.366	3.19
406.725	3.2
407.084	3.2
407.443	3.17
407.802	3.18
408.161	3.14
408.52	3.14
408.879	3.15
409.238	3.12
409.596	3.1
409.955	3.11
410.314	3.12
410.673	3.12
411.031	3.1
411.39	3.08
411.748	3.1
412.107	3.07
412.465	3.08
412.824	3.08
413.182	3.07
413.54	3.06
413.899	3.03
414.257	3.01
414.615	2.98
414.974	2.98
415.332	2.97
415.69	2.97
416.048	2.95
416.406	2.94
416.764	2.92
417.122	2.94
417.48	2.92
417.838	2.91
418.195	2.88
418.553	2.88
418.911	2.87
419.269	2.86
419.626	2.87
419.984	2.85
420.342	2.83
420.699	2.83
421.057	2.83
421.414	2.82
421.772	2.81
422.129	2.82
422.486	2.81
422.844	2.79
423.201	2.78
423.558	2.77
423.915	2.75
424.273	2.75
424.63	2.73
424.987	2.73
425.344	2.72
425.701	2.72
426.058	2.72
426.415	2.7
426.772	2.69
427.128	2.67
427.485	2.66
427.842	2.66
428.199	2.65
428.555	2.62
428.912	2.6
429.269	2.61
429.625	2.59
429.982	2.58
430.338	2.58
430.695	2.56
431.051	2.53
431.407	2.54
431.764	2.53
432.12	2.53
432.476	2.51
432.832	2.51
433.189	2.5
433.545	2.49
433.901	2.52
434.257	2.51
434.613	2.52
434.969	2.53
435.325	2.53
435.681	2.53
436.036	2.53
436.392	2.54
436.748	2.54
437.104	2.53
437.459	2.54
437.815	2.55
438.171	2.56
438.526	2.58
438.882	2.57
439.237	2.59
439.593	2.59
439.948	2.58
440.304	2.59
440.659	2.59
441.014	2.58
441.369	2.55
441.725	2.55
442.08	2.54
442.435	2.53
442.79	2.53
443.145	2.54
443.5	2.55
443.855	2.53
444.21	2.52
444.565	2.52
444.92	2.52
445.275	2.49
445.629	2.48
445.984	2.48
446.339	2.47
446.693	2.46
447.048	2.46
447.403	2.45
447.757	2.45
448.112	2.42
448.466	2.42
448.82	2.41
449.175	2.41
449.529	2.41
449.883	2.39
450.238	2.38
450.592	2.38
450.946	2.36
451.3	2.37
451.654	2.37
452.008	2.37
452.362	2.35
452.716	2.35
453.07	2.36
453.424	2.36
453.778	2.35
454.132	2.33
454.486	2.33
454.839	2.35
455.193	2.33
455.547	2.34
455.9	2.33
456.254	2.32
456.607	2.31
456.961	2.31
457.314	2.32
457.668	2.32
458.021	2.29
458.375	2.3
458.728	2.28
459.081	2.27
459.434	2.26
459.787	2.28
460.141	2.29
460.494	2.28
460.847	2.27
461.2	2.27
461.553	2.29
461.906	2.29
462.259	2.29
462.611	2.3
462.964	2.32
463.317	2.34
463.67	2.35
464.022	2.36
464.375	2.35
464.728	2.36
465.08	2.37
465.433	2.38
465.785	2.37
466.138	2.37
466.49	2.38
466.843	2.36
467.195	2.37
467.547	2.38
467.899	2.39
468.252	2.4
468.604	2.43
468.956	2.43
469.308	2.43
469.66	2.42
470.012	2.45
470.364	2.43
470.716	2.44
471.068	2.44
471.42	2.44
471.772	2.47
472.123	2.48
472.475	2.51
472.827	2.53
473.178	2.54
473.53	2.57
473.882	2.59
474.233	2.62
474.585	2.61
474.936	2.61
475.288	2.62
475.639	2.63
475.99	2.6
476.342	2.61
476.693	2.61
477.044	2.63
477.395	2.61
477.746	2.63
478.097	2.62
478.448	2.61
478.8	2.61
479.15	2.59
479.501	2.58
479.852	2.56
480.203	2.55
480.554	2.55
480.905	2.56
481.255	2.55
481.606	2.56
481.957	2.56
482.307	2.57
482.658	2.56
483.009	2.54
483.359	2.55
483.709	2.55
484.06	2.56
484.41	2.55
484.761	2.55
485.111	2.54
485.461	2.54
485.811	2.55
486.162	2.55
486.512	2.56
486.862	2.55
487.212	2.55
487.562	2.56
487.912	2.56
488.262	2.57
488.612	2.57
488.961	2.56
489.311	2.56
489.661	2.56
490.011	2.56
490.36	2.57
490.71	2.57
491.06	2.57
491.409	2.57
491.759	2.56
492.108	2.58
492.458	2.58
492.807	2.58
493.157	2.58
493.506	2.59
493.855	2.59
494.204	2.6
494.554	2.61
494.903	2.61
495.252	2.61
495.601	2.61
495.95	2.63
496.299	2.64
496.648	2.65
496.997	2.66
497.346	2.68
497.695	2.72
498.043	2.72
498.392	2.74
498.741	2.75
499.09	2.76
499.438	2.79
499.787	2.81
500.135	2.84
500.484	2.86
500.832	2.89
501.181	2.92
501.529	2.93
501.878	2.95
502.226	2.99
502.574	3.03
502.923	3.03
503.271	3.05
503.619	3.08
503.967	3.12
504.315	3.15
504.663	3.17
505.011	3.19
505.359	3.23
505.707	3.25
506.055	3.29
506.403	3.33
506.751	3.38
507.098	3.39
507.446	3.43
507.794	3.44
508.141	3.47
508.489	3.52
508.837	3.56
509.184	3.6
509.531	3.64
509.879	3.68
510.226	3.75
510.574	3.81
510.921	3.85
511.268	3.89
511.616	3.94
511.963	3.99
512.31	4.05
512.657	4.13
513.004	4.21
513.351	4.3
513.698	4.37
514.045	4.43
514.392	4.53
514.739	4.61
515.086	4.7
515.432	4.79
515.779	4.87
516.126	4.97
516.473	5.06
516.819	5.16
517.166	5.23
517.512	5.31
517.859	5.37
518.205	5.45
518.552	5.53
518.898	5.6
519.245	5.69
519.591	5.77
519.937	5.84
520.283	5.94
520.629	6.03
520.976	6.13
521.322	6.25
521.668	6.37
522.014	6.49
522.36	6.63
522.706	6.77
523.052	6.91
523.398	7.08
523.743	7.25
524.089	7.41
524.435	7.57
524.781	7.73
525.126	7.89
525.472	8.06
525.817	8.22
526.163	8.35
526.509	8.47
526.854	8.58
527.199	8.7
527.545	8.81
527.89	8.94
528.235	9.06
528.581	9.18
528.926	9.31
529.271	9.44
529.616	9.58
529.961	9.72
530.306	9.85
530.651	9.99
530.996	10.15
531.341	10.32
531.686	10.5
532.031	10.68
532.376	10.87
532.721	11.06
533.065	11.25
533.41	11.47
533.755	11.7
534.099	11.92
534.444	12.14
534.788	12.35
535.133	12.57
535.477	12.82
535.822	13.07
536.166	13.3
536.51	13.58
536.855	13.87
537.199	14.17
537.543	14.51
537.887	14.84
538.231	15.15
538.576	15.5
538.92	15.84
539.264	16.16
539.608	16.47
539.951	16.74
540.295	17
540.639	17.28
540.983	17.52
541.327	17.78
541.671	18.04
542.014	18.34
542.358	18.59
542.701	18.81
543.045	19.07
543.389	19.33
543.732	19.59
544.075	19.87
544.419	20.14
544.762	20.44
545.105	20.74
545.449	21.08
545.792	21.38
546.135	21.68
546.478	22.01
546.821	22.35
547.165	22.71
547.508	23.08
547.851	23.43
548.194	23.79
548.536	24.17
548.879	24.59
549.222	24.9
549.565	25.28
549.908	25.71
550.25	26.1
550.593	26.47
550.936	26.86
551.278	27.21
551.621	27.62
551.963	27.95
552.306	28.25
552.648	28.54
552.991	28.88
553.333	29.25
553.675	29.6
554.017	29.93
554.36	30.19
554.702	30.54
555.044	30.82
555.386	31.19
555.728	31.5
556.07	31.83
556.412	32.17
556.754	32.45
557.096	32.8
557.438	33.09
557.78	33.46
558.121	33.81
558.463	34.09
558.805	34.37
559.147	34.69
559.488	35.09
559.83	35.42
560.171	35.76
560.513	36.1
560.854	36.36
561.196	36.62
561.537	36.99
561.878	37.22
562.22	37.57
562.561	37.8
562.902	38.08
563.243	38.26
563.584	38.5
563.925	38.79
564.266	38.99
564.607	39.27
564.948	39.55
565.289	39.79
565.63	40.04
565.971	40.25
566.312	40.48
566.653	40.7
566.993	40.88
567.334	41.08
567.675	41.23
568.015	41.46
568.356	41.7
568.696	41.92
569.037	42.16
569.377	42.36
569.718	42.59
570.058	42.83
570.398	43.07
570.739	43.31
571.079	43.47
571.419	43.68
571.759	43.83
572.099	43.93
572.439	44.08
572.779	44.25
573.119	44.45
573.459	44.62
573.799	44.71
574.139	44.93
574.479	45.08
574.819	45.24
575.158	45.39
575.498	45.5
575.838	45.63
576.177	45.79
576.517	45.94
576.856	46.02
577.196	46.13
577.535	46.27
577.875	46.41
578.214	46.59
578.553	46.77
578.893	46.9
579.232	47.1
579.571	47.26
579.91	47.36
580.25	47.5
580.589	47.58
580.928	47.77
581.267	47.87
581.606	47.97
581.945	48.12
582.283	48.28
582.622	48.5
582.961	48.65
583.3	48.77
583.639	48.89
583.977	49.08
584.316	49.22
584.654	49.29
584.993	49.42
585.332	49.56
585.67	49.64
586.008	49.81
586.347	49.95
586.685	49.97
587.024	50.1
587.362	50.14
587.7	50.3
588.038	50.38
588.376	50.47
588.715	50.58
589.053	50.69
589.391	50.74
589.729	50.87
590.067	50.89
590.404	50.93
590.742	51.03
591.08	51.14
591.418	51.23
591.756	51.33
592.093	51.36
592.431	51.39
592.769	51.41
593.106	51.48
593.444	51.48
593.781	51.58
594.119	51.67
594.456	51.71
594.793	51.78
595.131	51.85
595.468	51.94
595.805	52.03
596.143	52.07
596.48	52.09
596.817	52.11
597.154	52.24
597.491	52.35
597.828	52.38
598.165	52.35
598.502	52.41
598.839	52.51
599.176	52.56
599.512	52.65
599.849	52.76
600.186	52.81
600.523	52.9
600.859	52.97
601.196	53.03
601.532	53.12
601.869	53.18
602.205	53.24
602.542	53.3
602.878	53.34
603.215	53.39
603.551	53.51
603.887	53.53
604.223	53.5
604.56	53.57
604.896	53.63
605.232	53.74
605.568	53.75
605.904	53.65
606.24	53.69
606.576	53.73
606.912	53.76
607.248	53.81
607.583	53.83
607.919	53.87
608.255	53.91
608.591	54.09
608.926	54.11
609.262	54.15
609.597	54.14
609.933	54.22
610.268	54.26
610.604	54.26
610.939	54.33
611.275	54.47
611.61	54.43
611.945	54.46
612.281	54.42
612.616	54.48
612.951	54.68
613.286	54.7
613.621	54.74
613.956	54.78
614.291	54.84
614.626	54.95
614.961	55.03
615.296	55.03
615.631	54.93
615.966	54.98
616.3	54.94
616.635	55.1
616.97	55.15
617.304	55.18
617.639	55.31
617.973	55.27
618.308	55.28
618.642	55.4
618.977	55.42
619.311	55.6
619.646	55.67
619.98	55.63
620.314	55.69
620.648	55.72
620.983	55.74
621.317	55.77
621.651	55.82
621.985	55.85
622.319	55.91
622.653	55.92
622.987	55.98
623.321	56.11
623.655	56.06
623.988	56.04
624.322	56
624.656	55.9
624.99	55.99
625.323	55.92
625.657	55.93
625.99	56.05
626.324	55.95
626.657	55.91
626.991	56.04
627.324	56.08
627.658	56.15
627.991	56.19
628.324	56.2
628.657	56.17
628.991	56.28
629.324	56.31
629.657	56.33
629.99	56.39
630.323	56.34
630.656	56.37
630.989	56.34
631.322	56.43
631.655	56.48
631.987	56.5
632.32	56.61
632.653	56.62
632.986	56.55
633.318	56.63
633.651	56.58
633.984	56.53
634.316	56.59
634.649	56.46
634.981	56.55
635.313	56.62
635.646	56.62
635.978	56.59
636.31	56.64
636.643	56.69
636.975	56.73
637.307	56.88
637.639	56.89
637.971	56.98
638.303	56.96
638.635	57.03
638.967	56.99
639.299	57
639.631	56.93
639.963	57
640.295	57
640.626	57.12
640.958	57.15
641.29	57.16
641.621	57.32
641.953	57.22
642.285	57.19
642.616	57.17
642.948	57.12
643.279	57.07
643.61	57.03
643.942	57.08
644.273	56.95
644.604	56.95
644.936	56.97
645.267	56.95
645.598	56.92
645.929	56.85
646.26	56.95
646.591	57.06
646.922	57.08
647.253	57
647.584	57.01
647.915	57.02
648.245	57.08
648.576	57.05
648.907	57.16
649.238	57.15
649.568	57.19
649.899	57.23
650.229	57.2
650.56	57.25
650.89	57.16
651.221	57.18
651.551	57.18
651.882	57.1
652.212	57.14
652.542	57.17
652.872	57.21
653.203	57.18
653.533	57.17
653.863	57.12
654.193	57.21
654.523	57.25
654.853	57.18
655.183	57.05
655.513	57.02
655.843	56.97
656.172	57.08
656.502	57.13
656.832	57.17
657.162	57.12
657.491	57.1
657.821	57.13
658.15	57.21
658.48	57.23
658.809	57.36
659.139	57.35
659.468	57.35
659.798	57.36
660.127	57.4
660.456	57.4
660.785	57.46
661.115	57.51
661.444	57.55
661.773	57.61
662.102	57.71
662.431	57.88
662.76	57.87
663.089	57.8
663.418	57.83
663.747	57.83
664.076	58.02
664.404	58.05
664.733	58.16
665.062	58.1
665.39	58.08
665.719	58.04
666.048	58.15
666.376	58.27
666.705	58.32
667.033	58.19
667.362	58.2
667.69	58.1
668.018	57.99
668.347	57.93
668.675	57.94
669.003	57.82
669.331	57.69
669.659	57.71
669.987	57.65
670.315	57.64
670.643	57.66
670.971	57.57
671.299	57.56
671.627	57.45
671.955	57.45
672.283	57.33
672.61	57.28
672.938	57.13
673.266	57
673.593	57.04
673.921	57.04
674.249	57.17
674.576	57.25
674.904	57.27
675.231	57.26
675.558	57.26
675.886	57.38
676.213	57.37
676.54	57.39
676.867	57.45
677.195	57.46
677.522	57.28
677.849	57.38
678.176	57.44
678.503	57.37
678.83	57.52
679.157	57.63
679.484	57.7
679.81	57.7
680.137	57.69
680.464	57.7
680.791	57.73
681.117	57.59
681.444	57.48
681.771	57.64
682.097	57.77
682.424	57.7
682.75	57.67
683.077	57.72
683.403	57.73
683.729	57.72
684.056	57.75
684.382	57.84
684.708	57.76
685.034	57.68
685.36	57.68
685.686	57.7
686.012	57.71
686.339	57.57
686.664	57.55
686.99	57.71
687.316	57.66
687.642	57.73
687.968	57.77
688.294	57.91
688.619	57.79
688.945	57.75
689.271	57.82
689.596	57.72
689.922	57.79
690.247	57.88
690.573	58.04
690.898	57.98
691.224	58.01
691.549	58.13
691.874	58.11
692.2	58.09
692.525	58.03
692.85	57.96
693.175	58.03
693.5	58.2
693.825	58.07
694.15	58.05
694.475	57.93
694.8	57.77
695.125	57.81
695.45	57.88
695.775	57.91
696.099	58.03
696.424	58.03
696.749	57.83
697.073	57.92
697.398	57.86
697.723	57.94
698.047	57.92
698.372	57.91
698.696	57.95
699.02	58.13
699.345	58.14
699.669	58.29
699.993	58.3
700.318	58.19
700.642	58.12
700.966	58.06
701.29	58.23
701.614	58.33
701.938	58.33
702.262	58.27
702.586	58.33
702.91	58.16
703.234	58.22
703.557	58.38
703.881	58.28
704.205	58.25
704.529	58.26
704.852	58.47
705.176	58.39
705.499	58.57
705.823	58.44
706.146	58.18
706.47	58.05
706.793	58.07
707.117	58.22
707.44	58.44
707.763	58.61
708.086	58.54
708.409	58.55
708.733	58.64
709.056	58.63
709.379	58.42
709.702	58.53
710.025	58.58
710.348	58.63
710.671	58.55
710.993	58.47
711.316	58.35
711.639	58.11
711.962	58.23
712.284	58.11
712.607	58.25
712.93	58.42
713.252	58.51
713.575	58.48
713.897	58.41
714.22	58.41
714.542	58.33
714.864	58.22
715.187	58.32
715.509	58.07
715.831	57.97
716.153	57.95
716.475	57.87
716.798	57.87
717.12	57.73
717.442	57.7
717.764	57.65
718.085	57.67
718.407	57.93
718.729	58.01
719.051	57.94
719.373	57.7
719.695	57.57
720.016	57.5
720.338	57.45
720.659	57.29
720.981	57.21
721.302	57.31
721.624	57.34
721.945	57.36
722.267	57.29
722.588	57.3
722.909	57.37
723.231	57.51
723.552	57.29
723.873	57.37
724.194	57.26
724.515	57.63
724.836	57.62
725.157	57.56
725.478	57.41
725.799	57.51
726.12	57.59
726.441	57.88
726.762	57.77
727.083	57.91
727.403	58.09
727.724	57.92
728.045	57.89
728.365	58.03
728.686	57.88
729.006	58.07
729.327	58.26
729.647	58.44
729.967	58.35
730.288	58.46
730.608	58.37
730.928	58.67
731.249	58.52
731.569	58.56
731.889	58.27
732.209	58.19
732.529	58.26
732.849	58.45
733.169	58.23
733.489	58.19
733.809	58.08
734.129	58.05
734.448	58.12
734.768	58.05
735.088	57.84
735.408	57.87
735.727	57.78
736.047	57.71
736.366	57.35
736.686	57.47
737.005	57.62
737.325	57.66
737.644	57.54
737.963	57.41
738.283	57.38
738.602	57.71
738.921	57.74
739.24	57.49
739.56	57.27
739.879	57.25
740.198	57.37
740.517	57.33
740.836	57.2
741.155	57.22
741.473	57.25
741.792	57.1
742.111	57.23
742.43	57.46
742.748	57.46
743.067	57.8
743.386	57.7
743.704	57.75
744.023	57.89
744.341	57.72
744.66	57.7
744.978	57.9
745.297	57.64
745.615	57.39
745.933	57.84
746.252	57.72
746.57	57.61
746.888	57.6
747.206	57.74
747.524	57.69
747.842	57.52
748.16	57.52
748.478	57.86
748.796	57.78
749.114	57.76
749.432	57.73
749.749	57.42
750.067	57.31
750.385	57.18
750.703	56.84
751.02	56.79
751.338	56.77
751.655	56.58
751.973	56.35
752.29	56.44
752.608	56.13
752.925	56.43
753.242	56.53
753.56	56.62
753.877	56.65
754.194	56.77
754.511	56.85
754.828	56.91
755.145	56.81
755.462	56.84
755.779	56.58
756.096	56.59
756.413	56.66
756.73	56.71
757.047	56.76
757.364	57.1
757.68	57.29
757.997	57.51
758.314	57.52
758.63	57.78
758.947	57.93
759.264	58.1
759.58	57.72
759.896	57.86
760.213	57.64
760.529	57.57
760.846	57.74
761.162	58
761.478	58.01
761.794	58.05
762.11	58.13
762.426	57.99
762.743	58.29
763.059	58.42
763.375	58.45
763.69	58.68
764.006	58.68
764.322	58.55
764.638	58.22
764.954	58.07
765.27	58.15
765.585	58.22
765.901	58.03
766.216	57.97
766.532	58.14
766.848	58.13
767.163	58.43
767.478	58.66
767.794	58.58
768.109	58.41
768.424	58.44
768.74	58.24
769.055	58.44
769.37	58
769.685	57.65
770	57.74
770.315	57.31
770.63	57.19
770.945	57.33
771.26	57.72
771.575	57.88
771.89	57.72
772.205	57.27
772.52	56.98
772.834	57.35
773.149	57.03
773.464	56.98
773.778	56.99
774.093	56.32
774.407	56.51
774.722	56.37
775.036	56.37
775.351	56.34
775.665	56.28
775.979	56.17
776.293	56.73
776.608	56.21
776.922	56.6
777.236	56.37
777.55	56.06
777.864	55.74
778.178	56.03
778.492	56.05
778.806	56.96
779.12	57.47
779.434	57.52
779.747	57.67
780.061	57.88
780.375	57.29
780.689	57.53
781.002	57.5
781.316	57.77
781.629	57.52
781.943	57.43
782.256	57.51
782.57	57.81
782.883	57.57
783.196	57.65
783.51	57.4
783.823	57.76
784.136	57.83
784.449	57.86
784.762	57.42
785.075	57.45
785.388	56.7
785.701	56.64
786.014	56.5
786.327	56.35
786.64	56.31
786.953	56.9
787.266	56.8
787.578	56.3
787.891	56.36
788.204	56.65
788.516	57.11
788.829	57.29
789.141	57.38
789.454	57.68
789.766	58.03
790.079	57.84
790.391	57.73
790.703	58.05
791.016	58.33
791.328	58.6
791.64	58.39
791.952	58.98
792.264	58.75
792.576	58.76
792.888	59.15
793.2	59.71
793.512	60.03
793.824	60.23
794.136	60.41
794.448	60.42
794.76	59.71
795.071	59.28
795.383	59.01
795.695	59.13
796.006	58.57
796.318	58.2
796.629	58.57
796.941	58.72
797.252	58.61
797.564	58.28
797.875	58.09
798.186	58.44
798.497	58.22
798.809	58.44
799.12	58.38
799.431	58.03
799.742	57.12
800.053	56.12
800.364	55.88
800.675	55.84
800.986	56.01
801.297	56.24
801.608	56.15
801.918	56.4
802.229	56.21
802.54	56.17
802.851	56.26
803.161	55.61
803.472	55.31
803.782	55.14
804.093	55.16
804.403	55.29
804.714	55.33
805.024	54.93
805.334	55.16
805.645	55.22
805.955	54.49
806.265	54.83
806.575	54.88
806.885	54.57
807.195	54.33
807.505	53.53
807.815	53.18
808.125	53.04
808.435	53.02
808.745	52.72
809.055	53.2
809.365	53.99
809.674	54.72
809.984	55.21
810.294	54.69
810.603	54.94
810.913	54.68
811.222	55.18
811.532	55.01
811.841	55
812.151	55.5
812.46	55.48
812.769	55.7
813.079	55.87
813.388	56.14
813.697	56.61
814.006	56.54
814.315	57.14
814.624	57.15
814.933	57.51
815.242	57.08
815.551	57.69
815.86	57.54
816.169	57.31
816.478	57.02
816.786	58.02
817.095	58.2
817.404	59.28
817.712	58.37
818.021	58.65
818.33	58.12
818.638	57.37
818.947	58.21
819.255	57.96
819.563	58.13
819.872	58.43
820.18	58.37
820.488	58.36
820.796	58.58
821.105	58.65
821.413	58.5
821.721	58.54
822.029	58.19
822.337	57.86
822.645	57.93
822.953	57.89
823.26	57.87
823.568	57.75
823.876	57.46
824.184	57.63
824.491	57.83
824.799	57.87
825.107	57.98
825.414	58
825.722	58.14
826.029	58.03
826.337	58.03
826.644	58.24
826.951	58.63
827.259	58.34
827.566	58.33
827.873	58.29
828.18	58.46
828.488	58.65
828.795	58.75
829.102	58.75
829.409	58.92
829.716	58.69
830.023	58.67
830.329	59.02
830.636	58.64
830.943	58.28
831.25	58.22
831.557	58.36
831.863	58.22
832.17	57.85
832.476	58.18
832.783	58.11
833.089	57.75
833.396	57.35
833.702	58.01
834.009	58.3
834.315	57.98
834.621	57.83
834.928	57.47
835.234	58.02
835.54	57.56
835.846	57.35
836.152	57.43
836.458	57.77
836.764	57.51
837.07	57.65
837.376	57.21
837.682	57.69
837.988	57.75
838.293	57.57
838.599	57.6
838.905	56.87
839.211	56.46
839.516	56.11
839.822	56.53
840.127	56.03
840.433	54.94
840.738	55.36
841.044	54.85
841.349	54.8
841.654	53.59
841.959	54.29
842.265	54.06
842.57	54.86
842.875	54.51
843.18	54.76
843.485	55.39
843.79	56.09
844.095	55.14
844.4	54.86
844.705	54.64
845.01	56.25
845.315	56.64
845.619	57.05
845.924	57.97
846.229	56.99
846.533	56.19
846.838	57.94
847.142	58.83
847.447	60.67
847.751	62.08
848.056	63.24
848.36	64.37
848.664	64.34
848.969	64.39
849.273	63.56
849.577	63.02
849.881	61.01
850.185	61.46
850.489	60.78
850.794	60.57
851.097	62.05
851.401	60.02
851.705	60.9
852.009	60.1
852.313	58.41
852.617	56.46
852.92	57.19
853.224	55.16
853.528	56.83
853.831	54.35
854.135	53.76
854.438	53.62
854.742	51.28
855.045	51.93
855.349	49.66
855.652	49.07
855.955	49.51
856.259	50.35
856.562	51.19
856.865	52.15
857.168	52.88
857.471	51.3
857.774	50.25
858.077	50.48
858.38	51.46
858.683	50.92
858.986	54.15
859.289	53.35
859.592	52.36
859.894	49
860.197	50.33
860.5	50.17
860.802	50.6
861.105	50.91
861.407	51.2
861.71	52.18
862.012	55.45
862.315	55.6
862.617	54.54
862.919	53.03
863.222	53.39
863.524	53.08
863.826	53.34
864.128	53.37
864.43	55.33
864.732	55.13
865.034	55.11
865.336	55.01
865.638	57.14
865.94	58.16
866.242	59.81
866.544	60.12
866.846	60.42
867.147	61.46
867.449	60.98
867.751	62.8
868.052	64.66
868.354	63.16
868.655	61.7
868.957	64.46
869.258	65.26
869.56	61.29
869.861	59.24
870.162	58.47
870.463	60.66
870.765	57.53
871.066	57.73
871.367	58.09
871.668	57.07
871.969	55.28
872.27	55.69
872.571	55.54
872.872	56.49
873.173	55.99
873.473	54.32
873.774	54.82
874.075	53.99
874.376	51.66
874.676	51.06
874.977	51.43
875.277	50.57
875.578	50.98
875.878	53.62
876.179	55.47
876.479	56.26
876.78	54.8
877.08	55.42
877.38	55.12
877.68	55.81
877.981	55.04
878.281	56.11
878.581	56.73
