Data from BA57662_Reflection_00001.txt Node
Date: Mon Nov 18 15:34:09 EST 2019
User: vgr7
Spectrometer: USB2G7710
Scans to average: 3
Trigger mode: 4
Integration Time (sec): 2.000000E-2
Electric dark correction enabled: true
Boxcar width: 10
XAxis mode: Wavelengths
Number of Pixels in Spectrum: 2048
>>>>>Begin Spectral Data<<<<<
177.721	3.26
178.105	55.38
178.488	47.47
178.871	77.97
179.254	70.39
179.636	36.09
180.019	170.14
180.402	111.76
180.785	62.15
181.168	85.84
181.55	117.67
181.933	40.63
182.316	75.17
182.698	56.46
183.081	69.75
183.463	68.08
183.846	79.52
184.228	59.89
184.611	50.94
184.993	52.31
185.376	38.21
185.758	21.9
186.14	116.2
186.522	84.48
186.904	-127.99
187.287	-278.49
187.669	-11.47
188.051	-27.36
188.433	43.14
188.815	52.85
189.197	53.48
189.579	72.97
189.961	31
190.342	37.2
190.724	18.64
191.106	28.85
191.488	48.37
191.869	66.82
192.251	65.61
192.633	76
193.014	69.66
193.396	54.51
193.777	60.09
194.159	72.89
194.54	79.16
194.922	116.41
195.303	131.03
195.684	147.73
196.065	92.3
196.447	86.14
196.828	75.92
197.209	83.65
197.59	62.74
197.971	56.41
198.352	56.74
198.733	62.85
199.114	68.23
199.495	55.31
199.876	61.49
200.257	67.01
200.638	72.34
201.018	72.04
201.399	65.77
201.78	63.28
202.16	58.27
202.541	44.59
202.922	35.83
203.302	17.33
203.683	12.94
204.063	17.35
204.444	24.14
204.824	10.55
205.204	8.03
205.585	4.48
205.965	15.45
206.345	15.43
206.725	26
207.106	14.79
207.486	27.86
207.866	19.72
208.246	11.06
208.626	13.79
209.006	37.95
209.386	27.37
209.766	20.82
210.145	37.13
210.525	42.95
210.905	63.05
211.285	73.07
211.664	78.96
212.044	83.5
212.424	91.29
212.803	120.76
213.183	124.66
213.562	113.81
213.942	130.77
214.321	117.6
214.701	121.14
215.08	94.81
215.459	57.93
215.838	53.23
216.218	64.86
216.597	42.34
216.976	44.75
217.355	51.63
217.734	61.9
218.113	62.81
218.492	68.69
218.871	54.84
219.25	50.26
219.629	46.13
220.008	37.92
220.387	34.47
220.766	28.74
221.144	20.77
221.523	18.61
221.902	6.76
222.28	13.9
222.659	10.18
223.037	11.71
223.416	28.44
223.794	27.73
224.173	23.39
224.551	33.78
224.929	22.26
225.308	14.58
225.686	17.12
226.064	13.96
226.442	12.43
226.821	10.38
227.199	4.23
227.577	1.32
227.955	1.75
228.333	2.07
228.711	3.73
229.089	8.3
229.467	7.58
229.845	8.02
230.222	7.09
230.6	6.93
230.978	7.58
231.356	6
231.733	6.38
232.111	6.39
232.488	4.51
232.866	5.1
233.243	8.05
233.621	6.53
233.998	5.69
234.376	5.21
234.753	7.37
235.13	9.1
235.508	10.96
235.885	11.35
236.262	10.11
236.639	9.17
237.016	9.06
237.393	9.25
237.77	9.05
238.147	9
238.524	8.14
238.901	8.71
239.278	9.28
239.655	9.25
240.032	8.95
240.409	8.57
240.785	8.48
241.162	8.22
241.539	7.68
241.915	7.88
242.292	7.64
242.668	7.4
243.045	7.48
243.421	7.41
243.798	7.44
244.174	7.53
244.551	7.31
244.927	7.33
245.303	7.4
245.679	7.37
246.056	7.49
246.432	7.43
246.808	7.25
247.184	7.03
247.56	6.98
247.936	6.76
248.312	6.84
248.688	6.94
249.064	6.97
249.44	7.05
249.815	6.87
250.191	6.91
250.567	6.83
250.943	6.75
251.318	6.99
251.694	7.03
252.069	7.16
252.445	7.57
252.82	7.19
253.196	7.22
253.571	7.16
253.947	6.79
254.322	7.08
254.697	7.02
255.073	7.12
255.448	6.8
255.823	6.82
256.198	6.94
256.573	6.83
256.948	6.85
257.323	6.91
257.698	7.02
258.073	6.99
258.448	7.02
258.823	7.02
259.198	6.72
259.573	6.6
259.948	6.5
260.322	6.59
260.697	6.63
261.072	6.55
261.446	6.58
261.821	6.53
262.195	6.49
262.57	6.4
262.944	6.36
263.319	6.41
263.693	6.36
264.067	6.24
264.442	6.24
264.816	6.02
265.19	5.83
265.564	5.94
265.938	5.88
266.313	5.89
266.687	5.81
267.061	5.86
267.435	5.95
267.809	5.92
268.183	5.81
268.556	5.94
268.93	6
269.304	6.02
269.678	6.23
270.051	6.2
270.425	6.38
270.799	6.28
271.172	6.32
271.546	6.45
271.919	6.42
272.293	6.34
272.666	6.49
273.04	6.59
273.413	6.4
273.787	6.41
274.16	6.49
274.533	6.36
274.906	6.24
275.279	6.2
275.653	6.26
276.026	6.21
276.399	6.31
276.772	6.27
277.145	6.25
277.518	6.3
277.891	6.24
278.263	6
278.636	6.07
279.009	5.93
279.382	6
279.755	5.8
280.127	5.94
280.5	6.06
280.872	6.02
281.245	5.91
281.617	6.1
281.99	5.93
282.362	6.14
282.735	6.19
283.107	6.16
283.479	6.18
283.852	6.1
284.224	5.95
284.596	5.79
284.968	5.79
285.34	5.76
285.713	5.75
286.085	5.85
286.457	5.92
286.829	6.03
287.201	5.96
287.572	6.04
287.944	6.11
288.316	6.17
288.688	6.19
289.06	6.37
289.431	6.3
289.803	6.41
290.175	6.28
290.546	6.35
290.918	6.41
291.289	6.5
291.661	6.6
292.032	6.71
292.403	6.85
292.775	6.81
293.146	6.79
293.517	6.78
293.889	6.87
294.26	6.95
294.631	7
295.002	6.98
295.373	7.19
295.744	7.19
296.115	7.04
296.486	7.05
296.857	6.96
297.228	6.95
297.599	6.98
297.97	7.14
298.34	7.22
298.711	7.17
299.082	7.13
299.452	7.12
299.823	7.21
300.194	7.18
300.564	7.27
300.935	7.3
301.305	7.46
301.676	7.43
302.046	7.44
302.416	7.5
302.787	7.48
303.157	7.26
303.527	7.21
303.897	7.19
304.267	7.24
304.637	7.32
305.008	7.35
305.378	7.27
305.748	7.24
306.117	7.19
306.487	7.41
306.857	7.43
307.227	7.48
307.597	7.39
307.967	7.53
308.336	7.57
308.706	7.55
309.076	7.56
309.445	7.5
309.815	7.32
310.184	7.31
310.554	7.41
310.923	7.69
311.293	7.66
311.662	7.75
312.031	7.74
312.401	7.8
312.77	7.84
313.139	7.92
313.508	7.94
313.877	7.95
314.246	7.86
314.616	7.94
314.985	7.91
315.353	7.91
315.722	7.88
316.091	7.94
316.46	7.93
316.829	7.85
317.198	8.02
317.567	8.16
317.935	8.1
318.304	8.14
318.672	7.98
319.041	8.13
319.41	8.18
319.778	8.19
320.147	8.2
320.515	8.19
320.883	8.02
321.252	7.98
321.62	7.95
321.988	7.95
322.357	7.79
322.725	7.81
323.093	7.83
323.461	7.77
323.829	7.66
324.197	7.79
324.565	7.91
324.933	7.83
325.301	7.72
325.669	7.74
326.037	7.87
326.405	7.89
326.772	7.81
327.14	7.9
327.508	8.06
327.875	7.97
328.243	7.9
328.61	8.03
328.978	8.04
329.346	8.12
329.713	8.1
330.08	8.2
330.448	8.05
330.815	7.94
331.182	8.07
331.55	8.14
331.917	8.01
332.284	7.95
332.651	8.01
333.018	8.1
333.385	8.18
333.752	8.01
334.119	7.97
334.486	7.92
334.853	7.72
335.22	7.5
335.587	7.65
335.954	7.65
336.32	7.61
336.687	7.55
337.054	7.54
337.42	7.54
337.787	7.47
338.153	7.55
338.52	7.64
338.886	7.47
339.253	7.39
339.619	7.34
339.986	7.37
340.352	7.38
340.718	7.43
341.084	7.36
341.451	7.43
341.817	7.53
342.183	7.56
342.549	7.56
342.915	7.71
343.281	7.56
343.647	7.56
344.013	7.57
344.379	7.57
344.745	7.48
345.11	7.47
345.476	7.5
345.842	7.47
346.208	7.38
346.573	7.44
346.939	7.58
347.304	7.56
347.67	7.52
348.035	7.46
348.401	7.35
348.766	7.36
349.132	7.33
349.497	7.16
349.862	7.23
350.228	7.26
350.593	7.12
350.958	7.18
351.323	7.27
351.688	7.26
352.053	7.26
352.418	7.33
352.783	7.29
353.148	7.31
353.513	7.4
353.878	7.42
354.243	7.44
354.608	7.31
354.972	7.47
355.337	7.46
355.702	7.56
356.066	7.6
356.431	7.55
356.795	7.61
357.16	7.66
357.524	7.59
357.889	7.56
358.253	7.56
358.618	7.57
358.982	7.51
359.346	7.44
359.71	7.47
360.075	7.42
360.439	7.43
360.803	7.41
361.167	7.31
361.531	7.34
361.895	7.34
362.259	7.38
362.623	7.31
362.987	7.34
363.351	7.34
363.714	7.35
364.078	7.36
364.442	7.31
364.806	7.32
365.169	7.35
365.533	7.36
365.896	7.39
366.26	7.32
366.623	7.32
366.987	7.36
367.35	7.37
367.714	7.42
368.077	7.39
368.44	7.39
368.803	7.47
369.167	7.43
369.53	7.37
369.893	7.35
370.256	7.39
370.619	7.43
370.982	7.36
371.345	7.37
371.708	7.4
372.071	7.35
372.434	7.28
372.797	7.23
373.159	7.24
373.522	7.24
373.885	7.32
374.247	7.28
374.61	7.3
374.973	7.24
375.335	7.15
375.698	7.17
376.06	7.2
376.423	7.17
376.785	7.21
377.147	7.25
377.51	7.26
377.872	7.24
378.234	7.22
378.596	7.24
378.958	7.23
379.321	7.24
379.683	7.24
380.045	7.32
380.407	7.35
380.769	7.33
381.13	7.3
381.492	7.27
381.854	7.34
382.216	7.34
382.578	7.37
382.939	7.39
383.301	7.37
383.663	7.32
384.024	7.38
384.386	7.38
384.747	7.41
385.109	7.42
385.47	7.39
385.832	7.36
386.193	7.36
386.554	7.37
386.916	7.38
387.277	7.37
387.638	7.33
387.999	7.3
388.36	7.32
388.721	7.36
389.082	7.41
389.443	7.38
389.804	7.32
390.165	7.33
390.526	7.33
390.887	7.34
391.248	7.34
391.609	7.27
391.969	7.31
392.33	7.29
392.691	7.26
393.051	7.26
393.412	7.27
393.772	7.24
394.133	7.2
394.493	7.17
394.854	7.16
395.214	7.16
395.574	7.16
395.935	7.11
396.295	7.11
396.655	7.07
397.015	7.06
397.376	7.12
397.736	7.1
398.096	7.17
398.456	7.19
398.816	7.19
399.176	7.24
399.535	7.2
399.895	7.2
400.255	7.17
400.615	7.19
400.975	7.17
401.334	7.15
401.694	7.16
402.054	7.17
402.413	7.21
402.773	7.21
403.132	7.22
403.492	7.24
403.851	7.23
404.211	7.22
404.57	7.22
404.929	7.23
405.288	7.24
405.648	7.21
406.007	7.21
406.366	7.2
406.725	7.19
407.084	7.18
407.443	7.15
407.802	7.18
408.161	7.16
408.52	7.14
408.879	7.16
409.238	7.19
409.596	7.18
409.955	7.16
410.314	7.14
410.673	7.12
411.031	7.16
411.39	7.16
411.748	7.16
412.107	7.15
412.465	7.12
412.824	7.12
413.182	7.09
413.54	7.1
413.899	7.09
414.257	7.07
414.615	7.06
414.974	7.09
415.332	7.1
415.69	7.1
416.048	7.09
416.406	7.08
416.764	7.06
417.122	7.07
417.48	7.07
417.838	7.07
418.195	7.09
418.553	7.06
418.911	7.06
419.269	7.05
419.626	7.04
419.984	7.05
420.342	7.05
420.699	7.05
421.057	7.04
421.414	7.04
421.772	7.05
422.129	7.07
422.486	7.06
422.844	7.05
423.201	7.03
423.558	7.05
423.915	7.05
424.273	7.05
424.63	7.04
424.987	7.03
425.344	7.03
425.701	7.02
426.058	7.01
426.415	7.01
426.772	7.01
427.128	7.01
427.485	7.01
427.842	7.01
428.199	7.01
428.555	7.01
428.912	7.02
429.269	7.02
429.625	7.01
429.982	6.99
430.338	7
430.695	7.02
431.051	6.99
431.407	6.99
431.764	6.99
432.12	6.98
432.476	7
432.832	7
433.189	7.02
433.545	7.01
433.901	6.99
434.257	6.99
434.613	6.99
434.969	6.98
435.325	6.98
435.681	6.97
436.036	6.96
436.392	6.95
436.748	6.94
437.104	6.92
437.459	6.93
437.815	6.94
438.171	6.93
438.526	6.96
438.882	6.95
439.237	6.96
439.593	6.99
439.948	6.96
440.304	6.97
440.659	6.97
441.014	6.99
441.369	7
441.725	6.99
442.08	7
442.435	7.01
442.79	7.02
443.145	7.03
443.5	7.05
443.855	7.04
444.21	7.04
444.565	7.05
444.92	7.06
445.275	7.06
445.629	7.06
445.984	7.06
446.339	7.05
446.693	7.02
447.048	7.02
447.403	7.03
447.757	7.01
448.112	6.98
448.466	6.96
448.82	6.97
449.175	6.99
449.529	6.98
449.883	6.96
450.238	6.93
450.592	6.94
450.946	6.92
451.3	6.93
451.654	6.93
452.008	6.94
452.362	6.94
452.716	6.91
453.07	6.9
453.424	6.89
453.778	6.93
454.132	6.93
454.486	6.92
454.839	6.91
455.193	6.92
455.547	6.93
455.9	6.94
456.254	6.93
456.607	6.94
456.961	6.96
457.314	6.96
457.668	6.96
458.021	6.95
458.375	6.97
458.728	6.96
459.081	6.95
459.434	6.96
459.787	6.98
460.141	7.01
460.494	7.02
460.847	7.02
461.2	7.01
461.553	7.04
461.906	7.03
462.259	7.04
462.611	7.05
462.964	7.05
463.317	7.07
463.67	7.06
464.022	7.04
464.375	7.02
464.728	7.04
465.08	7.06
465.433	7.07
465.785	7.06
466.138	7.07
466.49	7.09
466.843	7.09
467.195	7.06
467.547	7.03
467.899	7
468.252	6.99
468.604	7.01
468.956	6.99
469.308	7.01
469.66	7
470.012	6.99
470.364	7.01
470.716	6.98
471.068	7
471.42	7.01
471.772	7.04
472.123	7.04
472.475	7.05
472.827	7.06
473.178	7.08
473.53	7.07
473.882	7.06
474.233	7.05
474.585	7.05
474.936	7.08
475.288	7.1
475.639	7.11
475.99	7.09
476.342	7.1
476.693	7.09
477.044	7.11
477.395	7.11
477.746	7.08
478.097	7.1
478.448	7.1
478.8	7.11
479.15	7.08
479.501	7.08
479.852	7.1
480.203	7.09
480.554	7.09
480.905	7.09
481.255	7.1
481.606	7.1
481.957	7.12
482.307	7.12
482.658	7.12
483.009	7.12
483.359	7.14
483.709	7.14
484.06	7.14
484.41	7.15
484.761	7.15
485.111	7.16
485.461	7.16
485.811	7.16
486.162	7.17
486.512	7.18
486.862	7.19
487.212	7.18
487.562	7.19
487.912	7.19
488.262	7.2
488.612	7.19
488.961	7.2
489.311	7.18
489.661	7.17
490.011	7.17
490.36	7.17
490.71	7.16
491.06	7.16
491.409	7.16
491.759	7.17
492.108	7.18
492.458	7.18
492.807	7.18
493.157	7.18
493.506	7.16
493.855	7.15
494.204	7.14
494.554	7.14
494.903	7.13
495.252	7.13
495.601	7.12
495.95	7.12
496.299	7.14
496.648	7.16
496.997	7.17
497.346	7.17
497.695	7.22
498.043	7.23
498.392	7.23
498.741	7.25
499.09	7.23
499.438	7.24
499.787	7.24
500.135	7.27
500.484	7.26
500.832	7.31
501.181	7.32
501.529	7.33
501.878	7.34
502.226	7.35
502.574	7.37
502.923	7.39
503.271	7.39
503.619	7.41
503.967	7.42
504.315	7.43
504.663	7.45
505.011	7.43
505.359	7.42
505.707	7.42
506.055	7.43
506.403	7.45
506.751	7.44
507.098	7.47
507.446	7.47
507.794	7.47
508.141	7.48
508.489	7.46
508.837	7.49
509.184	7.51
509.531	7.52
509.879	7.53
510.226	7.53
510.574	7.53
510.921	7.51
511.268	7.5
511.616	7.52
511.963	7.54
512.31	7.54
512.657	7.56
513.004	7.57
513.351	7.6
513.698	7.61
514.045	7.62
514.392	7.61
514.739	7.62
515.086	7.63
515.432	7.62
515.779	7.65
516.126	7.64
516.473	7.64
516.819	7.66
517.166	7.67
517.512	7.68
517.859	7.69
518.205	7.68
518.552	7.71
518.898	7.7
519.245	7.69
519.591	7.69
519.937	7.68
520.283	7.69
520.629	7.67
520.976	7.67
521.322	7.69
521.668	7.69
522.014	7.67
522.36	7.69
522.706	7.68
523.052	7.69
523.398	7.71
523.743	7.71
524.089	7.72
524.435	7.71
524.781	7.72
525.126	7.73
525.472	7.74
525.817	7.74
526.163	7.76
526.509	7.75
526.854	7.76
527.199	7.76
527.545	7.76
527.89	7.75
528.235	7.75
528.581	7.76
528.926	7.77
529.271	7.79
529.616	7.79
529.961	7.8
530.306	7.8
530.651	7.78
530.996	7.78
531.341	7.78
531.686	7.79
532.031	7.8
532.376	7.81
532.721	7.82
533.065	7.82
533.41	7.81
533.755	7.82
534.099	7.81
534.444	7.83
534.788	7.85
535.133	7.86
535.477	7.88
535.822	7.87
536.166	7.85
536.51	7.82
536.855	7.82
537.199	7.83
537.543	7.84
537.887	7.85
538.231	7.84
538.576	7.85
538.92	7.84
539.264	7.85
539.608	7.85
539.951	7.86
540.295	7.87
540.639	7.88
540.983	7.88
541.327	7.9
541.671	7.9
542.014	7.9
542.358	7.89
542.701	7.89
543.045	7.91
543.389	7.92
543.732	7.94
544.075	7.95
544.419	7.95
544.762	7.96
545.105	7.98
545.449	7.99
545.792	8
546.135	8.02
546.478	8.01
546.821	8
547.165	7.98
547.508	7.98
547.851	7.99
548.194	7.99
548.536	7.97
548.879	7.96
549.222	7.98
549.565	7.99
549.908	7.99
550.25	7.99
550.593	8.03
550.936	8.02
551.278	8.03
551.621	8.04
551.963	8.05
552.306	8.02
552.648	8.03
552.991	8.02
553.333	8.01
553.675	8.02
554.017	8.03
554.36	8.05
554.702	8.06
555.044	8.07
555.386	8.1
555.728	8.12
556.07	8.15
556.412	8.14
556.754	8.16
557.096	8.16
557.438	8.15
557.78	8.13
558.121	8.14
558.463	8.14
558.805	8.13
559.147	8.1
559.488	8.15
559.83	8.16
560.171	8.15
560.513	8.14
560.854	8.13
561.196	8.1
561.537	8.12
561.878	8.09
562.22	8.08
562.561	8.04
562.902	8.04
563.243	8.04
563.584	8.07
563.925	8.07
564.266	8.04
564.607	8.05
564.948	8.06
565.289	8.07
565.63	8.08
565.971	8.06
566.312	8.08
566.653	8.09
566.993	8.1
567.334	8.11
567.675	8.12
568.015	8.15
568.356	8.17
568.696	8.16
569.037	8.16
569.377	8.16
569.718	8.19
570.058	8.2
570.398	8.21
570.739	8.19
571.079	8.19
571.419	8.24
571.759	8.23
572.099	8.23
572.439	8.22
572.779	8.2
573.119	8.24
573.459	8.25
573.799	8.24
574.139	8.24
574.479	8.23
574.819	8.26
575.158	8.26
575.498	8.23
575.838	8.25
576.177	8.25
576.517	8.27
576.856	8.29
577.196	8.27
577.535	8.25
577.875	8.28
578.214	8.27
578.553	8.25
578.893	8.24
579.232	8.21
579.571	8.24
579.91	8.29
580.25	8.31
580.589	8.31
580.928	8.35
581.267	8.37
581.606	8.36
581.945	8.31
582.283	8.27
582.622	8.32
582.961	8.34
583.3	8.36
583.639	8.4
583.977	8.4
584.316	8.42
584.654	8.4
584.993	8.37
585.332	8.4
585.67	8.35
586.008	8.37
586.347	8.4
586.685	8.38
587.024	8.37
587.362	8.37
587.7	8.37
588.038	8.41
588.376	8.36
588.715	8.38
589.053	8.42
589.391	8.47
589.729	8.5
590.067	8.44
590.404	8.43
590.742	8.43
591.08	8.37
591.418	8.38
591.756	8.38
592.093	8.38
592.431	8.39
592.769	8.46
593.106	8.47
593.444	8.47
593.781	8.49
594.119	8.5
594.456	8.48
594.793	8.46
595.131	8.4
595.468	8.44
595.805	8.45
596.143	8.42
596.48	8.44
596.817	8.43
597.154	8.47
597.491	8.44
597.828	8.43
598.165	8.47
598.502	8.46
598.839	8.48
599.176	8.47
599.512	8.47
599.849	8.47
600.186	8.47
600.523	8.51
600.859	8.53
601.196	8.51
601.532	8.52
601.869	8.53
602.205	8.55
602.542	8.55
602.878	8.55
603.215	8.55
603.551	8.56
603.887	8.53
604.223	8.54
604.56	8.59
604.896	8.58
605.232	8.6
605.568	8.61
605.904	8.62
606.24	8.68
606.576	8.64
606.912	8.6
607.248	8.59
607.583	8.58
607.919	8.54
608.255	8.57
608.591	8.58
608.926	8.59
609.262	8.61
609.597	8.6
609.933	8.6
610.268	8.64
610.604	8.63
610.939	8.64
611.275	8.64
611.61	8.65
611.945	8.67
612.281	8.65
612.616	8.65
612.951	8.68
613.286	8.67
613.621	8.71
613.956	8.72
614.291	8.74
614.626	8.71
614.961	8.76
615.296	8.69
615.631	8.65
615.966	8.61
616.3	8.57
616.635	8.59
616.97	8.61
617.304	8.59
617.639	8.58
617.973	8.57
618.308	8.53
618.642	8.52
618.977	8.53
619.311	8.57
619.646	8.58
619.98	8.55
620.314	8.56
620.648	8.58
620.983	8.62
621.317	8.56
621.651	8.62
621.985	8.61
622.319	8.68
622.653	8.71
622.987	8.81
623.321	8.85
623.655	8.8
623.988	8.81
624.322	8.77
624.656	8.84
624.99	8.79
625.323	8.88
625.657	8.89
625.99	8.89
626.324	8.87
626.657	8.8
626.991	8.84
627.324	8.83
627.658	8.84
627.991	8.85
628.324	8.91
628.657	8.87
628.991	8.84
629.324	8.8
629.657	8.75
629.99	8.72
630.323	8.74
630.656	8.82
630.989	8.81
631.322	8.87
631.655	8.82
631.987	8.85
632.32	8.76
632.653	8.74
632.986	8.76
633.318	8.75
633.651	8.83
633.984	8.83
634.316	8.8
634.649	8.72
634.981	8.72
635.313	8.77
635.646	8.76
635.978	8.79
636.31	8.81
636.643	8.88
636.975	8.83
637.307	8.77
637.639	8.7
637.971	8.7
638.303	8.69
638.635	8.7
638.967	8.78
639.299	8.81
639.631	8.77
639.963	8.69
640.295	8.68
640.626	8.72
640.958	8.67
641.29	8.68
641.621	8.73
641.953	8.67
642.285	8.63
642.616	8.64
642.948	8.68
643.279	8.71
643.61	8.7
643.942	8.76
644.273	8.8
644.604	8.85
644.936	8.88
645.267	8.86
645.598	8.85
645.929	8.86
646.26	8.88
646.591	8.89
646.922	8.93
647.253	8.93
647.584	8.84
647.915	8.89
648.245	8.92
648.576	9.02
648.907	9.05
649.238	9.01
649.568	9.01
649.899	8.98
650.229	8.96
650.56	8.94
650.89	8.92
651.221	8.91
651.551	8.87
651.882	8.85
652.212	8.92
652.542	8.93
652.872	8.9
653.203	8.9
653.533	8.96
653.863	8.98
654.193	8.96
654.523	9.06
654.853	9.02
655.183	9
655.513	8.94
655.843	8.96
656.172	8.98
656.502	9.02
656.832	8.97
657.162	9.03
657.491	9.04
657.821	9.02
658.15	9.03
658.48	9.04
658.809	9.04
659.139	8.95
659.468	8.9
659.798	8.95
660.127	8.98
660.456	8.96
660.785	8.94
661.115	9.05
661.444	9.04
661.773	9.06
662.102	9.07
662.431	9.11
662.76	9.09
663.089	9.08
663.418	9.06
663.747	9.07
664.076	9.06
664.404	9.03
664.733	9.1
665.062	9.15
665.39	9.12
665.719	9.12
666.048	9.21
666.376	9.26
666.705	9.19
667.033	9.17
667.362	9.24
667.69	9.32
668.018	9.2
668.347	9.18
668.675	9.16
669.003	9.17
669.331	9.22
669.659	9.23
669.987	9.21
670.315	9.16
670.643	9.22
670.971	9.22
671.299	9.22
671.627	9.27
671.955	9.17
672.283	9.23
672.61	9.2
672.938	9.13
673.266	9.14
673.593	9.16
673.921	9.11
674.249	9.05
674.576	8.97
674.904	9.05
675.231	9.03
675.558	9.07
675.886	9.08
676.213	9.04
676.54	9.06
676.867	9.15
677.195	9.17
677.522	9.13
677.849	9.17
678.176	9.24
678.503	9.17
678.83	9.22
679.157	9.19
679.484	9.17
679.81	9.24
680.137	9.24
680.464	9.19
680.791	9.19
681.117	9.08
681.444	9.06
681.771	9.05
682.097	9.1
682.424	9.09
682.75	9.11
683.077	9.16
683.403	9.2
683.729	9.1
684.056	9.24
684.382	9.33
684.708	9.24
685.034	9.28
685.36	9.25
685.686	9.22
686.012	9.21
686.339	9.31
686.664	9.35
686.99	9.39
687.316	9.47
687.642	9.58
687.968	9.75
688.294	9.88
688.619	9.86
688.945	9.74
689.271	9.7
689.596	9.62
689.922	9.53
690.247	9.5
690.573	9.58
690.898	9.54
691.224	9.54
691.549	9.61
691.874	9.53
692.2	9.65
692.525	9.71
692.85	9.79
693.175	9.78
693.5	9.86
693.825	9.88
694.15	9.88
694.475	9.91
694.8	9.91
695.125	9.8
695.45	9.78
695.775	9.88
696.099	9.98
696.424	10.01
696.749	10.06
697.073	10.06
697.398	10.11
697.723	10.03
698.047	9.94
698.372	9.96
698.696	9.95
699.02	9.93
699.345	9.91
699.669	9.94
699.993	9.94
700.318	9.83
700.642	9.92
700.966	9.88
701.29	9.82
701.614	9.77
701.938	9.86
702.262	10.08
702.586	10.14
702.91	10.09
703.234	10.08
703.557	10.14
703.881	10.12
704.205	10.11
704.529	10.18
704.852	10.32
705.176	10.32
705.499	10.38
705.823	10.29
706.146	10.41
706.47	10.36
706.793	10.38
707.117	10.42
707.44	10.23
707.763	10.22
708.086	10.09
708.409	10.06
708.733	10.03
709.056	9.88
709.379	9.93
709.702	9.83
710.025	9.9
710.348	9.85
710.671	9.89
710.993	9.9
711.316	9.82
711.639	9.76
711.962	9.77
712.284	9.8
712.607	9.83
712.93	9.68
713.252	9.83
713.575	9.77
713.897	9.85
714.22	9.84
714.542	9.91
714.864	9.97
715.187	10.08
715.509	10.07
715.831	10.05
716.153	10.04
716.475	10.15
716.798	10.18
717.12	10.12
717.442	10.09
717.764	10.1
718.085	10.25
718.407	10.3
718.729	10.32
719.051	10.3
719.373	10.26
719.695	10.35
720.016	10.35
720.338	10.24
720.659	10.38
720.981	10.4
721.302	10.44
721.624	10.44
721.945	10.34
722.267	10.6
722.588	10.52
722.909	10.5
723.231	10.52
723.552	10.34
723.873	10.42
724.194	10.43
724.515	10.47
724.836	10.39
725.157	10.48
725.478	10.51
725.799	10.49
726.12	10.67
726.441	10.67
726.762	10.58
727.083	10.79
727.403	10.63
727.724	10.76
728.045	10.7
728.365	10.79
728.686	10.84
729.006	10.74
729.327	10.82
729.647	10.81
729.967	10.94
730.288	11.11
730.608	11.06
730.928	11.1
731.249	11.03
731.569	11.27
731.889	11.17
732.209	11.19
732.529	11.27
732.849	11.12
733.169	11.03
733.489	11.14
733.809	11.12
734.129	11.02
734.448	10.96
734.768	10.87
735.088	10.89
735.408	10.87
735.727	10.82
736.047	10.76
736.366	10.68
736.686	10.5
737.005	10.57
737.325	10.79
737.644	10.56
737.963	10.53
738.283	10.25
738.602	10.33
738.921	10.36
739.24	10.36
739.56	10.45
739.879	10.63
740.198	10.76
740.517	10.77
740.836	10.74
741.155	10.89
741.473	10.93
741.792	11.01
742.111	11.26
742.43	11.43
742.748	11.55
743.067	11.71
743.386	11.68
743.704	11.73
744.023	11.54
744.341	11.71
744.66	11.87
744.978	11.81
745.297	11.86
745.615	11.85
745.933	11.84
746.252	11.99
746.57	11.82
746.888	11.34
747.206	11.31
747.524	11.64
747.842	11.54
748.16	11.92
748.478	12.09
748.796	11.97
749.114	11.88
749.432	11.83
749.749	11.97
750.067	12.05
750.385	12.14
750.703	12.3
751.02	12.32
751.338	12.22
751.655	12.13
751.973	12.15
752.29	11.9
752.608	11.87
752.925	11.6
753.242	11.65
753.56	11.86
753.877	11.7
754.194	11.55
754.511	11.54
754.828	11.21
755.145	11.13
755.462	11.16
755.779	11.27
756.096	11.08
756.413	10.77
756.73	10.95
757.047	10.68
757.364	10.44
757.68	10.56
757.997	10.49
758.314	10.5
758.63	10.63
758.947	10.74
759.264	10.78
759.58	10.89
759.896	11.22
760.213	11.09
760.529	11.28
760.846	11.39
761.162	11.49
761.478	11.45
761.794	11.2
762.11	11.11
762.426	11.12
762.743	11.25
763.059	11.49
763.375	11.41
763.69	11.53
764.006	11.7
764.322	11.81
764.638	11.87
764.954	12.12
765.27	11.97
765.585	11.88
765.901	11.91
766.216	11.98
766.532	11.97
766.848	11.96
767.163	11.76
767.478	11.62
767.794	11.49
768.109	11.81
768.424	12.06
768.74	12.26
769.055	12.17
769.37	12.02
769.685	11.64
770	11.85
770.315	11.91
770.63	12
770.945	11.95
771.26	11.83
771.575	11.72
771.89	12
772.205	12.18
772.52	12.11
772.834	12.14
773.149	11.88
773.464	12.34
773.778	12.91
774.093	13.15
774.407	13.31
774.722	12.68
775.036	12.87
775.351	12.65
775.665	12.43
775.979	12.7
776.293	12.99
776.608	12.51
776.922	12.15
777.236	12
777.55	11.87
777.864	12.15
778.178	12.17
778.492	12.02
778.806	11.81
779.12	11.81
779.434	11.91
779.747	12.12
780.061	12.02
780.375	11.97
780.689	11.6
781.002	11.52
781.316	11.91
781.629	11.68
781.943	11.71
782.256	12.12
782.57	12.34
782.883	12.03
783.196	12.16
783.51	12.19
783.823	11.7
784.136	11.93
784.449	11.83
784.762	11.9
785.075	11.73
785.388	12.02
785.701	12.25
786.014	11.97
786.327	11.68
786.64	11.52
786.953	11.65
787.266	11.89
787.578	12.08
787.891	12.47
788.204	12.35
788.516	12.43
788.829	12.53
789.141	12.36
789.454	12.77
789.766	13.24
790.079	13.49
790.391	13.99
790.703	13.89
791.016	14.04
791.328	14.02
791.64	14.03
791.952	14.37
792.264	14.39
792.576	14.61
792.888	15.1
793.2	15.67
793.512	15.4
793.824	15.73
794.136	15.56
794.448	15.23
794.76	15.44
795.071	15.12
795.383	14.93
795.695	15.04
796.006	15.13
796.318	14.99
796.629	15.26
796.941	14.98
797.252	15.14
797.564	15.57
797.875	15.04
798.186	15.44
798.497	15.3
798.809	14.7
799.12	14.34
799.431	14.18
799.742	13.89
800.053	14
800.364	13.47
800.675	13.28
800.986	13.03
801.297	12.8
801.608	13.03
801.918	12.76
802.229	12.71
802.54	12.83
802.851	12.85
803.161	12.64
803.472	12.83
803.782	12.96
804.093	12.44
804.403	12.81
804.714	12.13
805.024	12.28
805.334	13.22
805.645	13.78
805.955	13.68
806.265	13.8
806.575	13.15
806.885	13.66
807.195	14.42
807.505	14.45
807.815	14.64
808.125	14.89
808.435	15.26
808.745	15.32
809.055	15.04
809.365	14.66
809.674	14.66
809.984	14.59
810.294	14.08
810.603	14.33
810.913	14.78
811.222	15.17
811.532	14.93
811.841	14.89
812.151	15.33
812.46	15.17
812.769	14.69
813.079	15.21
813.388	15.33
813.697	14.99
814.006	15.51
814.315	15.28
814.624	14.7
814.933	14.79
815.242	14.56
815.551	15.26
815.86	15.23
816.169	14.81
816.478	14.76
816.786	15.13
817.095	15.65
817.404	15.79
817.712	15.6
818.021	15.95
818.33	15.38
818.638	14.95
818.947	15.27
819.255	15.08
819.563	14.94
819.872	14.8
820.18	14.66
820.488	14.53
820.796	14.63
821.105	14.73
821.413	14.54
821.721	14.64
822.029	14.52
822.337	14.52
822.645	14.7
822.953	14.58
823.26	14.52
823.568	14.19
823.876	14.12
824.184	14.17
824.491	14.08
824.799	14.19
825.107	14.15
825.414	14.12
825.722	14.3
826.029	14.46
826.337	14.39
826.644	14.39
826.951	14.44
827.259	14.44
827.566	14.35
827.873	14.42
828.18	14.42
828.488	14.2
828.795	14.24
829.102	14.14
829.409	14.26
829.716	14.25
830.023	14.72
830.329	14.66
830.636	14.87
830.943	14.92
831.25	14.85
831.557	14.86
831.863	14.69
832.17	14.29
832.476	14.42
832.783	15.05
833.089	15.28
833.396	15.43
833.702	15.44
834.009	16.04
834.315	16.25
834.621	16.73
834.928	17.19
835.234	17.12
835.54	17.06
835.846	17.34
836.152	16.9
836.458	16.56
836.764	16.77
837.07	16.24
837.376	15.95
837.682	16.24
837.988	16.36
838.293	15.95
838.599	16.28
838.905	15.51
839.211	14.68
839.516	14.72
839.822	14.51
840.127	13.92
840.433	13.51
840.738	13.13
841.044	11.86
841.349	11.92
841.654	12.19
841.959	12.15
842.265	11.95
842.57	13.54
842.875	14.23
843.18	14
843.485	14.59
843.79	15.17
844.095	14.46
844.4	14.95
844.705	16.03
845.01	16
845.315	15.82
845.619	16.48
845.924	16.11
846.229	16.96
846.533	18.86
846.838	17.48
847.142	18.01
847.447	17.19
847.751	16.32
848.056	17.38
848.36	18.49
848.664	19.3
848.969	17.97
849.273	17.43
849.577	17.41
849.881	16.95
850.185	17.67
850.489	17.88
850.794	17.36
851.097	17.21
851.401	17.11
851.705	17.88
852.009	16.91
852.313	17.11
852.617	15.36
852.92	16.29
853.224	17.25
853.528	17.61
853.831	18.88
854.135	18.09
854.438	18.14
854.742	17.4
855.045	16.5
855.349	16.88
855.652	16.87
855.955	15.96
856.259	14.27
856.562	11.72
856.865	11.68
857.168	11.69
857.471	12.87
857.774	12.82
858.077	15.08
858.38	14.56
858.683	14.4
858.986	15.18
859.289	13.1
859.592	15.36
859.894	14.37
860.197	14.16
860.5	15.81
860.802	12.8
861.105	12.92
861.407	12.09
861.71	12.86
862.012	10.66
862.315	12.59
862.617	14.65
862.919	15.8
863.222	15.64
863.524	17.14
863.826	15.62
864.128	16.3
864.43	14.28
864.732	16.68
865.034	16.52
865.336	16.74
865.638	17.4
865.94	14.97
866.242	13.36
866.544	14.46
866.846	14.56
867.147	16.78
867.449	16.32
867.751	17.38
868.052	18.33
868.354	20.22
868.655	20.27
868.957	20.58
869.258	20.59
869.56	19.55
869.861	17.35
870.162	19.64
870.463	20.66
870.765	18.55
871.066	15.48
871.367	15.48
871.668	14.53
871.969	11.15
872.27	11.26
872.571	12.47
872.872	13.59
873.173	12.87
873.473	13.39
873.774	15.21
874.075	15.42
874.376	11.5
874.676	13.13
874.977	10.75
875.277	11.44
875.578	11.42
875.878	12.83
876.179	13.52
876.479	11.92
876.78	9.61
877.08	12.48
877.38	14.26
877.68	13.97
877.981	14.92
878.281	19.78
878.581	22.02
