Data from BA57965_Reflection_00006.txt Node
Date: Mon Nov 18 15:16:07 EST 2019
User: vgr7
Spectrometer: USB2G7710
Scans to average: 3
Trigger mode: 4
Integration Time (sec): 2.000000E-2
Electric dark correction enabled: true
Boxcar width: 10
XAxis mode: Wavelengths
Number of Pixels in Spectrum: 2048
>>>>>Begin Spectral Data<<<<<
177.721	47.54
178.105	2.08
178.488	-78.55
178.871	-16.01
179.254	-62.16
179.636	3.16
180.019	0.04
180.402	126.32
180.785	-59.11
181.168	-35.57
181.55	-77.34
181.933	92.64
182.316	44.37
182.698	24.69
183.081	-54.84
183.463	482.17
183.846	110.85
184.228	138.67
184.611	174.53
184.993	86.37
185.376	38.45
185.758	30.97
186.14	2.36
186.522	-33.13
186.904	-15.71
187.287	1.02
187.669	11.53
188.051	8.31
188.433	19.27
188.815	-3.33
189.197	4.26
189.579	-0.75
189.961	-15.04
190.342	-23.88
190.724	-21.35
191.106	-23.62
191.488	-20.33
191.869	-17.12
192.251	-34.64
192.633	-37.85
193.014	-27.8
193.396	-32.26
193.777	-45.15
194.159	-67.53
194.54	-70.85
194.922	-68.75
195.303	-90.66
195.684	-81.92
196.065	-49.76
196.447	-52.26
196.828	-37.47
197.209	-35.04
197.59	-38.43
197.971	-23.7
198.352	-21.01
198.733	-16.47
199.114	-12.52
199.495	-16.26
199.876	-15.06
200.257	-12.78
200.638	-8.84
201.018	-9.97
201.399	-10.07
201.78	-1.52
202.16	5.94
202.541	7.21
202.922	2.83
203.302	-0.41
203.683	-5.13
204.063	-9.72
204.444	-7.72
204.824	-19.27
205.204	-16.6
205.585	-10.98
205.965	-8.74
206.345	-8.4
206.725	-21.47
207.106	-28.71
207.486	-46.06
207.866	-43.31
208.246	-37.32
208.626	-23.05
209.006	-22.9
209.386	-28.53
209.766	-29.37
210.145	-24.71
210.525	-9.56
210.905	-12.7
211.285	-13.89
211.664	-18.85
212.044	-23.03
212.424	-19.57
212.803	-13.17
213.183	-17.96
213.562	-17.63
213.942	-12.84
214.321	-15.16
214.701	-13.33
215.08	-11.79
215.459	-11.17
215.838	-10.4
216.218	-10.57
216.597	-11.33
216.976	-16.97
217.355	-14.16
217.734	-9.26
218.113	-11.41
218.492	-19.5
218.871	-17.92
219.25	-18.06
219.629	-14.6
220.008	-24.87
220.387	-21.89
220.766	-26.23
221.144	-31.14
221.523	-34.17
221.902	-42.01
222.28	-39.84
222.659	-35.7
223.037	-37.36
223.416	-37.2
223.794	-35.1
224.173	-28.76
224.551	-25.38
224.929	-18.8
225.308	-17.95
225.686	-16.16
226.064	-14.8
226.442	-9.21
226.821	-5.93
227.199	-4.17
227.577	-5.03
227.955	-1.6
228.333	-3.07
228.711	-1.77
229.089	0.72
229.467	-0.22
229.845	-0.53
230.222	-0.18
230.6	-2.2
230.978	-1.65
231.356	0.77
231.733	0.43
232.111	-0.18
232.488	0.43
232.866	1.25
233.243	3.12
233.621	2.51
233.998	4.41
234.376	4.01
234.753	4.37
235.13	4.27
235.508	4.86
235.885	4.25
236.262	3.74
236.639	4.44
237.016	6.7
237.393	7.32
237.77	6.8
238.147	7.1
238.524	7.96
238.901	8.17
239.278	7.6
239.655	8.26
240.032	8.67
240.409	7.9
240.785	7.8
241.162	7.38
241.539	7.43
241.915	6.9
242.292	6.33
242.668	6.36
243.045	6.37
243.421	6.13
243.798	6.11
244.174	6
244.551	5.8
244.927	5.13
245.303	5.26
245.679	5.54
246.056	5.51
246.432	5.43
246.808	5.43
247.184	5.4
247.56	5.22
247.936	5.13
248.312	5.34
248.688	5.43
249.064	5.36
249.44	5.27
249.815	5.38
250.191	5.7
250.567	5.8
250.943	5.76
251.318	5.98
251.694	5.96
252.069	6.19
252.445	6.2
252.82	6.2
253.196	6.08
253.571	5.84
253.947	5.87
254.322	5.98
254.697	5.63
255.073	5.48
255.448	5.36
255.823	5.13
256.198	5.19
256.573	5.05
256.948	5.35
257.323	5.56
257.698	5.34
258.073	5.26
258.448	5.19
258.823	5.22
259.198	4.99
259.573	5.05
259.948	5.07
260.322	5.06
260.697	5.17
261.072	5.1
261.446	5.24
261.821	5.08
262.195	5.21
262.57	5.37
262.944	5.4
263.319	5.47
263.693	5.52
264.067	5.4
264.442	5.48
264.816	5.42
265.19	5.2
265.564	5.45
265.938	5.28
266.313	5.27
266.687	5.38
267.061	5.63
267.435	5.62
267.809	5.48
268.183	5.42
268.556	5.4
268.93	5.66
269.304	5.49
269.678	5.56
270.051	5.37
270.425	5.33
270.799	5.41
271.172	5.44
271.546	5.45
271.919	5.41
272.293	5.33
272.666	5.4
273.04	5.6
273.413	5.46
273.787	5.72
274.16	5.82
274.533	5.62
274.906	5.54
275.279	5.43
275.653	5.34
276.026	5.44
276.399	5.31
276.772	5.2
277.145	5.22
277.518	5.29
277.891	5.38
278.263	5.36
278.636	5.28
279.009	5.2
279.382	5.36
279.755	5.31
280.127	5.44
280.5	5.31
280.872	5.17
281.245	5.11
281.617	4.98
281.99	4.96
282.362	5.12
282.735	5.04
283.107	5.16
283.479	5.25
283.852	5.35
284.224	5.47
284.596	5.38
284.968	5.47
285.34	5.5
285.713	5.4
286.085	5.5
286.457	5.64
286.829	5.67
287.201	5.61
287.572	5.55
287.944	5.38
288.316	5.47
288.688	5.52
289.06	5.56
289.431	5.64
289.803	5.54
290.175	5.48
290.546	5.61
290.918	5.69
291.289	5.74
291.661	5.54
292.032	5.64
292.403	5.76
292.775	5.71
293.146	5.66
293.517	5.67
293.889	5.77
294.26	5.76
294.631	5.68
295.002	5.63
295.373	5.73
295.744	5.83
296.115	5.8
296.486	5.78
296.857	5.86
297.228	5.85
297.599	5.76
297.97	5.86
298.34	5.78
298.711	5.83
299.082	5.74
299.452	5.94
299.823	5.89
300.194	5.89
300.564	5.91
300.935	6.01
301.305	6.03
301.676	5.97
302.046	5.95
302.416	6.04
302.787	5.93
303.157	6.03
303.527	5.99
303.897	5.89
304.267	5.98
304.637	5.9
305.008	5.9
305.378	6.06
305.748	6.07
306.117	6.09
306.487	6.17
306.857	6.3
307.227	6.25
307.597	6.21
307.967	6.22
308.336	6.27
308.706	6.3
309.076	6.47
309.445	6.37
309.815	6.29
310.184	6.27
310.554	6.35
310.923	6.38
311.293	6.39
311.662	6.48
312.031	6.37
312.401	6.46
312.77	6.52
313.139	6.36
313.508	6.34
313.877	6.37
314.246	6.17
314.616	6.18
314.985	6.21
315.353	6.29
315.722	6.3
316.091	6.31
316.46	6.19
316.829	6.1
317.198	6.09
317.567	6.11
317.935	6.11
318.304	6.21
318.672	5.96
319.041	6.04
319.41	6.23
319.778	6.1
320.147	6.09
320.515	6.08
320.883	6.25
321.252	6.29
321.62	6.39
321.988	6.36
322.357	6.34
322.725	6.19
323.093	6.1
323.461	6.18
323.829	6.15
324.197	6.27
324.565	6.2
324.933	6.25
325.301	6.19
325.669	6.22
326.037	6.14
326.405	6.33
326.772	6.3
327.14	6.25
327.508	6.46
327.875	6.3
328.243	6.29
328.61	6.26
328.978	6.23
329.346	6.18
329.713	6.17
330.08	6.06
330.448	6.04
330.815	6.04
331.182	5.99
331.55	5.96
331.917	5.98
332.284	6.1
332.651	6.1
333.018	6.23
333.385	6.18
333.752	6.32
334.119	6.36
334.486	6.41
334.853	6.25
335.22	6.19
335.587	6.34
335.954	6.45
336.32	6.35
336.687	6.41
337.054	6.42
337.42	6.46
337.787	6.55
338.153	6.64
338.52	6.67
338.886	6.56
339.253	6.69
339.619	6.69
339.986	6.57
340.352	6.48
340.718	6.41
341.084	6.52
341.451	6.44
341.817	6.36
342.183	6.3
342.549	6.24
342.915	6.27
343.281	6.26
343.647	6.19
344.013	6.32
344.379	6.21
344.745	6.28
345.11	6.33
345.476	6.37
345.842	6.4
346.208	6.39
346.573	6.46
346.939	6.47
347.304	6.37
347.67	6.41
348.035	6.45
348.401	6.53
348.766	6.54
349.132	6.54
349.497	6.65
349.862	6.74
350.228	6.82
350.593	6.86
350.958	6.77
351.323	6.78
351.688	6.72
352.053	6.87
352.418	6.82
352.783	6.86
353.148	6.81
353.513	6.76
353.878	6.76
354.243	6.82
354.608	6.78
354.972	6.8
355.337	6.88
355.702	6.93
356.066	6.91
356.431	6.87
356.795	6.9
357.16	6.75
357.524	6.54
357.889	6.55
358.253	6.5
358.618	6.56
358.982	6.52
359.346	6.49
359.71	6.4
360.075	6.36
360.439	6.42
360.803	6.33
361.167	6.34
361.531	6.31
361.895	6.26
362.259	6.24
362.623	6.2
362.987	6.13
363.351	6.12
363.714	6.17
364.078	6.15
364.442	6.12
364.806	6.17
365.169	6.29
365.533	6.32
365.896	6.37
366.26	6.42
366.623	6.4
366.987	6.47
367.35	6.46
367.714	6.48
368.077	6.3
368.44	6.43
368.803	6.41
369.167	6.4
369.53	6.39
369.893	6.4
370.256	6.4
370.619	6.38
370.982	6.35
371.345	6.22
371.708	6.24
372.071	6.23
372.434	6.18
372.797	6.15
373.159	6.14
373.522	6.11
373.885	6.12
374.247	6.13
374.61	6.11
374.973	6.14
375.335	6.19
375.698	6.24
376.06	6.25
376.423	6.22
376.785	6.22
377.147	6.26
377.51	6.23
377.872	6.26
378.234	6.27
378.596	6.29
378.958	6.32
379.321	6.26
379.683	6.26
380.045	6.26
380.407	6.22
380.769	6.17
381.13	6.13
381.492	6.09
381.854	6.09
382.216	6.09
382.578	6.08
382.939	6.02
383.301	6.07
383.663	6.05
384.024	6.08
384.386	6.13
384.747	6.14
385.109	6.18
385.47	6.13
385.832	6.15
386.193	6.17
386.554	6.14
386.916	6.19
387.277	6.17
387.638	6.21
387.999	6.25
388.36	6.28
388.721	6.29
389.082	6.29
389.443	6.28
389.804	6.27
390.165	6.23
390.526	6.22
390.887	6.2
391.248	6.21
391.609	6.21
391.969	6.15
392.33	6.13
392.691	6.11
393.051	6.14
393.412	6.1
393.772	6.07
394.133	6.09
394.493	6.1
394.854	6.13
395.214	6.09
395.574	6.11
395.935	6.08
396.295	6.1
396.655	6.08
397.015	6.1
397.376	6.1
397.736	6.11
398.096	6.13
398.456	6.08
398.816	6.09
399.176	6.07
399.535	6.08
399.895	6.06
400.255	6.07
400.615	6.06
400.975	6.06
401.334	6.04
401.694	6.06
402.054	6.07
402.413	6.01
402.773	5.99
403.132	5.94
403.492	5.95
403.851	5.95
404.211	5.94
404.57	5.93
404.929	5.93
405.288	5.91
405.648	5.89
406.007	5.93
406.366	5.91
406.725	5.96
407.084	5.96
407.443	5.96
407.802	5.95
408.161	5.93
408.52	5.91
408.879	5.91
409.238	5.89
409.596	5.85
409.955	5.87
410.314	5.88
410.673	5.87
411.031	5.86
411.39	5.84
411.748	5.86
412.107	5.87
412.465	5.84
412.824	5.87
413.182	5.85
413.54	5.86
413.899	5.86
414.257	5.82
414.615	5.81
414.974	5.81
415.332	5.79
415.69	5.78
416.048	5.79
416.406	5.81
416.764	5.79
417.122	5.79
417.48	5.78
417.838	5.79
418.195	5.79
418.553	5.78
418.911	5.74
419.269	5.72
419.626	5.71
419.984	5.7
420.342	5.69
420.699	5.69
421.057	5.66
421.414	5.64
421.772	5.63
422.129	5.61
422.486	5.6
422.844	5.59
423.201	5.6
423.558	5.59
423.915	5.58
424.273	5.59
424.63	5.56
424.987	5.55
425.344	5.53
425.701	5.52
426.058	5.52
426.415	5.54
426.772	5.54
427.128	5.52
427.485	5.53
427.842	5.51
428.199	5.5
428.555	5.49
428.912	5.5
429.269	5.51
429.625	5.54
429.982	5.51
430.338	5.5
430.695	5.5
431.051	5.5
431.407	5.5
431.764	5.49
432.12	5.5
432.476	5.5
432.832	5.49
433.189	5.47
433.545	5.48
433.901	5.46
434.257	5.44
434.613	5.47
434.969	5.47
435.325	5.49
435.681	5.51
436.036	5.51
436.392	5.51
436.748	5.49
437.104	5.48
437.459	5.49
437.815	5.5
438.171	5.49
438.526	5.5
438.882	5.5
439.237	5.5
439.593	5.52
439.948	5.51
440.304	5.51
440.659	5.53
441.014	5.52
441.369	5.53
441.725	5.53
442.08	5.52
442.435	5.51
442.79	5.5
443.145	5.47
443.5	5.48
443.855	5.45
444.21	5.44
444.565	5.45
444.92	5.44
445.275	5.43
445.629	5.43
445.984	5.41
446.339	5.38
446.693	5.36
447.048	5.36
447.403	5.35
447.757	5.36
448.112	5.33
448.466	5.33
448.82	5.32
449.175	5.33
449.529	5.32
449.883	5.31
450.238	5.3
450.592	5.3
450.946	5.27
451.3	5.29
451.654	5.29
452.008	5.29
452.362	5.29
452.716	5.29
453.07	5.29
453.424	5.27
453.778	5.28
454.132	5.27
454.486	5.27
454.839	5.28
455.193	5.26
455.547	5.26
455.9	5.27
456.254	5.27
456.607	5.27
456.961	5.27
457.314	5.28
457.668	5.29
458.021	5.29
458.375	5.31
458.728	5.31
459.081	5.31
459.434	5.31
459.787	5.31
460.141	5.31
460.494	5.3
460.847	5.33
461.2	5.32
461.553	5.34
461.906	5.34
462.259	5.36
462.611	5.36
462.964	5.37
463.317	5.38
463.67	5.37
464.022	5.37
464.375	5.39
464.728	5.37
465.08	5.39
465.433	5.4
465.785	5.41
466.138	5.41
466.49	5.42
466.843	5.43
467.195	5.44
467.547	5.46
467.899	5.47
468.252	5.46
468.604	5.49
468.956	5.5
469.308	5.51
469.66	5.51
470.012	5.51
470.364	5.51
470.716	5.5
471.068	5.52
471.42	5.52
471.772	5.49
472.123	5.51
472.475	5.5
472.827	5.5
473.178	5.52
473.53	5.52
473.882	5.5
474.233	5.49
474.585	5.48
474.936	5.47
475.288	5.47
475.639	5.48
475.99	5.44
476.342	5.47
476.693	5.45
477.044	5.46
477.395	5.46
477.746	5.46
478.097	5.46
478.448	5.46
478.8	5.45
479.15	5.46
479.501	5.47
479.852	5.48
480.203	5.49
480.554	5.5
480.905	5.52
481.255	5.54
481.606	5.55
481.957	5.56
482.307	5.57
482.658	5.57
483.009	5.57
483.359	5.58
483.709	5.57
484.06	5.57
484.41	5.58
484.761	5.59
485.111	5.59
485.461	5.59
485.811	5.6
486.162	5.61
486.512	5.63
486.862	5.63
487.212	5.63
487.562	5.63
487.912	5.63
488.262	5.63
488.612	5.64
488.961	5.64
489.311	5.65
489.661	5.65
490.011	5.65
490.36	5.66
490.71	5.66
491.06	5.68
491.409	5.68
491.759	5.68
492.108	5.67
492.458	5.69
492.807	5.69
493.157	5.69
493.506	5.69
493.855	5.7
494.204	5.71
494.554	5.73
494.903	5.73
495.252	5.73
495.601	5.73
495.95	5.75
496.299	5.75
496.648	5.76
496.997	5.78
497.346	5.8
497.695	5.82
498.043	5.83
498.392	5.83
498.741	5.85
499.09	5.87
499.438	5.88
499.787	5.92
500.135	5.96
500.484	5.98
500.832	6
501.181	6.05
501.529	6.07
501.878	6.06
502.226	6.07
502.574	6.07
502.923	6.1
503.271	6.08
503.619	6.11
503.967	6.13
504.315	6.14
504.663	6.16
505.011	6.16
505.359	6.18
505.707	6.21
506.055	6.22
506.403	6.24
506.751	6.27
507.098	6.27
507.446	6.26
507.794	6.26
508.141	6.27
508.489	6.27
508.837	6.27
509.184	6.3
509.531	6.32
509.879	6.36
510.226	6.36
510.574	6.39
510.921	6.38
511.268	6.38
511.616	6.39
511.963	6.39
512.31	6.43
512.657	6.45
513.004	6.47
513.351	6.49
513.698	6.5
514.045	6.52
514.392	6.54
514.739	6.59
515.086	6.62
515.432	6.64
515.779	6.64
516.126	6.66
516.473	6.67
516.819	6.69
517.166	6.69
517.512	6.7
517.859	6.71
518.205	6.74
518.552	6.73
518.898	6.76
519.245	6.77
519.591	6.78
519.937	6.76
520.283	6.75
520.629	6.78
520.976	6.8
521.322	6.81
521.668	6.82
522.014	6.82
522.36	6.82
522.706	6.83
523.052	6.85
523.398	6.87
523.743	6.89
524.089	6.9
524.435	6.91
524.781	6.93
525.126	6.95
525.472	6.96
525.817	6.99
526.163	6.99
526.509	7.01
526.854	7.02
527.199	7.04
527.545	7.04
527.89	7.04
528.235	7.04
528.581	7.04
528.926	7.05
529.271	7.05
529.616	7.05
529.961	7.06
530.306	7.07
530.651	7.06
530.996	7.06
531.341	7.06
531.686	7.07
532.031	7.08
532.376	7.07
532.721	7.08
533.065	7.09
533.41	7.09
533.755	7.07
534.099	7.07
534.444	7.08
534.788	7.09
535.133	7.09
535.477	7.11
535.822	7.12
536.166	7.12
536.51	7.13
536.855	7.14
537.199	7.13
537.543	7.13
537.887	7.14
538.231	7.16
538.576	7.18
538.92	7.18
539.264	7.18
539.608	7.2
539.951	7.2
540.295	7.19
540.639	7.2
540.983	7.22
541.327	7.23
541.671	7.23
542.014	7.23
542.358	7.23
542.701	7.24
543.045	7.24
543.389	7.22
543.732	7.23
544.075	7.23
544.419	7.24
544.762	7.25
545.105	7.26
545.449	7.25
545.792	7.25
546.135	7.25
546.478	7.26
546.821	7.25
547.165	7.24
547.508	7.27
547.851	7.27
548.194	7.26
548.536	7.25
548.879	7.25
549.222	7.25
549.565	7.25
549.908	7.24
550.25	7.24
550.593	7.26
550.936	7.27
551.278	7.27
551.621	7.28
551.963	7.27
552.306	7.25
552.648	7.25
552.991	7.24
553.333	7.23
553.675	7.22
554.017	7.23
554.36	7.25
554.702	7.22
555.044	7.21
555.386	7.2
555.728	7.22
556.07	7.23
556.412	7.22
556.754	7.23
557.096	7.26
557.438	7.26
557.78	7.27
558.121	7.31
558.463	7.32
558.805	7.31
559.147	7.3
559.488	7.3
559.83	7.31
560.171	7.33
560.513	7.33
560.854	7.33
561.196	7.33
561.537	7.35
561.878	7.39
562.22	7.39
562.561	7.4
562.902	7.43
563.243	7.47
563.584	7.45
563.925	7.47
564.266	7.44
564.607	7.45
564.948	7.49
565.289	7.45
565.63	7.43
565.971	7.45
566.312	7.47
566.653	7.5
566.993	7.48
567.334	7.49
567.675	7.5
568.015	7.52
568.356	7.53
568.696	7.54
569.037	7.5
569.377	7.53
569.718	7.53
570.058	7.54
570.398	7.52
570.739	7.53
571.079	7.54
571.419	7.53
571.759	7.52
572.099	7.5
572.439	7.5
572.779	7.51
573.119	7.52
573.459	7.55
573.799	7.53
574.139	7.53
574.479	7.53
574.819	7.54
575.158	7.54
575.498	7.54
575.838	7.54
576.177	7.51
576.517	7.5
576.856	7.54
577.196	7.48
577.535	7.46
577.875	7.49
578.214	7.5
578.553	7.5
578.893	7.49
579.232	7.47
579.571	7.47
579.91	7.46
580.25	7.47
580.589	7.44
580.928	7.48
581.267	7.5
581.606	7.52
581.945	7.51
582.283	7.49
582.622	7.47
582.961	7.45
583.3	7.47
583.639	7.46
583.977	7.46
584.316	7.45
584.654	7.49
584.993	7.49
585.332	7.5
585.67	7.53
586.008	7.52
586.347	7.55
586.685	7.52
587.024	7.52
587.362	7.52
587.7	7.55
588.038	7.55
588.376	7.56
588.715	7.57
589.053	7.58
589.391	7.61
589.729	7.66
590.067	7.64
590.404	7.69
590.742	7.71
591.08	7.67
591.418	7.72
591.756	7.76
592.093	7.74
592.431	7.74
592.769	7.74
593.106	7.76
593.444	7.76
593.781	7.77
594.119	7.78
594.456	7.76
594.793	7.78
595.131	7.77
595.468	7.81
595.805	7.8
596.143	7.81
596.48	7.81
596.817	7.82
597.154	7.82
597.491	7.81
597.828	7.84
598.165	7.85
598.502	7.84
598.839	7.83
599.176	7.83
599.512	7.81
599.849	7.84
600.186	7.81
600.523	7.85
600.859	7.89
601.196	7.93
601.532	7.98
601.869	7.93
602.205	7.89
602.542	7.86
602.878	7.87
603.215	7.86
603.551	7.88
603.887	7.86
604.223	7.89
604.56	7.93
604.896	7.87
605.232	7.93
605.568	7.95
605.904	7.93
606.24	7.95
606.576	7.95
606.912	7.94
607.248	7.95
607.583	7.94
607.919	7.9
608.255	7.86
608.591	7.85
608.926	7.89
609.262	7.92
609.597	7.93
609.933	7.94
610.268	7.92
610.604	7.94
610.939	7.95
611.275	7.93
611.61	7.88
611.945	7.96
612.281	7.9
612.616	7.91
612.951	7.95
613.286	7.97
613.621	8.03
613.956	8.04
614.291	8.09
614.626	8.09
614.961	8.12
615.296	8.11
615.631	8.11
615.966	8.12
616.3	8.17
616.635	8.18
616.97	8.13
617.304	8.14
617.639	8.12
617.973	8.07
618.308	8.11
618.642	8.11
618.977	8.07
619.311	8.06
619.646	8.03
619.98	8.05
620.314	8.05
620.648	8.01
620.983	8.05
621.317	8.03
621.651	8.01
621.985	8.04
622.319	8.08
622.653	8.12
622.987	8.15
623.321	8.08
623.655	8.08
623.988	8.12
624.322	8.12
624.656	8.14
624.99	8.17
625.323	8.17
625.657	8.18
625.99	8.25
626.324	8.26
626.657	8.24
626.991	8.22
627.324	8.18
627.658	8.21
627.991	8.2
628.324	8.2
628.657	8.21
628.991	8.2
629.324	8.21
629.657	8.19
629.99	8.17
630.323	8.18
630.656	8.22
630.989	8.24
631.322	8.27
631.655	8.28
631.987	8.31
632.32	8.3
632.653	8.23
632.986	8.2
633.318	8.2
633.651	8.22
633.984	8.17
634.316	8.17
634.649	8.12
634.981	8.12
635.313	8.15
635.646	8.19
635.978	8.17
636.31	8.2
636.643	8.18
636.975	8.16
637.307	8.23
637.639	8.21
637.971	8.23
638.303	8.2
638.635	8.19
638.967	8.16
639.299	8.14
639.631	8.19
639.963	8.14
640.295	8.21
640.626	8.25
640.958	8.34
641.29	8.37
641.621	8.42
641.953	8.39
642.285	8.45
642.616	8.45
642.948	8.44
643.279	8.46
643.61	8.47
643.942	8.47
644.273	8.42
644.604	8.38
644.936	8.36
645.267	8.4
645.598	8.46
645.929	8.5
646.26	8.54
646.591	8.54
646.922	8.49
647.253	8.46
647.584	8.43
647.915	8.37
648.245	8.36
648.576	8.32
648.907	8.38
649.238	8.36
649.568	8.42
649.899	8.48
650.229	8.46
650.56	8.42
650.89	8.38
651.221	8.39
651.551	8.41
651.882	8.45
652.212	8.44
652.542	8.39
652.872	8.3
653.203	8.29
653.533	8.37
653.863	8.43
654.193	8.49
654.523	8.51
654.853	8.58
655.183	8.54
655.513	8.55
655.843	8.54
656.172	8.51
656.502	8.47
656.832	8.49
657.162	8.57
657.491	8.6
657.821	8.62
658.15	8.59
658.48	8.61
658.809	8.6
659.139	8.61
659.468	8.55
659.798	8.65
660.127	8.7
660.456	8.7
660.785	8.72
661.115	8.66
661.444	8.72
661.773	8.73
662.102	8.78
662.431	8.83
662.76	8.81
663.089	8.74
663.418	8.71
663.747	8.64
664.076	8.54
664.404	8.55
664.733	8.65
665.062	8.71
665.39	8.65
665.719	8.56
666.048	8.61
666.376	8.69
666.705	8.72
667.033	8.69
667.362	8.66
667.69	8.66
668.018	8.73
668.347	8.71
668.675	8.67
669.003	8.68
669.331	8.68
669.659	8.7
669.987	8.76
670.315	8.77
670.643	8.78
670.971	8.81
671.299	8.84
671.627	8.73
671.955	8.73
672.283	8.8
672.61	8.86
672.938	8.8
673.266	8.76
673.593	8.77
673.921	8.8
674.249	8.78
674.576	8.71
674.904	8.68
675.231	8.67
675.558	8.64
675.886	8.61
676.213	8.68
676.54	8.66
676.867	8.66
677.195	8.67
677.522	8.72
677.849	8.7
678.176	8.72
678.503	8.81
678.83	8.77
679.157	8.7
679.484	8.71
679.81	8.67
680.137	8.66
680.464	8.6
680.791	8.52
681.117	8.54
681.444	8.66
681.771	8.68
682.097	8.65
682.424	8.75
682.75	8.73
683.077	8.69
683.403	8.75
683.729	8.81
684.056	8.87
684.382	8.87
684.708	8.87
685.034	8.9
685.36	8.9
685.686	8.91
686.012	8.9
686.339	9.03
686.664	9.21
686.99	9.26
687.316	9.29
687.642	9.33
687.968	9.38
688.294	9.43
688.619	9.5
688.945	9.49
689.271	9.46
689.596	9.45
689.922	9.48
690.247	9.44
690.573	9.44
690.898	9.45
691.224	9.49
691.549	9.55
691.874	9.52
692.2	9.6
692.525	9.76
692.85	9.92
693.175	9.8
693.5	9.66
693.825	9.65
694.15	9.72
694.475	9.81
694.8	9.84
695.125	9.67
695.45	9.54
695.775	9.61
696.099	9.6
696.424	9.63
696.749	9.49
697.073	9.51
697.398	9.51
697.723	9.52
698.047	9.47
698.372	9.43
698.696	9.42
699.02	9.34
699.345	9.2
699.669	9.24
699.993	9.2
700.318	9.33
700.642	9.41
700.966	9.39
701.29	9.31
701.614	9.24
701.938	9.28
702.262	9.47
702.586	9.48
702.91	9.42
703.234	9.47
703.557	9.65
703.881	9.57
704.205	9.62
704.529	9.5
704.852	9.57
705.176	9.61
705.499	9.75
705.823	9.79
706.146	9.87
706.47	9.74
706.793	9.81
707.117	9.59
707.44	9.52
707.763	9.41
708.086	9.46
708.409	9.61
708.733	9.65
709.056	9.57
709.379	9.66
709.702	9.86
710.025	9.91
710.348	9.88
710.671	9.96
710.993	9.95
711.316	10.05
711.639	10.05
711.962	10.05
712.284	10.03
712.607	9.98
712.93	9.91
713.252	9.94
713.575	10.01
713.897	10.04
714.22	10.07
714.542	10.14
714.864	10.02
715.187	10.02
715.509	10.08
715.831	10.06
716.153	10
716.475	9.9
716.798	9.91
717.12	10.01
717.442	9.91
717.764	9.96
718.085	10.02
718.407	10.09
718.729	10.12
719.051	10.12
719.373	10.07
719.695	10.21
720.016	10.25
720.338	10.24
720.659	10.3
720.981	10.17
721.302	10.09
721.624	10.19
721.945	10.17
722.267	10.01
722.588	9.97
722.909	9.96
723.231	10.01
723.552	9.99
723.873	9.88
724.194	9.98
724.515	9.92
724.836	9.9
725.157	9.84
725.478	9.71
725.799	9.68
726.12	9.77
726.441	9.68
726.762	9.67
727.083	9.68
727.403	9.63
727.724	9.69
728.045	9.87
728.365	9.8
728.686	9.9
729.006	10.09
729.327	10.17
729.647	10.06
729.967	9.87
730.288	9.96
730.608	9.9
730.928	9.95
731.249	9.8
731.569	9.95
731.889	9.83
732.209	9.96
732.529	9.85
732.849	9.86
733.169	9.97
733.489	9.95
733.809	9.88
734.129	9.74
734.448	10.06
734.768	9.96
735.088	10.16
735.408	10.05
735.727	9.96
736.047	9.95
736.366	10.06
736.686	10.3
737.005	10.1
737.325	10.02
737.644	10.01
737.963	10.13
738.283	9.83
738.602	9.95
738.921	9.88
739.24	10.1
739.56	10.01
739.879	9.94
740.198	10.1
740.517	10.15
740.836	10.58
741.155	10.29
741.473	10.46
741.792	10.45
742.111	10.34
742.43	10.24
742.748	10.15
743.067	10.05
743.386	9.72
743.704	9.95
744.023	10.09
744.341	10.03
744.66	10.11
744.978	10.2
745.297	10.24
745.615	10.33
745.933	10.13
746.252	10.3
746.57	10.38
746.888	10.31
747.206	10.24
747.524	9.86
747.842	10.06
748.16	10.03
748.478	9.89
748.796	10.06
749.114	10.27
749.432	10.12
749.749	10.29
750.067	10.52
750.385	10.42
750.703	10.59
751.02	10.5
751.338	10.53
751.655	10.46
751.973	10.4
752.29	10.34
752.608	10.44
752.925	10.49
753.242	10.56
753.56	10.56
753.877	10.47
754.194	10.82
754.511	10.8
754.828	10.74
755.145	10.62
755.462	10.45
755.779	10.54
756.096	10.95
756.413	11.03
756.73	11.33
757.047	11.44
757.364	11.35
757.68	11.79
757.997	11.77
758.314	11.93
758.63	11.83
758.947	11.89
759.264	12.07
759.58	12.03
759.896	11.86
760.213	11.82
760.529	12.13
760.846	12.02
761.162	11.87
761.478	11.89
761.794	12.2
762.11	12.31
762.426	12.27
762.743	12.28
763.059	12.06
763.375	11.76
763.69	11.85
764.006	11.78
764.322	11.62
764.638	11.32
764.954	11.4
765.27	11.45
765.585	11.45
765.901	11.25
766.216	11.35
766.532	11.47
766.848	11.37
767.163	11.44
767.478	11.33
767.794	11.57
768.109	11.53
768.424	11.57
768.74	11.66
769.055	11.61
769.37	11.59
769.685	11.54
770	11.71
770.315	11.55
770.63	11.65
770.945	11.45
771.26	11.9
771.575	11.59
771.89	11.77
772.205	11.75
772.52	11.93
772.834	11.87
773.149	11.59
773.464	11.99
773.778	11.72
774.093	11.89
774.407	11.74
774.722	11.84
775.036	11.64
775.351	11.57
775.665	11.6
775.979	11.21
776.293	11.15
776.608	10.92
776.922	10.68
777.236	10.7
777.55	10.93
777.864	10.89
778.178	11.49
778.492	11.61
778.806	11.54
779.12	11.51
779.434	11.44
779.747	11.76
780.061	11.74
780.375	11.9
780.689	11.95
781.002	11.94
781.316	11.92
781.629	12.08
781.943	12.17
782.256	11.83
782.57	11.85
782.883	12.41
783.196	12.7
783.51	12.88
783.823	12.8
784.136	12.63
784.449	12.66
784.762	12.84
785.075	12.78
785.388	12.57
785.701	12.56
786.014	12.54
786.327	12.53
786.64	12.46
786.953	12.49
787.266	12.66
787.578	12.95
787.891	12.52
788.204	12.26
788.516	12.28
788.829	12.63
789.141	13.11
789.454	12.86
789.766	13.05
790.079	13.55
790.391	13.39
790.703	13.37
791.016	13.46
791.328	12.87
791.64	12.97
791.952	13.27
792.264	13.17
792.576	13.29
792.888	13.39
793.2	13.62
793.512	13.29
793.824	13.14
794.136	12.71
794.448	13.35
794.76	13.39
795.071	13.59
795.383	13.69
795.695	13.73
796.006	14.25
796.318	14.1
796.629	13.55
796.941	13.89
797.252	14.29
797.564	14.32
797.875	14.13
798.186	14.1
798.497	14.31
798.809	14.14
799.12	13.5
799.431	13.27
799.742	13.03
800.053	13.45
800.364	13.49
800.675	13.59
800.986	13.58
801.297	14.03
801.608	13.43
801.918	12.76
802.229	12.5
802.54	12.3
802.851	12.14
803.161	12.39
803.472	12.57
803.782	12.61
804.093	12.39
804.403	13.04
804.714	13.18
805.024	12.91
805.334	13.46
805.645	14.51
805.955	14.63
806.265	14.46
806.575	14.31
806.885	14.44
807.195	14.67
807.505	14.2
807.815	13.61
808.125	14.17
808.435	14.68
808.745	14.93
809.055	14.88
809.365	14.96
809.674	14.88
809.984	15.2
810.294	15.11
810.603	15.87
810.913	15.49
811.222	15.17
811.532	15.26
811.841	15.32
812.151	15.39
812.46	15.28
812.769	15.63
813.079	15.6
813.388	15.54
813.697	15.52
814.006	16.04
814.315	16.36
814.624	16.19
814.933	16.27
815.242	16.23
815.551	15.86
815.86	16.11
816.169	15.76
816.478	14.97
816.786	14.8
817.095	14.66
817.404	15.37
817.712	15.19
818.021	15.53
818.33	15.38
818.638	14.99
818.947	15.29
819.255	15.31
819.563	15.27
819.872	15.12
820.18	15.07
820.488	14.95
820.796	14.92
821.105	14.58
821.413	14.59
821.721	14.62
822.029	14.69
822.337	14.42
822.645	14.64
822.953	14.63
823.26	14.51
823.568	14.35
823.876	14.03
824.184	14
824.491	14.03
824.799	13.98
825.107	13.97
825.414	14.01
825.722	13.91
826.029	13.85
826.337	13.94
826.644	13.89
826.951	13.79
827.259	13.84
827.566	14.04
827.873	13.85
828.18	13.74
828.488	13.62
828.795	13.8
829.102	13.43
829.409	13.49
829.716	13.59
830.023	13.49
830.329	13.49
830.636	13.97
830.943	13.79
831.25	13.9
831.557	13.91
831.863	13.73
832.17	13.38
832.476	13.72
832.783	13.89
833.089	14.15
833.396	14.32
833.702	14.21
834.009	14.09
834.315	14.48
834.621	14.65
834.928	14.84
835.234	14.84
835.54	15.06
835.846	14.78
836.152	15.05
836.458	14.94
836.764	15.46
837.07	15.04
837.376	14.8
837.682	14.81
837.988	15.1
838.293	14.93
838.599	15.9
838.905	15.72
839.211	15.24
839.516	15.59
839.822	15.82
840.127	15.73
840.433	16.3
840.738	16.58
841.044	15.85
841.349	15.28
841.654	16.15
841.959	16.55
842.265	16.22
842.57	16.1
842.875	17.81
843.18	18.51
843.485	18.37
843.79	18.64
844.095	18.59
844.4	18.14
844.705	18.5
845.01	17.42
845.315	17.52
845.619	17.98
845.924	16.7
846.229	17.42
846.533	17.58
846.838	16.96
847.142	16.1
847.447	15.98
847.751	17.06
848.056	17.16
848.36	17.48
848.664	19.4
848.969	20.8
849.273	19.45
849.577	17.87
849.881	18.68
850.185	21.65
850.489	22.39
850.794	22.26
851.097	21.73
851.401	21.57
851.705	20.5
852.009	19.76
852.313	19.34
852.617	19.7
852.92	20.45
853.224	20.48
853.528	21.55
853.831	23.6
854.135	24.3
854.438	22.84
854.742	21.53
855.045	20.64
855.349	19.63
855.652	19.88
855.955	19.52
856.259	19.45
856.562	14.51
856.865	11.83
857.168	11.45
857.471	12.56
857.774	13.81
858.077	14.4
858.38	15.81
858.683	17.55
858.986	17.26
859.289	17.49
859.592	16.52
859.894	15.94
860.197	13.76
860.5	13.83
860.802	12.48
861.105	12.59
861.407	11.69
861.71	11.3
862.012	11.67
862.315	10.64
862.617	10.84
862.919	13.72
863.222	16.04
863.524	15.72
863.826	16.2
864.128	15.28
864.43	13.79
864.732	14.52
865.034	10.55
865.336	8.48
865.638	7.84
865.94	6.97
866.242	7.2
866.544	7.72
866.846	6.91
867.147	9.25
867.449	10.92
867.751	14.01
868.052	15.67
868.354	15.7
868.655	18.33
868.957	17.55
869.258	17.97
869.56	19.48
869.861	19.51
870.162	17.51
870.463	19.61
870.765	21.05
871.066	18.59
871.367	21.42
871.668	22.58
871.969	20.48
872.27	22.45
872.571	21.46
872.872	21.79
873.173	19.81
873.473	20.51
873.774	18.37
874.075	17.83
874.376	15.13
874.676	16.2
874.977	14.26
875.277	15.23
875.578	14.05
875.878	11.85
876.179	12.88
876.479	13.82
876.78	11.9
877.08	12.16
877.38	12.22
877.68	12.05
877.981	10.8
878.281	12.78
878.581	13.65
