Data from BA57965_Reflection_00014.txt Node
Date: Mon Nov 18 15:16:30 EST 2019
User: vgr7
Spectrometer: USB2G7710
Scans to average: 3
Trigger mode: 4
Integration Time (sec): 2.000000E-2
Electric dark correction enabled: true
Boxcar width: 10
XAxis mode: Wavelengths
Number of Pixels in Spectrum: 2048
>>>>>Begin Spectral Data<<<<<
177.721	57.2
178.105	55.49
178.488	30.94
178.871	54.14
179.254	18.92
179.636	36.13
180.019	1.29
180.402	18.42
180.785	-10.96
181.168	-39.94
181.55	-151.23
181.933	52.15
182.316	96.03
182.698	212.97
183.081	583.87
183.463	-912.74
183.846	-209.22
184.228	-12.78
184.611	21.74
184.993	34.14
185.376	16.46
185.758	8.45
186.14	-8.1
186.522	-17.94
186.904	-12.87
187.287	-23.72
187.669	-18.7
188.051	-20.53
188.433	-22.82
188.815	-9.37
189.197	-14.2
189.579	-7.86
189.961	-10.25
190.342	-7.12
190.724	-7.5
191.106	-6.22
191.488	2.07
191.869	-5.4
192.251	-18.17
192.633	-16.27
193.014	-17.82
193.396	-23.01
193.777	-22.19
194.159	-37.48
194.54	-19.26
194.922	-5.86
195.303	-15.23
195.684	-22.1
196.065	-18.56
196.447	-17.9
196.828	-36.77
197.209	-34.39
197.59	-50.31
197.971	-43.46
198.352	-41.57
198.733	-22.81
199.114	-20.56
199.495	-24.19
199.876	-18.53
200.257	-18.94
200.638	-26.83
201.018	-30.65
201.399	-27.91
201.78	-22.11
202.16	-17.14
202.541	-32.08
202.922	-41.98
203.302	-41.1
203.683	-27.58
204.063	-27.08
204.444	-30.73
204.824	-24.54
205.204	-20.21
205.585	-16.53
205.965	-19.81
206.345	-21.66
206.725	-39.49
207.106	-47.42
207.486	-48.5
207.866	-45.94
208.246	-40.07
208.626	-22.28
209.006	-24.97
209.386	-34.09
209.766	-25.4
210.145	-16.65
210.525	0.11
210.905	2.98
211.285	6.63
211.664	2.34
212.044	-0.48
212.424	0.98
212.803	-4.6
213.183	-3.92
213.562	-0.22
213.942	8.71
214.321	9.77
214.701	12.85
215.08	4.43
215.459	-1.58
215.838	-3.76
216.218	-2.82
216.597	-3.38
216.976	-2.6
217.355	-6.62
217.734	-8.27
218.113	-10.36
218.492	-20.64
218.871	-29.79
219.25	-31.31
219.629	-38.27
220.008	-36.74
220.387	-34.26
220.766	-29.41
221.144	-25.1
221.523	-26.36
221.902	-30.9
222.28	-29.86
222.659	-32.79
223.037	-20.19
223.416	-17.9
223.794	-19.57
224.173	-18.36
224.551	-15.04
224.929	-11.68
225.308	-4.74
225.686	-6.18
226.064	-1.81
226.442	5.95
226.821	9.91
227.199	7.02
227.577	9.2
227.955	7.01
228.333	7.23
228.711	7.23
229.089	5.81
229.467	4.33
229.845	2.15
230.222	1.95
230.6	0.72
230.978	-1.14
231.356	0.67
231.733	1.27
232.111	2.28
232.488	2.66
232.866	1.68
233.243	2.53
233.621	3.09
233.998	3.84
234.376	0.45
234.753	0.55
235.13	2.23
235.508	1.4
235.885	2.32
236.262	1.22
236.639	2.04
237.016	2.43
237.393	3.2
237.77	3.54
238.147	3.66
238.524	4.7
238.901	5.76
239.278	5.44
239.655	6.07
240.032	5.43
240.409	5.29
240.785	5.69
241.162	5.64
241.539	5.68
241.915	5.11
242.292	5.4
242.668	4.8
243.045	4.62
243.421	5
243.798	4.58
244.174	4.97
244.551	4.84
244.927	4.51
245.303	4.6
245.679	4.84
246.056	4.63
246.432	4.38
246.808	4.39
247.184	4.24
247.56	4
247.936	4.22
248.312	4.1
248.688	3.89
249.064	3.61
249.44	3.71
249.815	3.69
250.191	3.71
250.567	3.94
250.943	3.82
251.318	3.61
251.694	3.71
252.069	3.42
252.445	3.51
252.82	3.63
253.196	3.49
253.571	3.41
253.947	3.54
254.322	3.62
254.697	3.37
255.073	3.42
255.448	3.45
255.823	3.26
256.198	3.56
256.573	3.86
256.948	4.15
257.323	3.95
257.698	3.97
258.073	4.05
258.448	4.03
258.823	4.19
259.198	4.19
259.573	4.11
259.948	4.14
260.322	4.1
260.697	4.01
261.072	3.88
261.446	3.93
261.821	3.96
262.195	4.05
262.57	4.1
262.944	4.2
263.319	4.09
263.693	4.04
264.067	4.07
264.442	4.02
264.816	4.02
265.19	4.1
265.564	4
265.938	3.74
266.313	3.66
266.687	3.65
267.061	3.68
267.435	3.68
267.809	3.54
268.183	3.41
268.556	3.61
268.93	3.74
269.304	3.53
269.678	3.6
270.051	3.53
270.425	3.61
270.799	3.6
271.172	3.78
271.546	3.87
271.919	3.84
272.293	3.8
272.666	3.88
273.04	3.78
273.413	3.97
273.787	3.99
274.16	4.02
274.533	4.11
274.906	4.09
275.279	4.13
275.653	4.24
276.026	4.14
276.399	4.12
276.772	4.18
277.145	4.11
277.518	4.08
277.891	4.07
278.263	4.01
278.636	3.91
279.009	3.95
279.382	4.09
279.755	4.04
280.127	4.12
280.5	4.06
280.872	4.31
281.245	4.25
281.617	4.44
281.99	4.53
282.362	4.38
282.735	4.29
283.107	4.23
283.479	4.24
283.852	4.32
284.224	4.32
284.596	4.24
284.968	4.45
285.34	4.46
285.713	4.47
286.085	4.55
286.457	4.62
286.829	4.63
287.201	4.56
287.572	4.54
287.944	4.44
288.316	4.49
288.688	4.38
289.06	4.39
289.431	4.35
289.803	4.23
290.175	4.41
290.546	4.64
290.918	4.64
291.289	4.66
291.661	4.91
292.032	4.95
292.403	5.01
292.775	4.95
293.146	4.94
293.517	5
293.889	5.04
294.26	5.1
294.631	5.09
295.002	5.12
295.373	5.19
295.744	5.31
296.115	5.21
296.486	5.16
296.857	5.16
297.228	5.2
297.599	5.23
297.97	5.12
298.34	5.13
298.711	5.29
299.082	5.38
299.452	5.35
299.823	5.49
300.194	5.52
300.564	5.4
300.935	5.48
301.305	5.54
301.676	5.53
302.046	5.65
302.416	5.79
302.787	5.91
303.157	5.93
303.527	6.02
303.897	6.17
304.267	6.46
304.637	6.55
305.008	6.69
305.378	6.84
305.748	7.05
306.117	7.08
306.487	7.18
306.857	7.24
307.227	7.19
307.597	7.18
307.967	7.35
308.336	7.66
308.706	7.71
309.076	7.73
309.445	7.8
309.815	7.76
310.184	7.74
310.554	7.83
310.923	7.93
311.293	8.01
311.662	8.08
312.031	8.07
312.401	8.15
312.77	8.19
313.139	8.31
313.508	8.39
313.877	8.48
314.246	8.57
314.616	8.63
314.985	8.91
315.353	8.97
315.722	9.05
316.091	9.06
316.46	9.09
316.829	9.23
317.198	9.46
317.567	9.58
317.935	9.71
318.304	9.81
318.672	9.8
319.041	9.94
319.41	10.16
319.778	10.17
320.147	10.4
320.515	10.43
320.883	10.39
321.252	10.41
321.62	10.53
321.988	10.49
322.357	10.63
322.725	10.51
323.093	10.63
323.461	10.68
323.829	10.84
324.197	11.01
324.565	11.09
324.933	11.1
325.301	11.24
325.669	11.35
326.037	11.41
326.405	11.54
326.772	11.51
327.14	11.57
327.508	11.57
327.875	11.46
328.243	11.55
328.61	11.68
328.978	11.71
329.346	11.72
329.713	11.72
330.08	11.72
330.448	11.67
330.815	11.6
331.182	11.66
331.55	11.72
331.917	11.73
332.284	11.95
332.651	11.94
333.018	11.85
333.385	11.69
333.752	11.51
334.119	11.52
334.486	11.48
334.853	11.32
335.22	11.51
335.587	11.62
335.954	11.6
336.32	11.59
336.687	11.64
337.054	11.61
337.42	11.7
337.787	11.79
338.153	11.93
338.52	12.02
338.886	11.95
339.253	11.9
339.619	11.99
339.986	11.85
340.352	11.94
340.718	12.05
341.084	12.16
341.451	12.3
341.817	12.45
342.183	12.6
342.549	12.69
342.915	12.7
343.281	12.71
343.647	12.79
344.013	12.87
344.379	12.94
344.745	13.07
345.11	13.1
345.476	13.2
345.842	13.25
346.208	13.18
346.573	13.25
346.939	13.17
347.304	13.13
347.67	13.12
348.035	13.1
348.401	13.08
348.766	13.08
349.132	13.13
349.497	12.98
349.862	12.97
350.228	12.99
350.593	12.91
350.958	12.89
351.323	12.89
351.688	12.77
352.053	12.68
352.418	12.63
352.783	12.66
353.148	12.51
353.513	12.58
353.878	12.59
354.243	12.6
354.608	12.65
354.972	12.62
355.337	12.64
355.702	12.55
356.066	12.55
356.431	12.41
356.795	12.33
357.16	12.44
357.524	12.32
357.889	12.23
358.253	12.26
358.618	12.22
358.982	12.05
359.346	12.03
359.71	11.99
360.075	11.96
360.439	11.88
360.803	11.85
361.167	11.73
361.531	11.69
361.895	11.63
362.259	11.59
362.623	11.54
362.987	11.49
363.351	11.46
363.714	11.43
364.078	11.5
364.442	11.49
364.806	11.33
365.169	11.36
365.533	11.32
365.896	11.17
366.26	11.05
366.623	11.05
366.987	11.03
367.35	10.94
367.714	10.88
368.077	10.8
368.44	10.71
368.803	10.6
369.167	10.5
369.53	10.37
369.893	10.28
370.256	10.17
370.619	10.08
370.982	9.96
371.345	9.84
371.708	9.7
372.071	9.55
372.434	9.51
372.797	9.35
373.159	9.28
373.522	9.27
373.885	9.28
374.247	9.22
374.61	9.13
374.973	9.05
375.335	8.9
375.698	8.83
376.06	8.74
376.423	8.67
376.785	8.66
377.147	8.62
377.51	8.61
377.872	8.58
378.234	8.5
378.596	8.44
378.958	8.37
379.321	8.35
379.683	8.33
380.045	8.22
380.407	8.19
380.769	8.1
381.13	7.98
381.492	7.87
381.854	7.82
382.216	7.75
382.578	7.65
382.939	7.6
383.301	7.52
383.663	7.45
384.024	7.36
384.386	7.31
384.747	7.23
385.109	7.17
385.47	7.07
385.832	7.03
386.193	6.99
386.554	6.93
386.916	6.84
387.277	6.8
387.638	6.77
387.999	6.72
388.36	6.65
388.721	6.63
389.082	6.6
389.443	6.54
389.804	6.47
390.165	6.46
390.526	6.43
390.887	6.38
391.248	6.37
391.609	6.3
391.969	6.25
392.33	6.22
392.691	6.16
393.051	6.11
393.412	6.05
393.772	5.96
394.133	5.89
394.493	5.85
394.854	5.79
395.214	5.76
395.574	5.71
395.935	5.65
396.295	5.64
396.655	5.56
397.015	5.54
397.376	5.52
397.736	5.44
398.096	5.4
398.456	5.38
398.816	5.34
399.176	5.32
399.535	5.27
399.895	5.23
400.255	5.2
400.615	5.18
400.975	5.13
401.334	5.12
401.694	5.09
402.054	5.05
402.413	5.02
402.773	4.92
403.132	4.87
403.492	4.86
403.851	4.8
404.211	4.82
404.57	4.79
404.929	4.77
405.288	4.76
405.648	4.71
406.007	4.68
406.366	4.65
406.725	4.66
407.084	4.64
407.443	4.61
407.802	4.6
408.161	4.6
408.52	4.58
408.879	4.57
409.238	4.55
409.596	4.53
409.955	4.5
410.314	4.5
410.673	4.49
411.031	4.48
411.39	4.46
411.748	4.41
412.107	4.39
412.465	4.34
412.824	4.35
413.182	4.32
413.54	4.27
413.899	4.22
414.257	4.17
414.615	4.16
414.974	4.14
415.332	4.09
415.69	4.03
416.048	3.99
416.406	3.95
416.764	3.92
417.122	3.9
417.48	3.88
417.838	3.89
418.195	3.88
418.553	3.86
418.911	3.84
419.269	3.81
419.626	3.78
419.984	3.76
420.342	3.73
420.699	3.7
421.057	3.7
421.414	3.69
421.772	3.69
422.129	3.65
422.486	3.64
422.844	3.62
423.201	3.62
423.558	3.6
423.915	3.6
424.273	3.6
424.63	3.59
424.987	3.58
425.344	3.56
425.701	3.54
426.058	3.52
426.415	3.51
426.772	3.5
427.128	3.49
427.485	3.49
427.842	3.49
428.199	3.5
428.555	3.49
428.912	3.49
429.269	3.48
429.625	3.47
429.982	3.44
430.338	3.45
430.695	3.45
431.051	3.44
431.407	3.44
431.764	3.43
432.12	3.41
432.476	3.4
432.832	3.36
433.189	3.37
433.545	3.37
433.901	3.37
434.257	3.38
434.613	3.39
434.969	3.39
435.325	3.36
435.681	3.37
436.036	3.36
436.392	3.35
436.748	3.33
437.104	3.35
437.459	3.34
437.815	3.33
438.171	3.33
438.526	3.35
438.882	3.34
439.237	3.36
439.593	3.37
439.948	3.37
440.304	3.38
440.659	3.38
441.014	3.38
441.369	3.37
441.725	3.35
442.08	3.35
442.435	3.33
442.79	3.34
443.145	3.33
443.5	3.33
443.855	3.34
444.21	3.34
444.565	3.32
444.92	3.32
445.275	3.3
445.629	3.29
445.984	3.27
446.339	3.26
446.693	3.22
447.048	3.2
447.403	3.19
447.757	3.18
448.112	3.17
448.466	3.15
448.82	3.15
449.175	3.14
449.529	3.14
449.883	3.13
450.238	3.11
450.592	3.1
450.946	3.08
451.3	3.05
451.654	3.03
452.008	3.04
452.362	3.03
452.716	3.04
453.07	3.04
453.424	3.04
453.778	3.04
454.132	3.05
454.486	3.03
454.839	3.02
455.193	3.02
455.547	3.01
455.9	3.03
456.254	3.03
456.607	3.02
456.961	3.03
457.314	3.04
457.668	3.05
458.021	3.06
458.375	3.07
458.728	3.08
459.081	3.09
459.434	3.09
459.787	3.1
460.141	3.11
460.494	3.1
460.847	3.11
461.2	3.09
461.553	3.09
461.906	3.1
462.259	3.13
462.611	3.14
462.964	3.15
463.317	3.15
463.67	3.17
464.022	3.17
464.375	3.16
464.728	3.17
465.08	3.16
465.433	3.18
465.785	3.19
466.138	3.2
466.49	3.23
466.843	3.22
467.195	3.24
467.547	3.25
467.899	3.26
468.252	3.25
468.604	3.28
468.956	3.28
469.308	3.3
469.66	3.3
470.012	3.31
470.364	3.3
470.716	3.33
471.068	3.31
471.42	3.31
471.772	3.32
472.123	3.34
472.475	3.36
472.827	3.35
473.178	3.34
473.53	3.32
473.882	3.31
474.233	3.33
474.585	3.31
474.936	3.28
475.288	3.29
475.639	3.32
475.99	3.32
476.342	3.33
476.693	3.32
477.044	3.32
477.395	3.31
477.746	3.3
478.097	3.29
478.448	3.31
478.8	3.31
479.15	3.32
479.501	3.31
479.852	3.32
480.203	3.32
480.554	3.33
480.905	3.34
481.255	3.33
481.606	3.33
481.957	3.34
482.307	3.35
482.658	3.35
483.009	3.34
483.359	3.34
483.709	3.35
484.06	3.36
484.41	3.36
484.761	3.36
485.111	3.37
485.461	3.38
485.811	3.37
486.162	3.38
486.512	3.39
486.862	3.39
487.212	3.39
487.562	3.41
487.912	3.41
488.262	3.42
488.612	3.43
488.961	3.44
489.311	3.46
489.661	3.47
490.011	3.48
490.36	3.49
490.71	3.5
491.06	3.51
491.409	3.52
491.759	3.54
492.108	3.56
492.458	3.57
492.807	3.58
493.157	3.61
493.506	3.64
493.855	3.67
494.204	3.69
494.554	3.72
494.903	3.72
495.252	3.73
495.601	3.77
495.95	3.81
496.299	3.84
496.648	3.87
496.997	3.9
497.346	3.96
497.695	3.99
498.043	4.03
498.392	4.06
498.741	4.09
499.09	4.13
499.438	4.16
499.787	4.2
500.135	4.25
500.484	4.31
500.832	4.33
501.181	4.37
501.529	4.42
501.878	4.47
502.226	4.54
502.574	4.61
502.923	4.65
503.271	4.69
503.619	4.76
503.967	4.82
504.315	4.87
504.663	4.93
505.011	5.02
505.359	5.08
505.707	5.15
506.055	5.21
506.403	5.29
506.751	5.38
507.098	5.45
507.446	5.54
507.794	5.6
508.141	5.69
508.489	5.76
508.837	5.84
509.184	5.92
509.531	6.04
509.879	6.13
510.226	6.23
510.574	6.33
510.921	6.41
511.268	6.5
511.616	6.61
511.963	6.7
512.31	6.8
512.657	6.94
513.004	7.06
513.351	7.21
513.698	7.34
514.045	7.46
514.392	7.6
514.739	7.73
515.086	7.89
515.432	8.06
515.779	8.2
516.126	8.33
516.473	8.48
516.819	8.6
517.166	8.74
517.512	8.88
517.859	9
518.205	9.12
518.552	9.26
518.898	9.38
519.245	9.53
519.591	9.66
519.937	9.78
520.283	9.93
520.629	10.07
520.976	10.23
521.322	10.4
521.668	10.59
522.014	10.78
522.36	10.98
522.706	11.16
523.052	11.38
523.398	11.64
523.743	11.88
524.089	12.13
524.435	12.37
524.781	12.6
525.126	12.83
525.472	13.05
525.817	13.24
526.163	13.4
526.509	13.57
526.854	13.73
527.199	13.91
527.545	14.05
527.89	14.21
528.235	14.37
528.581	14.55
528.926	14.71
529.271	14.89
529.616	15.06
529.961	15.24
530.306	15.43
530.651	15.61
530.996	15.8
531.341	16.01
531.686	16.22
532.031	16.44
532.376	16.66
532.721	16.9
533.065	17.16
533.41	17.44
533.755	17.69
534.099	17.96
534.444	18.23
534.788	18.49
535.133	18.76
535.477	19.05
535.822	19.35
536.166	19.6
536.51	19.91
536.855	20.24
537.199	20.6
537.543	20.96
537.887	21.32
538.231	21.68
538.576	22.07
538.92	22.44
539.264	22.77
539.608	23.09
539.951	23.39
540.295	23.7
540.639	23.96
540.983	24.24
541.327	24.52
541.671	24.77
542.014	25.05
542.358	25.32
542.701	25.55
543.045	25.8
543.389	26.12
543.732	26.38
544.075	26.64
544.419	26.89
544.762	27.17
545.105	27.47
545.449	27.77
545.792	28.08
546.135	28.35
546.478	28.68
546.821	29.04
547.165	29.37
547.508	29.7
547.851	30.05
548.194	30.4
548.536	30.73
548.879	31.05
549.222	31.35
549.565	31.73
549.908	32.04
550.25	32.35
550.593	32.66
550.936	32.96
551.278	33.3
551.621	33.65
551.963	33.97
552.306	34.28
552.648	34.49
552.991	34.77
553.333	35.11
553.675	35.39
554.017	35.63
554.36	35.91
554.702	36.16
555.044	36.38
555.386	36.67
555.728	36.96
556.07	37.3
556.412	37.58
556.754	37.83
557.096	38.14
557.438	38.39
557.78	38.68
558.121	39.02
558.463	39.26
558.805	39.51
559.147	39.78
559.488	39.99
559.83	40.3
560.171	40.51
560.513	40.67
560.854	40.89
561.196	41.15
561.537	41.37
561.878	41.61
562.22	41.83
562.561	41.99
562.902	42.19
563.243	42.33
563.584	42.52
563.925	42.7
564.266	42.78
564.607	42.98
564.948	43.09
565.289	43.23
565.63	43.42
565.971	43.56
566.312	43.74
566.653	43.92
566.993	44.07
567.334	44.21
567.675	44.39
568.015	44.57
568.356	44.7
568.696	44.82
569.037	44.92
569.377	45.11
569.718	45.33
570.058	45.48
570.398	45.69
570.739	45.89
571.079	45.99
571.419	46.14
571.759	46.26
572.099	46.37
572.439	46.55
572.779	46.64
573.119	46.77
573.459	46.85
573.799	46.96
574.139	47.1
574.479	47.26
574.819	47.37
575.158	47.54
575.498	47.66
575.838	47.8
576.177	47.94
576.517	47.98
576.856	48.01
577.196	48.07
577.535	48.12
577.875	48.2
578.214	48.34
578.553	48.52
578.893	48.62
579.232	48.76
579.571	48.8
579.91	48.87
580.25	48.95
580.589	49
580.928	49.09
581.267	49.15
581.606	49.21
581.945	49.26
582.283	49.25
582.622	49.32
582.961	49.39
583.3	49.51
583.639	49.64
583.977	49.8
584.316	49.85
584.654	50
584.993	50.08
585.332	50.2
585.67	50.25
586.008	50.39
586.347	50.49
586.685	50.61
587.024	50.73
587.362	50.84
587.7	50.98
588.038	51.08
588.376	51.15
588.715	51.23
589.053	51.31
589.391	51.4
589.729	51.41
590.067	51.48
590.404	51.53
590.742	51.64
591.08	51.69
591.418	51.83
591.756	51.85
592.093	51.86
592.431	51.9
592.769	51.94
593.106	52.02
593.444	52
593.781	52.01
594.119	52.05
594.456	52.05
594.793	52.12
595.131	52.11
595.468	52.16
595.805	52.23
596.143	52.31
596.48	52.3
596.817	52.37
597.154	52.37
597.491	52.43
597.828	52.47
598.165	52.5
598.502	52.54
598.839	52.57
599.176	52.64
599.512	52.7
599.849	52.68
600.186	52.69
600.523	52.83
600.859	52.96
601.196	53.02
601.532	53.08
601.869	53.12
602.205	53.22
602.542	53.28
602.878	53.26
603.215	53.27
603.551	53.33
603.887	53.42
604.223	53.5
604.56	53.58
604.896	53.59
605.232	53.6
605.568	53.65
605.904	53.66
606.24	53.69
606.576	53.74
606.912	53.85
607.248	53.89
607.583	53.9
607.919	53.9
608.255	53.94
608.591	54.02
608.926	54.08
609.262	54.14
609.597	54.15
609.933	54.25
610.268	54.35
610.604	54.4
610.939	54.34
611.275	54.33
611.61	54.35
611.945	54.37
612.281	54.47
612.616	54.52
612.951	54.69
613.286	54.73
613.621	54.75
613.956	54.83
614.291	54.86
614.626	54.9
614.961	54.94
615.296	54.97
615.631	54.97
615.966	54.96
616.3	54.95
616.635	54.97
616.97	55
617.304	54.93
617.639	54.98
617.973	55.11
618.308	55.21
618.642	55.19
618.977	55.2
619.311	55.16
619.646	55.13
619.98	55.13
620.314	55.17
620.648	55.16
620.983	55.15
621.317	55.15
621.651	55.21
621.985	55.29
622.319	55.33
622.653	55.38
622.987	55.41
623.321	55.4
623.655	55.5
623.988	55.41
624.322	55.42
624.656	55.46
624.99	55.4
625.323	55.39
625.657	55.5
625.99	55.64
626.324	55.73
626.657	55.8
626.991	55.75
627.324	55.8
627.658	55.88
627.991	55.87
628.324	55.91
628.657	55.89
628.991	55.92
629.324	55.99
629.657	55.97
629.99	55.97
630.323	56.04
630.656	56.02
630.989	56.08
631.322	56.16
631.655	56.16
631.987	56.27
632.32	56.27
632.653	56.17
632.986	56.05
633.318	55.97
633.651	55.91
633.984	55.93
634.316	55.95
634.649	55.99
634.981	56.05
635.313	56.05
635.646	56.11
635.978	56.09
636.31	56.07
636.643	56.05
636.975	56.06
637.307	56.06
637.639	56
637.971	56.13
638.303	56.06
638.635	56.02
638.967	56.02
639.299	56.02
639.631	56.03
639.963	56.08
640.295	56.12
640.626	56.09
640.958	56.08
641.29	56.03
641.621	55.93
641.953	55.87
642.285	55.87
642.616	55.9
642.948	55.85
643.279	55.9
643.61	55.92
643.942	55.95
644.273	55.89
644.604	56.07
644.936	55.95
645.267	56.09
645.598	56.2
645.929	56.23
646.26	56.34
646.591	56.5
646.922	56.44
647.253	56.42
647.584	56.58
647.915	56.62
648.245	56.72
648.576	56.83
648.907	56.97
649.238	56.98
649.568	56.98
649.899	56.94
650.229	56.76
650.56	56.82
650.89	56.81
651.221	56.97
651.551	56.92
651.882	57.05
652.212	57.05
652.542	57.1
652.872	56.94
653.203	56.84
653.533	56.75
653.863	56.85
654.193	56.94
654.523	56.97
654.853	57.09
655.183	57.04
655.513	57.04
655.843	56.99
656.172	56.87
656.502	56.83
656.832	56.83
657.162	56.93
657.491	56.92
657.821	56.93
658.15	56.84
658.48	56.82
658.809	56.74
659.139	56.68
659.468	56.61
659.798	56.72
660.127	56.81
660.456	56.86
660.785	56.89
661.115	56.92
661.444	56.88
661.773	56.82
662.102	56.8
662.431	56.81
662.76	56.87
663.089	57.12
663.418	57.08
663.747	57.14
664.076	57.1
664.404	57.15
664.733	57.22
665.062	57.23
665.39	57.32
665.719	57.34
666.048	57.46
666.376	57.52
666.705	57.6
667.033	57.52
667.362	57.47
667.69	57.5
668.018	57.49
668.347	57.52
668.675	57.51
669.003	57.54
669.331	57.5
669.659	57.42
669.987	57.36
670.315	57.44
670.643	57.4
670.971	57.5
671.299	57.49
671.627	57.4
671.955	57.53
672.283	57.56
672.61	57.57
672.938	57.62
673.266	57.65
673.593	57.52
673.921	57.59
674.249	57.61
674.576	57.52
674.904	57.49
675.231	57.45
675.558	57.52
675.886	57.55
676.213	57.59
676.54	57.56
676.867	57.57
677.195	57.62
677.522	57.67
677.849	57.78
678.176	57.89
678.503	57.97
678.83	57.89
679.157	57.75
679.484	57.74
679.81	57.58
680.137	57.56
680.464	57.59
680.791	57.55
681.117	57.49
681.444	57.51
681.771	57.52
682.097	57.51
682.424	57.47
682.75	57.37
683.077	57.4
683.403	57.5
683.729	57.55
684.056	57.53
684.382	57.45
684.708	57.38
685.034	57.22
685.36	57.21
685.686	57.21
686.012	57.34
686.339	57.46
686.664	57.55
686.99	57.55
687.316	57.55
687.642	57.63
687.968	57.63
688.294	57.68
688.619	57.7
688.945	57.74
689.271	57.67
689.596	57.62
689.922	57.69
690.247	57.55
690.573	57.51
690.898	57.59
691.224	57.82
691.549	57.84
691.874	57.86
692.2	57.87
692.525	57.99
692.85	58.03
693.175	57.83
693.5	57.88
693.825	57.99
694.15	57.89
694.475	57.92
694.8	58
695.125	57.92
695.45	57.82
695.775	57.81
696.099	57.8
696.424	57.97
696.749	57.78
697.073	57.8
697.398	57.7
697.723	57.7
698.047	57.68
698.372	57.58
698.696	57.57
699.02	57.55
699.345	57.44
699.669	57.46
699.993	57.47
700.318	57.44
700.642	57.38
700.966	57.48
701.29	57.43
701.614	57.42
701.938	57.53
702.262	57.69
702.586	57.66
702.91	57.71
703.234	57.6
703.557	57.67
703.881	57.77
704.205	57.92
704.529	57.79
704.852	57.68
705.176	57.79
705.499	57.74
705.823	57.62
706.146	57.6
706.47	57.3
706.793	57.46
707.117	57.5
707.44	57.4
707.763	57.44
708.086	57.53
708.409	57.61
708.733	57.64
709.056	57.42
709.379	57.66
709.702	57.67
710.025	57.82
710.348	57.74
710.671	57.71
710.993	57.58
711.316	57.55
711.639	57.71
711.962	57.66
712.284	57.89
712.607	58.06
712.93	58.11
713.252	58.33
713.575	58.34
713.897	58.46
714.22	58.36
714.542	58.39
714.864	58.27
715.187	58.07
715.509	58
715.831	58.06
716.153	57.92
716.475	57.98
716.798	57.89
717.12	58.06
717.442	58.09
717.764	58.15
718.085	58.22
718.407	58.02
718.729	57.9
719.051	57.86
719.373	57.71
719.695	57.68
720.016	57.66
720.338	57.63
720.659	57.42
720.981	57.68
721.302	57.51
721.624	57.49
721.945	57.59
722.267	57.49
722.588	57.42
722.909	57.34
723.231	57.32
723.552	57.3
723.873	57.21
724.194	57.21
724.515	57.28
724.836	57.53
725.157	57.66
725.478	57.75
725.799	57.5
726.12	57.58
726.441	57.33
726.762	57.23
727.083	57.3
727.403	57.39
727.724	57.36
728.045	57.61
728.365	57.76
728.686	57.82
729.006	57.91
729.327	58
729.647	57.93
729.967	57.95
730.288	58.06
730.608	58.14
730.928	58.2
731.249	58.28
731.569	58.01
731.889	58.04
732.209	58.32
732.529	58.4
732.849	58.37
733.169	58.59
733.489	58.61
733.809	58.43
734.129	58.33
734.448	58.48
734.768	58.29
735.088	58.33
735.408	58.38
735.727	58.24
736.047	58.52
736.366	58.51
736.686	58.38
737.005	58.38
737.325	58.33
737.644	58
737.963	57.67
738.283	57.73
738.602	57.77
738.921	57.58
739.24	57.55
739.56	57.74
739.879	57.59
740.198	57.66
740.517	57.66
740.836	57.66
741.155	57.41
741.473	57.54
741.792	57.48
742.111	57.51
742.43	57.86
742.748	57.36
743.067	57.46
743.386	57.51
743.704	57.54
744.023	57.59
744.341	57.96
744.66	58.13
744.978	58.24
745.297	58.17
745.615	58.11
745.933	58.34
746.252	58.12
746.57	58.17
746.888	58.02
747.206	58.15
747.524	58.27
747.842	58.32
748.16	58.22
748.478	58.12
748.796	58.04
749.114	57.9
749.432	57.9
749.749	57.97
750.067	58.3
750.385	58.27
750.703	58.3
751.02	58.11
751.338	58.2
751.655	58.03
751.973	57.95
752.29	58.03
752.608	57.76
752.925	57.95
753.242	58.41
753.56	58.3
753.877	58.16
754.194	57.93
754.511	58.04
754.828	57.97
755.145	57.76
755.462	57.98
755.779	57.76
756.096	57.74
756.413	57.78
756.73	58.05
757.047	58.21
757.364	58.05
757.68	58.14
757.997	58.26
758.314	58.23
758.63	58.24
758.947	58.19
759.264	58.13
759.58	57.84
759.896	57.38
760.213	57.42
760.529	57.57
760.846	57.74
761.162	57.78
761.478	57.73
761.794	58.25
762.11	58.03
762.426	58.24
762.743	58.48
763.059	58.49
763.375	58.06
763.69	57.79
764.006	57.81
764.322	57.79
764.638	57.68
764.954	57.73
765.27	57.51
765.585	57.57
765.901	57.89
766.216	57.93
766.532	58.02
766.848	58.1
767.163	57.99
767.478	58.06
767.794	57.92
768.109	58.29
768.424	57.81
768.74	57.69
769.055	57.62
769.37	57.43
769.685	57.18
770	57.36
770.315	57.68
770.63	57.79
770.945	57.83
771.26	57.85
771.575	57.94
771.89	58.23
772.205	58.13
772.52	57.9
772.834	58.02
773.149	58.2
773.464	58.33
773.778	58.48
774.093	57.95
774.407	58.4
774.722	58.1
775.036	58.2
775.351	58.6
775.665	58.82
775.979	59.13
776.293	59.19
776.608	58.45
776.922	58.16
777.236	58.3
777.55	58
777.864	58.35
778.178	57.87
778.492	57.83
778.806	57.49
779.12	57.63
779.434	57.65
779.747	57.94
780.061	57.84
780.375	57.75
780.689	58.53
781.002	58.14
781.316	58.2
781.629	58.37
781.943	58.64
782.256	58.46
782.57	58.46
782.883	58.05
783.196	58.7
783.51	58.77
783.823	58.68
784.136	58.65
784.449	58.15
784.762	58.74
785.075	59.02
785.388	59.32
785.701	59.24
786.014	59.45
786.327	58.68
786.64	58.83
786.953	59.09
787.266	58.57
787.578	58.54
787.891	58.89
788.204	58.87
788.516	58.59
788.829	58.36
789.141	58.28
789.454	59.02
789.766	58.81
790.079	58.64
790.391	58.91
790.703	59.01
791.016	59.19
791.328	58.79
791.64	58.63
791.952	58.47
792.264	58.23
792.576	57.94
792.888	59.14
793.2	59.28
793.512	59.14
793.824	59.44
794.136	58.72
794.448	58.15
794.76	58.1
795.071	58.05
795.383	57.71
795.695	58.08
796.006	58.04
796.318	58.09
796.629	58.5
796.941	58
797.252	58.53
797.564	58.12
797.875	58.8
798.186	58.87
798.497	59.11
798.809	59.34
799.12	58.85
799.431	57.84
799.742	57.32
800.053	57.43
800.364	57.52
800.675	58.03
800.986	58.41
801.297	58.64
801.608	58.32
801.918	58.73
802.229	58.26
802.54	58.15
802.851	57.93
803.161	57.81
803.472	58.05
803.782	57.62
804.093	57.94
804.403	57.79
804.714	57.54
805.024	57.36
805.334	57.37
805.645	58.45
805.955	58.8
806.265	59.29
806.575	59.08
806.885	59.34
807.195	59.33
807.505	59.59
807.815	59.79
808.125	59.4
808.435	60.26
808.745	59.93
809.055	59.86
809.365	59.68
809.674	59.41
809.984	59.57
810.294	59.87
810.603	60.49
810.913	60.81
811.222	61.15
811.532	61.67
811.841	61.35
812.151	61.07
812.46	60.79
812.769	60.53
813.079	60.32
813.388	59.52
813.697	59.38
814.006	58.58
814.315	58.15
814.624	58.77
814.933	58.28
815.242	58.74
815.551	58.58
815.86	59.18
816.169	59.25
816.478	59.62
816.786	59.4
817.095	58.83
817.404	58.03
817.712	57.49
818.021	56.84
818.33	57.12
818.638	57.07
818.947	57.81
819.255	58.01
819.563	58.19
819.872	58.19
820.18	58.56
820.488	58.87
820.796	59.07
821.105	59.08
821.413	59.26
821.721	59.22
822.029	59.5
822.337	59.38
822.645	59.63
822.953	59.15
823.26	58.99
823.568	58.96
823.876	59.11
824.184	59.02
824.491	59.09
824.799	59.06
825.107	59
825.414	59.05
825.722	59.09
826.029	59.07
826.337	59.14
826.644	59.05
826.951	58.91
827.259	58.9
827.566	58.84
827.873	58.56
828.18	58.4
828.488	58.15
828.795	58.24
829.102	57.82
829.409	58.15
829.716	58.34
830.023	58.3
830.329	58.29
830.636	58.79
830.943	58.82
831.25	58.94
831.557	58.78
831.863	58.47
832.17	58.22
832.476	58.22
832.783	58.3
833.089	58.16
833.396	58.42
833.702	58.34
834.009	58.35
834.315	58.6
834.621	58.83
834.928	58.96
835.234	58.75
835.54	58.76
835.846	58.62
836.152	58.59
836.458	58.51
836.764	58.3
837.07	57.94
837.376	57.8
837.682	57.51
837.988	57.68
838.293	57.33
838.599	57.52
838.905	57.96
839.211	58.12
839.516	58.35
839.822	58.06
840.127	57.96
840.433	57.86
840.738	58.22
841.044	57.46
841.349	56.98
841.654	57.46
841.959	57.44
842.265	58.27
842.57	59.01
842.875	59.82
843.18	60.14
843.485	60.18
843.79	60.57
844.095	61.7
844.4	62.07
844.705	62.44
845.01	61.72
845.315	60.33
845.619	59.69
845.924	59.56
846.229	59.84
846.533	59.42
846.838	59.07
847.142	56.36
847.447	56.97
847.751	57.29
848.056	58.04
848.36	58.95
848.664	57.66
848.969	56.09
849.273	56.96
849.577	56.87
849.881	57.26
850.185	57.59
850.489	57.01
850.794	55.28
851.097	54.36
851.401	52.74
851.705	53.22
852.009	53.87
852.313	53.72
852.617	52.26
852.92	52.81
853.224	52.01
853.528	53.54
853.831	53.38
854.135	51.46
854.438	50.24
854.742	49.53
855.045	49.03
855.349	48.12
855.652	46.22
855.955	45.7
856.259	44.15
856.562	44.71
856.865	43.6
857.168	43.3
857.471	44.53
857.774	46.04
858.077	47.33
858.38	46.3
858.683	46.27
858.986	47.81
859.289	45.5
859.592	48.29
859.894	48.87
860.197	49.27
860.5	51.62
860.802	51.21
861.105	50.49
861.407	50.85
861.71	51.9
862.012	51.65
862.315	50.13
862.617	50.16
862.919	50.48
863.222	49.68
863.524	50.94
863.826	52.18
864.128	54.13
864.43	52.82
864.732	53.29
865.034	54.65
865.336	53.15
865.638	54.29
865.94	52.55
866.242	53.41
866.544	53.77
866.846	50.88
867.147	50.79
867.449	51.76
867.751	52.09
868.052	53.65
868.354	51.53
868.655	51.92
868.957	51.92
869.258	50.88
869.56	52.46
869.861	52.88
870.162	51.31
870.463	49.68
870.765	49.39
871.066	51.22
871.367	50
871.668	50.78
871.969	49.82
872.27	49.33
872.571	48.71
872.872	49.32
873.173	52.5
873.473	54.15
873.774	54.34
874.075	54.15
874.376	52.25
874.676	52.83
874.977	52.25
875.277	53
875.578	53.01
875.878	52.42
876.179	52.81
876.479	52.69
876.78	53.1
877.08	53.7
877.38	51.6
877.68	51.21
877.981	51.83
878.281	53.8
878.581	56.26
