Data from BA57750_Reflection_00015.txt Node
Date: Mon Nov 18 15:47:37 EST 2019
User: vgr7
Spectrometer: USB2G7710
Scans to average: 3
Trigger mode: 4
Integration Time (sec): 2.000000E-2
Electric dark correction enabled: true
Boxcar width: 10
XAxis mode: Wavelengths
Number of Pixels in Spectrum: 2048
>>>>>Begin Spectral Data<<<<<
177.721	29.51
178.105	62.15
178.488	886.89
178.871	-126.65
179.254	-25.73
179.636	-93.01
180.019	-95.58
180.402	150
180.785	-24.86
181.168	-32.49
181.55	48.79
181.933	88.21
182.316	100
182.698	120.4
183.081	134.58
183.463	189.73
183.846	342.88
184.228	360.55
184.611	452.45
184.993	330.5
185.376	569.82
185.758	581.09
186.14	593.74
186.522	409.99
186.904	219.38
187.287	182.8
187.669	339.77
188.051	251.65
188.433	450.61
188.815	791.87
189.197	37023.08
189.579	3595.65
189.961	21573.68
190.342	9867.44
190.724	-561.83
191.106	-453.95
191.488	-731.12
191.869	-786.51
192.251	-564.32
192.633	-221.18
193.014	-195.14
193.396	-347.5
193.777	-256.73
194.159	-283.81
194.54	-323.04
194.922	-258.42
195.303	-116.36
195.684	-117.6
196.065	-54.17
196.447	-64.38
196.828	-71.37
197.209	-48.25
197.59	-41.4
197.971	-45.56
198.352	-25.4
198.733	-30.95
199.114	-27.02
199.495	-36.46
199.876	-45.94
200.257	-48.41
200.638	-50.53
201.018	-53.99
201.399	-35.53
201.78	-45.17
202.16	-57.48
202.541	-64.02
202.922	-77.69
203.302	-100.88
203.683	-120.48
204.063	-145.36
204.444	-128.9
204.824	-129.67
205.204	-150.99
205.585	-166.5
205.965	-129.16
206.345	-186.35
206.725	-174
207.106	-194.1
207.486	-266.57
207.866	-246.01
208.246	-233.46
208.626	-203.77
209.006	-175.5
209.386	-235.51
209.766	-287.71
210.145	-342.78
210.525	-286.93
210.905	-255.59
211.285	-351.73
211.664	-307.48
212.044	-462.87
212.424	-352.71
212.803	-287.66
213.183	-248.91
213.562	-273.59
213.942	-246.85
214.321	-162.55
214.701	-159.04
215.08	-189.84
215.459	-173.96
215.838	-165.11
216.218	-144.05
216.597	-127.26
216.976	-144.55
217.355	-113.43
217.734	-93.2
218.113	-85.62
218.492	-83.68
218.871	-77.51
219.25	-66.96
219.629	-75.54
220.008	-72.27
220.387	-95.72
220.766	-99.41
221.144	-109.68
221.523	-107.52
221.902	-118.48
222.28	-165.99
222.659	-182.93
223.037	-149.66
223.416	-125.61
223.794	-142.03
224.173	-133.1
224.551	-121.27
224.929	-91.97
225.308	-75.56
225.686	-62.39
226.064	-55.97
226.442	-53.96
226.821	-51.61
227.199	-49.05
227.577	-42.26
227.955	-36.96
228.333	-28.94
228.711	-26.46
229.089	-23.56
229.467	-26.71
229.845	-27.76
230.222	-22.58
230.6	-21.52
230.978	-19.99
231.356	-18.29
231.733	-15.84
232.111	-12.41
232.488	-11.09
232.866	-11.49
233.243	-10.85
233.621	-12.78
233.998	-10.99
234.376	-12.46
234.753	-10.56
235.13	-10.25
235.508	-9.43
235.885	-10.72
236.262	-11.22
236.639	-9.75
237.016	-10.46
237.393	-7.01
237.77	-4.48
238.147	-4.84
238.524	-3.63
238.901	-2.79
239.278	-2.5
239.655	-0.85
240.032	-0.99
240.409	-1.32
240.785	-1.09
241.162	-1.02
241.539	-0.24
241.915	-0.28
242.292	-0.33
242.668	0.17
243.045	0.63
243.421	0.61
243.798	1.12
244.174	0.95
244.551	0.91
244.927	1.03
245.303	1.03
245.679	0.74
246.056	0.85
246.432	1.01
246.808	1.07
247.184	0.84
247.56	0.41
247.936	0.63
248.312	0.62
248.688	0.58
249.064	0.41
249.44	0.24
249.815	0.39
250.191	0.69
250.567	0.53
250.943	0.5
251.318	0.63
251.694	0.48
252.069	0.59
252.445	0.67
252.82	0.71
253.196	0.35
253.571	0.24
253.947	0.25
254.322	-0.07
254.697	-0.34
255.073	-0.19
255.448	-0.18
255.823	-0.32
256.198	0.02
256.573	0.31
256.948	0.85
257.323	1.12
257.698	1.38
258.073	1.35
258.448	1.4
258.823	1.39
259.198	1.26
259.573	1.52
259.948	1.52
260.322	1.57
260.697	1.59
261.072	1.69
261.446	1.72
261.821	1.56
262.195	1.66
262.57	1.69
262.944	1.87
263.319	1.98
263.693	1.92
264.067	1.84
264.442	1.86
264.816	1.79
265.19	1.78
265.564	1.6
265.938	1.56
266.313	1.58
266.687	1.57
267.061	1.67
267.435	1.44
267.809	1.52
268.183	1.37
268.556	1.31
268.93	1.33
269.304	1.59
269.678	1.88
270.051	1.91
270.425	2.06
270.799	1.91
271.172	1.79
271.546	1.82
271.919	1.81
272.293	1.79
272.666	1.72
273.04	1.75
273.413	1.75
273.787	1.68
274.16	1.59
274.533	1.63
274.906	1.58
275.279	1.59
275.653	1.68
276.026	1.7
276.399	1.68
276.772	1.84
277.145	1.66
277.518	1.57
277.891	1.68
278.263	1.57
278.636	1.65
279.009	1.76
279.382	1.91
279.755	1.97
280.127	2.07
280.5	2.03
280.872	2.16
281.245	2.21
281.617	2.31
281.99	2.56
282.362	2.45
282.735	2.35
283.107	2.54
283.479	2.5
283.852	2.48
284.224	2.55
284.596	2.37
284.968	2.45
285.34	2.52
285.713	2.39
286.085	2.51
286.457	2.48
286.829	2.68
287.201	2.56
287.572	2.51
287.944	2.38
288.316	2.35
288.688	2.24
289.06	2.18
289.431	2.33
289.803	2.13
290.175	2.18
290.546	2.54
290.918	2.4
291.289	2.41
291.661	2.45
292.032	2.57
292.403	2.69
292.775	2.85
293.146	2.88
293.517	2.99
293.889	3.04
294.26	3.08
294.631	3.01
295.002	3.01
295.373	3.09
295.744	3.23
296.115	3.34
296.486	3.33
296.857	3.4
297.228	3.38
297.599	3.45
297.97	3.55
298.34	3.31
298.711	3.47
299.082	3.5
299.452	3.57
299.823	3.62
300.194	3.68
300.564	3.55
300.935	3.48
301.305	3.3
301.676	3.28
302.046	3.21
302.416	3.35
302.787	3.47
303.157	3.55
303.527	3.48
303.897	3.52
304.267	3.66
304.637	3.75
305.008	3.82
305.378	3.91
305.748	3.86
306.117	4
306.487	3.85
306.857	3.94
307.227	4.08
307.597	3.93
307.967	4.01
308.336	4.1
308.706	4.19
309.076	4.33
309.445	4.24
309.815	4.36
310.184	4.25
310.554	4.31
310.923	4.3
311.293	4.31
311.662	4.35
312.031	4.33
312.401	4.42
312.77	4.35
313.139	4.36
313.508	4.38
313.877	4.37
314.246	4.53
314.616	4.51
314.985	4.47
315.353	4.58
315.722	4.52
316.091	4.39
316.46	4.35
316.829	4.45
317.198	4.46
317.567	4.47
317.935	4.5
318.304	4.73
318.672	4.77
319.041	4.93
319.41	4.97
319.778	5.04
320.147	5.05
320.515	5.17
320.883	5.14
321.252	5.21
321.62	5.38
321.988	5.33
322.357	5.36
322.725	5.37
323.093	5.49
323.461	5.66
323.829	5.87
324.197	6.05
324.565	6.08
324.933	6.21
325.301	6.31
325.669	6.37
326.037	6.29
326.405	6.41
326.772	6.41
327.14	6.57
327.508	6.57
327.875	6.5
328.243	6.54
328.61	6.7
328.978	6.88
329.346	6.9
329.713	6.93
330.08	7.02
330.448	7.1
330.815	7.05
331.182	7.04
331.55	7.15
331.917	7.12
332.284	7.19
332.651	7.19
333.018	7.2
333.385	7.36
333.752	7.42
334.119	7.57
334.486	7.52
334.853	7.36
335.22	7.38
335.587	7.58
335.954	7.66
336.32	7.65
336.687	7.64
337.054	7.67
337.42	7.72
337.787	7.76
338.153	7.72
338.52	7.93
338.886	7.95
339.253	7.89
339.619	7.9
339.986	7.96
340.352	8.02
340.718	8.14
341.084	8.11
341.451	8.17
341.817	8.15
342.183	8.3
342.549	8.32
342.915	8.34
343.281	8.12
343.647	8.08
344.013	8.15
344.379	8.11
344.745	8.14
345.11	8.19
345.476	8.22
345.842	8.35
346.208	8.25
346.573	8.29
346.939	8.3
347.304	8.26
347.67	8.32
348.035	8.33
348.401	8.28
348.766	8.22
349.132	8.2
349.497	8.16
349.862	8.18
350.228	8.23
350.593	8.21
350.958	8.22
351.323	8.29
351.688	8.25
352.053	8.27
352.418	8.27
352.783	8.25
353.148	8.16
353.513	8.16
353.878	8.18
354.243	8.18
354.608	8.22
354.972	8.24
355.337	8.19
355.702	8.27
356.066	8.29
356.431	8.35
356.795	8.35
357.16	8.3
357.524	8.24
357.889	8.24
358.253	8.35
358.618	8.46
358.982	8.49
359.346	8.46
359.71	8.46
360.075	8.43
360.439	8.47
360.803	8.49
361.167	8.41
361.531	8.4
361.895	8.35
362.259	8.32
362.623	8.36
362.987	8.35
363.351	8.35
363.714	8.33
364.078	8.35
364.442	8.27
364.806	8.24
365.169	8.18
365.533	8.16
365.896	8.06
366.26	7.99
366.623	7.91
366.987	7.95
367.35	7.93
367.714	7.89
368.077	7.86
368.44	7.8
368.803	7.78
369.167	7.66
369.53	7.58
369.893	7.59
370.256	7.52
370.619	7.48
370.982	7.39
371.345	7.26
371.708	7.22
372.071	7.22
372.434	7.24
372.797	7.21
373.159	7.17
373.522	7.12
373.885	7.09
374.247	7.07
374.61	7
374.973	6.92
375.335	6.89
375.698	6.83
376.06	6.78
376.423	6.75
376.785	6.78
377.147	6.87
377.51	6.82
377.872	6.79
378.234	6.76
378.596	6.77
378.958	6.74
379.321	6.62
379.683	6.6
380.045	6.57
380.407	6.56
380.769	6.57
381.13	6.56
381.492	6.52
381.854	6.45
382.216	6.39
382.578	6.42
382.939	6.36
383.301	6.35
383.663	6.34
384.024	6.31
384.386	6.3
384.747	6.24
385.109	6.15
385.47	6.14
385.832	6.06
386.193	5.97
386.554	5.95
386.916	5.95
387.277	5.89
387.638	5.86
387.999	5.81
388.36	5.75
388.721	5.72
389.082	5.67
389.443	5.61
389.804	5.54
390.165	5.49
390.526	5.49
390.887	5.44
391.248	5.42
391.609	5.37
391.969	5.3
392.33	5.25
392.691	5.21
393.051	5.16
393.412	5.17
393.772	5.12
394.133	5.12
394.493	5.05
394.854	5
395.214	4.93
395.574	4.89
395.935	4.87
396.295	4.81
396.655	4.78
397.015	4.73
397.376	4.72
397.736	4.64
398.096	4.61
398.456	4.58
398.816	4.52
399.176	4.47
399.535	4.42
399.895	4.39
400.255	4.35
400.615	4.3
400.975	4.23
401.334	4.24
401.694	4.17
402.054	4.16
402.413	4.16
402.773	4.11
403.132	4.11
403.492	4.05
403.851	4.03
404.211	4
404.57	3.99
404.929	4
405.288	4
405.648	3.95
406.007	3.96
406.366	3.94
406.725	3.92
407.084	3.92
407.443	3.9
407.802	3.93
408.161	3.91
408.52	3.9
408.879	3.85
409.238	3.83
409.596	3.83
409.955	3.77
410.314	3.78
410.673	3.74
411.031	3.71
411.39	3.7
411.748	3.69
412.107	3.67
412.465	3.65
412.824	3.61
413.182	3.58
413.54	3.54
413.899	3.55
414.257	3.55
414.615	3.51
414.974	3.5
415.332	3.48
415.69	3.45
416.048	3.43
416.406	3.44
416.764	3.42
417.122	3.41
417.48	3.41
417.838	3.38
418.195	3.38
418.553	3.35
418.911	3.35
419.269	3.33
419.626	3.31
419.984	3.29
420.342	3.28
420.699	3.27
421.057	3.25
421.414	3.21
421.772	3.18
422.129	3.19
422.486	3.18
422.844	3.16
423.201	3.16
423.558	3.17
423.915	3.15
424.273	3.15
424.63	3.12
424.987	3.1
425.344	3.09
425.701	3.06
426.058	3.06
426.415	3.03
426.772	3.03
427.128	3.04
427.485	3.04
427.842	3.05
428.199	3.05
428.555	3.04
428.912	3.07
429.269	3.08
429.625	3.04
429.982	3.03
430.338	3.02
430.695	3
431.051	2.96
431.407	2.97
431.764	2.96
432.12	2.96
432.476	2.96
432.832	2.95
433.189	2.97
433.545	2.97
433.901	2.97
434.257	2.96
434.613	2.96
434.969	2.94
435.325	2.91
435.681	2.9
436.036	2.89
436.392	2.87
436.748	2.87
437.104	2.87
437.459	2.87
437.815	2.88
438.171	2.88
438.526	2.88
438.882	2.87
439.237	2.87
439.593	2.89
439.948	2.9
440.304	2.91
440.659	2.9
441.014	2.89
441.369	2.89
441.725	2.89
442.08	2.88
442.435	2.88
442.79	2.89
443.145	2.88
443.5	2.88
443.855	2.89
444.21	2.89
444.565	2.89
444.92	2.89
445.275	2.88
445.629	2.88
445.984	2.88
446.339	2.86
446.693	2.85
447.048	2.82
447.403	2.81
447.757	2.81
448.112	2.82
448.466	2.82
448.82	2.81
449.175	2.8
449.529	2.79
449.883	2.78
450.238	2.76
450.592	2.77
450.946	2.75
451.3	2.73
451.654	2.72
452.008	2.72
452.362	2.7
452.716	2.7
453.07	2.7
453.424	2.69
453.778	2.71
454.132	2.73
454.486	2.72
454.839	2.71
455.193	2.68
455.547	2.67
455.9	2.69
456.254	2.69
456.607	2.69
456.961	2.69
457.314	2.69
457.668	2.7
458.021	2.68
458.375	2.68
458.728	2.7
459.081	2.7
459.434	2.68
459.787	2.7
460.141	2.69
460.494	2.69
460.847	2.69
461.2	2.69
461.553	2.68
461.906	2.7
462.259	2.7
462.611	2.73
462.964	2.73
463.317	2.72
463.67	2.73
464.022	2.74
464.375	2.74
464.728	2.75
465.08	2.74
465.433	2.77
465.785	2.79
466.138	2.78
466.49	2.79
466.843	2.81
467.195	2.8
467.547	2.81
467.899	2.8
468.252	2.79
468.604	2.79
468.956	2.78
469.308	2.78
469.66	2.78
470.012	2.8
470.364	2.8
470.716	2.81
471.068	2.83
471.42	2.83
471.772	2.87
472.123	2.88
472.475	2.89
472.827	2.92
473.178	2.9
473.53	2.92
473.882	2.91
474.233	2.93
474.585	2.93
474.936	2.93
475.288	2.93
475.639	2.94
475.99	2.93
476.342	2.95
476.693	2.94
477.044	2.96
477.395	2.95
477.746	2.93
478.097	2.92
478.448	2.92
478.8	2.92
479.15	2.89
479.501	2.88
479.852	2.88
480.203	2.87
480.554	2.89
480.905	2.9
481.255	2.9
481.606	2.9
481.957	2.91
482.307	2.91
482.658	2.92
483.009	2.93
483.359	2.94
483.709	2.93
484.06	2.93
484.41	2.93
484.761	2.93
485.111	2.95
485.461	2.95
485.811	2.95
486.162	2.94
486.512	2.96
486.862	2.96
487.212	2.97
487.562	2.98
487.912	2.97
488.262	2.97
488.612	2.98
488.961	2.98
489.311	2.99
489.661	2.99
490.011	2.99
490.36	2.99
490.71	3
491.06	3
491.409	3
491.759	3
492.108	2.99
492.458	2.99
492.807	3
493.157	3.01
493.506	3.01
493.855	3.01
494.204	3.01
494.554	3.01
494.903	3
495.252	2.99
495.601	3.01
495.95	3
496.299	3.01
496.648	3.01
496.997	3.03
497.346	3.06
497.695	3.07
498.043	3.1
498.392	3.11
498.741	3.16
499.09	3.17
499.438	3.22
499.787	3.27
500.135	3.29
500.484	3.3
500.832	3.34
501.181	3.38
501.529	3.41
501.878	3.45
502.226	3.51
502.574	3.55
502.923	3.57
503.271	3.62
503.619	3.67
503.967	3.73
504.315	3.75
504.663	3.77
505.011	3.82
505.359	3.85
505.707	3.92
506.055	3.96
506.403	4.02
506.751	4.05
507.098	4.08
507.446	4.14
507.794	4.2
508.141	4.25
508.489	4.29
508.837	4.34
509.184	4.39
509.531	4.46
509.879	4.53
510.226	4.6
510.574	4.65
510.921	4.69
511.268	4.73
511.616	4.81
511.963	4.88
512.31	4.95
512.657	5.01
513.004	5.09
513.351	5.18
513.698	5.26
514.045	5.37
514.392	5.45
514.739	5.52
515.086	5.64
515.432	5.72
515.779	5.82
516.126	5.93
516.473	6.01
516.819	6.09
517.166	6.18
517.512	6.27
517.859	6.38
518.205	6.46
518.552	6.56
518.898	6.66
519.245	6.74
519.591	6.83
519.937	6.93
520.283	7.03
520.629	7.14
520.976	7.25
521.322	7.38
521.668	7.51
522.014	7.65
522.36	7.78
522.706	7.95
523.052	8.13
523.398	8.32
523.743	8.53
524.089	8.72
524.435	8.9
524.781	9.09
525.126	9.27
525.472	9.47
525.817	9.63
526.163	9.76
526.509	9.91
526.854	10.04
527.199	10.16
527.545	10.28
527.89	10.4
528.235	10.55
528.581	10.71
528.926	10.85
529.271	11
529.616	11.15
529.961	11.29
530.306	11.44
530.651	11.58
530.996	11.74
531.341	11.92
531.686	12.08
532.031	12.27
532.376	12.46
532.721	12.65
533.065	12.85
533.41	13.07
533.755	13.28
534.099	13.52
534.444	13.75
534.788	13.99
535.133	14.22
535.477	14.45
535.822	14.67
536.166	14.94
536.51	15.24
536.855	15.54
537.199	15.84
537.543	16.17
537.887	16.51
538.231	16.88
538.576	17.21
538.92	17.56
539.264	17.85
539.608	18.14
539.951	18.41
540.295	18.67
540.639	18.94
540.983	19.21
541.327	19.47
541.671	19.75
542.014	20
542.358	20.25
542.701	20.5
543.045	20.78
543.389	21.02
543.732	21.28
544.075	21.54
544.419	21.8
544.762	22.1
545.105	22.38
545.449	22.63
545.792	22.93
546.135	23.27
546.478	23.61
546.821	23.99
547.165	24.36
547.508	24.7
547.851	25.05
548.194	25.39
548.536	25.77
548.879	26.14
549.222	26.46
549.565	26.83
549.908	27.21
550.25	27.52
550.593	27.87
550.936	28.23
551.278	28.63
551.621	28.95
551.963	29.26
552.306	29.6
552.648	29.96
552.991	30.31
553.333	30.64
553.675	30.97
554.017	31.27
554.36	31.53
554.702	31.91
555.044	32.2
555.386	32.54
555.728	32.82
556.07	33.17
556.412	33.51
556.754	33.84
557.096	34.2
557.438	34.58
557.78	34.94
558.121	35.23
558.463	35.5
558.805	35.89
559.147	36.2
559.488	36.51
559.83	36.86
560.171	37.15
560.513	37.42
560.854	37.66
561.196	37.91
561.537	38.24
561.878	38.43
562.22	38.66
562.561	38.86
562.902	39.09
563.243	39.25
563.584	39.46
563.925	39.65
564.266	39.79
564.607	39.96
564.948	40.19
565.289	40.41
565.63	40.59
565.971	40.75
566.312	40.91
566.653	41.14
566.993	41.31
567.334	41.47
567.675	41.6
568.015	41.81
568.356	41.99
568.696	42.16
569.037	42.36
569.377	42.6
569.718	42.84
570.058	43.05
570.398	43.26
570.739	43.41
571.079	43.6
571.419	43.82
571.759	43.94
572.099	44.07
572.439	44.24
572.779	44.42
573.119	44.65
573.459	44.81
573.799	44.88
574.139	45
574.479	45.18
574.819	45.32
575.158	45.44
575.498	45.59
575.838	45.71
576.177	45.9
576.517	46.02
576.856	46.14
577.196	46.27
577.535	46.4
577.875	46.66
578.214	46.78
578.553	46.88
578.893	47.06
579.232	47.17
579.571	47.29
579.91	47.36
580.25	47.42
580.589	47.49
580.928	47.71
581.267	47.87
581.606	47.95
581.945	48.07
582.283	48.19
582.622	48.36
582.961	48.51
583.3	48.57
583.639	48.7
583.977	48.88
584.316	49
584.654	49.06
584.993	49.1
585.332	49.15
585.67	49.19
586.008	49.24
586.347	49.35
586.685	49.4
587.024	49.54
587.362	49.6
587.7	49.76
588.038	49.83
588.376	49.93
588.715	50.05
589.053	50.16
589.391	50.22
589.729	50.3
590.067	50.35
590.404	50.37
590.742	50.42
591.08	50.41
591.418	50.48
591.756	50.57
592.093	50.54
592.431	50.69
592.769	50.74
593.106	50.87
593.444	50.92
593.781	50.95
594.119	50.92
594.456	50.96
594.793	50.97
595.131	51.03
595.468	51.03
595.805	51.12
596.143	51.18
596.48	51.28
596.817	51.31
597.154	51.38
597.491	51.49
597.828	51.47
598.165	51.51
598.502	51.62
598.839	51.73
599.176	51.89
599.512	51.93
599.849	52.07
600.186	52.1
600.523	52.22
600.859	52.33
601.196	52.48
601.532	52.52
601.869	52.63
602.205	52.66
602.542	52.71
602.878	52.66
603.215	52.67
603.551	52.74
603.887	52.84
604.223	52.86
604.56	52.95
604.896	53
605.232	53.07
605.568	53.07
605.904	53.04
606.24	53.1
606.576	53.12
606.912	53.13
607.248	53.13
607.583	53.14
607.919	53.17
608.255	53.17
608.591	53.26
608.926	53.3
609.262	53.29
609.597	53.28
609.933	53.27
610.268	53.36
610.604	53.35
610.939	53.33
611.275	53.41
611.61	53.34
611.945	53.46
612.281	53.42
612.616	53.39
612.951	53.43
613.286	53.39
613.621	53.38
613.956	53.47
614.291	53.59
614.626	53.68
614.961	53.82
615.296	53.92
615.631	53.9
615.966	53.92
616.3	53.98
616.635	54.1
616.97	54.26
617.304	54.21
617.639	54.26
617.973	54.25
618.308	54.3
618.642	54.41
618.977	54.42
619.311	54.61
619.646	54.68
619.98	54.65
620.314	54.69
620.648	54.81
620.983	54.82
621.317	54.78
621.651	54.85
621.985	54.8
622.319	54.81
622.653	54.93
622.987	54.87
623.321	54.98
623.655	55.06
623.988	55.17
624.322	55.15
624.656	55.1
624.99	55.03
625.323	55.02
625.657	55.03
625.99	55.09
626.324	54.99
626.657	55.01
626.991	55.09
627.324	55.11
627.658	55.06
627.991	55.1
628.324	55.16
628.657	55.11
628.991	55.15
629.324	55.11
629.657	55.04
629.99	55.14
630.323	55.13
630.656	55.04
630.989	55
631.322	55.1
631.655	55.24
631.987	55.29
632.32	55.33
632.653	55.32
632.986	55.28
633.318	55.42
633.651	55.45
633.984	55.46
634.316	55.43
634.649	55.48
634.981	55.42
635.313	55.51
635.646	55.51
635.978	55.56
636.31	55.58
636.643	55.62
636.975	55.63
637.307	55.64
637.639	55.74
637.971	55.71
638.303	55.72
638.635	55.63
638.967	55.71
639.299	55.64
639.631	55.61
639.963	55.64
640.295	55.56
640.626	55.58
640.958	55.64
641.29	55.65
641.621	55.62
641.953	55.67
642.285	55.58
642.616	55.58
642.948	55.47
643.279	55.55
643.61	55.55
643.942	55.57
644.273	55.62
644.604	55.53
644.936	55.55
645.267	55.55
645.598	55.6
645.929	55.57
646.26	55.71
646.591	55.74
646.922	55.82
647.253	55.77
647.584	55.72
647.915	55.63
648.245	55.67
648.576	55.78
648.907	55.76
649.238	55.68
649.568	55.67
649.899	55.57
650.229	55.47
650.56	55.47
650.89	55.46
651.221	55.42
651.551	55.41
651.882	55.4
652.212	55.45
652.542	55.55
652.872	55.57
653.203	55.47
653.533	55.49
653.863	55.37
654.193	55.5
654.523	55.62
654.853	55.72
655.183	55.68
655.513	55.55
655.843	55.56
656.172	55.72
656.502	55.72
656.832	55.82
657.162	55.99
657.491	56.05
657.821	55.99
658.15	56.03
658.48	56.08
658.809	56.09
659.139	55.98
659.468	55.89
659.798	55.82
660.127	55.79
660.456	55.82
660.785	55.76
661.115	55.71
661.444	55.66
661.773	55.62
662.102	55.75
662.431	55.91
662.76	56.03
663.089	55.89
663.418	55.97
663.747	56.02
664.076	56.06
664.404	56.09
664.733	56.2
665.062	56.11
665.39	56.11
665.719	56.19
666.048	56.35
666.376	56.46
666.705	56.54
667.033	56.59
667.362	56.68
667.69	56.79
668.018	56.76
668.347	56.69
668.675	56.55
669.003	56.37
669.331	56.31
669.659	56.29
669.987	56.2
670.315	56.09
670.643	56.08
670.971	55.98
671.299	55.86
671.627	55.8
671.955	55.75
672.283	55.71
672.61	55.56
672.938	55.52
673.266	55.32
673.593	55.3
673.921	55.36
674.249	55.3
674.576	55.15
674.904	55.09
675.231	55.22
675.558	55.42
675.886	55.54
676.213	55.51
676.54	55.43
676.867	55.64
677.195	55.67
677.522	55.62
677.849	55.64
678.176	55.67
678.503	55.59
678.83	55.71
679.157	55.63
679.484	55.71
679.81	55.66
680.137	55.67
680.464	55.76
680.791	55.7
681.117	55.72
681.444	55.81
681.771	55.94
682.097	55.99
682.424	55.96
682.75	56.08
683.077	56.1
683.403	56.11
683.729	56.04
684.056	56.04
684.382	56.09
684.708	56.04
685.034	56.18
685.36	56.3
685.686	56.34
686.012	56.48
686.339	56.44
686.664	56.48
686.99	56.57
687.316	56.4
687.642	56.5
687.968	56.4
688.294	56.37
688.619	56.27
688.945	56.19
689.271	56.15
689.596	55.92
689.922	55.85
690.247	55.84
690.573	55.87
690.898	56
691.224	55.94
691.549	55.87
691.874	55.82
692.2	55.76
692.525	55.83
692.85	55.91
693.175	55.96
693.5	55.86
693.825	55.99
694.15	56.08
694.475	56.05
694.8	56.04
695.125	56.13
695.45	56.15
695.775	56.11
696.099	56.18
696.424	56.13
696.749	56.11
697.073	56.29
697.398	56.31
697.723	56.3
698.047	56.25
698.372	56.31
698.696	56.21
699.02	56.33
699.345	56.27
699.669	56.27
699.993	56.28
700.318	56.3
700.642	56.34
700.966	56.34
701.29	56.29
701.614	56.43
701.938	56.41
702.262	56.36
702.586	56.41
702.91	56.43
703.234	56.43
703.557	56.71
703.881	56.57
704.205	56.46
704.529	56.47
704.852	56.67
705.176	56.73
705.499	56.89
705.823	56.67
706.146	56.74
706.47	56.52
706.793	56.46
707.117	56.53
707.44	56.44
707.763	56.41
708.086	56.51
708.409	56.21
708.733	56.29
709.056	56.37
709.379	56.4
709.702	56.33
710.025	56.5
710.348	56.32
710.671	56.42
710.993	56.56
711.316	56.42
711.639	56.23
711.962	56.3
712.284	56.35
712.607	56.31
712.93	56.17
713.252	56.31
713.575	56.29
713.897	56.53
714.22	56.59
714.542	56.67
714.864	56.57
715.187	56.59
715.509	56.63
715.831	56.6
716.153	56.47
716.475	56.51
716.798	56.51
717.12	56.24
717.442	56.1
717.764	55.87
718.085	55.86
718.407	55.87
718.729	55.79
719.051	55.58
719.373	55.7
719.695	55.58
720.016	55.65
720.338	55.74
720.659	55.55
720.981	55.32
721.302	55.43
721.624	55.39
721.945	55.58
722.267	55.44
722.588	55.41
722.909	55.3
723.231	55.18
723.552	55.03
723.873	55.26
724.194	55.08
724.515	55.34
724.836	55.44
725.157	55.6
725.478	55.51
725.799	55.51
726.12	55.49
726.441	55.72
726.762	55.7
727.083	55.53
727.403	55.4
727.724	55.47
728.045	55.33
728.365	55.59
728.686	55.51
729.006	55.54
729.327	55.41
729.647	55.6
729.967	55.39
730.288	55.45
730.608	55.44
730.928	55.62
731.249	55.36
731.569	55.41
731.889	55.21
732.209	55.26
732.529	55.32
732.849	55.42
733.169	55.43
733.489	55.37
733.809	55.39
734.129	55.61
734.448	55.52
734.768	55.4
735.088	55.25
735.408	55.21
735.727	55.17
736.047	55.43
736.366	55.08
736.686	55.38
737.005	55.54
737.325	55.65
737.644	55.52
737.963	55.77
738.283	55.82
738.602	55.82
738.921	55.72
739.24	55.57
739.56	55.5
739.879	55.23
740.198	55.39
740.517	55.56
740.836	55.37
741.155	55.46
741.473	55.53
741.792	55.25
742.111	55.3
742.43	55.44
742.748	55.3
743.067	55.71
743.386	55.51
743.704	55.6
744.023	55.61
744.341	55.73
744.66	55.82
744.978	55.67
745.297	56.03
745.615	56.12
745.933	56.59
746.252	56.65
746.57	56.77
746.888	56.24
747.206	56.29
747.524	56.23
747.842	56.21
748.16	56.4
748.478	56.79
748.796	56.74
749.114	56.81
749.432	56.82
749.749	56.4
750.067	56.35
750.385	55.85
750.703	56.05
751.02	56
751.338	55.84
751.655	56.01
751.973	55.57
752.29	55.77
752.608	55.41
752.925	55.6
753.242	55.69
753.56	55.95
753.877	55.7
754.194	55.81
754.511	55.85
754.828	55.6
755.145	55.43
755.462	55.37
755.779	55.13
756.096	55.05
756.413	55.41
756.73	55.74
757.047	55.74
757.364	55.53
757.68	55.36
757.997	55.55
758.314	55.3
758.63	55.54
758.947	55.15
759.264	55.41
759.58	55.19
759.896	55.35
760.213	55.32
760.529	55.4
760.846	55.09
761.162	54.94
761.478	54.89
761.794	54.78
762.11	55.12
762.426	54.92
762.743	55.27
763.059	55.16
763.375	54.95
763.69	55.12
764.006	55.11
764.322	55.4
764.638	55.21
764.954	55.18
765.27	55.15
765.585	55.4
765.901	55.25
766.216	55.43
766.532	55.39
766.848	55.06
767.163	55.08
767.478	55.4
767.794	55.64
768.109	55.79
768.424	55.94
768.74	55.53
769.055	55.67
769.37	55.28
769.685	55.44
770	55.84
770.315	56.06
770.63	56.3
770.945	56.02
771.26	56.01
771.575	56.21
771.89	56.43
772.205	56.43
772.52	56.27
772.834	56.14
773.149	56.03
773.464	56.49
773.778	56.41
774.093	56.22
774.407	55.95
774.722	55.81
775.036	55.77
775.351	56.48
775.665	56.29
775.979	56.36
776.293	56.48
776.608	55.99
776.922	55.85
777.236	55.77
777.55	55.92
777.864	56.13
778.178	56.23
778.492	56.38
778.806	55.98
779.12	56.14
779.434	56.18
779.747	56.19
780.061	56.32
780.375	56.58
780.689	56.42
781.002	56.45
781.316	56.68
781.629	56.53
781.943	55.95
782.256	56.53
782.57	56.34
782.883	56.26
783.196	55.98
783.51	55.93
783.823	55.66
784.136	55.58
784.449	55.42
784.762	55.6
785.075	55.55
785.388	55.5
785.701	55.43
786.014	54.72
786.327	54.72
786.64	54.94
786.953	54.78
787.266	54.48
787.578	54.26
787.891	54.36
788.204	54.53
788.516	54.85
788.829	55.02
789.141	55.25
789.454	55.23
789.766	55.35
790.079	55.33
790.391	55.67
790.703	56.05
791.016	56.05
791.328	56
791.64	55.56
791.952	55.94
792.264	55.76
792.576	56.57
792.888	56.64
793.2	56.49
793.512	56.73
793.824	57.46
794.136	57.58
794.448	57.03
794.76	56.82
795.071	56.43
795.383	55.89
795.695	56.15
796.006	55.76
796.318	55.94
796.629	56.15
796.941	55.62
797.252	55.03
797.564	54.92
797.875	55
798.186	55.48
798.497	55.33
798.809	55.71
799.12	55.19
799.431	55.27
799.742	55.48
800.053	55.31
800.364	55.69
800.675	55.82
800.986	55.91
801.297	55.66
801.608	55.78
801.918	55.42
802.229	54.7
802.54	55.04
802.851	54.72
803.161	54.56
803.472	54.71
803.782	55.43
804.093	56.02
804.403	55.92
804.714	55.92
805.024	55.95
805.334	56.1
805.645	56.4
805.955	55.9
806.265	55.38
806.575	55.05
806.885	54.35
807.195	54.45
807.505	54.67
807.815	55.73
808.125	55.72
808.435	56.3
808.745	57
809.055	56.78
809.365	57.15
809.674	56.75
809.984	56.63
810.294	55.39
810.603	55.17
810.913	54.86
811.222	54.58
811.532	54.57
811.841	54.4
812.151	54.74
812.46	55.13
812.769	55.29
813.079	56.01
813.388	55.23
813.697	55.08
814.006	54.44
814.315	53.85
814.624	53.91
814.933	53.81
815.242	53.97
815.551	54.06
815.86	54.49
816.169	54.83
816.478	54.72
816.786	54.79
817.095	54.4
817.404	54.35
817.712	53.97
818.021	53.63
818.33	53.71
818.638	53.33
818.947	53.73
819.255	53.79
819.563	53.82
819.872	54.58
820.18	54.79
820.488	55.12
820.796	55.22
821.105	55.1
821.413	55.12
821.721	55.24
822.029	55.25
822.337	55.16
822.645	55.37
822.953	55.38
823.26	55.58
823.568	55.57
823.876	55.52
824.184	55.69
824.491	55.85
824.799	55.85
825.107	55.76
825.414	55.84
825.722	55.8
826.029	55.75
826.337	55.75
826.644	55.54
826.951	55.41
827.259	55.2
827.566	55.06
827.873	54.78
828.18	54.59
828.488	54.66
828.795	54.59
829.102	54.21
829.409	54.37
829.716	54.38
830.023	54.35
830.329	54.03
830.636	53.93
830.943	53.94
831.25	53.64
831.557	53.78
831.863	53.53
832.17	53.62
832.476	53.69
832.783	53.61
833.089	54
833.396	54.26
833.702	54.9
834.009	55.22
834.315	55.84
834.621	55.82
834.928	55.35
835.234	55.54
835.54	55.55
835.846	55.38
836.152	55.37
836.458	55.52
836.764	56.05
837.07	55.33
837.376	55.25
837.682	55.91
837.988	55.87
838.293	55.54
838.599	55.12
838.905	54.72
839.211	54.29
839.516	53.84
839.822	53.67
840.127	52.96
840.433	53.01
840.738	53.12
841.044	53.21
841.349	53.81
841.654	54.08
841.959	54.02
842.265	54.5
842.57	54.4
842.875	54.13
843.18	54.63
843.485	56.51
843.79	55.31
844.095	53.58
844.4	54.05
844.705	53.8
845.01	55.17
845.315	55.43
845.619	55.58
845.924	56.56
846.229	55.32
846.533	54.85
846.838	54.08
847.142	53.42
847.447	53.33
847.751	52.52
848.056	50.43
848.36	51.03
848.664	51.21
848.969	51.01
849.273	50.48
849.577	48.34
849.881	46.02
850.185	48.02
850.489	48.67
850.794	49.1
851.097	49.4
851.401	48.09
851.705	47.93
852.009	46.97
852.313	46.2
852.617	47.89
852.92	50.01
853.224	49.56
853.528	50.33
853.831	47.83
854.135	48.67
854.438	50.79
854.742	48.63
855.045	46.75
855.349	45.96
855.652	43.33
855.955	45.97
856.259	47.06
856.562	47.48
856.865	46.35
857.168	45.28
857.471	46.28
857.774	47.99
858.077	47.06
858.38	47.56
858.683	49.42
858.986	49.04
859.289	46.03
859.592	45.82
859.894	45.13
860.197	45.5
860.5	45.87
860.802	44.21
861.105	47.69
861.407	47.37
861.71	46.14
862.012	49.72
862.315	45.32
862.617	42.52
862.919	41.21
863.222	40.36
863.524	41.71
863.826	41.31
864.128	38.73
864.43	38.04
864.732	39.33
865.034	35.51
865.336	35.78
865.638	37.88
865.94	37.69
866.242	36.98
866.544	39.5
866.846	39.03
867.147	40.48
867.449	37.41
867.751	37.9
868.052	39.42
868.354	37.4
868.655	41.98
868.957	44.19
869.258	45.31
869.56	45.7
869.861	42.67
870.162	41.92
870.463	46.14
870.765	45.89
871.066	45.86
871.367	46.8
871.668	46.47
871.969	45.42
872.27	45.84
872.571	46.53
872.872	44.16
873.173	42.48
873.473	40.38
873.774	41.76
874.075	40.98
874.376	38.18
874.676	40.24
874.977	38.61
875.277	38.97
875.578	39.82
875.878	41.16
876.179	42.47
876.479	41.98
876.78	38.73
877.08	40.45
877.38	39.27
877.68	40.43
877.981	40.54
878.281	39.48
878.581	40.88
