Data from BA57662_Reflection_00004.txt Node
Date: Mon Nov 18 15:34:24 EST 2019
User: vgr7
Spectrometer: USB2G7710
Scans to average: 3
Trigger mode: 4
Integration Time (sec): 2.000000E-2
Electric dark correction enabled: true
Boxcar width: 10
XAxis mode: Wavelengths
Number of Pixels in Spectrum: 2048
>>>>>Begin Spectral Data<<<<<
177.721	-53.98
178.105	10.75
178.488	-21.11
178.871	-20.04
179.254	-102.73
179.636	186.47
180.019	-90.38
180.402	200
180.785	121.34
181.168	54.67
181.55	188.34
181.933	97.12
182.316	81.49
182.698	46.38
183.081	78.78
183.463	90.13
183.846	113.84
184.228	74
184.611	74.66
184.993	86.71
185.376	123.96
185.758	170.42
186.14	278.2
186.522	394.9
186.904	-471.11
187.287	-668.92
187.669	-159.56
188.051	-181.84
188.433	-112.61
188.815	-33.91
189.197	-61.15
189.579	-67.57
189.961	-63.74
190.342	-70.55
190.724	-37.9
191.106	-46.77
191.488	-50.85
191.869	-37.24
192.251	-43.61
192.633	-61.11
193.014	-70.4
193.396	-86.78
193.777	-127.97
194.159	-158.31
194.54	-135.38
194.922	-129.22
195.303	-125.57
195.684	-180.18
196.065	-89.15
196.447	-118.35
196.828	-173.06
197.209	-161.09
197.59	-143.82
197.971	-157.9
198.352	-135.24
198.733	-155.07
199.114	-145.67
199.495	-123.44
199.876	-122.02
200.257	-113.3
200.638	-120.56
201.018	-121.32
201.399	-105.64
201.78	-83.58
202.16	-96.08
202.541	-112.59
202.922	-150.84
203.302	-144.12
203.683	-133.66
204.063	-204.72
204.444	-165.07
204.824	-154.5
205.204	-132.13
205.585	-135.88
205.965	-101.44
206.345	-119.6
206.725	-134.66
207.106	-158.48
207.486	-194.44
207.866	-212.02
208.246	-192.53
208.626	-174.07
209.006	-166.55
209.386	-196.6
209.766	-189.15
210.145	-204.96
210.525	-171.99
210.905	-138.75
211.285	-114.52
211.664	-60.97
212.044	-46.29
212.424	-55.3
212.803	-65.7
213.183	-50.53
213.562	-35.24
213.942	-26.14
214.321	-7.84
214.701	-39.69
215.08	-39.54
215.459	-28.82
215.838	-25.69
216.218	-43.37
216.597	-36.19
216.976	-32.56
217.355	-23.06
217.734	-23.1
218.113	-11.2
218.492	-25.07
218.871	-26.72
219.25	-33.92
219.629	-60.24
220.008	-56.84
220.387	-61.69
220.766	-51.59
221.144	-76.18
221.523	-77.87
221.902	-98.48
222.28	-105.84
222.659	-70.96
223.037	-61.51
223.416	-74.5
223.794	-55.08
224.173	-46.36
224.551	-36.37
224.929	-40.11
225.308	-36.14
225.686	-35.03
226.064	-33.3
226.442	-29.07
226.821	-20.64
227.199	-17.52
227.577	-16.02
227.955	-19
228.333	-17.69
228.711	-17.2
229.089	-11.49
229.467	-10.84
229.845	-10.23
230.222	-8.97
230.6	-9.65
230.978	-8.37
231.356	-5.3
231.733	-4.96
232.111	-4.31
232.488	-5.84
232.866	-4.95
233.243	-2.42
233.621	-0.24
233.998	-0.23
234.376	-1.76
234.753	-2.9
235.13	-2.62
235.508	-0.75
235.885	0.21
236.262	-0.01
236.639	0.54
237.016	0.08
237.393	-0.21
237.77	-0.1
238.147	0.2
238.524	0.39
238.901	0.74
239.278	1.8
239.655	1.68
240.032	2.44
240.409	3.14
240.785	3.87
241.162	4.06
241.539	3.99
241.915	4.11
242.292	4.87
242.668	4.67
243.045	4.77
243.421	4.65
243.798	4.74
244.174	5.1
244.551	5.27
244.927	5.4
245.303	5.96
245.679	6.49
246.056	6.64
246.432	6.85
246.808	7.13
247.184	6.62
247.56	6.55
247.936	6.36
248.312	6.31
248.688	6.16
249.064	6
249.44	5.89
249.815	5.91
250.191	5.86
250.567	5.91
250.943	5.72
251.318	5.83
251.694	5.92
252.069	6.02
252.445	5.69
252.82	5.87
253.196	5.4
253.571	5.22
253.947	5.17
254.322	5.33
254.697	5.2
255.073	5.18
255.448	5.25
255.823	5.53
256.198	5.83
256.573	6.1
256.948	6.3
257.323	6.38
257.698	6.18
258.073	5.97
258.448	6.31
258.823	6.41
259.198	6.28
259.573	6.19
259.948	5.96
260.322	6.16
260.697	6.06
261.072	6.01
261.446	5.89
261.821	5.76
262.195	5.79
262.57	5.74
262.944	5.86
263.319	5.88
263.693	5.8
264.067	5.74
264.442	5.7
264.816	5.48
265.19	5.38
265.564	5.49
265.938	5.77
266.313	5.49
266.687	5.65
267.061	6.01
267.435	6.03
267.809	6.24
268.183	6.35
268.556	6.25
268.93	6.33
269.304	6.43
269.678	6.7
270.051	6.74
270.425	6.74
270.799	6.77
271.172	6.72
271.546	6.66
271.919	6.56
272.293	6.49
272.666	6.56
273.04	6.63
273.413	6.59
273.787	6.38
274.16	6.35
274.533	6.34
274.906	6.15
275.279	6.21
275.653	6.1
276.026	5.88
276.399	6
276.772	6.1
277.145	5.9
277.518	5.96
277.891	5.86
278.263	5.81
278.636	5.72
279.009	5.8
279.382	6.04
279.755	6.07
280.127	6.26
280.5	6.22
280.872	6.37
281.245	6.35
281.617	6.46
281.99	6.68
282.362	6.61
282.735	6.43
283.107	6.29
283.479	6.37
283.852	6.51
284.224	6.53
284.596	6.43
284.968	6.54
285.34	6.35
285.713	6.42
286.085	6.53
286.457	6.55
286.829	6.6
287.201	6.55
287.572	6.49
287.944	6.4
288.316	6.45
288.688	6.32
289.06	6.41
289.431	6.48
289.803	6.36
290.175	6.33
290.546	6.53
290.918	6.72
291.289	6.65
291.661	6.74
292.032	6.77
292.403	6.86
292.775	6.88
293.146	6.93
293.517	6.8
293.889	6.84
294.26	6.98
294.631	7.07
295.002	7.08
295.373	7.28
295.744	7.29
296.115	7.34
296.486	7.3
296.857	7.37
297.228	7.45
297.599	7.45
297.97	7.55
298.34	7.55
298.711	7.64
299.082	7.72
299.452	7.71
299.823	7.8
300.194	7.88
300.564	7.99
300.935	8.11
301.305	8.14
301.676	8.08
302.046	8.08
302.416	8
302.787	8.01
303.157	8.06
303.527	8.08
303.897	8.03
304.267	8.32
304.637	8.26
305.008	8.23
305.378	8.35
305.748	8.4
306.117	8.45
306.487	8.33
306.857	8.32
307.227	8.32
307.597	8.11
307.967	8.02
308.336	7.94
308.706	7.86
309.076	8.03
309.445	8.08
309.815	8.13
310.184	8.12
310.554	8.09
310.923	7.97
311.293	7.94
311.662	8.05
312.031	8.03
312.401	8.04
312.77	7.99
313.139	7.9
313.508	7.77
313.877	7.68
314.246	7.65
314.616	7.6
314.985	7.56
315.353	7.66
315.722	7.78
316.091	7.82
316.46	7.88
316.829	7.71
317.198	7.74
317.567	7.7
317.935	7.71
318.304	7.75
318.672	7.8
319.041	7.9
319.41	7.89
319.778	7.87
320.147	7.91
320.515	8.04
320.883	8.12
321.252	8.39
321.62	8.54
321.988	8.63
322.357	8.76
322.725	8.69
323.093	8.68
323.461	8.58
323.829	8.61
324.197	8.66
324.565	8.83
324.933	8.89
325.301	8.95
325.669	9
326.037	9
326.405	9.01
326.772	9.03
327.14	9.05
327.508	8.93
327.875	8.9
328.243	8.86
328.61	8.8
328.978	8.64
329.346	8.71
329.713	8.58
330.08	8.51
330.448	8.55
330.815	8.48
331.182	8.54
331.55	8.55
331.917	8.6
332.284	8.57
332.651	8.45
333.018	8.32
333.385	8.34
333.752	8.46
334.119	8.43
334.486	8.32
334.853	8.24
335.22	8.22
335.587	8.2
335.954	8.11
336.32	8.17
336.687	8.25
337.054	8.15
337.42	8.26
337.787	8.29
338.153	8.37
338.52	8.5
338.886	8.33
339.253	8.28
339.619	8.31
339.986	8.19
340.352	8.25
340.718	8.26
341.084	8.21
341.451	8.2
341.817	8.33
342.183	8.37
342.549	8.32
342.915	8.48
343.281	8.57
343.647	8.62
344.013	8.62
344.379	8.58
344.745	8.55
345.11	8.49
345.476	8.66
345.842	8.62
346.208	8.54
346.573	8.72
346.939	8.79
347.304	8.72
347.67	8.69
348.035	8.7
348.401	8.73
348.766	8.8
349.132	8.66
349.497	8.45
349.862	8.59
350.228	8.72
350.593	8.59
350.958	8.58
351.323	8.64
351.688	8.55
352.053	8.6
352.418	8.66
352.783	8.69
353.148	8.5
353.513	8.47
353.878	8.59
354.243	8.59
354.608	8.6
354.972	8.57
355.337	8.67
355.702	8.67
356.066	8.74
356.431	8.7
356.795	8.83
357.16	8.91
357.524	8.85
357.889	8.77
358.253	8.84
358.618	8.81
358.982	8.74
359.346	8.83
359.71	8.72
360.075	8.71
360.439	8.73
360.803	8.75
361.167	8.77
361.531	8.72
361.895	8.64
362.259	8.59
362.623	8.6
362.987	8.52
363.351	8.53
363.714	8.53
364.078	8.51
364.442	8.49
364.806	8.5
365.169	8.44
365.533	8.51
365.896	8.47
366.26	8.51
366.623	8.53
366.987	8.45
367.35	8.55
367.714	8.57
368.077	8.56
368.44	8.58
368.803	8.58
369.167	8.54
369.53	8.57
369.893	8.65
370.256	8.7
370.619	8.74
370.982	8.67
371.345	8.67
371.708	8.66
372.071	8.64
372.434	8.62
372.797	8.69
373.159	8.68
373.522	8.77
373.885	8.72
374.247	8.69
374.61	8.76
374.973	8.74
375.335	8.71
375.698	8.7
376.06	8.74
376.423	8.79
376.785	8.85
377.147	8.93
377.51	8.91
377.872	8.87
378.234	8.94
378.596	9.03
378.958	9.01
379.321	9.01
379.683	8.95
380.045	8.95
380.407	8.93
380.769	8.94
381.13	8.86
381.492	8.93
381.854	9
382.216	9
382.578	8.99
382.939	8.99
383.301	8.99
383.663	8.94
384.024	8.89
384.386	8.93
384.747	8.92
385.109	8.93
385.47	8.9
385.832	8.87
386.193	8.86
386.554	8.81
386.916	8.85
387.277	8.9
387.638	8.89
387.999	8.92
388.36	8.86
388.721	8.89
389.082	8.84
389.443	8.77
389.804	8.74
390.165	8.72
390.526	8.72
390.887	8.74
391.248	8.79
391.609	8.82
391.969	8.77
392.33	8.8
392.691	8.78
393.051	8.8
393.412	8.77
393.772	8.77
394.133	8.83
394.493	8.83
394.854	8.82
395.214	8.84
395.574	8.8
395.935	8.81
396.295	8.81
396.655	8.81
397.015	8.82
397.376	8.82
397.736	8.82
398.096	8.82
398.456	8.78
398.816	8.76
399.176	8.74
399.535	8.79
399.895	8.73
400.255	8.74
400.615	8.75
400.975	8.79
401.334	8.77
401.694	8.73
402.054	8.69
402.413	8.65
402.773	8.64
403.132	8.63
403.492	8.65
403.851	8.66
404.211	8.67
404.57	8.72
404.929	8.72
405.288	8.74
405.648	8.72
406.007	8.75
406.366	8.74
406.725	8.74
407.084	8.71
407.443	8.72
407.802	8.74
408.161	8.74
408.52	8.73
408.879	8.7
409.238	8.72
409.596	8.71
409.955	8.72
410.314	8.72
410.673	8.72
411.031	8.69
411.39	8.68
411.748	8.66
412.107	8.63
412.465	8.66
412.824	8.67
413.182	8.68
413.54	8.71
413.899	8.71
414.257	8.71
414.615	8.67
414.974	8.63
415.332	8.6
415.69	8.58
416.048	8.55
416.406	8.59
416.764	8.59
417.122	8.63
417.48	8.62
417.838	8.63
418.195	8.63
418.553	8.63
418.911	8.62
419.269	8.64
419.626	8.63
419.984	8.62
420.342	8.6
420.699	8.56
421.057	8.55
421.414	8.53
421.772	8.53
422.129	8.56
422.486	8.58
422.844	8.58
423.201	8.56
423.558	8.56
423.915	8.54
424.273	8.53
424.63	8.51
424.987	8.51
425.344	8.5
425.701	8.5
426.058	8.5
426.415	8.49
426.772	8.46
427.128	8.47
427.485	8.46
427.842	8.46
428.199	8.5
428.555	8.47
428.912	8.52
429.269	8.52
429.625	8.5
429.982	8.45
430.338	8.45
430.695	8.46
431.051	8.48
431.407	8.51
431.764	8.51
432.12	8.51
432.476	8.53
432.832	8.53
433.189	8.54
433.545	8.54
433.901	8.56
434.257	8.56
434.613	8.55
434.969	8.57
435.325	8.53
435.681	8.54
436.036	8.55
436.392	8.52
436.748	8.5
437.104	8.51
437.459	8.54
437.815	8.54
438.171	8.54
438.526	8.55
438.882	8.53
439.237	8.51
439.593	8.52
439.948	8.49
440.304	8.49
440.659	8.47
441.014	8.47
441.369	8.45
441.725	8.46
442.08	8.45
442.435	8.46
442.79	8.46
443.145	8.45
443.5	8.45
443.855	8.43
444.21	8.43
444.565	8.42
444.92	8.41
445.275	8.41
445.629	8.4
445.984	8.38
446.339	8.37
446.693	8.38
447.048	8.37
447.403	8.37
447.757	8.37
448.112	8.37
448.466	8.37
448.82	8.35
449.175	8.34
449.529	8.33
449.883	8.29
450.238	8.3
450.592	8.29
450.946	8.25
451.3	8.25
451.654	8.26
452.008	8.25
452.362	8.23
452.716	8.22
453.07	8.22
453.424	8.25
453.778	8.23
454.132	8.22
454.486	8.22
454.839	8.2
455.193	8.22
455.547	8.19
455.9	8.18
456.254	8.17
456.607	8.2
456.961	8.21
457.314	8.23
457.668	8.24
458.021	8.24
458.375	8.26
458.728	8.28
459.081	8.26
459.434	8.27
459.787	8.29
460.141	8.3
460.494	8.3
460.847	8.28
461.2	8.27
461.553	8.28
461.906	8.29
462.259	8.31
462.611	8.32
462.964	8.35
463.317	8.37
463.67	8.38
464.022	8.36
464.375	8.36
464.728	8.35
465.08	8.37
465.433	8.37
465.785	8.38
466.138	8.37
466.49	8.38
466.843	8.39
467.195	8.39
467.547	8.37
467.899	8.37
468.252	8.37
468.604	8.41
468.956	8.39
469.308	8.39
469.66	8.4
470.012	8.39
470.364	8.36
470.716	8.35
471.068	8.36
471.42	8.38
471.772	8.4
472.123	8.43
472.475	8.41
472.827	8.43
473.178	8.45
473.53	8.44
473.882	8.41
474.233	8.39
474.585	8.38
474.936	8.4
475.288	8.4
475.639	8.41
475.99	8.41
476.342	8.43
476.693	8.44
477.044	8.44
477.395	8.45
477.746	8.48
478.097	8.51
478.448	8.51
478.8	8.52
479.15	8.51
479.501	8.51
479.852	8.52
480.203	8.53
480.554	8.54
480.905	8.56
481.255	8.59
481.606	8.61
481.957	8.62
482.307	8.63
482.658	8.65
483.009	8.64
483.359	8.64
483.709	8.63
484.06	8.62
484.41	8.63
484.761	8.62
485.111	8.62
485.461	8.63
485.811	8.63
486.162	8.63
486.512	8.65
486.862	8.65
487.212	8.65
487.562	8.66
487.912	8.65
488.262	8.65
488.612	8.64
488.961	8.64
489.311	8.64
489.661	8.64
490.011	8.63
490.36	8.63
490.71	8.64
491.06	8.65
491.409	8.67
491.759	8.67
492.108	8.68
492.458	8.67
492.807	8.67
493.157	8.67
493.506	8.68
493.855	8.66
494.204	8.65
494.554	8.66
494.903	8.66
495.252	8.67
495.601	8.66
495.95	8.67
496.299	8.68
496.648	8.69
496.997	8.7
497.346	8.7
497.695	8.74
498.043	8.73
498.392	8.75
498.741	8.73
499.09	8.75
499.438	8.75
499.787	8.77
500.135	8.78
500.484	8.79
500.832	8.78
501.181	8.81
501.529	8.82
501.878	8.84
502.226	8.84
502.574	8.83
502.923	8.85
503.271	8.85
503.619	8.84
503.967	8.83
504.315	8.82
504.663	8.83
505.011	8.84
505.359	8.86
505.707	8.87
506.055	8.9
506.403	8.9
506.751	8.9
507.098	8.9
507.446	8.89
507.794	8.9
508.141	8.91
508.489	8.91
508.837	8.91
509.184	8.92
509.531	8.93
509.879	8.95
510.226	8.95
510.574	8.98
510.921	9
511.268	9.03
511.616	9.04
511.963	9.05
512.31	9.04
512.657	9.05
513.004	9.03
513.351	9.01
513.698	9.01
514.045	9.03
514.392	9.04
514.739	9.09
515.086	9.09
515.432	9.08
515.779	9.08
516.126	9.11
516.473	9.12
516.819	9.14
517.166	9.15
517.512	9.18
517.859	9.17
518.205	9.16
518.552	9.17
518.898	9.16
519.245	9.16
519.591	9.17
519.937	9.16
520.283	9.16
520.629	9.19
520.976	9.2
521.322	9.19
521.668	9.19
522.014	9.19
522.36	9.23
522.706	9.25
523.052	9.27
523.398	9.26
523.743	9.25
524.089	9.26
524.435	9.26
524.781	9.28
525.126	9.28
525.472	9.29
525.817	9.3
526.163	9.33
526.509	9.34
526.854	9.35
527.199	9.36
527.545	9.38
527.89	9.41
528.235	9.41
528.581	9.44
528.926	9.45
529.271	9.46
529.616	9.45
529.961	9.45
530.306	9.45
530.651	9.46
530.996	9.47
531.341	9.47
531.686	9.49
532.031	9.5
532.376	9.5
532.721	9.52
533.065	9.52
533.41	9.51
533.755	9.52
534.099	9.52
534.444	9.54
534.788	9.54
535.133	9.53
535.477	9.54
535.822	9.52
536.166	9.5
536.51	9.5
536.855	9.5
537.199	9.5
537.543	9.5
537.887	9.51
538.231	9.51
538.576	9.53
538.92	9.52
539.264	9.51
539.608	9.52
539.951	9.5
540.295	9.52
540.639	9.52
540.983	9.52
541.327	9.52
541.671	9.5
542.014	9.49
542.358	9.48
542.701	9.48
543.045	9.5
543.389	9.5
543.732	9.49
544.075	9.51
544.419	9.5
544.762	9.5
545.105	9.51
545.449	9.52
545.792	9.52
546.135	9.53
546.478	9.52
546.821	9.5
547.165	9.51
547.508	9.53
547.851	9.53
548.194	9.51
548.536	9.51
548.879	9.53
549.222	9.53
549.565	9.55
549.908	9.56
550.25	9.53
550.593	9.55
550.936	9.53
551.278	9.53
551.621	9.53
551.963	9.56
552.306	9.54
552.648	9.53
552.991	9.54
553.333	9.53
553.675	9.55
554.017	9.59
554.36	9.58
554.702	9.58
555.044	9.56
555.386	9.6
555.728	9.6
556.07	9.61
556.412	9.63
556.754	9.63
557.096	9.63
557.438	9.66
557.78	9.67
558.121	9.71
558.463	9.73
558.805	9.74
559.147	9.72
559.488	9.73
559.83	9.73
560.171	9.76
560.513	9.75
560.854	9.77
561.196	9.73
561.537	9.75
561.878	9.75
562.22	9.78
562.561	9.76
562.902	9.74
563.243	9.74
563.584	9.76
563.925	9.74
564.266	9.73
564.607	9.72
564.948	9.74
565.289	9.76
565.63	9.75
565.971	9.78
566.312	9.79
566.653	9.82
566.993	9.8
567.334	9.77
567.675	9.77
568.015	9.75
568.356	9.77
568.696	9.79
569.037	9.77
569.377	9.77
569.718	9.8
570.058	9.82
570.398	9.81
570.739	9.8
571.079	9.85
571.419	9.85
571.759	9.86
572.099	9.85
572.439	9.84
572.779	9.84
573.119	9.84
573.459	9.83
573.799	9.81
574.139	9.82
574.479	9.8
574.819	9.81
575.158	9.82
575.498	9.84
575.838	9.83
576.177	9.85
576.517	9.86
576.856	9.82
577.196	9.79
577.535	9.83
577.875	9.85
578.214	9.82
578.553	9.84
578.893	9.83
579.232	9.81
579.571	9.83
579.91	9.83
580.25	9.81
580.589	9.8
580.928	9.83
581.267	9.83
581.606	9.87
581.945	9.88
582.283	9.85
582.622	9.85
582.961	9.85
583.3	9.87
583.639	9.88
583.977	9.92
584.316	9.92
584.654	9.88
584.993	9.87
585.332	9.91
585.67	9.91
586.008	9.93
586.347	9.93
586.685	9.91
587.024	9.94
587.362	9.93
587.7	9.94
588.038	9.95
588.376	9.93
588.715	9.92
589.053	9.93
589.391	9.95
589.729	9.93
590.067	9.93
590.404	9.91
590.742	9.9
591.08	9.88
591.418	9.94
591.756	9.97
592.093	9.96
592.431	9.93
592.769	9.95
593.106	9.92
593.444	9.94
593.781	9.92
594.119	9.93
594.456	9.97
594.793	9.99
595.131	9.96
595.468	10.01
595.805	9.99
596.143	9.96
596.48	9.97
596.817	9.98
597.154	10.02
597.491	9.98
597.828	9.98
598.165	10.01
598.502	10.02
598.839	9.99
599.176	10.01
599.512	10.01
599.849	10
600.186	10.03
600.523	10.08
600.859	10.15
601.196	10.12
601.532	10.1
601.869	10.08
602.205	10.1
602.542	10.08
602.878	10.11
603.215	10.11
603.551	10.12
603.887	10.13
604.223	10.12
604.56	10.17
604.896	10.21
605.232	10.19
605.568	10.19
605.904	10.19
606.24	10.24
606.576	10.26
606.912	10.3
607.248	10.3
607.583	10.29
607.919	10.25
608.255	10.24
608.591	10.26
608.926	10.28
609.262	10.25
609.597	10.29
609.933	10.27
610.268	10.35
610.604	10.37
610.939	10.37
611.275	10.33
611.61	10.31
611.945	10.29
612.281	10.31
612.616	10.32
612.951	10.38
613.286	10.36
613.621	10.37
613.956	10.34
614.291	10.37
614.626	10.34
614.961	10.33
615.296	10.31
615.631	10.37
615.966	10.33
616.3	10.37
616.635	10.3
616.97	10.33
617.304	10.25
617.639	10.23
617.973	10.21
618.308	10.26
618.642	10.28
618.977	10.27
619.311	10.25
619.646	10.27
619.98	10.23
620.314	10.25
620.648	10.21
620.983	10.24
621.317	10.17
621.651	10.22
621.985	10.25
622.319	10.3
622.653	10.27
622.987	10.33
623.321	10.34
623.655	10.38
623.988	10.38
624.322	10.42
624.656	10.46
624.99	10.52
625.323	10.5
625.657	10.49
625.99	10.5
626.324	10.51
626.657	10.47
626.991	10.46
627.324	10.48
627.658	10.52
627.991	10.52
628.324	10.52
628.657	10.49
628.991	10.47
629.324	10.51
629.657	10.48
629.99	10.47
630.323	10.45
630.656	10.47
630.989	10.47
631.322	10.46
631.655	10.44
631.987	10.41
632.32	10.41
632.653	10.41
632.986	10.42
633.318	10.46
633.651	10.5
633.984	10.51
634.316	10.4
634.649	10.35
634.981	10.3
635.313	10.33
635.646	10.34
635.978	10.42
636.31	10.42
636.643	10.45
636.975	10.47
637.307	10.49
637.639	10.47
637.971	10.46
638.303	10.47
638.635	10.44
638.967	10.43
639.299	10.46
639.631	10.44
639.963	10.42
640.295	10.42
640.626	10.38
640.958	10.37
641.29	10.43
641.621	10.38
641.953	10.43
642.285	10.44
642.616	10.47
642.948	10.39
643.279	10.33
643.61	10.32
643.942	10.26
644.273	10.24
644.604	10.23
644.936	10.24
645.267	10.24
645.598	10.26
645.929	10.33
646.26	10.34
646.591	10.39
646.922	10.37
647.253	10.3
647.584	10.28
647.915	10.29
648.245	10.29
648.576	10.35
648.907	10.33
649.238	10.33
649.568	10.31
649.899	10.31
650.229	10.36
650.56	10.36
650.89	10.38
651.221	10.41
651.551	10.44
651.882	10.45
652.212	10.55
652.542	10.54
652.872	10.48
653.203	10.46
653.533	10.46
653.863	10.52
654.193	10.51
654.523	10.53
654.853	10.59
655.183	10.64
655.513	10.69
655.843	10.73
656.172	10.7
656.502	10.68
656.832	10.71
657.162	10.76
657.491	10.75
657.821	10.75
658.15	10.72
658.48	10.71
658.809	10.73
659.139	10.64
659.468	10.69
659.798	10.71
660.127	10.7
660.456	10.71
660.785	10.7
661.115	10.8
661.444	10.77
661.773	10.78
662.102	10.73
662.431	10.7
662.76	10.72
663.089	10.67
663.418	10.69
663.747	10.65
664.076	10.6
664.404	10.55
664.733	10.52
665.062	10.52
665.39	10.52
665.719	10.52
666.048	10.54
666.376	10.5
666.705	10.46
667.033	10.47
667.362	10.42
667.69	10.38
668.018	10.4
668.347	10.46
668.675	10.48
669.003	10.48
669.331	10.48
669.659	10.38
669.987	10.43
670.315	10.43
670.643	10.42
670.971	10.39
671.299	10.49
671.627	10.5
671.955	10.54
672.283	10.51
672.61	10.48
672.938	10.54
673.266	10.53
673.593	10.65
673.921	10.58
674.249	10.62
674.576	10.65
674.904	10.6
675.231	10.58
675.558	10.49
675.886	10.49
676.213	10.51
676.54	10.62
676.867	10.75
677.195	10.74
677.522	10.85
677.849	10.86
678.176	10.85
678.503	10.93
678.83	10.91
679.157	10.88
679.484	10.89
679.81	10.82
680.137	10.8
680.464	10.65
680.791	10.75
681.117	10.74
681.444	10.78
681.771	10.77
682.097	10.76
682.424	10.81
682.75	10.85
683.077	10.88
683.403	10.88
683.729	10.85
684.056	10.94
684.382	10.94
684.708	10.94
685.034	11.02
685.36	10.96
685.686	10.95
686.012	10.99
686.339	11.11
686.664	11.15
686.99	11.21
687.316	11.32
687.642	11.3
687.968	11.39
688.294	11.34
688.619	11.39
688.945	11.33
689.271	11.31
689.596	11.3
689.922	11.27
690.247	11.14
690.573	11.19
690.898	11.14
691.224	11.09
691.549	11.18
691.874	11.03
692.2	11.06
692.525	11.1
692.85	11.24
693.175	11.18
693.5	11.18
693.825	11.19
694.15	11.21
694.475	11.25
694.8	11.22
695.125	11.12
695.45	11.06
695.775	11.22
696.099	11.17
696.424	11.21
696.749	11.13
697.073	11.21
697.398	11.18
697.723	11.16
698.047	11.16
698.372	11.04
698.696	11.07
699.02	11.08
699.345	11.1
699.669	11.06
699.993	11
700.318	11.03
700.642	11.09
700.966	11.07
701.29	11.02
701.614	10.98
701.938	11.07
702.262	11.11
702.586	11.18
702.91	11.16
703.234	11.31
703.557	11.44
703.881	11.45
704.205	11.53
704.529	11.57
704.852	11.49
705.176	11.52
705.499	11.6
705.823	11.51
706.146	11.53
706.47	11.46
706.793	11.54
707.117	11.49
707.44	11.41
707.763	11.52
708.086	11.51
708.409	11.54
708.733	11.58
709.056	11.62
709.379	11.6
709.702	11.72
710.025	11.55
710.348	11.52
710.671	11.47
710.993	11.45
711.316	11.43
711.639	11.54
711.962	11.71
712.284	11.57
712.607	11.55
712.93	11.43
713.252	11.5
713.575	11.41
713.897	11.52
714.22	11.61
714.542	11.5
714.864	11.39
715.187	11.44
715.509	11.38
715.831	11.42
716.153	11.36
716.475	11.3
716.798	11.42
717.12	11.3
717.442	11.38
717.764	11.47
718.085	11.48
718.407	11.47
718.729	11.43
719.051	11.45
719.373	11.58
719.695	11.62
720.016	11.61
720.338	11.64
720.659	11.56
720.981	11.43
721.302	11.45
721.624	11.67
721.945	11.57
722.267	11.65
722.588	11.52
722.909	11.46
723.231	11.4
723.552	11.37
723.873	11.44
724.194	11.42
724.515	11.26
724.836	11.3
725.157	11.3
725.478	11.17
725.799	11.4
726.12	11.29
726.441	11.31
726.762	11.41
727.083	11.58
727.403	11.45
727.724	11.56
728.045	11.6
728.365	11.49
728.686	11.52
729.006	11.43
729.327	11.5
729.647	11.57
729.967	11.69
730.288	11.64
730.608	11.63
730.928	11.63
731.249	11.47
731.569	11.58
731.889	11.54
732.209	11.6
732.529	11.68
732.849	11.82
733.169	11.86
733.489	11.82
733.809	11.7
734.129	11.87
734.448	11.88
734.768	11.85
735.088	11.98
735.408	12.15
735.727	12.38
736.047	12.46
736.366	12.38
736.686	12.31
737.005	12.44
737.325	12.46
737.644	12.28
737.963	12.57
738.283	12.2
738.602	12.26
738.921	12.41
739.24	12.32
739.56	12.23
739.879	12.37
740.198	12.4
740.517	12.39
740.836	12.36
741.155	12.21
741.473	12.13
741.792	11.94
742.111	11.72
742.43	11.64
742.748	11.32
743.067	11.33
743.386	11.41
743.704	11.12
744.023	11.25
744.341	11.38
744.66	11.38
744.978	11.57
745.297	11.54
745.615	11.27
745.933	11.09
746.252	11.04
746.57	11
746.888	10.72
747.206	10.63
747.524	10.68
747.842	11.01
748.16	11.15
748.478	11.28
748.796	11.42
749.114	11.64
749.432	11.82
749.749	11.98
750.067	11.64
750.385	11.75
750.703	11.67
751.02	11.64
751.338	11.54
751.655	11.69
751.973	11.97
752.29	12.16
752.608	12.37
752.925	12.54
753.242	12.51
753.56	12.47
753.877	12.65
754.194	12.84
754.511	12.63
754.828	12.63
755.145	12.6
755.462	12.51
755.779	12.21
756.096	12.45
756.413	12.3
756.73	12.86
757.047	12.88
757.364	12.97
757.68	13.27
757.997	13.35
758.314	13.19
758.63	13.02
758.947	13.14
759.264	13.02
759.58	13.06
759.896	13.06
760.213	13.36
760.529	13.16
760.846	12.99
761.162	13.15
761.478	13.14
761.794	13.06
762.11	13.24
762.426	13.23
762.743	12.97
763.059	12.86
763.375	12.75
763.69	12.73
764.006	12.67
764.322	12.67
764.638	12.67
764.954	12.73
765.27	12.66
765.585	12.44
765.901	12.55
766.216	12.64
766.532	12.52
766.848	12.21
767.163	12.3
767.478	12.13
767.794	12.01
768.109	11.9
768.424	12.15
768.74	12.17
769.055	12.1
769.37	12.15
769.685	12.28
770	12.22
770.315	12.36
770.63	12.42
770.945	12.12
771.26	11.82
771.575	11.71
771.89	11.97
772.205	12.17
772.52	11.99
772.834	11.49
773.149	11.64
773.464	12.02
773.778	12.12
774.093	12.36
774.407	12.57
774.722	12.82
775.036	12.5
775.351	12.64
775.665	12.99
775.979	12.87
776.293	12.64
776.608	12.72
776.922	12.2
777.236	12.24
777.55	12.4
777.864	12.68
778.178	13.23
778.492	13.09
778.806	12.83
779.12	12.89
779.434	13.2
779.747	13.13
780.061	13.13
780.375	13.05
780.689	12.91
781.002	12.55
781.316	12.48
781.629	12.94
781.943	12.42
782.256	12.46
782.57	12.43
782.883	12.61
783.196	12.61
783.51	13.25
783.823	13.31
784.136	13.21
784.449	12.98
784.762	12.51
785.075	12.62
785.388	12.66
785.701	13.15
786.014	13.19
786.327	13.44
786.64	13.62
786.953	13.68
787.266	13.3
787.578	13.17
787.891	13.24
788.204	12.52
788.516	12.49
788.829	12.48
789.141	13.09
789.454	12.79
789.766	13.05
790.079	12.73
790.391	12.44
790.703	12.3
791.016	12.8
791.328	12.77
791.64	12.85
791.952	13.11
792.264	12.56
792.576	12.46
792.888	12.43
793.2	12.7
793.512	12.49
793.824	12.98
794.136	13.21
794.448	13.86
794.76	14.11
795.071	14.21
795.383	13.93
795.695	13.31
796.006	14.17
796.318	14.07
796.629	14.25
796.941	14.43
797.252	14.88
797.564	14.28
797.875	13.91
798.186	13.43
798.497	13.82
798.809	14.02
799.12	13.7
799.431	13.54
799.742	13.54
800.053	14.11
800.364	14.01
800.675	13.78
800.986	12.93
801.297	13.05
801.608	13.01
801.918	12.74
802.229	13.28
802.54	12.59
802.851	12.38
803.161	12.63
803.472	12.67
803.782	12.85
804.093	12.95
804.403	13.33
804.714	13.28
805.024	12.56
805.334	12.72
805.645	13.22
805.955	13.32
806.265	12.99
806.575	12.59
806.885	12.44
807.195	12.7
807.505	12.53
807.815	12.66
808.125	12.5
808.435	12.76
808.745	12.28
809.055	13.44
809.365	13.72
809.674	13.82
809.984	13.94
810.294	13.7
810.603	14.21
810.913	15.35
811.222	15.74
811.532	15.88
811.841	15.58
812.151	16.03
812.46	16.05
812.769	15.51
813.079	15.47
813.388	15.53
813.697	15.54
814.006	16.24
814.315	16.12
814.624	16.47
814.933	16.56
815.242	17.2
815.551	17.28
815.86	17.07
816.169	16.87
816.478	16.12
816.786	16.02
817.095	15.18
817.404	14.89
817.712	15.21
818.021	15.83
818.33	15.8
818.638	15.25
818.947	15.42
819.255	16.3
819.563	16.48
819.872	16.64
820.18	16.8
820.488	16.76
820.796	16.83
821.105	16.67
821.413	16.54
821.721	16.44
822.029	16.25
822.337	16.14
822.645	16.1
822.953	16.23
823.26	16.16
823.568	16.43
823.876	16.38
824.184	16.29
824.491	16.1
824.799	16.28
825.107	16.23
825.414	16.2
825.722	15.96
826.029	16.06
826.337	16.06
826.644	16.08
826.951	15.86
827.259	15.69
827.566	15.77
827.873	15.85
828.18	15.88
828.488	15.67
828.795	15.78
829.102	15.89
829.409	16.05
829.716	16.13
830.023	15.82
830.329	15.62
830.636	16.07
830.943	16.14
831.25	15.86
831.557	16.18
831.863	16.18
832.17	16.34
832.476	16.01
832.783	15.9
833.089	15.45
833.396	15.92
833.702	16.33
834.009	16.25
834.315	16.16
834.621	15.98
834.928	16.17
835.234	15.79
835.54	15.43
835.846	15.49
836.152	15.39
836.458	15.69
836.764	15.6
837.07	14.64
837.376	14.5
837.682	15.08
837.988	14.48
838.293	14.15
838.599	14.22
838.905	14.26
839.211	14.02
839.516	14.24
839.822	14.07
840.127	13.83
840.433	14.61
840.738	14.7
841.044	14.51
841.349	14.73
841.654	15.52
841.959	15.17
842.265	15.54
842.57	15.61
842.875	14.9
843.18	15.66
843.485	16.2
843.79	16.92
844.095	14.9
844.4	15.21
844.705	15.59
845.01	15.24
845.315	15.79
845.619	15.47
845.924	16.41
846.229	16.35
846.533	16.2
846.838	13.99
847.142	13.59
847.447	12.18
847.751	10.8
848.056	9.41
848.36	11.1
848.664	10.14
848.969	9.92
849.273	10.16
849.577	10.43
849.881	10.18
850.185	10.38
850.489	12.78
850.794	11.7
851.097	12.03
851.401	12.6
851.705	11.67
852.009	14.41
852.313	13.84
852.617	13.3
852.92	14.4
853.224	16.26
853.528	16.35
853.831	17.89
854.135	19.31
854.438	18.73
854.742	17.84
855.045	16.45
855.349	18.3
855.652	18.48
855.955	17.6
856.259	17.17
856.562	17.82
856.865	16.47
857.168	17.89
857.471	18.23
857.774	18.48
858.077	18.46
858.38	16.33
858.683	16.15
858.986	16.94
859.289	17.31
859.592	16.43
859.894	16.79
860.197	16.54
860.5	14.07
860.802	17.62
861.105	17.63
861.407	18.61
861.71	16
862.012	14.68
862.315	12.34
862.617	12.96
862.919	10.73
863.222	10.44
863.524	12.86
863.826	11.74
864.128	8.72
864.43	7.05
864.732	7.73
865.034	6.14
865.336	5.38
865.638	2.99
865.94	2.6
866.242	2.25
866.544	1.45
866.846	4.53
867.147	1.92
867.449	1.5
867.751	3.74
868.052	6.82
868.354	7.17
868.655	10.61
868.957	10.37
869.258	11.96
869.56	13.07
869.861	9.09
870.162	10.94
870.463	12.39
870.765	13.44
871.066	13.77
871.367	16.03
871.668	15.08
871.969	15.41
872.27	13.9
872.571	14.7
872.872	17.02
873.173	15.7
873.473	16.05
873.774	17.69
874.075	16.84
874.376	13.21
874.676	15.55
874.977	13.69
875.277	15.56
875.578	15.66
875.878	14.4
876.179	17.12
876.479	16.14
876.78	17.2
877.08	18.74
877.38	17.58
877.68	15.39
877.981	17.47
878.281	18.85
878.581	23.5
