Data from BA57758_Reflection_00007.txt Node
Date: Mon Nov 18 15:11:35 EST 2019
User: vgr7
Spectrometer: USB2G7710
Scans to average: 3
Trigger mode: 4
Integration Time (sec): 2.000000E-2
Electric dark correction enabled: true
Boxcar width: 10
XAxis mode: Wavelengths
Number of Pixels in Spectrum: 2048
>>>>>Begin Spectral Data<<<<<
177.721	132.39
178.105	82.06
178.488	98.15
178.871	124.11
179.254	121.11
179.636	383.9
180.019	139.6
180.402	-740
180.785	-127.18
181.168	-15.49
181.55	-33.84
181.933	55.89
182.316	112.86
182.698	140.04
183.081	86.61
183.463	238.96
183.846	273.3
184.228	113.88
184.611	82.12
184.993	59.14
185.376	-35.82
185.758	-20.26
186.14	-57.26
186.522	-42.61
186.904	-33.88
187.287	-64.61
187.669	-151.53
188.051	-87.82
188.433	-88.9
188.815	-100.17
189.197	-136.81
189.579	-157.34
189.961	-119.8
190.342	-698.59
190.724	-1198.58
191.106	-1413.81
191.488	-2256.16
191.869	720.21
192.251	201.11
192.633	195.05
193.014	253.85
193.396	112.84
193.777	205.26
194.159	54.78
194.54	92.06
194.922	65.87
195.303	42.63
195.684	46.97
196.065	80.87
196.447	69.87
196.828	65.75
197.209	75.62
197.59	77.86
197.971	69.49
198.352	76.63
198.733	55.26
199.114	30.24
199.495	59.27
199.876	53.94
200.257	66.13
200.638	71.38
201.018	48.07
201.399	36.93
201.78	31.03
202.16	27.3
202.541	14.57
202.922	17.12
203.302	4.04
203.683	1.91
204.063	-58.86
204.444	-31.52
204.824	-9.69
205.204	-44.88
205.585	-50.94
205.965	-58.27
206.345	-54.13
206.725	-143.48
207.106	-259.9
207.486	-194.43
207.866	-55.14
208.246	-234.63
208.626	-316.29
209.006	-10.34
209.386	-1500
209.766	44.33
210.145	3.61
210.525	-38.8
210.905	-24.92
211.285	-5.91
211.664	-5.68
212.044	-1.26
212.424	-2.7
212.803	-9.93
213.183	-12.68
213.562	-8.07
213.942	3.54
214.321	18.56
214.701	20.66
215.08	45.31
215.459	32.34
215.838	25.33
216.218	28.16
216.597	29.96
216.976	40.76
217.355	28.58
217.734	38.66
218.113	37.61
218.492	30.56
218.871	29.18
219.25	31.72
219.629	50.35
220.008	45.7
220.387	49.24
220.766	63.17
221.144	56.62
221.523	65.6
221.902	50.63
222.28	1
222.659	9.12
223.037	-19.76
223.416	-8.78
223.794	-4.64
224.173	-23.06
224.551	-21.31
224.929	-27.75
225.308	-15.46
225.686	-16.25
226.064	-8.72
226.442	-4.16
226.821	-0.46
227.199	-0.92
227.577	-5.18
227.955	-7.17
228.333	-6.83
228.711	-6.21
229.089	-4.52
229.467	-9.63
229.845	-10.39
230.222	-7.81
230.6	-6.51
230.978	-5.73
231.356	-3.17
231.733	-1.97
232.111	-0.53
232.488	-0.84
232.866	1.47
233.243	1.72
233.621	1.6
233.998	2.08
234.376	2.47
234.753	3.07
235.13	2.35
235.508	4.47
235.885	5.69
236.262	5.44
236.639	6.4
237.016	7.48
237.393	10.36
237.77	11.05
238.147	11.26
238.524	10.1
238.901	9.83
239.278	8.42
239.655	8.35
240.032	7.86
240.409	8.11
240.785	7.41
241.162	7.15
241.539	7.29
241.915	6.81
242.292	6.61
242.668	6.39
243.045	6.57
243.421	6.19
243.798	5.81
244.174	5.75
244.551	5.59
244.927	5.08
245.303	4.9
245.679	4.96
246.056	4.8
246.432	5.02
246.808	4.97
247.184	4.87
247.56	4.55
247.936	4.47
248.312	4.27
248.688	4.15
249.064	4.05
249.44	3.88
249.815	4.1
250.191	3.94
250.567	3.96
250.943	3.61
251.318	3.57
251.694	3.49
252.069	3.36
252.445	3.12
252.82	3.29
253.196	3.16
253.571	2.82
253.947	2.9
254.322	2.66
254.697	2.51
255.073	2.7
255.448	2.64
255.823	2.56
256.198	2.49
256.573	2.79
256.948	2.69
257.323	2.93
257.698	2.76
258.073	2.84
258.448	2.83
258.823	3.07
259.198	2.95
259.573	2.93
259.948	3.01
260.322	3.2
260.697	3.26
261.072	3.25
261.446	3.32
261.821	3.27
262.195	3.42
262.57	3.48
262.944	3.31
263.319	3.31
263.693	3.32
264.067	3.42
264.442	3.43
264.816	3.52
265.19	3.4
265.564	3.56
265.938	3.41
266.313	3.52
266.687	3.46
267.061	3.59
267.435	3.78
267.809	3.56
268.183	3.43
268.556	3.16
268.93	3.13
269.304	3.09
269.678	3.14
270.051	2.99
270.425	2.99
270.799	3.3
271.172	3.34
271.546	3.5
271.919	3.5
272.293	3.47
272.666	3.59
273.04	3.77
273.413	3.66
273.787	3.76
274.16	3.62
274.533	3.54
274.906	3.51
275.279	3.41
275.653	3.59
276.026	3.6
276.399	3.82
276.772	3.98
277.145	3.89
277.518	3.83
277.891	3.95
278.263	3.92
278.636	3.83
279.009	3.81
279.382	3.9
279.755	3.8
280.127	3.77
280.5	3.72
280.872	3.53
281.245	3.47
281.617	3.6
281.99	3.66
282.362	3.73
282.735	3.64
283.107	3.72
283.479	3.64
283.852	3.65
284.224	3.6
284.596	3.52
284.968	3.58
285.34	3.58
285.713	3.51
286.085	3.54
286.457	3.51
286.829	3.62
287.201	3.47
287.572	3.49
287.944	3.53
288.316	3.52
288.688	3.55
289.06	3.73
289.431	3.66
289.803	3.66
290.175	3.79
290.546	4
290.918	4.06
291.289	4.16
291.661	4.22
292.032	4.14
292.403	4.19
292.775	4.21
293.146	4.19
293.517	4.14
293.889	4.24
294.26	4.3
294.631	4.35
295.002	4.41
295.373	4.52
295.744	4.57
296.115	4.5
296.486	4.48
296.857	4.33
297.228	4.48
297.599	4.38
297.97	4.32
298.34	4.34
298.711	4.23
299.082	4.16
299.452	4.12
299.823	4.22
300.194	4.1
300.564	4.16
300.935	4.26
301.305	4.34
301.676	4.26
302.046	4.27
302.416	4.28
302.787	4.38
303.157	4.38
303.527	4.38
303.897	4.45
304.267	4.48
304.637	4.55
305.008	4.64
305.378	4.83
305.748	4.91
306.117	4.89
306.487	5.1
306.857	5.36
307.227	5.49
307.597	5.49
307.967	5.72
308.336	5.76
308.706	5.78
309.076	5.91
309.445	5.96
309.815	5.97
310.184	5.94
310.554	5.93
310.923	6.06
311.293	6.11
311.662	6.26
312.031	6.33
312.401	6.38
312.77	6.4
313.139	6.62
313.508	6.59
313.877	6.55
314.246	6.58
314.616	6.49
314.985	6.44
315.353	6.54
315.722	6.68
316.091	6.66
316.46	6.7
316.829	6.7
317.198	6.96
317.567	7.1
317.935	7.19
318.304	7.37
318.672	7.36
319.041	7.49
319.41	7.56
319.778	7.75
320.147	7.89
320.515	7.89
320.883	7.77
321.252	7.97
321.62	8.1
321.988	7.96
322.357	8.09
322.725	8.28
323.093	8.42
323.461	8.32
323.829	8.54
324.197	8.68
324.565	8.79
324.933	8.73
325.301	8.74
325.669	8.84
326.037	8.77
326.405	8.74
326.772	8.9
327.14	8.92
327.508	8.92
327.875	8.95
328.243	9.13
328.61	9.18
328.978	9.21
329.346	9.35
329.713	9.6
330.08	9.6
330.448	9.68
330.815	9.62
331.182	9.73
331.55	9.75
331.917	9.73
332.284	9.66
332.651	9.68
333.018	9.76
333.385	9.8
333.752	9.79
334.119	9.92
334.486	9.74
334.853	9.66
335.22	9.7
335.587	9.8
335.954	9.65
336.32	9.74
336.687	9.82
337.054	9.82
337.42	9.79
337.787	9.86
338.153	9.73
338.52	9.85
338.886	9.68
339.253	9.55
339.619	9.57
339.986	9.59
340.352	9.69
340.718	9.62
341.084	9.63
341.451	9.77
341.817	9.84
342.183	9.87
342.549	9.94
342.915	10.05
343.281	10.08
343.647	10.08
344.013	10.1
344.379	10.03
344.745	10.13
345.11	10.21
345.476	10.2
345.842	10.28
346.208	10.25
346.573	10.52
346.939	10.69
347.304	10.73
347.67	10.69
348.035	10.58
348.401	10.63
348.766	10.62
349.132	10.62
349.497	10.44
349.862	10.54
350.228	10.58
350.593	10.49
350.958	10.39
351.323	10.4
351.688	10.36
352.053	10.41
352.418	10.36
352.783	10.27
353.148	10.29
353.513	10.25
353.878	10.2
354.243	10.11
354.608	10.04
354.972	10
355.337	10.03
355.702	10.15
356.066	10.16
356.431	10.14
356.795	10.19
357.16	10.19
357.524	10.07
357.889	10
358.253	9.99
358.618	10.01
358.982	9.95
359.346	9.89
359.71	9.83
360.075	9.77
360.439	9.73
360.803	9.65
361.167	9.6
361.531	9.64
361.895	9.59
362.259	9.55
362.623	9.51
362.987	9.46
363.351	9.36
363.714	9.28
364.078	9.23
364.442	9.12
364.806	9.11
365.169	9.06
365.533	9.04
365.896	8.98
366.26	8.91
366.623	8.88
366.987	8.86
367.35	8.79
367.714	8.7
368.077	8.69
368.44	8.63
368.803	8.54
369.167	8.4
369.53	8.37
369.893	8.3
370.256	8.23
370.619	8.22
370.982	8.16
371.345	8.06
371.708	8
372.071	7.91
372.434	7.83
372.797	7.75
373.159	7.6
373.522	7.55
373.885	7.5
374.247	7.46
374.61	7.35
374.973	7.23
375.335	7.19
375.698	7.09
376.06	7.06
376.423	7.02
376.785	6.97
377.147	6.88
377.51	6.81
377.872	6.75
378.234	6.66
378.596	6.56
378.958	6.49
379.321	6.42
379.683	6.34
380.045	6.32
380.407	6.32
380.769	6.3
381.13	6.28
381.492	6.18
381.854	6.13
382.216	6.08
382.578	6.02
382.939	5.91
383.301	5.82
383.663	5.7
384.024	5.66
384.386	5.69
384.747	5.68
385.109	5.64
385.47	5.56
385.832	5.53
386.193	5.54
386.554	5.5
386.916	5.44
387.277	5.42
387.638	5.41
387.999	5.33
388.36	5.29
388.721	5.26
389.082	5.23
389.443	5.17
389.804	5.15
390.165	5.13
390.526	5.12
390.887	5.1
391.248	5.14
391.609	5.11
391.969	5.04
392.33	4.94
392.691	4.88
393.051	4.85
393.412	4.84
393.772	4.74
394.133	4.74
394.493	4.69
394.854	4.66
395.214	4.6
395.574	4.56
395.935	4.48
396.295	4.38
396.655	4.33
397.015	4.28
397.376	4.23
397.736	4.21
398.096	4.17
398.456	4.13
398.816	4.06
399.176	3.96
399.535	3.88
399.895	3.88
400.255	3.9
400.615	3.88
400.975	3.82
401.334	3.81
401.694	3.73
402.054	3.72
402.413	3.69
402.773	3.65
403.132	3.62
403.492	3.62
403.851	3.63
404.211	3.61
404.57	3.6
404.929	3.59
405.288	3.59
405.648	3.57
406.007	3.56
406.366	3.57
406.725	3.62
407.084	3.64
407.443	3.62
407.802	3.58
408.161	3.55
408.52	3.51
408.879	3.53
409.238	3.55
409.596	3.55
409.955	3.53
410.314	3.51
410.673	3.5
411.031	3.48
411.39	3.44
411.748	3.46
412.107	3.45
412.465	3.41
412.824	3.36
413.182	3.36
413.54	3.35
413.899	3.34
414.257	3.31
414.615	3.27
414.974	3.27
415.332	3.26
415.69	3.26
416.048	3.24
416.406	3.2
416.764	3.18
417.122	3.16
417.48	3.13
417.838	3.1
418.195	3.09
418.553	3.07
418.911	3.06
419.269	3.05
419.626	3.04
419.984	3.02
420.342	3.02
420.699	2.99
421.057	2.97
421.414	2.94
421.772	2.91
422.129	2.9
422.486	2.88
422.844	2.87
423.201	2.85
423.558	2.85
423.915	2.83
424.273	2.82
424.63	2.83
424.987	2.83
425.344	2.83
425.701	2.82
426.058	2.83
426.415	2.82
426.772	2.78
427.128	2.78
427.485	2.79
427.842	2.77
428.199	2.79
428.555	2.78
428.912	2.78
429.269	2.78
429.625	2.75
429.982	2.73
430.338	2.73
430.695	2.72
431.051	2.72
431.407	2.73
431.764	2.73
432.12	2.71
432.476	2.7
432.832	2.69
433.189	2.71
433.545	2.71
433.901	2.7
434.257	2.69
434.613	2.69
434.969	2.7
435.325	2.7
435.681	2.68
436.036	2.7
436.392	2.7
436.748	2.69
437.104	2.71
437.459	2.73
437.815	2.72
438.171	2.74
438.526	2.72
438.882	2.71
439.237	2.7
439.593	2.7
439.948	2.69
440.304	2.7
440.659	2.71
441.014	2.68
441.369	2.68
441.725	2.69
442.08	2.68
442.435	2.68
442.79	2.68
443.145	2.67
443.5	2.65
443.855	2.65
444.21	2.65
444.565	2.63
444.92	2.62
445.275	2.6
445.629	2.59
445.984	2.59
446.339	2.59
446.693	2.58
447.048	2.57
447.403	2.56
447.757	2.54
448.112	2.52
448.466	2.51
448.82	2.51
449.175	2.52
449.529	2.51
449.883	2.5
450.238	2.47
450.592	2.47
450.946	2.46
451.3	2.45
451.654	2.44
452.008	2.45
452.362	2.45
452.716	2.46
453.07	2.46
453.424	2.47
453.778	2.47
454.132	2.47
454.486	2.45
454.839	2.46
455.193	2.46
455.547	2.44
455.9	2.47
456.254	2.49
456.607	2.47
456.961	2.46
457.314	2.47
457.668	2.5
458.021	2.5
458.375	2.5
458.728	2.5
459.081	2.51
459.434	2.51
459.787	2.52
460.141	2.53
460.494	2.53
460.847	2.53
461.2	2.53
461.553	2.54
461.906	2.55
462.259	2.56
462.611	2.58
462.964	2.6
463.317	2.59
463.67	2.6
464.022	2.61
464.375	2.61
464.728	2.62
465.08	2.62
465.433	2.63
465.785	2.65
466.138	2.68
466.49	2.69
466.843	2.7
467.195	2.72
467.547	2.72
467.899	2.72
468.252	2.72
468.604	2.73
468.956	2.74
469.308	2.74
469.66	2.73
470.012	2.73
470.364	2.74
470.716	2.75
471.068	2.76
471.42	2.78
471.772	2.8
472.123	2.8
472.475	2.79
472.827	2.8
473.178	2.79
473.53	2.78
473.882	2.76
474.233	2.75
474.585	2.71
474.936	2.73
475.288	2.73
475.639	2.72
475.99	2.73
476.342	2.72
476.693	2.72
477.044	2.74
477.395	2.73
477.746	2.72
478.097	2.71
478.448	2.69
478.8	2.66
479.15	2.65
479.501	2.64
479.852	2.64
480.203	2.64
480.554	2.64
480.905	2.65
481.255	2.64
481.606	2.65
481.957	2.66
482.307	2.64
482.658	2.64
483.009	2.64
483.359	2.63
483.709	2.63
484.06	2.63
484.41	2.63
484.761	2.63
485.111	2.63
485.461	2.64
485.811	2.64
486.162	2.65
486.512	2.66
486.862	2.66
487.212	2.66
487.562	2.67
487.912	2.67
488.262	2.68
488.612	2.68
488.961	2.69
489.311	2.69
489.661	2.7
490.011	2.71
490.36	2.71
490.71	2.73
491.06	2.74
491.409	2.76
491.759	2.76
492.108	2.76
492.458	2.78
492.807	2.77
493.157	2.79
493.506	2.8
493.855	2.81
494.204	2.82
494.554	2.84
494.903	2.84
495.252	2.86
495.601	2.88
495.95	2.91
496.299	2.94
496.648	2.96
496.997	2.99
497.346	3.02
497.695	3.05
498.043	3.07
498.392	3.1
498.741	3.13
499.09	3.15
499.438	3.22
499.787	3.26
500.135	3.32
500.484	3.36
500.832	3.41
501.181	3.47
501.529	3.51
501.878	3.58
502.226	3.66
502.574	3.72
502.923	3.76
503.271	3.82
503.619	3.89
503.967	3.97
504.315	4.02
504.663	4.11
505.011	4.19
505.359	4.27
505.707	4.35
506.055	4.44
506.403	4.53
506.751	4.62
507.098	4.69
507.446	4.76
507.794	4.83
508.141	4.92
508.489	5
508.837	5.1
509.184	5.19
509.531	5.26
509.879	5.37
510.226	5.47
510.574	5.56
510.921	5.64
511.268	5.75
511.616	5.86
511.963	5.97
512.31	6.07
512.657	6.2
513.004	6.33
513.351	6.48
513.698	6.62
514.045	6.74
514.392	6.88
514.739	7.02
515.086	7.18
515.432	7.33
515.779	7.48
516.126	7.64
516.473	7.77
516.819	7.92
517.166	8.06
517.512	8.18
517.859	8.32
518.205	8.45
518.552	8.58
518.898	8.71
519.245	8.81
519.591	8.94
519.937	9.07
520.283	9.2
520.629	9.32
520.976	9.45
521.322	9.64
521.668	9.81
522.014	9.99
522.36	10.18
522.706	10.37
523.052	10.6
523.398	10.82
523.743	11.05
524.089	11.29
524.435	11.52
524.781	11.76
525.126	11.98
525.472	12.18
525.817	12.36
526.163	12.54
526.509	12.71
526.854	12.87
527.199	13.02
527.545	13.15
527.89	13.29
528.235	13.46
528.581	13.61
528.926	13.77
529.271	13.95
529.616	14.11
529.961	14.27
530.306	14.43
530.651	14.61
530.996	14.81
531.341	15
531.686	15.19
532.031	15.39
532.376	15.6
532.721	15.82
533.065	16.03
533.41	16.28
533.755	16.5
534.099	16.74
534.444	17.01
534.788	17.27
535.133	17.51
535.477	17.77
535.822	18.05
536.166	18.32
536.51	18.6
536.855	18.92
537.199	19.23
537.543	19.57
537.887	19.9
538.231	20.22
538.576	20.56
538.92	20.88
539.264	21.18
539.608	21.46
539.951	21.75
540.295	22.03
540.639	22.29
540.983	22.55
541.327	22.8
541.671	23.05
542.014	23.29
542.358	23.54
542.701	23.79
543.045	24.01
543.389	24.26
543.732	24.51
544.075	24.78
544.419	25.05
544.762	25.33
545.105	25.6
545.449	25.89
545.792	26.19
546.135	26.52
546.478	26.85
546.821	27.18
547.165	27.52
547.508	27.87
547.851	28.2
548.194	28.55
548.536	28.92
548.879	29.24
549.222	29.61
549.565	29.98
549.908	30.3
550.25	30.66
550.593	31
550.936	31.33
551.278	31.62
551.621	31.99
551.963	32.28
552.306	32.57
552.648	32.83
552.991	33.09
553.333	33.37
553.675	33.68
554.017	33.99
554.36	34.28
554.702	34.59
555.044	34.83
555.386	35.07
555.728	35.32
556.07	35.6
556.412	35.85
556.754	36.13
557.096	36.41
557.438	36.65
557.78	36.93
558.121	37.23
558.463	37.49
558.805	37.71
559.147	37.99
559.488	38.26
559.83	38.56
560.171	38.8
560.513	39.08
560.854	39.31
561.196	39.53
561.537	39.76
561.878	39.94
562.22	40.17
562.561	40.38
562.902	40.66
563.243	40.86
563.584	41.06
563.925	41.25
564.266	41.44
564.607	41.65
564.948	41.82
565.289	41.96
565.63	42.16
565.971	42.29
566.312	42.47
566.653	42.65
566.993	42.79
567.334	42.98
567.675	43.14
568.015	43.32
568.356	43.46
568.696	43.62
569.037	43.77
569.377	43.96
569.718	44.16
570.058	44.25
570.398	44.45
570.739	44.54
571.079	44.67
571.419	44.78
571.759	44.91
572.099	45
572.439	45.08
572.779	45.19
573.119	45.36
573.459	45.45
573.799	45.54
574.139	45.66
574.479	45.77
574.819	45.8
575.158	45.85
575.498	45.97
575.838	46.04
576.177	46.12
576.517	46.21
576.856	46.28
577.196	46.4
577.535	46.43
577.875	46.57
578.214	46.69
578.553	46.86
578.893	46.96
579.232	47.11
579.571	47.31
579.91	47.43
580.25	47.55
580.589	47.66
580.928	47.8
581.267	47.89
581.606	47.97
581.945	48.09
582.283	48.32
582.622	48.44
582.961	48.58
583.3	48.71
583.639	48.76
583.977	48.92
584.316	49.04
584.654	49.2
584.993	49.36
585.332	49.36
585.67	49.41
586.008	49.47
586.347	49.51
586.685	49.61
587.024	49.64
587.362	49.67
587.7	49.71
588.038	49.74
588.376	49.89
588.715	50.05
589.053	50.15
589.391	50.13
589.729	50.14
590.067	50.18
590.404	50.19
590.742	50.2
591.08	50.24
591.418	50.29
591.756	50.35
592.093	50.34
592.431	50.44
592.769	50.5
593.106	50.55
593.444	50.56
593.781	50.58
594.119	50.63
594.456	50.68
594.793	50.73
595.131	50.77
595.468	50.74
595.805	50.73
596.143	50.73
596.48	50.8
596.817	50.84
597.154	50.9
597.491	50.99
597.828	51.17
598.165	51.22
598.502	51.24
598.839	51.2
599.176	51.21
599.512	51.23
599.849	51.25
600.186	51.27
600.523	51.36
600.859	51.32
601.196	51.35
601.532	51.4
601.869	51.49
602.205	51.56
602.542	51.58
602.878	51.58
603.215	51.58
603.551	51.61
603.887	51.65
604.223	51.7
604.56	51.67
604.896	51.62
605.232	51.59
605.568	51.64
605.904	51.65
606.24	51.72
606.576	51.72
606.912	51.82
607.248	51.89
607.583	51.98
607.919	52.07
608.255	52.1
608.591	52.17
608.926	52.19
609.262	52.21
609.597	52.26
609.933	52.29
610.268	52.43
610.604	52.43
610.939	52.5
611.275	52.55
611.61	52.61
611.945	52.65
612.281	52.7
612.616	52.67
612.951	52.84
613.286	52.88
613.621	53.09
613.956	53.1
614.291	53.18
614.626	53.14
614.961	53.19
615.296	53.12
615.631	53.22
615.966	53.26
616.3	53.29
616.635	53.34
616.97	53.37
617.304	53.36
617.639	53.43
617.973	53.41
618.308	53.42
618.642	53.51
618.977	53.52
619.311	53.6
619.646	53.69
619.98	53.7
620.314	53.62
620.648	53.57
620.983	53.53
621.317	53.46
621.651	53.51
621.985	53.51
622.319	53.63
622.653	53.5
622.987	53.47
623.321	53.46
623.655	53.43
623.988	53.47
624.322	53.42
624.656	53.37
624.99	53.45
625.323	53.35
625.657	53.36
625.99	53.39
626.324	53.35
626.657	53.37
626.991	53.33
627.324	53.38
627.658	53.4
627.991	53.45
628.324	53.53
628.657	53.53
628.991	53.62
629.324	53.6
629.657	53.66
629.99	53.72
630.323	53.71
630.656	53.78
630.989	53.84
631.322	53.85
631.655	53.89
631.987	53.81
632.32	53.92
632.653	53.9
632.986	53.93
633.318	54
633.651	54.09
633.984	54.1
634.316	54.2
634.649	54.1
634.981	54.19
635.313	54.18
635.646	54.23
635.978	54.13
636.31	54.21
636.643	54.24
636.975	54.28
637.307	54.39
637.639	54.35
637.971	54.35
638.303	54.4
638.635	54.44
638.967	54.37
639.299	54.39
639.631	54.38
639.963	54.36
640.295	54.35
640.626	54.17
640.958	54.21
641.29	54.12
641.621	54.24
641.953	54.14
642.285	54.12
642.616	54.19
642.948	54.23
643.279	54.14
643.61	54.14
643.942	54.09
644.273	54.04
644.604	54.02
644.936	53.98
645.267	54.02
645.598	54.02
645.929	54.12
646.26	54.03
646.591	54.12
646.922	54.15
647.253	54.13
647.584	54.14
647.915	54.09
648.245	54.1
648.576	54.16
648.907	54.18
649.238	54.25
649.568	54.19
649.899	54.17
650.229	54.27
650.56	54.31
650.89	54.38
651.221	54.56
651.551	54.66
651.882	54.77
652.212	54.76
652.542	54.72
652.872	54.74
653.203	54.8
653.533	54.84
653.863	54.87
654.193	54.97
654.523	55.03
654.853	55.1
655.183	55.09
655.513	55.02
655.843	54.95
656.172	54.88
656.502	54.91
656.832	55.02
657.162	55.01
657.491	54.99
657.821	54.94
658.15	54.77
658.48	54.73
658.809	54.64
659.139	54.72
659.468	54.84
659.798	54.93
660.127	55.01
660.456	55
660.785	55.01
661.115	54.94
661.444	55.02
661.773	55.06
662.102	55.13
662.431	55.19
662.76	55.22
663.089	55.31
663.418	55.28
663.747	55.26
664.076	55.3
664.404	55.28
664.733	55.36
665.062	55.47
665.39	55.46
665.719	55.51
666.048	55.4
666.376	55.36
666.705	55.29
667.033	55.23
667.362	55.1
667.69	55.08
668.018	54.89
668.347	54.85
668.675	54.72
669.003	54.74
669.331	54.72
669.659	54.69
669.987	54.73
670.315	54.8
670.643	54.74
670.971	54.65
671.299	54.68
671.627	54.66
671.955	54.67
672.283	54.67
672.61	54.71
672.938	54.71
673.266	54.74
673.593	54.92
673.921	54.93
674.249	55.15
674.576	55.18
674.904	55.35
675.231	55.39
675.558	55.42
675.886	55.41
676.213	55.27
676.54	55.33
676.867	55.25
677.195	55.16
677.522	55.01
677.849	55.02
678.176	55.03
678.503	55.01
678.83	54.93
679.157	54.94
679.484	54.81
679.81	54.94
680.137	54.79
680.464	54.69
680.791	54.78
681.117	54.59
681.444	54.66
681.771	54.67
682.097	54.67
682.424	54.68
682.75	54.73
683.077	54.81
683.403	54.85
683.729	54.79
684.056	54.8
684.382	55.01
684.708	55.07
685.034	55.06
685.36	55.08
685.686	55.08
686.012	55.14
686.339	55.21
686.664	55.04
686.99	55.15
687.316	55.14
687.642	55.16
687.968	55.13
688.294	55.05
688.619	55.06
688.945	54.94
689.271	54.86
689.596	54.67
689.922	54.75
690.247	54.72
690.573	54.74
690.898	54.82
691.224	54.81
691.549	54.89
691.874	54.94
692.2	54.94
692.525	55.14
692.85	55.07
693.175	55.14
693.5	55.31
693.825	55.26
694.15	55.17
694.475	55.01
694.8	55
695.125	55.1
695.45	55.09
695.775	55.16
696.099	55.3
696.424	55.45
696.749	55.35
697.073	55.34
697.398	55.46
697.723	55.36
698.047	55.23
698.372	55.06
698.696	55.13
699.02	55.01
699.345	54.89
699.669	54.96
699.993	55.06
700.318	54.9
700.642	55
700.966	54.95
701.29	54.91
701.614	55.03
701.938	54.89
702.262	54.93
702.586	55.03
702.91	54.96
703.234	54.84
703.557	54.95
703.881	55.06
704.205	55
704.529	55.04
704.852	55.28
705.176	55.41
705.499	55.34
705.823	55.6
706.146	55.66
706.47	55.64
706.793	55.53
707.117	55.79
707.44	55.59
707.763	55.83
708.086	55.81
708.409	55.77
708.733	55.86
709.056	55.86
709.379	55.86
709.702	55.93
710.025	55.89
710.348	55.84
710.671	55.73
710.993	55.84
711.316	55.92
711.639	55.96
711.962	55.93
712.284	55.92
712.607	55.87
712.93	55.71
713.252	55.66
713.575	55.55
713.897	55.26
714.22	55.29
714.542	55.27
714.864	55.47
715.187	55.49
715.509	55.46
715.831	55.52
716.153	55.55
716.475	55.54
716.798	55.74
717.12	55.89
717.442	55.98
717.764	55.98
718.085	56
718.407	55.87
718.729	56.01
719.051	55.92
719.373	55.72
719.695	55.63
720.016	55.6
720.338	55.72
720.659	56.04
720.981	56.1
721.302	56.33
721.624	56.18
721.945	56.32
722.267	56.54
722.588	56.55
722.909	56.36
723.231	56.57
723.552	56.31
723.873	56.04
724.194	55.89
724.515	55.83
724.836	55.76
725.157	55.88
725.478	55.84
725.799	55.96
726.12	55.98
726.441	56.29
726.762	56.34
727.083	56.22
727.403	56.13
727.724	56.11
728.045	55.98
728.365	56.06
728.686	55.81
729.006	55.74
729.327	55.63
729.647	55.63
729.967	55.37
730.288	55.36
730.608	55.49
730.928	55.47
731.249	55.48
731.569	55.62
731.889	55.58
732.209	55.46
732.529	55.38
732.849	55.56
733.169	55.42
733.489	55.44
733.809	55.48
734.129	55.48
734.448	55.67
734.768	55.77
735.088	55.73
735.408	56.1
735.727	56.06
736.047	56.17
736.366	56.24
736.686	56.36
737.005	56.56
737.325	56.76
737.644	56.9
737.963	56.95
738.283	56.81
738.602	56.67
738.921	56.85
739.24	56.95
739.56	56.76
739.879	56.74
740.198	56.73
740.517	56.91
740.836	56.83
741.155	56.69
741.473	56.45
741.792	56.53
742.111	56.51
742.43	56.57
742.748	56.72
743.067	56.48
743.386	56.46
743.704	56.46
744.023	56.39
744.341	56.42
744.66	56.42
744.978	56.5
745.297	56.56
745.615	56.42
745.933	56.27
746.252	56.03
746.57	56.19
746.888	56.08
747.206	55.99
747.524	56.16
747.842	56.17
748.16	56.2
748.478	56.17
748.796	55.86
749.114	55.73
749.432	55.49
749.749	55.7
750.067	55.69
750.385	55.63
750.703	55.59
751.02	55.48
751.338	55.34
751.655	55.34
751.973	55.51
752.29	55.34
752.608	55.56
752.925	55.99
753.242	56.19
753.56	56.12
753.877	56.22
754.194	56.19
754.511	55.88
754.828	55.85
755.145	56.01
755.462	56.06
755.779	56.05
756.096	56.13
756.413	56.4
756.73	56.39
757.047	56.51
757.364	56.43
757.68	56.42
757.997	56.24
758.314	56.12
758.63	56.07
758.947	56.32
759.264	56.37
759.58	56.24
759.896	55.85
760.213	55.99
760.529	55.72
760.846	55.6
761.162	55.88
761.478	56.06
761.794	55.81
762.11	55.89
762.426	55.99
762.743	55.99
763.059	55.88
763.375	55.93
763.69	55.9
764.006	55.94
764.322	56.05
764.638	56.33
764.954	56.5
765.27	56.47
765.585	56.15
765.901	56.04
766.216	56.06
766.532	56.1
766.848	55.92
767.163	56.03
767.478	55.95
767.794	55.81
768.109	55.78
768.424	55.93
768.74	55.9
769.055	55.77
769.37	55.94
769.685	55.84
770	56.06
770.315	56.24
770.63	56.24
770.945	56.3
771.26	56.09
771.575	55.77
771.89	56.21
772.205	56.76
772.52	56.66
772.834	56.71
773.149	56.81
773.464	57.36
773.778	57.35
774.093	57.37
774.407	57.86
774.722	57.83
775.036	57.44
775.351	57.5
775.665	57.16
775.979	56.82
776.293	57.12
776.608	56.49
776.922	56.01
777.236	56.24
777.55	56.32
777.864	56.45
778.178	57.15
778.492	56.6
778.806	56.7
779.12	57.1
779.434	57.15
779.747	57.16
780.061	56.8
780.375	56.92
780.689	57.19
781.002	56.8
781.316	56.85
781.629	57.35
781.943	57.28
782.256	57.99
782.57	58.23
782.883	58.07
783.196	58.49
783.51	58.98
783.823	58.53
784.136	58.16
784.449	58.07
784.762	57.42
785.075	57.97
785.388	57.47
785.701	57.19
786.014	57.58
786.327	57.81
786.64	58.22
786.953	58.72
787.266	58.71
787.578	59.21
787.891	59.11
788.204	58.93
788.516	58.82
788.829	58.34
789.141	58.47
789.454	58.68
789.766	58.75
790.079	58.59
790.391	58.83
790.703	59.15
791.016	60.08
791.328	60.25
791.64	60.15
791.952	61.03
792.264	60.81
792.576	60.68
792.888	60.44
793.2	59.83
793.512	59.22
793.824	59.57
794.136	59.44
794.448	59.27
794.76	59.21
795.071	59.76
795.383	59.72
795.695	59.51
796.006	59.23
796.318	59.2
796.629	59.52
796.941	59.41
797.252	59.49
797.564	58.62
797.875	58.7
798.186	57.84
798.497	57
798.809	57.24
799.12	57.18
799.431	57.46
799.742	58.12
800.053	57.87
800.364	57.22
800.675	56.95
800.986	57.61
801.297	57.58
801.608	56.88
801.918	57.02
802.229	56.8
802.54	56.94
802.851	56.8
803.161	56.26
803.472	56.42
803.782	55.51
804.093	55.37
804.403	55.42
804.714	56.13
805.024	56.44
805.334	56.64
805.645	56.29
805.955	56.23
806.265	56.54
806.575	56.64
806.885	57.38
807.195	57.27
807.505	56.55
807.815	57.05
808.125	57
808.435	57.47
808.745	57.76
809.055	58.11
809.365	58.24
809.674	58.28
809.984	58.7
810.294	59.91
810.603	60.49
810.913	60.2
811.222	60.78
811.532	60.47
811.841	60.07
812.151	60.26
812.46	60.92
812.769	60.77
813.079	60.82
813.388	59.61
813.697	60.37
814.006	61.13
814.315	60.72
814.624	60.89
814.933	60.44
815.242	60.12
815.551	59.79
815.86	59.82
816.169	59.68
816.478	59.43
816.786	58.35
817.095	58.53
817.404	58.82
817.712	58.27
818.021	58.72
818.33	58.31
818.638	58.62
818.947	57.63
819.255	57.62
819.563	57.56
819.872	57.67
820.18	57.02
820.488	56.66
820.796	56.52
821.105	56.44
821.413	56.61
821.721	56.8
822.029	56.61
822.337	56.42
822.645	56.24
822.953	56.12
823.26	56.25
823.568	56.12
823.876	56.08
824.184	56.14
824.491	55.93
824.799	55.95
825.107	55.79
825.414	55.82
825.722	55.45
826.029	55.67
826.337	55.78
826.644	56.04
826.951	56.08
827.259	56.22
827.566	56.31
827.873	56.41
828.18	56.03
828.488	56.21
828.795	56.28
829.102	56.78
829.409	56.98
829.716	56.85
830.023	56.76
830.329	56.4
830.636	56.22
830.943	56.63
831.25	56.78
831.557	56.74
831.863	56.95
832.17	57.79
832.476	57.13
832.783	57.17
833.089	56.95
833.396	57.18
833.702	57.22
834.009	57.42
834.315	56.95
834.621	57.46
834.928	57.56
835.234	57.78
835.54	57.14
835.846	57.24
836.152	57.56
836.458	57.71
836.764	58.69
837.07	59.05
837.376	58.97
837.682	58.97
837.988	59.4
838.293	59.44
838.599	59.29
838.905	59.68
839.211	59.46
839.516	59.82
839.822	60.01
840.127	59.97
840.433	60.65
840.738	60.41
841.044	61.3
841.349	61.43
841.654	60.94
841.959	62.05
842.265	62.01
842.57	61.64
842.875	61.84
843.18	60.79
843.485	59.98
843.79	60.36
844.095	61.49
844.4	61.29
844.705	61.45
845.01	61
845.315	61.8
845.619	62.46
845.924	62.54
846.229	61.72
846.533	61.65
846.838	59.74
847.142	60.43
847.447	57.71
847.751	57.28
848.056	59.67
848.36	60.55
848.664	59.26
848.969	59.53
849.273	59.39
849.577	60.83
849.881	60.06
850.185	59.75
850.489	57.87
850.794	57.7
851.097	56.63
851.401	56.73
851.705	53.95
852.009	54.22
852.313	53.13
852.617	51.4
852.92	49.95
853.224	50.61
853.528	52.52
853.831	53.61
854.135	54.29
854.438	52.58
854.742	51.13
855.045	50.64
855.349	50.65
855.652	50.77
855.955	51.46
856.259	53.35
856.562	53.29
856.865	54.35
857.168	54.98
857.471	58.19
857.774	57.85
858.077	60.7
858.38	60.39
858.683	60.69
858.986	62.91
859.289	66.2
859.592	66.88
859.894	64.78
860.197	64.87
860.5	62.53
860.802	63.84
861.105	63.96
861.407	65.01
861.71	65.02
862.012	63.71
862.315	61.57
862.617	60.05
862.919	58.46
863.222	58.19
863.524	57.93
863.826	57.3
864.128	55.37
864.43	54.81
864.732	54.59
865.034	53.79
865.336	53.33
865.638	51.98
865.94	50.62
866.242	48.91
866.544	48.55
866.846	52.56
867.147	52.58
867.449	53.29
867.751	52.75
868.052	53.41
868.354	55.5
868.655	56.28
868.957	57.25
869.258	57.36
869.56	58.45
869.861	58.08
870.162	57.63
870.463	61.29
870.765	62.72
871.066	63.06
871.367	67.16
871.668	65.76
871.969	66.59
872.27	66.95
872.571	70.76
872.872	73.05
873.173	71.26
873.473	68.78
873.774	67.96
874.075	69.75
874.376	69.93
874.676	72.77
874.977	71.18
875.277	71.7
875.578	72.92
875.878	72.87
876.179	73.72
876.479	72.96
876.78	72.66
877.08	71.76
877.38	72.7
877.68	69.46
877.981	72.55
878.281	71.72
878.581	74.02
