Data from BA57890_Reflection_00008.txt Node
Date: Mon Nov 18 15:06:10 EST 2019
User: vgr7
Spectrometer: USB2G7710
Scans to average: 3
Trigger mode: 4
Integration Time (sec): 2.000000E-2
Electric dark correction enabled: true
Boxcar width: 10
XAxis mode: Wavelengths
Number of Pixels in Spectrum: 2048
>>>>>Begin Spectral Data<<<<<
177.721	-200.52
178.105	-166.01
178.488	21.77
178.871	10.5
179.254	-15.19
179.636	-12.3
180.019	74.96
180.402	50
180.785	-2094.03
181.168	206.34
181.55	105.96
181.933	93.05
182.316	86.83
182.698	109.62
183.081	167.18
183.463	268.12
183.846	90.67
184.228	79.05
184.611	88.93
184.993	145.9
185.376	32.39
185.758	91.52
186.14	163.4
186.522	192.41
186.904	170.01
187.287	106.39
187.669	255.5
188.051	461.16
188.433	988.5
188.815	-6964.52
189.197	-206.72
189.579	-758.46
189.961	-706.09
190.342	-7440.54
190.724	-2404.59
191.106	865.4
191.488	673.85
191.869	1331.21
192.251	443.01
192.633	2846.48
193.014	243.6
193.396	266.82
193.777	178.99
194.159	178.59
194.54	279.43
194.922	295.71
195.303	453.88
195.684	226.86
196.065	159.88
196.447	101.68
196.828	93.42
197.209	74.43
197.59	104.92
197.971	160.59
198.352	174.04
198.733	311.27
199.114	656.56
199.495	-454.14
199.876	-120.75
200.257	-70.78
200.638	-63.01
201.018	-46.95
201.399	-32.33
201.78	3.23
202.16	-20.67
202.541	-130.77
202.922	-92.37
203.302	-270.28
203.683	-169.51
204.063	-220.7
204.444	-150.86
204.824	-131.93
205.204	-143.8
205.585	-145.85
205.965	-89.56
206.345	-100.22
206.725	-165.63
207.106	-230.53
207.486	-838.73
207.866	-2122.8
208.246	2974.13
208.626	-1779.67
209.006	-1722.64
209.386	854.13
209.766	1045.03
210.145	-686.41
210.525	-390.47
210.905	-241.06
211.285	-115.34
211.664	-79.8
212.044	-68.45
212.424	-37.91
212.803	-43.7
213.183	-24.33
213.562	4.49
213.942	4.85
214.321	6.72
214.701	42.12
215.08	49.89
215.459	60.3
215.838	55.55
216.218	51.17
216.597	52.19
216.976	60.54
217.355	49.07
217.734	44.51
218.113	44.51
218.492	39.83
218.871	27.41
219.25	38.43
219.629	38.2
220.008	31.51
220.387	32.11
220.766	51.27
221.144	48.99
221.523	28.31
221.902	16.57
222.28	5.99
222.659	6.6
223.037	6
223.416	6.02
223.794	7.4
224.173	2.51
224.551	8.55
224.929	4.63
225.308	6.36
225.686	9.54
226.064	12.72
226.442	10.21
226.821	9.53
227.199	3.03
227.577	0.57
227.955	3.02
228.333	1.22
228.711	-0.34
229.089	2.97
229.467	4.25
229.845	3.64
230.222	5.03
230.6	4.46
230.978	3.42
231.356	4.19
231.733	5.15
232.111	6.07
232.488	6.07
232.866	5.84
233.243	6.74
233.621	6.63
233.998	6.3
234.376	4.62
234.753	3.12
235.13	2.42
235.508	1.94
235.885	0.35
236.262	1.48
236.639	0.38
237.016	-0.58
237.393	0.88
237.77	1.88
238.147	2.7
238.524	3.57
238.901	5.09
239.278	5.24
239.655	5.47
240.032	5.48
240.409	5.04
240.785	5.25
241.162	4.81
241.539	4.92
241.915	5.24
242.292	5.02
242.668	5.13
243.045	5.26
243.421	5.31
243.798	5
244.174	4.5
244.551	4.76
244.927	4.73
245.303	4.5
245.679	4.46
246.056	4
246.432	4.02
246.808	3.8
247.184	3.58
247.56	3.51
247.936	3.52
248.312	3.64
248.688	3.66
249.064	3.79
249.44	3.64
249.815	3.35
250.191	3.57
250.567	3.81
250.943	3.79
251.318	3.91
251.694	3.93
252.069	3.88
252.445	3.84
252.82	3.81
253.196	3.63
253.571	3.59
253.947	3.86
254.322	3.47
254.697	3.39
255.073	3.22
255.448	2.93
255.823	2.94
256.198	2.96
256.573	2.91
256.948	3.09
257.323	3.48
257.698	3.69
258.073	3.67
258.448	3.61
258.823	3.63
259.198	3.51
259.573	3.77
259.948	3.8
260.322	3.79
260.697	3.88
261.072	3.87
261.446	3.9
261.821	3.9
262.195	4.02
262.57	4
262.944	4.17
263.319	4.34
263.693	4.21
264.067	4.2
264.442	4.21
264.816	4.01
265.19	3.76
265.564	3.74
265.938	3.77
266.313	3.73
266.687	3.64
267.061	3.69
267.435	3.61
267.809	3.39
268.183	3.49
268.556	3.44
268.93	3.51
269.304	3.43
269.678	3.49
270.051	3.42
270.425	3.47
270.799	3.3
271.172	3.21
271.546	3.3
271.919	3.19
272.293	3.26
272.666	3.26
273.04	3.17
273.413	3.17
273.787	3.1
274.16	3.02
274.533	2.91
274.906	2.9
275.279	2.95
275.653	3.14
276.026	3.03
276.399	2.99
276.772	3.14
277.145	3.16
277.518	3.1
277.891	3.04
278.263	3.03
278.636	3.08
279.009	3.13
279.382	3.28
279.755	3.2
280.127	3.16
280.5	3.31
280.872	3.49
281.245	3.49
281.617	3.64
281.99	3.78
282.362	4.01
282.735	3.89
283.107	3.82
283.479	3.84
283.852	3.84
284.224	3.94
284.596	3.83
284.968	3.95
285.34	3.97
285.713	4.12
286.085	4.15
286.457	4.26
286.829	4.21
287.201	4.14
287.572	4.18
287.944	4.23
288.316	4.17
288.688	4.07
289.06	4.01
289.431	4.06
289.803	4.17
290.175	4.08
290.546	4.2
290.918	4.16
291.289	4.11
291.661	4.18
292.032	4.22
292.403	4.33
292.775	4.27
293.146	4.29
293.517	4.3
293.889	4.26
294.26	4.32
294.631	4.38
295.002	4.29
295.373	4.57
295.744	4.58
296.115	4.66
296.486	4.69
296.857	4.77
297.228	4.73
297.599	4.73
297.97	4.77
298.34	4.8
298.711	4.96
299.082	5.12
299.452	5.15
299.823	5.19
300.194	5.16
300.564	5.22
300.935	5.21
301.305	5.25
301.676	5.38
302.046	5.33
302.416	5.48
302.787	5.72
303.157	5.67
303.527	5.72
303.897	5.79
304.267	5.89
304.637	6
305.008	6.03
305.378	6.18
305.748	6.28
306.117	6.29
306.487	6.26
306.857	6.3
307.227	6.34
307.597	6.45
307.967	6.46
308.336	6.59
308.706	6.8
309.076	6.92
309.445	6.92
309.815	6.98
310.184	6.99
310.554	6.89
310.923	6.91
311.293	6.99
311.662	7.09
312.031	7.22
312.401	7.18
312.77	7.31
313.139	7.18
313.508	7.32
313.877	7.39
314.246	7.46
314.616	7.48
314.985	7.6
315.353	7.54
315.722	7.71
316.091	7.8
316.46	7.82
316.829	7.9
317.198	7.98
317.567	8.08
317.935	8.06
318.304	8.27
318.672	8.38
319.041	8.55
319.41	8.6
319.778	8.58
320.147	8.77
320.515	8.88
320.883	9.04
321.252	9.08
321.62	9.28
321.988	9.39
322.357	9.42
322.725	9.41
323.093	9.71
323.461	9.6
323.829	9.62
324.197	9.73
324.565	9.7
324.933	9.81
325.301	9.81
325.669	9.99
326.037	10.03
326.405	10.04
326.772	10.13
327.14	10.18
327.508	10.32
327.875	10.32
328.243	10.33
328.61	10.41
328.978	10.55
329.346	10.45
329.713	10.4
330.08	10.5
330.448	10.51
330.815	10.38
331.182	10.69
331.55	10.69
331.917	10.62
332.284	10.87
332.651	10.98
333.018	11.12
333.385	11.14
333.752	11.14
334.119	11.12
334.486	10.96
334.853	11.02
335.22	11.1
335.587	11.25
335.954	11.33
336.32	11.3
336.687	11.35
337.054	11.54
337.42	11.74
337.787	11.77
338.153	11.84
338.52	11.92
338.886	11.77
339.253	11.75
339.619	11.88
339.986	11.74
340.352	11.74
340.718	11.76
341.084	11.77
341.451	11.86
341.817	11.99
342.183	12.14
342.549	12.13
342.915	12.26
343.281	12.27
343.647	12.27
344.013	12.47
344.379	12.37
344.745	12.41
345.11	12.41
345.476	12.4
345.842	12.44
346.208	12.44
346.573	12.57
346.939	12.75
347.304	12.71
347.67	12.67
348.035	12.7
348.401	12.68
348.766	12.67
349.132	12.79
349.497	12.7
349.862	12.74
350.228	12.75
350.593	12.57
350.958	12.49
351.323	12.5
351.688	12.35
352.053	12.45
352.418	12.53
352.783	12.52
353.148	12.59
353.513	12.66
353.878	12.69
354.243	12.68
354.608	12.56
354.972	12.52
355.337	12.6
355.702	12.63
356.066	12.59
356.431	12.55
356.795	12.42
357.16	12.45
357.524	12.39
357.889	12.39
358.253	12.44
358.618	12.51
358.982	12.44
359.346	12.48
359.71	12.39
360.075	12.26
360.439	12.25
360.803	12.23
361.167	12.16
361.531	12.1
361.895	12.03
362.259	12
362.623	12.09
362.987	12.02
363.351	12.01
363.714	12.02
364.078	12.02
364.442	12.05
364.806	11.99
365.169	11.98
365.533	11.93
365.896	11.91
366.26	11.79
366.623	11.8
366.987	11.74
367.35	11.75
367.714	11.76
368.077	11.65
368.44	11.57
368.803	11.59
369.167	11.6
369.53	11.58
369.893	11.6
370.256	11.48
370.619	11.47
370.982	11.36
371.345	11.3
371.708	11.25
372.071	11.2
372.434	11.07
372.797	11.03
373.159	10.97
373.522	10.85
373.885	10.82
374.247	10.73
374.61	10.72
374.973	10.61
375.335	10.51
375.698	10.43
376.06	10.4
376.423	10.33
376.785	10.28
377.147	10.27
377.51	10.15
377.872	10.08
378.234	10.05
378.596	10.03
378.958	9.97
379.321	9.96
379.683	9.85
380.045	9.83
380.407	9.76
380.769	9.71
381.13	9.67
381.492	9.64
381.854	9.64
382.216	9.58
382.578	9.6
382.939	9.53
383.301	9.49
383.663	9.45
384.024	9.35
384.386	9.29
384.747	9.25
385.109	9.21
385.47	9.16
385.832	9.09
386.193	9.02
386.554	8.95
386.916	8.86
387.277	8.86
387.638	8.88
387.999	8.75
388.36	8.74
388.721	8.66
389.082	8.58
389.443	8.49
389.804	8.45
390.165	8.32
390.526	8.25
390.887	8.23
391.248	8.17
391.609	8.15
391.969	8.06
392.33	7.98
392.691	7.95
393.051	7.86
393.412	7.81
393.772	7.74
394.133	7.72
394.493	7.69
394.854	7.58
395.214	7.51
395.574	7.5
395.935	7.4
396.295	7.38
396.655	7.33
397.015	7.25
397.376	7.17
397.736	7.15
398.096	7.13
398.456	7.08
398.816	7.02
399.176	6.97
399.535	6.91
399.895	6.83
400.255	6.78
400.615	6.78
400.975	6.73
401.334	6.67
401.694	6.62
402.054	6.59
402.413	6.61
402.773	6.58
403.132	6.51
403.492	6.46
403.851	6.41
404.211	6.36
404.57	6.31
404.929	6.28
405.288	6.23
405.648	6.18
406.007	6.17
406.366	6.18
406.725	6.15
407.084	6.16
407.443	6.15
407.802	6.09
408.161	6.04
408.52	5.99
408.879	5.95
409.238	5.93
409.596	5.9
409.955	5.87
410.314	5.85
410.673	5.87
411.031	5.88
411.39	5.86
411.748	5.87
412.107	5.86
412.465	5.8
412.824	5.77
413.182	5.73
413.54	5.67
413.899	5.64
414.257	5.63
414.615	5.56
414.974	5.56
415.332	5.56
415.69	5.53
416.048	5.53
416.406	5.53
416.764	5.5
417.122	5.48
417.48	5.42
417.838	5.4
418.195	5.34
418.553	5.32
418.911	5.28
419.269	5.24
419.626	5.21
419.984	5.19
420.342	5.19
420.699	5.16
421.057	5.16
421.414	5.11
421.772	5.07
422.129	5.05
422.486	5.01
422.844	4.99
423.201	4.97
423.558	4.96
423.915	4.93
424.273	4.9
424.63	4.87
424.987	4.86
425.344	4.83
425.701	4.83
426.058	4.82
426.415	4.81
426.772	4.79
427.128	4.78
427.485	4.78
427.842	4.76
428.199	4.77
428.555	4.74
428.912	4.74
429.269	4.74
429.625	4.75
429.982	4.75
430.338	4.75
430.695	4.74
431.051	4.73
431.407	4.71
431.764	4.7
432.12	4.68
432.476	4.68
432.832	4.65
433.189	4.65
433.545	4.63
433.901	4.63
434.257	4.63
434.613	4.65
434.969	4.66
435.325	4.65
435.681	4.64
436.036	4.64
436.392	4.64
436.748	4.65
437.104	4.63
437.459	4.63
437.815	4.63
438.171	4.62
438.526	4.62
438.882	4.65
439.237	4.66
439.593	4.66
439.948	4.64
440.304	4.66
440.659	4.65
441.014	4.66
441.369	4.64
441.725	4.63
442.08	4.61
442.435	4.6
442.79	4.6
443.145	4.58
443.5	4.57
443.855	4.55
444.21	4.53
444.565	4.53
444.92	4.54
445.275	4.5
445.629	4.48
445.984	4.46
446.339	4.44
446.693	4.42
447.048	4.4
447.403	4.41
447.757	4.4
448.112	4.37
448.466	4.36
448.82	4.35
449.175	4.34
449.529	4.33
449.883	4.3
450.238	4.28
450.592	4.27
450.946	4.24
451.3	4.26
451.654	4.25
452.008	4.22
452.362	4.22
452.716	4.2
453.07	4.21
453.424	4.21
453.778	4.2
454.132	4.21
454.486	4.22
454.839	4.21
455.193	4.22
455.547	4.23
455.9	4.23
456.254	4.25
456.607	4.28
456.961	4.28
457.314	4.31
457.668	4.3
458.021	4.31
458.375	4.31
458.728	4.3
459.081	4.3
459.434	4.32
459.787	4.31
460.141	4.35
460.494	4.35
460.847	4.35
461.2	4.35
461.553	4.35
461.906	4.36
462.259	4.38
462.611	4.39
462.964	4.43
463.317	4.44
463.67	4.45
464.022	4.44
464.375	4.45
464.728	4.45
465.08	4.48
465.433	4.49
465.785	4.53
466.138	4.55
466.49	4.58
466.843	4.58
467.195	4.61
467.547	4.63
467.899	4.65
468.252	4.67
468.604	4.72
468.956	4.76
469.308	4.78
469.66	4.76
470.012	4.77
470.364	4.76
470.716	4.75
471.068	4.74
471.42	4.77
471.772	4.81
472.123	4.83
472.475	4.83
472.827	4.85
473.178	4.84
473.53	4.84
473.882	4.84
474.233	4.87
474.585	4.86
474.936	4.84
475.288	4.85
475.639	4.85
475.99	4.83
476.342	4.82
476.693	4.83
477.044	4.85
477.395	4.83
477.746	4.83
478.097	4.85
478.448	4.84
478.8	4.81
479.15	4.76
479.501	4.75
479.852	4.75
480.203	4.73
480.554	4.73
480.905	4.75
481.255	4.74
481.606	4.73
481.957	4.74
482.307	4.73
482.658	4.73
483.009	4.72
483.359	4.72
483.709	4.72
484.06	4.7
484.41	4.69
484.761	4.7
485.111	4.7
485.461	4.69
485.811	4.7
486.162	4.7
486.512	4.72
486.862	4.72
487.212	4.72
487.562	4.73
487.912	4.74
488.262	4.73
488.612	4.74
488.961	4.75
489.311	4.75
489.661	4.76
490.011	4.77
490.36	4.78
490.71	4.79
491.06	4.81
491.409	4.83
491.759	4.84
492.108	4.87
492.458	4.88
492.807	4.91
493.157	4.94
493.506	4.97
493.855	4.99
494.204	5.02
494.554	5.05
494.903	5.06
495.252	5.11
495.601	5.15
495.95	5.17
496.299	5.22
496.648	5.26
496.997	5.31
497.346	5.37
497.695	5.43
498.043	5.49
498.392	5.53
498.741	5.6
499.09	5.65
499.438	5.72
499.787	5.79
500.135	5.88
500.484	5.92
500.832	6
501.181	6.09
501.529	6.16
501.878	6.27
502.226	6.37
502.574	6.47
502.923	6.57
503.271	6.69
503.619	6.79
503.967	6.91
504.315	7.03
504.663	7.15
505.011	7.27
505.359	7.38
505.707	7.52
506.055	7.62
506.403	7.74
506.751	7.84
507.098	7.96
507.446	8.07
507.794	8.2
508.141	8.33
508.489	8.46
508.837	8.59
509.184	8.7
509.531	8.83
509.879	8.95
510.226	9.07
510.574	9.16
510.921	9.3
511.268	9.44
511.616	9.57
511.963	9.71
512.31	9.83
512.657	9.99
513.004	10.14
513.351	10.33
513.698	10.52
514.045	10.71
514.392	10.9
514.739	11.06
515.086	11.23
515.432	11.41
515.779	11.58
516.126	11.76
516.473	11.93
516.819	12.1
517.166	12.27
517.512	12.44
517.859	12.63
518.205	12.75
518.552	12.9
518.898	13.02
519.245	13.18
519.591	13.33
519.937	13.49
520.283	13.67
520.629	13.85
520.976	14.01
521.322	14.2
521.668	14.4
522.014	14.63
522.36	14.84
522.706	15.07
523.052	15.33
523.398	15.6
523.743	15.87
524.089	16.14
524.435	16.4
524.781	16.67
525.126	16.91
525.472	17.16
525.817	17.34
526.163	17.52
526.509	17.69
526.854	17.85
527.199	18.01
527.545	18.14
527.89	18.29
528.235	18.45
528.581	18.62
528.926	18.78
529.271	18.96
529.616	19.14
529.961	19.3
530.306	19.47
530.651	19.65
530.996	19.86
531.341	20.08
531.686	20.27
532.031	20.47
532.376	20.69
532.721	20.88
533.065	21.14
533.41	21.42
533.755	21.68
534.099	21.96
534.444	22.23
534.788	22.5
535.133	22.75
535.477	23.04
535.822	23.27
536.166	23.57
536.51	23.85
536.855	24.16
537.199	24.51
537.543	24.84
537.887	25.18
538.231	25.49
538.576	25.82
538.92	26.13
539.264	26.45
539.608	26.76
539.951	27.04
540.295	27.3
540.639	27.55
540.983	27.77
541.327	27.99
541.671	28.23
542.014	28.49
542.358	28.71
542.701	28.94
543.045	29.21
543.389	29.45
543.732	29.69
544.075	29.94
544.419	30.2
544.762	30.43
545.105	30.66
545.449	30.94
545.792	31.2
546.135	31.5
546.478	31.8
546.821	32.09
547.165	32.42
547.508	32.75
547.851	33.09
548.194	33.42
548.536	33.78
548.879	34.09
549.222	34.42
549.565	34.76
549.908	35.09
550.25	35.38
550.593	35.67
550.936	35.99
551.278	36.27
551.621	36.55
551.963	36.9
552.306	37.21
552.648	37.52
552.991	37.83
553.333	38.11
553.675	38.35
554.017	38.58
554.36	38.82
554.702	39.09
555.044	39.3
555.386	39.56
555.728	39.78
556.07	39.98
556.412	40.18
556.754	40.38
557.096	40.57
557.438	40.8
557.78	41.02
558.121	41.2
558.463	41.45
558.805	41.71
559.147	41.93
559.488	42.17
559.83	42.37
560.171	42.58
560.513	42.75
560.854	42.98
561.196	43.22
561.537	43.4
561.878	43.57
562.22	43.81
562.561	43.96
562.902	44.13
563.243	44.3
563.584	44.45
563.925	44.62
564.266	44.76
564.607	44.9
564.948	45.08
565.289	45.26
565.63	45.4
565.971	45.47
566.312	45.57
566.653	45.69
566.993	45.86
567.334	45.95
567.675	46.12
568.015	46.18
568.356	46.29
568.696	46.42
569.037	46.53
569.377	46.62
569.718	46.76
570.058	46.91
570.398	46.98
570.739	47.09
571.079	47.22
571.419	47.34
571.759	47.53
572.099	47.61
572.439	47.67
572.779	47.79
573.119	47.92
573.459	48.01
573.799	48.13
574.139	48.17
574.479	48.25
574.819	48.35
575.158	48.51
575.498	48.64
575.838	48.75
576.177	48.83
576.517	48.96
576.856	49.06
577.196	49.25
577.535	49.45
577.875	49.58
578.214	49.71
578.553	49.89
578.893	49.98
579.232	50.16
579.571	50.32
579.91	50.46
580.25	50.57
580.589	50.74
580.928	50.84
581.267	50.92
581.606	51.09
581.945	51.21
582.283	51.29
582.622	51.37
582.961	51.38
583.3	51.52
583.639	51.69
583.977	51.78
584.316	51.76
584.654	51.77
584.993	51.84
585.332	51.97
585.67	51.94
586.008	52.04
586.347	52.04
586.685	52.13
587.024	52.18
587.362	52.13
587.7	52.09
588.038	52.18
588.376	52.24
588.715	52.24
589.053	52.29
589.391	52.41
589.729	52.49
590.067	52.61
590.404	52.64
590.742	52.58
591.08	52.61
591.418	52.67
591.756	52.71
592.093	52.79
592.431	52.75
592.769	52.79
593.106	52.84
593.444	52.81
593.781	52.8
594.119	52.87
594.456	53.03
594.793	53.14
595.131	53.13
595.468	53.18
595.805	53.28
596.143	53.35
596.48	53.34
596.817	53.39
597.154	53.42
597.491	53.43
597.828	53.47
598.165	53.52
598.502	53.55
598.839	53.63
599.176	53.67
599.512	53.76
599.849	53.86
600.186	53.9
600.523	54.02
600.859	54.13
601.196	54.09
601.532	54.06
601.869	54.06
602.205	54.06
602.542	54.12
602.878	54.01
603.215	53.95
603.551	53.99
603.887	53.95
604.223	53.98
604.56	54.01
604.896	54.04
605.232	54.05
605.568	54.07
605.904	54.11
606.24	54.21
606.576	54.17
606.912	54.16
607.248	54.16
607.583	54.19
607.919	54.27
608.255	54.4
608.591	54.42
608.926	54.41
609.262	54.55
609.597	54.61
609.933	54.76
610.268	54.87
610.604	54.86
610.939	54.92
611.275	54.96
611.61	55.07
611.945	55.12
612.281	55.2
612.616	55.3
612.951	55.35
613.286	55.27
613.621	55.4
613.956	55.46
614.291	55.5
614.626	55.57
614.961	55.57
615.296	55.53
615.631	55.67
615.966	55.9
616.3	55.9
616.635	55.97
616.97	56.02
617.304	56.06
617.639	56.22
617.973	56.25
618.308	56.35
618.642	56.3
618.977	56.36
619.311	56.27
619.646	56.2
619.98	56.19
620.314	56.29
620.648	56.34
620.983	56.42
621.317	56.48
621.651	56.47
621.985	56.4
622.319	56.46
622.653	56.41
622.987	56.31
623.321	56.31
623.655	56.25
623.988	56.28
624.322	56.19
624.656	56.19
624.99	56.23
625.323	56.22
625.657	56.31
625.99	56.32
626.324	56.48
626.657	56.51
626.991	56.62
627.324	56.55
627.658	56.56
627.991	56.52
628.324	56.54
628.657	56.53
628.991	56.61
629.324	56.67
629.657	56.78
629.99	56.87
630.323	56.91
630.656	56.94
630.989	56.98
631.322	57.01
631.655	57.02
631.987	57.1
632.32	57.12
632.653	57.06
632.986	57.01
633.318	56.88
633.651	56.97
633.984	56.87
634.316	56.93
634.649	56.96
634.981	57.06
635.313	57.08
635.646	57.15
635.978	57.1
636.31	57.07
636.643	57
636.975	57.03
637.307	57.11
637.639	57.13
637.971	57.17
638.303	57.33
638.635	57.29
638.967	57.15
639.299	57.16
639.631	57.24
639.963	57.29
640.295	57.41
640.626	57.51
640.958	57.69
641.29	57.7
641.621	57.71
641.953	57.73
642.285	57.71
642.616	57.85
642.948	57.93
643.279	57.91
643.61	58.03
643.942	58.03
644.273	57.98
644.604	58.07
644.936	58.06
645.267	57.96
645.598	58.03
645.929	58.17
646.26	58.3
646.591	58.32
646.922	58.29
647.253	58.34
647.584	58.31
647.915	58.28
648.245	58.24
648.576	58.31
648.907	58.35
649.238	58.29
649.568	58.19
649.899	58.17
650.229	58.28
650.56	58.2
650.89	58.14
651.221	58.21
651.551	58.31
651.882	58.39
652.212	58.51
652.542	58.5
652.872	58.52
653.203	58.48
653.533	58.47
653.863	58.62
654.193	58.6
654.523	58.54
654.853	58.55
655.183	58.6
655.513	58.57
655.843	58.45
656.172	58.5
656.502	58.53
656.832	58.62
657.162	58.58
657.491	58.67
657.821	58.79
658.15	58.71
658.48	58.62
658.809	58.58
659.139	58.58
659.468	58.6
659.798	58.56
660.127	58.55
660.456	58.58
660.785	58.54
661.115	58.52
661.444	58.61
661.773	58.63
662.102	58.71
662.431	58.81
662.76	58.88
663.089	58.93
663.418	59.08
663.747	59.1
664.076	59.19
664.404	59.15
664.733	59.12
665.062	59.18
665.39	59.2
665.719	59.12
666.048	59.07
666.376	59.04
666.705	59.06
667.033	58.98
667.362	59.06
667.69	58.95
668.018	59.02
668.347	59.05
668.675	58.92
669.003	58.88
669.331	58.88
669.659	58.95
669.987	59.05
670.315	59
670.643	58.95
670.971	58.95
671.299	58.93
671.627	58.92
671.955	58.88
672.283	58.94
672.61	58.95
672.938	59.02
673.266	59.11
673.593	59.22
673.921	59.36
674.249	59.32
674.576	59.55
674.904	59.61
675.231	59.55
675.558	59.56
675.886	59.49
676.213	59.52
676.54	59.53
676.867	59.48
677.195	59.36
677.522	59.49
677.849	59.31
678.176	59.32
678.503	59.31
678.83	59.35
679.157	59.18
679.484	59.21
679.81	59.31
680.137	59.3
680.464	59.29
680.791	59.28
681.117	59.27
681.444	59.14
681.771	59.17
682.097	59.15
682.424	59.36
682.75	59.55
683.077	59.43
683.403	59.4
683.729	59.49
684.056	59.52
684.382	59.41
684.708	59.5
685.034	59.61
685.36	59.62
685.686	59.68
686.012	59.91
686.339	59.96
686.664	59.76
686.99	59.77
687.316	59.73
687.642	59.76
687.968	59.78
688.294	59.8
688.619	59.72
688.945	59.73
689.271	59.57
689.596	59.35
689.922	59.3
690.247	59.33
690.573	59.28
690.898	59.35
691.224	59.33
691.549	59.52
691.874	59.52
692.2	59.53
692.525	59.53
692.85	59.33
693.175	59.21
693.5	59.25
693.825	59.22
694.15	59.23
694.475	59.28
694.8	59.23
695.125	59.31
695.45	59.2
695.775	59.16
696.099	59.18
696.424	59.34
696.749	59.48
697.073	59.49
697.398	59.43
697.723	59.33
698.047	59.4
698.372	59.3
698.696	59.22
699.02	59.17
699.345	59.26
699.669	59.3
699.993	59.42
700.318	59.57
700.642	59.57
700.966	59.6
701.29	59.52
701.614	59.61
701.938	59.43
702.262	59.55
702.586	59.6
702.91	59.61
703.234	59.77
703.557	59.73
703.881	59.69
704.205	59.68
704.529	59.93
704.852	59.92
705.176	59.97
705.499	60.14
705.823	60.15
706.146	59.96
706.47	60.2
706.793	60.33
707.117	60.26
707.44	60.4
707.763	60.36
708.086	60.38
708.409	60.29
708.733	60.44
709.056	60.53
709.379	60.6
709.702	60.51
710.025	60.16
710.348	60.1
710.671	60.27
710.993	60.27
711.316	60.07
711.639	60.08
711.962	59.92
712.284	59.79
712.607	59.96
712.93	60.1
713.252	59.89
713.575	59.84
713.897	59.82
714.22	59.8
714.542	59.78
714.864	59.73
715.187	59.95
715.509	59.97
715.831	59.84
716.153	59.89
716.475	60.23
716.798	60.56
717.12	60.59
717.442	60.47
717.764	60.64
718.085	60.68
718.407	60.58
718.729	60.66
719.051	60.84
719.373	60.73
719.695	60.69
720.016	60.7
720.338	60.84
720.659	61.08
720.981	61.05
721.302	60.96
721.624	60.96
721.945	60.8
722.267	60.92
722.588	61.17
722.909	60.95
723.231	60.71
723.552	60.73
723.873	60.87
724.194	60.95
724.515	60.85
724.836	60.88
725.157	61.08
725.478	61.12
725.799	61.07
726.12	61.06
726.441	61.05
726.762	61.19
727.083	60.97
727.403	60.71
727.724	60.8
728.045	60.99
728.365	61.1
728.686	61.15
729.006	61.01
729.327	60.75
729.647	61.02
729.967	60.83
730.288	60.63
730.608	60.47
730.928	60.36
731.249	60.46
731.569	60.61
731.889	60.65
732.209	60.68
732.529	60.69
732.849	60.84
733.169	60.99
733.489	60.82
733.809	60.95
734.129	60.99
734.448	60.73
734.768	60.33
735.088	60.31
735.408	60.11
735.727	60.11
736.047	60.47
736.366	60.32
736.686	60.55
737.005	60.43
737.325	60.63
737.644	60.54
737.963	60.51
738.283	60.32
738.602	59.96
738.921	59.9
739.24	59.71
739.56	59.53
739.879	59.52
740.198	59.59
740.517	59.58
740.836	59.52
741.155	59.77
741.473	60.2
741.792	60.22
742.111	60.41
742.43	60.43
742.748	60.11
743.067	60.28
743.386	60.44
743.704	60.73
744.023	60.66
744.341	61
744.66	61.14
744.978	61.29
745.297	61.76
745.615	61.73
745.933	61.94
746.252	62.07
746.57	61.72
746.888	61.57
747.206	61.5
747.524	61.54
747.842	61.56
748.16	61.34
748.478	61.42
748.796	61.4
749.114	61.79
749.432	61.7
749.749	61.43
750.067	61.45
750.385	61.37
750.703	61.34
751.02	61.08
751.338	61.01
751.655	60.7
751.973	60.4
752.29	60.46
752.608	60.35
752.925	60.42
753.242	60.84
753.56	60.87
753.877	60.69
754.194	60.67
754.511	60.72
754.828	60.47
755.145	60.44
755.462	60.56
755.779	60.37
756.096	60.49
756.413	60.59
756.73	60.29
757.047	60.35
757.364	60.26
757.68	60.35
757.997	60
758.314	60.24
758.63	60.48
758.947	60.85
759.264	60.94
759.58	60.64
759.896	60.72
760.213	60.82
760.529	61.13
760.846	61.06
761.162	60.97
761.478	61.16
761.794	60.78
762.11	60.64
762.426	60.67
762.743	60.52
763.059	60.17
763.375	60.17
763.69	60.26
764.006	60.49
764.322	60.56
764.638	60.62
764.954	60.59
765.27	60.41
765.585	60.24
765.901	60.26
766.216	60.41
766.532	60.01
766.848	60
767.163	59.98
767.478	60.09
767.794	60.25
768.109	60.23
768.424	60.56
768.74	60.68
769.055	60.55
769.37	60.8
769.685	61.09
770	61.03
770.315	60.83
770.63	60.38
770.945	60.08
771.26	60.16
771.575	60.12
771.89	60.35
772.205	60.4
772.52	60.33
772.834	60.2
773.149	60.08
773.464	60.23
773.778	59.94
774.093	59.75
774.407	59.72
774.722	59.79
775.036	59.69
775.351	59.73
775.665	59.66
775.979	59.53
776.293	59.81
776.608	59.88
776.922	60.07
777.236	60.43
777.55	60.55
777.864	60.7
778.178	60.63
778.492	60.77
778.806	60.41
779.12	60.4
779.434	60.36
779.747	60.78
780.061	60.68
780.375	60.88
780.689	61.14
781.002	60.9
781.316	60.96
781.629	60.98
781.943	61.18
782.256	61.11
782.57	61.15
782.883	60.64
783.196	60.87
783.51	60.18
783.823	60.07
784.136	60.54
784.449	60.44
784.762	60.48
785.075	60.28
785.388	59.88
785.701	59.93
786.014	59.77
786.327	59.66
786.64	59.31
786.953	59.75
787.266	59.96
787.578	59.76
787.891	59.55
788.204	59.67
788.516	59.6
788.829	59.5
789.141	59.66
789.454	59.61
789.766	59.64
790.079	60.35
790.391	60.13
790.703	59.71
791.016	59.35
791.328	59.31
791.64	59.82
791.952	60.33
792.264	60.07
792.576	60.82
792.888	61.59
793.2	62.01
793.512	61.81
793.824	61.03
794.136	61.02
794.448	61.15
794.76	61.22
795.071	61.17
795.383	61.32
795.695	61.3
796.006	61.79
796.318	61.17
796.629	61.11
796.941	61.09
797.252	61.1
797.564	61.16
797.875	60.9
798.186	60.52
798.497	60.34
798.809	60.6
799.12	60.3
799.431	59.82
799.742	60.34
800.053	59.59
800.364	60.42
800.675	59.93
800.986	60.14
801.297	59.98
801.608	58.72
801.918	58.72
802.229	58.61
802.54	57.98
802.851	58.58
803.161	58.53
803.472	58.66
803.782	58.45
804.093	58.97
804.403	58.81
804.714	58.59
805.024	58.24
805.334	58.55
805.645	58.24
805.955	58.43
806.265	57.89
806.575	58.36
806.885	57.81
807.195	58.11
807.505	57.71
807.815	58.32
808.125	59.8
808.435	59.22
808.745	59.27
809.055	59.96
809.365	59.56
809.674	59.36
809.984	59.89
810.294	60.4
810.603	60.35
810.913	61.08
811.222	60.8
811.532	61.11
811.841	60.81
812.151	61.09
812.46	60.24
812.769	59.73
813.079	59.58
813.388	60.53
813.697	61
814.006	60.53
814.315	61
814.624	60.53
814.933	61.18
815.242	61.66
815.551	62.03
815.86	62.38
816.169	62.47
816.478	61.44
816.786	61.17
817.095	61.38
817.404	61.7
817.712	62.3
818.021	61.81
818.33	61.27
818.638	61.11
818.947	61.43
819.255	61.98
819.563	61.8
819.872	61.14
820.18	61.01
820.488	61.46
820.796	61.07
821.105	61.26
821.413	61.33
821.721	61.19
822.029	61.25
822.337	61.24
822.645	61.26
822.953	61.41
823.26	61.26
823.568	61.13
823.876	60.9
824.184	60.87
824.491	61.09
824.799	61.12
825.107	61.1
825.414	61.1
825.722	61.01
826.029	61.09
826.337	61.37
826.644	61.39
826.951	61.34
827.259	61.37
827.566	61.3
827.873	61.26
828.18	61.25
828.488	61.06
828.795	60.78
829.102	60.48
829.409	60.37
829.716	60.67
830.023	60.77
830.329	60.91
830.636	60.68
830.943	60.8
831.25	60.7
831.557	61.1
831.863	60.92
832.17	60.48
832.476	60.58
832.783	60.07
833.089	60.18
833.396	60.02
833.702	60.37
834.009	60.27
834.315	60.05
834.621	60.23
834.928	60.23
835.234	60.64
835.54	60.75
835.846	60.84
836.152	60.89
836.458	61.29
836.764	61.21
837.07	61.3
837.376	60.93
837.682	61.64
837.988	61.13
838.293	61.08
838.599	61.64
838.905	61.52
839.211	61.31
839.516	61.08
839.822	61.43
840.127	60.94
840.433	60.57
840.738	60.81
841.044	60.24
841.349	59.61
841.654	58.91
841.959	58.36
842.265	59.02
842.57	57.8
842.875	56.13
843.18	55.36
843.485	55.92
843.79	56.04
844.095	55.63
844.4	55.55
844.705	55.79
845.01	54.68
845.315	54.98
845.619	54.65
845.924	54.5
846.229	54.75
846.533	53.87
846.838	53.39
847.142	52.64
847.447	51.47
847.751	52.54
848.056	52.95
848.36	54.11
848.664	53.38
848.969	54.25
849.273	54.81
849.577	57.87
849.881	56.77
850.185	56.47
850.489	57.07
850.794	57.3
851.097	56.43
851.401	56.98
851.705	56.33
852.009	57.44
852.313	56.58
852.617	56.45
852.92	56.74
853.224	58.04
853.528	59.37
853.831	59.47
854.135	59.78
854.438	59.98
854.742	62.35
855.045	63.66
855.349	63.73
855.652	63.83
855.955	64.08
856.259	62.19
856.562	63.12
856.865	61.43
857.168	62.26
857.471	63.63
857.774	67.27
858.077	65.9
858.38	67.13
858.683	69.3
858.986	67.75
859.289	68.05
859.592	65.53
859.894	66.01
860.197	68.71
860.5	66.57
860.802	66.27
861.105	64.7
861.407	63.12
861.71	63.86
862.012	61.36
862.315	59.66
862.617	61.52
862.919	61.65
863.222	63.79
863.524	62.22
863.826	63.14
864.128	61.05
864.43	61.25
864.732	60.8
865.034	61.5
865.336	60.62
865.638	60.84
865.94	62.14
866.242	62.55
866.544	59.46
866.846	60.92
867.147	61.33
867.449	61.55
867.751	60.83
868.052	60.64
868.354	63.32
868.655	62.47
868.957	64.06
869.258	62.15
869.56	59.21
869.861	60.12
870.162	59.26
870.463	58.16
870.765	60.45
871.066	59.94
871.367	59.6
871.668	60.86
871.969	60.44
872.27	58.54
872.571	57.28
872.872	59.5
873.173	57.98
873.473	59.01
873.774	57.1
874.075	56.24
874.376	54.91
874.676	54.71
874.977	53.37
875.277	53
875.578	53.92
875.878	54.29
876.179	53.8
876.479	52.95
876.78	53.12
877.08	50.13
877.38	48.33
877.68	46.56
877.981	46.89
878.281	46.96
878.581	49.96
