Data from BA57662_Reflection_00014.txt Node
Date: Mon Nov 18 15:34:56 EST 2019
User: vgr7
Spectrometer: USB2G7710
Scans to average: 3
Trigger mode: 4
Integration Time (sec): 2.000000E-2
Electric dark correction enabled: true
Boxcar width: 10
XAxis mode: Wavelengths
Number of Pixels in Spectrum: 2048
>>>>>Begin Spectral Data<<<<<
177.721	-17.92
178.105	22.92
178.488	38.35
178.871	29.52
179.254	40.77
179.636	355.64
180.019	-144.49
180.402	270.59
180.785	-45.91
181.168	16.43
181.55	-182.69
181.933	33.14
182.316	25.96
182.698	19.4
183.081	39.5
183.463	18.75
183.846	2.6
184.228	14.5
184.611	37.47
184.993	28.07
185.376	44.51
185.758	20.61
186.14	35.2
186.522	29.05
186.904	77.43
187.287	60.16
187.669	62.57
188.051	42.48
188.433	17.82
188.815	14.75
189.197	20.36
189.579	-13.93
189.961	-31.29
190.342	-54.29
190.724	-30.7
191.106	-19.08
191.488	-20.57
191.869	-12.56
192.251	-19.19
192.633	-0.34
193.014	-1.5
193.396	-16.42
193.777	-41.45
194.159	-40.15
194.54	-45.4
194.922	-35.52
195.303	-26.91
195.684	-33.63
196.065	-11.82
196.447	-16.58
196.828	-21.76
197.209	-13.97
197.59	-1.07
197.971	2.83
198.352	26.74
198.733	21.95
199.114	23.25
199.495	20.26
199.876	19.88
200.257	31
200.638	38.8
201.018	22.13
201.399	28.4
201.78	30.67
202.16	10.93
202.541	-3.49
202.922	-28.34
203.302	-33.81
203.683	-24.9
204.063	-44.02
204.444	-24.03
204.824	-19.08
205.204	-18.28
205.585	-4.38
205.965	-1.56
206.345	-1.88
206.725	-14.99
207.106	-25.96
207.486	-38.07
207.866	-51.83
208.246	-65.71
208.626	-76.45
209.006	-59.45
209.386	-64.58
209.766	-45.8
210.145	-49.16
210.525	-20.72
210.905	-3.69
211.285	6.2
211.664	15.28
212.044	20
212.424	15.89
212.803	10.85
213.183	16.82
213.562	10.05
213.942	29.66
214.321	33.44
214.701	44.54
215.08	23.66
215.459	15.86
215.838	25.27
216.218	51.27
216.597	61.41
216.976	70.6
217.355	69.4
217.734	59.48
218.113	60.73
218.492	52
218.871	44.3
219.25	37.45
219.629	35.09
220.008	37.06
220.387	34.66
220.766	37.44
221.144	30.6
221.523	9.85
221.902	8.23
222.28	-8.74
222.659	-10.11
223.037	1.18
223.416	2.71
223.794	-3.28
224.173	-5.56
224.551	-6.76
224.929	-9.66
225.308	-6.43
225.686	-3.79
226.064	-3.08
226.442	-3.68
226.821	-0.11
227.199	-0.18
227.577	-2.14
227.955	-0.49
228.333	0.93
228.711	4.9
229.089	8.88
229.467	9.98
229.845	7.34
230.222	8.27
230.6	6.74
230.978	6.31
231.356	7.7
231.733	8.88
232.111	7.82
232.488	3.77
232.866	5.5
233.243	4.87
233.621	3.58
233.998	3.24
234.376	4.03
234.753	5.64
235.13	5.53
235.508	7.66
235.885	4.88
236.262	4.49
236.639	1.49
237.016	1.91
237.393	3.62
237.77	5.26
238.147	5.37
238.524	5.71
238.901	6.11
239.278	6.68
239.655	6.82
240.032	6.73
240.409	7.47
240.785	7.04
241.162	7.25
241.539	7.79
241.915	7.89
242.292	7.47
242.668	6.36
243.045	5.94
243.421	5.38
243.798	5.22
244.174	5.08
244.551	5.17
244.927	4.72
245.303	4.76
245.679	4.63
246.056	4.82
246.432	5.03
246.808	4.85
247.184	4.44
247.56	4.1
247.936	4.04
248.312	4.03
248.688	4.12
249.064	3.77
249.44	3.51
249.815	3.4
250.191	3.73
250.567	4.15
250.943	4.41
251.318	4.52
251.694	4.86
252.069	4.98
252.445	4.88
252.82	4.87
253.196	4.78
253.571	4.72
253.947	4.54
254.322	4.51
254.697	4.37
255.073	4.19
255.448	4.07
255.823	4.15
256.198	4.26
256.573	4.36
256.948	4.7
257.323	4.72
257.698	4.68
258.073	4.36
258.448	4.11
258.823	4
259.198	3.87
259.573	3.89
259.948	3.8
260.322	3.95
260.697	3.93
261.072	3.74
261.446	3.76
261.821	3.81
262.195	3.81
262.57	3.91
262.944	3.95
263.319	4.09
263.693	3.97
264.067	4.11
264.442	3.95
264.816	3.68
265.19	3.73
265.564	3.7
265.938	3.74
266.313	3.86
266.687	3.82
267.061	3.94
267.435	3.77
267.809	3.74
268.183	3.64
268.556	3.66
268.93	3.81
269.304	3.75
269.678	3.64
270.051	3.6
270.425	3.7
270.799	3.93
271.172	3.92
271.546	4.05
271.919	3.78
272.293	3.82
272.666	4.08
273.04	4.13
273.413	4.19
273.787	4.36
274.16	4.32
274.533	4.31
274.906	4.25
275.279	4.27
275.653	4.35
276.026	4.3
276.399	4.26
276.772	4.28
277.145	4.31
277.518	4.48
277.891	4.66
278.263	4.53
278.636	4.31
279.009	4.35
279.382	4.42
279.755	4.35
280.127	4.48
280.5	4.43
280.872	4.38
281.245	4.37
281.617	4.18
281.99	4.43
282.362	4.55
282.735	4.48
283.107	4.46
283.479	4.46
283.852	4.53
284.224	4.63
284.596	4.62
284.968	4.65
285.34	4.62
285.713	4.41
286.085	4.47
286.457	4.62
286.829	4.67
287.201	4.71
287.572	4.75
287.944	4.62
288.316	4.67
288.688	4.64
289.06	4.58
289.431	4.74
289.803	4.62
290.175	4.64
290.546	4.82
290.918	4.79
291.289	4.85
291.661	4.89
292.032	4.91
292.403	4.96
292.775	4.98
293.146	4.91
293.517	5.05
293.889	5.06
294.26	5.07
294.631	5.07
295.002	5.01
295.373	5.18
295.744	5.21
296.115	5.14
296.486	5.02
296.857	5.01
297.228	4.99
297.599	5.05
297.97	5.14
298.34	5.16
298.711	5.32
299.082	5.35
299.452	5.45
299.823	5.53
300.194	5.66
300.564	5.76
300.935	5.88
301.305	5.96
301.676	6.08
302.046	6.16
302.416	6.27
302.787	6.35
303.157	6.39
303.527	6.5
303.897	6.69
304.267	7.01
304.637	7.21
305.008	7.33
305.378	7.43
305.748	7.48
306.117	7.61
306.487	7.72
306.857	7.8
307.227	7.86
307.597	7.99
307.967	8.03
308.336	8.09
308.706	8.13
309.076	8.17
309.445	8.11
309.815	8.09
310.184	8.17
310.554	8.25
310.923	8.33
311.293	8.42
311.662	8.56
312.031	8.66
312.401	8.81
312.77	8.95
313.139	9.07
313.508	9.05
313.877	9.04
314.246	9.04
314.616	9.19
314.985	9.27
315.353	9.3
315.722	9.43
316.091	9.53
316.46	9.64
316.829	9.85
317.198	10.09
317.567	10.23
317.935	10.25
318.304	10.33
318.672	10.32
319.041	10.44
319.41	10.4
319.778	10.56
320.147	10.63
320.515	10.65
320.883	10.53
321.252	10.86
321.62	11.03
321.988	11.26
322.357	11.18
322.725	11.33
323.093	11.38
323.461	11.38
323.829	11.48
324.197	11.71
324.565	11.71
324.933	11.71
325.301	11.83
325.669	12.06
326.037	12.2
326.405	12.26
326.772	12.41
327.14	12.53
327.508	12.52
327.875	12.47
328.243	12.63
328.61	12.89
328.978	12.78
329.346	12.94
329.713	12.9
330.08	13.1
330.448	13.06
330.815	13.18
331.182	13.28
331.55	13.34
331.917	13.39
332.284	13.65
332.651	13.69
333.018	13.71
333.385	13.72
333.752	13.76
334.119	13.93
334.486	13.94
334.853	14.05
335.22	14.05
335.587	14.19
335.954	14.22
336.32	14.22
336.687	14.35
337.054	14.4
337.42	14.51
337.787	14.66
338.153	14.68
338.52	14.77
338.886	14.79
339.253	14.79
339.619	14.78
339.986	14.72
340.352	14.94
340.718	14.99
341.084	15.08
341.451	15.16
341.817	15.22
342.183	15.3
342.549	15.33
342.915	15.41
343.281	15.39
343.647	15.43
344.013	15.51
344.379	15.53
344.745	15.52
345.11	15.53
345.476	15.54
345.842	15.64
346.208	15.79
346.573	15.96
346.939	16.15
347.304	16.12
347.67	16.02
348.035	16.05
348.401	16.16
348.766	16.12
349.132	16.11
349.497	16.08
349.862	16.07
350.228	16.03
350.593	16
350.958	16.12
351.323	16.06
351.688	16.04
352.053	16.19
352.418	16.19
352.783	16.24
353.148	16.18
353.513	16.13
353.878	16.05
354.243	15.99
354.608	15.84
354.972	15.9
355.337	16.04
355.702	16.05
356.066	16.11
356.431	16.1
356.795	16.16
357.16	16.17
357.524	16.13
357.889	16.21
358.253	16.28
358.618	16.34
358.982	16.42
359.346	16.31
359.71	16.18
360.075	16.32
360.439	16.35
360.803	16.37
361.167	16.36
361.531	16.29
361.895	16.26
362.259	16.36
362.623	16.35
362.987	16.32
363.351	16.32
363.714	16.25
364.078	16.25
364.442	16.16
364.806	16.16
365.169	16.17
365.533	16.15
365.896	16.08
366.26	15.95
366.623	15.85
366.987	15.9
367.35	15.89
367.714	15.72
368.077	15.6
368.44	15.57
368.803	15.54
369.167	15.47
369.53	15.39
369.893	15.3
370.256	15.31
370.619	15.22
370.982	15.06
371.345	14.95
371.708	14.9
372.071	14.92
372.434	14.84
372.797	14.83
373.159	14.72
373.522	14.63
373.885	14.55
374.247	14.53
374.61	14.51
374.973	14.41
375.335	14.38
375.698	14.37
376.06	14.26
376.423	14.22
376.785	14.21
377.147	14.16
377.51	14.07
377.872	14.03
378.234	14
378.596	13.99
378.958	13.95
379.321	13.89
379.683	13.77
380.045	13.7
380.407	13.55
380.769	13.51
381.13	13.49
381.492	13.47
381.854	13.44
382.216	13.35
382.578	13.32
382.939	13.25
383.301	13.18
383.663	13.08
384.024	13
384.386	13
384.747	13.01
385.109	12.96
385.47	12.83
385.832	12.74
386.193	12.68
386.554	12.66
386.916	12.57
387.277	12.53
387.638	12.48
387.999	12.45
388.36	12.39
388.721	12.3
389.082	12.22
389.443	12.1
389.804	12.07
390.165	12
390.526	11.92
390.887	11.83
391.248	11.81
391.609	11.77
391.969	11.7
392.33	11.62
392.691	11.59
393.051	11.5
393.412	11.43
393.772	11.34
394.133	11.25
394.493	11.17
394.854	11.08
395.214	11.02
395.574	10.99
395.935	10.89
396.295	10.81
396.655	10.72
397.015	10.64
397.376	10.55
397.736	10.47
398.096	10.43
398.456	10.36
398.816	10.32
399.176	10.23
399.535	10.13
399.895	10.05
400.255	9.94
400.615	9.89
400.975	9.85
401.334	9.77
401.694	9.69
402.054	9.63
402.413	9.58
402.773	9.54
403.132	9.44
403.492	9.41
403.851	9.38
404.211	9.37
404.57	9.32
404.929	9.27
405.288	9.21
405.648	9.15
406.007	9.11
406.366	9.04
406.725	9.05
407.084	9.01
407.443	9
407.802	9.01
408.161	8.97
408.52	8.91
408.879	8.91
409.238	8.89
409.596	8.91
409.955	8.85
410.314	8.79
410.673	8.78
411.031	8.73
411.39	8.7
411.748	8.67
412.107	8.63
412.465	8.56
412.824	8.53
413.182	8.47
413.54	8.45
413.899	8.41
414.257	8.34
414.615	8.28
414.974	8.2
415.332	8.09
415.69	8.03
416.048	7.99
416.406	7.91
416.764	7.84
417.122	7.81
417.48	7.79
417.838	7.73
418.195	7.69
418.553	7.65
418.911	7.61
419.269	7.56
419.626	7.5
419.984	7.48
420.342	7.45
420.699	7.41
421.057	7.36
421.414	7.32
421.772	7.29
422.129	7.28
422.486	7.24
422.844	7.24
423.201	7.22
423.558	7.17
423.915	7.14
424.273	7.14
424.63	7.09
424.987	7.06
425.344	7.05
425.701	7
426.058	6.97
426.415	6.94
426.772	6.91
427.128	6.89
427.485	6.87
427.842	6.85
428.199	6.85
428.555	6.83
428.912	6.83
429.269	6.8
429.625	6.75
429.982	6.73
430.338	6.69
430.695	6.67
431.051	6.67
431.407	6.66
431.764	6.63
432.12	6.61
432.476	6.56
432.832	6.54
433.189	6.54
433.545	6.54
433.901	6.54
434.257	6.51
434.613	6.51
434.969	6.5
435.325	6.49
435.681	6.46
436.036	6.43
436.392	6.42
436.748	6.41
437.104	6.4
437.459	6.38
437.815	6.38
438.171	6.37
438.526	6.38
438.882	6.37
439.237	6.36
439.593	6.36
439.948	6.36
440.304	6.34
440.659	6.34
441.014	6.33
441.369	6.32
441.725	6.32
442.08	6.31
442.435	6.29
442.79	6.26
443.145	6.25
443.5	6.24
443.855	6.22
444.21	6.21
444.565	6.2
444.92	6.19
445.275	6.18
445.629	6.18
445.984	6.14
446.339	6.11
446.693	6.09
447.048	6.06
447.403	6.05
447.757	6.04
448.112	6.02
448.466	5.99
448.82	5.98
449.175	5.96
449.529	5.94
449.883	5.88
450.238	5.87
450.592	5.87
450.946	5.86
451.3	5.82
451.654	5.79
452.008	5.77
452.362	5.74
452.716	5.68
453.07	5.65
453.424	5.64
453.778	5.62
454.132	5.61
454.486	5.61
454.839	5.61
455.193	5.61
455.547	5.59
455.9	5.58
456.254	5.57
456.607	5.57
456.961	5.55
457.314	5.57
457.668	5.58
458.021	5.54
458.375	5.53
458.728	5.54
459.081	5.55
459.434	5.54
459.787	5.56
460.141	5.57
460.494	5.59
460.847	5.61
461.2	5.62
461.553	5.63
461.906	5.65
462.259	5.66
462.611	5.68
462.964	5.69
463.317	5.71
463.67	5.73
464.022	5.75
464.375	5.78
464.728	5.81
465.08	5.84
465.433	5.88
465.785	5.91
466.138	5.94
466.49	5.95
466.843	5.99
467.195	6
467.547	6.04
467.899	6.06
468.252	6.07
468.604	6.12
468.956	6.14
469.308	6.16
469.66	6.16
470.012	6.15
470.364	6.19
470.716	6.2
471.068	6.22
471.42	6.24
471.772	6.25
472.123	6.27
472.475	6.27
472.827	6.29
473.178	6.28
473.53	6.26
473.882	6.27
474.233	6.26
474.585	6.24
474.936	6.23
475.288	6.25
475.639	6.27
475.99	6.24
476.342	6.24
476.693	6.24
477.044	6.24
477.395	6.24
477.746	6.23
478.097	6.22
478.448	6.21
478.8	6.21
479.15	6.19
479.501	6.19
479.852	6.18
480.203	6.17
480.554	6.18
480.905	6.2
481.255	6.18
481.606	6.19
481.957	6.21
482.307	6.22
482.658	6.22
483.009	6.2
483.359	6.2
483.709	6.19
484.06	6.2
484.41	6.2
484.761	6.19
485.111	6.18
485.461	6.19
485.811	6.2
486.162	6.19
486.512	6.21
486.862	6.21
487.212	6.22
487.562	6.23
487.912	6.24
488.262	6.23
488.612	6.25
488.961	6.26
489.311	6.26
489.661	6.28
490.011	6.28
490.36	6.29
490.71	6.32
491.06	6.34
491.409	6.35
491.759	6.36
492.108	6.4
492.458	6.43
492.807	6.46
493.157	6.47
493.506	6.5
493.855	6.53
494.204	6.56
494.554	6.58
494.903	6.6
495.252	6.64
495.601	6.7
495.95	6.75
496.299	6.8
496.648	6.86
496.997	6.89
497.346	6.96
497.695	7.03
498.043	7.08
498.392	7.13
498.741	7.16
499.09	7.22
499.438	7.3
499.787	7.37
500.135	7.44
500.484	7.53
500.832	7.58
501.181	7.68
501.529	7.75
501.878	7.86
502.226	7.94
502.574	8.04
502.923	8.12
503.271	8.2
503.619	8.29
503.967	8.36
504.315	8.46
504.663	8.54
505.011	8.61
505.359	8.69
505.707	8.77
506.055	8.88
506.403	8.97
506.751	9.02
507.098	9.1
507.446	9.19
507.794	9.25
508.141	9.33
508.489	9.39
508.837	9.48
509.184	9.57
509.531	9.65
509.879	9.73
510.226	9.79
510.574	9.86
510.921	9.93
511.268	9.99
511.616	10.06
511.963	10.14
512.31	10.23
512.657	10.33
513.004	10.41
513.351	10.5
513.698	10.6
514.045	10.7
514.392	10.81
514.739	10.91
515.086	11.02
515.432	11.14
515.779	11.22
516.126	11.31
516.473	11.36
516.819	11.45
517.166	11.51
517.512	11.6
517.859	11.7
518.205	11.8
518.552	11.91
518.898	11.98
519.245	12.08
519.591	12.15
519.937	12.21
520.283	12.32
520.629	12.42
520.976	12.53
521.322	12.65
521.668	12.74
522.014	12.84
522.36	12.97
522.706	13.09
523.052	13.25
523.398	13.44
523.743	13.63
524.089	13.79
524.435	13.96
524.781	14.1
525.126	14.24
525.472	14.37
525.817	14.48
526.163	14.6
526.509	14.7
526.854	14.81
527.199	14.91
527.545	15
527.89	15.1
528.235	15.2
528.581	15.31
528.926	15.42
529.271	15.54
529.616	15.64
529.961	15.74
530.306	15.87
530.651	15.96
530.996	16.07
531.341	16.19
531.686	16.33
532.031	16.47
532.376	16.62
532.721	16.76
533.065	16.91
533.41	17.08
533.755	17.26
534.099	17.44
534.444	17.64
534.788	17.82
535.133	18
535.477	18.2
535.822	18.37
536.166	18.56
536.51	18.77
536.855	19.02
537.199	19.29
537.543	19.52
537.887	19.8
538.231	20.05
538.576	20.32
538.92	20.57
539.264	20.82
539.608	21.05
539.951	21.27
540.295	21.51
540.639	21.7
540.983	21.9
541.327	22.09
541.671	22.29
542.014	22.48
542.358	22.67
542.701	22.85
543.045	23.06
543.389	23.29
543.732	23.52
544.075	23.73
544.419	23.91
544.762	24.14
545.105	24.38
545.449	24.64
545.792	24.91
546.135	25.17
546.478	25.44
546.821	25.73
547.165	26.05
547.508	26.33
547.851	26.65
548.194	26.96
548.536	27.28
548.879	27.59
549.222	27.89
549.565	28.2
549.908	28.51
550.25	28.81
550.593	29.12
550.936	29.36
551.278	29.66
551.621	30.02
551.963	30.32
552.306	30.61
552.648	30.86
552.991	31.12
553.333	31.44
553.675	31.69
554.017	31.91
554.36	32.18
554.702	32.46
555.044	32.73
555.386	32.97
555.728	33.23
556.07	33.48
556.412	33.72
556.754	33.99
557.096	34.26
557.438	34.56
557.78	34.85
558.121	35.18
558.463	35.45
558.805	35.64
559.147	35.91
559.488	36.14
559.83	36.42
560.171	36.61
560.513	36.82
560.854	37.1
561.196	37.28
561.537	37.5
561.878	37.75
562.22	37.95
562.561	38.14
562.902	38.32
563.243	38.54
563.584	38.75
563.925	38.94
564.266	39.05
564.607	39.16
564.948	39.31
565.289	39.49
565.63	39.6
565.971	39.79
566.312	39.91
566.653	40.06
566.993	40.22
567.334	40.44
567.675	40.56
568.015	40.67
568.356	40.86
568.696	40.99
569.037	41.08
569.377	41.23
569.718	41.38
570.058	41.54
570.398	41.68
570.739	41.79
571.079	41.92
571.419	42.07
571.759	42.25
572.099	42.35
572.439	42.4
572.779	42.59
573.119	42.71
573.459	42.8
573.799	42.96
574.139	43.07
574.479	43.09
574.819	43.23
575.158	43.38
575.498	43.51
575.838	43.62
576.177	43.75
576.517	43.81
576.856	43.94
577.196	44
577.535	44.09
577.875	44.23
578.214	44.33
578.553	44.4
578.893	44.44
579.232	44.54
579.571	44.65
579.91	44.73
580.25	44.78
580.589	44.9
580.928	44.88
581.267	44.93
581.606	45.1
581.945	45.16
582.283	45.15
582.622	45.21
582.961	45.22
583.3	45.23
583.639	45.36
583.977	45.43
584.316	45.51
584.654	45.55
584.993	45.6
585.332	45.61
585.67	45.71
586.008	45.8
586.347	45.84
586.685	45.93
587.024	45.93
587.362	45.95
587.7	46.03
588.038	46.13
588.376	46.18
588.715	46.17
589.053	46.2
589.391	46.22
589.729	46.22
590.067	46.33
590.404	46.4
590.742	46.39
591.08	46.41
591.418	46.49
591.756	46.52
592.093	46.54
592.431	46.64
592.769	46.66
593.106	46.64
593.444	46.68
593.781	46.74
594.119	46.81
594.456	46.96
594.793	46.98
595.131	46.98
595.468	47.09
595.805	47.18
596.143	47.22
596.48	47.27
596.817	47.29
597.154	47.32
597.491	47.35
597.828	47.4
598.165	47.51
598.502	47.47
598.839	47.55
599.176	47.63
599.512	47.62
599.849	47.67
600.186	47.75
600.523	47.78
600.859	47.79
601.196	47.76
601.532	47.72
601.869	47.74
602.205	47.79
602.542	47.76
602.878	47.72
603.215	47.66
603.551	47.72
603.887	47.81
604.223	47.81
604.56	47.84
604.896	47.8
605.232	47.75
605.568	47.82
605.904	47.82
606.24	47.8
606.576	47.88
606.912	47.94
607.248	47.96
607.583	48
607.919	47.99
608.255	48.09
608.591	48.17
608.926	48.19
609.262	48.27
609.597	48.32
609.933	48.36
610.268	48.44
610.604	48.5
610.939	48.44
611.275	48.46
611.61	48.53
611.945	48.62
612.281	48.59
612.616	48.59
612.951	48.73
613.286	48.8
613.621	48.78
613.956	48.76
614.291	48.78
614.626	48.77
614.961	48.81
615.296	48.82
615.631	48.83
615.966	48.79
616.3	48.75
616.635	48.75
616.97	48.81
617.304	48.89
617.639	48.86
617.973	48.92
618.308	48.93
618.642	48.87
618.977	48.88
619.311	48.91
619.646	49
619.98	48.93
620.314	48.95
620.648	48.95
620.983	48.96
621.317	48.99
621.651	49.09
621.985	49.18
622.319	49.17
622.653	49.13
622.987	49.25
623.321	49.25
623.655	49.23
623.988	49.21
624.322	49.24
624.656	49.27
624.99	49.28
625.323	49.33
625.657	49.38
625.99	49.39
626.324	49.47
626.657	49.42
626.991	49.4
627.324	49.36
627.658	49.48
627.991	49.47
628.324	49.51
628.657	49.5
628.991	49.51
629.324	49.5
629.657	49.55
629.99	49.54
630.323	49.5
630.656	49.6
630.989	49.53
631.322	49.55
631.655	49.56
631.987	49.61
632.32	49.6
632.653	49.56
632.986	49.59
633.318	49.63
633.651	49.67
633.984	49.66
634.316	49.75
634.649	49.73
634.981	49.82
635.313	49.83
635.646	49.81
635.978	49.77
636.31	49.8
636.643	49.84
636.975	49.84
637.307	49.78
637.639	49.63
637.971	49.76
638.303	49.73
638.635	49.74
638.967	49.76
639.299	49.75
639.631	49.74
639.963	49.66
640.295	49.57
640.626	49.53
640.958	49.59
641.29	49.49
641.621	49.38
641.953	49.34
642.285	49.29
642.616	49.3
642.948	49.34
643.279	49.39
643.61	49.33
643.942	49.36
644.273	49.4
644.604	49.45
644.936	49.44
645.267	49.48
645.598	49.46
645.929	49.44
646.26	49.49
646.591	49.6
646.922	49.74
647.253	49.84
647.584	49.92
647.915	49.85
648.245	49.82
648.576	49.92
648.907	49.96
649.238	49.94
649.568	50.01
649.899	49.9
650.229	49.9
650.56	49.92
650.89	49.81
651.221	49.88
651.551	49.91
651.882	49.79
652.212	49.77
652.542	49.78
652.872	49.78
653.203	49.82
653.533	49.79
653.863	49.74
654.193	49.74
654.523	49.75
654.853	49.78
655.183	49.87
655.513	49.81
655.843	49.86
656.172	49.84
656.502	49.77
656.832	49.78
657.162	49.72
657.491	49.71
657.821	49.75
658.15	49.76
658.48	49.89
658.809	50.02
659.139	50.02
659.468	49.96
659.798	49.93
660.127	49.79
660.456	49.81
660.785	49.81
661.115	49.79
661.444	49.82
661.773	49.82
662.102	49.84
662.431	49.9
662.76	49.92
663.089	50.03
663.418	50.01
663.747	49.92
664.076	49.92
664.404	49.94
664.733	50.02
665.062	49.99
665.39	49.87
665.719	49.81
666.048	49.83
666.376	49.91
666.705	49.95
667.033	50.04
667.362	50.07
667.69	50.05
668.018	50.08
668.347	50.02
668.675	50.19
669.003	50.21
669.331	50.26
669.659	50.11
669.987	49.94
670.315	50.11
670.643	50.25
670.971	50.39
671.299	50.42
671.627	50.45
671.955	50.53
672.283	50.6
672.61	50.67
672.938	50.71
673.266	50.73
673.593	50.79
673.921	50.79
674.249	50.83
674.576	50.85
674.904	50.84
675.231	50.84
675.558	50.73
675.886	50.73
676.213	50.64
676.54	50.76
676.867	50.88
677.195	50.66
677.522	50.67
677.849	50.44
678.176	50.51
678.503	50.39
678.83	50.39
679.157	50.32
679.484	50.33
679.81	50.24
680.137	50.25
680.464	50.18
680.791	50.19
681.117	50.14
681.444	50.16
681.771	50.17
682.097	50.23
682.424	50.14
682.75	50.11
683.077	50.17
683.403	50.2
683.729	50.17
684.056	50.3
684.382	50.29
684.708	50.51
685.034	50.44
685.36	50.61
685.686	50.63
686.012	50.62
686.339	50.67
686.664	50.76
686.99	50.77
687.316	50.77
687.642	50.85
687.968	50.72
688.294	50.62
688.619	50.74
688.945	50.61
689.271	50.65
689.596	50.66
689.922	50.79
690.247	50.58
690.573	50.54
690.898	50.6
691.224	50.66
691.549	50.54
691.874	50.53
692.2	50.46
692.525	50.43
692.85	50.51
693.175	50.51
693.5	50.41
693.825	50.37
694.15	50.51
694.475	50.5
694.8	50.69
695.125	50.61
695.45	50.49
695.775	50.49
696.099	50.63
696.424	50.61
696.749	50.39
697.073	50.53
697.398	50.76
697.723	50.66
698.047	50.62
698.372	50.48
698.696	50.42
699.02	50.37
699.345	50.31
699.669	50.4
699.993	50.34
700.318	50.37
700.642	50.43
700.966	50.33
701.29	50.24
701.614	50.16
701.938	50.26
702.262	50.29
702.586	50.52
702.91	50.49
703.234	50.78
703.557	50.8
703.881	50.75
704.205	50.57
704.529	50.74
704.852	50.83
705.176	51.08
705.499	51.25
705.823	51.31
706.146	51.37
706.47	51.21
706.793	51.27
707.117	51.33
707.44	51.27
707.763	51.38
708.086	51.35
708.409	51.5
708.733	51.53
709.056	51.44
709.379	51.48
709.702	51.47
710.025	51.22
710.348	51.4
710.671	51.44
710.993	51.49
711.316	51.3
711.639	51.26
711.962	51.25
712.284	51.11
712.607	51.02
712.93	51.04
713.252	50.86
713.575	50.88
713.897	50.72
714.22	50.56
714.542	50.53
714.864	50.69
715.187	50.58
715.509	50.52
715.831	50.58
716.153	50.46
716.475	50.57
716.798	50.68
717.12	50.48
717.442	50.36
717.764	50.42
718.085	50.52
718.407	50.42
718.729	50.43
719.051	50.62
719.373	50.67
719.695	50.55
720.016	50.83
720.338	50.8
720.659	50.91
720.981	51.16
721.302	51.17
721.624	50.97
721.945	50.89
722.267	50.87
722.588	50.69
722.909	50.46
723.231	50.03
723.552	49.81
723.873	49.7
724.194	49.76
724.515	49.83
724.836	49.71
725.157	49.75
725.478	49.89
725.799	49.73
726.12	49.76
726.441	49.87
726.762	49.79
727.083	49.65
727.403	49.8
727.724	49.89
728.045	49.82
728.365	49.88
728.686	49.94
729.006	50.1
729.327	50.28
729.647	50.23
729.967	50.3
730.288	50.31
730.608	50.44
730.928	50.64
731.249	50.41
731.569	50.59
731.889	50.66
732.209	50.54
732.529	50.51
732.849	50.53
733.169	50.58
733.489	50.59
733.809	50.71
734.129	50.61
734.448	50.23
734.768	50.25
735.088	50.33
735.408	50.41
735.727	50.44
736.047	50.4
736.366	50.56
736.686	50.75
737.005	50.77
737.325	50.69
737.644	50.34
737.963	50.41
738.283	50.25
738.602	50.27
738.921	50.32
739.24	50.45
739.56	50.45
739.879	50.32
740.198	50.17
740.517	50.16
740.836	49.99
741.155	50.33
741.473	50.13
741.792	50.14
742.111	50.13
742.43	49.91
742.748	49.81
743.067	49.64
743.386	49.47
743.704	49.39
744.023	49.46
744.341	49.75
744.66	49.92
744.978	49.92
745.297	49.92
745.615	49.7
745.933	49.79
746.252	49.78
746.57	50.03
746.888	50.29
747.206	50.22
747.524	50.47
747.842	50.25
748.16	50.54
748.478	50.73
748.796	50.86
749.114	51.12
749.432	51.3
749.749	51.37
750.067	51.32
750.385	51.45
750.703	51.55
751.02	51.46
751.338	51.31
751.655	51.46
751.973	51.55
752.29	51.54
752.608	51.6
752.925	51.67
753.242	51.41
753.56	51.36
753.877	51.4
754.194	51.59
754.511	51.62
754.828	51.63
755.145	51.49
755.462	51.39
755.779	51.22
756.096	51.03
756.413	51.07
756.73	51.25
757.047	51.12
757.364	50.97
757.68	50.81
757.997	50.89
758.314	50.85
758.63	51.11
758.947	51.52
759.264	51.06
759.58	50.81
759.896	50.65
760.213	50.68
760.529	50.84
760.846	50.73
761.162	50.84
761.478	50.71
761.794	50.39
762.11	50.39
762.426	50.55
762.743	50.74
763.059	50.69
763.375	50.9
763.69	51.04
764.006	51.08
764.322	51.27
764.638	51.2
764.954	51.18
765.27	50.97
765.585	50.63
765.901	50.9
766.216	51.04
766.532	51.11
766.848	51.14
767.163	51.24
767.478	51.27
767.794	51.39
768.109	51.52
768.424	51.74
768.74	51.78
769.055	51.33
769.37	51.15
769.685	51.29
770	51.06
770.315	50.83
770.63	50.82
770.945	50.56
771.26	50.44
771.575	50.45
771.89	50.17
772.205	50.22
772.52	50
772.834	49.97
773.149	50.31
773.464	50.27
773.778	50.14
774.093	49.92
774.407	49.9
774.722	49.57
775.036	49.44
775.351	49.56
775.665	49.98
775.979	49.82
776.293	49.87
776.608	49.54
776.922	49.54
777.236	49.29
777.55	49.61
777.864	49.93
778.178	50.27
778.492	50.82
778.806	50.92
779.12	51.22
779.434	51.45
779.747	51.77
780.061	51.52
780.375	51.2
780.689	50.82
781.002	50.74
781.316	51.03
781.629	51.49
781.943	50.95
782.256	50.74
782.57	51.08
782.883	50.6
783.196	50.51
783.51	50.28
783.823	50.47
784.136	50.16
784.449	50.17
784.762	49.89
785.075	49.55
785.388	49.61
785.701	49.39
786.014	48.88
786.327	48.21
786.64	48.42
786.953	48.57
787.266	48.81
787.578	48.51
787.891	48.71
788.204	48.44
788.516	48.92
788.829	49.08
789.141	49.03
789.454	49.31
789.766	49.86
790.079	49.99
790.391	50.44
790.703	50.41
791.016	50.46
791.328	50.41
791.64	50.26
791.952	50.16
792.264	50.03
792.576	50.03
792.888	50.23
793.2	50.16
793.512	50.1
793.824	50.37
794.136	50.86
794.448	50.87
794.76	51.08
795.071	51.56
795.383	51.07
795.695	50.64
796.006	50.9
796.318	50.9
796.629	51.33
796.941	50.75
797.252	50.73
797.564	50.64
797.875	50.67
798.186	50.86
798.497	50.87
798.809	51.03
799.12	51.45
799.431	51.24
799.742	51.55
800.053	51.73
800.364	51.43
800.675	51.78
800.986	51.74
801.297	51.97
801.608	51.31
801.918	52.18
802.229	52.06
802.54	51.57
802.851	51.54
803.161	51.94
803.472	52.55
803.782	53.29
804.093	53.71
804.403	53.99
804.714	53.88
805.024	54.03
805.334	54.04
805.645	53.85
805.955	53.96
806.265	54.09
806.575	53.82
806.885	54.14
807.195	53.81
807.505	53.72
807.815	52.8
808.125	52.06
808.435	51.67
808.745	52.42
809.055	53.35
809.365	53
809.674	52.62
809.984	52.22
810.294	52.36
810.603	51.91
810.913	51.81
811.222	51.7
811.532	51.76
811.841	52.13
812.151	52.54
812.46	52.6
812.769	52.04
813.079	52.08
813.388	51.86
813.697	51.73
814.006	51.78
814.315	52.57
814.624	53.54
814.933	53.78
815.242	54.2
815.551	54.25
815.86	54.79
816.169	54.28
816.478	54.75
816.786	54.43
817.095	54.68
817.404	54.35
817.712	54.33
818.021	54.54
818.33	54.18
818.638	54.04
818.947	53.61
819.255	53.42
819.563	52.72
819.872	52.61
820.18	51.94
820.488	51.75
820.796	51.77
821.105	51.67
821.413	51.49
821.721	51.37
822.029	51.32
822.337	51.22
822.645	51.18
822.953	51.05
823.26	51.1
823.568	50.93
823.876	50.81
824.184	50.78
824.491	50.65
824.799	50.65
825.107	50.71
825.414	50.84
825.722	50.88
826.029	51.31
826.337	51.34
826.644	51.64
826.951	51.88
827.259	51.82
827.566	51.81
827.873	51.77
828.18	51.9
828.488	51.62
828.795	51.73
829.102	51.95
829.409	52.06
829.716	51.96
830.023	52.06
830.329	52.11
830.636	52.28
830.943	52.03
831.25	51.55
831.557	51.05
831.863	50.98
832.17	51.18
832.476	50.82
832.783	50.95
833.089	51.09
833.396	50.99
833.702	51.43
834.009	51.38
834.315	51.54
834.621	51.17
834.928	51.37
835.234	51.02
835.54	51.34
835.846	51.18
836.152	51.35
836.458	51.34
836.764	51.76
837.07	51.5
837.376	51.97
837.682	53.01
837.988	52.93
838.293	52.68
838.599	52.26
838.905	52.04
839.211	51.55
839.516	51.33
839.822	50.65
840.127	50.13
840.433	50.48
840.738	50.93
841.044	51.07
841.349	51.19
841.654	51.2
841.959	50.55
842.265	50.33
842.57	49.39
842.875	49.66
843.18	49.58
843.485	49.59
843.79	50.21
844.095	49.84
844.4	50.68
844.705	50.9
845.01	50.76
845.315	51.29
845.619	51.29
845.924	51.85
846.229	52.38
846.533	52.96
846.838	52.61
847.142	53.05
847.447	51.7
847.751	50.92
848.056	51.14
848.36	52.21
848.664	53.06
848.969	53.2
849.273	51.76
849.577	49.45
849.881	50.15
850.185	49.93
850.489	48.89
850.794	48.33
851.097	48.76
851.401	49.6
851.705	49.97
852.009	51.07
852.313	51.31
852.617	51.87
852.92	48.68
853.224	47.81
853.528	46.07
853.831	46.32
854.135	47.82
854.438	46.48
854.742	44.97
855.045	43.78
855.349	44.03
855.652	45.28
855.955	46.45
856.259	47.94
856.562	46.93
856.865	48.34
857.168	48.56
857.471	48.63
857.774	47.52
858.077	47.42
858.38	46.92
858.683	44.72
858.986	43.37
859.289	48.43
859.592	50.2
859.894	52.26
860.197	53.75
860.5	52.73
860.802	56.17
861.105	55.13
861.407	55.53
861.71	57.04
862.012	55.84
862.315	55.79
862.617	53.01
862.919	54.61
863.222	53.65
863.524	53.48
863.826	53.85
864.128	54.44
864.43	53.6
864.732	55.61
865.034	55.02
865.336	55.83
865.638	52.43
865.94	51
866.242	49.59
866.544	48.68
866.846	50.65
867.147	48.97
867.449	50.03
867.751	50.55
868.052	48.25
868.354	49.11
868.655	51.46
868.957	52.04
869.258	51.19
869.56	50.69
869.861	50.53
870.162	50.31
870.463	53.1
870.765	54.08
871.066	52.87
871.367	54.58
871.668	55.98
871.969	55.32
872.27	57.77
872.571	60.15
872.872	59.01
873.173	57.21
873.473	59.06
873.774	59.89
874.075	60.21
874.376	62.83
874.676	65.58
874.977	63.9
875.277	63.7
875.578	62.81
875.878	63.84
876.179	64.94
876.479	65.19
876.78	62.67
877.08	61.73
877.38	61.56
877.68	62.34
877.981	60.14
878.281	62.89
878.581	60.26
