Data from BA57730_Reflection_00014.txt Node
Date: Mon Nov 18 16:00:01 EST 2019
User: vgr7
Spectrometer: USB2G7710
Scans to average: 3
Trigger mode: 4
Integration Time (sec): 2.000000E-2
Electric dark correction enabled: true
Boxcar width: 10
XAxis mode: Wavelengths
Number of Pixels in Spectrum: 2048
>>>>>Begin Spectral Data<<<<<
177.721	-915.87
178.105	67.32
178.488	28.67
178.871	117.09
179.254	64.33
179.636	0.67
180.019	60.6
180.402	62.79
180.785	-55.47
181.168	-145.21
181.55	-146.83
181.933	373.94
182.316	206.91
182.698	157.7
183.081	124.94
183.463	200.5
183.846	179.02
184.228	278.18
184.611	468.99
184.993	682.75
185.376	605.18
185.758	401.08
186.14	239.25
186.522	201.73
186.904	174.24
187.287	125.01
187.669	124.12
188.051	218.83
188.433	1108.55
188.815	182.98
189.197	91.69
189.579	104.23
189.961	130.8
190.342	125.16
190.724	435.6
191.106	-3262.32
191.488	-516.25
191.869	-215.2
192.251	-478.17
192.633	-478.17
193.014	-441.97
193.396	1105.85
193.777	-452.58
194.159	-547.62
194.54	-476.58
194.922	-225.2
195.303	-296.14
195.684	-516.19
196.065	-299.36
196.447	-370.69
196.828	-408.41
197.209	-436.48
197.59	-326.1
197.971	-332.75
198.352	-92.01
198.733	-118.24
199.114	-72.98
199.495	-36.83
199.876	-82.03
200.257	-107.24
200.638	-37.2
201.018	1.14
201.399	18.9
201.78	53.52
202.16	119.13
202.541	181.51
202.922	-164.63
203.302	-315.01
203.683	1868.12
204.063	-66.02
204.444	-95.98
204.824	-130.7
205.204	-420.63
205.585	-327.98
205.965	-310.26
206.345	243.18
206.725	194.81
207.106	213.35
207.486	220.03
207.866	231.85
208.246	200.63
208.626	227.38
209.006	340.52
209.386	289.37
209.766	838.29
210.145	-3017.12
210.525	-290.9
210.905	-118.5
211.285	-91.96
211.664	-65.86
212.044	-45.31
212.424	-54.24
212.803	-54.35
213.183	-49.99
213.562	-31.92
213.942	-22.9
214.321	-4.86
214.701	-14.97
215.08	-9.68
215.459	-11.63
215.838	1.81
216.218	-8.34
216.597	1.97
216.976	4.88
217.355	3.22
217.734	20.52
218.113	27.05
218.492	19.04
218.871	19.21
219.25	13.09
219.629	11.3
220.008	13.1
220.387	15.64
220.766	13.16
221.144	14.14
221.523	-3.38
221.902	-12.3
222.28	-28.02
222.659	-6.64
223.037	13.17
223.416	-5.92
223.794	-30.93
224.173	-28.38
224.551	-18.75
224.929	-25.13
225.308	-7.63
225.686	-16.99
226.064	-9.63
226.442	-2.96
226.821	0.99
227.199	-1.66
227.577	-5.33
227.955	-9.35
228.333	-7.09
228.711	-8.04
229.089	-5.1
229.467	-6.2
229.845	-4.75
230.222	-2.87
230.6	-3.73
230.978	-5.13
231.356	-1.52
231.733	3.01
232.111	4.3
232.488	3.42
232.866	3.38
233.243	2.66
233.621	2.71
233.998	-0.12
234.376	-2.1
234.753	-2.52
235.13	-1.44
235.508	-0.51
235.885	0.88
236.262	-0.75
236.639	0.87
237.016	0.97
237.393	1.69
237.77	2
238.147	2.62
238.524	3.01
238.901	3.52
239.278	3.5
239.655	3.11
240.032	3.53
240.409	3.16
240.785	2.88
241.162	3.06
241.539	2.97
241.915	3.34
242.292	2.99
242.668	3.18
243.045	3.23
243.421	3.68
243.798	3.72
244.174	3.78
244.551	3.55
244.927	3.4
245.303	3.61
245.679	3.95
246.056	3.91
246.432	4.12
246.808	4.18
247.184	4.06
247.56	3.96
247.936	3.56
248.312	3.58
248.688	3.67
249.064	3.29
249.44	3.44
249.815	3.54
250.191	3.59
250.567	3.47
250.943	3.69
251.318	3.52
251.694	3.48
252.069	3.4
252.445	3.38
252.82	3.7
253.196	3.5
253.571	3.08
253.947	3.16
254.322	2.68
254.697	2.66
255.073	2.56
255.448	2.61
255.823	2.73
256.198	3.13
256.573	3.21
256.948	3.46
257.323	3.53
257.698	3.41
258.073	3.53
258.448	3.44
258.823	3.37
259.198	3.24
259.573	3.39
259.948	3.36
260.322	3.58
260.697	3.27
261.072	3.23
261.446	3.44
261.821	3.38
262.195	3.62
262.57	3.46
262.944	3.5
263.319	3.52
263.693	3.55
264.067	3.54
264.442	3.74
264.816	3.86
265.19	3.77
265.564	3.93
265.938	3.72
266.313	3.77
266.687	3.69
267.061	3.83
267.435	3.95
267.809	4.02
268.183	3.89
268.556	4.08
268.93	4.13
269.304	4.02
269.678	4.07
270.051	3.92
270.425	3.98
270.799	3.98
271.172	4.08
271.546	4.11
271.919	4.05
272.293	3.74
272.666	3.65
273.04	3.7
273.413	3.68
273.787	3.88
274.16	3.94
274.533	4
274.906	3.99
275.279	3.77
275.653	3.78
276.026	3.59
276.399	3.5
276.772	3.41
277.145	3.28
277.518	3.27
277.891	3.21
278.263	3.16
278.636	3.21
279.009	3.04
279.382	3.08
279.755	2.87
280.127	3.03
280.5	3.02
280.872	2.85
281.245	2.74
281.617	2.77
281.99	2.79
282.362	2.83
282.735	2.58
283.107	2.59
283.479	2.61
283.852	2.74
284.224	2.79
284.596	2.94
284.968	2.87
285.34	2.91
285.713	3.02
286.085	3.2
286.457	3.29
286.829	3.34
287.201	3.36
287.572	3.33
287.944	3.39
288.316	3.3
288.688	3.35
289.06	3.4
289.431	3.43
289.803	3.52
290.175	3.41
290.546	3.75
290.918	3.81
291.289	3.71
291.661	3.74
292.032	3.93
292.403	3.89
292.775	4.07
293.146	4.01
293.517	3.96
293.889	3.91
294.26	3.91
294.631	3.94
295.002	3.89
295.373	4
295.744	3.95
296.115	4.14
296.486	4.1
296.857	4.08
297.228	4.11
297.599	3.98
297.97	4.03
298.34	4.11
298.711	4.22
299.082	4.37
299.452	4.38
299.823	4.34
300.194	4.37
300.564	4.42
300.935	4.58
301.305	4.51
301.676	4.56
302.046	4.68
302.416	4.79
302.787	4.91
303.157	5.05
303.527	5.23
303.897	5.19
304.267	5.59
304.637	5.71
305.008	5.68
305.378	5.88
305.748	6.04
306.117	5.98
306.487	6.01
306.857	6.06
307.227	6.1
307.597	6.04
307.967	6.18
308.336	6.23
308.706	6.12
309.076	6.34
309.445	6.37
309.815	6.26
310.184	6.22
310.554	6.22
310.923	6.19
311.293	6.12
311.662	6.21
312.031	6.01
312.401	6.01
312.77	6.26
313.139	6.36
313.508	6.34
313.877	6.27
314.246	6.21
314.616	6.29
314.985	6.32
315.353	6.4
315.722	6.4
316.091	6.4
316.46	6.52
316.829	6.6
317.198	6.64
317.567	6.61
317.935	6.76
318.304	6.81
318.672	6.77
319.041	6.88
319.41	6.9
319.778	6.94
320.147	7.07
320.515	6.99
320.883	6.84
321.252	7.1
321.62	7.27
321.988	7.56
322.357	7.56
322.725	7.63
323.093	7.79
323.461	7.83
323.829	8.1
324.197	8.21
324.565	8.13
324.933	8.3
325.301	8.45
325.669	8.54
326.037	8.59
326.405	8.71
326.772	8.75
327.14	9.01
327.508	9.26
327.875	9.29
328.243	9.34
328.61	9.49
328.978	9.44
329.346	9.55
329.713	9.49
330.08	9.64
330.448	9.68
330.815	9.78
331.182	9.89
331.55	9.74
331.917	9.91
332.284	10.05
332.651	10.07
333.018	10.07
333.385	10.02
333.752	10.18
334.119	10.29
334.486	10.27
334.853	10.14
335.22	10.18
335.587	10.23
335.954	10.2
336.32	10.19
336.687	10.27
337.054	10.29
337.42	10.3
337.787	10.3
338.153	10.35
338.52	10.48
338.886	10.48
339.253	10.44
339.619	10.29
339.986	10.33
340.352	10.4
340.718	10.54
341.084	10.51
341.451	10.53
341.817	10.56
342.183	10.64
342.549	10.79
342.915	10.68
343.281	10.77
343.647	10.8
344.013	10.83
344.379	10.74
344.745	10.76
345.11	10.84
345.476	10.9
345.842	10.99
346.208	10.89
346.573	10.86
346.939	11.05
347.304	11.05
347.67	11.04
348.035	11.03
348.401	11.03
348.766	11.14
349.132	11.22
349.497	11.29
349.862	11.4
350.228	11.27
350.593	11.29
350.958	11.26
351.323	11.34
351.688	11.35
352.053	11.44
352.418	11.42
352.783	11.48
353.148	11.44
353.513	11.45
353.878	11.44
354.243	11.6
354.608	11.64
354.972	11.72
355.337	11.78
355.702	11.74
356.066	11.7
356.431	11.73
356.795	11.6
357.16	11.56
357.524	11.49
357.889	11.57
358.253	11.57
358.618	11.59
358.982	11.46
359.346	11.43
359.71	11.34
360.075	11.24
360.439	11.18
360.803	11.16
361.167	11.07
361.531	11.07
361.895	10.99
362.259	10.88
362.623	10.82
362.987	10.77
363.351	10.75
363.714	10.74
364.078	10.64
364.442	10.61
364.806	10.56
365.169	10.5
365.533	10.42
365.896	10.37
366.26	10.28
366.623	10.33
366.987	10.31
367.35	10.3
367.714	10.38
368.077	10.35
368.44	10.28
368.803	10.22
369.167	10.08
369.53	9.97
369.893	9.89
370.256	9.86
370.619	9.82
370.982	9.73
371.345	9.66
371.708	9.61
372.071	9.59
372.434	9.49
372.797	9.46
373.159	9.34
373.522	9.3
373.885	9.24
374.247	9.18
374.61	9.15
374.973	9.11
375.335	9.04
375.698	8.99
376.06	8.96
376.423	8.92
376.785	8.96
377.147	8.94
377.51	8.92
377.872	8.86
378.234	8.78
378.596	8.73
378.958	8.64
379.321	8.66
379.683	8.61
380.045	8.6
380.407	8.53
380.769	8.57
381.13	8.5
381.492	8.48
381.854	8.45
382.216	8.42
382.578	8.39
382.939	8.29
383.301	8.22
383.663	8.08
384.024	8.02
384.386	7.96
384.747	7.95
385.109	7.92
385.47	7.85
385.832	7.83
386.193	7.78
386.554	7.76
386.916	7.67
387.277	7.61
387.638	7.58
387.999	7.52
388.36	7.49
388.721	7.44
389.082	7.34
389.443	7.28
389.804	7.18
390.165	7.1
390.526	7.08
390.887	7.01
391.248	7.05
391.609	7.03
391.969	6.96
392.33	6.86
392.691	6.8
393.051	6.76
393.412	6.69
393.772	6.62
394.133	6.61
394.493	6.56
394.854	6.54
395.214	6.47
395.574	6.43
395.935	6.35
396.295	6.31
396.655	6.28
397.015	6.21
397.376	6.21
397.736	6.18
398.096	6.12
398.456	6.11
398.816	6.06
399.176	6.01
399.535	5.97
399.895	5.97
400.255	5.95
400.615	5.93
400.975	5.88
401.334	5.87
401.694	5.79
402.054	5.73
402.413	5.7
402.773	5.69
403.132	5.64
403.492	5.61
403.851	5.61
404.211	5.58
404.57	5.57
404.929	5.52
405.288	5.48
405.648	5.44
406.007	5.41
406.366	5.39
406.725	5.36
407.084	5.33
407.443	5.29
407.802	5.26
408.161	5.22
408.52	5.22
408.879	5.16
409.238	5.16
409.596	5.16
409.955	5.08
410.314	5.05
410.673	5.04
411.031	5
411.39	4.93
411.748	4.93
412.107	4.92
412.465	4.9
412.824	4.88
413.182	4.85
413.54	4.84
413.899	4.82
414.257	4.83
414.615	4.81
414.974	4.78
415.332	4.76
415.69	4.74
416.048	4.72
416.406	4.7
416.764	4.66
417.122	4.64
417.48	4.63
417.838	4.61
418.195	4.58
418.553	4.55
418.911	4.53
419.269	4.5
419.626	4.46
419.984	4.43
420.342	4.41
420.699	4.41
421.057	4.38
421.414	4.34
421.772	4.29
422.129	4.28
422.486	4.26
422.844	4.25
423.201	4.22
423.558	4.2
423.915	4.18
424.273	4.18
424.63	4.17
424.987	4.14
425.344	4.12
425.701	4.1
426.058	4.1
426.415	4.1
426.772	4.09
427.128	4.07
427.485	4.06
427.842	4.03
428.199	4.03
428.555	4.02
428.912	4.02
429.269	4.04
429.625	4.03
429.982	3.99
430.338	3.99
430.695	3.99
431.051	3.98
431.407	3.97
431.764	3.97
432.12	3.95
432.476	3.94
432.832	3.93
433.189	3.93
433.545	3.92
433.901	3.91
434.257	3.88
434.613	3.9
434.969	3.9
435.325	3.92
435.681	3.89
436.036	3.88
436.392	3.88
436.748	3.86
437.104	3.85
437.459	3.85
437.815	3.83
438.171	3.83
438.526	3.83
438.882	3.83
439.237	3.82
439.593	3.83
439.948	3.82
440.304	3.81
440.659	3.82
441.014	3.82
441.369	3.81
441.725	3.81
442.08	3.81
442.435	3.79
442.79	3.77
443.145	3.78
443.5	3.77
443.855	3.76
444.21	3.76
444.565	3.76
444.92	3.76
445.275	3.76
445.629	3.73
445.984	3.73
446.339	3.72
446.693	3.7
447.048	3.69
447.403	3.68
447.757	3.67
448.112	3.66
448.466	3.65
448.82	3.64
449.175	3.63
449.529	3.61
449.883	3.61
450.238	3.6
450.592	3.58
450.946	3.55
451.3	3.55
451.654	3.54
452.008	3.52
452.362	3.51
452.716	3.51
453.07	3.53
453.424	3.52
453.778	3.52
454.132	3.52
454.486	3.51
454.839	3.52
455.193	3.52
455.547	3.51
455.9	3.5
456.254	3.5
456.607	3.52
456.961	3.53
457.314	3.53
457.668	3.53
458.021	3.53
458.375	3.54
458.728	3.54
459.081	3.55
459.434	3.54
459.787	3.55
460.141	3.53
460.494	3.52
460.847	3.52
461.2	3.52
461.553	3.53
461.906	3.54
462.259	3.55
462.611	3.56
462.964	3.56
463.317	3.59
463.67	3.59
464.022	3.6
464.375	3.6
464.728	3.61
465.08	3.62
465.433	3.63
465.785	3.64
466.138	3.64
466.49	3.63
466.843	3.63
467.195	3.63
467.547	3.66
467.899	3.67
468.252	3.67
468.604	3.67
468.956	3.66
469.308	3.66
469.66	3.67
470.012	3.68
470.364	3.7
470.716	3.71
471.068	3.72
471.42	3.74
471.772	3.76
472.123	3.77
472.475	3.78
472.827	3.79
473.178	3.8
473.53	3.8
473.882	3.82
474.233	3.86
474.585	3.84
474.936	3.85
475.288	3.84
475.639	3.85
475.99	3.86
476.342	3.86
476.693	3.87
477.044	3.88
477.395	3.87
477.746	3.87
478.097	3.86
478.448	3.84
478.8	3.82
479.15	3.81
479.501	3.81
479.852	3.8
480.203	3.81
480.554	3.82
480.905	3.82
481.255	3.83
481.606	3.83
481.957	3.84
482.307	3.83
482.658	3.85
483.009	3.85
483.359	3.85
483.709	3.85
484.06	3.83
484.41	3.83
484.761	3.83
485.111	3.82
485.461	3.82
485.811	3.82
486.162	3.82
486.512	3.83
486.862	3.84
487.212	3.83
487.562	3.83
487.912	3.83
488.262	3.83
488.612	3.83
488.961	3.82
489.311	3.83
489.661	3.84
490.011	3.83
490.36	3.83
490.71	3.84
491.06	3.85
491.409	3.87
491.759	3.89
492.108	3.9
492.458	3.92
492.807	3.94
493.157	3.94
493.506	3.96
493.855	3.95
494.204	3.96
494.554	3.99
494.903	4
495.252	4.01
495.601	4.05
495.95	4.06
496.299	4.09
496.648	4.12
496.997	4.14
497.346	4.19
497.695	4.23
498.043	4.26
498.392	4.29
498.741	4.32
499.09	4.33
499.438	4.37
499.787	4.41
500.135	4.46
500.484	4.52
500.832	4.57
501.181	4.63
501.529	4.69
501.878	4.73
502.226	4.81
502.574	4.88
502.923	4.9
503.271	4.94
503.619	5
503.967	5.06
504.315	5.1
504.663	5.15
505.011	5.22
505.359	5.26
505.707	5.33
506.055	5.4
506.403	5.48
506.751	5.55
507.098	5.59
507.446	5.67
507.794	5.76
508.141	5.81
508.489	5.88
508.837	5.96
509.184	6.02
509.531	6.08
509.879	6.14
510.226	6.23
510.574	6.31
510.921	6.39
511.268	6.43
511.616	6.52
511.963	6.6
512.31	6.64
512.657	6.71
513.004	6.81
513.351	6.88
513.698	6.94
514.045	7.02
514.392	7.1
514.739	7.16
515.086	7.23
515.432	7.31
515.779	7.37
516.126	7.44
516.473	7.53
516.819	7.62
517.166	7.69
517.512	7.77
517.859	7.84
518.205	7.91
518.552	8
518.898	8.08
519.245	8.13
519.591	8.22
519.937	8.29
520.283	8.36
520.629	8.46
520.976	8.57
521.322	8.67
521.668	8.77
522.014	8.89
522.36	9.02
522.706	9.15
523.052	9.29
523.398	9.44
523.743	9.58
524.089	9.74
524.435	9.88
524.781	10.03
525.126	10.17
525.472	10.3
525.817	10.42
526.163	10.51
526.509	10.64
526.854	10.75
527.199	10.86
527.545	10.96
527.89	11.06
528.235	11.16
528.581	11.27
528.926	11.39
529.271	11.5
529.616	11.61
529.961	11.71
530.306	11.84
530.651	11.98
530.996	12.11
531.341	12.26
531.686	12.42
532.031	12.57
532.376	12.73
532.721	12.9
533.065	13.07
533.41	13.26
533.755	13.45
534.099	13.65
534.444	13.85
534.788	14.07
535.133	14.28
535.477	14.48
535.822	14.72
536.166	14.95
536.51	15.22
536.855	15.48
537.199	15.78
537.543	16.07
537.887	16.34
538.231	16.64
538.576	16.9
538.92	17.16
539.264	17.45
539.608	17.74
539.951	17.98
540.295	18.22
540.639	18.47
540.983	18.72
541.327	18.94
541.671	19.18
542.014	19.4
542.358	19.65
542.701	19.9
543.045	20.12
543.389	20.37
543.732	20.61
544.075	20.88
544.419	21.13
544.762	21.4
545.105	21.66
545.449	21.97
545.792	22.28
546.135	22.65
546.478	22.97
546.821	23.32
547.165	23.68
547.508	24.04
547.851	24.4
548.194	24.72
548.536	25.1
548.879	25.48
549.222	25.84
549.565	26.18
549.908	26.61
550.25	26.99
550.593	27.34
550.936	27.71
551.278	28.05
551.621	28.46
551.963	28.82
552.306	29.26
552.648	29.6
552.991	29.98
553.333	30.28
553.675	30.61
554.017	30.89
554.36	31.22
554.702	31.55
555.044	31.9
555.386	32.26
555.728	32.6
556.07	32.91
556.412	33.25
556.754	33.58
557.096	33.83
557.438	34.15
557.78	34.49
558.121	34.81
558.463	35.17
558.805	35.5
559.147	35.8
559.488	36.07
559.83	36.4
560.171	36.74
560.513	37.08
560.854	37.4
561.196	37.74
561.537	38.02
561.878	38.4
562.22	38.63
562.561	38.91
562.902	39.2
563.243	39.48
563.584	39.68
563.925	39.94
564.266	40.15
564.607	40.38
564.948	40.66
565.289	40.92
565.63	41.16
565.971	41.35
566.312	41.57
566.653	41.76
566.993	41.94
567.334	42.14
567.675	42.28
568.015	42.45
568.356	42.64
568.696	42.89
569.037	43.03
569.377	43.21
569.718	43.41
570.058	43.59
570.398	43.71
570.739	43.94
571.079	44.1
571.419	44.32
571.759	44.51
572.099	44.65
572.439	44.77
572.779	44.95
573.119	45.17
573.459	45.29
573.799	45.47
574.139	45.61
574.479	45.73
574.819	45.91
575.158	46.07
575.498	46.22
575.838	46.35
576.177	46.49
576.517	46.67
576.856	46.85
577.196	47.01
577.535	47.21
577.875	47.34
578.214	47.53
578.553	47.68
578.893	47.81
579.232	47.93
579.571	48.13
579.91	48.2
580.25	48.25
580.589	48.42
580.928	48.55
581.267	48.72
581.606	48.89
581.945	48.97
582.283	49.11
582.622	49.27
582.961	49.36
583.3	49.48
583.639	49.67
583.977	49.75
584.316	49.85
584.654	49.91
584.993	49.97
585.332	50.08
585.67	50.22
586.008	50.41
586.347	50.51
586.685	50.57
587.024	50.71
587.362	50.84
587.7	50.96
588.038	51.05
588.376	51.15
588.715	51.22
589.053	51.38
589.391	51.46
589.729	51.48
590.067	51.55
590.404	51.55
590.742	51.54
591.08	51.61
591.418	51.72
591.756	51.86
592.093	51.97
592.431	52.07
592.769	52.13
593.106	52.15
593.444	52.22
593.781	52.26
594.119	52.31
594.456	52.35
594.793	52.37
595.131	52.46
595.468	52.45
595.805	52.54
596.143	52.61
596.48	52.63
596.817	52.66
597.154	52.72
597.491	52.84
597.828	52.93
598.165	52.93
598.502	52.93
598.839	52.98
599.176	53
599.512	53.06
599.849	53.09
600.186	53.21
600.523	53.21
600.859	53.24
601.196	53.31
601.532	53.39
601.869	53.43
602.205	53.39
602.542	53.44
602.878	53.46
603.215	53.47
603.551	53.56
603.887	53.65
604.223	53.73
604.56	53.8
604.896	53.79
605.232	53.85
605.568	53.89
605.904	53.98
606.24	54.07
606.576	54.07
606.912	54.09
607.248	54.01
607.583	54.11
607.919	54.22
608.255	54.28
608.591	54.33
608.926	54.41
609.262	54.53
609.597	54.6
609.933	54.6
610.268	54.65
610.604	54.7
610.939	54.74
611.275	54.71
611.61	54.75
611.945	54.86
612.281	54.89
612.616	54.94
612.951	54.89
613.286	54.96
613.621	55.06
613.956	55.19
614.291	55.34
614.626	55.35
614.961	55.38
615.296	55.4
615.631	55.39
615.966	55.44
616.3	55.47
616.635	55.5
616.97	55.6
617.304	55.58
617.639	55.6
617.973	55.6
618.308	55.61
618.642	55.59
618.977	55.56
619.311	55.65
619.646	55.67
619.98	55.73
620.314	55.63
620.648	55.61
620.983	55.53
621.317	55.57
621.651	55.69
621.985	55.7
622.319	55.68
622.653	55.68
622.987	55.78
623.321	55.76
623.655	55.75
623.988	55.79
624.322	55.85
624.656	55.94
624.99	56
625.323	56.11
625.657	56.12
625.99	56.12
626.324	56.1
626.657	56.18
626.991	56.2
627.324	56.28
627.658	56.29
627.991	56.34
628.324	56.36
628.657	56.34
628.991	56.34
629.324	56.41
629.657	56.45
629.99	56.43
630.323	56.46
630.656	56.56
630.989	56.6
631.322	56.54
631.655	56.43
631.987	56.37
632.32	56.35
632.653	56.38
632.986	56.36
633.318	56.44
633.651	56.45
633.984	56.46
634.316	56.51
634.649	56.53
634.981	56.63
635.313	56.71
635.646	56.77
635.978	56.8
636.31	56.84
636.643	56.86
636.975	56.85
637.307	56.85
637.639	56.89
637.971	56.79
638.303	56.87
638.635	56.91
638.967	56.94
639.299	57.06
639.631	57.11
639.963	57.22
640.295	57.2
640.626	57.21
640.958	57.24
641.29	57.32
641.621	57.34
641.953	57.28
642.285	57.18
642.616	57.16
642.948	57.2
643.279	57.18
643.61	57.22
643.942	57.24
644.273	57.33
644.604	57.26
644.936	57.35
645.267	57.37
645.598	57.4
645.929	57.48
646.26	57.51
646.591	57.46
646.922	57.58
647.253	57.59
647.584	57.56
647.915	57.51
648.245	57.39
648.576	57.51
648.907	57.62
649.238	57.67
649.568	57.64
649.899	57.52
650.229	57.51
650.56	57.56
650.89	57.59
651.221	57.56
651.551	57.58
651.882	57.61
652.212	57.54
652.542	57.61
652.872	57.57
653.203	57.57
653.533	57.54
653.863	57.48
654.193	57.53
654.523	57.53
654.853	57.6
655.183	57.65
655.513	57.43
655.843	57.32
656.172	57.34
656.502	57.26
656.832	57.4
657.162	57.46
657.491	57.4
657.821	57.36
658.15	57.35
658.48	57.41
658.809	57.43
659.139	57.48
659.468	57.45
659.798	57.48
660.127	57.47
660.456	57.53
660.785	57.55
661.115	57.5
661.444	57.49
661.773	57.51
662.102	57.59
662.431	57.82
662.76	57.85
663.089	57.83
663.418	57.9
663.747	57.87
664.076	57.76
664.404	57.81
664.733	57.8
665.062	57.85
665.39	57.81
665.719	57.75
666.048	57.89
666.376	57.91
666.705	57.94
667.033	57.77
667.362	57.71
667.69	57.72
668.018	57.71
668.347	57.76
668.675	57.82
669.003	57.63
669.331	57.52
669.659	57.55
669.987	57.57
670.315	57.63
670.643	57.66
670.971	57.76
671.299	57.7
671.627	57.9
671.955	57.9
672.283	58.04
672.61	58.02
672.938	57.85
673.266	57.99
673.593	58.06
673.921	58.21
674.249	58.32
674.576	58.37
674.904	58.48
675.231	58.51
675.558	58.35
675.886	58.41
676.213	58.28
676.54	58.4
676.867	58.34
677.195	58.37
677.522	58.37
677.849	58.42
678.176	58.48
678.503	58.3
678.83	58.45
679.157	58.29
679.484	58.41
679.81	58.47
680.137	58.39
680.464	58.36
680.791	58.39
681.117	58.29
681.444	58.25
681.771	58.18
682.097	58.12
682.424	58.19
682.75	58.26
683.077	58.43
683.403	58.31
683.729	58.33
684.056	58.45
684.382	58.36
684.708	58.36
685.034	58.38
685.36	58.52
685.686	58.31
686.012	58.45
686.339	58.43
686.664	58.53
686.99	58.58
687.316	58.58
687.642	58.53
687.968	58.72
688.294	58.73
688.619	58.77
688.945	58.76
689.271	58.6
689.596	58.66
689.922	58.6
690.247	58.67
690.573	58.75
690.898	58.56
691.224	58.66
691.549	58.57
691.874	58.58
692.2	58.54
692.525	58.5
692.85	58.46
693.175	58.38
693.5	58.26
693.825	58.38
694.15	58.49
694.475	58.4
694.8	58.34
695.125	58.25
695.45	58.23
695.775	58.31
696.099	58.43
696.424	58.27
696.749	58.3
697.073	58.12
697.398	58.04
697.723	58.08
698.047	58.1
698.372	58.03
698.696	58.05
699.02	57.96
699.345	58.03
699.669	57.95
699.993	58.01
700.318	58.1
700.642	57.87
700.966	57.72
701.29	57.84
701.614	57.78
701.938	57.91
702.262	57.9
702.586	57.89
702.91	57.9
703.234	58.03
703.557	57.99
703.881	57.93
704.205	57.96
704.529	57.97
704.852	57.91
705.176	58
705.499	57.96
705.823	58.13
706.146	58.01
706.47	58.15
706.793	58.27
707.117	58.22
707.44	58.35
707.763	58.5
708.086	58.49
708.409	58.43
708.733	58.36
709.056	58.27
709.379	58.32
709.702	58.35
710.025	58.33
710.348	58.36
710.671	58.82
710.993	58.83
711.316	58.88
711.639	58.93
711.962	58.79
712.284	58.8
712.607	58.74
712.93	58.67
713.252	58.69
713.575	58.42
713.897	58.3
714.22	58.28
714.542	58.18
714.864	58.26
715.187	58.28
715.509	58.28
715.831	58.39
716.153	58.52
716.475	58.36
716.798	58.47
717.12	58.43
717.442	58.22
717.764	58.22
718.085	58.24
718.407	58.27
718.729	58.55
719.051	58.45
719.373	58.57
719.695	58.76
720.016	58.69
720.338	58.83
720.659	59.05
720.981	59.17
721.302	59.04
721.624	59.07
721.945	59.25
722.267	59.36
722.588	59.36
722.909	59.17
723.231	59.29
723.552	59.27
723.873	59.38
724.194	59.49
724.515	59.43
724.836	59.22
725.157	59.25
725.478	59.07
725.799	59.3
726.12	59.01
726.441	59.02
726.762	58.85
727.083	58.94
727.403	58.86
727.724	58.76
728.045	59.03
728.365	58.87
728.686	58.75
729.006	58.56
729.327	58.59
729.647	58.75
729.967	58.86
730.288	58.87
730.608	58.8
730.928	58.84
731.249	58.68
731.569	58.86
731.889	58.78
732.209	58.76
732.529	58.69
732.849	59.06
733.169	59.11
733.489	59.18
733.809	59.4
734.129	59.31
734.448	59.42
734.768	59.38
735.088	59.26
735.408	59.23
735.727	59.25
736.047	59.25
736.366	59.18
736.686	59.29
737.005	59.43
737.325	59.4
737.644	59.27
737.963	59.7
738.283	59.7
738.602	59.88
738.921	60.07
739.24	60
739.56	59.74
739.879	59.69
740.198	59.79
740.517	59.41
740.836	59.57
741.155	59.56
741.473	59.29
741.792	59.76
742.111	60.14
742.43	59.99
742.748	59.87
743.067	59.93
743.386	59.46
743.704	59.17
744.023	59.1
744.341	58.9
744.66	58.79
744.978	58.77
745.297	58.47
745.615	58.28
745.933	58.3
746.252	58.46
746.57	58.48
746.888	58.35
747.206	58.27
747.524	57.98
747.842	57.84
748.16	58.25
748.478	57.89
748.796	57.48
749.114	57.78
749.432	58.07
749.749	57.91
750.067	58.24
750.385	58.23
750.703	58.33
751.02	58.2
751.338	58.01
751.655	58.07
751.973	58.34
752.29	58.61
752.608	58.6
752.925	58.54
753.242	58.49
753.56	58.1
753.877	58.47
754.194	58.45
754.511	58.33
754.828	57.86
755.145	57.81
755.462	57.87
755.779	57.9
756.096	57.58
756.413	57.53
756.73	57.63
757.047	57.7
757.364	57.9
757.68	58.04
757.997	58.26
758.314	58.28
758.63	58.16
758.947	58.06
759.264	58.3
759.58	58.37
759.896	58.32
760.213	58.77
760.529	58.41
760.846	58.41
761.162	58.56
761.478	58.78
761.794	58.88
762.11	59.08
762.426	58.89
762.743	59.24
763.059	59.28
763.375	59.28
763.69	59.21
764.006	59.18
764.322	59.51
764.638	59.29
764.954	59.07
765.27	59.11
765.585	58.94
765.901	58.88
766.216	58.55
766.532	58.69
766.848	58.65
767.163	58.96
767.478	59.14
767.794	59.19
768.109	59.25
768.424	59
768.74	58.88
769.055	58.94
769.37	58.8
769.685	58.74
770	58.84
770.315	58.87
770.63	58.57
770.945	58.27
771.26	58.36
771.575	58.61
771.89	58.57
772.205	58.64
772.52	58.79
772.834	58.96
773.149	58.77
773.464	58.65
773.778	58.65
774.093	58.43
774.407	58.42
774.722	58.52
775.036	59.14
775.351	58.97
775.665	58.84
775.979	58.51
776.293	58.5
776.608	58.02
776.922	58.14
777.236	58.08
777.55	57.86
777.864	58.23
778.178	58.23
778.492	58.12
778.806	58.22
779.12	57.67
779.434	57.82
779.747	58
780.061	58.26
780.375	58.22
780.689	58.63
781.002	58.6
781.316	58.28
781.629	58.02
781.943	58.24
782.256	58.46
782.57	58.61
782.883	58.6
783.196	58.4
783.51	58.53
783.823	58.59
784.136	58.43
784.449	57.87
784.762	57.72
785.075	57.76
785.388	57.85
785.701	57.92
786.014	57.65
786.327	57.44
786.64	57.41
786.953	57.1
787.266	56.82
787.578	56.86
787.891	56.85
788.204	56.73
788.516	56.61
788.829	56.7
789.141	56.27
789.454	56.42
789.766	56.99
790.079	57.1
790.391	57.48
790.703	58.22
791.016	58.59
791.328	59.16
791.64	59.29
791.952	59.43
792.264	59.65
792.576	60.03
792.888	60.33
793.2	60.1
793.512	59.94
793.824	60.21
794.136	60.28
794.448	60.44
794.76	60.3
795.071	60.44
795.383	60.7
795.695	61.36
796.006	61.18
796.318	60.9
796.629	60.71
796.941	59.96
797.252	59.72
797.564	59.8
797.875	59.19
798.186	58.59
798.497	58.27
798.809	58.01
799.12	57.68
799.431	57.75
799.742	57.86
800.053	58.07
800.364	57.61
800.675	57.4
800.986	57.53
801.297	57.45
801.608	57.58
801.918	57.18
802.229	56.71
802.54	56.61
802.851	56.64
803.161	56
803.472	56.58
803.782	56.58
804.093	56.75
804.403	56.77
804.714	57.28
805.024	57.39
805.334	57.77
805.645	57.53
805.955	57.45
806.265	57.64
806.575	58.01
806.885	58.18
807.195	58.43
807.505	57.79
807.815	58.29
808.125	57.84
808.435	57.63
808.745	58.01
809.055	58.07
809.365	58.18
809.674	59.07
809.984	58.84
810.294	58.22
810.603	57.39
810.913	57.56
811.222	58.22
811.532	57.73
811.841	57.36
812.151	58.23
812.46	57.71
812.769	58.14
813.079	57.1
813.388	56.79
813.697	56.11
814.006	55.99
814.315	56.76
814.624	56.69
814.933	57.03
815.242	56.36
815.551	56.6
815.86	56.43
816.169	56.11
816.478	55.63
816.786	56.04
817.095	56.69
817.404	56.59
817.712	55.67
818.021	56.24
818.33	56.3
818.638	56.68
818.947	56.78
819.255	56.82
819.563	57.38
819.872	57.93
820.18	58.25
820.488	58.56
820.796	57.84
821.105	57.78
821.413	57.85
821.721	57.99
822.029	57.87
822.337	58.16
822.645	58.11
822.953	58.33
823.26	58.57
823.568	58.67
823.876	58.63
824.184	58.87
824.491	58.86
824.799	58.97
825.107	58.65
825.414	58.67
825.722	58.52
826.029	58.57
826.337	58.65
826.644	58.67
826.951	58.47
827.259	58.57
827.566	58.55
827.873	58.56
828.18	58.48
828.488	58.67
828.795	58.2
829.102	58.33
829.409	58.04
829.716	57.42
830.023	56.98
830.329	56.9
830.636	56.71
830.943	56.8
831.25	56.6
831.557	57.24
831.863	57.08
832.17	57.62
832.476	57.54
832.783	57.41
833.089	57.14
833.396	57.43
833.702	57.61
834.009	57.82
834.315	57.63
834.621	57.99
834.928	57.49
835.234	57.63
835.54	57.81
835.846	58.59
836.152	58.97
836.458	58.98
836.764	59.17
837.07	58.88
837.376	58.73
837.682	58.88
837.988	58.25
838.293	58.52
838.599	57.45
838.905	56.69
839.211	55.72
839.516	55.69
839.822	55.74
840.127	54.89
840.433	55.43
840.738	54.88
841.044	54.56
841.349	55.38
841.654	55.23
841.959	54.31
842.265	52.72
842.57	52.55
842.875	52.82
843.18	52.38
843.485	52.59
843.79	51.73
844.095	50.68
844.4	50.56
844.705	50.52
845.01	52.06
845.315	54.13
845.619	54.79
845.924	54.62
846.229	54.31
846.533	55.02
846.838	54.39
847.142	53.99
847.447	54.6
847.751	54.68
848.056	54.6
848.36	54.25
848.664	54.58
848.969	55.51
849.273	55.28
849.577	56.6
849.881	57.28
850.185	58.34
850.489	59.14
850.794	60.72
851.097	61.14
851.401	60.23
851.705	58.9
852.009	58.78
852.313	59.47
852.617	59.73
852.92	61.22
853.224	60.76
853.528	62.57
853.831	60.63
854.135	60.67
854.438	61.06
854.742	62.03
855.045	62.52
855.349	60.27
855.652	60.22
855.955	58.71
856.259	57.17
856.562	58.65
856.865	57.83
857.168	57.96
857.471	58.05
857.774	56.54
858.077	57.26
858.38	58.68
858.683	57.5
858.986	57.99
859.289	59.14
859.592	58.97
859.894	59.55
860.197	60.4
860.5	59.71
860.802	61.02
861.105	61.26
861.407	59.23
861.71	61.63
862.012	60.59
862.315	59.73
862.617	59.72
862.919	58.31
863.222	59.77
863.524	60.26
863.826	61.43
864.128	63
864.43	62.18
864.732	61.96
865.034	63.51
865.336	61.31
865.638	58.21
865.94	57.57
866.242	56.54
866.544	55.17
866.846	54.4
867.147	54.56
867.449	55.7
867.751	61.47
868.052	59.82
868.354	63.66
868.655	66.04
868.957	64.76
869.258	63.91
869.56	62.89
869.861	60.52
870.162	59.32
870.463	58.53
870.765	58.45
871.066	57.98
871.367	56.88
871.668	58.76
871.969	61.36
872.27	61.88
872.571	62.52
872.872	64.22
873.173	65.44
873.473	63.9
873.774	63.52
874.075	57.58
874.376	58.64
874.676	55.9
874.977	53.41
875.277	54.44
875.578	54.66
875.878	55.2
876.179	56.67
876.479	56.08
876.78	56.77
877.08	56.73
877.38	56.2
877.68	56.56
877.981	55.76
878.281	53.3
878.581	53.58
