Data from BA57710_Reflection_00013.txt Node
Date: Mon Nov 18 15:32:08 EST 2019
User: vgr7
Spectrometer: USB2G7710
Scans to average: 3
Trigger mode: 4
Integration Time (sec): 2.000000E-2
Electric dark correction enabled: true
Boxcar width: 10
XAxis mode: Wavelengths
Number of Pixels in Spectrum: 2048
>>>>>Begin Spectral Data<<<<<
177.721	-34.84
178.105	-4.13
178.488	-88.83
178.871	-46.1
179.254	-148.45
179.636	83.25
180.019	-29.87
180.402	27.78
180.785	62.49
181.168	56.52
181.55	87.56
181.933	84.28
182.316	133.45
182.698	292.15
183.081	488.79
183.463	-826.07
183.846	-814.68
184.228	-312.73
184.611	-429.32
184.993	-149.86
185.376	-123.06
185.758	-127.52
186.14	-125.62
186.522	-212.68
186.904	-151.35
187.287	-212.16
187.669	-61.78
188.051	-117.94
188.433	-218.53
188.815	-66.77
189.197	-30.86
189.579	-3.59
189.961	1.76
190.342	-10.88
190.724	5.17
191.106	9.17
191.488	3.73
191.869	9.01
192.251	-2.66
192.633	-13.59
193.014	-16.47
193.396	-64.84
193.777	-46.04
194.159	-35.61
194.54	-29.22
194.922	-31.72
195.303	-50.34
195.684	-51.98
196.065	-26.13
196.447	-14.67
196.828	-19.7
197.209	-37.22
197.59	-69.16
197.971	-73.13
198.352	-49.16
198.733	-79.95
199.114	-69.39
199.495	-52.47
199.876	-75.76
200.257	-27.39
200.638	-25.88
201.018	-24.14
201.399	-14.89
201.78	-4.53
202.16	-24.04
202.541	-41.46
202.922	-55.87
203.302	-65.25
203.683	-65.48
204.063	-87.92
204.444	-86.16
204.824	-93.99
205.204	-71.54
205.585	-53.01
205.965	-59.36
206.345	-74.24
206.725	-59.04
207.106	-78.71
207.486	-82.09
207.866	-64.86
208.246	-87.74
208.626	-121.79
209.006	-102.88
209.386	-179.52
209.766	-200.91
210.145	-136.83
210.525	-117.63
210.905	-73.37
211.285	-29.9
211.664	-21.19
212.044	-36.07
212.424	-28.89
212.803	-36.95
213.183	-42.57
213.562	-54.75
213.942	-34.75
214.321	-31.54
214.701	-35.44
215.08	-48.68
215.459	-43.25
215.838	-44.09
216.218	-42.6
216.597	-8.56
216.976	-9.2
217.355	7.49
217.734	5.14
218.113	6.02
218.492	-1.68
218.871	-15.07
219.25	-20.62
219.629	-16.27
220.008	-10.51
220.387	-10.65
220.766	-5.21
221.144	-22.65
221.523	-42.22
221.902	-56.08
222.28	-45.31
222.659	-41.39
223.037	-32.23
223.416	-39.07
223.794	-32.35
224.173	-30.38
224.551	-39.23
224.929	-28.59
225.308	-29.04
225.686	-17.2
226.064	-9.55
226.442	-7.95
226.821	-2.13
227.199	-2.94
227.577	-6.66
227.955	-2.57
228.333	-0.68
228.711	-0.51
229.089	5.6
229.467	6.42
229.845	8.32
230.222	6.97
230.6	4.28
230.978	6.5
231.356	7.7
231.733	8.18
232.111	8.87
232.488	10.41
232.866	10.33
233.243	10.55
233.621	8
233.998	9.29
234.376	7.38
234.753	7.6
235.13	8.92
235.508	10.4
235.885	10.67
236.262	10.18
236.639	11.03
237.016	9.1
237.393	10.38
237.77	9.39
238.147	9.02
238.524	9.65
238.901	8.77
239.278	8.5
239.655	8.64
240.032	8.21
240.409	7.13
240.785	7.23
241.162	7.21
241.539	7.39
241.915	6.36
242.292	6.05
242.668	5.86
243.045	5.67
243.421	5.07
243.798	4.66
244.174	4.49
244.551	4.54
244.927	4.51
245.303	4.59
245.679	4.72
246.056	4.67
246.432	4.47
246.808	4.38
247.184	4.18
247.56	4.07
247.936	4.01
248.312	4.03
248.688	4.02
249.064	3.91
249.44	3.91
249.815	4.06
250.191	4.22
250.567	4.26
250.943	4.18
251.318	4.59
251.694	4.53
252.069	4.5
252.445	4.3
252.82	4.16
253.196	3.97
253.571	3.55
253.947	3.71
254.322	3.85
254.697	3.76
255.073	3.52
255.448	3.25
255.823	3.5
256.198	3.54
256.573	3.66
256.948	3.56
257.323	3.79
257.698	3.91
258.073	3.79
258.448	3.81
258.823	4
259.198	3.81
259.573	3.82
259.948	3.84
260.322	3.89
260.697	3.97
261.072	3.87
261.446	3.95
261.821	3.84
262.195	3.96
262.57	3.82
262.944	4.02
263.319	4.03
263.693	3.79
264.067	3.84
264.442	3.77
264.816	3.9
265.19	3.83
265.564	3.76
265.938	3.92
266.313	3.73
266.687	3.58
267.061	3.62
267.435	3.71
267.809	3.73
268.183	3.75
268.556	3.48
268.93	3.49
269.304	3.46
269.678	3.67
270.051	3.42
270.425	3.47
270.799	3.42
271.172	3.5
271.546	3.67
271.919	3.68
272.293	3.6
272.666	3.58
273.04	3.52
273.413	3.42
273.787	3.25
274.16	3.27
274.533	3.25
274.906	3.2
275.279	3.36
275.653	3.36
276.026	3.22
276.399	3.46
276.772	3.65
277.145	3.69
277.518	3.58
277.891	3.86
278.263	4.11
278.636	4.07
279.009	3.91
279.382	4.01
279.755	3.92
280.127	4.02
280.5	4.18
280.872	4.16
281.245	4.05
281.617	4.2
281.99	4.29
282.362	4.3
282.735	4.28
283.107	4.09
283.479	4.12
283.852	4.2
284.224	4.18
284.596	3.99
284.968	4.06
285.34	4.03
285.713	3.82
286.085	3.67
286.457	3.73
286.829	3.89
287.201	3.82
287.572	3.89
287.944	3.78
288.316	3.7
288.688	3.77
289.06	3.78
289.431	3.8
289.803	3.93
290.175	4.07
290.546	4.17
290.918	4.21
291.289	4.02
291.661	4.07
292.032	3.96
292.403	3.97
292.775	3.96
293.146	3.92
293.517	3.87
293.889	3.94
294.26	3.89
294.631	3.85
295.002	3.88
295.373	3.84
295.744	3.89
296.115	3.8
296.486	3.71
296.857	3.87
297.228	3.87
297.599	3.73
297.97	3.58
298.34	3.54
298.711	3.66
299.082	3.81
299.452	3.89
299.823	4.08
300.194	4.23
300.564	4.12
300.935	4.21
301.305	4.36
301.676	4.48
302.046	4.49
302.416	4.63
302.787	4.55
303.157	4.58
303.527	4.56
303.897	4.67
304.267	4.77
304.637	4.87
305.008	4.91
305.378	5
305.748	5.02
306.117	5.02
306.487	5.01
306.857	5.12
307.227	5.08
307.597	5.02
307.967	5
308.336	5.16
308.706	5.18
309.076	5.25
309.445	5.17
309.815	5.23
310.184	5.14
310.554	5.32
310.923	5.35
311.293	5.42
311.662	5.35
312.031	5.27
312.401	5.23
312.77	5.33
313.139	5.39
313.508	5.52
313.877	5.48
314.246	5.54
314.616	5.4
314.985	5.39
315.353	5.33
315.722	5.35
316.091	5.34
316.46	5.41
316.829	5.45
317.198	5.63
317.567	5.73
317.935	5.83
318.304	5.64
318.672	5.74
319.041	5.97
319.41	6.07
319.778	6.18
320.147	6.13
320.515	6.04
320.883	6.11
321.252	6.02
321.62	6.27
321.988	6.16
322.357	6.29
322.725	6.36
323.093	6.57
323.461	6.6
323.829	6.54
324.197	6.59
324.565	6.59
324.933	6.48
325.301	6.38
325.669	6.5
326.037	6.59
326.405	6.62
326.772	6.5
327.14	6.65
327.508	6.86
327.875	6.9
328.243	7.08
328.61	7.13
328.978	7.26
329.346	7.2
329.713	7.3
330.08	7.38
330.448	7.33
330.815	7.15
331.182	7.16
331.55	7.23
331.917	7.28
332.284	7.34
332.651	7.47
333.018	7.53
333.385	7.45
333.752	7.53
334.119	7.53
334.486	7.55
334.853	7.52
335.22	7.38
335.587	7.47
335.954	7.39
336.32	7.39
336.687	7.39
337.054	7.43
337.42	7.46
337.787	7.54
338.153	7.53
338.52	7.71
338.886	7.71
339.253	7.83
339.619	7.84
339.986	7.89
340.352	7.85
340.718	7.95
341.084	7.97
341.451	7.98
341.817	8.07
342.183	8.15
342.549	8.17
342.915	8.25
343.281	8.29
343.647	8.19
344.013	8.18
344.379	8.15
344.745	8.08
345.11	8.09
345.476	8.08
345.842	8.26
346.208	8.25
346.573	8.44
346.939	8.47
347.304	8.42
347.67	8.33
348.035	8.37
348.401	8.37
348.766	8.42
349.132	8.41
349.497	8.45
349.862	8.51
350.228	8.52
350.593	8.54
350.958	8.54
351.323	8.6
351.688	8.61
352.053	8.71
352.418	8.81
352.783	8.84
353.148	8.84
353.513	8.74
353.878	8.76
354.243	8.69
354.608	8.69
354.972	8.69
355.337	8.79
355.702	8.81
356.066	8.87
356.431	8.78
356.795	8.88
357.16	8.84
357.524	8.71
357.889	8.71
358.253	8.72
358.618	8.67
358.982	8.67
359.346	8.61
359.71	8.51
360.075	8.52
360.439	8.47
360.803	8.45
361.167	8.4
361.531	8.33
361.895	8.33
362.259	8.22
362.623	8.27
362.987	8.22
363.351	8.18
363.714	8.07
364.078	8.08
364.442	7.97
364.806	7.9
365.169	7.9
365.533	7.88
365.896	7.83
366.26	7.84
366.623	7.87
366.987	7.85
367.35	7.86
367.714	7.87
368.077	7.8
368.44	7.77
368.803	7.8
369.167	7.84
369.53	7.75
369.893	7.81
370.256	7.81
370.619	7.74
370.982	7.68
371.345	7.7
371.708	7.71
372.071	7.74
372.434	7.71
372.797	7.69
373.159	7.59
373.522	7.52
373.885	7.5
374.247	7.41
374.61	7.42
374.973	7.35
375.335	7.2
375.698	7.16
376.06	7.09
376.423	6.99
376.785	6.92
377.147	6.9
377.51	6.82
377.872	6.74
378.234	6.72
378.596	6.73
378.958	6.66
379.321	6.63
379.683	6.57
380.045	6.52
380.407	6.47
380.769	6.48
381.13	6.45
381.492	6.4
381.854	6.33
382.216	6.28
382.578	6.31
382.939	6.33
383.301	6.33
383.663	6.32
384.024	6.35
384.386	6.32
384.747	6.32
385.109	6.3
385.47	6.23
385.832	6.18
386.193	6.15
386.554	6.14
386.916	6.11
387.277	6.12
387.638	6.17
387.999	6.1
388.36	6.05
388.721	6.08
389.082	6.04
389.443	6.02
389.804	5.95
390.165	5.93
390.526	5.87
390.887	5.8
391.248	5.78
391.609	5.7
391.969	5.67
392.33	5.57
392.691	5.55
393.051	5.57
393.412	5.57
393.772	5.52
394.133	5.49
394.493	5.48
394.854	5.42
395.214	5.34
395.574	5.37
395.935	5.34
396.295	5.26
396.655	5.24
397.015	5.21
397.376	5.2
397.736	5.14
398.096	5.14
398.456	5.17
398.816	5.1
399.176	5.12
399.535	5.12
399.895	5.12
400.255	5.06
400.615	5.01
400.975	4.99
401.334	4.93
401.694	4.9
402.054	4.82
402.413	4.79
402.773	4.75
403.132	4.7
403.492	4.66
403.851	4.63
404.211	4.62
404.57	4.59
404.929	4.58
405.288	4.55
405.648	4.52
406.007	4.49
406.366	4.47
406.725	4.48
407.084	4.44
407.443	4.44
407.802	4.44
408.161	4.42
408.52	4.37
408.879	4.39
409.238	4.4
409.596	4.43
409.955	4.42
410.314	4.41
410.673	4.41
411.031	4.38
411.39	4.35
411.748	4.34
412.107	4.33
412.465	4.27
412.824	4.29
413.182	4.28
413.54	4.25
413.899	4.27
414.257	4.26
414.615	4.22
414.974	4.19
415.332	4.18
415.69	4.18
416.048	4.18
416.406	4.16
416.764	4.13
417.122	4.11
417.48	4.09
417.838	4.09
418.195	4.08
418.553	4.07
418.911	4.08
419.269	4.07
419.626	4.07
419.984	4.08
420.342	4.05
420.699	4.03
421.057	4.01
421.414	3.98
421.772	3.97
422.129	3.97
422.486	3.96
422.844	3.94
423.201	3.93
423.558	3.91
423.915	3.89
424.273	3.88
424.63	3.87
424.987	3.86
425.344	3.84
425.701	3.81
426.058	3.79
426.415	3.77
426.772	3.75
427.128	3.74
427.485	3.72
427.842	3.7
428.199	3.69
428.555	3.7
428.912	3.69
429.269	3.67
429.625	3.67
429.982	3.64
430.338	3.64
430.695	3.64
431.051	3.63
431.407	3.62
431.764	3.64
432.12	3.62
432.476	3.6
432.832	3.59
433.189	3.61
433.545	3.61
433.901	3.61
434.257	3.61
434.613	3.6
434.969	3.61
435.325	3.62
435.681	3.63
436.036	3.63
436.392	3.64
436.748	3.62
437.104	3.61
437.459	3.63
437.815	3.64
438.171	3.64
438.526	3.66
438.882	3.67
439.237	3.67
439.593	3.69
439.948	3.71
440.304	3.71
440.659	3.72
441.014	3.72
441.369	3.72
441.725	3.71
442.08	3.71
442.435	3.71
442.79	3.71
443.145	3.7
443.5	3.69
443.855	3.67
444.21	3.67
444.565	3.67
444.92	3.66
445.275	3.65
445.629	3.65
445.984	3.63
446.339	3.62
446.693	3.59
447.048	3.57
447.403	3.56
447.757	3.55
448.112	3.53
448.466	3.52
448.82	3.52
449.175	3.52
449.529	3.5
449.883	3.49
450.238	3.48
450.592	3.45
450.946	3.44
451.3	3.44
451.654	3.43
452.008	3.42
452.362	3.39
452.716	3.38
453.07	3.4
453.424	3.39
453.778	3.38
454.132	3.37
454.486	3.37
454.839	3.37
455.193	3.37
455.547	3.37
455.9	3.38
456.254	3.38
456.607	3.37
456.961	3.37
457.314	3.36
457.668	3.35
458.021	3.36
458.375	3.36
458.728	3.36
459.081	3.38
459.434	3.37
459.787	3.4
460.141	3.4
460.494	3.38
460.847	3.38
461.2	3.39
461.553	3.39
461.906	3.4
462.259	3.39
462.611	3.38
462.964	3.38
463.317	3.39
463.67	3.4
464.022	3.41
464.375	3.42
464.728	3.43
465.08	3.46
465.433	3.47
465.785	3.47
466.138	3.48
466.49	3.48
466.843	3.49
467.195	3.47
467.547	3.47
467.899	3.48
468.252	3.48
468.604	3.49
468.956	3.51
469.308	3.53
469.66	3.53
470.012	3.55
470.364	3.55
470.716	3.57
471.068	3.58
471.42	3.57
471.772	3.59
472.123	3.59
472.475	3.58
472.827	3.61
473.178	3.61
473.53	3.61
473.882	3.61
474.233	3.6
474.585	3.61
474.936	3.62
475.288	3.6
475.639	3.63
475.99	3.63
476.342	3.62
476.693	3.61
477.044	3.64
477.395	3.65
477.746	3.64
478.097	3.63
478.448	3.61
478.8	3.61
479.15	3.59
479.501	3.59
479.852	3.6
480.203	3.6
480.554	3.61
480.905	3.62
481.255	3.62
481.606	3.63
481.957	3.64
482.307	3.64
482.658	3.63
483.009	3.63
483.359	3.62
483.709	3.63
484.06	3.63
484.41	3.62
484.761	3.62
485.111	3.63
485.461	3.62
485.811	3.64
486.162	3.64
486.512	3.65
486.862	3.65
487.212	3.65
487.562	3.66
487.912	3.66
488.262	3.65
488.612	3.65
488.961	3.64
489.311	3.64
489.661	3.65
490.011	3.66
490.36	3.66
490.71	3.67
491.06	3.66
491.409	3.67
491.759	3.66
492.108	3.66
492.458	3.66
492.807	3.67
493.157	3.66
493.506	3.67
493.855	3.68
494.204	3.67
494.554	3.68
494.903	3.67
495.252	3.69
495.601	3.72
495.95	3.73
496.299	3.76
496.648	3.77
496.997	3.77
497.346	3.8
497.695	3.82
498.043	3.86
498.392	3.89
498.741	3.91
499.09	3.94
499.438	4
499.787	4.01
500.135	4.03
500.484	4.06
500.832	4.11
501.181	4.14
501.529	4.2
501.878	4.25
502.226	4.3
502.574	4.34
502.923	4.36
503.271	4.4
503.619	4.47
503.967	4.53
504.315	4.58
504.663	4.64
505.011	4.68
505.359	4.72
505.707	4.76
506.055	4.82
506.403	4.88
506.751	4.91
507.098	4.98
507.446	5.03
507.794	5.09
508.141	5.12
508.489	5.19
508.837	5.24
509.184	5.29
509.531	5.35
509.879	5.43
510.226	5.5
510.574	5.55
510.921	5.59
511.268	5.65
511.616	5.73
511.963	5.8
512.31	5.89
512.657	5.98
513.004	6.08
513.351	6.15
513.698	6.23
514.045	6.31
514.392	6.39
514.739	6.5
515.086	6.59
515.432	6.67
515.779	6.75
516.126	6.84
516.473	6.93
516.819	7.03
517.166	7.08
517.512	7.16
517.859	7.26
518.205	7.36
518.552	7.44
518.898	7.51
519.245	7.58
519.591	7.64
519.937	7.72
520.283	7.81
520.629	7.93
520.976	8.06
521.322	8.17
521.668	8.3
522.014	8.4
522.36	8.55
522.706	8.7
523.052	8.89
523.398	9.06
523.743	9.24
524.089	9.41
524.435	9.6
524.781	9.78
525.126	9.94
525.472	10.1
525.817	10.24
526.163	10.38
526.509	10.52
526.854	10.65
527.199	10.78
527.545	10.89
527.89	11
528.235	11.14
528.581	11.29
528.926	11.43
529.271	11.58
529.616	11.71
529.961	11.85
530.306	11.98
530.651	12.13
530.996	12.3
531.341	12.48
531.686	12.67
532.031	12.85
532.376	13.03
532.721	13.24
533.065	13.44
533.41	13.66
533.755	13.89
534.099	14.12
534.444	14.36
534.788	14.59
535.133	14.84
535.477	15.08
535.822	15.29
536.166	15.56
536.51	15.85
536.855	16.15
537.199	16.48
537.543	16.82
537.887	17.14
538.231	17.46
538.576	17.79
538.92	18.13
539.264	18.45
539.608	18.75
539.951	19.05
540.295	19.34
540.639	19.58
540.983	19.81
541.327	20.08
541.671	20.35
542.014	20.6
542.358	20.87
542.701	21.13
543.045	21.41
543.389	21.69
543.732	21.94
544.075	22.2
544.419	22.49
544.762	22.76
545.105	23.05
545.449	23.37
545.792	23.71
546.135	24.01
546.478	24.35
546.821	24.71
547.165	25.05
547.508	25.43
547.851	25.81
548.194	26.21
548.536	26.56
548.879	26.95
549.222	27.3
549.565	27.64
549.908	27.95
550.25	28.33
550.593	28.69
550.936	29.08
551.278	29.46
551.621	29.81
551.963	30.23
552.306	30.61
552.648	30.94
552.991	31.27
553.333	31.55
553.675	31.89
554.017	32.26
554.36	32.54
554.702	32.82
555.044	33.17
555.386	33.47
555.728	33.75
556.07	34.06
556.412	34.37
556.754	34.62
557.096	34.98
557.438	35.27
557.78	35.6
558.121	35.9
558.463	36.2
558.805	36.46
559.147	36.69
559.488	37
559.83	37.28
560.171	37.55
560.513	37.88
560.854	38.13
561.196	38.33
561.537	38.62
561.878	38.94
562.22	39.16
562.561	39.44
562.902	39.71
563.243	39.89
563.584	40.11
563.925	40.39
564.266	40.6
564.607	40.8
564.948	40.95
565.289	41.11
565.63	41.28
565.971	41.45
566.312	41.63
566.653	41.8
566.993	41.97
567.334	42.15
567.675	42.34
568.015	42.55
568.356	42.74
568.696	42.95
569.037	43.09
569.377	43.29
569.718	43.49
570.058	43.66
570.398	43.93
570.739	44.13
571.079	44.31
571.419	44.51
571.759	44.7
572.099	44.85
572.439	45.06
572.779	45.27
573.119	45.42
573.459	45.57
573.799	45.73
574.139	45.9
574.479	46.04
574.819	46.18
575.158	46.29
575.498	46.4
575.838	46.52
576.177	46.66
576.517	46.77
576.856	46.92
577.196	47.04
577.535	47.14
577.875	47.24
578.214	47.28
578.553	47.39
578.893	47.45
579.232	47.64
579.571	47.77
579.91	47.87
580.25	47.99
580.589	48.06
580.928	48.15
581.267	48.26
581.606	48.34
581.945	48.45
582.283	48.48
582.622	48.61
582.961	48.7
583.3	48.81
583.639	48.96
583.977	49.02
584.316	49.12
584.654	49.16
584.993	49.27
585.332	49.48
585.67	49.59
586.008	49.78
586.347	49.85
586.685	49.88
587.024	49.93
587.362	50.09
587.7	50.19
588.038	50.33
588.376	50.45
588.715	50.58
589.053	50.64
589.391	50.78
589.729	50.9
590.067	50.93
590.404	51.01
590.742	51.09
591.08	51.12
591.418	51.25
591.756	51.39
592.093	51.45
592.431	51.55
592.769	51.62
593.106	51.6
593.444	51.67
593.781	51.76
594.119	51.87
594.456	51.91
594.793	52.04
595.131	52.11
595.468	52.11
595.805	52.14
596.143	52.18
596.48	52.22
596.817	52.26
597.154	52.3
597.491	52.33
597.828	52.35
598.165	52.43
598.502	52.48
598.839	52.49
599.176	52.56
599.512	52.63
599.849	52.61
600.186	52.69
600.523	52.73
600.859	52.79
601.196	52.8
601.532	52.88
601.869	52.89
602.205	52.94
602.542	53
602.878	53.07
603.215	53.09
603.551	53.17
603.887	53.23
604.223	53.37
604.56	53.45
604.896	53.52
605.232	53.55
605.568	53.55
605.904	53.6
606.24	53.59
606.576	53.6
606.912	53.63
607.248	53.68
607.583	53.7
607.919	53.73
608.255	53.82
608.591	53.84
608.926	53.9
609.262	53.97
609.597	54.02
609.933	54.08
610.268	54.12
610.604	54.15
610.939	54.13
611.275	54.07
611.61	54.03
611.945	53.99
612.281	54.06
612.616	54.15
612.951	54.2
613.286	54.3
613.621	54.32
613.956	54.41
614.291	54.5
614.626	54.55
614.961	54.64
615.296	54.72
615.631	54.66
615.966	54.79
616.3	54.7
616.635	54.77
616.97	54.74
617.304	54.85
617.639	54.98
617.973	55.08
618.308	55.11
618.642	55.19
618.977	55.21
619.311	55.15
619.646	55.12
619.98	55.15
620.314	55.23
620.648	55.27
620.983	55.34
621.317	55.24
621.651	55.28
621.985	55.27
622.319	55.24
622.653	55.32
622.987	55.2
623.321	55.23
623.655	55.25
623.988	55.28
624.322	55.28
624.656	55.31
624.99	55.3
625.323	55.37
625.657	55.36
625.99	55.44
626.324	55.48
626.657	55.52
626.991	55.55
627.324	55.51
627.658	55.57
627.991	55.59
628.324	55.64
628.657	55.65
628.991	55.65
629.324	55.68
629.657	55.77
629.99	55.83
630.323	55.86
630.656	55.88
630.989	55.89
631.322	55.84
631.655	55.78
631.987	55.82
632.32	55.9
632.653	55.99
632.986	56.01
633.318	55.98
633.651	56.03
633.984	55.98
634.316	56.06
634.649	55.99
634.981	55.97
635.313	56.02
635.646	56.04
635.978	56.05
636.31	56.04
636.643	56.04
636.975	56
637.307	56.04
637.639	56.05
637.971	56.01
638.303	56.09
638.635	56.14
638.967	56.06
639.299	55.99
639.631	55.94
639.963	55.96
640.295	56.02
640.626	56.08
640.958	56.11
641.29	56.08
641.621	56.16
641.953	56.1
642.285	56.13
642.616	56.2
642.948	56.29
643.279	56.3
643.61	56.27
643.942	56.47
644.273	56.39
644.604	56.48
644.936	56.56
645.267	56.48
645.598	56.42
645.929	56.48
646.26	56.44
646.591	56.55
646.922	56.46
647.253	56.5
647.584	56.44
647.915	56.55
648.245	56.43
648.576	56.55
648.907	56.7
649.238	56.74
649.568	56.68
649.899	56.63
650.229	56.58
650.56	56.61
650.89	56.47
651.221	56.67
651.551	56.53
651.882	56.7
652.212	56.83
652.542	56.89
652.872	56.87
653.203	57.09
653.533	56.93
653.863	57.06
654.193	57.12
654.523	57.18
654.853	57.17
655.183	57.4
655.513	57.27
655.843	57.29
656.172	57.31
656.502	57.31
656.832	57.4
657.162	57.57
657.491	57.67
657.821	57.74
658.15	57.65
658.48	57.74
658.809	57.7
659.139	57.8
659.468	57.81
659.798	57.91
660.127	57.76
660.456	57.96
660.785	57.98
661.115	58
661.444	57.99
661.773	57.87
662.102	57.84
662.431	57.82
662.76	57.82
663.089	57.75
663.418	57.74
663.747	57.73
664.076	57.72
664.404	57.61
664.733	57.59
665.062	57.57
665.39	57.5
665.719	57.41
666.048	57.4
666.376	57.49
666.705	57.33
667.033	57.41
667.362	57.32
667.69	57.19
668.018	57.13
668.347	57.07
668.675	57.23
669.003	57.3
669.331	57.47
669.659	57.37
669.987	57.36
670.315	57.59
670.643	57.59
670.971	57.67
671.299	57.81
671.627	57.94
671.955	58.01
672.283	58.05
672.61	58.13
672.938	57.89
673.266	57.88
673.593	58
673.921	57.86
674.249	57.89
674.576	58.01
674.904	58.15
675.231	58.26
675.558	58.25
675.886	58.24
676.213	58.17
676.54	58.2
676.867	58.27
677.195	58.16
677.522	58.23
677.849	58.13
678.176	58.11
678.503	58.08
678.83	58.09
679.157	58.13
679.484	58.05
679.81	58.19
680.137	58.05
680.464	58.02
680.791	58.19
681.117	58.09
681.444	58.15
681.771	58.02
682.097	57.99
682.424	57.93
682.75	57.81
683.077	57.69
683.403	57.75
683.729	57.73
684.056	57.74
684.382	57.7
684.708	57.59
685.034	57.52
685.36	57.57
685.686	57.54
686.012	57.63
686.339	57.63
686.664	57.71
686.99	57.8
687.316	57.8
687.642	57.77
687.968	57.82
688.294	57.87
688.619	57.91
688.945	57.68
689.271	57.7
689.596	57.69
689.922	57.86
690.247	57.79
690.573	57.75
690.898	57.71
691.224	57.55
691.549	57.62
691.874	57.71
692.2	57.68
692.525	57.68
692.85	57.62
693.175	57.74
693.5	57.62
693.825	57.6
694.15	57.7
694.475	57.77
694.8	57.99
695.125	57.95
695.45	57.93
695.775	58.1
696.099	58.1
696.424	58.16
696.749	58.13
697.073	58.23
697.398	58.29
697.723	58.3
698.047	58.46
698.372	58.34
698.696	58.28
699.02	58.26
699.345	58.27
699.669	58.25
699.993	58.2
700.318	58.09
700.642	58.18
700.966	58.12
701.29	58.02
701.614	57.89
701.938	57.75
702.262	57.82
702.586	57.81
702.91	57.86
703.234	57.86
703.557	57.87
703.881	57.86
704.205	57.92
704.529	57.89
704.852	57.71
705.176	57.72
705.499	57.75
705.823	57.53
706.146	57.61
706.47	57.53
706.793	57.57
707.117	57.74
707.44	57.81
707.763	57.69
708.086	57.75
708.409	57.85
708.733	58
709.056	58.09
709.379	58.38
709.702	58.19
710.025	58.06
710.348	58.07
710.671	58.04
710.993	57.95
711.316	58.25
711.639	58.36
711.962	58.6
712.284	58.78
712.607	58.87
712.93	58.82
713.252	58.84
713.575	58.82
713.897	58.74
714.22	58.65
714.542	58.79
714.864	58.83
715.187	58.72
715.509	58.62
715.831	58.56
716.153	58.39
716.475	58.56
716.798	58.79
717.12	58.8
717.442	58.68
717.764	58.68
718.085	58.49
718.407	58.54
718.729	58.33
719.051	58.18
719.373	58.13
719.695	58.18
720.016	58.35
720.338	58.43
720.659	58.43
720.981	58.49
721.302	58.54
721.624	58.64
721.945	58.81
722.267	59.02
722.588	59.12
722.909	58.87
723.231	58.89
723.552	58.86
723.873	58.84
724.194	58.86
724.515	59.05
724.836	59.1
725.157	59.05
725.478	59.17
725.799	59.03
726.12	59.24
726.441	59.22
726.762	59.08
727.083	58.98
727.403	59.39
727.724	59.33
728.045	59.23
728.365	59.32
728.686	59.21
729.006	58.9
729.327	58.93
729.647	59.06
729.967	59.1
730.288	59.19
730.608	59.06
730.928	59.14
731.249	58.86
731.569	58.92
731.889	58.89
732.209	58.86
732.529	59.03
732.849	58.99
733.169	58.86
733.489	58.86
733.809	58.84
734.129	58.45
734.448	58.45
734.768	58.53
735.088	58.48
735.408	58.55
735.727	58.53
736.047	58.65
736.366	58.72
736.686	58.73
737.005	58.66
737.325	58.69
737.644	58.81
737.963	59.16
738.283	59.09
738.602	59.31
738.921	59.48
739.24	59.46
739.56	59.44
739.879	59.52
740.198	59.75
740.517	59.95
740.836	59.87
741.155	59.53
741.473	59.61
741.792	59.37
742.111	59.22
742.43	59.55
742.748	59.45
743.067	59.49
743.386	59.25
743.704	59.29
744.023	59.48
744.341	59.26
744.66	59.07
744.978	58.9
745.297	58.75
745.615	58.67
745.933	58.59
746.252	58.66
746.57	58.63
746.888	58.57
747.206	58.55
747.524	59.01
747.842	59.17
748.16	59.03
748.478	59.17
748.796	59.1
749.114	59.27
749.432	59.13
749.749	59.37
750.067	59.58
750.385	59.54
750.703	59.47
751.02	59.47
751.338	59.43
751.655	59.74
751.973	59.62
752.29	59.47
752.608	59.37
752.925	59.47
753.242	59.54
753.56	59.3
753.877	59.43
754.194	59.2
754.511	59.43
754.828	59.39
755.145	59.39
755.462	59.75
755.779	59.42
756.096	59.18
756.413	58.97
756.73	59.04
757.047	59.13
757.364	59.17
757.68	59.32
757.997	59.53
758.314	59.43
758.63	59.83
758.947	59.99
759.264	60.07
759.58	60.21
759.896	60.4
760.213	60.22
760.529	59.96
760.846	59.8
761.162	59.86
761.478	60
761.794	59.93
762.11	59.68
762.426	59.79
762.743	59.82
763.059	59.87
763.375	59.83
763.69	59.73
764.006	59.56
764.322	59.56
764.638	59.54
764.954	59.5
765.27	59.15
765.585	58.98
765.901	58.77
766.216	58.83
766.532	58.7
766.848	58.84
767.163	58.65
767.478	58.9
767.794	58.63
768.109	58.4
768.424	58.69
768.74	58.65
769.055	58.76
769.37	58.97
769.685	58.94
770	58.97
770.315	59.3
770.63	59.4
770.945	59.15
771.26	59.04
771.575	59.22
771.89	59.62
772.205	60.01
772.52	60.27
772.834	59.41
773.149	59.16
773.464	59.19
773.778	59.74
774.093	59.24
774.407	59.84
774.722	59.96
775.036	59.75
775.351	59.61
775.665	59.59
775.979	59.5
776.293	59.33
776.608	59.05
776.922	58.5
777.236	58.45
777.55	58.6
777.864	58.98
778.178	58.82
778.492	58.81
778.806	58.16
779.12	58.34
779.434	59.04
779.747	59.33
780.061	59.54
780.375	59.16
780.689	59.7
781.002	59.36
781.316	59.7
781.629	59.79
781.943	60.54
782.256	60.42
782.57	60.58
782.883	60.55
783.196	60.56
783.51	60.24
783.823	60.44
784.136	60.54
784.449	60.71
784.762	60.43
785.075	60.24
785.388	60.68
785.701	60.41
786.014	60.12
786.327	60.12
786.64	59.88
786.953	59.89
787.266	59.96
787.578	59.72
787.891	59.82
788.204	59.64
788.516	59.21
788.829	59.45
789.141	59.67
789.454	60.27
789.766	60.92
790.079	61.28
790.391	61.36
790.703	61.37
791.016	60.89
791.328	60.83
791.64	60.74
791.952	61.04
792.264	61.5
792.576	61.65
792.888	61.66
793.2	62.02
793.512	62.34
793.824	62.06
794.136	62.39
794.448	61.86
794.76	61.73
795.071	61.24
795.383	61.05
795.695	61.04
796.006	60.35
796.318	60.49
796.629	60.95
796.941	61.14
797.252	61.06
797.564	60.98
797.875	61.21
798.186	61.7
798.497	61.35
798.809	61.11
799.12	60.91
799.431	61.06
799.742	60.68
800.053	60.58
800.364	60.92
800.675	60.58
800.986	60.77
801.297	60.81
801.608	61.28
801.918	61.42
802.229	60.72
802.54	60.55
802.851	59.59
803.161	59.05
803.472	58.86
803.782	58.66
804.093	58.76
804.403	58.37
804.714	57.68
805.024	57.62
805.334	57.11
805.645	57.47
805.955	56.8
806.265	57.53
806.575	57.17
806.885	56.72
807.195	57.07
807.505	56.7
807.815	56.58
808.125	55.99
808.435	55.7
808.745	56.21
809.055	56.52
809.365	56.96
809.674	57.03
809.984	57.03
810.294	57.63
810.603	57.64
810.913	58.84
811.222	59.39
811.532	59.77
811.841	60.06
812.151	60.51
812.46	61.2
812.769	60.34
813.079	60.57
813.388	61.11
813.697	61.46
814.006	61.39
814.315	61.3
814.624	61.81
814.933	61.68
815.242	61.01
815.551	61.31
815.86	60.83
816.169	60.86
816.478	60.85
816.786	60.74
817.095	59.95
817.404	59.16
817.712	58.86
818.021	59
818.33	59.51
818.638	59.06
818.947	59.76
819.255	59.94
819.563	60.17
819.872	60.06
820.18	59.98
820.488	59.92
820.796	60.44
821.105	60.88
821.413	61.06
821.721	61.05
822.029	60.89
822.337	61.27
822.645	61.29
822.953	61.4
823.26	61.22
823.568	61.51
823.876	61.41
824.184	61.27
824.491	61.46
824.799	61.47
825.107	61.32
825.414	61.17
825.722	61.17
826.029	60.92
826.337	60.99
826.644	61.04
826.951	61.34
827.259	61.05
827.566	60.83
827.873	60.66
828.18	60.86
828.488	61.12
828.795	60.99
829.102	60.94
829.409	61.08
829.716	61.19
830.023	61.03
830.329	61.34
830.636	61.71
830.943	61.54
831.25	61.6
831.557	61.77
831.863	61.85
832.17	61.71
832.476	62.45
832.783	62.48
833.089	62.51
833.396	62.2
833.702	62.5
834.009	62.21
834.315	62.62
834.621	62.22
834.928	62.09
835.234	61.37
835.54	61.6
835.846	60.95
836.152	61.53
836.458	61.56
836.764	61.14
837.07	61.06
837.376	60.61
837.682	59.91
837.988	60.09
838.293	59.72
838.599	60
838.905	59.21
839.211	59.01
839.516	58.45
839.822	58.85
840.127	59.07
840.433	59.84
840.738	59.21
841.044	59.72
841.349	60.07
841.654	59.61
841.959	58.61
842.265	58.67
842.57	58.48
842.875	58.66
843.18	59.83
843.485	60.31
843.79	60.81
844.095	60.63
844.4	60.91
844.705	61.72
845.01	60.35
845.315	61.81
845.619	61.54
845.924	61.33
846.229	61.11
846.533	60.37
846.838	58.75
847.142	57.63
847.447	56.45
847.751	55
848.056	56.81
848.36	57.48
848.664	59.26
848.969	56.95
849.273	57.06
849.577	56.51
849.881	55.29
850.185	55.72
850.489	59.24
850.794	58.75
851.097	59.45
851.401	62.18
851.705	61.49
852.009	60.04
852.313	60.92
852.617	60.31
852.92	59.78
853.224	59.87
853.528	62.24
853.831	62.73
854.135	62.46
854.438	64.07
854.742	62.99
855.045	61.4
855.349	62.9
855.652	61.22
855.955	61.86
856.259	60.89
856.562	60.89
856.865	59.12
857.168	58.49
857.471	55.53
857.774	55.7
858.077	54.99
858.38	57.66
858.683	57.07
858.986	57.33
859.289	58.08
859.592	58.67
859.894	58.71
860.197	59.66
860.5	62.14
860.802	60.37
861.105	62.62
861.407	61.24
861.71	59.15
862.012	59.03
862.315	57.81
862.617	57.93
862.919	55.93
863.222	52.96
863.524	54.64
863.826	56.77
864.128	55.67
864.43	57.47
864.732	57.76
865.034	57.25
865.336	56.86
865.638	56.53
865.94	57.06
866.242	55.64
866.544	54.58
866.846	50.99
867.147	50.54
867.449	48.38
867.751	47.52
868.052	50.48
868.354	52.51
868.655	51.59
868.957	50.37
869.258	52.03
869.56	55.48
869.861	53.24
870.162	51.02
870.463	53.16
870.765	53.03
871.066	49.51
871.367	49.45
871.668	51.28
871.969	51.14
872.27	51.46
872.571	51.52
872.872	54.51
873.173	54.59
873.473	56.69
873.774	57.93
874.075	60.5
874.376	57.62
874.676	55.64
874.977	57.78
875.277	60.95
875.578	60.28
875.878	59.76
876.179	61.42
876.479	62.37
876.78	60.41
877.08	59.21
877.38	62.59
877.68	65.02
877.981	63.19
878.281	63.37
878.581	61.78
