Data from BA57890_Reflection_00014.txt Node
Date: Mon Nov 18 15:06:32 EST 2019
User: vgr7
Spectrometer: USB2G7710
Scans to average: 3
Trigger mode: 4
Integration Time (sec): 2.000000E-2
Electric dark correction enabled: true
Boxcar width: 10
XAxis mode: Wavelengths
Number of Pixels in Spectrum: 2048
>>>>>Begin Spectral Data<<<<<
177.721	44.99
178.105	208.37
178.488	176.1
178.871	170.41
179.254	121.7
179.636	142.78
180.019	111.69
180.402	285.71
180.785	-1616.42
181.168	213.81
181.55	149.7
181.933	151.74
182.316	123.2
182.698	154.52
183.081	179.54
183.463	302.99
183.846	137.96
184.228	161.29
184.611	131.73
184.993	193.18
185.376	73.6
185.758	151.84
186.14	254.62
186.522	204.43
186.904	220.14
187.287	181.62
187.669	343.99
188.051	438.68
188.433	772.47
188.815	-4190.32
189.197	-134.66
189.579	-364.62
189.961	-201.94
190.342	-900
190.724	-239.45
191.106	173.31
191.488	15.25
191.869	313.87
192.251	210.71
192.633	2564.79
193.014	256.53
193.396	247.97
193.777	135.69
194.159	158.15
194.54	226.97
194.922	140.46
195.303	177.58
195.684	50.57
196.065	7.92
196.447	9.9
196.828	31.99
197.209	15.89
197.59	41.5
197.971	53.75
198.352	18.07
198.733	150.3
199.114	348.87
199.495	-479.62
199.876	-31.48
200.257	-29.97
200.638	-5.2
201.018	4.3
201.399	-3.27
201.78	-13.2
202.16	-69.32
202.541	-221.82
202.922	-390.47
203.302	-522.17
203.683	-369.81
204.063	-404.74
204.444	-219.97
204.824	-209.87
205.204	-201.44
205.585	-173.7
205.965	-169.97
206.345	-216.33
206.725	-220.12
207.106	-319.68
207.486	-1031.29
207.866	-2143.52
208.246	2750.35
208.626	-1846.06
209.006	-1828.3
209.386	905.5
209.766	1053.49
210.145	-592.09
210.525	-376.43
210.905	-239.61
211.285	-193.15
211.664	-166.64
212.044	-153.83
212.424	-156.9
212.803	-142.05
213.183	-136.77
213.562	-125.47
213.942	-95.26
214.321	-100.77
214.701	-157.41
215.08	-130.7
215.459	-83.58
215.838	-83.55
216.218	-97.4
216.597	-64.66
216.976	-68.95
217.355	-47.71
217.734	-41.14
218.113	-53.43
218.492	-49.85
218.871	-61.83
219.25	-67.39
219.629	-65.36
220.008	-66.28
220.387	-68.51
220.766	-62.62
221.144	-70.26
221.523	-85.45
221.902	-100.18
222.28	-93.43
222.659	-79.95
223.037	-67.16
223.416	-74.32
223.794	-77.88
224.173	-58.64
224.551	-58.43
224.929	-44.79
225.308	-34.36
225.686	-37.48
226.064	-28.53
226.442	-27.12
226.821	-16.09
227.199	-12.37
227.577	-12.66
227.955	-13.8
228.333	-15.16
228.711	-12.6
229.089	-6.91
229.467	-6.28
229.845	-6.26
230.222	-1.44
230.6	-0.08
230.978	-1.8
231.356	-0.85
231.733	0.63
232.111	0.36
232.488	1.15
232.866	1.26
233.243	1.69
233.621	3.26
233.998	2.52
234.376	2.68
234.753	2.16
235.13	1.98
235.508	4.01
235.885	4.22
236.262	3.76
236.639	2.24
237.016	0.65
237.393	1.87
237.77	2.8
238.147	1.83
238.524	2.05
238.901	2.89
239.278	3.45
239.655	3.93
240.032	4.68
240.409	3.82
240.785	3.88
241.162	3.68
241.539	4
241.915	4.06
242.292	3.53
242.668	3.63
243.045	3.94
243.421	3.58
243.798	3.53
244.174	3.69
244.551	3.92
244.927	3.76
245.303	3.77
245.679	4
246.056	3.85
246.432	3.83
246.808	3.81
247.184	3.61
247.56	3.45
247.936	3.28
248.312	3.52
248.688	3.34
249.064	3
249.44	3.03
249.815	3.18
250.191	3.42
250.567	3.45
250.943	3.24
251.318	3.45
251.694	3.66
252.069	3.53
252.445	3.45
252.82	3.87
253.196	3.96
253.571	3.76
253.947	3.79
254.322	4.21
254.697	4.13
255.073	3.94
255.448	3.86
255.823	3.78
256.198	3.76
256.573	3.89
256.948	4.11
257.323	4.01
257.698	3.9
258.073	3.88
258.448	3.77
258.823	3.92
259.198	3.8
259.573	3.79
259.948	3.76
260.322	3.79
260.697	3.6
261.072	3.62
261.446	3.53
261.821	3.52
262.195	3.38
262.57	3.37
262.944	3.41
263.319	3.31
263.693	3.34
264.067	3.35
264.442	3.4
264.816	3.51
265.19	3.52
265.564	3.6
265.938	3.58
266.313	3.51
266.687	3.46
267.061	3.46
267.435	3.53
267.809	3.63
268.183	3.51
268.556	3.44
268.93	3.36
269.304	3.53
269.678	3.59
270.051	3.48
270.425	3.55
270.799	3.62
271.172	3.69
271.546	3.75
271.919	3.69
272.293	3.8
272.666	3.67
273.04	3.74
273.413	3.75
273.787	3.68
274.16	3.84
274.533	3.78
274.906	3.8
275.279	3.65
275.653	3.6
276.026	3.69
276.399	3.77
276.772	3.83
277.145	3.71
277.518	3.7
277.891	3.83
278.263	3.58
278.636	3.48
279.009	3.57
279.382	3.52
279.755	3.38
280.127	3.28
280.5	3.33
280.872	3.3
281.245	3.15
281.617	3.24
281.99	3.28
282.362	3.39
282.735	3.33
283.107	3.32
283.479	3.33
283.852	3.34
284.224	3.3
284.596	3.29
284.968	3.34
285.34	3.31
285.713	3.27
286.085	3.45
286.457	3.58
286.829	3.58
287.201	3.67
287.572	3.8
287.944	3.79
288.316	3.78
288.688	3.74
289.06	3.76
289.431	3.84
289.803	3.79
290.175	3.71
290.546	3.87
290.918	3.8
291.289	3.85
291.661	3.9
292.032	4.08
292.403	4.21
292.775	4.35
293.146	4.41
293.517	4.45
293.889	4.5
294.26	4.56
294.631	4.56
295.002	4.51
295.373	4.47
295.744	4.55
296.115	4.66
296.486	4.64
296.857	4.75
297.228	4.78
297.599	4.68
297.97	4.69
298.34	4.66
298.711	4.83
299.082	4.88
299.452	4.93
299.823	5
300.194	4.88
300.564	4.78
300.935	4.93
301.305	4.97
301.676	4.95
302.046	5.06
302.416	5.33
302.787	5.4
303.157	5.47
303.527	5.45
303.897	5.57
304.267	5.77
304.637	5.98
305.008	6.18
305.378	6.46
305.748	6.69
306.117	6.82
306.487	6.97
306.857	6.96
307.227	7.05
307.597	7.02
307.967	7.11
308.336	7.22
308.706	7.2
309.076	7.34
309.445	7.35
309.815	7.38
310.184	7.29
310.554	7.47
310.923	7.46
311.293	7.57
311.662	7.54
312.031	7.57
312.401	7.58
312.77	7.61
313.139	7.65
313.508	7.77
313.877	7.75
314.246	7.7
314.616	7.8
314.985	7.87
315.353	8.08
315.722	8.22
316.091	8.33
316.46	8.4
316.829	8.57
317.198	8.71
317.567	8.55
317.935	8.78
318.304	8.78
318.672	8.86
319.041	9.09
319.41	9.19
319.778	9.22
320.147	9.29
320.515	9.3
320.883	9.47
321.252	9.4
321.62	9.51
321.988	9.62
322.357	9.87
322.725	9.88
323.093	9.89
323.461	9.96
323.829	10.03
324.197	10.09
324.565	10.08
324.933	10.19
325.301	10.45
325.669	10.31
326.037	10.37
326.405	10.56
326.772	10.61
327.14	10.81
327.508	10.9
327.875	10.92
328.243	10.89
328.61	10.84
328.978	10.95
329.346	10.95
329.713	11.14
330.08	11.09
330.448	11.15
330.815	11.14
331.182	11.17
331.55	11.17
331.917	11.3
332.284	11.33
332.651	11.33
333.018	11.42
333.385	11.54
333.752	11.53
334.119	11.6
334.486	11.49
334.853	11.36
335.22	11.43
335.587	11.45
335.954	11.59
336.32	11.68
336.687	11.64
337.054	11.67
337.42	11.68
337.787	11.73
338.153	11.72
338.52	11.78
338.886	11.76
339.253	11.69
339.619	11.79
339.986	11.77
340.352	12.03
340.718	12.04
341.084	12.1
341.451	12.14
341.817	12.17
342.183	12.22
342.549	12.31
342.915	12.34
343.281	12.39
343.647	12.39
344.013	12.32
344.379	12.37
344.745	12.47
345.11	12.52
345.476	12.52
345.842	12.59
346.208	12.6
346.573	12.65
346.939	12.78
347.304	12.67
347.67	12.7
348.035	12.54
348.401	12.52
348.766	12.46
349.132	12.48
349.497	12.47
349.862	12.44
350.228	12.48
350.593	12.46
350.958	12.46
351.323	12.49
351.688	12.58
352.053	12.62
352.418	12.67
352.783	12.55
353.148	12.46
353.513	12.46
353.878	12.49
354.243	12.52
354.608	12.44
354.972	12.38
355.337	12.36
355.702	12.38
356.066	12.36
356.431	12.31
356.795	12.41
357.16	12.32
357.524	12.28
357.889	12.12
358.253	12.14
358.618	12.15
358.982	12.09
359.346	11.98
359.71	11.87
360.075	11.83
360.439	11.84
360.803	11.84
361.167	11.81
361.531	11.74
361.895	11.68
362.259	11.65
362.623	11.69
362.987	11.64
363.351	11.63
363.714	11.6
364.078	11.58
364.442	11.46
364.806	11.44
365.169	11.39
365.533	11.42
365.896	11.32
366.26	11.22
366.623	11.09
366.987	11.14
367.35	11.23
367.714	11.2
368.077	11.07
368.44	10.96
368.803	10.98
369.167	10.89
369.53	10.83
369.893	10.88
370.256	10.79
370.619	10.79
370.982	10.66
371.345	10.56
371.708	10.53
372.071	10.41
372.434	10.31
372.797	10.28
373.159	10.16
373.522	10.12
373.885	10.09
374.247	10.06
374.61	10.03
374.973	9.88
375.335	9.77
375.698	9.79
376.06	9.76
376.423	9.63
376.785	9.65
377.147	9.56
377.51	9.43
377.872	9.41
378.234	9.3
378.596	9.25
378.958	9.16
379.321	9.07
379.683	9.04
380.045	8.97
380.407	8.88
380.769	8.87
381.13	8.81
381.492	8.73
381.854	8.73
382.216	8.63
382.578	8.59
382.939	8.53
383.301	8.43
383.663	8.37
384.024	8.29
384.386	8.24
384.747	8.22
385.109	8.19
385.47	8.08
385.832	8.1
386.193	8.08
386.554	8.08
386.916	8.07
387.277	7.97
387.638	7.99
387.999	7.98
388.36	7.89
388.721	7.82
389.082	7.76
389.443	7.69
389.804	7.6
390.165	7.55
390.526	7.48
390.887	7.46
391.248	7.42
391.609	7.4
391.969	7.35
392.33	7.31
392.691	7.28
393.051	7.26
393.412	7.2
393.772	7.12
394.133	7.05
394.493	6.97
394.854	6.96
395.214	6.87
395.574	6.82
395.935	6.83
396.295	6.79
396.655	6.75
397.015	6.7
397.376	6.68
397.736	6.61
398.096	6.59
398.456	6.51
398.816	6.46
399.176	6.44
399.535	6.36
399.895	6.29
400.255	6.22
400.615	6.17
400.975	6.04
401.334	5.98
401.694	5.96
402.054	5.93
402.413	5.88
402.773	5.86
403.132	5.79
403.492	5.75
403.851	5.72
404.211	5.66
404.57	5.61
404.929	5.59
405.288	5.57
405.648	5.51
406.007	5.51
406.366	5.5
406.725	5.52
407.084	5.51
407.443	5.52
407.802	5.51
408.161	5.51
408.52	5.51
408.879	5.51
409.238	5.49
409.596	5.49
409.955	5.47
410.314	5.47
410.673	5.49
411.031	5.46
411.39	5.47
411.748	5.47
412.107	5.51
412.465	5.47
412.824	5.45
413.182	5.41
413.54	5.4
413.899	5.37
414.257	5.32
414.615	5.31
414.974	5.3
415.332	5.26
415.69	5.22
416.048	5.19
416.406	5.19
416.764	5.15
417.122	5.13
417.48	5.1
417.838	5.06
418.195	5.01
418.553	4.98
418.911	4.94
419.269	4.92
419.626	4.87
419.984	4.84
420.342	4.82
420.699	4.8
421.057	4.8
421.414	4.77
421.772	4.74
422.129	4.72
422.486	4.68
422.844	4.67
423.201	4.65
423.558	4.64
423.915	4.61
424.273	4.59
424.63	4.57
424.987	4.55
425.344	4.55
425.701	4.54
426.058	4.53
426.415	4.51
426.772	4.51
427.128	4.51
427.485	4.5
427.842	4.5
428.199	4.49
428.555	4.46
428.912	4.45
429.269	4.43
429.625	4.4
429.982	4.39
430.338	4.35
430.695	4.35
431.051	4.34
431.407	4.34
431.764	4.32
432.12	4.31
432.476	4.29
432.832	4.27
433.189	4.26
433.545	4.26
433.901	4.26
434.257	4.23
434.613	4.23
434.969	4.22
435.325	4.21
435.681	4.23
436.036	4.23
436.392	4.24
436.748	4.24
437.104	4.23
437.459	4.23
437.815	4.24
438.171	4.21
438.526	4.19
438.882	4.2
439.237	4.2
439.593	4.21
439.948	4.21
440.304	4.21
440.659	4.22
441.014	4.21
441.369	4.21
441.725	4.2
442.08	4.2
442.435	4.19
442.79	4.18
443.145	4.16
443.5	4.15
443.855	4.13
444.21	4.11
444.565	4.11
444.92	4.12
445.275	4.12
445.629	4.11
445.984	4.12
446.339	4.09
446.693	4.09
447.048	4.08
447.403	4.07
447.757	4.06
448.112	4.05
448.466	4.02
448.82	4.02
449.175	4.02
449.529	4.02
449.883	4.01
450.238	4
450.592	3.99
450.946	3.96
451.3	3.94
451.654	3.92
452.008	3.93
452.362	3.9
452.716	3.88
453.07	3.89
453.424	3.9
453.778	3.91
454.132	3.89
454.486	3.89
454.839	3.9
455.193	3.9
455.547	3.9
455.9	3.9
456.254	3.88
456.607	3.88
456.961	3.87
457.314	3.86
457.668	3.87
458.021	3.86
458.375	3.88
458.728	3.9
459.081	3.92
459.434	3.91
459.787	3.92
460.141	3.93
460.494	3.95
460.847	3.93
461.2	3.93
461.553	3.95
461.906	3.94
462.259	3.95
462.611	3.98
462.964	3.99
463.317	4.01
463.67	4.02
464.022	4.02
464.375	4.03
464.728	4.07
465.08	4.08
465.433	4.12
465.785	4.14
466.138	4.14
466.49	4.17
466.843	4.18
467.195	4.2
467.547	4.21
467.899	4.22
468.252	4.24
468.604	4.27
468.956	4.29
469.308	4.32
469.66	4.31
470.012	4.32
470.364	4.34
470.716	4.35
471.068	4.36
471.42	4.39
471.772	4.42
472.123	4.41
472.475	4.41
472.827	4.42
473.178	4.42
473.53	4.43
473.882	4.42
474.233	4.42
474.585	4.4
474.936	4.39
475.288	4.39
475.639	4.39
475.99	4.38
476.342	4.36
476.693	4.34
477.044	4.36
477.395	4.33
477.746	4.32
478.097	4.31
478.448	4.31
478.8	4.29
479.15	4.26
479.501	4.24
479.852	4.24
480.203	4.24
480.554	4.24
480.905	4.24
481.255	4.25
481.606	4.26
481.957	4.27
482.307	4.28
482.658	4.27
483.009	4.27
483.359	4.27
483.709	4.28
484.06	4.28
484.41	4.28
484.761	4.29
485.111	4.3
485.461	4.3
485.811	4.3
486.162	4.31
486.512	4.31
486.862	4.33
487.212	4.32
487.562	4.33
487.912	4.33
488.262	4.32
488.612	4.31
488.961	4.32
489.311	4.31
489.661	4.31
490.011	4.32
490.36	4.32
490.71	4.34
491.06	4.34
491.409	4.35
491.759	4.34
492.108	4.35
492.458	4.35
492.807	4.37
493.157	4.39
493.506	4.42
493.855	4.42
494.204	4.44
494.554	4.47
494.903	4.48
495.252	4.52
495.601	4.56
495.95	4.6
496.299	4.63
496.648	4.69
496.997	4.72
497.346	4.77
497.695	4.81
498.043	4.83
498.392	4.88
498.741	4.92
499.09	4.96
499.438	5.01
499.787	5.04
500.135	5.08
500.484	5.14
500.832	5.19
501.181	5.27
501.529	5.33
501.878	5.39
502.226	5.45
502.574	5.51
502.923	5.58
503.271	5.65
503.619	5.75
503.967	5.82
504.315	5.9
504.663	5.99
505.011	6.05
505.359	6.12
505.707	6.23
506.055	6.35
506.403	6.43
506.751	6.52
507.098	6.61
507.446	6.72
507.794	6.83
508.141	6.93
508.489	7.02
508.837	7.13
509.184	7.23
509.531	7.33
509.879	7.44
510.226	7.57
510.574	7.69
510.921	7.78
511.268	7.9
511.616	8.02
511.963	8.14
512.31	8.28
512.657	8.45
513.004	8.56
513.351	8.68
513.698	8.84
514.045	8.99
514.392	9.17
514.739	9.3
515.086	9.45
515.432	9.59
515.779	9.76
516.126	9.91
516.473	10.06
516.819	10.23
517.166	10.35
517.512	10.48
517.859	10.59
518.205	10.72
518.552	10.84
518.898	10.97
519.245	11.08
519.591	11.22
519.937	11.35
520.283	11.49
520.629	11.67
520.976	11.83
521.322	11.99
521.668	12.15
522.014	12.35
522.36	12.53
522.706	12.72
523.052	12.94
523.398	13.2
523.743	13.44
524.089	13.67
524.435	13.9
524.781	14.14
525.126	14.36
525.472	14.55
525.817	14.75
526.163	14.93
526.509	15.1
526.854	15.23
527.199	15.38
527.545	15.52
527.89	15.65
528.235	15.8
528.581	15.96
528.926	16.11
529.271	16.29
529.616	16.41
529.961	16.58
530.306	16.75
530.651	16.9
530.996	17.09
531.341	17.27
531.686	17.46
532.031	17.65
532.376	17.86
532.721	18.07
533.065	18.27
533.41	18.49
533.755	18.7
534.099	18.96
534.444	19.18
534.788	19.42
535.133	19.65
535.477	19.91
535.822	20.18
536.166	20.44
536.51	20.71
536.855	21.05
537.199	21.38
537.543	21.67
537.887	22.01
538.231	22.32
538.576	22.66
538.92	22.96
539.264	23.27
539.608	23.57
539.951	23.85
540.295	24.11
540.639	24.37
540.983	24.61
541.327	24.84
541.671	25.09
542.014	25.33
542.358	25.54
542.701	25.76
543.045	25.98
543.389	26.23
543.732	26.42
544.075	26.64
544.419	26.87
544.762	27.12
545.105	27.35
545.449	27.62
545.792	27.85
546.135	28.14
546.478	28.43
546.821	28.72
547.165	29.01
547.508	29.32
547.851	29.62
548.194	29.94
548.536	30.24
548.879	30.53
549.222	30.85
549.565	31.18
549.908	31.47
550.25	31.72
550.593	31.97
550.936	32.31
551.278	32.59
551.621	32.86
551.963	33.15
552.306	33.4
552.648	33.66
552.991	33.94
553.333	34.22
553.675	34.44
554.017	34.65
554.36	34.92
554.702	35.15
555.044	35.37
555.386	35.61
555.728	35.85
556.07	36.08
556.412	36.26
556.754	36.46
557.096	36.66
557.438	36.91
557.78	37.22
558.121	37.45
558.463	37.68
558.805	37.91
559.147	38.11
559.488	38.35
559.83	38.58
560.171	38.8
560.513	38.93
560.854	39.17
561.196	39.36
561.537	39.54
561.878	39.68
562.22	39.89
562.561	40.09
562.902	40.31
563.243	40.46
563.584	40.66
563.925	40.87
564.266	41.03
564.607	41.19
564.948	41.3
565.289	41.44
565.63	41.61
565.971	41.73
566.312	41.85
566.653	42.01
566.993	42.11
567.334	42.25
567.675	42.41
568.015	42.54
568.356	42.67
568.696	42.83
569.037	42.98
569.377	43.14
569.718	43.22
570.058	43.33
570.398	43.5
570.739	43.59
571.079	43.7
571.419	43.82
571.759	43.94
572.099	44.02
572.439	44.18
572.779	44.27
573.119	44.37
573.459	44.48
573.799	44.61
574.139	44.68
574.479	44.78
574.819	44.9
575.158	44.99
575.498	45.11
575.838	45.14
576.177	45.24
576.517	45.27
576.856	45.44
577.196	45.56
577.535	45.67
577.875	45.81
578.214	45.94
578.553	46.07
578.893	46.21
579.232	46.38
579.571	46.46
579.91	46.62
580.25	46.7
580.589	46.88
580.928	46.94
581.267	47.1
581.606	47.19
581.945	47.26
582.283	47.32
582.622	47.45
582.961	47.58
583.3	47.69
583.639	47.79
583.977	47.83
584.316	47.84
584.654	47.89
584.993	47.95
585.332	47.95
585.67	47.96
586.008	47.98
586.347	48.03
586.685	48.13
587.024	48.21
587.362	48.24
587.7	48.26
588.038	48.32
588.376	48.44
588.715	48.48
589.053	48.57
589.391	48.67
589.729	48.67
590.067	48.66
590.404	48.69
590.742	48.81
591.08	48.89
591.418	49
591.756	49.04
592.093	49.15
592.431	49.3
592.769	49.39
593.106	49.51
593.444	49.47
593.781	49.46
594.119	49.45
594.456	49.56
594.793	49.6
595.131	49.63
595.468	49.6
595.805	49.64
596.143	49.72
596.48	49.72
596.817	49.75
597.154	49.82
597.491	49.85
597.828	49.8
598.165	49.84
598.502	49.86
598.839	49.97
599.176	49.96
599.512	49.94
599.849	50.01
600.186	49.99
600.523	50.11
600.859	50.13
601.196	50.17
601.532	50.12
601.869	50.17
602.205	50.27
602.542	50.36
602.878	50.31
603.215	50.25
603.551	50.3
603.887	50.32
604.223	50.42
604.56	50.42
604.896	50.46
605.232	50.44
605.568	50.46
605.904	50.5
606.24	50.54
606.576	50.63
606.912	50.64
607.248	50.68
607.583	50.67
607.919	50.76
608.255	50.83
608.591	50.91
608.926	50.87
609.262	50.81
609.597	50.77
609.933	50.92
610.268	51.05
610.604	51.07
610.939	51.14
611.275	51.11
611.61	51.17
611.945	51.26
612.281	51.32
612.616	51.4
612.951	51.41
613.286	51.43
613.621	51.41
613.956	51.46
614.291	51.5
614.626	51.62
614.961	51.67
615.296	51.72
615.631	51.86
615.966	52
616.3	52.03
616.635	52.08
616.97	52.11
617.304	52.08
617.639	52.11
617.973	52.11
618.308	52.15
618.642	52.16
618.977	52.1
619.311	52.12
619.646	52.09
619.98	52.04
620.314	52.03
620.648	52.03
620.983	52.08
621.317	52.17
621.651	52.13
621.985	52.1
622.319	52.02
622.653	51.94
622.987	51.84
623.321	51.89
623.655	51.88
623.988	51.83
624.322	51.81
624.656	51.82
624.99	51.87
625.323	51.87
625.657	51.91
625.99	51.94
626.324	52.02
626.657	52.08
626.991	52.03
627.324	52.01
627.658	52.1
627.991	52.01
628.324	51.99
628.657	51.95
628.991	51.98
629.324	52.05
629.657	52.11
629.99	52.23
630.323	52.16
630.656	52.28
630.989	52.32
631.322	52.37
631.655	52.34
631.987	52.34
632.32	52.45
632.653	52.47
632.986	52.49
633.318	52.43
633.651	52.43
633.984	52.54
634.316	52.67
634.649	52.61
634.981	52.68
635.313	52.65
635.646	52.75
635.978	52.76
636.31	52.79
636.643	52.73
636.975	52.76
637.307	52.88
637.639	52.85
637.971	52.89
638.303	52.94
638.635	53.06
638.967	53.04
639.299	52.92
639.631	52.98
639.963	52.99
640.295	53.08
640.626	53.02
640.958	52.98
641.29	53.02
641.621	53.04
641.953	53.06
642.285	53.13
642.616	53.16
642.948	53.09
643.279	53.12
643.61	53.26
643.942	53.23
644.273	53.23
644.604	53.24
644.936	53.27
645.267	53.21
645.598	53.13
645.929	53.17
646.26	53.35
646.591	53.28
646.922	53.31
647.253	53.28
647.584	53.39
647.915	53.41
648.245	53.32
648.576	53.36
648.907	53.34
649.238	53.35
649.568	53.32
649.899	53.33
650.229	53.23
650.56	53.18
650.89	53.2
651.221	53.25
651.551	53.23
651.882	53.29
652.212	53.37
652.542	53.44
652.872	53.45
653.203	53.4
653.533	53.45
653.863	53.54
654.193	53.47
654.523	53.37
654.853	53.5
655.183	53.55
655.513	53.54
655.843	53.55
656.172	53.53
656.502	53.56
656.832	53.66
657.162	53.74
657.491	53.85
657.821	53.9
658.15	53.89
658.48	53.82
658.809	53.75
659.139	53.67
659.468	53.68
659.798	53.68
660.127	53.65
660.456	53.6
660.785	53.59
661.115	53.7
661.444	53.75
661.773	53.74
662.102	53.73
662.431	53.72
662.76	53.75
663.089	53.79
663.418	53.77
663.747	53.8
664.076	53.79
664.404	53.65
664.733	53.59
665.062	53.51
665.39	53.65
665.719	53.66
666.048	53.85
666.376	53.82
666.705	53.84
667.033	53.8
667.362	53.98
667.69	53.86
668.018	53.77
668.347	53.77
668.675	53.73
669.003	53.63
669.331	53.63
669.659	53.63
669.987	53.63
670.315	53.55
670.643	53.5
670.971	53.53
671.299	53.71
671.627	53.68
671.955	53.7
672.283	53.7
672.61	53.64
672.938	53.54
673.266	53.58
673.593	53.75
673.921	53.95
674.249	53.8
674.576	53.96
674.904	53.97
675.231	54.06
675.558	53.83
675.886	53.96
676.213	54.16
676.54	54.23
676.867	54.18
677.195	54.29
677.522	54.27
677.849	54.24
678.176	54.08
678.503	54.05
678.83	54.21
679.157	54.08
679.484	54.07
679.81	54.2
680.137	54.28
680.464	54.1
680.791	54
681.117	54.1
681.444	53.98
681.771	54.16
682.097	54.16
682.424	54.43
682.75	54.41
683.077	54.29
683.403	54.16
683.729	54.12
684.056	54.05
684.382	53.98
684.708	54.11
685.034	54.29
685.36	54.34
685.686	54.39
686.012	54.56
686.339	54.65
686.664	54.47
686.99	54.36
687.316	54.38
687.642	54.44
687.968	54.45
688.294	54.5
688.619	54.37
688.945	54.27
689.271	54.27
689.596	54.39
689.922	54.34
690.247	54.36
690.573	54.49
690.898	54.53
691.224	54.67
691.549	54.7
691.874	54.58
692.2	54.62
692.525	54.52
692.85	54.45
693.175	54.34
693.5	54.33
693.825	54.27
694.15	54.28
694.475	54.23
694.8	54.23
695.125	54.17
695.45	54.25
695.775	54.34
696.099	54.23
696.424	54.08
696.749	54
697.073	53.96
697.398	53.85
697.723	53.92
698.047	53.91
698.372	53.73
698.696	53.78
699.02	53.7
699.345	53.71
699.669	53.92
699.993	54.05
700.318	54.11
700.642	54.26
700.966	54.22
701.29	54.08
701.614	53.91
701.938	54.01
702.262	53.88
702.586	53.75
702.91	53.73
703.234	53.9
703.557	54.11
703.881	54.13
704.205	54.28
704.529	54.38
704.852	54.35
705.176	54.49
705.499	54.39
705.823	54.5
706.146	54.36
706.47	54.24
706.793	54.05
707.117	54.03
707.44	53.86
707.763	53.87
708.086	53.99
708.409	54.25
708.733	54.07
709.056	54.14
709.379	54.28
709.702	54.17
710.025	54
710.348	53.91
710.671	54.05
710.993	54
711.316	53.81
711.639	53.89
711.962	53.84
712.284	54.09
712.607	54.16
712.93	54.42
713.252	54.19
713.575	54.41
713.897	54.33
714.22	54.4
714.542	54.52
714.864	54.34
715.187	54.49
715.509	54.58
715.831	54.47
716.153	54.52
716.475	54.78
716.798	54.92
717.12	54.83
717.442	55.04
717.764	55.16
718.085	55.32
718.407	55.34
718.729	55.41
719.051	55.15
719.373	54.99
719.695	54.98
720.016	55.16
720.338	55.15
720.659	55.46
720.981	55.52
721.302	55.5
721.624	55.63
721.945	55.39
722.267	55.52
722.588	55.79
722.909	55.58
723.231	55.43
723.552	55.41
723.873	55.44
724.194	55.16
724.515	55.04
724.836	55.02
725.157	54.71
725.478	54.6
725.799	54.75
726.12	54.71
726.441	54.62
726.762	54.67
727.083	54.57
727.403	54.37
727.724	54.34
728.045	54.17
728.365	54.21
728.686	54.13
729.006	53.91
729.327	53.58
729.647	53.83
729.967	53.81
730.288	53.58
730.608	53.68
730.928	53.9
731.249	54.03
731.569	54.08
731.889	54.25
732.209	54.27
732.529	54.18
732.849	54.38
733.169	54.28
733.489	54.18
733.809	54.28
734.129	54.32
734.448	54.4
734.768	54.44
735.088	54.73
735.408	54.88
735.727	55.11
736.047	55.43
736.366	55.31
736.686	55.3
737.005	55.3
737.325	55.39
737.644	54.94
737.963	54.74
738.283	54.65
738.602	54.74
738.921	54.69
739.24	54.67
739.56	54.47
739.879	54.61
740.198	54.87
740.517	54.83
740.836	54.87
741.155	54.92
741.473	55.02
741.792	54.99
742.111	54.93
742.43	54.63
742.748	54.24
743.067	54.43
743.386	54.56
743.704	55.08
744.023	55.06
744.341	55.48
744.66	55.69
744.978	55.7
745.297	55.9
745.615	55.84
745.933	55.64
746.252	55.7
746.57	55.36
746.888	55.03
747.206	54.86
747.524	55.01
747.842	54.65
748.16	54.68
748.478	54.57
748.796	54.53
749.114	55.18
749.432	55.27
749.749	54.85
750.067	54.82
750.385	54.5
750.703	54.33
751.02	54.34
751.338	54.25
751.655	54.35
751.973	54.37
752.29	54.91
752.608	55.19
752.925	55.5
753.242	55.69
753.56	55.99
753.877	56.1
754.194	55.55
754.511	55.51
754.828	55.35
755.145	55.23
755.462	55.43
755.779	55.07
756.096	55.37
756.413	55.43
756.73	55.44
757.047	55.66
757.364	55.62
757.68	55.63
757.997	55.55
758.314	55.14
758.63	55.05
758.947	54.57
759.264	54.57
759.58	54.33
759.896	54.52
760.213	54.45
760.529	54.46
760.846	54.58
761.162	54.88
761.478	55.03
761.794	55
762.11	54.73
762.426	54.66
762.743	54.52
763.059	54.71
763.375	54.82
763.69	54.91
764.006	55.09
764.322	55
764.638	55.09
764.954	55.26
765.27	55.15
765.585	55.21
765.901	55.23
766.216	55.32
766.532	55.3
766.848	55.4
767.163	55.46
767.478	55.59
767.794	55.64
768.109	55.76
768.424	55.73
768.74	55.99
769.055	56.03
769.37	56.06
769.685	56.13
770	55.84
770.315	56.04
770.63	55.82
770.945	55.56
771.26	55.56
771.575	55.48
771.89	55.45
772.205	55.86
772.52	55.77
772.834	55.58
773.149	55.31
773.464	55.05
773.778	55.21
774.093	55.15
774.407	55.15
774.722	54.75
775.036	54.97
775.351	54.92
775.665	54.89
775.979	54.95
776.293	54.86
776.608	55.04
776.922	54.67
777.236	54.45
777.55	54.9
777.864	54.82
778.178	55.06
778.492	55.09
778.806	54.57
779.12	54.32
779.434	54.47
779.747	54.59
780.061	54.98
780.375	54.74
780.689	55.13
781.002	54.97
781.316	55.18
781.629	55.08
781.943	55.1
782.256	54.96
782.57	54.98
782.883	54.83
783.196	55.04
783.51	54.71
783.823	55.35
784.136	55.29
784.449	55.49
784.762	55.62
785.075	55.4
785.388	55.41
785.701	56.26
786.014	56.03
786.327	56.11
786.64	55.88
786.953	55.76
787.266	55.24
787.578	55.06
787.891	55.12
788.204	55.24
788.516	55.32
788.829	55.64
789.141	55.66
789.454	55.57
789.766	56.09
790.079	56.03
790.391	55.79
790.703	55.93
791.016	55.81
791.328	55.71
791.64	55.76
791.952	55.7
792.264	55.31
792.576	55.63
792.888	55.68
793.2	55.77
793.512	55.86
793.824	56.23
794.136	56.16
794.448	55.69
794.76	55.54
795.071	54.87
795.383	54.55
795.695	54.67
796.006	54.88
796.318	53.79
796.629	54.42
796.941	54.83
797.252	54.64
797.564	54.79
797.875	54.35
798.186	54.76
798.497	54.86
798.809	54.54
799.12	53.75
799.431	53.61
799.742	53.23
800.053	53.77
800.364	53.72
800.675	53.57
800.986	53.88
801.297	53.55
801.608	54.2
801.918	55.32
802.229	54.92
802.54	54.68
802.851	55.61
803.161	55.3
803.472	54.38
803.782	54.42
804.093	53.98
804.403	54.14
804.714	54.18
805.024	54.23
805.334	54.5
805.645	54.97
805.955	55.59
806.265	56.23
806.575	55.74
806.885	55.78
807.195	56.12
807.505	55.88
807.815	56.37
808.125	56.55
808.435	54.97
808.745	55.17
809.055	55.77
809.365	54.48
809.674	54.7
809.984	55.84
810.294	55.54
810.603	55.54
810.913	56.06
811.222	55.54
811.532	55.67
811.841	55.68
812.151	55.82
812.46	55.35
812.769	54.81
813.079	55.12
813.388	55.73
813.697	55.9
814.006	56.44
814.315	56.71
814.624	56.35
814.933	57.17
815.242	57.35
815.551	56.23
815.86	57.51
816.169	57.26
816.478	56.49
816.786	57.03
817.095	57.73
817.404	58.06
817.712	58.34
818.021	57.61
818.33	56.98
818.638	56.5
818.947	56.45
819.255	56.67
819.563	56.11
819.872	55.72
820.18	55.7
820.488	55.5
820.796	55.46
821.105	55.58
821.413	55.42
821.721	55.56
822.029	55.62
822.337	55.41
822.645	55.44
822.953	55.52
823.26	55.38
823.568	55.16
823.876	55.02
824.184	54.92
824.491	55.03
824.799	55.21
825.107	55.33
825.414	55.26
825.722	55.17
826.029	55.33
826.337	55.46
826.644	55.46
826.951	55.62
827.259	55.67
827.566	55.45
827.873	55.62
828.18	55.5
828.488	55.48
828.795	55.44
829.102	55.48
829.409	55.15
829.716	55.35
830.023	55.58
830.329	55.63
830.636	56.14
830.943	56.5
831.25	56.24
831.557	56.79
831.863	56.59
832.17	56.16
832.476	56.4
832.783	56.25
833.089	55.82
833.396	55.71
833.702	55.36
834.009	55.86
834.315	55.39
834.621	55.76
834.928	56.15
835.234	56.69
835.54	56.42
835.846	57.09
836.152	56.57
836.458	56.36
836.764	56.17
837.07	55.62
837.376	55.3
837.682	55.73
837.988	55.34
838.293	55.89
838.599	56.34
838.905	55.49
839.211	55.23
839.516	55.87
839.822	56.14
840.127	56.54
840.433	55.04
840.738	54.99
841.044	54.41
841.349	54.55
841.654	54.29
841.959	54.64
842.265	54.26
842.57	54.08
842.875	54.32
843.18	55.12
843.485	56.23
843.79	56.26
844.095	54.71
844.4	54.9
844.705	54.32
845.01	55.02
845.315	55.86
845.619	56.23
845.924	56.33
846.229	56.19
846.533	56.04
846.838	56.01
847.142	56.46
847.447	55.01
847.751	53.37
848.056	51.64
848.36	51.03
848.664	51.07
848.969	51.31
849.273	49.36
849.577	48.73
849.881	45.62
850.185	45.77
850.489	47.31
850.794	45.93
851.097	46.56
851.401	45.79
851.705	45.49
852.009	45.22
852.313	42.97
852.617	43.27
852.92	42.6
853.224	46.45
853.528	46.02
853.831	47.55
854.135	48.7
854.438	48.65
854.742	50.69
855.045	50.02
855.349	52.31
855.652	54.78
855.955	53.8
856.259	56.2
856.562	54.48
856.865	55.6
857.168	56.54
857.471	57.23
857.774	58.31
858.077	57.88
858.38	59.43
858.683	60.51
858.986	57.41
859.289	57.76
859.592	56
859.894	58.28
860.197	57.98
860.5	56.89
860.802	57.4
861.105	54.81
861.407	54.47
861.71	53.41
862.012	53.76
862.315	53.7
862.617	53.43
862.919	54.3
863.222	53.82
863.524	53.32
863.826	53.53
864.128	51.85
864.43	50.95
864.732	49.59
865.034	50.8
865.336	52.25
865.638	50.51
865.94	50.2
866.242	50.55
866.544	48.66
866.846	49.99
867.147	50.1
867.449	52.88
867.751	50.86
868.052	51.78
868.354	50.59
868.655	52.9
868.957	53.96
869.258	52.5
869.56	51.89
869.861	51.92
870.162	50.85
870.463	53.24
870.765	53.87
871.066	53.59
871.367	56.36
871.668	58.07
871.969	62.72
872.27	62.51
872.571	63.93
872.872	63.62
873.173	62.4
873.473	63.36
873.774	62.17
874.075	67.72
874.376	65.86
874.676	65.14
874.977	62.18
875.277	62.36
875.578	67.36
875.878	68.24
876.179	68.78
876.479	70.21
876.78	69.63
877.08	70.51
877.38	70.43
877.68	68.13
877.981	67.19
878.281	63.88
878.581	65.1
