Data from BA57890_Reflection_00015.txt Node
Date: Mon Nov 18 15:06:35 EST 2019
User: vgr7
Spectrometer: USB2G7710
Scans to average: 3
Trigger mode: 4
Integration Time (sec): 2.000000E-2
Electric dark correction enabled: true
Boxcar width: 10
XAxis mode: Wavelengths
Number of Pixels in Spectrum: 2048
>>>>>Begin Spectral Data<<<<<
177.721	-276.95
178.105	-225.12
178.488	-32.52
178.871	28.4
179.254	94.99
179.636	19.79
180.019	94.99
180.402	235.71
180.785	1756.72
181.168	-39.93
181.55	58.25
181.933	111.58
182.316	90.6
182.698	63.44
183.081	32.82
183.463	29.02
183.846	8.53
184.228	37.16
184.611	4.8
184.993	-29.35
185.376	32.39
185.758	34.97
186.14	89.99
186.522	142.82
186.904	263.35
187.287	259.69
187.669	407.21
188.051	605.62
188.433	1176.66
188.815	-13351.61
189.197	-428.72
189.579	-1164.62
189.961	-855.68
190.342	-8900
190.724	-3065.14
191.106	953.37
191.488	702.91
191.869	1435.26
192.251	453.9
192.633	4452.11
193.014	437.65
193.396	306.41
193.777	175.48
194.159	201.6
194.54	210.18
194.922	92.57
195.303	90.44
195.684	48.18
196.065	1.48
196.447	14.38
196.828	19.7
197.209	18.86
197.59	19.63
197.971	55.05
198.352	108.88
198.733	226.76
199.114	520.81
199.495	-645.22
199.876	-99.03
200.257	0.11
200.638	6.36
201.018	16.35
201.399	11.26
201.78	3.23
202.16	-93.64
202.541	-290.89
202.922	-435.53
203.302	-678.34
203.683	-399.26
204.063	-415.56
204.444	-200.62
204.824	-162.1
205.204	-91.93
205.585	-116.93
205.965	-105.22
206.345	-70.92
206.725	-121.05
207.106	-215.39
207.486	-628.67
207.866	-1625.39
208.246	2176.92
208.626	-1256.85
209.006	-1201.89
209.386	722.02
209.766	689.85
210.145	-395.15
210.525	-258.07
210.905	-145.47
211.285	-112.05
211.664	-93.96
212.044	-101.86
212.424	-119.04
212.803	-104.75
213.183	-103.12
213.562	-113.26
213.942	-98.32
214.321	-124.57
214.701	-116
215.08	-88.26
215.459	-65.93
215.838	-49.68
216.218	-51.82
216.597	-71.93
216.976	-67.91
217.355	-39.9
217.734	-44.48
218.113	-55.89
218.492	-59.95
218.871	-69.38
219.25	-65.51
219.629	-69.01
220.008	-73.11
220.387	-77.86
220.766	-77.46
221.144	-106.08
221.523	-101.1
221.902	-110.3
222.28	-109.42
222.659	-100.31
223.037	-93.77
223.416	-108.15
223.794	-109.28
224.173	-100.26
224.551	-88.12
224.929	-82.16
225.308	-74.82
225.686	-67.26
226.064	-48.14
226.442	-46.1
226.821	-34.1
227.199	-33.68
227.577	-32.64
227.955	-27.86
228.333	-24.7
228.711	-21.59
229.089	-13.27
229.467	-12.91
229.845	-11.21
230.222	-10.01
230.6	-10.79
230.978	-10.02
231.356	-6.63
231.733	-7.42
232.111	-6.64
232.488	-6.28
232.866	-7.01
233.243	-7.55
233.621	-8.44
233.998	-8.91
234.376	-8.83
234.753	-9.17
235.13	-7.6
235.508	-5.98
235.885	-6.52
236.262	-6.86
236.639	-6.18
237.016	-7.04
237.393	-4.99
237.77	-4.71
238.147	-2.62
238.524	-1.18
238.901	0.22
239.278	0.41
239.655	1.65
240.032	1.55
240.409	2.14
240.785	2.75
241.162	3.51
241.539	3.74
241.915	3.99
242.292	3.9
242.668	4.1
243.045	4.11
243.421	4.08
243.798	4.34
244.174	4.55
244.551	4.46
244.927	4.47
245.303	4.54
245.679	4.69
246.056	4.43
246.432	4.3
246.808	4.04
247.184	3.66
247.56	3.55
247.936	3.69
248.312	3.6
248.688	3.66
249.064	3.63
249.44	3.7
249.815	3.7
250.191	3.84
250.567	3.77
250.943	3.58
251.318	3.64
251.694	3.76
252.069	3.55
252.445	3.45
252.82	3.29
253.196	3.2
253.571	3.12
253.947	3.24
254.322	3.47
254.697	3.47
255.073	3.66
255.448	3.68
255.823	3.68
256.198	3.73
256.573	3.82
256.948	3.75
257.323	3.65
257.698	3.73
258.073	3.71
258.448	3.87
258.823	3.9
259.198	3.84
259.573	3.78
259.948	3.67
260.322	3.73
260.697	3.82
261.072	3.84
261.446	3.82
261.821	3.78
262.195	3.69
262.57	3.58
262.944	3.45
263.319	3.37
263.693	3.22
264.067	3.32
264.442	3.16
264.816	3.15
265.19	3.2
265.564	3.22
265.938	3.07
266.313	2.95
266.687	2.98
267.061	3.15
267.435	3.03
267.809	3.32
268.183	3.46
268.556	3.18
268.93	3.33
269.304	3.36
269.678	3.63
270.051	3.56
270.425	3.67
270.799	3.8
271.172	3.82
271.546	3.92
271.919	3.72
272.293	3.81
272.666	3.75
273.04	3.9
273.413	3.75
273.787	4.01
274.16	4.08
274.533	4.02
274.906	3.96
275.279	3.93
275.653	3.8
276.026	3.68
276.399	4.06
276.772	3.94
277.145	3.94
277.518	3.84
277.891	3.89
278.263	4.04
278.636	4.22
279.009	4.37
279.382	4.44
279.755	4.61
280.127	4.71
280.5	4.83
280.872	4.71
281.245	4.79
281.617	4.92
281.99	5.08
282.362	5.1
282.735	4.96
283.107	5.03
283.479	5.16
283.852	5.13
284.224	4.99
284.596	5.01
284.968	5.08
285.34	5.04
285.713	5.05
286.085	5.04
286.457	5.12
286.829	5.08
287.201	5.23
287.572	5.23
287.944	5.25
288.316	5.3
288.688	5.28
289.06	5.37
289.431	5.29
289.803	5.14
290.175	5.16
290.546	5.33
290.918	5.32
291.289	5.31
291.661	5.48
292.032	5.62
292.403	5.72
292.775	5.75
293.146	5.93
293.517	6.05
293.889	6.13
294.26	6
294.631	6
295.002	5.89
295.373	5.88
295.744	6.01
296.115	6.03
296.486	6.07
296.857	6.06
297.228	6.09
297.599	6.09
297.97	6.2
298.34	6.31
298.711	6.52
299.082	6.65
299.452	6.76
299.823	6.74
300.194	6.8
300.564	6.77
300.935	6.71
301.305	6.73
301.676	6.84
302.046	6.97
302.416	7.24
302.787	7.43
303.157	7.62
303.527	7.46
303.897	7.43
304.267	7.64
304.637	7.86
305.008	8.06
305.378	8.28
305.748	8.36
306.117	8.35
306.487	8.38
306.857	8.44
307.227	8.53
307.597	8.69
307.967	8.83
308.336	9.07
308.706	9.2
309.076	9.29
309.445	9.37
309.815	9.42
310.184	9.35
310.554	9.4
310.923	9.42
311.293	9.61
311.662	9.84
312.031	9.89
312.401	9.79
312.77	9.82
313.139	9.99
313.508	10
313.877	10.05
314.246	10.15
314.616	10.32
314.985	10.34
315.353	10.42
315.722	10.49
316.091	10.47
316.46	10.52
316.829	10.66
317.198	10.62
317.567	10.68
317.935	10.83
318.304	10.79
318.672	10.88
319.041	10.93
319.41	10.84
319.778	10.95
320.147	11.22
320.515	11.33
320.883	11.24
321.252	11.43
321.62	11.57
321.988	11.53
322.357	11.55
322.725	11.56
323.093	11.73
323.461	11.7
323.829	11.8
324.197	11.88
324.565	11.88
324.933	12.09
325.301	12.24
325.669	12.39
326.037	12.48
326.405	12.71
326.772	12.93
327.14	13.15
327.508	13.12
327.875	13.11
328.243	13.16
328.61	13.26
328.978	13.37
329.346	13.51
329.713	13.66
330.08	13.66
330.448	13.67
330.815	13.49
331.182	13.49
331.55	13.76
331.917	13.86
332.284	14.04
332.651	13.96
333.018	14.11
333.385	14.06
333.752	14.2
334.119	14.04
334.486	13.98
334.853	14.03
335.22	14.1
335.587	14.12
335.954	14.13
336.32	14.12
336.687	14.21
337.054	14.04
337.42	14.17
337.787	14.33
338.153	14.4
338.52	14.58
338.886	14.73
339.253	14.47
339.619	14.53
339.986	14.52
340.352	14.6
340.718	14.56
341.084	14.57
341.451	14.61
341.817	14.75
342.183	14.89
342.549	14.96
342.915	15.05
343.281	14.99
343.647	15.07
344.013	15.2
344.379	15.08
344.745	15.16
345.11	15.07
345.476	15.07
345.842	15.07
346.208	15.13
346.573	15.2
346.939	15.34
347.304	15.4
347.67	15.4
348.035	15.47
348.401	15.39
348.766	15.48
349.132	15.54
349.497	15.6
349.862	15.68
350.228	15.62
350.593	15.58
350.958	15.68
351.323	15.63
351.688	15.57
352.053	15.73
352.418	15.91
352.783	15.94
353.148	15.79
353.513	15.93
353.878	15.85
354.243	15.82
354.608	15.92
354.972	15.85
355.337	15.82
355.702	15.79
356.066	15.87
356.431	15.81
356.795	15.76
357.16	15.63
357.524	15.42
357.889	15.4
358.253	15.36
358.618	15.32
358.982	15.33
359.346	15.28
359.71	15.18
360.075	15.07
360.439	15.09
360.803	15.11
361.167	15.01
361.531	14.96
361.895	14.92
362.259	14.76
362.623	14.74
362.987	14.71
363.351	14.7
363.714	14.59
364.078	14.53
364.442	14.44
364.806	14.41
365.169	14.44
365.533	14.4
365.896	14.42
366.26	14.37
366.623	14.24
366.987	14.14
367.35	14.14
367.714	14.13
368.077	14.05
368.44	13.97
368.803	13.89
369.167	13.81
369.53	13.67
369.893	13.66
370.256	13.59
370.619	13.49
370.982	13.38
371.345	13.3
371.708	13.25
372.071	13.09
372.434	13.07
372.797	12.92
373.159	12.82
373.522	12.65
373.885	12.62
374.247	12.58
374.61	12.58
374.973	12.41
375.335	12.28
375.698	12.21
376.06	12.2
376.423	12.08
376.785	12.01
377.147	11.97
377.51	11.88
377.872	11.8
378.234	11.76
378.596	11.7
378.958	11.61
379.321	11.48
379.683	11.53
380.045	11.41
380.407	11.35
380.769	11.27
381.13	11.26
381.492	11.17
381.854	11.11
382.216	10.97
382.578	10.92
382.939	10.86
383.301	10.75
383.663	10.64
384.024	10.62
384.386	10.65
384.747	10.57
385.109	10.51
385.47	10.41
385.832	10.31
386.193	10.28
386.554	10.23
386.916	10.15
387.277	10.08
387.638	10.09
387.999	10.03
388.36	9.96
388.721	9.84
389.082	9.75
389.443	9.67
389.804	9.58
390.165	9.48
390.526	9.42
390.887	9.35
391.248	9.29
391.609	9.29
391.969	9.21
392.33	9.17
392.691	9.09
393.051	9.03
393.412	8.99
393.772	8.86
394.133	8.84
394.493	8.83
394.854	8.74
395.214	8.64
395.574	8.58
395.935	8.51
396.295	8.48
396.655	8.4
397.015	8.31
397.376	8.28
397.736	8.26
398.096	8.21
398.456	8.14
398.816	8.07
399.176	7.95
399.535	7.87
399.895	7.82
400.255	7.78
400.615	7.75
400.975	7.7
401.334	7.69
401.694	7.64
402.054	7.57
402.413	7.55
402.773	7.46
403.132	7.44
403.492	7.43
403.851	7.38
404.211	7.39
404.57	7.4
404.929	7.38
405.288	7.31
405.648	7.27
406.007	7.23
406.366	7.21
406.725	7.2
407.084	7.17
407.443	7.11
407.802	7.11
408.161	7.08
408.52	7.02
408.879	6.99
409.238	6.94
409.596	6.93
409.955	6.89
410.314	6.88
410.673	6.85
411.031	6.78
411.39	6.76
411.748	6.71
412.107	6.69
412.465	6.63
412.824	6.59
413.182	6.56
413.54	6.56
413.899	6.56
414.257	6.51
414.615	6.46
414.974	6.46
415.332	6.4
415.69	6.34
416.048	6.32
416.406	6.29
416.764	6.25
417.122	6.21
417.48	6.17
417.838	6.16
418.195	6.11
418.553	6.11
418.911	6.09
419.269	6.07
419.626	6.04
419.984	6.02
420.342	6.03
420.699	6
421.057	5.96
421.414	5.91
421.772	5.89
422.129	5.86
422.486	5.83
422.844	5.82
423.201	5.79
423.558	5.77
423.915	5.75
424.273	5.73
424.63	5.71
424.987	5.7
425.344	5.66
425.701	5.66
426.058	5.64
426.415	5.61
426.772	5.6
427.128	5.57
427.485	5.56
427.842	5.51
428.199	5.5
428.555	5.49
428.912	5.5
429.269	5.5
429.625	5.51
429.982	5.48
430.338	5.46
430.695	5.45
431.051	5.45
431.407	5.45
431.764	5.46
432.12	5.45
432.476	5.45
432.832	5.43
433.189	5.43
433.545	5.42
433.901	5.4
434.257	5.38
434.613	5.37
434.969	5.37
435.325	5.39
435.681	5.4
436.036	5.4
436.392	5.38
436.748	5.36
437.104	5.35
437.459	5.37
437.815	5.39
438.171	5.41
438.526	5.4
438.882	5.42
439.237	5.42
439.593	5.43
439.948	5.42
440.304	5.41
440.659	5.43
441.014	5.42
441.369	5.41
441.725	5.4
442.08	5.4
442.435	5.4
442.79	5.36
443.145	5.34
443.5	5.33
443.855	5.32
444.21	5.31
444.565	5.3
444.92	5.29
445.275	5.25
445.629	5.23
445.984	5.23
446.339	5.19
446.693	5.15
447.048	5.13
447.403	5.12
447.757	5.11
448.112	5.07
448.466	5.05
448.82	5.04
449.175	5.03
449.529	5
449.883	4.96
450.238	4.96
450.592	4.95
450.946	4.94
451.3	4.93
451.654	4.89
452.008	4.88
452.362	4.85
452.716	4.85
453.07	4.82
453.424	4.82
453.778	4.82
454.132	4.82
454.486	4.81
454.839	4.81
455.193	4.8
455.547	4.8
455.9	4.82
456.254	4.83
456.607	4.85
456.961	4.86
457.314	4.88
457.668	4.9
458.021	4.89
458.375	4.91
458.728	4.91
459.081	4.9
459.434	4.9
459.787	4.9
460.141	4.91
460.494	4.92
460.847	4.92
461.2	4.94
461.553	4.96
461.906	5
462.259	5.01
462.611	5.03
462.964	5.04
463.317	5.05
463.67	5.06
464.022	5.06
464.375	5.07
464.728	5.08
465.08	5.08
465.433	5.09
465.785	5.08
466.138	5.1
466.49	5.14
466.843	5.15
467.195	5.18
467.547	5.2
467.899	5.24
468.252	5.26
468.604	5.26
468.956	5.27
469.308	5.26
469.66	5.25
470.012	5.28
470.364	5.28
470.716	5.29
471.068	5.31
471.42	5.32
471.772	5.35
472.123	5.36
472.475	5.38
472.827	5.42
473.178	5.44
473.53	5.46
473.882	5.47
474.233	5.47
474.585	5.47
474.936	5.46
475.288	5.44
475.639	5.43
475.99	5.43
476.342	5.4
476.693	5.41
477.044	5.42
477.395	5.41
477.746	5.42
478.097	5.41
478.448	5.37
478.8	5.4
479.15	5.38
479.501	5.39
479.852	5.36
480.203	5.35
480.554	5.35
480.905	5.35
481.255	5.35
481.606	5.36
481.957	5.36
482.307	5.36
482.658	5.37
483.009	5.36
483.359	5.36
483.709	5.37
484.06	5.37
484.41	5.37
484.761	5.37
485.111	5.37
485.461	5.37
485.811	5.38
486.162	5.37
486.512	5.38
486.862	5.39
487.212	5.4
487.562	5.4
487.912	5.4
488.262	5.39
488.612	5.4
488.961	5.41
489.311	5.42
489.661	5.43
490.011	5.43
490.36	5.44
490.71	5.45
491.06	5.45
491.409	5.47
491.759	5.48
492.108	5.5
492.458	5.51
492.807	5.51
493.157	5.53
493.506	5.55
493.855	5.57
494.204	5.59
494.554	5.61
494.903	5.63
495.252	5.65
495.601	5.71
495.95	5.75
496.299	5.78
496.648	5.8
496.997	5.86
497.346	5.92
497.695	5.97
498.043	6.01
498.392	6.05
498.741	6.1
499.09	6.15
499.438	6.19
499.787	6.27
500.135	6.39
500.484	6.47
500.832	6.55
501.181	6.62
501.529	6.69
501.878	6.81
502.226	6.9
502.574	7.01
502.923	7.06
503.271	7.14
503.619	7.26
503.967	7.37
504.315	7.47
504.663	7.57
505.011	7.68
505.359	7.79
505.707	7.93
506.055	8.03
506.403	8.16
506.751	8.27
507.098	8.38
507.446	8.5
507.794	8.6
508.141	8.71
508.489	8.84
508.837	8.94
509.184	9.04
509.531	9.15
509.879	9.28
510.226	9.42
510.574	9.56
510.921	9.67
511.268	9.79
511.616	9.92
511.963	10.07
512.31	10.23
512.657	10.41
513.004	10.54
513.351	10.73
513.698	10.9
514.045	11.1
514.392	11.27
514.739	11.43
515.086	11.65
515.432	11.86
515.779	12.05
516.126	12.25
516.473	12.44
516.819	12.64
517.166	12.79
517.512	12.93
517.859	13.08
518.205	13.24
518.552	13.41
518.898	13.55
519.245	13.7
519.591	13.86
519.937	14.01
520.283	14.21
520.629	14.41
520.976	14.61
521.322	14.83
521.668	15.03
522.014	15.27
522.36	15.48
522.706	15.72
523.052	16.03
523.398	16.33
523.743	16.66
524.089	16.95
524.435	17.27
524.781	17.58
525.126	17.85
525.472	18.11
525.817	18.35
526.163	18.59
526.509	18.81
526.854	19.02
527.199	19.2
527.545	19.38
527.89	19.56
528.235	19.73
528.581	19.9
528.926	20.09
529.271	20.28
529.616	20.48
529.961	20.67
530.306	20.84
530.651	21.03
530.996	21.26
531.341	21.49
531.686	21.72
532.031	21.96
532.376	22.22
532.721	22.46
533.065	22.73
533.41	22.99
533.755	23.25
534.099	23.52
534.444	23.82
534.788	24.11
535.133	24.42
535.477	24.75
535.822	25.07
536.166	25.44
536.51	25.79
536.855	26.16
537.199	26.55
537.543	26.96
537.887	27.37
538.231	27.73
538.576	28.16
538.92	28.56
539.264	28.95
539.608	29.33
539.951	29.68
540.295	30.01
540.639	30.33
540.983	30.63
541.327	30.93
541.671	31.22
542.014	31.49
542.358	31.75
542.701	32.01
543.045	32.32
543.389	32.6
543.732	32.89
544.075	33.16
544.419	33.45
544.762	33.72
545.105	34
545.449	34.33
545.792	34.64
546.135	34.95
546.478	35.3
546.821	35.6
547.165	35.99
547.508	36.36
547.851	36.75
548.194	37.12
548.536	37.46
548.879	37.86
549.222	38.25
549.565	38.61
549.908	38.96
550.25	39.28
550.593	39.63
550.936	40.01
551.278	40.37
551.621	40.75
551.963	41.17
552.306	41.55
552.648	41.85
552.991	42.11
553.333	42.41
553.675	42.68
554.017	43.02
554.36	43.31
554.702	43.59
555.044	43.83
555.386	44.11
555.728	44.47
556.07	44.68
556.412	44.95
556.754	45.23
557.096	45.53
557.438	45.84
557.78	46.11
558.121	46.43
558.463	46.7
558.805	46.95
559.147	47.23
559.488	47.49
559.83	47.75
560.171	48.07
560.513	48.32
560.854	48.62
561.196	48.87
561.537	49.09
561.878	49.35
562.22	49.61
562.561	49.9
562.902	50.13
563.243	50.43
563.584	50.6
563.925	50.81
564.266	50.99
564.607	51.17
564.948	51.33
565.289	51.48
565.63	51.73
565.971	51.91
566.312	52.03
566.653	52.21
566.993	52.44
567.334	52.61
567.675	52.82
568.015	53.01
568.356	53.11
568.696	53.28
569.037	53.45
569.377	53.59
569.718	53.67
570.058	53.8
570.398	53.89
570.739	54.09
571.079	54.24
571.419	54.35
571.759	54.47
572.099	54.62
572.439	54.77
572.779	54.86
573.119	54.98
573.459	55.1
573.799	55.23
574.139	55.35
574.479	55.45
574.819	55.59
575.158	55.71
575.498	55.87
575.838	55.97
576.177	56.05
576.517	56.17
576.856	56.32
577.196	56.45
577.535	56.61
577.875	56.73
578.214	56.94
578.553	57.15
578.893	57.36
579.232	57.56
579.571	57.73
579.91	57.89
580.25	57.99
580.589	58.12
580.928	58.24
581.267	58.28
581.606	58.34
581.945	58.46
582.283	58.48
582.622	58.63
582.961	58.76
583.3	58.92
583.639	59.07
583.977	59.18
584.316	59.3
584.654	59.38
584.993	59.44
585.332	59.45
585.67	59.44
586.008	59.46
586.347	59.5
586.685	59.5
587.024	59.6
587.362	59.63
587.7	59.78
588.038	59.79
588.376	59.92
588.715	60.07
589.053	60.06
589.391	60.27
589.729	60.36
590.067	60.43
590.404	60.54
590.742	60.62
591.08	60.64
591.418	60.74
591.756	60.82
592.093	61
592.431	61.12
592.769	61.28
593.106	61.37
593.444	61.35
593.781	61.5
594.119	61.61
594.456	61.68
594.793	61.73
595.131	61.82
595.468	61.84
595.805	61.91
596.143	62.03
596.48	62.04
596.817	62.03
597.154	62.03
597.491	62.02
597.828	61.99
598.165	62.05
598.502	62
598.839	62.07
599.176	62.16
599.512	62.11
599.849	62.09
600.186	62.16
600.523	62.27
600.859	62.25
601.196	62.22
601.532	62.26
601.869	62.3
602.205	62.37
602.542	62.45
602.878	62.4
603.215	62.32
603.551	62.34
603.887	62.34
604.223	62.36
604.56	62.41
604.896	62.48
605.232	62.58
605.568	62.62
605.904	62.71
606.24	62.7
606.576	62.75
606.912	62.86
607.248	62.92
607.583	63
607.919	63.1
608.255	63.16
608.591	63.23
608.926	63.24
609.262	63.19
609.597	63.22
609.933	63.34
610.268	63.48
610.604	63.51
610.939	63.61
611.275	63.65
611.61	63.69
611.945	63.83
612.281	63.88
612.616	64
612.951	64.05
613.286	63.96
613.621	64.04
613.956	63.97
614.291	63.98
614.626	63.98
614.961	64.04
615.296	64
615.631	64.17
615.966	64.31
616.3	64.38
616.635	64.43
616.97	64.48
617.304	64.44
617.639	64.58
617.973	64.55
618.308	64.7
618.642	64.62
618.977	64.55
619.311	64.51
619.646	64.47
619.98	64.35
620.314	64.46
620.648	64.49
620.983	64.54
621.317	64.54
621.651	64.57
621.985	64.49
622.319	64.49
622.653	64.38
622.987	64.32
623.321	64.42
623.655	64.48
623.988	64.56
624.322	64.57
624.656	64.58
624.99	64.66
625.323	64.65
625.657	64.83
625.99	64.78
626.324	64.91
626.657	64.89
626.991	64.88
627.324	64.92
627.658	64.93
627.991	64.96
628.324	64.98
628.657	64.97
628.991	65.05
629.324	65.17
629.657	65.27
629.99	65.29
630.323	65.42
630.656	65.43
630.989	65.37
631.322	65.42
631.655	65.37
631.987	65.43
632.32	65.43
632.653	65.37
632.986	65.41
633.318	65.36
633.651	65.41
633.984	65.43
634.316	65.49
634.649	65.52
634.981	65.56
635.313	65.6
635.646	65.53
635.978	65.4
636.31	65.48
636.643	65.47
636.975	65.51
637.307	65.55
637.639	65.44
637.971	65.44
638.303	65.56
638.635	65.61
638.967	65.57
639.299	65.53
639.631	65.48
639.963	65.54
640.295	65.54
640.626	65.55
640.958	65.67
641.29	65.6
641.621	65.59
641.953	65.64
642.285	65.56
642.616	65.69
642.948	65.74
643.279	65.64
643.61	65.68
643.942	65.71
644.273	65.51
644.604	65.57
644.936	65.62
645.267	65.59
645.598	65.52
645.929	65.46
646.26	65.57
646.591	65.72
646.922	65.66
647.253	65.56
647.584	65.64
647.915	65.66
648.245	65.71
648.576	65.75
648.907	65.75
649.238	65.9
649.568	65.9
649.899	66.03
650.229	66.12
650.56	66.01
650.89	65.9
651.221	66.03
651.551	66.18
651.882	66.24
652.212	66.32
652.542	66.42
652.872	66.46
653.203	66.5
653.533	66.37
653.863	66.59
654.193	66.65
654.523	66.6
654.853	66.66
655.183	66.62
655.513	66.75
655.843	66.84
656.172	66.75
656.502	66.77
656.832	66.71
657.162	66.76
657.491	66.95
657.821	67.16
658.15	67.12
658.48	67.12
658.809	67.17
659.139	67.18
659.468	67.18
659.798	67.2
660.127	67.17
660.456	67.2
660.785	67.06
661.115	67.03
661.444	67.1
661.773	67.03
662.102	67.04
662.431	67
662.76	66.96
663.089	67.02
663.418	67.09
663.747	67.08
664.076	66.97
664.404	66.85
664.733	66.8
665.062	66.75
665.39	66.65
665.719	66.58
666.048	66.51
666.376	66.45
666.705	66.49
667.033	66.48
667.362	66.56
667.69	66.52
668.018	66.61
668.347	66.74
668.675	66.8
669.003	66.85
669.331	66.72
669.659	66.76
669.987	66.89
670.315	66.86
670.643	66.96
670.971	67.05
671.299	67.09
671.627	67.03
671.955	67.01
672.283	67.09
672.61	67.08
672.938	67.06
673.266	67.13
673.593	67.17
673.921	67.32
674.249	67.26
674.576	67.47
674.904	67.41
675.231	67.34
675.558	67.18
675.886	67.19
676.213	67.35
676.54	67.32
676.867	67.24
677.195	67.26
677.522	67.27
677.849	67.2
678.176	67.24
678.503	67.28
678.83	67.39
679.157	67.3
679.484	67.39
679.81	67.48
680.137	67.6
680.464	67.53
680.791	67.41
681.117	67.58
681.444	67.53
681.771	67.63
682.097	67.63
682.424	67.78
682.75	67.74
683.077	67.66
683.403	67.64
683.729	67.69
684.056	67.65
684.382	67.53
684.708	67.53
685.034	67.51
685.36	67.55
685.686	67.54
686.012	67.6
686.339	67.46
686.664	67.36
686.99	67.23
687.316	67.5
687.642	67.52
687.968	67.44
688.294	67.44
688.619	67.41
688.945	67.36
689.271	67.39
689.596	67.34
689.922	67.42
690.247	67.35
690.573	67.4
690.898	67.39
691.224	67.48
691.549	67.65
691.874	67.72
692.2	67.61
692.525	67.66
692.85	67.6
693.175	67.71
693.5	67.76
693.825	67.82
694.15	67.67
694.475	67.85
694.8	67.91
695.125	67.89
695.45	67.92
695.775	67.9
696.099	67.82
696.424	67.83
696.749	67.87
697.073	67.96
697.398	67.85
697.723	67.95
698.047	68.07
698.372	67.98
698.696	67.85
699.02	67.85
699.345	67.88
699.669	67.99
699.993	67.99
700.318	68.06
700.642	67.95
700.966	67.9
701.29	67.81
701.614	67.71
701.938	67.75
702.262	67.81
702.586	67.84
702.91	67.86
703.234	67.87
703.557	67.81
703.881	67.77
704.205	67.72
704.529	67.7
704.852	67.64
705.176	67.69
705.499	67.81
705.823	67.72
706.146	67.39
706.47	67.48
706.793	67.59
707.117	67.51
707.44	67.66
707.763	67.57
708.086	67.61
708.409	67.64
708.733	67.49
709.056	67.42
709.379	67.49
709.702	67.62
710.025	67.61
710.348	67.56
710.671	67.62
710.993	67.79
711.316	67.85
711.639	67.87
711.962	67.76
712.284	67.62
712.607	67.83
712.93	68.05
713.252	67.85
713.575	67.97
713.897	67.95
714.22	67.97
714.542	68.16
714.864	68
715.187	68.07
715.509	68.1
715.831	68.13
716.153	68.23
716.475	68.22
716.798	68.49
717.12	68.58
717.442	68.76
717.764	68.7
718.085	68.79
718.407	68.65
718.729	68.62
719.051	68.83
719.373	68.74
719.695	68.78
720.016	68.86
720.338	68.65
720.659	68.83
720.981	68.69
721.302	68.46
721.624	68.4
721.945	68.42
722.267	68.5
722.588	68.8
722.909	68.65
723.231	68.61
723.552	68.75
723.873	68.58
724.194	68.44
724.515	68.23
724.836	68.11
725.157	68.01
725.478	67.96
725.799	67.86
726.12	67.95
726.441	68.15
726.762	68.16
727.083	68.08
727.403	68.08
727.724	68.16
728.045	68.08
728.365	68.1
728.686	67.96
729.006	68.1
729.327	67.66
729.647	67.8
729.967	67.77
730.288	67.53
730.608	67.47
730.928	67.67
731.249	67.8
731.569	67.85
731.889	68.07
732.209	68.22
732.529	68.35
732.849	68.32
733.169	68.14
733.489	68.15
733.809	68.41
734.129	68.38
734.448	68.42
734.768	68.62
735.088	68.77
735.408	68.76
735.727	68.64
736.047	69.01
736.366	68.93
736.686	68.94
737.005	68.69
737.325	68.68
737.644	68.13
737.963	68.08
738.283	67.98
738.602	67.94
738.921	67.98
739.24	68.09
739.56	68.18
739.879	68.11
740.198	68.38
740.517	68.41
740.836	68.35
741.155	68.38
741.473	68.36
741.792	68.46
742.111	68.7
742.43	68.75
742.748	68.49
743.067	68.75
743.386	68.95
743.704	69.33
744.023	69.55
744.341	70.02
744.66	70.35
744.978	70.46
745.297	70.39
745.615	70.03
745.933	69.61
746.252	69.46
746.57	69.58
746.888	68.88
747.206	68.31
747.524	68.57
747.842	68.5
748.16	68.62
748.478	68.67
748.796	68.64
749.114	68.79
749.432	68.81
749.749	68.25
750.067	68.33
750.385	68.1
750.703	68.15
751.02	68.22
751.338	68.06
751.655	68.15
751.973	68.15
752.29	68.51
752.608	68.47
752.925	68.56
753.242	68.64
753.56	69.04
753.877	69.33
754.194	68.94
754.511	68.78
754.828	68.68
755.145	68.42
755.462	68.45
755.779	68.29
756.096	68.48
756.413	68.56
756.73	68.23
757.047	68.61
757.364	68.59
757.68	68.58
757.997	68.4
758.314	68.22
758.63	68.48
758.947	68.9
759.264	69.07
759.58	68.97
759.896	68.91
760.213	69.15
760.529	69.19
760.846	69.26
761.162	69.46
761.478	69.43
761.794	69.26
762.11	68.89
762.426	68.86
762.743	68.53
763.059	68.61
763.375	68.73
763.69	68.4
764.006	68.52
764.322	68.46
764.638	68.62
764.954	68.72
765.27	68.58
765.585	68.15
765.901	68.35
766.216	68.4
766.532	68.33
766.848	68.05
767.163	67.91
767.478	67.9
767.794	67.72
768.109	67.54
768.424	67.46
768.74	67.62
769.055	67.44
769.37	67.5
769.685	67.37
770	66.83
770.315	66.88
770.63	66.92
770.945	66.83
771.26	66.66
771.575	66.59
771.89	66.57
772.205	66.77
772.52	66.31
772.834	66.67
773.149	66.22
773.464	66.06
773.778	66.26
774.093	66
774.407	66.07
774.722	66.25
775.036	66.62
775.351	66.92
775.665	67.48
775.979	67.42
776.293	67.36
776.608	68.12
776.922	68.05
777.236	67.54
777.55	67.29
777.864	67.27
778.178	66.73
778.492	66.86
778.806	66.56
779.12	66.39
779.434	66.26
779.747	66.94
780.061	67.44
780.375	67.37
780.689	67.5
781.002	67.47
781.316	68.17
781.629	68.32
781.943	68.36
782.256	68.15
782.57	68.26
782.883	67.94
783.196	67.98
783.51	67.34
783.823	67.82
784.136	68.1
784.449	67.73
784.762	67.92
785.075	67.68
785.388	67.75
785.701	68.34
786.014	67.98
786.327	67.92
786.64	67.86
786.953	67.87
787.266	67.79
787.578	67.76
787.891	67.19
788.204	67.03
788.516	66.67
788.829	65.86
789.141	66.09
789.454	66.6
789.766	66.39
790.079	67
790.391	66.46
790.703	66.46
791.016	66.64
791.328	66.92
791.64	66.89
791.952	67.01
792.264	67.03
792.576	67.49
792.888	67.19
793.2	66.85
793.512	66.67
793.824	66.49
794.136	66.72
794.448	66.67
794.76	66.83
795.071	66.91
795.383	67.26
795.695	67.31
796.006	67.74
796.318	67.42
796.629	67.57
796.941	67.57
797.252	67.61
797.564	67.75
797.875	67.63
798.186	67.73
798.497	67.57
798.809	67.05
799.12	66.49
799.431	66.81
799.742	66.83
800.053	67.18
800.364	67.91
800.675	67.05
800.986	67.07
801.297	67.34
801.608	66.64
801.918	67.22
802.229	66.79
802.54	66.12
802.851	65.97
803.161	66.26
803.472	66.27
803.782	65.92
804.093	65.98
804.403	66.22
804.714	66.27
805.024	66.2
805.334	66.68
805.645	66.86
805.955	66.76
806.265	67.24
806.575	66.58
806.885	66.48
807.195	67.32
807.505	67
807.815	66.66
808.125	67.6
808.435	66.86
808.745	66.94
809.055	67.65
809.365	67.52
809.674	66.86
809.984	67.13
810.294	67.52
810.603	67.6
810.913	67.58
811.222	67.17
811.532	67.45
811.841	67.37
812.151	67.37
812.46	67.36
812.769	66.39
813.079	66.75
813.388	66.31
813.697	66.63
814.006	66.26
814.315	66.31
814.624	66.19
814.933	66.2
815.242	66.39
815.551	66.15
815.86	67.56
816.169	67.82
816.478	67.39
816.786	66.98
817.095	67.42
817.404	67.24
817.712	67.91
818.021	67.71
818.33	67.93
818.638	67.61
818.947	68.17
819.255	69.09
819.563	69.3
819.872	69.03
820.18	68.64
820.488	68.81
820.796	68.92
821.105	68.97
821.413	68.94
821.721	68.84
822.029	68.89
822.337	68.6
822.645	68.77
822.953	68.86
823.26	68.84
823.568	68.55
823.876	68.78
824.184	68.6
824.491	68.6
824.799	68.48
825.107	68.66
825.414	68.32
825.722	68.28
826.029	68.31
826.337	68.61
826.644	68.76
826.951	68.89
827.259	68.78
827.566	68.59
827.873	68.79
828.18	68.76
828.488	68.35
828.795	68.25
829.102	68.02
829.409	67.82
829.716	68.27
830.023	68.41
830.329	67.78
830.636	68.01
830.943	68.36
831.25	68.56
831.557	68.7
831.863	68.86
832.17	68.29
832.476	68.09
832.783	67.25
833.089	67.02
833.396	66.8
833.702	67.13
834.009	67.4
834.315	66.87
834.621	67.56
834.928	67.81
835.234	68.53
835.54	68.38
835.846	68.96
836.152	68.8
836.458	68.77
836.764	69
837.07	68.72
837.376	67.84
837.682	68.07
837.988	67.6
838.293	67.89
838.599	68.08
838.905	67.74
839.211	67.84
839.516	68.3
839.822	68.47
840.127	67.82
840.433	66.66
840.738	67.57
841.044	66.76
841.349	66.54
841.654	64.49
841.959	65.2
842.265	64.65
842.57	62.65
842.875	62.71
843.18	63.74
843.485	64.42
843.79	65.51
844.095	64.38
844.4	64.16
844.705	63.52
845.01	63.28
845.315	63.76
845.619	64.22
845.924	62.82
846.229	62.88
846.533	62.16
846.838	62.99
847.142	62.96
847.447	62.87
847.751	63.76
848.056	64.9
848.36	62.95
848.664	61.41
848.969	60.51
849.273	60.02
849.577	57.42
849.881	55.27
850.185	54.68
850.489	56.17
850.794	56.69
851.097	56.73
851.401	59.64
851.705	59.18
852.009	60.59
852.313	59.41
852.617	58.5
852.92	58.92
853.224	60.14
853.528	58.56
853.831	56.23
854.135	55.85
854.438	56.84
854.742	59.94
855.045	61.41
855.349	63.37
855.652	64.9
855.955	65.15
856.259	65.93
856.562	66.02
856.865	63.46
857.168	61.88
857.471	63.44
857.774	62.66
858.077	61.76
858.38	58.99
858.683	60.83
858.986	60.56
859.289	59.25
859.592	58.05
859.894	58.8
860.197	61.84
860.5	61.31
860.802	58.3
861.105	56.85
861.407	57.89
861.71	60.16
862.012	58.1
862.315	58.3
862.617	58.14
862.919	59.24
863.222	60.37
863.524	61.82
863.826	60.77
864.128	60.46
864.43	60.65
864.732	63.42
865.034	63.13
865.336	63.16
865.638	62.54
865.94	62.36
866.242	65.85
866.544	63.37
866.846	65.32
867.147	67.75
867.449	67.83
867.751	65.85
868.052	68.27
868.354	69.94
868.655	70.96
868.957	72.38
869.258	70.02
869.56	70.77
869.861	68.62
870.162	68.21
870.463	67
870.765	67.33
871.066	64.76
871.367	66.94
871.668	69
871.969	69.99
872.27	71.18
872.571	68.72
872.872	70.19
873.173	69.06
873.473	66.14
873.774	65.18
874.075	64.97
874.376	59.6
874.676	57.3
874.977	57.62
875.277	60.62
875.578	62.13
875.878	61.11
876.179	62.45
876.479	63.25
876.78	62.29
877.08	61.94
877.38	62.81
877.68	61.08
877.981	59.17
878.281	61.08
878.581	60.18
