Data from BA57757_Reflection_00029.txt Node
Date: Mon Nov 18 15:01:46 EST 2019
User: vgr7
Spectrometer: USB2G7710
Scans to average: 3
Trigger mode: 4
Integration Time (sec): 2.000000E-2
Electric dark correction enabled: true
Boxcar width: 10
XAxis mode: Wavelengths
Number of Pixels in Spectrum: 2048
>>>>>Begin Spectral Data<<<<<
177.721	-150.52
178.105	-168.29
178.488	1183.68
178.871	-408.62
179.254	193.39
179.636	289.66
180.019	34.67
180.402	24.39
180.785	-619.63
181.168	42.48
181.55	495.35
181.933	125.45
182.316	105.1
182.698	107.39
183.081	143.73
183.463	156.65
183.846	187.43
184.228	265.51
184.611	293.3
184.993	319.44
185.376	-409.37
185.758	-519.37
186.14	-408.49
186.522	-1085.09
186.904	-768.79
187.287	3778.9
187.669	-499.3
188.051	-373.02
188.433	-164.79
188.815	-121.22
189.197	-98.5
189.579	-97.17
189.961	-65.6
190.342	-60.29
190.724	-44.82
191.106	-73.44
191.488	-94.92
191.869	-100.45
192.251	-146.36
192.633	-162.9
193.014	-141.4
193.396	-157.5
193.777	-105.86
194.159	-75.5
194.54	-67.88
194.922	-65.1
195.303	-70.18
195.684	-64.58
196.065	-58.59
196.447	-58.02
196.828	-69.39
197.209	-60.62
197.59	-64.16
197.971	-53.86
198.352	-45.42
198.733	-62.9
199.114	-53.77
199.495	-31.13
199.876	-23
200.257	-21.69
200.638	-8.66
201.018	-11.78
201.399	-14.07
201.78	-10.7
202.16	-23.09
202.541	-23.89
202.922	-20.44
203.302	-11.43
203.683	-28.31
204.063	-48.69
204.444	-44.99
204.824	-43.65
205.204	-69.08
205.585	-50.28
205.965	-61.22
206.345	-60.79
206.725	-57.24
207.106	-59.76
207.486	-68.72
207.866	-68.8
208.246	-55.47
208.626	-72.3
209.006	-57.54
209.386	-65.98
209.766	-72.36
210.145	-61.79
210.525	-51.02
210.905	-47.64
211.285	-49.18
211.664	-53.11
212.044	-43.81
212.424	-58.53
212.803	-46.38
213.183	-38.88
213.562	-42.86
213.942	-32.71
214.321	-28.58
214.701	-38.32
215.08	-36
215.459	-42.21
215.838	-30.9
216.218	-41.6
216.597	-33.77
216.976	-43.47
217.355	-48.46
217.734	-46.78
218.113	-48.62
218.492	-57.56
218.871	-63.79
219.25	-45.87
219.629	-39.62
220.008	-51.57
220.387	-44.03
220.766	-52.16
221.144	-52.03
221.523	-68.91
221.902	-84.17
222.28	-94.42
222.659	-64.34
223.037	-48.99
223.416	-55.57
223.794	-62.56
224.173	-57.41
224.551	-51.97
224.929	-48.52
225.308	-40.68
225.686	-41.15
226.064	-33.13
226.442	-34.81
226.821	-27.38
227.199	-24.85
227.577	-21.35
227.955	-16.7
228.333	-14.31
228.711	-13.5
229.089	-11.83
229.467	-11.43
229.845	-9.15
230.222	-7.08
230.6	-10.62
230.978	-12.17
231.356	-8.92
231.733	-6.22
232.111	-4.1
232.488	-3.43
232.866	-2.89
233.243	-0.07
233.621	1.46
233.998	0.01
234.376	0.8
234.753	-1.26
235.13	-1.53
235.508	-0.78
235.885	-1.24
236.262	-1.39
236.639	-0.27
237.016	-0.14
237.393	1.9
237.77	1.5
238.147	2.37
238.524	3.38
238.901	4.13
239.278	3.9
239.655	3.92
240.032	3.27
240.409	3.59
240.785	4.08
241.162	3.45
241.539	3.24
241.915	3.54
242.292	3.62
242.668	3.85
243.045	3.8
243.421	3.46
243.798	3.28
244.174	3.26
244.551	3.25
244.927	3.28
245.303	3.46
245.679	3.48
246.056	3.31
246.432	3.25
246.808	3.27
247.184	3.09
247.56	2.82
247.936	3.13
248.312	2.92
248.688	3.05
249.064	3.02
249.44	3.03
249.815	3.08
250.191	3.28
250.567	3.24
250.943	3.35
251.318	3.44
251.694	3.6
252.069	3.76
252.445	3.84
252.82	3.69
253.196	3.53
253.571	3.57
253.947	3.86
254.322	4.08
254.697	3.87
255.073	4.07
255.448	4.04
255.823	4.03
256.198	4.37
256.573	4
256.948	4.06
257.323	4.26
257.698	4.27
258.073	4.22
258.448	4.16
258.823	4.1
259.198	3.96
259.573	4.12
259.948	3.95
260.322	3.84
260.697	3.79
261.072	3.83
261.446	3.92
261.821	3.72
262.195	3.71
262.57	3.71
262.944	3.71
263.319	3.84
263.693	3.77
264.067	3.69
264.442	3.85
264.816	3.81
265.19	3.75
265.564	3.56
265.938	3.56
266.313	3.72
266.687	3.87
267.061	4.11
267.435	3.91
267.809	3.9
268.183	3.99
268.556	4.16
268.93	4.09
269.304	4.15
269.678	4.31
270.051	4.3
270.425	4.38
270.799	4.39
271.172	4.47
271.546	4.48
271.919	4.48
272.293	4.41
272.666	4.6
273.04	4.62
273.413	4.57
273.787	4.53
274.16	4.43
274.533	4.16
274.906	4.06
275.279	4.17
275.653	4.12
276.026	3.99
276.399	3.94
276.772	4.01
277.145	4.03
277.518	3.97
277.891	3.86
278.263	3.77
278.636	3.72
279.009	3.68
279.382	3.64
279.755	3.59
280.127	3.65
280.5	3.52
280.872	3.69
281.245	3.7
281.617	3.77
281.99	4.04
282.362	4.19
282.735	4.04
283.107	4.05
283.479	4.2
283.852	4.37
284.224	4.39
284.596	4.28
284.968	4.24
285.34	4.34
285.713	4.32
286.085	4.46
286.457	4.64
286.829	4.71
287.201	4.7
287.572	4.74
287.944	4.62
288.316	4.6
288.688	4.4
289.06	4.59
289.431	4.6
289.803	4.36
290.175	4.35
290.546	4.6
290.918	4.51
291.289	4.47
291.661	4.51
292.032	4.67
292.403	4.82
292.775	4.87
293.146	4.84
293.517	5.02
293.889	5.01
294.26	5.03
294.631	4.92
295.002	4.89
295.373	4.84
295.744	4.98
296.115	5.11
296.486	5.09
296.857	5.03
297.228	5.09
297.599	5.24
297.97	5.21
298.34	5.13
298.711	5.26
299.082	5.26
299.452	5.16
299.823	5.15
300.194	5.05
300.564	4.95
300.935	4.96
301.305	4.88
301.676	4.88
302.046	4.82
302.416	4.94
302.787	5.1
303.157	5.2
303.527	5.2
303.897	5.04
304.267	5.25
304.637	5.39
305.008	5.35
305.378	5.24
305.748	5.41
306.117	5.48
306.487	5.41
306.857	5.54
307.227	5.63
307.597	5.52
307.967	5.67
308.336	5.69
308.706	5.53
309.076	5.61
309.445	5.47
309.815	5.46
310.184	5.34
310.554	5.29
310.923	5.28
311.293	5.31
311.662	5.48
312.031	5.34
312.401	5.29
312.77	5.31
313.139	5.41
313.508	5.34
313.877	5.29
314.246	5.29
314.616	5.2
314.985	5.2
315.353	5.12
315.722	4.93
316.091	5.03
316.46	5.1
316.829	5
317.198	5.08
317.567	4.99
317.935	5.08
318.304	5.08
318.672	5.09
319.041	5.1
319.41	4.94
319.778	4.95
320.147	4.9
320.515	4.8
320.883	4.67
321.252	4.85
321.62	4.75
321.988	4.75
322.357	4.82
322.725	4.77
323.093	4.95
323.461	5.17
323.829	5.12
324.197	5.31
324.565	5.3
324.933	5.34
325.301	5.43
325.669	5.42
326.037	5.4
326.405	5.39
326.772	5.36
327.14	5.61
327.508	5.65
327.875	5.64
328.243	5.77
328.61	5.8
328.978	5.56
329.346	5.81
329.713	5.72
330.08	5.73
330.448	5.75
330.815	5.56
331.182	5.42
331.55	5.34
331.917	5.23
332.284	5.36
332.651	5.34
333.018	5.33
333.385	5.33
333.752	5.39
334.119	5.33
334.486	5.25
334.853	4.98
335.22	5.06
335.587	5.17
335.954	5.07
336.32	5.09
336.687	5.22
337.054	5.07
337.42	5.21
337.787	5.21
338.153	5.19
338.52	5.25
338.886	5.25
339.253	5.4
339.619	5.41
339.986	5.34
340.352	5.47
340.718	5.37
341.084	5.4
341.451	5.41
341.817	5.51
342.183	5.54
342.549	5.58
342.915	5.62
343.281	5.52
343.647	5.58
344.013	5.54
344.379	5.45
344.745	5.43
345.11	5.32
345.476	5.27
345.842	5.27
346.208	5.29
346.573	5.38
346.939	5.3
347.304	5.38
347.67	5.34
348.035	5.27
348.401	5.34
348.766	5.34
349.132	5.31
349.497	5.27
349.862	5.34
350.228	5.39
350.593	5.16
350.958	5.09
351.323	5.11
351.688	5.11
352.053	5.18
352.418	5.24
352.783	5.33
353.148	5.28
353.513	5.27
353.878	5.36
354.243	5.42
354.608	5.47
354.972	5.42
355.337	5.52
355.702	5.44
356.066	5.52
356.431	5.47
356.795	5.45
357.16	5.42
357.524	5.32
357.889	5.24
358.253	5.34
358.618	5.47
358.982	5.44
359.346	5.39
359.71	5.36
360.075	5.4
360.439	5.35
360.803	5.41
361.167	5.43
361.531	5.36
361.895	5.25
362.259	5.16
362.623	5.17
362.987	5.11
363.351	5.13
363.714	5.11
364.078	5.14
364.442	5.11
364.806	5.15
365.169	5.16
365.533	5.21
365.896	5.18
366.26	5.14
366.623	5.12
366.987	5.22
367.35	5.23
367.714	5.2
368.077	5.17
368.44	5.19
368.803	5.15
369.167	5.12
369.53	5.08
369.893	5.18
370.256	5.15
370.619	5.11
370.982	5.09
371.345	5.07
371.708	5
372.071	5.05
372.434	4.98
372.797	5.01
373.159	4.98
373.522	5.03
373.885	5
374.247	5.03
374.61	5.02
374.973	5.02
375.335	5.02
375.698	5.1
376.06	5.04
376.423	5.08
376.785	5.16
377.147	5.25
377.51	5.23
377.872	5.26
378.234	5.28
378.596	5.31
378.958	5.32
379.321	5.37
379.683	5.38
380.045	5.43
380.407	5.44
380.769	5.44
381.13	5.4
381.492	5.39
381.854	5.39
382.216	5.37
382.578	5.43
382.939	5.38
383.301	5.39
383.663	5.38
384.024	5.37
384.386	5.39
384.747	5.37
385.109	5.36
385.47	5.3
385.832	5.31
386.193	5.3
386.554	5.32
386.916	5.23
387.277	5.2
387.638	5.18
387.999	5.17
388.36	5.14
388.721	5.15
389.082	5.17
389.443	5.13
389.804	5.07
390.165	5.03
390.526	5.04
390.887	5.01
391.248	5.06
391.609	5.1
391.969	5.08
392.33	5.07
392.691	5.05
393.051	5.08
393.412	5.09
393.772	5.06
394.133	5.06
394.493	5.13
394.854	5.15
395.214	5.14
395.574	5.12
395.935	5.14
396.295	5.18
396.655	5.16
397.015	5.15
397.376	5.19
397.736	5.17
398.096	5.19
398.456	5.18
398.816	5.14
399.176	5.11
399.535	5.08
399.895	5.08
400.255	5.08
400.615	5.09
400.975	5.08
401.334	5.11
401.694	5.11
402.054	5.13
402.413	5.09
402.773	5.09
403.132	5.1
403.492	5.09
403.851	5.07
404.211	5.07
404.57	5.08
404.929	5.09
405.288	5.08
405.648	5.05
406.007	5.06
406.366	5.03
406.725	5.04
407.084	5.01
407.443	5.01
407.802	5.03
408.161	5
408.52	5
408.879	4.95
409.238	4.94
409.596	4.93
409.955	4.91
410.314	4.94
410.673	4.93
411.031	4.95
411.39	4.96
411.748	4.96
412.107	4.99
412.465	4.98
412.824	5.01
413.182	5.02
413.54	5.04
413.899	5.07
414.257	5.07
414.615	5.08
414.974	5.07
415.332	5.08
415.69	5.08
416.048	5.07
416.406	5.1
416.764	5.06
417.122	5.06
417.48	5.06
417.838	5.05
418.195	5.05
418.553	5.04
418.911	5.04
419.269	5.05
419.626	5.04
419.984	5.03
420.342	5.04
420.699	5.04
421.057	5.03
421.414	5.02
421.772	5.02
422.129	5.02
422.486	5.02
422.844	5.03
423.201	5.02
423.558	5.01
423.915	5.01
424.273	5.02
424.63	5.01
424.987	5.02
425.344	5.01
425.701	5.02
426.058	5.02
426.415	5.01
426.772	4.99
427.128	4.99
427.485	5
427.842	4.97
428.199	4.97
428.555	4.98
428.912	4.99
429.269	4.99
429.625	4.99
429.982	4.99
430.338	4.96
430.695	4.98
431.051	4.98
431.407	4.99
431.764	4.98
432.12	4.98
432.476	4.99
432.832	4.99
433.189	4.97
433.545	4.97
433.901	4.97
434.257	4.98
434.613	4.98
434.969	4.98
435.325	4.99
435.681	4.98
436.036	4.98
436.392	4.96
436.748	4.94
437.104	4.94
437.459	4.93
437.815	4.92
438.171	4.92
438.526	4.92
438.882	4.93
439.237	4.94
439.593	4.96
439.948	4.96
440.304	4.95
440.659	4.95
441.014	4.94
441.369	4.94
441.725	4.95
442.08	4.94
442.435	4.92
442.79	4.92
443.145	4.92
443.5	4.91
443.855	4.9
444.21	4.9
444.565	4.89
444.92	4.89
445.275	4.88
445.629	4.88
445.984	4.88
446.339	4.85
446.693	4.82
447.048	4.79
447.403	4.77
447.757	4.74
448.112	4.75
448.466	4.75
448.82	4.76
449.175	4.75
449.529	4.75
449.883	4.75
450.238	4.74
450.592	4.75
450.946	4.73
451.3	4.74
451.654	4.74
452.008	4.73
452.362	4.73
452.716	4.74
453.07	4.73
453.424	4.73
453.778	4.74
454.132	4.75
454.486	4.76
454.839	4.75
455.193	4.78
455.547	4.77
455.9	4.76
456.254	4.76
456.607	4.76
456.961	4.76
457.314	4.75
457.668	4.75
458.021	4.74
458.375	4.74
458.728	4.74
459.081	4.76
459.434	4.76
459.787	4.75
460.141	4.74
460.494	4.75
460.847	4.75
461.2	4.74
461.553	4.75
461.906	4.76
462.259	4.79
462.611	4.81
462.964	4.8
463.317	4.82
463.67	4.82
464.022	4.81
464.375	4.81
464.728	4.81
465.08	4.81
465.433	4.8
465.785	4.8
466.138	4.8
466.49	4.8
466.843	4.79
467.195	4.82
467.547	4.84
467.899	4.84
468.252	4.83
468.604	4.84
468.956	4.84
469.308	4.83
469.66	4.82
470.012	4.8
470.364	4.82
470.716	4.81
471.068	4.8
471.42	4.81
471.772	4.82
472.123	4.84
472.475	4.85
472.827	4.85
473.178	4.87
473.53	4.87
473.882	4.87
474.233	4.89
474.585	4.87
474.936	4.85
475.288	4.84
475.639	4.85
475.99	4.87
476.342	4.89
476.693	4.9
477.044	4.91
477.395	4.92
477.746	4.9
478.097	4.87
478.448	4.89
478.8	4.89
479.15	4.89
479.501	4.91
479.852	4.92
480.203	4.93
480.554	4.94
480.905	4.95
481.255	4.96
481.606	4.96
481.957	4.99
482.307	4.99
482.658	5.01
483.009	5.02
483.359	5.02
483.709	5.02
484.06	5.02
484.41	5.02
484.761	5.03
485.111	5.04
485.461	5.05
485.811	5.05
486.162	5.05
486.512	5.06
486.862	5.06
487.212	5.05
487.562	5.05
487.912	5.06
488.262	5.05
488.612	5.05
488.961	5.06
489.311	5.04
489.661	5.04
490.011	5.03
490.36	5.03
490.71	5.03
491.06	5.03
491.409	5.03
491.759	5.03
492.108	5.02
492.458	5.01
492.807	5
493.157	5.01
493.506	5.02
493.855	5.01
494.204	5.02
494.554	5.03
494.903	5.01
495.252	5.03
495.601	5.06
495.95	5.05
496.299	5.06
496.648	5.07
496.997	5.08
497.346	5.11
497.695	5.1
498.043	5.11
498.392	5.11
498.741	5.1
499.09	5.1
499.438	5.11
499.787	5.13
500.135	5.16
500.484	5.15
500.832	5.16
501.181	5.16
501.529	5.15
501.878	5.15
502.226	5.16
502.574	5.14
502.923	5.12
503.271	5.1
503.619	5.11
503.967	5.13
504.315	5.12
504.663	5.1
505.011	5.11
505.359	5.1
505.707	5.11
506.055	5.13
506.403	5.13
506.751	5.13
507.098	5.13
507.446	5.13
507.794	5.13
508.141	5.13
508.489	5.13
508.837	5.13
509.184	5.16
509.531	5.16
509.879	5.16
510.226	5.18
510.574	5.19
510.921	5.19
511.268	5.17
511.616	5.21
511.963	5.23
512.31	5.25
512.657	5.26
513.004	5.27
513.351	5.29
513.698	5.3
514.045	5.29
514.392	5.3
514.739	5.28
515.086	5.29
515.432	5.28
515.779	5.29
516.126	5.31
516.473	5.31
516.819	5.33
517.166	5.34
517.512	5.36
517.859	5.37
518.205	5.37
518.552	5.4
518.898	5.38
519.245	5.36
519.591	5.35
519.937	5.34
520.283	5.32
520.629	5.3
520.976	5.28
521.322	5.31
521.668	5.31
522.014	5.34
522.36	5.35
522.706	5.35
523.052	5.38
523.398	5.39
523.743	5.38
524.089	5.39
524.435	5.4
524.781	5.4
525.126	5.41
525.472	5.43
525.817	5.41
526.163	5.42
526.509	5.44
526.854	5.44
527.199	5.47
527.545	5.47
527.89	5.49
528.235	5.5
528.581	5.5
528.926	5.5
529.271	5.51
529.616	5.5
529.961	5.51
530.306	5.49
530.651	5.49
530.996	5.51
531.341	5.49
531.686	5.49
532.031	5.48
532.376	5.49
532.721	5.49
533.065	5.49
533.41	5.49
533.755	5.48
534.099	5.48
534.444	5.48
534.788	5.49
535.133	5.49
535.477	5.49
535.822	5.48
536.166	5.48
536.51	5.47
536.855	5.49
537.199	5.51
537.543	5.52
537.887	5.54
538.231	5.54
538.576	5.56
538.92	5.57
539.264	5.57
539.608	5.59
539.951	5.58
540.295	5.58
540.639	5.59
540.983	5.6
541.327	5.61
541.671	5.6
542.014	5.6
542.358	5.6
542.701	5.61
543.045	5.63
543.389	5.65
543.732	5.67
544.075	5.68
544.419	5.67
544.762	5.66
545.105	5.66
545.449	5.66
545.792	5.65
546.135	5.67
546.478	5.67
546.821	5.65
547.165	5.66
547.508	5.67
547.851	5.67
548.194	5.66
548.536	5.64
548.879	5.66
549.222	5.65
549.565	5.65
549.908	5.65
550.25	5.65
550.593	5.66
550.936	5.62
551.278	5.62
551.621	5.64
551.963	5.64
552.306	5.64
552.648	5.63
552.991	5.67
553.333	5.64
553.675	5.66
554.017	5.67
554.36	5.67
554.702	5.66
555.044	5.67
555.386	5.67
555.728	5.69
556.07	5.67
556.412	5.65
556.754	5.62
557.096	5.61
557.438	5.62
557.78	5.59
558.121	5.63
558.463	5.61
558.805	5.6
559.147	5.58
559.488	5.55
559.83	5.57
560.171	5.53
560.513	5.56
560.854	5.54
561.196	5.54
561.537	5.56
561.878	5.55
562.22	5.55
562.561	5.55
562.902	5.55
563.243	5.57
563.584	5.59
563.925	5.63
564.266	5.64
564.607	5.65
564.948	5.67
565.289	5.65
565.63	5.66
565.971	5.64
566.312	5.65
566.653	5.69
566.993	5.67
567.334	5.7
567.675	5.72
568.015	5.74
568.356	5.73
568.696	5.76
569.037	5.78
569.377	5.79
569.718	5.81
570.058	5.82
570.398	5.81
570.739	5.82
571.079	5.83
571.419	5.84
571.759	5.83
572.099	5.81
572.439	5.81
572.779	5.77
573.119	5.78
573.459	5.83
573.799	5.83
574.139	5.86
574.479	5.84
574.819	5.82
575.158	5.81
575.498	5.82
575.838	5.8
576.177	5.79
576.517	5.78
576.856	5.81
577.196	5.8
577.535	5.81
577.875	5.81
578.214	5.8
578.553	5.81
578.893	5.8
579.232	5.82
579.571	5.82
579.91	5.84
580.25	5.87
580.589	5.81
580.928	5.82
581.267	5.8
581.606	5.75
581.945	5.77
582.283	5.75
582.622	5.75
582.961	5.76
583.3	5.77
583.639	5.82
583.977	5.78
584.316	5.78
584.654	5.76
584.993	5.78
585.332	5.81
585.67	5.8
586.008	5.79
586.347	5.81
586.685	5.83
587.024	5.86
587.362	5.85
587.7	5.84
588.038	5.83
588.376	5.83
588.715	5.89
589.053	5.9
589.391	5.94
589.729	5.93
590.067	5.9
590.404	5.87
590.742	5.87
591.08	5.87
591.418	5.89
591.756	5.94
592.093	5.95
592.431	5.92
592.769	5.93
593.106	5.95
593.444	5.94
593.781	5.92
594.119	5.92
594.456	5.93
594.793	5.91
595.131	5.93
595.468	5.91
595.805	5.92
596.143	5.88
596.48	5.87
596.817	5.9
597.154	5.92
597.491	5.93
597.828	5.93
598.165	5.93
598.502	5.9
598.839	5.86
599.176	5.86
599.512	5.86
599.849	5.86
600.186	5.81
600.523	5.82
600.859	5.86
601.196	5.86
601.532	5.9
601.869	5.93
602.205	5.9
602.542	5.92
602.878	5.9
603.215	5.95
603.551	6
603.887	6
604.223	5.97
604.56	6
604.896	5.99
605.232	6.02
605.568	6.02
605.904	6.02
606.24	6.05
606.576	6.04
606.912	6.03
607.248	6.06
607.583	6.07
607.919	6.02
608.255	5.99
608.591	5.97
608.926	5.97
609.262	5.99
609.597	6
609.933	5.99
610.268	5.93
610.604	5.89
610.939	5.89
611.275	5.91
611.61	5.89
611.945	5.87
612.281	5.84
612.616	5.92
612.951	5.92
613.286	5.9
613.621	5.89
613.956	5.94
614.291	5.94
614.626	5.91
614.961	5.93
615.296	5.94
615.631	5.92
615.966	5.93
616.3	5.94
616.635	5.92
616.97	5.95
617.304	6.03
617.639	6.03
617.973	6.02
618.308	6.03
618.642	5.99
618.977	6.04
619.311	6.02
619.646	6.02
619.98	6.02
620.314	6
620.648	6.04
620.983	6.02
621.317	6.05
621.651	6.05
621.985	6.09
622.319	6.13
622.653	6.19
622.987	6.24
623.321	6.23
623.655	6.27
623.988	6.32
624.322	6.28
624.656	6.28
624.99	6.31
625.323	6.35
625.657	6.4
625.99	6.38
626.324	6.41
626.657	6.39
626.991	6.46
627.324	6.49
627.658	6.47
627.991	6.48
628.324	6.5
628.657	6.52
628.991	6.49
629.324	6.54
629.657	6.53
629.99	6.54
630.323	6.59
630.656	6.58
630.989	6.54
631.322	6.58
631.655	6.6
631.987	6.58
632.32	6.56
632.653	6.58
632.986	6.59
633.318	6.6
633.651	6.58
633.984	6.52
634.316	6.51
634.649	6.55
634.981	6.56
635.313	6.57
635.646	6.6
635.978	6.64
636.31	6.57
636.643	6.5
636.975	6.48
637.307	6.49
637.639	6.43
637.971	6.47
638.303	6.44
638.635	6.41
638.967	6.45
639.299	6.41
639.631	6.33
639.963	6.34
640.295	6.34
640.626	6.32
640.958	6.32
641.29	6.34
641.621	6.28
641.953	6.21
642.285	6.23
642.616	6.25
642.948	6.19
643.279	6.21
643.61	6.25
643.942	6.24
644.273	6.16
644.604	6.2
644.936	6.16
645.267	6.13
645.598	6.1
645.929	6.15
646.26	6.17
646.591	6.18
646.922	6.17
647.253	6.1
647.584	6.15
647.915	6.11
648.245	6.06
648.576	6.1
648.907	6.12
649.238	6.05
649.568	5.95
649.899	6.04
650.229	6.05
650.56	6.06
650.89	6.07
651.221	6.06
651.551	6.04
651.882	6.11
652.212	6.16
652.542	6.19
652.872	6.11
653.203	6.07
653.533	6.08
653.863	6.07
654.193	6.12
654.523	6.07
654.853	6.11
655.183	6.15
655.513	6.13
655.843	6.14
656.172	6.21
656.502	6.29
656.832	6.25
657.162	6.3
657.491	6.31
657.821	6.29
658.15	6.29
658.48	6.27
658.809	6.26
659.139	6.21
659.468	6.23
659.798	6.2
660.127	6.26
660.456	6.32
660.785	6.27
661.115	6.23
661.444	6.24
661.773	6.25
662.102	6.27
662.431	6.35
662.76	6.33
663.089	6.22
663.418	6.18
663.747	6.13
664.076	6.07
664.404	6.05
664.733	6.07
665.062	6.08
665.39	6.06
665.719	6.06
666.048	6.14
666.376	6.16
666.705	6.2
667.033	6.09
667.362	6.09
667.69	6.09
668.018	6.11
668.347	6.17
668.675	6.15
669.003	6.14
669.331	6.15
669.659	6.18
669.987	6.19
670.315	6.24
670.643	6.3
670.971	6.27
671.299	6.32
671.627	6.33
671.955	6.28
672.283	6.31
672.61	6.27
672.938	6.24
673.266	6.21
673.593	6.33
673.921	6.39
674.249	6.41
674.576	6.41
674.904	6.44
675.231	6.46
675.558	6.49
675.886	6.51
676.213	6.45
676.54	6.49
676.867	6.58
677.195	6.54
677.522	6.54
677.849	6.59
678.176	6.58
678.503	6.55
678.83	6.62
679.157	6.65
679.484	6.63
679.81	6.6
680.137	6.61
680.464	6.56
680.791	6.59
681.117	6.56
681.444	6.64
681.771	6.63
682.097	6.61
682.424	6.56
682.75	6.53
683.077	6.55
683.403	6.5
683.729	6.44
684.056	6.5
684.382	6.57
684.708	6.56
685.034	6.48
685.36	6.43
685.686	6.37
686.012	6.38
686.339	6.49
686.664	6.55
686.99	6.5
687.316	6.48
687.642	6.42
687.968	6.39
688.294	6.42
688.619	6.48
688.945	6.5
689.271	6.51
689.596	6.51
689.922	6.45
690.247	6.52
690.573	6.56
690.898	6.55
691.224	6.47
691.549	6.55
691.874	6.62
692.2	6.72
692.525	6.75
692.85	6.81
693.175	6.71
693.5	6.63
693.825	6.79
694.15	6.86
694.475	6.86
694.8	6.84
695.125	6.72
695.45	6.62
695.775	6.61
696.099	6.65
696.424	6.75
696.749	6.68
697.073	6.64
697.398	6.78
697.723	6.76
698.047	6.8
698.372	6.73
698.696	6.78
699.02	6.73
699.345	6.79
699.669	6.73
699.993	6.67
700.318	6.72
700.642	6.67
700.966	6.57
701.29	6.7
701.614	6.68
701.938	6.8
702.262	6.85
702.586	6.87
702.91	6.82
703.234	6.73
703.557	6.79
703.881	6.85
704.205	6.71
704.529	6.7
704.852	6.69
705.176	6.77
705.499	6.68
705.823	6.7
706.146	6.67
706.47	6.75
706.793	6.93
707.117	6.88
707.44	6.84
707.763	6.78
708.086	6.66
708.409	6.62
708.733	6.56
709.056	6.56
709.379	6.7
709.702	6.55
710.025	6.49
710.348	6.67
710.671	6.57
710.993	6.58
711.316	6.6
711.639	6.57
711.962	6.46
712.284	6.5
712.607	6.55
712.93	6.44
713.252	6.49
713.575	6.49
713.897	6.51
714.22	6.45
714.542	6.52
714.864	6.45
715.187	6.48
715.509	6.55
715.831	6.7
716.153	6.62
716.475	6.82
716.798	6.84
717.12	6.68
717.442	6.7
717.764	6.65
718.085	6.53
718.407	6.56
718.729	6.64
719.051	6.55
719.373	6.42
719.695	6.54
720.016	6.48
720.338	6.37
720.659	6.53
720.981	6.55
721.302	6.71
721.624	6.9
721.945	6.93
722.267	6.78
722.588	6.58
722.909	6.39
723.231	6.39
723.552	6.42
723.873	6.39
724.194	6.21
724.515	6.24
724.836	6.35
725.157	6.55
725.478	6.46
725.799	6.49
726.12	6.4
726.441	6.36
726.762	6.35
727.083	6.4
727.403	6.37
727.724	6.62
728.045	6.48
728.365	6.37
728.686	6.27
729.006	6.36
729.327	6.38
729.647	6.43
729.967	6.43
730.288	6.41
730.608	6.44
730.928	6.44
731.249	6.45
731.569	6.52
731.889	6.37
732.209	6.39
732.529	6.48
732.849	6.59
733.169	6.71
733.489	6.79
733.809	6.89
734.129	6.9
734.448	6.8
734.768	6.81
735.088	6.94
735.408	7.19
735.727	7.37
736.047	7.4
736.366	7.44
736.686	7.22
737.005	7.23
737.325	7.26
737.644	7.56
737.963	7.58
738.283	7.52
738.602	7.37
738.921	7.41
739.24	7.41
739.56	7.48
739.879	7.42
740.198	7.48
740.517	7.32
740.836	7.08
741.155	7.05
741.473	7.12
741.792	6.91
742.111	6.89
742.43	6.86
742.748	6.84
743.067	7.08
743.386	7.4
743.704	7.37
744.023	7.53
744.341	7.58
744.66	7.8
744.978	7.88
745.297	7.88
745.615	7.99
745.933	7.93
746.252	7.97
746.57	7.67
746.888	7.49
747.206	7.34
747.524	7.47
747.842	7.51
748.16	7.54
748.478	7.7
748.796	7.58
749.114	7.38
749.432	7.21
749.749	6.94
750.067	6.61
750.385	6.6
750.703	6.49
751.02	6.15
751.338	5.87
751.655	5.74
751.973	6.09
752.29	5.87
752.608	5.88
752.925	5.92
753.242	6.17
753.56	6.05
753.877	6.11
754.194	6.22
754.511	6.25
754.828	6.18
755.145	6.06
755.462	6.15
755.779	6.21
756.096	6.31
756.413	6.43
756.73	6.75
757.047	6.73
757.364	6.65
757.68	6.96
757.997	7
758.314	7.19
758.63	6.87
758.947	7.05
759.264	7.19
759.58	7
759.896	6.99
760.213	7.23
760.529	7.44
760.846	7.47
761.162	7.38
761.478	7.54
761.794	7.62
762.11	7.74
762.426	7.75
762.743	7.72
763.059	7.8
763.375	7.8
763.69	7.88
764.006	7.97
764.322	7.91
764.638	8.05
764.954	8.04
765.27	8.11
765.585	8.12
765.901	8.16
766.216	8.27
766.532	8.22
766.848	8.07
767.163	8.21
767.478	8.42
767.794	8.42
768.109	8.36
768.424	8.44
768.74	8.38
769.055	8.41
769.37	8.5
769.685	8.19
770	8.23
770.315	8.4
770.63	8.16
770.945	8.24
771.26	8.03
771.575	7.89
771.89	7.91
772.205	7.58
772.52	7.51
772.834	7.3
773.149	7.68
773.464	7.58
773.778	7.36
774.093	6.91
774.407	7.1
774.722	7.02
775.036	7.28
775.351	7.18
775.665	7.08
775.979	6.98
776.293	7.28
776.608	7.4
776.922	7.52
777.236	7.74
777.55	7.8
777.864	8.12
778.178	8.43
778.492	8.57
778.806	8.74
779.12	8.56
779.434	8.75
779.747	8.32
780.061	8.47
780.375	8.35
780.689	8.04
781.002	8.31
781.316	8.23
781.629	8.04
781.943	8.01
782.256	7.98
782.57	8.19
782.883	7.94
783.196	7.55
783.51	7.41
783.823	7.47
784.136	7.37
784.449	7.2
784.762	7.16
785.075	7.18
785.388	7.49
785.701	7.54
786.014	7.91
786.327	7.9
786.64	8.39
786.953	8.58
787.266	8.69
787.578	8.14
787.891	8.36
788.204	8.11
788.516	7.96
788.829	7.94
789.141	8.11
789.454	8.77
789.766	9.06
790.079	8.52
790.391	8.52
790.703	8.69
791.016	8.72
791.328	8.64
791.64	8.49
791.952	7.99
792.264	7.91
792.576	7.47
792.888	7.6
793.2	7.22
793.512	6.94
793.824	7.26
794.136	7.51
794.448	7.49
794.76	7.3
795.071	7.26
795.383	7.59
795.695	7.11
796.006	6.35
796.318	6.38
796.629	7.13
796.941	7.34
797.252	7.21
797.564	7.33
797.875	7.3
798.186	7.15
798.497	7.6
798.809	7.95
799.12	8.28
799.431	8.28
799.742	8.56
800.053	8.85
800.364	8.7
800.675	8.58
800.986	8.38
801.297	8.22
801.608	8.52
801.918	8.06
802.229	8.17
802.54	8.44
802.851	8.14
803.161	7.93
803.472	7.67
803.782	7.65
804.093	7.63
804.403	7.16
804.714	7.57
805.024	6.89
805.334	6.47
805.645	6.47
805.955	6.34
806.265	6.06
806.575	5.87
806.885	6.12
807.195	6.09
807.505	6.28
807.815	6.76
808.125	6.48
808.435	6.94
808.745	7.43
809.055	7.63
809.365	7.56
809.674	7.13
809.984	7.35
810.294	7.64
810.603	7.6
810.913	8.16
811.222	8.34
811.532	9.53
811.841	9.81
812.151	9.56
812.46	9.64
812.769	9.44
813.079	9.35
813.388	9.73
813.697	9.85
814.006	9.86
814.315	10.29
814.624	10.38
814.933	10.37
815.242	9.98
815.551	9.91
815.86	10.39
816.169	10.61
816.478	9.76
816.786	9.17
817.095	8.69
817.404	8.24
817.712	7.92
818.021	7.75
818.33	7.72
818.638	8.15
818.947	8.5
819.255	8.78
819.563	8.95
819.872	8.78
820.18	8.94
820.488	8.88
820.796	8.83
821.105	8.88
821.413	8.95
821.721	8.95
822.029	8.92
822.337	8.9
822.645	8.94
822.953	8.91
823.26	9.13
823.568	9.27
823.876	9.43
824.184	9.29
824.491	9.26
824.799	9.27
825.107	9.09
825.414	9.18
825.722	9.13
826.029	9.11
826.337	9.12
826.644	8.9
826.951	8.94
827.259	8.86
827.566	8.69
827.873	8.61
828.18	8.53
828.488	8.47
828.795	8.48
829.102	8.46
829.409	8.89
829.716	8.48
830.023	8.32
830.329	8.01
830.636	8.25
830.943	8.1
831.25	8.05
831.557	8.33
831.863	8.42
832.17	8.21
832.476	8.19
832.783	8.08
833.089	8.51
833.396	8.52
833.702	8.55
834.009	9.26
834.315	9.22
834.621	9.31
834.928	9.29
835.234	8.82
835.54	8.73
835.846	8.31
836.152	8.59
836.458	8.83
836.764	8.7
837.07	8.5
837.376	8.17
837.682	8.05
837.988	7.61
838.293	6.82
838.599	6.6
838.905	6.44
839.211	5.84
839.516	5.07
839.822	4.24
840.127	4.14
840.433	3.77
840.738	4.11
841.044	3.44
841.349	3.38
841.654	3.99
841.959	4.7
842.265	4.8
842.57	4.86
842.875	4.2
843.18	4.74
843.485	4.74
843.79	4.95
844.095	4.58
844.4	6.19
844.705	6.27
845.01	7.42
845.315	7.27
845.619	8.48
845.924	8.89
846.229	9.7
846.533	8.02
846.838	7.01
847.142	5.06
847.447	5.67
847.751	5.34
848.056	4.47
848.36	2.72
848.664	2.34
848.969	1.82
849.273	1.09
849.577	1.51
849.881	1.89
850.185	1.91
850.489	2.61
850.794	0.07
851.097	0.49
851.401	1.18
851.705	1.68
852.009	2.71
852.313	1.74
852.617	1.61
852.92	4.55
853.224	3.73
853.528	4.76
853.831	4.45
854.135	4.25
854.438	2.91
854.742	2.12
855.045	2.03
855.349	1.51
855.652	2.82
855.955	1.76
856.259	0.35
856.562	1.26
856.865	1.33
857.168	0.83
857.471	-0.88
857.774	-2.1
858.077	-1.82
858.38	-3.72
858.683	-1.81
858.986	-1.59
859.289	-2.76
859.592	-0.83
859.894	-1.13
860.197	-1.79
860.5	-2.49
860.802	0.41
861.105	2.81
861.407	2.07
861.71	1.88
862.012	0.61
862.315	-0.51
862.617	0.49
862.919	-0.34
863.222	-1.97
863.524	-1.92
863.826	1.07
864.128	0.54
864.43	0.51
864.732	1.11
865.034	0.19
865.336	-0.29
865.638	0.55
865.94	-1.87
866.242	-2.75
866.544	-2.15
866.846	-1.9
867.147	-1.92
867.449	-2.92
867.751	-2.47
868.052	0.27
868.354	0.27
868.655	1.64
868.957	1.44
869.258	1.49
869.56	2.77
869.861	5.08
870.162	1.31
870.463	1.38
870.765	1.22
871.066	1.14
871.367	0.6
871.668	0.53
871.969	-1.23
872.27	-1.63
872.571	-0.48
872.872	1.14
873.173	1.42
873.473	-0.27
873.774	0.11
874.075	0.48
874.376	-1.12
874.676	-1.6
874.977	-4.61
875.277	-1.98
875.578	-1.56
875.878	-2.08
876.179	-3.39
876.479	-1.56
876.78	-1.78
877.08	-2.73
877.38	-4.05
877.68	-3.21
877.981	-3.23
878.281	-2.59
878.581	0.7
