Data from BA57715_Reflection_00005.txt Node
Date: Mon Nov 18 15:25:52 EST 2019
User: vgr7
Spectrometer: USB2G7710
Scans to average: 3
Trigger mode: 4
Integration Time (sec): 2.000000E-2
Electric dark correction enabled: true
Boxcar width: 10
XAxis mode: Wavelengths
Number of Pixels in Spectrum: 2048
>>>>>Begin Spectral Data<<<<<
177.721	15.34
178.105	-11.11
178.488	-17.6
178.871	-49.78
179.254	-189.72
179.636	-1.77
180.019	94.01
180.402	145.83
180.785	-249.28
181.168	135.71
181.55	90.1
181.933	79.78
182.316	98.62
182.698	157.1
183.081	311.59
183.463	669.06
183.846	342.72
184.228	979.52
184.611	424.44
184.993	-2159.26
185.376	-317.99
185.758	-439.82
186.14	-373.05
186.522	-342.62
186.904	534.34
187.287	201.93
187.669	-538.55
188.051	2433.33
188.433	578.26
188.815	-138.1
189.197	-31.78
189.579	2.13
189.961	-42.86
190.342	-12.78
190.724	-20.46
191.106	40.4
191.488	33.84
191.869	47.18
192.251	30.42
192.633	2.02
193.014	-93.47
193.396	-187.55
193.777	-165.54
194.159	433.33
194.54	-86.6
194.922	-80.91
195.303	-41.01
195.684	-104.61
196.065	-14.91
196.447	-60.08
196.828	-120.56
197.209	-88.71
197.59	-140.36
197.971	-65.22
198.352	8.56
198.733	30.76
199.114	19.11
199.495	35.84
199.876	16.22
200.257	17.69
200.638	40.28
201.018	71
201.399	87.12
201.78	66.81
202.16	76.92
202.541	42.65
202.922	48.54
203.302	87.47
203.683	42.9
204.063	37.95
204.444	117.68
204.824	85.32
205.204	110.75
205.585	60.25
205.965	29.66
206.345	17.87
206.725	-56.16
207.106	-130.32
207.486	-135.52
207.866	-900
208.246	606.17
208.626	-1197.87
209.006	-255.93
209.386	-260
209.766	-279.94
210.145	-201.78
210.525	-198.15
210.905	-117.73
211.285	-97.81
211.664	-114.54
212.044	-162.75
212.424	-157.38
212.803	-161.16
213.183	-161.57
213.562	-147.61
213.942	-146.71
214.321	-151.82
214.701	-150.21
215.08	-132.13
215.459	-119.63
215.838	-101.79
216.218	-99.15
216.597	-84.67
216.976	-80.71
217.355	-82.72
217.734	-80.06
218.113	-76.09
218.492	-76.16
218.871	-81.93
219.25	-72.53
219.629	-81.86
220.008	-79.66
220.387	-82.71
220.766	-83.67
221.144	-89
221.523	-98.05
221.902	-102.07
222.28	-104.21
222.659	-91.34
223.037	-81.55
223.416	-82.12
223.794	-73.67
224.173	-69.28
224.551	-46.26
224.929	-49.12
225.308	-34.64
225.686	-19.04
226.064	-11.67
226.442	-7.54
226.821	-3.82
227.199	-5.3
227.577	0.31
227.955	0.51
228.333	-1.05
228.711	1.35
229.089	3.67
229.467	-0.01
229.845	-1.23
230.222	0.78
230.6	-2.02
230.978	-4.41
231.356	-3.09
231.733	-3.6
232.111	-1.49
232.488	-4.15
232.866	-2.85
233.243	-2.65
233.621	-4.79
233.998	-3.94
234.376	-3.69
234.753	-4.84
235.13	-6.5
235.508	-7.55
235.885	-6.7
236.262	-5.31
236.639	-5.09
237.016	-4.36
237.393	-0.3
237.77	0.64
238.147	0.67
238.524	1.69
238.901	2.28
239.278	2.83
239.655	3.43
240.032	4.22
240.409	3.83
240.785	4.19
241.162	4.78
241.539	5.33
241.915	5.17
242.292	4.59
242.668	5.45
243.045	6
243.421	6.44
243.798	6.25
244.174	6.07
244.551	5.88
244.927	5.72
245.303	5.61
245.679	5.7
246.056	5.6
246.432	5.52
246.808	5.72
247.184	5.43
247.56	5.31
247.936	4.99
248.312	5.11
248.688	5.05
249.064	4.59
249.44	4.5
249.815	4.5
250.191	4.85
250.567	4.75
250.943	4.74
251.318	4.48
251.694	4.64
252.069	4.43
252.445	4.82
252.82	4.7
253.196	4.41
253.571	4.19
253.947	4.27
254.322	4.52
254.697	4.37
255.073	4.24
255.448	3.9
255.823	4
256.198	4.08
256.573	4.18
256.948	4.31
257.323	4.55
257.698	4.45
258.073	4.38
258.448	4.48
258.823	4.52
259.198	4.47
259.573	4.52
259.948	4.45
260.322	4.31
260.697	4.3
261.072	4.23
261.446	4.45
261.821	4.54
262.195	4.5
262.57	4.37
262.944	4.59
263.319	4.79
263.693	4.83
264.067	4.88
264.442	4.83
264.816	4.83
265.19	4.65
265.564	4.63
265.938	4.62
266.313	4.62
266.687	4.58
267.061	4.9
267.435	4.98
267.809	5.25
268.183	5.36
268.556	5.28
268.93	5.21
269.304	5.12
269.678	5.08
270.051	5.05
270.425	5.28
270.799	5.13
271.172	5.2
271.546	5.13
271.919	5.03
272.293	5.06
272.666	5.05
273.04	5.1
273.413	5.2
273.787	5.22
274.16	5.07
274.533	4.88
274.906	4.65
275.279	4.56
275.653	4.63
276.026	4.5
276.399	4.56
276.772	4.77
277.145	4.66
277.518	4.74
277.891	4.91
278.263	4.78
278.636	4.75
279.009	4.57
279.382	4.61
279.755	4.59
280.127	4.71
280.5	4.81
280.872	4.91
281.245	4.8
281.617	4.93
281.99	5.01
282.362	5.08
282.735	5.09
283.107	5
283.479	4.97
283.852	5.03
284.224	5.24
284.596	5.2
284.968	5.34
285.34	5.21
285.713	5.1
286.085	5.16
286.457	5.23
286.829	5.38
287.201	5.38
287.572	5.34
287.944	5.17
288.316	5.1
288.688	4.99
289.06	5.12
289.431	5.06
289.803	5.17
290.175	5.21
290.546	5.33
290.918	5.28
291.289	5.19
291.661	5.12
292.032	5.01
292.403	4.94
292.775	4.89
293.146	4.88
293.517	4.8
293.889	4.83
294.26	4.78
294.631	4.77
295.002	4.87
295.373	4.96
295.744	5.09
296.115	5.16
296.486	5.08
296.857	4.93
297.228	5
297.599	4.87
297.97	4.84
298.34	4.85
298.711	5
299.082	4.94
299.452	4.98
299.823	5.04
300.194	5.07
300.564	5.14
300.935	5.21
301.305	5.26
301.676	5.12
302.046	5.21
302.416	5.34
302.787	5.19
303.157	5.17
303.527	5.16
303.897	5.19
304.267	5.31
304.637	5.34
305.008	5.25
305.378	5.3
305.748	5.46
306.117	5.26
306.487	5.16
306.857	5.42
307.227	5.51
307.597	5.45
307.967	5.56
308.336	5.51
308.706	5.34
309.076	5.36
309.445	5.39
309.815	5.38
310.184	5.17
310.554	5.32
310.923	5.27
311.293	5.18
311.662	5.03
312.031	5.06
312.401	5
312.77	5.1
313.139	5.07
313.508	4.92
313.877	4.99
314.246	4.96
314.616	4.79
314.985	4.74
315.353	4.71
315.722	4.6
316.091	4.41
316.46	4.38
316.829	4.36
317.198	4.39
317.567	4.32
317.935	4.31
318.304	4.05
318.672	4.24
319.041	4.3
319.41	4.31
319.778	4.42
320.147	4.71
320.515	4.57
320.883	4.54
321.252	4.66
321.62	4.83
321.988	4.81
322.357	4.9
322.725	4.96
323.093	4.89
323.461	4.83
323.829	5.11
324.197	5.19
324.565	5.24
324.933	5.31
325.301	5.28
325.669	5.41
326.037	5.49
326.405	5.39
326.772	5.34
327.14	5.52
327.508	5.48
327.875	5.29
328.243	5.34
328.61	5.37
328.978	5.37
329.346	5.33
329.713	5.37
330.08	5.25
330.448	5.09
330.815	5.09
331.182	5.18
331.55	4.92
331.917	5.04
332.284	5.05
332.651	4.95
333.018	4.88
333.385	4.87
333.752	5.03
334.119	5.02
334.486	5.08
334.853	5.03
335.22	4.88
335.587	4.94
335.954	4.85
336.32	4.88
336.687	4.91
337.054	4.85
337.42	4.97
337.787	5.06
338.153	5.14
338.52	5.09
338.886	5.09
339.253	5.08
339.619	4.97
339.986	4.95
340.352	5.01
340.718	5.12
341.084	5
341.451	4.91
341.817	4.89
342.183	4.86
342.549	4.79
342.915	4.85
343.281	4.82
343.647	4.85
344.013	4.86
344.379	4.81
344.745	4.89
345.11	4.75
345.476	4.8
345.842	4.81
346.208	4.9
346.573	4.97
346.939	5.17
347.304	5.17
347.67	5.2
348.035	5.12
348.401	5.08
348.766	5.11
349.132	5.12
349.497	5.11
349.862	5.16
350.228	5.19
350.593	5.19
350.958	5.22
351.323	5.26
351.688	5.26
352.053	5.35
352.418	5.32
352.783	5.37
353.148	5.27
353.513	5.27
353.878	5.25
354.243	5.28
354.608	5.19
354.972	5.3
355.337	5.25
355.702	5.31
356.066	5.35
356.431	5.3
356.795	5.32
357.16	5.36
357.524	5.3
357.889	5.27
358.253	5.29
358.618	5.27
358.982	5.31
359.346	5.27
359.71	5.25
360.075	5.22
360.439	5.27
360.803	5.33
361.167	5.3
361.531	5.29
361.895	5.21
362.259	5.22
362.623	5.19
362.987	5.17
363.351	5.18
363.714	5.21
364.078	5.2
364.442	5.12
364.806	5.08
365.169	5.11
365.533	5.12
365.896	5.06
366.26	5.1
366.623	4.97
366.987	4.91
367.35	4.87
367.714	4.89
368.077	4.84
368.44	4.78
368.803	4.78
369.167	4.71
369.53	4.7
369.893	4.68
370.256	4.67
370.619	4.7
370.982	4.62
371.345	4.56
371.708	4.63
372.071	4.7
372.434	4.75
372.797	4.77
373.159	4.75
373.522	4.82
373.885	4.82
374.247	4.93
374.61	4.97
374.973	4.88
375.335	4.85
375.698	4.87
376.06	4.89
376.423	4.88
376.785	4.99
377.147	5.03
377.51	5.08
377.872	5.09
378.234	5.1
378.596	5.2
378.958	5.21
379.321	5.23
379.683	5.25
380.045	5.2
380.407	5.22
380.769	5.27
381.13	5.23
381.492	5.2
381.854	5.12
382.216	5.14
382.578	5.18
382.939	5.18
383.301	5.16
383.663	5.13
384.024	5.13
384.386	5.11
384.747	5.12
385.109	5.13
385.47	5.09
385.832	5.1
386.193	5.03
386.554	5.06
386.916	5.02
387.277	4.99
387.638	5.01
387.999	4.98
388.36	4.95
388.721	4.97
389.082	4.99
389.443	4.99
389.804	4.97
390.165	4.97
390.526	4.98
390.887	4.97
391.248	5.02
391.609	5.04
391.969	4.98
392.33	4.95
392.691	4.94
393.051	4.97
393.412	4.98
393.772	5.01
394.133	5.02
394.493	5.06
394.854	5.06
395.214	5.04
395.574	5.03
395.935	5.03
396.295	5.04
396.655	5
397.015	4.99
397.376	5.01
397.736	5.01
398.096	5.01
398.456	5.07
398.816	5.07
399.176	5.03
399.535	5.07
399.895	5.05
400.255	5.04
400.615	5.04
400.975	5
401.334	4.99
401.694	4.96
402.054	4.9
402.413	4.89
402.773	4.9
403.132	4.87
403.492	4.9
403.851	4.85
404.211	4.88
404.57	4.93
404.929	4.93
405.288	4.92
405.648	4.91
406.007	4.88
406.366	4.85
406.725	4.88
407.084	4.9
407.443	4.92
407.802	4.93
408.161	4.91
408.52	4.91
408.879	4.92
409.238	4.94
409.596	4.96
409.955	4.99
410.314	5.01
410.673	5.01
411.031	4.98
411.39	5
411.748	5
412.107	4.99
412.465	4.96
412.824	4.99
413.182	4.98
413.54	4.97
413.899	5
414.257	5
414.615	4.97
414.974	4.99
415.332	4.95
415.69	4.94
416.048	4.93
416.406	4.93
416.764	4.9
417.122	4.9
417.48	4.87
417.838	4.87
418.195	4.88
418.553	4.9
418.911	4.9
419.269	4.9
419.626	4.9
419.984	4.92
420.342	4.93
420.699	4.92
421.057	4.94
421.414	4.91
421.772	4.91
422.129	4.92
422.486	4.9
422.844	4.92
423.201	4.91
423.558	4.91
423.915	4.92
424.273	4.93
424.63	4.94
424.987	4.95
425.344	4.95
425.701	4.96
426.058	4.95
426.415	4.95
426.772	4.94
427.128	4.94
427.485	4.93
427.842	4.92
428.199	4.93
428.555	4.91
428.912	4.91
429.269	4.93
429.625	4.9
429.982	4.89
430.338	4.88
430.695	4.9
431.051	4.88
431.407	4.86
431.764	4.85
432.12	4.83
432.476	4.83
432.832	4.8
433.189	4.78
433.545	4.78
433.901	4.78
434.257	4.78
434.613	4.79
434.969	4.8
435.325	4.81
435.681	4.79
436.036	4.79
436.392	4.79
436.748	4.77
437.104	4.77
437.459	4.77
437.815	4.77
438.171	4.76
438.526	4.76
438.882	4.76
439.237	4.76
439.593	4.77
439.948	4.74
440.304	4.75
440.659	4.78
441.014	4.77
441.369	4.76
441.725	4.77
442.08	4.77
442.435	4.74
442.79	4.72
443.145	4.73
443.5	4.73
443.855	4.72
444.21	4.73
444.565	4.74
444.92	4.75
445.275	4.75
445.629	4.74
445.984	4.75
446.339	4.73
446.693	4.71
447.048	4.69
447.403	4.7
447.757	4.69
448.112	4.67
448.466	4.66
448.82	4.67
449.175	4.67
449.529	4.66
449.883	4.66
450.238	4.65
450.592	4.64
450.946	4.63
451.3	4.62
451.654	4.62
452.008	4.61
452.362	4.58
452.716	4.58
453.07	4.59
453.424	4.59
453.778	4.61
454.132	4.63
454.486	4.63
454.839	4.64
455.193	4.63
455.547	4.64
455.9	4.63
456.254	4.63
456.607	4.61
456.961	4.62
457.314	4.63
457.668	4.65
458.021	4.65
458.375	4.64
458.728	4.65
459.081	4.65
459.434	4.65
459.787	4.67
460.141	4.67
460.494	4.65
460.847	4.67
461.2	4.64
461.553	4.65
461.906	4.67
462.259	4.67
462.611	4.69
462.964	4.69
463.317	4.71
463.67	4.71
464.022	4.72
464.375	4.72
464.728	4.73
465.08	4.74
465.433	4.75
465.785	4.75
466.138	4.75
466.49	4.78
466.843	4.78
467.195	4.76
467.547	4.77
467.899	4.77
468.252	4.75
468.604	4.8
468.956	4.78
469.308	4.77
469.66	4.77
470.012	4.78
470.364	4.79
470.716	4.78
471.068	4.78
471.42	4.79
471.772	4.8
472.123	4.79
472.475	4.77
472.827	4.78
473.178	4.81
473.53	4.81
473.882	4.82
474.233	4.83
474.585	4.85
474.936	4.85
475.288	4.86
475.639	4.88
475.99	4.87
476.342	4.88
476.693	4.88
477.044	4.89
477.395	4.89
477.746	4.89
478.097	4.91
478.448	4.91
478.8	4.88
479.15	4.88
479.501	4.9
479.852	4.91
480.203	4.91
480.554	4.91
480.905	4.92
481.255	4.92
481.606	4.91
481.957	4.92
482.307	4.91
482.658	4.91
483.009	4.91
483.359	4.9
483.709	4.91
484.06	4.91
484.41	4.92
484.761	4.91
485.111	4.91
485.461	4.92
485.811	4.91
486.162	4.92
486.512	4.92
486.862	4.91
487.212	4.9
487.562	4.91
487.912	4.91
488.262	4.9
488.612	4.9
488.961	4.91
489.311	4.91
489.661	4.92
490.011	4.93
490.36	4.93
490.71	4.94
491.06	4.95
491.409	4.95
491.759	4.94
492.108	4.95
492.458	4.94
492.807	4.92
493.157	4.94
493.506	4.97
493.855	4.97
494.204	4.97
494.554	4.99
494.903	4.99
495.252	4.97
495.601	4.96
495.95	4.97
496.299	4.96
496.648	4.95
496.997	4.94
497.346	4.95
497.695	4.96
498.043	4.96
498.392	4.94
498.741	4.94
499.09	4.95
499.438	4.97
499.787	4.99
500.135	5
500.484	5.01
500.832	5
501.181	5.01
501.529	5
501.878	5.02
502.226	5.03
502.574	5.05
502.923	5.07
503.271	5.09
503.619	5.07
503.967	5.08
504.315	5.07
504.663	5.06
505.011	5.09
505.359	5.1
505.707	5.11
506.055	5.1
506.403	5.11
506.751	5.11
507.098	5.11
507.446	5.13
507.794	5.11
508.141	5.09
508.489	5.1
508.837	5.14
509.184	5.14
509.531	5.12
509.879	5.15
510.226	5.16
510.574	5.16
510.921	5.19
511.268	5.21
511.616	5.22
511.963	5.24
512.31	5.22
512.657	5.22
513.004	5.25
513.351	5.26
513.698	5.24
514.045	5.25
514.392	5.25
514.739	5.25
515.086	5.26
515.432	5.27
515.779	5.27
516.126	5.28
516.473	5.31
516.819	5.34
517.166	5.33
517.512	5.33
517.859	5.34
518.205	5.35
518.552	5.36
518.898	5.35
519.245	5.34
519.591	5.36
519.937	5.35
520.283	5.35
520.629	5.35
520.976	5.38
521.322	5.39
521.668	5.4
522.014	5.39
522.36	5.4
522.706	5.42
523.052	5.42
523.398	5.41
523.743	5.4
524.089	5.39
524.435	5.4
524.781	5.41
525.126	5.42
525.472	5.43
525.817	5.43
526.163	5.46
526.509	5.46
526.854	5.46
527.199	5.48
527.545	5.49
527.89	5.51
528.235	5.51
528.581	5.52
528.926	5.52
529.271	5.53
529.616	5.54
529.961	5.54
530.306	5.55
530.651	5.55
530.996	5.56
531.341	5.57
531.686	5.57
532.031	5.58
532.376	5.58
532.721	5.59
533.065	5.59
533.41	5.58
533.755	5.6
534.099	5.6
534.444	5.58
534.788	5.59
535.133	5.59
535.477	5.59
535.822	5.58
536.166	5.57
536.51	5.58
536.855	5.57
537.199	5.58
537.543	5.57
537.887	5.58
538.231	5.58
538.576	5.57
538.92	5.58
539.264	5.59
539.608	5.59
539.951	5.59
540.295	5.59
540.639	5.61
540.983	5.6
541.327	5.61
541.671	5.61
542.014	5.6
542.358	5.61
542.701	5.6
543.045	5.61
543.389	5.62
543.732	5.62
544.075	5.63
544.419	5.63
544.762	5.61
545.105	5.6
545.449	5.61
545.792	5.62
546.135	5.63
546.478	5.63
546.821	5.62
547.165	5.62
547.508	5.64
547.851	5.63
548.194	5.62
548.536	5.64
548.879	5.65
549.222	5.66
549.565	5.62
549.908	5.64
550.25	5.64
550.593	5.65
550.936	5.62
551.278	5.61
551.621	5.59
551.963	5.64
552.306	5.62
552.648	5.63
552.991	5.64
553.333	5.6
553.675	5.6
554.017	5.6
554.36	5.55
554.702	5.52
555.044	5.54
555.386	5.56
555.728	5.54
556.07	5.53
556.412	5.54
556.754	5.56
557.096	5.54
557.438	5.53
557.78	5.53
558.121	5.58
558.463	5.59
558.805	5.63
559.147	5.61
559.488	5.63
559.83	5.6
560.171	5.6
560.513	5.6
560.854	5.59
561.196	5.59
561.537	5.65
561.878	5.65
562.22	5.64
562.561	5.64
562.902	5.66
563.243	5.64
563.584	5.62
563.925	5.61
564.266	5.6
564.607	5.63
564.948	5.67
565.289	5.66
565.63	5.69
565.971	5.64
566.312	5.63
566.653	5.64
566.993	5.64
567.334	5.69
567.675	5.72
568.015	5.72
568.356	5.72
568.696	5.73
569.037	5.73
569.377	5.74
569.718	5.73
570.058	5.7
570.398	5.74
570.739	5.76
571.079	5.78
571.419	5.8
571.759	5.8
572.099	5.76
572.439	5.76
572.779	5.72
573.119	5.78
573.459	5.79
573.799	5.81
574.139	5.82
574.479	5.78
574.819	5.76
575.158	5.78
575.498	5.78
575.838	5.77
576.177	5.75
576.517	5.75
576.856	5.79
577.196	5.79
577.535	5.8
577.875	5.79
578.214	5.76
578.553	5.78
578.893	5.78
579.232	5.81
579.571	5.81
579.91	5.84
580.25	5.81
580.589	5.83
580.928	5.77
581.267	5.76
581.606	5.75
581.945	5.76
582.283	5.73
582.622	5.74
582.961	5.75
583.3	5.77
583.639	5.78
583.977	5.79
584.316	5.81
584.654	5.82
584.993	5.81
585.332	5.84
585.67	5.82
586.008	5.81
586.347	5.75
586.685	5.73
587.024	5.71
587.362	5.72
587.7	5.73
588.038	5.79
588.376	5.79
588.715	5.75
589.053	5.8
589.391	5.84
589.729	5.83
590.067	5.78
590.404	5.83
590.742	5.82
591.08	5.79
591.418	5.81
591.756	5.81
592.093	5.85
592.431	5.85
592.769	5.85
593.106	5.89
593.444	5.91
593.781	5.93
594.119	5.95
594.456	5.94
594.793	5.92
595.131	5.9
595.468	5.9
595.805	5.92
596.143	5.9
596.48	5.86
596.817	5.88
597.154	5.91
597.491	5.87
597.828	5.87
598.165	5.86
598.502	5.85
598.839	5.85
599.176	5.83
599.512	5.84
599.849	5.81
600.186	5.8
600.523	5.83
600.859	5.86
601.196	5.89
601.532	5.88
601.869	5.87
602.205	5.86
602.542	5.9
602.878	5.93
603.215	5.9
603.551	5.9
603.887	5.91
604.223	5.92
604.56	5.97
604.896	5.96
605.232	5.98
605.568	5.99
605.904	5.97
606.24	5.98
606.576	6.01
606.912	6.01
607.248	6.02
607.583	6.06
607.919	6.04
608.255	5.98
608.591	6.03
608.926	6.05
609.262	6.1
609.597	6.07
609.933	6.06
610.268	6.11
610.604	6.16
610.939	6.19
611.275	6.18
611.61	6.13
611.945	6.2
612.281	6.21
612.616	6.22
612.951	6.19
613.286	6.2
613.621	6.18
613.956	6.22
614.291	6.17
614.626	6.08
614.961	6.06
615.296	6.11
615.631	6.14
615.966	6.15
616.3	6.08
616.635	6.14
616.97	6.12
617.304	6.08
617.639	6.04
617.973	5.99
618.308	6.03
618.642	6.02
618.977	5.95
619.311	5.89
619.646	5.88
619.98	5.96
620.314	5.94
620.648	5.96
620.983	6.03
621.317	6.06
621.651	6.13
621.985	6.14
622.319	6.15
622.653	6.09
622.987	6.16
623.321	6.17
623.655	6.16
623.988	6.18
624.322	6.18
624.656	6.19
624.99	6.19
625.323	6.18
625.657	6.19
625.99	6.22
626.324	6.23
626.657	6.21
626.991	6.18
627.324	6.17
627.658	6.11
627.991	6.08
628.324	6.07
628.657	6.05
628.991	6.02
629.324	6.01
629.657	6
629.99	5.96
630.323	5.99
630.656	5.97
630.989	6.04
631.322	6.08
631.655	6.09
631.987	6.08
632.32	6.07
632.653	6.1
632.986	6.11
633.318	6.12
633.651	6.16
633.984	6.11
634.316	6.08
634.649	6.16
634.981	6.13
635.313	6.13
635.646	6.13
635.978	6.23
636.31	6.26
636.643	6.28
636.975	6.27
637.307	6.26
637.639	6.3
637.971	6.29
638.303	6.22
638.635	6.25
638.967	6.25
639.299	6.22
639.631	6.17
639.963	6.17
640.295	6.23
640.626	6.24
640.958	6.33
641.29	6.37
641.621	6.35
641.953	6.37
642.285	6.37
642.616	6.37
642.948	6.32
643.279	6.26
643.61	6.28
643.942	6.31
644.273	6.26
644.604	6.24
644.936	6.13
645.267	6.19
645.598	6.11
645.929	6.15
646.26	6.17
646.591	6.24
646.922	6.15
647.253	6.15
647.584	6.1
647.915	6.13
648.245	6.1
648.576	6.14
648.907	6.15
649.238	6.19
649.568	6.16
649.899	6.21
650.229	6.25
650.56	6.2
650.89	6.21
651.221	6.22
651.551	6.25
651.882	6.31
652.212	6.34
652.542	6.38
652.872	6.32
653.203	6.39
653.533	6.37
653.863	6.45
654.193	6.48
654.523	6.56
654.853	6.57
655.183	6.59
655.513	6.53
655.843	6.46
656.172	6.37
656.502	6.48
656.832	6.36
657.162	6.36
657.491	6.36
657.821	6.36
658.15	6.42
658.48	6.45
658.809	6.41
659.139	6.37
659.468	6.39
659.798	6.41
660.127	6.32
660.456	6.35
660.785	6.31
661.115	6.29
661.444	6.22
661.773	6.22
662.102	6.27
662.431	6.25
662.76	6.32
663.089	6.37
663.418	6.27
663.747	6.33
664.076	6.34
664.404	6.34
664.733	6.39
665.062	6.33
665.39	6.24
665.719	6.24
666.048	6.25
666.376	6.23
666.705	6.28
667.033	6.31
667.362	6.32
667.69	6.3
668.018	6.32
668.347	6.34
668.675	6.31
669.003	6.3
669.331	6.35
669.659	6.36
669.987	6.34
670.315	6.44
670.643	6.45
670.971	6.46
671.299	6.49
671.627	6.44
671.955	6.37
672.283	6.39
672.61	6.42
672.938	6.47
673.266	6.55
673.593	6.59
673.921	6.57
674.249	6.59
674.576	6.66
674.904	6.65
675.231	6.67
675.558	6.67
675.886	6.56
676.213	6.58
676.54	6.47
676.867	6.6
677.195	6.56
677.522	6.55
677.849	6.57
678.176	6.61
678.503	6.62
678.83	6.63
679.157	6.53
679.484	6.57
679.81	6.6
680.137	6.59
680.464	6.46
680.791	6.52
681.117	6.56
681.444	6.53
681.771	6.47
682.097	6.42
682.424	6.49
682.75	6.42
683.077	6.36
683.403	6.52
683.729	6.5
684.056	6.5
684.382	6.53
684.708	6.48
685.034	6.42
685.36	6.35
685.686	6.39
686.012	6.5
686.339	6.47
686.664	6.4
686.99	6.36
687.316	6.47
687.642	6.55
687.968	6.41
688.294	6.51
688.619	6.54
688.945	6.46
689.271	6.34
689.596	6.45
689.922	6.52
690.247	6.4
690.573	6.32
690.898	6.3
691.224	6.34
691.549	6.38
691.874	6.29
692.2	6.4
692.525	6.48
692.85	6.46
693.175	6.52
693.5	6.55
693.825	6.5
694.15	6.44
694.475	6.31
694.8	6.37
695.125	6.27
695.45	6.24
695.775	6.37
696.099	6.48
696.424	6.59
696.749	6.61
697.073	6.66
697.398	6.66
697.723	6.62
698.047	6.57
698.372	6.56
698.696	6.67
699.02	6.61
699.345	6.6
699.669	6.66
699.993	6.62
700.318	6.56
700.642	6.65
700.966	6.73
701.29	6.8
701.614	6.82
701.938	6.89
702.262	7.01
702.586	7.07
702.91	7.02
703.234	6.93
703.557	7.06
703.881	7.15
704.205	7.16
704.529	7.16
704.852	7.19
705.176	7.17
705.499	7.21
705.823	7.33
706.146	7.35
706.47	7.28
706.793	7.32
707.117	7.34
707.44	7.29
707.763	7.2
708.086	7.27
708.409	7.32
708.733	7.27
709.056	7.22
709.379	7.32
709.702	7.34
710.025	7.41
710.348	7.23
710.671	7.1
710.993	7.2
711.316	7.33
711.639	7.22
711.962	7.34
712.284	7.35
712.607	7.33
712.93	7.33
713.252	7.38
713.575	7.35
713.897	7.44
714.22	7.4
714.542	7.47
714.864	7.28
715.187	7.21
715.509	7.27
715.831	7.31
716.153	7.2
716.475	7.17
716.798	7.21
717.12	7.07
717.442	7.1
717.764	7.12
718.085	7.13
718.407	7.32
718.729	7.3
719.051	7.22
719.373	7.17
719.695	7.28
720.016	7.41
720.338	7.37
720.659	7.36
720.981	7.52
721.302	7.49
721.624	7.46
721.945	7.4
722.267	7.29
722.588	7.09
722.909	6.87
723.231	6.86
723.552	6.79
723.873	6.97
724.194	7.07
724.515	6.93
724.836	6.82
725.157	6.77
725.478	6.48
725.799	6.58
726.12	6.62
726.441	6.47
726.762	6.36
727.083	6.5
727.403	6.42
727.724	6.35
728.045	6.43
728.365	6.53
728.686	6.61
729.006	6.69
729.327	6.72
729.647	6.85
729.967	6.91
730.288	6.9
730.608	6.92
730.928	6.9
731.249	7.11
731.569	7.37
731.889	7.47
732.209	7.66
732.529	7.45
732.849	7.47
733.169	7.4
733.489	7.28
733.809	7.23
734.129	7.24
734.448	7.25
734.768	7.29
735.088	7.28
735.408	7.31
735.727	7.24
736.047	7.46
736.366	7.56
736.686	7.52
737.005	7.71
737.325	7.62
737.644	7.53
737.963	7.45
738.283	7.08
738.602	6.92
738.921	6.9
739.24	7.07
739.56	6.89
739.879	7.1
740.198	7.14
740.517	7.02
740.836	7.04
741.155	7.05
741.473	6.83
741.792	6.81
742.111	6.76
742.43	6.95
742.748	6.76
743.067	6.64
743.386	6.61
743.704	6.46
744.023	6.52
744.341	6.62
744.66	6.69
744.978	6.67
745.297	6.84
745.615	7.03
745.933	7.08
746.252	7.05
746.57	6.86
746.888	7.13
747.206	7.25
747.524	7.01
747.842	7.08
748.16	7.41
748.478	7.72
748.796	7.88
749.114	7.75
749.432	7.75
749.749	7.94
750.067	7.87
750.385	7.8
750.703	7.75
751.02	7.55
751.338	7.46
751.655	7.56
751.973	7.47
752.29	7.59
752.608	7.6
752.925	7.88
753.242	7.89
753.56	7.71
753.877	7.86
754.194	8.13
754.511	7.95
754.828	7.6
755.145	7.45
755.462	7.36
755.779	7.39
756.096	7.5
756.413	7.51
756.73	7.72
757.047	7.67
757.364	7.71
757.68	7.79
757.997	7.74
758.314	7.71
758.63	7.68
758.947	7.39
759.264	7.22
759.58	6.86
759.896	7.18
760.213	7.04
760.529	6.91
760.846	6.87
761.162	6.77
761.478	6.86
761.794	6.79
762.11	6.61
762.426	6.52
762.743	6.6
763.059	6.57
763.375	6.41
763.69	6.59
764.006	6.93
764.322	7.08
764.638	7.18
764.954	7.32
765.27	7.42
765.585	7.4
765.901	7.49
766.216	7.69
766.532	7.43
766.848	7.5
767.163	7.44
767.478	7.64
767.794	7.92
768.109	8.03
768.424	8.2
768.74	8.62
769.055	8.79
769.37	8.83
769.685	8.86
770	9.23
770.315	9.05
770.63	8.71
770.945	8.31
771.26	8.03
771.575	8.09
771.89	7.8
772.205	7.69
772.52	7.65
772.834	7.56
773.149	7.8
773.464	7.83
773.778	8.21
774.093	7.88
774.407	7.84
774.722	7.92
775.036	8.06
775.351	7.69
775.665	7.56
775.979	7.54
776.293	7.43
776.608	7.08
776.922	7.42
777.236	7.31
777.55	8
777.864	8.36
778.178	8.51
778.492	9.08
778.806	8.91
779.12	9.2
779.434	9.4
779.747	9.37
780.061	9.35
780.375	8.9
780.689	9.32
781.002	9.35
781.316	9.36
781.629	9.1
781.943	9.2
782.256	9.15
782.57	8.88
782.883	9.2
783.196	9.02
783.51	8.77
783.823	8.96
784.136	8.7
784.449	8.59
784.762	8.28
785.075	8
785.388	8.14
785.701	8.04
786.014	8.04
786.327	8.1
786.64	8.01
786.953	8.41
787.266	8.1
787.578	8.2
787.891	8.07
788.204	8.14
788.516	8.48
788.829	8.21
789.141	7.95
789.454	7.9
789.766	8.29
790.079	8.38
790.391	8.51
790.703	8.68
791.016	8.73
791.328	8.82
791.64	8.91
791.952	8.75
792.264	8.74
792.576	8.66
792.888	8.83
793.2	8.86
793.512	8.75
793.824	8.84
794.136	8.69
794.448	8.82
794.76	8.74
795.071	8.56
795.383	8.68
795.695	8.84
796.006	8.47
796.318	8.03
796.629	8.35
796.941	8.02
797.252	7.72
797.564	7.94
797.875	7.73
798.186	7.66
798.497	8.11
798.809	8.2
799.12	7.98
799.431	7.73
799.742	7.93
800.053	8.12
800.364	7.81
800.675	7.42
800.986	7.2
801.297	6.91
801.608	6.44
801.918	6.85
802.229	7.19
802.54	7.41
802.851	7.89
803.161	7.56
803.472	7.23
803.782	7.67
804.093	7.13
804.403	7.18
804.714	6.94
805.024	6.91
805.334	6.58
805.645	6.97
805.955	6.84
806.265	7.1
806.575	6.81
806.885	6.76
807.195	7.34
807.505	7.13
807.815	7.67
808.125	8.25
808.435	7.57
808.745	7.74
809.055	7.77
809.365	7.75
809.674	7.86
809.984	8.59
810.294	8.28
810.603	8.74
810.913	8.89
811.222	9.01
811.532	9.41
811.841	9.29
812.151	9.66
812.46	9.58
812.769	9.32
813.079	9.29
813.388	9.58
813.697	9.77
814.006	10.72
814.315	10.42
814.624	10.42
814.933	11.15
815.242	11.24
815.551	10.92
815.86	10.86
816.169	10.68
816.478	10.02
816.786	10.01
817.095	9.79
817.404	9.86
817.712	9.37
818.021	8.76
818.33	9.31
818.638	9.02
818.947	9.19
819.255	9.05
819.563	8.87
819.872	9.17
820.18	8.98
820.488	8.54
820.796	8.97
821.105	8.79
821.413	9
821.721	9.17
822.029	9.32
822.337	9.25
822.645	9.28
822.953	9.3
823.26	9.39
823.568	9.41
823.876	9.45
824.184	9.65
824.491	9.75
824.799	9.79
825.107	9.91
825.414	10.1
825.722	10.26
826.029	10.51
826.337	10.56
826.644	10.62
826.951	10.73
827.259	10.64
827.566	10.89
827.873	10.92
828.18	10.83
828.488	10.89
828.795	11.14
829.102	11.24
829.409	11.62
829.716	11.41
830.023	11.34
830.329	11.41
830.636	11.77
830.943	11.9
831.25	11.9
831.557	11.88
831.863	11.55
832.17	11.46
832.476	11.75
832.783	11.67
833.089	11.8
833.396	12.18
833.702	12.29
834.009	12.33
834.315	12.27
834.621	12.24
834.928	12.36
835.234	12.59
835.54	12.44
835.846	11.88
836.152	12.28
836.458	12.36
836.764	12.05
837.07	11.39
837.376	11.09
837.682	10.89
837.988	10.85
838.293	10.85
838.599	10.44
838.905	9.2
839.211	9.08
839.516	8.72
839.822	8.15
840.127	7.56
840.433	7.01
840.738	6.54
841.044	6.56
841.349	6.83
841.654	5.36
841.959	5.11
842.265	5.49
842.57	5.1
842.875	4.33
843.18	4.62
843.485	4.6
843.79	5.68
844.095	5.88
844.4	5.86
844.705	4.94
845.01	5.81
845.315	7.07
845.619	7
845.924	7.51
846.229	7.16
846.533	7.05
846.838	7.66
847.142	6.76
847.447	5.92
847.751	4.34
848.056	4.72
848.36	4.84
848.664	5.85
848.969	5.39
849.273	4.99
849.577	5.98
849.881	5.01
850.185	4.28
850.489	3.67
850.794	1.43
851.097	2.88
851.401	2.42
851.705	-0.33
852.009	-0.79
852.313	-1.43
852.617	0.13
852.92	1.45
853.224	1.26
853.528	2.39
853.831	3.1
854.135	3.86
854.438	3.64
854.742	5.17
855.045	4.36
855.349	4.72
855.652	6.64
855.955	4.89
856.259	6.36
856.562	5.88
856.865	6.81
857.168	8.75
857.471	9.4
857.774	11.14
858.077	14.23
858.38	16.96
858.683	15.84
858.986	17.68
859.289	15.6
859.592	15.78
859.894	18.03
860.197	16.87
860.5	16.89
860.802	18.86
861.105	17.84
861.407	17.31
861.71	18.28
862.012	17.03
862.315	17.38
862.617	16.46
862.919	15.83
863.222	15.55
863.524	16.23
863.826	17.08
864.128	12.65
864.43	11.32
864.732	9.02
865.034	9.47
865.336	5.89
865.638	8.33
865.94	8.33
866.242	6.99
866.544	6.33
866.846	6.46
867.147	5.16
867.449	4.34
867.751	6.33
868.052	4.63
868.354	5.95
868.655	6.78
868.957	5.89
869.258	6.55
869.56	5.43
869.861	3.54
870.162	2.08
870.463	4.09
870.765	4.7
871.066	5.21
871.367	8.31
871.668	9.32
871.969	8.08
872.27	6.4
872.571	6.12
872.872	7.27
873.173	6.31
873.473	7.53
873.774	9.57
874.075	6.96
874.376	7.93
874.676	8.18
874.977	8.32
875.277	10.38
875.578	10.61
875.878	11.45
876.179	12.45
876.479	12.83
876.78	13.88
877.08	14.47
877.38	14.12
877.68	11.41
877.981	12.07
878.281	11.79
878.581	15.21
