Data from BA57662_Reflection_00007.txt Node
Date: Mon Nov 18 15:34:34 EST 2019
User: vgr7
Spectrometer: USB2G7710
Scans to average: 3
Trigger mode: 4
Integration Time (sec): 2.000000E-2
Electric dark correction enabled: true
Boxcar width: 10
XAxis mode: Wavelengths
Number of Pixels in Spectrum: 2048
>>>>>Begin Spectral Data<<<<<
177.721	43.9
178.105	59.43
178.488	94.97
178.871	198.02
179.254	232.12
179.636	-456.39
180.019	180.16
180.402	170.59
180.785	-8.74
181.168	-85.55
181.55	-182.69
181.933	60.81
182.316	85.55
182.698	62.58
183.081	58.47
183.463	57.05
183.846	72.33
184.228	51.52
184.611	79.51
184.993	79.67
185.376	82.35
185.758	89.76
186.14	194.26
186.522	401.55
186.904	-477.88
187.287	-848.21
187.669	-147.36
188.051	-110.35
188.433	-42.38
188.815	-41.83
189.197	-64.5
189.579	-86.28
189.961	-62.63
190.342	-38.99
190.724	-16.3
191.106	-33.37
191.488	-32.68
191.869	-4.59
192.251	-12.89
192.633	-28.39
193.014	-37.23
193.396	-36.76
193.777	-34.33
194.159	-49.36
194.54	-11.85
194.922	12.12
195.303	20.33
195.684	16.9
196.065	26.35
196.447	49.35
196.828	76.37
197.209	89.72
197.59	83.03
197.971	74.71
198.352	79.79
198.733	63.16
199.114	55.33
199.495	58.79
199.876	44.69
200.257	50.64
200.638	65.24
201.018	77.01
201.399	72.3
201.78	68.99
202.16	64.09
202.541	43.37
202.922	47.19
203.302	42.49
203.683	41.78
204.063	38.99
204.444	19.24
204.824	5.84
205.204	15.25
205.585	18.42
205.965	4.19
206.345	-15.04
206.725	-18.29
207.106	-31.09
207.486	-40.14
207.866	-56.19
208.246	-67.74
208.626	-90.54
209.006	-107.28
209.386	-116.1
209.766	-125.32
210.145	-110.07
210.525	-111.26
210.905	-85.66
211.285	-102.72
211.664	-74.91
212.044	-55.52
212.424	-45.39
212.803	-62.64
213.183	-62.68
213.562	-59.33
213.942	-21.07
214.321	-10.72
214.701	-22.01
215.08	-23.97
215.459	-24.9
215.838	-20.2
216.218	-13.36
216.597	8.91
216.976	7.99
217.355	19.46
217.734	33.05
218.113	31.28
218.492	41.87
218.871	40.72
219.25	47.43
219.629	33.05
220.008	23.57
220.387	16.84
220.766	21.45
221.144	-1.59
221.523	-14.73
221.902	-35.97
222.28	-40.47
222.659	-25.45
223.037	-22.14
223.416	-22.2
223.794	-18.87
224.173	-12.02
224.551	-13.19
224.929	-7.77
225.308	-9.76
225.686	-11.29
226.064	-13.08
226.442	-12.22
226.821	-9.53
227.199	-10.25
227.577	-9.87
227.955	-8.68
228.333	-6.22
228.711	-4.11
229.089	2.41
229.467	4.48
229.845	3.28
230.222	3.7
230.6	2.44
230.978	2.61
231.356	4.37
231.733	6.42
232.111	7.22
232.488	9.01
232.866	9.08
233.243	9.03
233.621	7.49
233.998	8.03
234.376	6.1
234.753	6.17
235.13	6.38
235.508	6.99
235.885	7.41
236.262	5.71
236.639	3.81
237.016	3.4
237.393	4.87
237.77	6.76
238.147	6.31
238.524	7.12
238.901	8.13
239.278	8.37
239.655	7.93
240.032	7.45
240.409	6.37
240.785	5.99
241.162	6.16
241.539	6.21
241.915	6.01
242.292	6.25
242.668	6.11
243.045	6.14
243.421	6.06
243.798	6.22
244.174	6.15
244.551	6.25
244.927	6.04
245.303	5.72
245.679	5.58
246.056	5.62
246.432	5.49
246.808	5.39
247.184	4.8
247.56	4.7
247.936	4.54
248.312	4.82
248.688	4.77
249.064	4.86
249.44	4.75
249.815	4.86
250.191	5.02
250.567	4.96
250.943	4.8
251.318	4.72
251.694	4.37
252.069	4.46
252.445	4.49
252.82	4.74
253.196	4.59
253.571	4.66
253.947	4.65
254.322	4.34
254.697	4.32
255.073	4.33
255.448	4.04
255.823	3.98
256.198	4.05
256.573	4.03
256.948	3.91
257.323	3.94
257.698	3.79
258.073	3.69
258.448	3.61
258.823	3.63
259.198	3.58
259.573	3.59
259.948	3.6
260.322	3.68
260.697	3.36
261.072	3.33
261.446	3.15
261.821	3.12
262.195	3.23
262.57	3.04
262.944	3.17
263.319	3.44
263.693	3.41
264.067	3.39
264.442	3.44
264.816	3.44
265.19	3.53
265.564	3.52
265.938	3.43
266.313	3.65
266.687	3.59
267.061	3.68
267.435	3.54
267.809	3.53
268.183	3.42
268.556	3.48
268.93	3.75
269.304	3.88
269.678	4.1
270.051	3.98
270.425	4.09
270.799	3.99
271.172	3.84
271.546	3.85
271.919	3.69
272.293	3.65
272.666	3.72
273.04	3.67
273.413	3.66
273.787	3.71
274.16	3.52
274.533	3.5
274.906	3.52
275.279	3.57
275.653	3.39
276.026	3.44
276.399	3.52
276.772	3.31
277.145	3.13
277.518	2.93
277.891	3.18
278.263	3
278.636	3.02
279.009	2.92
279.382	2.98
279.755	3.12
280.127	3.13
280.5	3.1
280.872	3.09
281.245	3.03
281.617	3.2
281.99	3.52
282.362	3.46
282.735	3.4
283.107	3.38
283.479	3.58
283.852	3.38
284.224	3.39
284.596	3.5
284.968	3.61
285.34	3.73
285.713	3.59
286.085	3.73
286.457	3.88
286.829	3.92
287.201	3.94
287.572	3.75
287.944	3.63
288.316	3.61
288.688	3.64
289.06	3.69
289.431	3.57
289.803	3.32
290.175	3.44
290.546	3.54
290.918	3.56
291.289	3.44
291.661	3.62
292.032	3.75
292.403	3.76
292.775	3.89
293.146	3.71
293.517	3.69
293.889	3.79
294.26	3.65
294.631	3.68
295.002	3.72
295.373	3.83
295.744	3.92
296.115	3.95
296.486	3.93
296.857	3.98
297.228	3.96
297.599	3.93
297.97	3.92
298.34	3.94
298.711	4
299.082	4.04
299.452	4.14
299.823	4.08
300.194	4.13
300.564	4
300.935	4.03
301.305	4.04
301.676	4.08
302.046	4.21
302.416	4.26
302.787	4.29
303.157	4.31
303.527	4.34
303.897	4.33
304.267	4.46
304.637	4.53
305.008	4.53
305.378	4.7
305.748	4.65
306.117	4.43
306.487	4.54
306.857	4.59
307.227	4.47
307.597	4.32
307.967	4.32
308.336	4.31
308.706	4.44
309.076	4.56
309.445	4.33
309.815	4.31
310.184	4.24
310.554	4.25
310.923	4.25
311.293	4.3
311.662	4.34
312.031	4.23
312.401	4.17
312.77	4.26
313.139	4.18
313.508	4.21
313.877	4.38
314.246	4.37
314.616	4.37
314.985	4.28
315.353	4.42
315.722	4.46
316.091	4.42
316.46	4.33
316.829	4.22
317.198	4.39
317.567	4.31
317.935	4.32
318.304	4.21
318.672	4.18
319.041	4.29
319.41	4.28
319.778	4.47
320.147	4.53
320.515	4.54
320.883	4.6
321.252	4.8
321.62	4.85
321.988	4.87
322.357	4.9
322.725	5.09
323.093	5.17
323.461	5.11
323.829	5.32
324.197	5.4
324.565	5.55
324.933	5.63
325.301	5.64
325.669	5.72
326.037	5.85
326.405	5.98
326.772	5.92
327.14	6.08
327.508	6
327.875	6.05
328.243	6.1
328.61	6.2
328.978	6.27
329.346	6.33
329.713	6.19
330.08	6.22
330.448	6.16
330.815	6.04
331.182	6.18
331.55	6.22
331.917	6.32
332.284	6.36
332.651	6.31
333.018	6.42
333.385	6.55
333.752	6.59
334.119	6.61
334.486	6.72
334.853	6.62
335.22	6.65
335.587	6.77
335.954	6.81
336.32	6.73
336.687	6.72
337.054	6.76
337.42	6.95
337.787	7.13
338.153	7.22
338.52	7.29
338.886	7.2
339.253	7.17
339.619	7.11
339.986	7.04
340.352	7.17
340.718	7.18
341.084	7.1
341.451	7.22
341.817	7.3
342.183	7.26
342.549	7.29
342.915	7.33
343.281	7.29
343.647	7.25
344.013	7.34
344.379	7.21
344.745	7.18
345.11	7.2
345.476	7.08
345.842	6.97
346.208	7.04
346.573	7.17
346.939	7.22
347.304	7.25
347.67	7.33
348.035	7.3
348.401	7.28
348.766	7.26
349.132	7.22
349.497	7.2
349.862	7.23
350.228	7.2
350.593	7.16
350.958	7.14
351.323	7.3
351.688	7.37
352.053	7.5
352.418	7.59
352.783	7.58
353.148	7.61
353.513	7.67
353.878	7.65
354.243	7.58
354.608	7.58
354.972	7.68
355.337	7.63
355.702	7.66
356.066	7.73
356.431	7.72
356.795	7.69
357.16	7.62
357.524	7.55
357.889	7.53
358.253	7.63
358.618	7.67
358.982	7.55
359.346	7.49
359.71	7.43
360.075	7.41
360.439	7.41
360.803	7.32
361.167	7.36
361.531	7.34
361.895	7.32
362.259	7.29
362.623	7.3
362.987	7.35
363.351	7.33
363.714	7.32
364.078	7.32
364.442	7.25
364.806	7.26
365.169	7.31
365.533	7.28
365.896	7.27
366.26	7.14
366.623	7.15
366.987	7.1
367.35	7.06
367.714	6.98
368.077	6.87
368.44	6.95
368.803	6.96
369.167	6.91
369.53	6.85
369.893	6.86
370.256	6.78
370.619	6.71
370.982	6.59
371.345	6.48
371.708	6.49
372.071	6.5
372.434	6.43
372.797	6.38
373.159	6.36
373.522	6.26
373.885	6.33
374.247	6.3
374.61	6.29
374.973	6.24
375.335	6.22
375.698	6.25
376.06	6.23
376.423	6.14
376.785	6.14
377.147	6.14
377.51	6.11
377.872	6.09
378.234	6.05
378.596	6.1
378.958	6.09
379.321	6.02
379.683	6
380.045	6.04
380.407	6.02
380.769	5.98
381.13	5.91
381.492	5.82
381.854	5.78
382.216	5.76
382.578	5.74
382.939	5.72
383.301	5.65
383.663	5.66
384.024	5.6
384.386	5.62
384.747	5.61
385.109	5.58
385.47	5.5
385.832	5.49
386.193	5.43
386.554	5.36
386.916	5.32
387.277	5.25
387.638	5.25
387.999	5.17
388.36	5.17
388.721	5.18
389.082	5.17
389.443	5.1
389.804	5.09
390.165	5.08
390.526	5.03
390.887	5.01
391.248	4.94
391.609	4.95
391.969	4.85
392.33	4.83
392.691	4.78
393.051	4.72
393.412	4.7
393.772	4.65
394.133	4.67
394.493	4.63
394.854	4.58
395.214	4.49
395.574	4.48
395.935	4.43
396.295	4.4
396.655	4.35
397.015	4.33
397.376	4.3
397.736	4.28
398.096	4.24
398.456	4.24
398.816	4.25
399.176	4.21
399.535	4.22
399.895	4.15
400.255	4.1
400.615	4.12
400.975	4.1
401.334	4.07
401.694	4.02
402.054	4.03
402.413	4.05
402.773	4.02
403.132	4.02
403.492	4.01
403.851	3.98
404.211	3.99
404.57	3.97
404.929	3.94
405.288	3.92
405.648	3.89
406.007	3.88
406.366	3.83
406.725	3.83
407.084	3.86
407.443	3.82
407.802	3.82
408.161	3.79
408.52	3.76
408.879	3.76
409.238	3.75
409.596	3.75
409.955	3.73
410.314	3.75
410.673	3.72
411.031	3.7
411.39	3.7
411.748	3.68
412.107	3.65
412.465	3.63
412.824	3.59
413.182	3.57
413.54	3.53
413.899	3.52
414.257	3.49
414.615	3.46
414.974	3.49
415.332	3.5
415.69	3.48
416.048	3.46
416.406	3.46
416.764	3.43
417.122	3.44
417.48	3.41
417.838	3.4
418.195	3.39
418.553	3.36
418.911	3.35
419.269	3.35
419.626	3.33
419.984	3.33
420.342	3.34
420.699	3.35
421.057	3.35
421.414	3.33
421.772	3.3
422.129	3.29
422.486	3.27
422.844	3.26
423.201	3.25
423.558	3.26
423.915	3.25
424.273	3.26
424.63	3.24
424.987	3.24
425.344	3.23
425.701	3.22
426.058	3.23
426.415	3.22
426.772	3.2
427.128	3.19
427.485	3.19
427.842	3.18
428.199	3.17
428.555	3.14
428.912	3.17
429.269	3.2
429.625	3.19
429.982	3.19
430.338	3.2
430.695	3.19
431.051	3.17
431.407	3.16
431.764	3.13
432.12	3.13
432.476	3.13
432.832	3.12
433.189	3.14
433.545	3.12
433.901	3.11
434.257	3.11
434.613	3.12
434.969	3.13
435.325	3.12
435.681	3.11
436.036	3.13
436.392	3.12
436.748	3.09
437.104	3.07
437.459	3.06
437.815	3.06
438.171	3.06
438.526	3.06
438.882	3.06
439.237	3.06
439.593	3.06
439.948	3.05
440.304	3.04
440.659	3.03
441.014	3.02
441.369	3.01
441.725	3.02
442.08	3.02
442.435	2.99
442.79	2.98
443.145	2.98
443.5	2.98
443.855	2.96
444.21	2.97
444.565	2.98
444.92	2.99
445.275	2.97
445.629	2.99
445.984	2.97
446.339	2.96
446.693	2.94
447.048	2.94
447.403	2.93
447.757	2.93
448.112	2.92
448.466	2.92
448.82	2.94
449.175	2.93
449.529	2.92
449.883	2.93
450.238	2.92
450.592	2.92
450.946	2.89
451.3	2.89
451.654	2.88
452.008	2.86
452.362	2.83
452.716	2.82
453.07	2.81
453.424	2.8
453.778	2.82
454.132	2.84
454.486	2.83
454.839	2.84
455.193	2.84
455.547	2.85
455.9	2.84
456.254	2.84
456.607	2.84
456.961	2.85
457.314	2.84
457.668	2.85
458.021	2.85
458.375	2.85
458.728	2.86
459.081	2.87
459.434	2.87
459.787	2.88
460.141	2.89
460.494	2.89
460.847	2.92
461.2	2.9
461.553	2.89
461.906	2.9
462.259	2.9
462.611	2.91
462.964	2.9
463.317	2.9
463.67	2.89
464.022	2.9
464.375	2.89
464.728	2.91
465.08	2.89
465.433	2.89
465.785	2.9
466.138	2.92
466.49	2.92
466.843	2.93
467.195	2.93
467.547	2.95
467.899	2.95
468.252	2.93
468.604	2.96
468.956	2.96
469.308	2.96
469.66	2.96
470.012	2.98
470.364	2.99
470.716	3.01
471.068	3.01
471.42	3.01
471.772	3.03
472.123	3.03
472.475	3.06
472.827	3.07
473.178	3.09
473.53	3.06
473.882	3.07
474.233	3.06
474.585	3.05
474.936	3.03
475.288	3.02
475.639	3.03
475.99	3.01
476.342	3.02
476.693	3.03
477.044	3.04
477.395	3.04
477.746	3.03
478.097	3.03
478.448	3.03
478.8	3.03
479.15	3
479.501	2.99
479.852	2.99
480.203	3
480.554	3.01
480.905	3.01
481.255	3.01
481.606	3.01
481.957	3.02
482.307	3.03
482.658	3.04
483.009	3.03
483.359	3.03
483.709	3.03
484.06	3.03
484.41	3.04
484.761	3.03
485.111	3.03
485.461	3.03
485.811	3.03
486.162	3.03
486.512	3.04
486.862	3.05
487.212	3.04
487.562	3.04
487.912	3.03
488.262	3.03
488.612	3.04
488.961	3.05
489.311	3.05
489.661	3.05
490.011	3.05
490.36	3.05
490.71	3.05
491.06	3.05
491.409	3.05
491.759	3.04
492.108	3.06
492.458	3.06
492.807	3.06
493.157	3.07
493.506	3.09
493.855	3.08
494.204	3.1
494.554	3.11
494.903	3.1
495.252	3.11
495.601	3.12
495.95	3.12
496.299	3.12
496.648	3.14
496.997	3.14
497.346	3.17
497.695	3.19
498.043	3.21
498.392	3.23
498.741	3.25
499.09	3.27
499.438	3.28
499.787	3.31
500.135	3.32
500.484	3.33
500.832	3.35
501.181	3.37
501.529	3.37
501.878	3.4
502.226	3.43
502.574	3.46
502.923	3.47
503.271	3.49
503.619	3.52
503.967	3.54
504.315	3.56
504.663	3.55
505.011	3.58
505.359	3.6
505.707	3.61
506.055	3.62
506.403	3.66
506.751	3.7
507.098	3.7
507.446	3.73
507.794	3.74
508.141	3.76
508.489	3.79
508.837	3.83
509.184	3.86
509.531	3.9
509.879	3.94
510.226	3.98
510.574	4
510.921	4.01
511.268	4.02
511.616	4.05
511.963	4.08
512.31	4.1
512.657	4.13
513.004	4.16
513.351	4.19
513.698	4.2
514.045	4.22
514.392	4.27
514.739	4.31
515.086	4.35
515.432	4.38
515.779	4.41
516.126	4.44
516.473	4.46
516.819	4.47
517.166	4.49
517.512	4.52
517.859	4.56
518.205	4.59
518.552	4.65
518.898	4.68
519.245	4.71
519.591	4.75
519.937	4.78
520.283	4.82
520.629	4.86
520.976	4.9
521.322	4.95
521.668	4.97
522.014	5.01
522.36	5.06
522.706	5.11
523.052	5.16
523.398	5.24
523.743	5.28
524.089	5.36
524.435	5.43
524.781	5.51
525.126	5.58
525.472	5.63
525.817	5.68
526.163	5.74
526.509	5.79
526.854	5.84
527.199	5.89
527.545	5.95
527.89	6.01
528.235	6.06
528.581	6.12
528.926	6.2
529.271	6.26
529.616	6.33
529.961	6.4
530.306	6.46
530.651	6.52
530.996	6.6
531.341	6.69
531.686	6.78
532.031	6.86
532.376	6.96
532.721	7.07
533.065	7.18
533.41	7.29
533.755	7.41
534.099	7.52
534.444	7.64
534.788	7.76
535.133	7.88
535.477	8.03
535.822	8.14
536.166	8.3
536.51	8.46
536.855	8.64
537.199	8.84
537.543	9.01
537.887	9.22
538.231	9.42
538.576	9.63
538.92	9.83
539.264	10.04
539.608	10.22
539.951	10.4
540.295	10.57
540.639	10.75
540.983	10.92
541.327	11.11
541.671	11.29
542.014	11.47
542.358	11.65
542.701	11.83
543.045	12.03
543.389	12.21
543.732	12.39
544.075	12.58
544.419	12.79
544.762	13.02
545.105	13.23
545.449	13.48
545.792	13.71
546.135	13.97
546.478	14.23
546.821	14.54
547.165	14.83
547.508	15.15
547.851	15.47
548.194	15.77
548.536	16.1
548.879	16.42
549.222	16.71
549.565	17.06
549.908	17.41
550.25	17.77
550.593	18.12
550.936	18.45
551.278	18.8
551.621	19.16
551.963	19.57
552.306	19.94
552.648	20.31
552.991	20.71
553.333	21.06
553.675	21.41
554.017	21.69
554.36	22.02
554.702	22.38
555.044	22.68
555.386	23.05
555.728	23.38
556.07	23.76
556.412	24.13
556.754	24.47
557.096	24.84
557.438	25.23
557.78	25.59
558.121	26.04
558.463	26.44
558.805	26.77
559.147	27.1
559.488	27.46
559.83	27.84
560.171	28.11
560.513	28.45
560.854	28.79
561.196	29.15
561.537	29.54
561.878	29.87
562.22	30.27
562.561	30.6
562.902	30.96
563.243	31.24
563.584	31.59
563.925	31.87
564.266	32.11
564.607	32.37
564.948	32.65
565.289	32.86
565.63	33.11
565.971	33.35
566.312	33.55
566.653	33.86
566.993	34.11
567.334	34.42
567.675	34.69
568.015	34.92
568.356	35.18
568.696	35.4
569.037	35.67
569.377	35.91
569.718	36.11
570.058	36.38
570.398	36.64
570.739	36.87
571.079	37.14
571.419	37.44
571.759	37.68
572.099	37.89
572.439	38.13
572.779	38.37
573.119	38.61
573.459	38.87
573.799	39.03
574.139	39.23
574.479	39.45
574.819	39.64
575.158	39.85
575.498	40.07
575.838	40.29
576.177	40.48
576.517	40.71
576.856	40.96
577.196	41.09
577.535	41.32
577.875	41.55
578.214	41.75
578.553	41.88
578.893	42.04
579.232	42.24
579.571	42.43
579.91	42.56
580.25	42.75
580.589	42.86
580.928	43
581.267	43.18
581.606	43.29
581.945	43.43
582.283	43.56
582.622	43.74
582.961	43.86
583.3	43.99
583.639	44.08
583.977	44.23
584.316	44.38
584.654	44.51
584.993	44.54
585.332	44.66
585.67	44.77
586.008	44.93
586.347	45.06
586.685	45.21
587.024	45.38
587.362	45.44
587.7	45.67
588.038	45.8
588.376	45.92
588.715	46.04
589.053	46.14
589.391	46.22
589.729	46.29
590.067	46.37
590.404	46.43
590.742	46.59
591.08	46.61
591.418	46.73
591.756	46.81
592.093	46.94
592.431	47.02
592.769	47.22
593.106	47.3
593.444	47.34
593.781	47.45
594.119	47.58
594.456	47.67
594.793	47.69
595.131	47.78
595.468	47.86
595.805	47.98
596.143	48.07
596.48	48.24
596.817	48.34
597.154	48.4
597.491	48.52
597.828	48.59
598.165	48.71
598.502	48.71
598.839	48.77
599.176	48.87
599.512	48.96
599.849	48.99
600.186	49.07
600.523	49.2
600.859	49.24
601.196	49.23
601.532	49.32
601.869	49.39
602.205	49.41
602.542	49.48
602.878	49.51
603.215	49.52
603.551	49.5
603.887	49.58
604.223	49.6
604.56	49.58
604.896	49.6
605.232	49.63
605.568	49.73
605.904	49.79
606.24	49.86
606.576	49.93
606.912	50.02
607.248	50.05
607.583	50.11
607.919	50.19
608.255	50.28
608.591	50.36
608.926	50.41
609.262	50.53
609.597	50.59
609.933	50.67
610.268	50.76
610.604	50.81
610.939	50.76
611.275	50.93
611.61	50.96
611.945	51.04
612.281	51.14
612.616	51.21
612.951	51.36
613.286	51.42
613.621	51.49
613.956	51.51
614.291	51.63
614.626	51.62
614.961	51.69
615.296	51.82
615.631	51.89
615.966	51.97
616.3	51.98
616.635	51.99
616.97	52.01
617.304	52
617.639	52.08
617.973	52.25
618.308	52.21
618.642	52.33
618.977	52.37
619.311	52.34
619.646	52.4
619.98	52.41
620.314	52.43
620.648	52.38
620.983	52.4
621.317	52.41
621.651	52.51
621.985	52.52
622.319	52.4
622.653	52.39
622.987	52.41
623.321	52.49
623.655	52.53
623.988	52.57
624.322	52.71
624.656	52.78
624.99	52.72
625.323	52.83
625.657	52.84
625.99	52.85
626.324	52.91
626.657	52.92
626.991	52.91
627.324	52.95
627.658	53.11
627.991	53.2
628.324	53.25
628.657	53.27
628.991	53.27
629.324	53.31
629.657	53.37
629.99	53.45
630.323	53.49
630.656	53.6
630.989	53.56
631.322	53.54
631.655	53.55
631.987	53.54
632.32	53.5
632.653	53.58
632.986	53.62
633.318	53.62
633.651	53.67
633.984	53.67
634.316	53.62
634.649	53.56
634.981	53.62
635.313	53.6
635.646	53.58
635.978	53.62
636.31	53.82
636.643	53.83
636.975	53.77
637.307	53.66
637.639	53.53
637.971	53.59
638.303	53.57
638.635	53.56
638.967	53.66
639.299	53.64
639.631	53.63
639.963	53.63
640.295	53.68
640.626	53.73
640.958	53.78
641.29	53.82
641.621	53.77
641.953	53.77
642.285	53.7
642.616	53.81
642.948	53.97
643.279	53.92
643.61	53.9
643.942	53.91
644.273	53.94
644.604	53.99
644.936	54.04
645.267	54.13
645.598	54.21
645.929	54.23
646.26	54.25
646.591	54.29
646.922	54.35
647.253	54.36
647.584	54.34
647.915	54.39
648.245	54.37
648.576	54.4
648.907	54.35
649.238	54.37
649.568	54.46
649.899	54.28
650.229	54.18
650.56	54.28
650.89	54.33
651.221	54.46
651.551	54.44
651.882	54.39
652.212	54.34
652.542	54.3
652.872	54.32
653.203	54.44
653.533	54.39
653.863	54.35
654.193	54.31
654.523	54.37
654.853	54.34
655.183	54.45
655.513	54.44
655.843	54.38
656.172	54.37
656.502	54.27
656.832	54.34
657.162	54.52
657.491	54.49
657.821	54.6
658.15	54.56
658.48	54.64
658.809	54.76
659.139	54.8
659.468	54.91
659.798	54.82
660.127	54.78
660.456	54.79
660.785	54.81
661.115	54.83
661.444	54.84
661.773	54.89
662.102	54.9
662.431	55.03
662.76	55.16
663.089	55.27
663.418	55.27
663.747	55.16
664.076	55.01
664.404	55.02
664.733	54.93
665.062	54.9
665.39	54.81
665.719	54.79
666.048	54.88
666.376	54.65
666.705	54.73
667.033	54.71
667.362	54.65
667.69	54.71
668.018	54.7
668.347	54.72
668.675	54.77
669.003	54.74
669.331	54.68
669.659	54.59
669.987	54.6
670.315	54.59
670.643	54.75
670.971	54.9
671.299	54.92
671.627	54.86
671.955	54.95
672.283	55.07
672.61	55.06
672.938	54.98
673.266	55.15
673.593	55.21
673.921	55.27
674.249	55.46
674.576	55.43
674.904	55.43
675.231	55.29
675.558	55.25
675.886	55.18
676.213	55.21
676.54	55.39
676.867	55.4
677.195	55.34
677.522	55.44
677.849	55.25
678.176	55.4
678.503	55.46
678.83	55.51
679.157	55.49
679.484	55.47
679.81	55.48
680.137	55.5
680.464	55.47
680.791	55.48
681.117	55.46
681.444	55.49
681.771	55.51
682.097	55.67
682.424	55.56
682.75	55.59
683.077	55.62
683.403	55.51
683.729	55.51
684.056	55.74
684.382	55.63
684.708	55.8
685.034	55.64
685.36	55.79
685.686	55.75
686.012	55.78
686.339	55.81
686.664	55.82
686.99	55.81
687.316	55.73
687.642	55.73
687.968	55.69
688.294	55.68
688.619	55.73
688.945	55.57
689.271	55.77
689.596	55.88
689.922	55.88
690.247	55.88
690.573	56
690.898	56
691.224	55.96
691.549	55.89
691.874	55.96
692.2	55.85
692.525	55.97
692.85	56.07
693.175	56.09
693.5	56.05
693.825	56.06
694.15	56.31
694.475	56.39
694.8	56.47
695.125	56.46
695.45	56.44
695.775	56.47
696.099	56.47
696.424	56.54
696.749	56.47
697.073	56.37
697.398	56.43
697.723	56.31
698.047	56.39
698.372	56.38
698.696	56.36
699.02	56.4
699.345	56.32
699.669	56.37
699.993	56.47
700.318	56.49
700.642	56.52
700.966	56.32
701.29	56.12
701.614	56.13
701.938	56.36
702.262	56.49
702.586	56.57
702.91	56.53
703.234	56.53
703.557	56.54
703.881	56.7
704.205	56.6
704.529	56.6
704.852	56.62
705.176	56.73
705.499	56.79
705.823	56.73
706.146	56.8
706.47	56.73
706.793	56.61
707.117	56.92
707.44	56.91
707.763	57.2
708.086	57.24
708.409	57.13
708.733	56.88
709.056	56.86
709.379	57.02
709.702	57.03
710.025	57.12
710.348	57.2
710.671	57.25
710.993	57.4
711.316	57.43
711.639	57.39
711.962	57.44
712.284	57.34
712.607	57.28
712.93	57.36
713.252	57.42
713.575	57.43
713.897	57.11
714.22	57.09
714.542	57.12
714.864	57.31
715.187	57.34
715.509	57.3
715.831	57.46
716.153	57.32
716.475	57.44
716.798	57.34
717.12	57.34
717.442	57.3
717.764	57.14
718.085	57.19
718.407	57.1
718.729	57.11
719.051	57.17
719.373	57.23
719.695	57.24
720.016	57.12
720.338	57.21
720.659	57.26
720.981	57.29
721.302	57.13
721.624	57.02
721.945	57.12
722.267	57.15
722.588	56.78
722.909	56.72
723.231	56.62
723.552	56.33
723.873	56.16
724.194	56.24
724.515	56.42
724.836	56.46
725.157	56.39
725.478	56.38
725.799	56.38
726.12	56.57
726.441	56.39
726.762	56.17
727.083	56.25
727.403	56.22
727.724	56.12
728.045	56.06
728.365	56.2
728.686	55.95
729.006	55.91
729.327	55.97
729.647	56.1
729.967	55.98
730.288	56.3
730.608	56.54
730.928	56.44
731.249	56.47
731.569	56.65
731.889	56.67
732.209	56.54
732.529	56.59
732.849	56.53
733.169	56.4
733.489	56.68
733.809	56.43
734.129	56.52
734.448	56.39
734.768	56.38
735.088	56.29
735.408	56.5
735.727	56.49
736.047	56.54
736.366	56.42
736.686	56.46
737.005	56.42
737.325	56.28
737.644	56.3
737.963	56.03
738.283	55.75
738.602	56.15
738.921	56.49
739.24	56.51
739.56	56.26
739.879	56.5
740.198	56.4
740.517	56.77
740.836	56.57
741.155	57.04
741.473	57.1
741.792	57.15
742.111	57.3
742.43	57.3
742.748	57.15
743.067	57.09
743.386	57.12
743.704	56.91
744.023	56.95
744.341	56.91
744.66	57.15
744.978	57.07
745.297	57.05
745.615	56.79
745.933	57
746.252	57.21
746.57	57.24
746.888	57.39
747.206	56.91
747.524	57.23
747.842	57.06
748.16	57.09
748.478	57.37
748.796	57.47
749.114	57.92
749.432	57.94
749.749	58.24
750.067	58.24
750.385	58.47
750.703	58.69
751.02	58.69
751.338	58.65
751.655	58.84
751.973	58.68
752.29	58.69
752.608	58.41
752.925	58.36
753.242	58.15
753.56	57.98
753.877	58.38
754.194	58.71
754.511	58.61
754.828	58.34
755.145	57.92
755.462	57.74
755.779	57.51
756.096	57.58
756.413	57.61
756.73	57.43
757.047	57.42
757.364	57.03
757.68	57.05
757.997	56.94
758.314	56.87
758.63	56.99
758.947	56.81
759.264	56.74
759.58	56.82
759.896	56.94
760.213	56.77
760.529	56.58
760.846	56.11
761.162	56.29
761.478	56.57
761.794	56.42
762.11	56.42
762.426	56.53
762.743	56.49
763.059	56.53
763.375	56.75
763.69	56.53
764.006	56.77
764.322	57.02
764.638	56.89
764.954	56.96
765.27	56.86
765.585	57.14
765.901	57.33
766.216	57.22
766.532	57.23
766.848	57.44
767.163	57.52
767.478	57.7
767.794	57.52
768.109	57.5
768.424	57.9
768.74	57.82
769.055	57.8
769.37	58.19
769.685	58.03
770	58.13
770.315	58.52
770.63	58.62
770.945	58.42
771.26	58.98
771.575	58.97
771.89	59.27
772.205	58.79
772.52	58.5
772.834	58.89
773.149	59.03
773.464	58.52
773.778	58.64
774.093	58.84
774.407	58.81
774.722	58.82
775.036	58.8
775.351	58.96
775.665	59.06
775.979	58.36
776.293	58.67
776.608	58.61
776.922	58.39
777.236	58.18
777.55	58.2
777.864	58.01
778.178	58.07
778.492	58.18
778.806	58.5
779.12	58.5
779.434	58.33
779.747	58.48
780.061	59.04
780.375	58.86
780.689	58.53
781.002	59.18
781.316	59.44
781.629	59.18
781.943	58.81
782.256	58.49
782.57	58.73
782.883	58.43
783.196	58.25
783.51	58.26
783.823	58.34
784.136	58.15
784.449	58.18
784.762	58.12
785.075	57.49
785.388	57.69
785.701	57.99
786.014	57.81
786.327	57.56
786.64	57.63
786.953	58.13
787.266	58.13
787.578	57.43
787.891	56.99
788.204	57.25
788.516	57.63
788.829	57.76
789.141	58.01
789.454	58.16
789.766	58.01
790.079	58.17
790.391	58.36
790.703	58.19
791.016	58.4
791.328	58.43
791.64	58.31
791.952	58.07
792.264	58.3
792.576	58.03
792.888	58.24
793.2	58.42
793.512	57.96
793.824	58.03
794.136	57.93
794.448	58.96
794.76	59.08
795.071	59.15
795.383	58.97
795.695	58.85
796.006	58.52
796.318	58.95
796.629	58.76
796.941	58.06
797.252	58.41
797.564	58.15
797.875	57.86
798.186	57.81
798.497	58.06
798.809	58.09
799.12	58.81
799.431	58.48
799.742	58.19
800.053	58.06
800.364	58.01
800.675	58.87
800.986	58.49
801.297	58.58
801.608	58.49
801.918	58.24
802.229	58.2
802.54	58.3
802.851	57.96
803.161	57.93
803.472	58.12
803.782	58.47
804.093	58.32
804.403	59.04
804.714	59.48
805.024	60.04
805.334	59.84
805.645	60
805.955	60.24
806.265	60.22
806.575	60.59
806.885	61.25
807.195	61.18
807.505	60.41
807.815	60.05
808.125	59.63
808.435	59.62
808.745	59.7
809.055	59.25
809.365	59.01
809.674	59.37
809.984	59.52
810.294	59.18
810.603	59.54
810.913	59.45
811.222	59.58
811.532	59.15
811.841	59.63
812.151	59.96
812.46	59.27
812.769	59.54
813.079	59.2
813.388	58.3
813.697	58.19
814.006	58.78
814.315	58.83
814.624	59.68
814.933	60.29
815.242	60.67
815.551	61.39
815.86	61.75
816.169	61.02
816.478	61.19
816.786	61.12
817.095	60.82
817.404	60.92
817.712	60.82
818.021	60.87
818.33	60.2
818.638	59.34
818.947	59.94
819.255	59.59
819.563	59.15
819.872	59.58
820.18	58.94
820.488	58.69
820.796	58.85
821.105	58.47
821.413	58.52
821.721	58.49
822.029	58.63
822.337	58.4
822.645	58.46
822.953	58.57
823.26	58.69
823.568	58.76
823.876	58.56
824.184	58.54
824.491	58.42
824.799	58.53
825.107	58.61
825.414	58.46
825.722	58.49
826.029	58.69
826.337	58.6
826.644	59.01
826.951	59.04
827.259	58.89
827.566	59.11
827.873	58.9
828.18	58.92
828.488	58.78
828.795	59.28
829.102	59.48
829.409	59.35
829.716	59.15
830.023	59.05
830.329	59.11
830.636	59.37
830.943	59.53
831.25	59.1
831.557	59
831.863	59.14
832.17	59.58
832.476	59.76
832.783	59.74
833.089	59.44
833.396	59.62
833.702	59.83
834.009	59.71
834.315	60.15
834.621	59.92
834.928	60.21
835.234	59.97
835.54	60.26
835.846	60.44
836.152	61.14
836.458	60.87
836.764	61.04
837.07	60.61
837.376	60.72
837.682	61.37
837.988	61.59
838.293	61.69
838.599	61.61
838.905	61.7
839.211	61.81
839.516	61.93
839.822	61.79
840.127	61.61
840.433	61.54
840.738	61.33
841.044	61.61
841.349	61.36
841.654	61.5
841.959	60.43
842.265	59.61
842.57	58.56
842.875	59.45
843.18	59.47
843.485	59.14
843.79	59.48
844.095	59.02
844.4	59.44
844.705	59.41
845.01	58.96
845.315	59.1
845.619	60.26
845.924	60.64
846.229	61.63
846.533	62.62
846.838	62.1
847.142	62.06
847.447	60.06
847.751	58.26
848.056	59.07
848.36	60.39
848.664	61.75
848.969	61.5
849.273	60
849.577	59.19
849.881	59.56
850.185	59.84
850.489	58.97
850.794	56.82
851.097	56
851.401	55.29
851.705	54.74
852.009	53.82
852.313	51.93
852.617	50.64
852.92	51.74
853.224	52.77
853.528	53.37
853.831	54.2
854.135	55.17
854.438	55.01
854.742	54.64
855.045	53.29
855.349	53.17
855.652	56.24
855.955	58.53
856.259	59.44
856.562	57.14
856.865	59.66
857.168	60.9
857.471	63.07
857.774	62.53
858.077	63.39
858.38	61.53
858.683	62.5
858.986	63.72
859.289	61.98
859.592	62.24
859.894	64.5
860.197	64.63
860.5	63.73
860.802	64.8
861.105	62.83
861.407	62.86
861.71	63.65
862.012	59.93
862.315	57.82
862.617	57.55
862.919	59.06
863.222	57.13
863.524	57.88
863.826	56.4
864.128	57.92
864.43	58.19
864.732	59.5
865.034	59.15
865.336	60.43
865.638	61.23
865.94	60.09
866.242	58.73
866.544	61.04
866.846	64.4
867.147	63.37
867.449	63.79
867.751	66.33
868.052	65.33
868.354	66.55
868.655	68.51
868.957	68.25
869.258	69.11
869.56	68.77
869.861	67.51
870.162	69.85
870.463	69.3
870.765	65.98
871.066	68.46
871.367	71.54
871.668	69.99
871.969	68.51
872.27	70.9
872.571	71.23
872.872	70.77
873.173	70.46
873.473	70.21
873.774	73.92
874.075	73
874.376	76.21
874.676	77.84
874.977	78.51
875.277	77.93
875.578	74.4
875.878	76.51
876.179	77.88
876.479	76.79
876.78	77.68
877.08	81.54
877.38	78.95
877.68	76.49
877.981	77.13
878.281	79.31
878.581	78.74
