Data from BA57663_Reflection_00002.txt Node
Date: Mon Nov 18 15:43:43 EST 2019
User: vgr7
Spectrometer: USB2G7710
Scans to average: 3
Trigger mode: 4
Integration Time (sec): 2.000000E-2
Electric dark correction enabled: true
Boxcar width: 10
XAxis mode: Wavelengths
Number of Pixels in Spectrum: 2048
>>>>>Begin Spectral Data<<<<<
177.721	-491.05
178.105	198.27
178.488	247.85
178.871	149.11
179.254	147.35
179.636	-28.32
180.019	69.53
180.402	110.71
180.785	20.5
181.168	-3.68
181.55	-8.34
181.933	57.01
182.316	81.68
182.698	73.66
183.081	59.16
183.463	73.63
183.846	75.1
184.228	64.03
184.611	88.92
184.993	89.78
185.376	106.82
185.758	115.26
186.14	107.66
186.522	88.79
186.904	84.69
187.287	78.92
187.669	62.2
188.051	50.07
188.433	48
188.815	63.66
189.197	79.46
189.579	123.48
189.961	68.57
190.342	78.5
190.724	254.93
191.106	391.93
191.488	141.16
191.869	-145.28
192.251	504.58
192.633	109.17
193.014	83.71
193.396	132.26
193.777	39.1
194.159	77.05
194.54	321.84
194.922	-391.12
195.303	-310.66
195.684	-148900
196.065	-155.35
196.447	-208.95
196.828	-223.62
197.209	-144.97
197.59	-250.15
197.971	-268.09
198.352	-262.65
198.733	-1401.77
199.114	-2957.55
199.495	-1000.76
199.876	-806.18
200.257	-532.42
200.638	-438.26
201.018	-313.83
201.399	-249.64
201.78	-150.93
202.16	-220.85
202.541	-292.08
202.922	-306.32
203.302	-416.55
203.683	-561.27
204.063	-614.29
204.444	-812.81
204.824	-890.52
205.204	-446.99
205.585	-254.2
205.965	-118.32
206.345	-144.06
206.725	-92.81
207.106	-101.45
207.486	-331.07
207.866	703.52
208.246	300.8
208.626	210.89
209.006	223.93
209.386	180.98
209.766	109.81
210.145	96.57
210.525	94.28
210.905	24.36
211.285	66.89
211.664	176.92
212.044	196.47
212.424	2452.11
212.803	4612.2
213.183	410.7
213.562	382.73
213.942	7621.74
214.321	-890.24
214.701	-492.92
215.08	-1137.29
215.459	-1256.28
215.838	-272.93
216.218	-248.31
216.597	-98.65
216.976	-129.67
217.355	-245.66
217.734	-193.25
218.113	-69.58
218.492	-126.71
218.871	-121.44
219.25	-125.76
219.629	-178.37
220.008	-114.34
220.387	-73.68
220.766	-86.98
221.144	-287.04
221.523	-187.39
221.902	-320.74
222.28	-417.56
222.659	-600.53
223.037	-230.25
223.416	-219.31
223.794	-257.66
224.173	-105.9
224.551	-65.34
224.929	-37.13
225.308	-22.21
225.686	-20.59
226.064	-26.94
226.442	-17.21
226.821	-15.64
227.199	-10.91
227.577	-7.01
227.955	-8.05
228.333	-6.21
228.711	-4.83
229.089	-0.84
229.467	-3.24
229.845	-4.22
230.222	-3.17
230.6	-3.3
230.978	-3.1
231.356	-1.23
231.733	0.51
232.111	2.81
232.488	4.42
232.866	2.34
233.243	4.26
233.621	3.69
233.998	7.27
234.376	5.05
234.753	3.54
235.13	3.48
235.508	2.51
235.885	2.87
236.262	1.39
236.639	0.89
237.016	0.17
237.393	0.96
237.77	1.87
238.147	2.69
238.524	2.74
238.901	3.66
239.278	4.19
239.655	4.54
240.032	4.31
240.409	3.55
240.785	4.2
241.162	4.01
241.539	4.14
241.915	3.72
242.292	3.58
242.668	4.36
243.045	4.34
243.421	4.49
243.798	4.29
244.174	4.75
244.551	4.89
244.927	4.89
245.303	5.15
245.679	5.13
246.056	4.97
246.432	4.98
246.808	4.78
247.184	4.56
247.56	4.43
247.936	4.2
248.312	4.19
248.688	4.17
249.064	4.19
249.44	4.22
249.815	4.25
250.191	4.3
250.567	4.18
250.943	4.14
251.318	4.16
251.694	4.21
252.069	3.98
252.445	3.9
252.82	3.77
253.196	3.93
253.571	4.04
253.947	3.86
254.322	3.91
254.697	3.91
255.073	3.91
255.448	3.65
255.823	3.84
256.198	4.24
256.573	4.26
256.948	4.55
257.323	4.62
257.698	4.4
258.073	4.57
258.448	4.65
258.823	4.55
259.198	4.53
259.573	4.57
259.948	4.57
260.322	4.55
260.697	4.59
261.072	4.4
261.446	4.35
261.821	4.46
262.195	4.64
262.57	4.7
262.944	4.62
263.319	4.86
263.693	4.85
264.067	4.69
264.442	4.76
264.816	4.47
265.19	4.56
265.564	4.91
265.938	4.79
266.313	4.61
266.687	4.84
267.061	5.05
267.435	5.28
267.809	5.22
268.183	5.27
268.556	5.2
268.93	5.27
269.304	5.19
269.678	5.31
270.051	5.11
270.425	5.14
270.799	5.42
271.172	5.4
271.546	5.28
271.919	5.12
272.293	5.13
272.666	5.23
273.04	5.07
273.413	4.85
273.787	4.87
274.16	4.84
274.533	4.78
274.906	4.66
275.279	4.52
275.653	4.56
276.026	4.54
276.399	4.57
276.772	4.45
277.145	4.47
277.518	4.35
277.891	4.37
278.263	4.41
278.636	4.17
279.009	4.17
279.382	4.33
279.755	4.45
280.127	4.45
280.5	4.47
280.872	4.68
281.245	4.53
281.617	4.69
281.99	4.87
282.362	4.85
282.735	4.75
283.107	4.75
283.479	4.87
283.852	4.76
284.224	4.72
284.596	4.76
284.968	4.9
285.34	4.9
285.713	4.9
286.085	4.88
286.457	5.04
286.829	4.98
287.201	5.04
287.572	4.96
287.944	4.81
288.316	4.81
288.688	4.67
289.06	4.84
289.431	4.74
289.803	4.73
290.175	4.75
290.546	4.76
290.918	4.73
291.289	4.64
291.661	4.87
292.032	4.99
292.403	5.03
292.775	4.98
293.146	4.84
293.517	4.9
293.889	4.95
294.26	4.83
294.631	4.93
295.002	4.92
295.373	5.08
295.744	5.18
296.115	5.3
296.486	5.29
296.857	5.31
297.228	5.41
297.599	5.34
297.97	5.36
298.34	5.46
298.711	5.56
299.082	5.56
299.452	5.6
299.823	5.57
300.194	5.58
300.564	5.63
300.935	5.92
301.305	5.89
301.676	5.92
302.046	5.95
302.416	5.95
302.787	5.9
303.157	5.9
303.527	5.99
303.897	5.88
304.267	6.07
304.637	6.23
305.008	6.1
305.378	6.24
305.748	6.37
306.117	6.23
306.487	6.32
306.857	6.53
307.227	6.36
307.597	6.41
307.967	6.56
308.336	6.55
308.706	6.49
309.076	6.62
309.445	6.59
309.815	6.63
310.184	6.67
310.554	6.72
310.923	6.79
311.293	6.66
311.662	6.67
312.031	6.55
312.401	6.5
312.77	6.66
313.139	6.8
313.508	6.76
313.877	6.87
314.246	6.79
314.616	6.66
314.985	6.78
315.353	6.81
315.722	6.7
316.091	6.62
316.46	6.52
316.829	6.53
317.198	6.58
317.567	6.58
317.935	6.42
318.304	6.4
318.672	6.39
319.041	6.63
319.41	6.71
319.778	6.77
320.147	6.65
320.515	6.5
320.883	6.26
321.252	6.27
321.62	6.22
321.988	6.15
322.357	6.21
322.725	6.03
323.093	6.07
323.461	6.17
323.829	6.24
324.197	6.4
324.565	6.3
324.933	6.29
325.301	6.26
325.669	6.35
326.037	6.35
326.405	6.32
326.772	6.32
327.14	6.32
327.508	6.26
327.875	6.2
328.243	6.32
328.61	6.34
328.978	6.4
329.346	6.56
329.713	6.55
330.08	6.49
330.448	6.56
330.815	6.39
331.182	6.32
331.55	6.25
331.917	6.11
332.284	6.15
332.651	6.17
333.018	6.16
333.385	6.21
333.752	6.28
334.119	6.38
334.486	6.21
334.853	6.12
335.22	6.15
335.587	6.24
335.954	6.27
336.32	6.24
336.687	6.07
337.054	5.93
337.42	6.02
337.787	6.06
338.153	6.03
338.52	6.17
338.886	6.04
339.253	5.98
339.619	6.12
339.986	6.06
340.352	6.08
340.718	6.11
341.084	6.08
341.451	6.06
341.817	6.07
342.183	6.07
342.549	6.15
342.915	6.13
343.281	6.04
343.647	5.9
344.013	5.96
344.379	5.97
344.745	6
345.11	6.06
345.476	6.02
345.842	6.06
346.208	6.05
346.573	6.12
346.939	6.25
347.304	6.22
347.67	6.2
348.035	6.16
348.401	6.18
348.766	6.08
349.132	6.09
349.497	6.01
349.862	6.15
350.228	6.19
350.593	6.16
350.958	6.21
351.323	6.37
351.688	6.32
352.053	6.35
352.418	6.36
352.783	6.26
353.148	6.31
353.513	6.29
353.878	6.34
354.243	6.4
354.608	6.38
354.972	6.36
355.337	6.42
355.702	6.47
356.066	6.53
356.431	6.58
356.795	6.56
357.16	6.56
357.524	6.44
357.889	6.41
358.253	6.49
358.618	6.53
358.982	6.46
359.346	6.52
359.71	6.45
360.075	6.51
360.439	6.55
360.803	6.51
361.167	6.52
361.531	6.53
361.895	6.54
362.259	6.51
362.623	6.49
362.987	6.48
363.351	6.45
363.714	6.42
364.078	6.45
364.442	6.44
364.806	6.42
365.169	6.44
365.533	6.4
365.896	6.35
366.26	6.3
366.623	6.26
366.987	6.2
367.35	6.22
367.714	6.18
368.077	6.14
368.44	6.19
368.803	6.2
369.167	6.07
369.53	6.05
369.893	6.05
370.256	6.13
370.619	6.14
370.982	6.1
371.345	6.04
371.708	5.98
372.071	5.94
372.434	5.89
372.797	5.9
373.159	5.92
373.522	5.98
373.885	6.03
374.247	6.12
374.61	6.19
374.973	6.19
375.335	6.19
375.698	6.22
376.06	6.18
376.423	6.15
376.785	6.19
377.147	6.18
377.51	6.18
377.872	6.15
378.234	6.15
378.596	6.2
378.958	6.18
379.321	6.19
379.683	6.25
380.045	6.33
380.407	6.32
380.769	6.32
381.13	6.32
381.492	6.3
381.854	6.28
382.216	6.25
382.578	6.3
382.939	6.25
383.301	6.21
383.663	6.22
384.024	6.23
384.386	6.31
384.747	6.34
385.109	6.36
385.47	6.34
385.832	6.4
386.193	6.39
386.554	6.42
386.916	6.42
387.277	6.42
387.638	6.41
387.999	6.4
388.36	6.36
388.721	6.36
389.082	6.4
389.443	6.39
389.804	6.36
390.165	6.33
390.526	6.36
390.887	6.37
391.248	6.42
391.609	6.45
391.969	6.43
392.33	6.45
392.691	6.43
393.051	6.41
393.412	6.38
393.772	6.38
394.133	6.42
394.493	6.44
394.854	6.42
395.214	6.37
395.574	6.39
395.935	6.41
396.295	6.38
396.655	6.33
397.015	6.29
397.376	6.3
397.736	6.34
398.096	6.37
398.456	6.36
398.816	6.35
399.176	6.34
399.535	6.29
399.895	6.25
400.255	6.27
400.615	6.29
400.975	6.27
401.334	6.24
401.694	6.23
402.054	6.2
402.413	6.21
402.773	6.24
403.132	6.27
403.492	6.26
403.851	6.29
404.211	6.31
404.57	6.37
404.929	6.39
405.288	6.36
405.648	6.34
406.007	6.33
406.366	6.32
406.725	6.33
407.084	6.34
407.443	6.36
407.802	6.37
408.161	6.36
408.52	6.37
408.879	6.4
409.238	6.39
409.596	6.4
409.955	6.39
410.314	6.41
410.673	6.38
411.031	6.38
411.39	6.38
411.748	6.38
412.107	6.38
412.465	6.37
412.824	6.38
413.182	6.35
413.54	6.4
413.899	6.42
414.257	6.44
414.615	6.46
414.974	6.46
415.332	6.47
415.69	6.47
416.048	6.47
416.406	6.46
416.764	6.48
417.122	6.51
417.48	6.5
417.838	6.48
418.195	6.52
418.553	6.54
418.911	6.55
419.269	6.56
419.626	6.56
419.984	6.56
420.342	6.56
420.699	6.59
421.057	6.57
421.414	6.57
421.772	6.57
422.129	6.57
422.486	6.58
422.844	6.6
423.201	6.61
423.558	6.62
423.915	6.62
424.273	6.62
424.63	6.62
424.987	6.63
425.344	6.64
425.701	6.62
426.058	6.62
426.415	6.62
426.772	6.62
427.128	6.61
427.485	6.6
427.842	6.61
428.199	6.62
428.555	6.62
428.912	6.61
429.269	6.61
429.625	6.6
429.982	6.6
430.338	6.58
430.695	6.57
431.051	6.58
431.407	6.57
431.764	6.56
432.12	6.56
432.476	6.56
432.832	6.55
433.189	6.58
433.545	6.6
433.901	6.6
434.257	6.59
434.613	6.62
434.969	6.64
435.325	6.63
435.681	6.63
436.036	6.63
436.392	6.65
436.748	6.64
437.104	6.64
437.459	6.63
437.815	6.62
438.171	6.65
438.526	6.66
438.882	6.67
439.237	6.69
439.593	6.69
439.948	6.69
440.304	6.71
440.659	6.69
441.014	6.68
441.369	6.65
441.725	6.66
442.08	6.64
442.435	6.64
442.79	6.66
443.145	6.67
443.5	6.68
443.855	6.65
444.21	6.66
444.565	6.67
444.92	6.69
445.275	6.68
445.629	6.65
445.984	6.63
446.339	6.63
446.693	6.61
447.048	6.61
447.403	6.61
447.757	6.59
448.112	6.59
448.466	6.6
448.82	6.62
449.175	6.63
449.529	6.63
449.883	6.63
450.238	6.62
450.592	6.6
450.946	6.61
451.3	6.62
451.654	6.61
452.008	6.63
452.362	6.61
452.716	6.61
453.07	6.61
453.424	6.62
453.778	6.62
454.132	6.65
454.486	6.64
454.839	6.64
455.193	6.65
455.547	6.64
455.9	6.64
456.254	6.65
456.607	6.67
456.961	6.7
457.314	6.7
457.668	6.71
458.021	6.71
458.375	6.69
458.728	6.7
459.081	6.7
459.434	6.67
459.787	6.67
460.141	6.68
460.494	6.7
460.847	6.69
461.2	6.68
461.553	6.69
461.906	6.7
462.259	6.71
462.611	6.73
462.964	6.75
463.317	6.77
463.67	6.76
464.022	6.75
464.375	6.72
464.728	6.72
465.08	6.71
465.433	6.73
465.785	6.75
466.138	6.74
466.49	6.75
466.843	6.75
467.195	6.76
467.547	6.78
467.899	6.78
468.252	6.79
468.604	6.79
468.956	6.78
469.308	6.79
469.66	6.77
470.012	6.76
470.364	6.75
470.716	6.72
471.068	6.73
471.42	6.73
471.772	6.75
472.123	6.73
472.475	6.74
472.827	6.74
473.178	6.73
473.53	6.73
473.882	6.71
474.233	6.72
474.585	6.72
474.936	6.71
475.288	6.71
475.639	6.73
475.99	6.77
476.342	6.75
476.693	6.75
477.044	6.76
477.395	6.76
477.746	6.77
478.097	6.76
478.448	6.76
478.8	6.77
479.15	6.76
479.501	6.8
479.852	6.8
480.203	6.82
480.554	6.85
480.905	6.87
481.255	6.9
481.606	6.93
481.957	6.93
482.307	6.95
482.658	6.96
483.009	6.95
483.359	6.96
483.709	6.97
484.06	6.98
484.41	6.99
484.761	7
485.111	7
485.461	7.01
485.811	7.03
486.162	7.03
486.512	7.04
486.862	7.04
487.212	7.04
487.562	7.05
487.912	7.04
488.262	7.05
488.612	7.04
488.961	7.03
489.311	7.04
489.661	7.03
490.011	7.02
490.36	7.03
490.71	7.01
491.06	7.01
491.409	7
491.759	6.99
492.108	6.99
492.458	6.99
492.807	6.99
493.157	6.96
493.506	6.98
493.855	6.97
494.204	6.97
494.554	6.99
494.903	6.96
495.252	6.96
495.601	6.95
495.95	6.95
496.299	6.94
496.648	6.91
496.997	6.93
497.346	6.93
497.695	6.92
498.043	6.92
498.392	6.91
498.741	6.91
499.09	6.9
499.438	6.89
499.787	6.9
500.135	6.92
500.484	6.92
500.832	6.91
501.181	6.9
501.529	6.9
501.878	6.88
502.226	6.88
502.574	6.87
502.923	6.88
503.271	6.89
503.619	6.91
503.967	6.93
504.315	6.92
504.663	6.93
505.011	6.96
505.359	6.98
505.707	7.01
506.055	7.03
506.403	7.06
506.751	7.07
507.098	7.06
507.446	7.07
507.794	7.04
508.141	7.05
508.489	7.06
508.837	7.06
509.184	7.08
509.531	7.12
509.879	7.14
510.226	7.15
510.574	7.14
510.921	7.14
511.268	7.14
511.616	7.15
511.963	7.16
512.31	7.14
512.657	7.14
513.004	7.14
513.351	7.15
513.698	7.16
514.045	7.13
514.392	7.14
514.739	7.14
515.086	7.16
515.432	7.19
515.779	7.2
516.126	7.22
516.473	7.21
516.819	7.18
517.166	7.18
517.512	7.2
517.859	7.22
518.205	7.22
518.552	7.22
518.898	7.21
519.245	7.22
519.591	7.24
519.937	7.22
520.283	7.22
520.629	7.21
520.976	7.21
521.322	7.23
521.668	7.24
522.014	7.27
522.36	7.28
522.706	7.27
523.052	7.28
523.398	7.29
523.743	7.29
524.089	7.31
524.435	7.31
524.781	7.3
525.126	7.33
525.472	7.34
525.817	7.36
526.163	7.37
526.509	7.39
526.854	7.4
527.199	7.41
527.545	7.41
527.89	7.42
528.235	7.42
528.581	7.4
528.926	7.39
529.271	7.38
529.616	7.38
529.961	7.38
530.306	7.38
530.651	7.37
530.996	7.38
531.341	7.38
531.686	7.39
532.031	7.41
532.376	7.4
532.721	7.39
533.065	7.37
533.41	7.38
533.755	7.37
534.099	7.35
534.444	7.35
534.788	7.36
535.133	7.35
535.477	7.36
535.822	7.38
536.166	7.38
536.51	7.38
536.855	7.4
537.199	7.39
537.543	7.42
537.887	7.41
538.231	7.42
538.576	7.43
538.92	7.43
539.264	7.41
539.608	7.41
539.951	7.42
540.295	7.44
540.639	7.44
540.983	7.43
541.327	7.44
541.671	7.45
542.014	7.45
542.358	7.46
542.701	7.44
543.045	7.47
543.389	7.49
543.732	7.52
544.075	7.51
544.419	7.51
544.762	7.49
545.105	7.5
545.449	7.49
545.792	7.47
546.135	7.47
546.478	7.48
546.821	7.49
547.165	7.48
547.508	7.48
547.851	7.5
548.194	7.5
548.536	7.5
548.879	7.51
549.222	7.51
549.565	7.51
549.908	7.54
550.25	7.54
550.593	7.52
550.936	7.5
551.278	7.48
551.621	7.5
551.963	7.51
552.306	7.51
552.648	7.51
552.991	7.55
553.333	7.55
553.675	7.54
554.017	7.51
554.36	7.5
554.702	7.51
555.044	7.52
555.386	7.48
555.728	7.46
556.07	7.47
556.412	7.46
556.754	7.45
557.096	7.41
557.438	7.42
557.78	7.45
558.121	7.46
558.463	7.47
558.805	7.46
559.147	7.48
559.488	7.46
559.83	7.45
560.171	7.46
560.513	7.48
560.854	7.48
561.196	7.48
561.537	7.49
561.878	7.47
562.22	7.43
562.561	7.47
562.902	7.52
563.243	7.51
563.584	7.53
563.925	7.6
564.266	7.62
564.607	7.57
564.948	7.55
565.289	7.56
565.63	7.56
565.971	7.56
566.312	7.54
566.653	7.6
566.993	7.61
567.334	7.6
567.675	7.61
568.015	7.63
568.356	7.63
568.696	7.66
569.037	7.69
569.377	7.71
569.718	7.73
570.058	7.74
570.398	7.74
570.739	7.74
571.079	7.71
571.419	7.72
571.759	7.75
572.099	7.74
572.439	7.73
572.779	7.73
573.119	7.76
573.459	7.78
573.799	7.74
574.139	7.73
574.479	7.75
574.819	7.74
575.158	7.75
575.498	7.76
575.838	7.76
576.177	7.71
576.517	7.73
576.856	7.74
577.196	7.68
577.535	7.72
577.875	7.73
578.214	7.69
578.553	7.72
578.893	7.74
579.232	7.76
579.571	7.77
579.91	7.77
580.25	7.76
580.589	7.73
580.928	7.76
581.267	7.79
581.606	7.8
581.945	7.79
582.283	7.8
582.622	7.79
582.961	7.79
583.3	7.83
583.639	7.83
583.977	7.84
584.316	7.85
584.654	7.83
584.993	7.83
585.332	7.87
585.67	7.84
586.008	7.83
586.347	7.8
586.685	7.79
587.024	7.81
587.362	7.81
587.7	7.84
588.038	7.86
588.376	7.86
588.715	7.86
589.053	7.87
589.391	7.92
589.729	7.92
590.067	7.89
590.404	7.91
590.742	7.94
591.08	7.91
591.418	7.95
591.756	7.96
592.093	7.93
592.431	7.95
592.769	7.96
593.106	7.92
593.444	7.93
593.781	7.98
594.119	8
594.456	7.99
594.793	7.96
595.131	7.92
595.468	7.9
595.805	7.89
596.143	7.89
596.48	7.85
596.817	7.88
597.154	7.89
597.491	7.85
597.828	7.85
598.165	7.85
598.502	7.83
598.839	7.78
599.176	7.8
599.512	7.79
599.849	7.78
600.186	7.8
600.523	7.82
600.859	7.81
601.196	7.81
601.532	7.81
601.869	7.85
602.205	7.91
602.542	7.94
602.878	7.93
603.215	7.92
603.551	7.94
603.887	7.95
604.223	7.95
604.56	7.98
604.896	8
605.232	8.01
605.568	8.04
605.904	8.06
606.24	8.1
606.576	8.04
606.912	8.07
607.248	8.08
607.583	8.09
607.919	8.04
608.255	8.01
608.591	8.03
608.926	8.04
609.262	8.03
609.597	8.06
609.933	8.09
610.268	8.11
610.604	8.09
610.939	8.04
611.275	8.06
611.61	8.04
611.945	8.01
612.281	8.04
612.616	8.05
612.951	8.04
613.286	8.03
613.621	8.14
613.956	8.06
614.291	8.1
614.626	8.13
614.961	8.16
615.296	8.16
615.631	8.15
615.966	8.12
616.3	8.13
616.635	8.08
616.97	8.07
617.304	8.04
617.639	8.03
617.973	8.1
618.308	8.11
618.642	8.12
618.977	8.13
619.311	8.09
619.646	8.1
619.98	8.15
620.314	8.18
620.648	8.15
620.983	8.26
621.317	8.27
621.651	8.24
621.985	8.27
622.319	8.32
622.653	8.32
622.987	8.36
623.321	8.34
623.655	8.33
623.988	8.38
624.322	8.35
624.656	8.36
624.99	8.35
625.323	8.35
625.657	8.35
625.99	8.37
626.324	8.36
626.657	8.36
626.991	8.35
627.324	8.35
627.658	8.38
627.991	8.35
628.324	8.31
628.657	8.32
628.991	8.31
629.324	8.3
629.657	8.28
629.99	8.29
630.323	8.27
630.656	8.3
630.989	8.26
631.322	8.33
631.655	8.35
631.987	8.37
632.32	8.41
632.653	8.41
632.986	8.43
633.318	8.42
633.651	8.45
633.984	8.49
634.316	8.48
634.649	8.44
634.981	8.5
635.313	8.55
635.646	8.56
635.978	8.61
636.31	8.59
636.643	8.62
636.975	8.61
637.307	8.64
637.639	8.65
637.971	8.67
638.303	8.65
638.635	8.63
638.967	8.63
639.299	8.57
639.631	8.61
639.963	8.59
640.295	8.61
640.626	8.56
640.958	8.51
641.29	8.49
641.621	8.5
641.953	8.4
642.285	8.37
642.616	8.38
642.948	8.3
643.279	8.3
643.61	8.37
643.942	8.34
644.273	8.32
644.604	8.36
644.936	8.34
645.267	8.41
645.598	8.41
645.929	8.42
646.26	8.45
646.591	8.44
646.922	8.39
647.253	8.48
647.584	8.43
647.915	8.4
648.245	8.4
648.576	8.46
648.907	8.5
649.238	8.44
649.568	8.48
649.899	8.49
650.229	8.55
650.56	8.45
650.89	8.49
651.221	8.5
651.551	8.45
651.882	8.51
652.212	8.49
652.542	8.51
652.872	8.47
653.203	8.44
653.533	8.47
653.863	8.51
654.193	8.47
654.523	8.51
654.853	8.54
655.183	8.58
655.513	8.5
655.843	8.51
656.172	8.57
656.502	8.59
656.832	8.66
657.162	8.65
657.491	8.69
657.821	8.64
658.15	8.7
658.48	8.69
658.809	8.68
659.139	8.62
659.468	8.6
659.798	8.57
660.127	8.6
660.456	8.54
660.785	8.51
661.115	8.56
661.444	8.58
661.773	8.6
662.102	8.6
662.431	8.62
662.76	8.61
663.089	8.61
663.418	8.56
663.747	8.45
664.076	8.46
664.404	8.41
664.733	8.45
665.062	8.46
665.39	8.44
665.719	8.39
666.048	8.47
666.376	8.52
666.705	8.58
667.033	8.56
667.362	8.65
667.69	8.64
668.018	8.62
668.347	8.59
668.675	8.62
669.003	8.65
669.331	8.69
669.659	8.7
669.987	8.67
670.315	8.73
670.643	8.82
670.971	8.81
671.299	8.89
671.627	8.96
671.955	8.88
672.283	8.96
672.61	9.06
672.938	9.07
673.266	9.05
673.593	9.16
673.921	9.18
674.249	9.14
674.576	9.17
674.904	9.18
675.231	9.24
675.558	9.17
675.886	9.11
676.213	9.01
676.54	9.02
676.867	9.14
677.195	9.1
677.522	9.06
677.849	9.09
678.176	9.01
678.503	8.96
678.83	8.98
679.157	8.92
679.484	8.84
679.81	8.73
680.137	8.79
680.464	8.71
680.791	8.71
681.117	8.72
681.444	8.69
681.771	8.67
682.097	8.69
682.424	8.7
682.75	8.7
683.077	8.71
683.403	8.82
683.729	8.78
684.056	8.78
684.382	8.77
684.708	8.74
685.034	8.78
685.36	8.78
685.686	8.73
686.012	8.76
686.339	8.82
686.664	8.87
686.99	8.86
687.316	8.91
687.642	9
687.968	8.98
688.294	9.05
688.619	9.09
688.945	9.01
689.271	9.03
689.596	9.03
689.922	9.07
690.247	8.85
690.573	8.76
690.898	8.77
691.224	8.79
691.549	8.91
691.874	8.84
692.2	8.93
692.525	8.92
692.85	9.02
693.175	9.05
693.5	9.01
693.825	9.03
694.15	9
694.475	8.94
694.8	9.06
695.125	8.97
695.45	8.88
695.775	8.95
696.099	9.05
696.424	9.06
696.749	9.02
697.073	9.11
697.398	9.1
697.723	9.15
698.047	9.19
698.372	9.09
698.696	9.19
699.02	9.12
699.345	9.19
699.669	9.06
699.993	9.02
700.318	9.13
700.642	9.07
700.966	9.04
701.29	9.15
701.614	9.13
701.938	9.08
702.262	9.25
702.586	9.26
702.91	9.07
703.234	9.09
703.557	9.2
703.881	9.24
704.205	9.42
704.529	9.33
704.852	9.28
705.176	9.31
705.499	9.22
705.823	9.2
706.146	9.26
706.47	9.41
706.793	9.4
707.117	9.27
707.44	9.25
707.763	9.3
708.086	9.11
708.409	9.1
708.733	9.27
709.056	9.2
709.379	9.34
709.702	9.47
710.025	9.36
710.348	9.3
710.671	9.27
710.993	9.26
711.316	9.29
711.639	9.3
711.962	9.32
712.284	9.46
712.607	9.52
712.93	9.37
713.252	9.2
713.575	9.19
713.897	9.34
714.22	9.41
714.542	9.44
714.864	9.43
715.187	9.5
715.509	9.35
715.831	9.26
716.153	9.24
716.475	9.45
716.798	9.65
717.12	9.69
717.442	9.67
717.764	9.51
718.085	9.57
718.407	9.5
718.729	9.61
719.051	9.57
719.373	9.51
719.695	9.54
720.016	9.64
720.338	9.68
720.659	9.46
720.981	9.47
721.302	9.51
721.624	9.5
721.945	9.4
722.267	9.53
722.588	9.45
722.909	9.16
723.231	8.93
723.552	8.81
723.873	8.9
724.194	8.88
724.515	9.12
724.836	9.03
725.157	9.29
725.478	9.17
725.799	9.19
726.12	9.2
726.441	9.3
726.762	9.31
727.083	9.33
727.403	9.57
727.724	9.53
728.045	9.45
728.365	9.31
728.686	9.24
729.006	9.32
729.327	9.45
729.647	9.49
729.967	9.42
730.288	9.4
730.608	9.28
730.928	9.26
731.249	9.05
731.569	9.12
731.889	9.1
732.209	9.05
732.529	9.07
732.849	9.19
733.169	9.3
733.489	9.22
733.809	9.3
734.129	9
734.448	9.06
734.768	9.13
735.088	9.32
735.408	9.35
735.727	9.52
736.047	9.56
736.366	9.6
736.686	9.63
737.005	9.8
737.325	9.94
737.644	10.16
737.963	10.21
738.283	10.08
738.602	9.97
738.921	10.19
739.24	10.28
739.56	10.15
739.879	10.05
740.198	10.21
740.517	10.15
740.836	10.29
741.155	10.17
741.473	10.08
741.792	10.32
742.111	10.28
742.43	10.03
742.748	9.97
743.067	10.01
743.386	10.12
743.704	10.11
744.023	10.18
744.341	10.01
744.66	10.26
744.978	10.2
745.297	10.28
745.615	10.22
745.933	10.2
746.252	10.31
746.57	10.14
746.888	10.03
747.206	10.07
747.524	10.35
747.842	10.41
748.16	10.62
748.478	10.55
748.796	10.73
749.114	11.1
749.432	10.92
749.749	11.05
750.067	10.91
750.385	10.8
750.703	10.64
751.02	10.85
751.338	10.75
751.655	10.84
751.973	10.97
752.29	10.88
752.608	10.72
752.925	10.76
753.242	11.02
753.56	11.24
753.877	11.24
754.194	10.96
754.511	11.24
754.828	10.9
755.145	10.74
755.462	10.83
755.779	10.52
756.096	10.88
756.413	10.9
756.73	11.11
757.047	11.34
757.364	11.39
757.68	11.28
757.997	11.19
758.314	11.19
758.63	10.97
758.947	11.01
759.264	10.97
759.58	10.92
759.896	10.75
760.213	10.62
760.529	10.59
760.846	10.74
761.162	10.62
761.478	10.82
761.794	10.71
762.11	10.56
762.426	10.6
762.743	10.54
763.059	10.41
763.375	10.33
763.69	10.22
764.006	10.39
764.322	10.33
764.638	10.37
764.954	10.6
765.27	10.55
765.585	10.43
765.901	10.67
766.216	10.61
766.532	10.59
766.848	10.61
767.163	10.6
767.478	10.65
767.794	10.47
768.109	10.17
768.424	10.2
768.74	10.33
769.055	10.5
769.37	10.55
769.685	10.71
770	10.87
770.315	10.89
770.63	10.5
770.945	10.54
771.26	10.48
771.575	10.47
771.89	10.78
772.205	11.01
772.52	10.46
772.834	10.4
773.149	10.89
773.464	10.84
773.778	10.92
774.093	10.6
774.407	10.79
774.722	11.42
775.036	11.75
775.351	11.75
775.665	11.27
775.979	11.1
776.293	11.05
776.608	11.06
776.922	11.01
777.236	11.34
777.55	11.22
777.864	11.24
778.178	11.29
778.492	11.06
778.806	10.84
779.12	11.33
779.434	11.19
779.747	11.02
780.061	11.02
780.375	11.05
780.689	11.33
781.002	10.97
781.316	10.52
781.629	10.32
781.943	10.26
782.256	10.52
782.57	10.28
782.883	10.2
783.196	10.07
783.51	10.08
783.823	10.19
784.136	10.67
784.449	11.04
784.762	10.91
785.075	10.87
785.388	11.16
785.701	10.86
786.014	11.51
786.327	11.37
786.64	11.77
786.953	11.98
787.266	12.17
787.578	12.39
787.891	12.85
788.204	12.5
788.516	12.67
788.829	12.93
789.141	13.23
789.454	13.22
789.766	13.55
790.079	13.77
790.391	13.44
790.703	13.34
791.016	12.72
791.328	12.43
791.64	12.73
791.952	12.98
792.264	12.75
792.576	12.26
792.888	12.4
793.2	11.94
793.512	12.14
793.824	11.98
794.136	11.84
794.448	11.7
794.76	11.53
795.071	11.22
795.383	10.69
795.695	10.44
796.006	10.55
796.318	10.18
796.629	10.16
796.941	9.99
797.252	10
797.564	10.77
797.875	10.93
798.186	10.51
798.497	9.94
798.809	10.83
799.12	10.75
799.431	10.73
799.742	11.22
800.053	11.46
800.364	11.23
800.675	11.41
800.986	11.09
801.297	11.5
801.608	11.59
801.918	11.75
802.229	12.51
802.54	12.19
802.851	12.32
803.161	12.13
803.472	12.33
803.782	12.09
804.093	11.99
804.403	12.18
804.714	12.56
805.024	13.08
805.334	12.69
805.645	13.36
805.955	13.05
806.265	13.17
806.575	12.73
806.885	12.93
807.195	12.99
807.505	13.19
807.815	12.99
808.125	13.22
808.435	13.46
808.745	12.69
809.055	13.45
809.365	13.5
809.674	13.58
809.984	14.3
810.294	14.01
810.603	13.83
810.913	14.19
811.222	14.7
811.532	14.92
811.841	15.03
812.151	15.06
812.46	15.17
812.769	14.24
813.079	13.75
813.388	14.11
813.697	14.35
814.006	14.46
814.315	14.71
814.624	14.38
814.933	14.51
815.242	14.85
815.551	14.9
815.86	15.37
816.169	15.24
816.478	14.53
816.786	14.59
817.095	14.96
817.404	14.53
817.712	14.11
818.021	14.32
818.33	14.12
818.638	13.78
818.947	14.23
819.255	14.46
819.563	14.89
819.872	14.5
820.18	14.49
820.488	14.33
820.796	14.48
821.105	14.5
821.413	14.39
821.721	14.27
822.029	14.14
822.337	14
822.645	14.07
822.953	13.98
823.26	14.19
823.568	14.04
823.876	14.15
824.184	14.09
824.491	13.91
824.799	13.83
825.107	13.91
825.414	13.96
825.722	14.09
826.029	13.94
826.337	14.08
826.644	14.06
826.951	14.08
827.259	14.01
827.566	13.92
827.873	13.76
828.18	14.01
828.488	13.87
828.795	13.83
829.102	14.09
829.409	14.32
829.716	13.94
830.023	13.92
830.329	13.4
830.636	13.45
830.943	13.56
831.25	13.59
831.557	13.54
831.863	13.17
832.17	12.93
832.476	13.25
832.783	13.44
833.089	13.34
833.396	13.45
833.702	13.64
834.009	14.01
834.315	14.33
834.621	14.01
834.928	14.3
835.234	14.44
835.54	13.86
835.846	14.03
836.152	14.31
836.458	14.66
836.764	15.14
837.07	15.31
837.376	15.03
837.682	15.68
837.988	15.53
838.293	15.37
838.599	15.19
838.905	14.88
839.211	13.86
839.516	14.2
839.822	14.29
840.127	13.98
840.433	13.77
840.738	13.5
841.044	13.81
841.349	13.06
841.654	12.1
841.959	12.62
842.265	12.45
842.57	12.62
842.875	12.1
843.18	12.49
843.485	13.54
843.79	13.82
844.095	11.75
844.4	12.81
844.705	13.16
845.01	12.37
845.315	12.39
845.619	13.2
845.924	12.54
846.229	12.59
846.533	12.73
846.838	12.09
847.142	11.83
847.447	10.42
847.751	10.46
848.056	9.86
848.36	8.99
848.664	6.92
848.969	6.94
849.273	8.09
849.577	6.94
849.881	5.13
850.185	6.23
850.489	7.9
850.794	6.4
851.097	5.04
851.401	7.46
851.705	6.64
852.009	9.46
852.313	8.32
852.617	8.02
852.92	9.03
853.224	8.6
853.528	10.52
853.831	11.56
854.135	12.42
854.438	12.74
854.742	13.84
855.045	14.98
855.349	14.82
855.652	14.21
855.955	16.12
856.259	14.59
856.562	13.38
856.865	12.62
857.168	11.12
857.471	13.38
857.774	12.67
858.077	12.98
858.38	10.89
858.683	14.09
858.986	15.23
859.289	13.34
859.592	13.48
859.894	13.29
860.197	12.84
860.5	14.55
860.802	16.35
861.105	14.58
861.407	15.72
861.71	16.26
862.012	14.71
862.315	12.41
862.617	14.32
862.919	15.75
863.222	18.44
863.524	21.18
863.826	20.4
864.128	18.11
864.43	18.57
864.732	18.4
865.034	16.94
865.336	14.98
865.638	17.24
865.94	17.28
866.242	16.44
866.544	15.01
866.846	13.54
867.147	13.93
867.449	14.72
867.751	13.82
868.052	15.08
868.354	15.85
868.655	16.32
868.957	14.66
869.258	11.81
869.56	9.41
869.861	5.81
870.162	5.42
870.463	7.68
870.765	8.07
871.066	7.9
871.367	6.44
871.668	5.95
871.969	4.73
872.27	2.41
872.571	2.83
872.872	5
873.173	2.69
873.473	1.54
873.774	3.81
874.075	2.87
874.376	0.19
874.676	0.91
874.977	1.66
875.277	3.71
875.578	4.33
875.878	4.17
876.179	6.77
876.479	6.82
876.78	6.07
877.08	4.85
877.38	3.96
877.68	4.92
877.981	5.87
878.281	5.26
878.581	11.19
