Data from BA57715_Reflection_00004.txt Node
Date: Mon Nov 18 15:25:50 EST 2019
User: vgr7
Spectrometer: USB2G7710
Scans to average: 3
Trigger mode: 4
Integration Time (sec): 2.000000E-2
Electric dark correction enabled: true
Boxcar width: 10
XAxis mode: Wavelengths
Number of Pixels in Spectrum: 2048
>>>>>Begin Spectral Data<<<<<
177.721	26.59
178.105	29.45
178.488	26.86
178.871	3.82
179.254	-43.3
179.636	41.74
180.019	-219.36
180.402	120.83
180.785	74.48
181.168	201.19
181.55	172.61
181.933	103
182.316	74.25
182.698	105.44
183.081	115.46
183.463	129.47
183.846	71.95
184.228	357.03
184.611	132.59
184.993	-1356.79
185.376	-182.19
185.758	-212.68
186.14	-111.58
186.522	-158.65
186.904	376.09
187.287	131.22
187.669	-349.8
188.051	2353.97
188.433	612.08
188.815	1041.8
189.197	-545.99
189.579	-288.65
189.961	-412.47
190.342	-158.98
190.724	-82.28
191.106	-163.43
191.488	-136.93
191.869	-113.72
192.251	-105.43
192.633	-63.82
193.014	-140.87
193.396	-343.49
193.777	-449.91
194.159	1131.11
194.54	-337
194.922	-137.24
195.303	-82.84
195.684	-168.97
196.065	-123.31
196.447	-83.3
196.828	-35.62
197.209	12.99
197.59	24.83
197.971	-37.97
198.352	-26.75
198.733	-35.45
199.114	-11.76
199.495	-27.28
199.876	-39.27
200.257	-43.17
200.638	-51.03
201.018	-39.69
201.399	-42.05
201.78	-52.62
202.16	-63.74
202.541	-103.68
202.922	-143.86
203.302	-264.24
203.683	-183.31
204.063	-207.84
204.444	-287.69
204.824	-334.66
205.204	-328.67
205.585	-229.62
205.965	-185.98
206.345	-246.75
206.725	-407.76
207.106	-463.65
207.486	-584.68
207.866	-2788.89
208.246	1647.33
208.626	-2694.33
209.006	-406.21
209.386	-402.56
209.766	-366.06
210.145	-265.55
210.525	-294.02
210.905	-131.2
211.285	-102.55
211.664	-98.52
212.044	-134.42
212.424	-90.57
212.803	-87.4
213.183	-84.45
213.562	-83.61
213.942	-76.76
214.321	-59.78
214.701	-71.83
215.08	-77.78
215.459	-59.43
215.838	-51.67
216.218	-57.68
216.597	-52.1
216.976	-43.91
217.355	-31.89
217.734	-38.09
218.113	-26.61
218.492	-25.74
218.871	-33.95
219.25	-28.81
219.629	-24.12
220.008	-17.77
220.387	-23.69
220.766	-24.11
221.144	-24.37
221.523	-30.95
221.902	-26.27
222.28	-33.02
222.659	-26
223.037	-16.7
223.416	-38.94
223.794	-33.75
224.173	-33.77
224.551	-22.62
224.929	-30.22
225.308	-29.56
225.686	-15.04
226.064	-14.27
226.442	-12.15
226.821	-13.65
227.199	-17.66
227.577	-15.57
227.955	-15.73
228.333	-12.77
228.711	-9.54
229.089	-10.75
229.467	-12.22
229.845	-15.04
230.222	-11.04
230.6	-11.74
230.978	-12.51
231.356	-6.63
231.733	-7.9
232.111	-7.58
232.488	-7.19
232.866	-7.27
233.243	-5.79
233.621	-5.56
233.998	-3.61
234.376	-3.01
234.753	-1.43
235.13	-1.39
235.508	-0.38
235.885	-1.7
236.262	-3.29
236.639	-3.76
237.016	-2.14
237.393	-0.97
237.77	1.21
238.147	2.57
238.524	2.84
238.901	3.31
239.278	3.53
239.655	4.15
240.032	5.01
240.409	4.58
240.785	4.96
241.162	5
241.539	4.46
241.915	4
242.292	3.45
242.668	3.38
243.045	3.93
243.421	4.19
243.798	4.59
244.174	4.63
244.551	4.66
244.927	4.66
245.303	4.91
245.679	5.03
246.056	4.77
246.432	4.9
246.808	4.78
247.184	4.56
247.56	4.54
247.936	4.62
248.312	4.84
248.688	4.84
249.064	4.66
249.44	4.65
249.815	4.81
250.191	5.11
250.567	5.28
250.943	5.1
251.318	4.89
251.694	4.81
252.069	4.87
252.445	4.76
252.82	4.56
253.196	4.24
253.571	3.93
253.947	3.71
254.322	3.73
254.697	3.7
255.073	3.42
255.448	3.3
255.823	3.28
256.198	3.37
256.573	3.56
256.948	3.96
257.323	4.27
257.698	4.18
258.073	4.23
258.448	4.1
258.823	4.25
259.198	4.2
259.573	4.24
259.948	4.26
260.322	4.37
260.697	4.39
261.072	4.41
261.446	4.46
261.821	4.52
262.195	4.57
262.57	4.72
262.944	4.75
263.319	4.56
263.693	4.51
264.067	4.6
264.442	4.61
264.816	4.32
265.19	4.36
265.564	4.25
265.938	4.14
266.313	4.3
266.687	4.07
267.061	4.07
267.435	4.09
267.809	3.95
268.183	3.95
268.556	3.84
268.93	4.13
269.304	4.18
269.678	4.29
270.051	4.34
270.425	4.32
270.799	4.51
271.172	4.73
271.546	4.64
271.919	4.35
272.293	4.39
272.666	4.52
273.04	4.55
273.413	4.55
273.787	4.64
274.16	4.53
274.533	4.47
274.906	4.43
275.279	4.42
275.653	4.46
276.026	4.42
276.399	4.52
276.772	4.48
277.145	4.44
277.518	4.4
277.891	4.38
278.263	4.2
278.636	4.06
279.009	4.16
279.382	4.31
279.755	4.35
280.127	4.38
280.5	4.35
280.872	4.25
281.245	4.35
281.617	4.49
281.99	4.49
282.362	4.61
282.735	4.53
283.107	4.6
283.479	4.73
283.852	4.7
284.224	4.75
284.596	4.62
284.968	4.71
285.34	4.84
285.713	4.79
286.085	5.03
286.457	5.06
286.829	5.08
287.201	5.04
287.572	5.12
287.944	4.99
288.316	5.02
288.688	5.04
289.06	5.04
289.431	4.82
289.803	4.95
290.175	5
290.546	5.18
290.918	5.05
291.289	4.99
291.661	5.13
292.032	5.14
292.403	5.19
292.775	5.17
293.146	5.06
293.517	5.04
293.889	4.97
294.26	4.95
294.631	4.9
295.002	4.81
295.373	4.78
295.744	4.76
296.115	4.68
296.486	4.64
296.857	4.61
297.228	4.67
297.599	4.55
297.97	4.47
298.34	4.5
298.711	4.57
299.082	4.62
299.452	4.67
299.823	4.72
300.194	4.77
300.564	4.6
300.935	4.69
301.305	4.7
301.676	4.64
302.046	4.55
302.416	4.6
302.787	4.73
303.157	4.82
303.527	4.79
303.897	4.96
304.267	4.99
304.637	4.98
305.008	5.15
305.378	5.24
305.748	5.39
306.117	5.31
306.487	5.36
306.857	5.35
307.227	5.27
307.597	5.25
307.967	5.12
308.336	5.33
308.706	5.27
309.076	5.18
309.445	5.22
309.815	5.27
310.184	5.2
310.554	5.29
310.923	5.18
311.293	5.34
311.662	5.31
312.031	5.22
312.401	5.24
312.77	5.15
313.139	5.11
313.508	5.12
313.877	5.09
314.246	5.08
314.616	5
314.985	5.01
315.353	4.91
315.722	5.1
316.091	4.98
316.46	4.88
316.829	5.01
317.198	4.96
317.567	5.04
317.935	5.1
318.304	5.07
318.672	5.11
319.041	5.09
319.41	5.11
319.778	4.99
320.147	4.95
320.515	4.99
320.883	4.98
321.252	4.94
321.62	5.08
321.988	5.08
322.357	5.2
322.725	5.02
323.093	5.08
323.461	4.94
323.829	4.97
324.197	4.96
324.565	5
324.933	5.01
325.301	5.04
325.669	5.01
326.037	4.94
326.405	4.94
326.772	5.01
327.14	4.96
327.508	5.13
327.875	5.07
328.243	5.03
328.61	4.95
328.978	4.94
329.346	4.82
329.713	4.76
330.08	4.76
330.448	4.84
330.815	4.68
331.182	4.67
331.55	4.64
331.917	4.74
332.284	4.71
332.651	4.66
333.018	4.57
333.385	4.5
333.752	4.5
334.119	4.57
334.486	4.4
334.853	4.38
335.22	4.27
335.587	4.4
335.954	4.47
336.32	4.46
336.687	4.4
337.054	4.5
337.42	4.63
337.787	4.62
338.153	4.65
338.52	4.94
338.886	4.92
339.253	4.87
339.619	4.83
339.986	4.78
340.352	4.9
340.718	4.86
341.084	4.86
341.451	4.95
341.817	5.02
342.183	5.02
342.549	5.09
342.915	5.3
343.281	5.23
343.647	5.2
344.013	5.31
344.379	5.29
344.745	5.21
345.11	5.19
345.476	5.17
345.842	5.17
346.208	5.03
346.573	5.03
346.939	5.14
347.304	5.14
347.67	5.06
348.035	5.05
348.401	5.12
348.766	5.11
349.132	5.01
349.497	4.88
349.862	4.95
350.228	4.84
350.593	4.72
350.958	4.71
351.323	4.67
351.688	4.62
352.053	4.65
352.418	4.76
352.783	4.68
353.148	4.74
353.513	4.8
353.878	4.78
354.243	4.87
354.608	4.88
354.972	4.85
355.337	4.94
355.702	4.91
356.066	4.93
356.431	4.97
356.795	5.09
357.16	5.14
357.524	5.11
357.889	5.2
358.253	5.27
358.618	5.28
358.982	5.26
359.346	5.24
359.71	5.26
360.075	5.2
360.439	5.24
360.803	5.16
361.167	5.1
361.531	5.06
361.895	5.01
362.259	4.99
362.623	5.01
362.987	4.99
363.351	5.04
363.714	5.03
364.078	5.04
364.442	4.91
364.806	4.86
365.169	4.92
365.533	4.91
365.896	4.82
366.26	4.82
366.623	4.85
366.987	4.83
367.35	4.82
367.714	4.86
368.077	4.82
368.44	4.93
368.803	4.94
369.167	4.94
369.53	4.96
369.893	4.96
370.256	4.97
370.619	5.04
370.982	5.01
371.345	5.01
371.708	5.03
372.071	5.07
372.434	5.1
372.797	5.03
373.159	5.03
373.522	5.1
373.885	5.1
374.247	5.07
374.61	5.1
374.973	5.05
375.335	5.02
375.698	5.11
376.06	5.04
376.423	5.03
376.785	5.07
377.147	5.14
377.51	5.1
377.872	5.14
378.234	5.1
378.596	5.08
378.958	5.06
379.321	5.05
379.683	5.1
380.045	5.13
380.407	5.17
380.769	5.17
381.13	5.16
381.492	5.16
381.854	5.22
382.216	5.21
382.578	5.24
382.939	5.24
383.301	5.17
383.663	5.16
384.024	5.19
384.386	5.24
384.747	5.24
385.109	5.27
385.47	5.23
385.832	5.21
386.193	5.24
386.554	5.29
386.916	5.29
387.277	5.29
387.638	5.28
387.999	5.23
388.36	5.26
388.721	5.27
389.082	5.31
389.443	5.27
389.804	5.3
390.165	5.29
390.526	5.29
390.887	5.28
391.248	5.35
391.609	5.36
391.969	5.27
392.33	5.25
392.691	5.24
393.051	5.22
393.412	5.22
393.772	5.2
394.133	5.19
394.493	5.19
394.854	5.17
395.214	5.13
395.574	5.17
395.935	5.14
396.295	5.14
396.655	5.06
397.015	5.08
397.376	5.05
397.736	5.07
398.096	5.08
398.456	5.08
398.816	5.06
399.176	5.03
399.535	5.06
399.895	5
400.255	5.05
400.615	5.06
400.975	5.1
401.334	5.09
401.694	5.07
402.054	5.03
402.413	5.03
402.773	5.01
403.132	5.01
403.492	4.99
403.851	4.98
404.211	5.05
404.57	5.03
404.929	5.07
405.288	5.04
405.648	5.07
406.007	5.08
406.366	5.05
406.725	5.08
407.084	5.09
407.443	5.13
407.802	5.14
408.161	5.1
408.52	5.09
408.879	5.1
409.238	5.1
409.596	5.13
409.955	5.11
410.314	5.14
410.673	5.15
411.031	5.14
411.39	5.14
411.748	5.12
412.107	5.14
412.465	5.11
412.824	5.12
413.182	5.12
413.54	5.1
413.899	5.15
414.257	5.14
414.615	5.11
414.974	5.1
415.332	5.06
415.69	5.07
416.048	5.06
416.406	5.04
416.764	5.04
417.122	5.04
417.48	5.03
417.838	5.02
418.195	5.01
418.553	5
418.911	4.98
419.269	4.99
419.626	4.98
419.984	4.98
420.342	4.99
420.699	4.98
421.057	4.98
421.414	4.97
421.772	4.96
422.129	4.97
422.486	4.98
422.844	4.99
423.201	4.98
423.558	4.96
423.915	4.96
424.273	4.98
424.63	4.96
424.987	4.97
425.344	4.98
425.701	4.97
426.058	4.98
426.415	4.99
426.772	4.97
427.128	4.98
427.485	4.98
427.842	4.94
428.199	4.95
428.555	4.94
428.912	4.95
429.269	4.94
429.625	4.92
429.982	4.91
430.338	4.89
430.695	4.91
431.051	4.92
431.407	4.92
431.764	4.91
432.12	4.91
432.476	4.9
432.832	4.88
433.189	4.89
433.545	4.87
433.901	4.87
434.257	4.87
434.613	4.85
434.969	4.87
435.325	4.88
435.681	4.88
436.036	4.89
436.392	4.88
436.748	4.89
437.104	4.9
437.459	4.91
437.815	4.92
438.171	4.91
438.526	4.92
438.882	4.95
439.237	4.95
439.593	4.97
439.948	4.96
440.304	4.97
440.659	4.95
441.014	4.96
441.369	4.96
441.725	4.97
442.08	4.97
442.435	4.96
442.79	4.97
443.145	4.96
443.5	4.95
443.855	4.95
444.21	4.94
444.565	4.95
444.92	4.95
445.275	4.93
445.629	4.93
445.984	4.93
446.339	4.91
446.693	4.9
447.048	4.9
447.403	4.88
447.757	4.87
448.112	4.89
448.466	4.87
448.82	4.86
449.175	4.86
449.529	4.85
449.883	4.84
450.238	4.83
450.592	4.83
450.946	4.82
451.3	4.81
451.654	4.81
452.008	4.79
452.362	4.78
452.716	4.79
453.07	4.8
453.424	4.77
453.778	4.78
454.132	4.78
454.486	4.78
454.839	4.82
455.193	4.83
455.547	4.84
455.9	4.86
456.254	4.85
456.607	4.85
456.961	4.86
457.314	4.85
457.668	4.85
458.021	4.83
458.375	4.83
458.728	4.85
459.081	4.85
459.434	4.85
459.787	4.83
460.141	4.82
460.494	4.82
460.847	4.83
461.2	4.81
461.553	4.82
461.906	4.82
462.259	4.81
462.611	4.82
462.964	4.82
463.317	4.82
463.67	4.82
464.022	4.8
464.375	4.79
464.728	4.81
465.08	4.83
465.433	4.83
465.785	4.85
466.138	4.85
466.49	4.85
466.843	4.86
467.195	4.89
467.547	4.89
467.899	4.91
468.252	4.91
468.604	4.94
468.956	4.92
469.308	4.9
469.66	4.89
470.012	4.89
470.364	4.88
470.716	4.88
471.068	4.9
471.42	4.92
471.772	4.93
472.123	4.93
472.475	4.92
472.827	4.94
473.178	4.94
473.53	4.96
473.882	4.98
474.233	4.97
474.585	4.95
474.936	4.96
475.288	4.95
475.639	4.96
475.99	4.94
476.342	4.94
476.693	4.93
477.044	4.96
477.395	4.96
477.746	4.97
478.097	4.95
478.448	4.97
478.8	4.97
479.15	4.94
479.501	4.95
479.852	4.95
480.203	4.96
480.554	4.97
480.905	4.98
481.255	4.98
481.606	4.99
481.957	5.02
482.307	5.02
482.658	5.01
483.009	5.01
483.359	5.03
483.709	5.04
484.06	5.06
484.41	5.06
484.761	5.06
485.111	5.07
485.461	5.09
485.811	5.08
486.162	5.09
486.512	5.1
486.862	5.1
487.212	5.1
487.562	5.11
487.912	5.1
488.262	5.1
488.612	5.11
488.961	5.11
489.311	5.11
489.661	5.11
490.011	5.13
490.36	5.13
490.71	5.12
491.06	5.13
491.409	5.13
491.759	5.12
492.108	5.12
492.458	5.12
492.807	5.1
493.157	5.1
493.506	5.09
493.855	5.1
494.204	5.1
494.554	5.11
494.903	5.11
495.252	5.11
495.601	5.11
495.95	5.12
496.299	5.11
496.648	5.11
496.997	5.13
497.346	5.13
497.695	5.13
498.043	5.14
498.392	5.12
498.741	5.14
499.09	5.13
499.438	5.15
499.787	5.14
500.135	5.18
500.484	5.19
500.832	5.21
501.181	5.22
501.529	5.24
501.878	5.26
502.226	5.27
502.574	5.26
502.923	5.26
503.271	5.25
503.619	5.25
503.967	5.25
504.315	5.23
504.663	5.25
505.011	5.25
505.359	5.23
505.707	5.24
506.055	5.23
506.403	5.26
506.751	5.26
507.098	5.26
507.446	5.26
507.794	5.25
508.141	5.26
508.489	5.28
508.837	5.29
509.184	5.29
509.531	5.29
509.879	5.32
510.226	5.33
510.574	5.33
510.921	5.35
511.268	5.35
511.616	5.36
511.963	5.35
512.31	5.38
512.657	5.4
513.004	5.41
513.351	5.45
513.698	5.45
514.045	5.45
514.392	5.46
514.739	5.48
515.086	5.5
515.432	5.5
515.779	5.49
516.126	5.51
516.473	5.52
516.819	5.53
517.166	5.52
517.512	5.51
517.859	5.51
518.205	5.51
518.552	5.53
518.898	5.53
519.245	5.53
519.591	5.5
519.937	5.5
520.283	5.49
520.629	5.48
520.976	5.48
521.322	5.49
521.668	5.5
522.014	5.51
522.36	5.51
522.706	5.52
523.052	5.54
523.398	5.54
523.743	5.54
524.089	5.56
524.435	5.56
524.781	5.59
525.126	5.62
525.472	5.61
525.817	5.63
526.163	5.65
526.509	5.67
526.854	5.7
527.199	5.71
527.545	5.71
527.89	5.71
528.235	5.71
528.581	5.72
528.926	5.73
529.271	5.72
529.616	5.72
529.961	5.72
530.306	5.72
530.651	5.73
530.996	5.73
531.341	5.71
531.686	5.72
532.031	5.72
532.376	5.71
532.721	5.72
533.065	5.71
533.41	5.71
533.755	5.69
534.099	5.68
534.444	5.68
534.788	5.69
535.133	5.68
535.477	5.69
535.822	5.68
536.166	5.68
536.51	5.7
536.855	5.7
537.199	5.72
537.543	5.74
537.887	5.74
538.231	5.73
538.576	5.75
538.92	5.76
539.264	5.76
539.608	5.78
539.951	5.78
540.295	5.78
540.639	5.79
540.983	5.8
541.327	5.82
541.671	5.82
542.014	5.82
542.358	5.83
542.701	5.84
543.045	5.84
543.389	5.85
543.732	5.84
544.075	5.84
544.419	5.83
544.762	5.82
545.105	5.83
545.449	5.85
545.792	5.85
546.135	5.85
546.478	5.86
546.821	5.86
547.165	5.88
547.508	5.88
547.851	5.86
548.194	5.87
548.536	5.86
548.879	5.9
549.222	5.88
549.565	5.87
549.908	5.87
550.25	5.86
550.593	5.85
550.936	5.84
551.278	5.83
551.621	5.85
551.963	5.87
552.306	5.86
552.648	5.87
552.991	5.87
553.333	5.86
553.675	5.86
554.017	5.86
554.36	5.84
554.702	5.87
555.044	5.92
555.386	5.92
555.728	5.91
556.07	5.9
556.412	5.91
556.754	5.93
557.096	5.93
557.438	5.93
557.78	5.91
558.121	5.92
558.463	5.95
558.805	5.91
559.147	5.89
559.488	5.86
559.83	5.84
560.171	5.84
560.513	5.86
560.854	5.87
561.196	5.85
561.537	5.87
561.878	5.81
562.22	5.8
562.561	5.78
562.902	5.79
563.243	5.8
563.584	5.81
563.925	5.82
564.266	5.82
564.607	5.84
564.948	5.89
565.289	5.87
565.63	5.89
565.971	5.9
566.312	5.89
566.653	5.9
566.993	5.89
567.334	5.87
567.675	5.89
568.015	5.87
568.356	5.84
568.696	5.84
569.037	5.89
569.377	5.86
569.718	5.89
570.058	5.91
570.398	5.9
570.739	5.93
571.079	5.94
571.419	5.98
571.759	5.99
572.099	5.95
572.439	5.96
572.779	5.96
573.119	5.99
573.459	6.03
573.799	6.08
574.139	6.1
574.479	6.11
574.819	6.1
575.158	6.09
575.498	6.13
575.838	6.1
576.177	6.07
576.517	6.1
576.856	6.11
577.196	6.09
577.535	6.09
577.875	6.06
578.214	6.04
578.553	6.03
578.893	6.04
579.232	6.07
579.571	6.07
579.91	6.04
580.25	6.04
580.589	6.02
580.928	5.98
581.267	5.97
581.606	5.96
581.945	5.93
582.283	5.93
582.622	5.93
582.961	5.98
583.3	6.02
583.639	6.06
583.977	6.03
584.316	6.02
584.654	5.99
584.993	5.99
585.332	6.02
585.67	6.02
586.008	6.01
586.347	5.98
586.685	5.97
587.024	5.99
587.362	6.03
587.7	6.03
588.038	6.07
588.376	6.07
588.715	6.08
589.053	6.17
589.391	6.17
589.729	6.18
590.067	6.15
590.404	6.16
590.742	6.13
591.08	6.14
591.418	6.15
591.756	6.2
592.093	6.18
592.431	6.18
592.769	6.2
593.106	6.19
593.444	6.18
593.781	6.21
594.119	6.22
594.456	6.14
594.793	6.14
595.131	6.12
595.468	6.12
595.805	6.13
596.143	6.1
596.48	6.08
596.817	6.08
597.154	6.09
597.491	6.04
597.828	6.06
598.165	6.05
598.502	6.04
598.839	5.99
599.176	5.99
599.512	5.97
599.849	5.97
600.186	5.99
600.523	6.02
600.859	6.05
601.196	6.05
601.532	6.06
601.869	6.05
602.205	6.05
602.542	6.08
602.878	6.06
603.215	6.05
603.551	6.07
603.887	6.08
604.223	6.12
604.56	6.15
604.896	6.15
605.232	6.19
605.568	6.18
605.904	6.24
606.24	6.29
606.576	6.29
606.912	6.31
607.248	6.27
607.583	6.3
607.919	6.26
608.255	6.23
608.591	6.26
608.926	6.26
609.262	6.29
609.597	6.26
609.933	6.3
610.268	6.3
610.604	6.33
610.939	6.31
611.275	6.29
611.61	6.32
611.945	6.29
612.281	6.25
612.616	6.28
612.951	6.26
613.286	6.28
613.621	6.31
613.956	6.25
614.291	6.27
614.626	6.27
614.961	6.26
615.296	6.28
615.631	6.29
615.966	6.33
616.3	6.28
616.635	6.28
616.97	6.28
617.304	6.24
617.639	6.25
617.973	6.29
618.308	6.28
618.642	6.24
618.977	6.23
619.311	6.23
619.646	6.21
619.98	6.17
620.314	6.17
620.648	6.2
620.983	6.22
621.317	6.25
621.651	6.24
621.985	6.26
622.319	6.27
622.653	6.26
622.987	6.26
623.321	6.32
623.655	6.31
623.988	6.29
624.322	6.3
624.656	6.28
624.99	6.26
625.323	6.3
625.657	6.28
625.99	6.3
626.324	6.32
626.657	6.36
626.991	6.43
627.324	6.4
627.658	6.38
627.991	6.34
628.324	6.33
628.657	6.31
628.991	6.32
629.324	6.4
629.657	6.4
629.99	6.42
630.323	6.37
630.656	6.4
630.989	6.46
631.322	6.49
631.655	6.48
631.987	6.48
632.32	6.49
632.653	6.52
632.986	6.52
633.318	6.49
633.651	6.53
633.984	6.48
634.316	6.47
634.649	6.45
634.981	6.5
635.313	6.51
635.646	6.52
635.978	6.54
636.31	6.4
636.643	6.37
636.975	6.34
637.307	6.35
637.639	6.32
637.971	6.26
638.303	6.24
638.635	6.22
638.967	6.25
639.299	6.25
639.631	6.21
639.963	6.22
640.295	6.22
640.626	6.18
640.958	6.21
641.29	6.23
641.621	6.21
641.953	6.24
642.285	6.22
642.616	6.25
642.948	6.23
643.279	6.34
643.61	6.41
643.942	6.38
644.273	6.36
644.604	6.41
644.936	6.43
645.267	6.46
645.598	6.5
645.929	6.47
646.26	6.45
646.591	6.47
646.922	6.38
647.253	6.38
647.584	6.4
647.915	6.38
648.245	6.37
648.576	6.43
648.907	6.42
649.238	6.4
649.568	6.39
649.899	6.48
650.229	6.43
650.56	6.38
650.89	6.37
651.221	6.39
651.551	6.33
651.882	6.32
652.212	6.34
652.542	6.3
652.872	6.28
653.203	6.28
653.533	6.34
653.863	6.55
654.193	6.61
654.523	6.59
654.853	6.62
655.183	6.62
655.513	6.6
655.843	6.57
656.172	6.58
656.502	6.55
656.832	6.43
657.162	6.54
657.491	6.51
657.821	6.49
658.15	6.56
658.48	6.56
658.809	6.6
659.139	6.64
659.468	6.7
659.798	6.72
660.127	6.72
660.456	6.76
660.785	6.64
661.115	6.64
661.444	6.66
661.773	6.66
662.102	6.66
662.431	6.72
662.76	6.74
663.089	6.78
663.418	6.83
663.747	6.86
664.076	6.71
664.404	6.75
664.733	6.87
665.062	6.77
665.39	6.85
665.719	6.82
666.048	6.87
666.376	6.8
666.705	6.8
667.033	6.77
667.362	6.74
667.69	6.68
668.018	6.75
668.347	6.77
668.675	6.75
669.003	6.78
669.331	6.73
669.659	6.7
669.987	6.67
670.315	6.68
670.643	6.67
670.971	6.75
671.299	6.81
671.627	6.78
671.955	6.87
672.283	6.87
672.61	6.87
672.938	6.71
673.266	6.77
673.593	6.89
673.921	6.9
674.249	6.91
674.576	6.94
674.904	6.82
675.231	6.83
675.558	6.8
675.886	6.74
676.213	6.72
676.54	6.72
676.867	6.7
677.195	6.69
677.522	6.69
677.849	6.75
678.176	6.7
678.503	6.66
678.83	6.61
679.157	6.62
679.484	6.63
679.81	6.62
680.137	6.64
680.464	6.55
680.791	6.51
681.117	6.48
681.444	6.53
681.771	6.52
682.097	6.44
682.424	6.46
682.75	6.5
683.077	6.51
683.403	6.59
683.729	6.64
684.056	6.61
684.382	6.71
684.708	6.64
685.034	6.6
685.36	6.7
685.686	6.68
686.012	6.66
686.339	6.73
686.664	6.87
686.99	6.9
687.316	6.83
687.642	6.96
687.968	6.96
688.294	6.99
688.619	7.07
688.945	7.1
689.271	7.09
689.596	7.06
689.922	7.13
690.247	7.06
690.573	7
690.898	7.05
691.224	7.03
691.549	7.07
691.874	7.14
692.2	7.01
692.525	7.02
692.85	6.96
693.175	6.85
693.5	6.75
693.825	6.67
694.15	6.77
694.475	6.69
694.8	6.65
695.125	6.6
695.45	6.57
695.775	6.67
696.099	6.72
696.424	6.81
696.749	6.72
697.073	6.75
697.398	6.84
697.723	6.86
698.047	6.78
698.372	6.65
698.696	6.7
699.02	6.81
699.345	6.74
699.669	6.84
699.993	6.84
700.318	6.81
700.642	6.83
700.966	6.8
701.29	6.84
701.614	6.78
701.938	6.76
702.262	6.82
702.586	6.79
702.91	6.67
703.234	6.66
703.557	6.81
703.881	6.79
704.205	6.81
704.529	6.67
704.852	6.7
705.176	6.85
705.499	6.8
705.823	6.67
706.146	6.73
706.47	6.68
706.793	6.8
707.117	6.79
707.44	6.91
707.763	6.92
708.086	6.95
708.409	7.07
708.733	7.14
709.056	7.12
709.379	7.1
709.702	7.23
710.025	7.21
710.348	7.17
710.671	7.22
710.993	7.13
711.316	7.25
711.639	7.27
711.962	7.29
712.284	7.23
712.607	7.29
712.93	7.4
713.252	7.3
713.575	7.34
713.897	7.41
714.22	7.34
714.542	7.41
714.864	7.3
715.187	7.41
715.509	7.44
715.831	7.48
716.153	7.5
716.475	7.36
716.798	7.47
717.12	7.34
717.442	7.29
717.764	7.22
718.085	7.24
718.407	7.23
718.729	7.24
719.051	7.42
719.373	7.34
719.695	7.22
720.016	7.45
720.338	7.42
720.659	7.46
720.981	7.42
721.302	7.3
721.624	7.47
721.945	7.42
722.267	7.54
722.588	7.34
722.909	7.25
723.231	7.39
723.552	7.27
723.873	7.29
724.194	7.36
724.515	7.46
724.836	7.42
725.157	7.58
725.478	7.56
725.799	7.53
726.12	7.54
726.441	7.61
726.762	7.42
727.083	7.2
727.403	7.2
727.724	7.37
728.045	7.55
728.365	7.42
728.686	7.24
729.006	7.15
729.327	7.08
729.647	7.29
729.967	7.23
730.288	7.36
730.608	7.34
730.928	7.39
731.249	7.42
731.569	7.43
731.889	7.32
732.209	7.32
732.529	7.16
732.849	7.28
733.169	7.18
733.489	7.2
733.809	7.36
734.129	7.28
734.448	7.15
734.768	6.98
735.088	7.13
735.408	7.26
735.727	7.27
736.047	7.41
736.366	7.24
736.686	7.23
737.005	6.98
737.325	6.88
737.644	6.66
737.963	6.65
738.283	6.71
738.602	6.66
738.921	6.6
739.24	6.71
739.56	6.64
739.879	6.73
740.198	6.77
740.517	6.82
740.836	6.84
741.155	6.85
741.473	6.83
741.792	6.65
742.111	6.69
742.43	6.47
742.748	6.41
743.067	6.37
743.386	6.42
743.704	6.59
744.023	6.92
744.341	7.04
744.66	7.14
744.978	6.82
745.297	6.93
745.615	7.12
745.933	7.03
746.252	7.27
746.57	7.09
746.888	7.12
747.206	7.18
747.524	7.03
747.842	7.21
748.16	7.23
748.478	7.55
748.796	7.47
749.114	7.76
749.432	7.77
749.749	7.81
750.067	7.62
750.385	7.38
750.703	7.24
751.02	7.29
751.338	7.04
751.655	7.31
751.973	7.31
752.29	7.1
752.608	7.47
752.925	7.37
753.242	7.62
753.56	7.44
753.877	7.3
754.194	7.61
754.511	7.41
754.828	7.26
755.145	6.99
755.462	7.11
755.779	7.02
756.096	7.12
756.413	7.23
756.73	7.6
757.047	7.65
757.364	7.43
757.68	7.26
757.997	7.35
758.314	7.28
758.63	7.31
758.947	7.59
759.264	7.39
759.58	7.36
759.896	7.33
760.213	7.63
760.529	7.69
760.846	7.31
761.162	7.25
761.478	7.5
761.794	7.42
762.11	7.29
762.426	7.42
762.743	7.45
763.059	7.39
763.375	7.36
763.69	7.48
764.006	7.59
764.322	7.72
764.638	7.78
764.954	7.94
765.27	7.96
765.585	7.92
765.901	7.74
766.216	7.78
766.532	7.79
766.848	7.5
767.163	7.42
767.478	7.77
767.794	7.73
768.109	7.5
768.424	7.56
768.74	7.76
769.055	7.83
769.37	7.93
769.685	7.76
770	7.59
770.315	7.67
770.63	7.89
770.945	7.81
771.26	7.92
771.575	7.65
771.89	7.55
772.205	7.38
772.52	7.79
772.834	7.53
773.149	7.85
773.464	8.21
773.778	8.29
774.093	8.02
774.407	8.16
774.722	8.43
775.036	8.57
775.351	8.3
775.665	8.05
775.979	7.69
776.293	7.61
776.608	7.76
776.922	7.7
777.236	7.62
777.55	7.36
777.864	7.25
778.178	7.53
778.492	7.61
778.806	7.55
779.12	7.3
779.434	7.19
779.747	6.95
780.061	6.98
780.375	6.99
780.689	7.21
781.002	7.29
781.316	7.26
781.629	7.3
781.943	7.23
782.256	7.31
782.57	7.63
782.883	7.89
783.196	7.82
783.51	7.92
783.823	7.7
784.136	8.21
784.449	8.1
784.762	8.16
785.075	8.18
785.388	8.28
785.701	8.07
786.014	8.26
786.327	8.06
786.64	8.26
786.953	8.55
787.266	8.73
787.578	8.86
787.891	8.84
788.204	8.88
788.516	8.91
788.829	9.21
789.141	9.16
789.454	9.41
789.766	9.76
790.079	9.62
790.391	9.51
790.703	9.76
791.016	9.89
791.328	9.6
791.64	9.29
791.952	9.4
792.264	9.58
792.576	9.36
792.888	9.26
793.2	8.5
793.512	8.42
793.824	7.78
794.136	7.75
794.448	7.26
794.76	7.38
795.071	8.05
795.383	7.75
795.695	7.45
796.006	6.87
796.318	7.01
796.629	7.16
796.941	7.55
797.252	7.5
797.564	7.56
797.875	7.81
798.186	7.78
798.497	7.73
798.809	7.81
799.12	7.76
799.431	7.56
799.742	8.74
800.053	8.89
800.364	9.23
800.675	9.02
800.986	9
801.297	8.62
801.608	7.85
801.918	7.92
802.229	8.41
802.54	9.04
802.851	8.75
803.161	8.71
803.472	8.1
803.782	8.18
804.093	8.06
804.403	8.16
804.714	7.93
805.024	7.83
805.334	7.59
805.645	7.88
805.955	8.63
806.265	8.07
806.575	7.83
806.885	7.8
807.195	7.63
807.505	8.08
807.815	8.42
808.125	8.6
808.435	8.38
808.745	7.73
809.055	7.76
809.365	7.53
809.674	7.31
809.984	7.72
810.294	7.07
810.603	6.92
810.913	6.89
811.222	7.72
811.532	8.02
811.841	8.39
812.151	8.58
812.46	8.21
812.769	7.99
813.079	7.67
813.388	7.88
813.697	8.19
814.006	8.31
814.315	8.01
814.624	8.11
814.933	7.79
815.242	8.11
815.551	8.34
815.86	8.76
816.169	8.88
816.478	9.14
816.786	9.21
817.095	9.78
817.404	10.02
817.712	9.42
818.021	9.22
818.33	9.3
818.638	8.97
818.947	9.78
819.255	10.07
819.563	10.44
819.872	10.31
820.18	10.61
820.488	10.65
820.796	10.69
821.105	10.71
821.413	10.73
821.721	10.74
822.029	10.59
822.337	10.58
822.645	10.63
822.953	10.59
823.26	10.75
823.568	10.67
823.876	10.56
824.184	10.68
824.491	10.56
824.799	10.65
825.107	10.74
825.414	10.63
825.722	10.53
826.029	10.52
826.337	10.63
826.644	10.52
826.951	10.59
827.259	10.53
827.566	10.53
827.873	10.52
828.18	10.51
828.488	10.52
828.795	10.41
829.102	10.31
829.409	10.29
829.716	10.13
830.023	10.13
830.329	10.25
830.636	10.51
830.943	10.83
831.25	10.75
831.557	10.54
831.863	10.37
832.17	10.34
832.476	10.27
832.783	10.43
833.089	10.39
833.396	10.35
833.702	10.32
834.009	10.39
834.315	10.08
834.621	10.25
834.928	10.71
835.234	10.98
835.54	11.21
835.846	10.91
836.152	10.83
836.458	10.85
836.764	10.51
837.07	10.32
837.376	9.81
837.682	9.58
837.988	9.45
838.293	9.34
838.599	9.09
838.905	8.82
839.211	8.52
839.516	8.42
839.822	8.57
840.127	9.16
840.433	9.04
840.738	9.58
841.044	9.13
841.349	8.32
841.654	7.9
841.959	8.28
842.265	8.7
842.57	8.82
842.875	8.59
843.18	9.32
843.485	8.58
843.79	9.3
844.095	8.74
844.4	9.61
844.705	9.84
845.01	10.76
845.315	10.65
845.619	8.93
845.924	9.62
846.229	9.11
846.533	9.05
846.838	8.77
847.142	8.56
847.447	8.48
847.751	8.75
848.056	7.97
848.36	6.41
848.664	6.12
848.969	6.88
849.273	6.2
849.577	5.64
849.881	5.97
850.185	6.18
850.489	8.19
850.794	7.97
851.097	6.22
851.401	5.44
851.705	5.82
852.009	6.96
852.313	6.06
852.617	4.42
852.92	4.93
853.224	3.84
853.528	5.47
853.831	6.19
854.135	5.56
854.438	5.71
854.742	6.38
855.045	7.19
855.349	6.67
855.652	7.69
855.955	7.96
856.259	7.97
856.562	6.97
856.865	6.97
857.168	8.72
857.471	9.18
857.774	8.22
858.077	7.47
858.38	9.59
858.683	11.19
858.986	13.35
859.289	12.43
859.592	13.79
859.894	12.96
860.197	12.4
860.5	13.51
860.802	13.2
861.105	11.31
861.407	10.83
861.71	10.94
862.012	10.83
862.315	9.86
862.617	8.07
862.919	9.36
863.222	10.22
863.524	8.72
863.826	11.15
864.128	11.25
864.43	13.25
864.732	11.93
865.034	8.84
865.336	7.79
865.638	7.72
865.94	5.92
866.242	6.36
866.544	4.9
866.846	4.67
867.147	6.32
867.449	6.29
867.751	7.68
868.052	7.35
868.354	8.67
868.655	9.51
868.957	10.46
869.258	9.11
869.56	5.99
869.861	3.9
870.162	1.06
870.463	2.68
870.765	2.51
871.066	2.62
871.367	2.32
871.668	3.41
871.969	2.47
872.27	2.3
872.571	2.41
872.872	5.51
873.173	2.55
873.473	0.9
873.774	2.29
874.075	2.87
874.376	1.11
874.676	0.76
874.977	-2.44
875.277	-1.82
875.578	-0.78
875.878	-0.23
876.179	1.96
876.479	4.23
876.78	3.32
877.08	1.52
877.38	0.69
877.68	2.46
877.981	0.45
878.281	0.65
878.581	4.67
