Data from BA57748_Reflection_00005.txt Node
Date: Mon Nov 18 15:55:22 EST 2019
User: vgr7
Spectrometer: USB2G7710
Scans to average: 3
Trigger mode: 4
Integration Time (sec): 2.000000E-2
Electric dark correction enabled: true
Boxcar width: 10
XAxis mode: Wavelengths
Number of Pixels in Spectrum: 2048
>>>>>Begin Spectral Data<<<<<
177.721	-16.08
178.105	197.35
178.488	39.69
178.871	-33.72
179.254	15.82
179.636	-116.54
180.019	-5.51
180.402	113.64
180.785	-24.53
181.168	-123.93
181.55	-53.85
181.933	116.61
182.316	125.97
182.698	115.47
183.081	152.72
183.463	144.62
183.846	328.36
184.228	224.19
184.611	169.87
184.993	336.5
185.376	626.32
185.758	-870.41
186.14	270.89
186.522	391.75
186.904	247.84
187.287	176.24
187.669	240.95
188.051	234.04
188.433	428.36
188.815	324.08
189.197	321.77
189.579	274.67
189.961	347.86
190.342	321.13
190.724	587.52
191.106	407
191.488	-7900
191.869	-1785.35
192.251	7612.2
192.633	1161.58
193.014	433.69
193.396	398.74
193.777	465.23
194.159	479.57
194.54	667.97
194.922	1955.2
195.303	-3991.74
195.684	1668.77
196.065	-1223.44
196.447	22100
196.828	-14480.65
197.209	-13900
197.59	7455.93
197.971	2089.19
198.352	-10008.11
198.733	741.37
199.114	3000.76
199.495	498.32
199.876	859.22
200.257	2189.39
200.638	-531.78
201.018	-615.37
201.399	-271.72
201.78	-113.95
202.16	-69.39
202.541	-24185.71
202.922	328.89
203.302	177.65
203.683	550.26
204.063	49.33
204.444	161.92
204.824	158.58
205.204	137.21
205.585	-82.77
205.965	236.59
206.345	213.99
206.725	375.86
207.106	-1900
207.486	-359.89
207.866	421.17
208.246	-295.72
208.626	-390.07
209.006	-136.14
209.386	434.55
209.766	589.16
210.145	754.28
210.525	1020.35
210.905	-304.09
211.285	-213.29
211.664	-249.75
212.044	-262.04
212.424	-237.6
212.803	-317.49
213.183	-120.25
213.562	-160.28
213.942	-139.56
214.321	-96.33
214.701	-114.9
215.08	-84.16
215.459	-69.18
215.838	-75.01
216.218	-60.07
216.597	-41.29
216.976	-67
217.355	-61.76
217.734	-68.38
218.113	-26.8
218.492	-62.91
218.871	-97.32
219.25	-36.06
219.629	-47.95
220.008	-77.16
220.387	-56.73
220.766	-61.02
221.144	-142.39
221.523	-130.97
221.902	-145.17
222.28	-246
222.659	-237.51
223.037	-194.45
223.416	-302.1
223.794	-269.04
224.173	-201.4
224.551	-177.07
224.929	-128.71
225.308	-78.74
225.686	-63.76
226.064	-65.97
226.442	-50.76
226.821	-31.02
227.199	-34.62
227.577	-38.87
227.955	-33.69
228.333	-34.84
228.711	-27.27
229.089	-16.24
229.467	-17.93
229.845	-16.1
230.222	-11.88
230.6	-12.61
230.978	-6.38
231.356	-3.41
231.733	-1.76
232.111	-0.73
232.488	2.14
232.866	3.95
233.243	4.2
233.621	2.36
233.998	6.13
234.376	6.03
234.753	6.8
235.13	6.55
235.508	10.19
235.885	8.08
236.262	7.53
236.639	8.84
237.016	6.43
237.393	9.44
237.77	9.65
238.147	8.97
238.524	10.08
238.901	8.55
239.278	8.81
239.655	9.54
240.032	9.12
240.409	7.77
240.785	7.61
241.162	7.5
241.539	8.12
241.915	7.38
242.292	7.12
242.668	6.82
243.045	7.25
243.421	6.9
243.798	7.45
244.174	7.47
244.551	7.21
244.927	7.48
245.303	7.48
245.679	7.5
246.056	7.76
246.432	7.99
246.808	8
247.184	7.77
247.56	7.56
247.936	7.23
248.312	7.51
248.688	7.63
249.064	7.69
249.44	7.88
249.815	7.89
250.191	8.29
250.567	8.33
250.943	8.45
251.318	8.62
251.694	8.53
252.069	8.78
252.445	8.87
252.82	8.75
253.196	8.45
253.571	8.13
253.947	7.97
254.322	7.92
254.697	7.96
255.073	7.93
255.448	7.66
255.823	8.08
256.198	7.67
256.573	7.45
256.948	7.68
257.323	7.58
257.698	7.55
258.073	7.22
258.448	7.15
258.823	6.94
259.198	6.77
259.573	6.73
259.948	6.49
260.322	6.6
260.697	6.61
261.072	6.57
261.446	6.66
261.821	6.73
262.195	6.62
262.57	6.46
262.944	6.63
263.319	6.86
263.693	6.69
264.067	6.88
264.442	6.97
264.816	6.84
265.19	6.5
265.564	6.57
265.938	6.57
266.313	6.51
266.687	6.56
267.061	6.65
267.435	6.74
267.809	6.99
268.183	6.7
268.556	6.6
268.93	6.75
269.304	6.82
269.678	6.91
270.051	6.88
270.425	7.12
270.799	6.79
271.172	6.69
271.546	6.85
271.919	6.62
272.293	6.56
272.666	6.52
273.04	6.71
273.413	6.39
273.787	6.55
274.16	6.55
274.533	6.45
274.906	6.38
275.279	6.26
275.653	6.28
276.026	6.38
276.399	6.59
276.772	6.69
277.145	6.74
277.518	6.58
277.891	6.68
278.263	6.47
278.636	6.66
279.009	6.82
279.382	6.82
279.755	6.93
280.127	7.05
280.5	7.05
280.872	7.13
281.245	7.27
281.617	7.24
281.99	7.34
282.362	7.42
282.735	7.37
283.107	7.5
283.479	7.41
283.852	7.34
284.224	7.19
284.596	7.05
284.968	6.98
285.34	6.98
285.713	6.89
286.085	7.02
286.457	7.08
286.829	7.03
287.201	6.93
287.572	6.94
287.944	6.79
288.316	6.84
288.688	6.76
289.06	6.76
289.431	6.84
289.803	6.97
290.175	7.02
290.546	7.21
290.918	7.34
291.289	7.41
291.661	7.58
292.032	7.61
292.403	7.6
292.775	7.69
293.146	7.61
293.517	7.55
293.889	7.62
294.26	7.68
294.631	7.66
295.002	7.76
295.373	7.87
295.744	7.93
296.115	7.95
296.486	7.94
296.857	8
297.228	8.03
297.599	7.92
297.97	8.07
298.34	8.14
298.711	8.01
299.082	8.08
299.452	8.08
299.823	8.17
300.194	8.25
300.564	8.29
300.935	8.4
301.305	8.42
301.676	8.37
302.046	8.28
302.416	8.39
302.787	8.34
303.157	8.31
303.527	8.44
303.897	8.45
304.267	8.57
304.637	8.71
305.008	8.58
305.378	8.52
305.748	8.47
306.117	8.29
306.487	8.28
306.857	8.29
307.227	8.25
307.597	8.32
307.967	8.31
308.336	8.35
308.706	8.36
309.076	8.38
309.445	8.47
309.815	8.5
310.184	8.34
310.554	8.47
310.923	8.43
311.293	8.45
311.662	8.39
312.031	8.37
312.401	8.27
312.77	8.24
313.139	8.28
313.508	8.25
313.877	8.29
314.246	8.29
314.616	8.12
314.985	8.1
315.353	7.95
315.722	8
316.091	7.83
316.46	7.86
316.829	7.87
317.198	7.8
317.567	7.8
317.935	7.8
318.304	7.62
318.672	7.6
319.041	7.48
319.41	7.51
319.778	7.55
320.147	7.67
320.515	7.71
320.883	7.56
321.252	7.8
321.62	7.68
321.988	7.71
322.357	7.73
322.725	7.74
323.093	7.8
323.461	7.65
323.829	7.81
324.197	7.92
324.565	8.24
324.933	8.18
325.301	8.2
325.669	8.34
326.037	8.38
326.405	8.34
326.772	8.48
327.14	8.47
327.508	8.41
327.875	8.26
328.243	8.33
328.61	8.4
328.978	8.13
329.346	8.25
329.713	8.15
330.08	8.28
330.448	8.17
330.815	8.09
331.182	8.21
331.55	8.04
331.917	7.85
332.284	7.74
332.651	7.77
333.018	7.84
333.385	7.8
333.752	7.9
334.119	7.93
334.486	7.77
334.853	7.87
335.22	7.83
335.587	7.87
335.954	7.86
336.32	7.93
336.687	7.86
337.054	7.8
337.42	8.01
337.787	8.01
338.153	8.02
338.52	8.05
338.886	7.79
339.253	7.8
339.619	7.85
339.986	7.68
340.352	7.72
340.718	7.62
341.084	7.6
341.451	7.6
341.817	7.63
342.183	7.62
342.549	7.56
342.915	7.57
343.281	7.63
343.647	7.53
344.013	7.47
344.379	7.54
344.745	7.56
345.11	7.44
345.476	7.43
345.842	7.48
346.208	7.58
346.573	7.85
346.939	7.94
347.304	7.84
347.67	7.79
348.035	7.69
348.401	7.75
348.766	7.76
349.132	7.64
349.497	7.64
349.862	7.77
350.228	7.69
350.593	7.69
350.958	7.7
351.323	7.81
351.688	7.88
352.053	7.88
352.418	7.95
352.783	7.94
353.148	7.89
353.513	7.9
353.878	7.94
354.243	7.87
354.608	7.79
354.972	7.93
355.337	8.05
355.702	8.14
356.066	8.14
356.431	8.09
356.795	8.16
357.16	8.11
357.524	8.06
357.889	8.07
358.253	8.06
358.618	8.05
358.982	7.96
359.346	7.92
359.71	7.87
360.075	7.84
360.439	7.94
360.803	8.04
361.167	7.99
361.531	7.92
361.895	7.87
362.259	7.9
362.623	7.89
362.987	7.88
363.351	7.81
363.714	7.74
364.078	7.74
364.442	7.73
364.806	7.74
365.169	7.68
365.533	7.69
365.896	7.71
366.26	7.74
366.623	7.74
366.987	7.75
367.35	7.8
367.714	7.8
368.077	7.67
368.44	7.57
368.803	7.59
369.167	7.54
369.53	7.49
369.893	7.48
370.256	7.34
370.619	7.26
370.982	7.24
371.345	7.24
371.708	7.29
372.071	7.24
372.434	7.23
372.797	7.26
373.159	7.25
373.522	7.29
373.885	7.25
374.247	7.34
374.61	7.32
374.973	7.29
375.335	7.23
375.698	7.26
376.06	7.27
376.423	7.23
376.785	7.32
377.147	7.44
377.51	7.46
377.872	7.54
378.234	7.6
378.596	7.64
378.958	7.69
379.321	7.67
379.683	7.73
380.045	7.75
380.407	7.79
380.769	7.78
381.13	7.75
381.492	7.72
381.854	7.7
382.216	7.65
382.578	7.69
382.939	7.75
383.301	7.7
383.663	7.73
384.024	7.77
384.386	7.75
384.747	7.73
385.109	7.73
385.47	7.66
385.832	7.62
386.193	7.62
386.554	7.56
386.916	7.57
387.277	7.53
387.638	7.51
387.999	7.46
388.36	7.46
388.721	7.46
389.082	7.47
389.443	7.42
389.804	7.49
390.165	7.44
390.526	7.39
390.887	7.41
391.248	7.41
391.609	7.39
391.969	7.37
392.33	7.34
392.691	7.31
393.051	7.36
393.412	7.39
393.772	7.38
394.133	7.41
394.493	7.4
394.854	7.4
395.214	7.41
395.574	7.4
395.935	7.43
396.295	7.43
396.655	7.4
397.015	7.44
397.376	7.41
397.736	7.39
398.096	7.42
398.456	7.42
398.816	7.4
399.176	7.37
399.535	7.34
399.895	7.31
400.255	7.3
400.615	7.31
400.975	7.26
401.334	7.26
401.694	7.24
402.054	7.19
402.413	7.2
402.773	7.19
403.132	7.15
403.492	7.11
403.851	7.08
404.211	7.09
404.57	7.05
404.929	7.07
405.288	7.08
405.648	7.05
406.007	7.03
406.366	7.01
406.725	7.06
407.084	7.07
407.443	7.08
407.802	7.11
408.161	7.09
408.52	7.11
408.879	7.08
409.238	7.1
409.596	7.1
409.955	7.1
410.314	7.09
410.673	7.08
411.031	7.11
411.39	7.09
411.748	7.08
412.107	7.1
412.465	7.06
412.824	7.04
413.182	7
413.54	7
413.899	7.02
414.257	6.97
414.615	6.94
414.974	6.98
415.332	6.94
415.69	6.94
416.048	6.93
416.406	6.95
416.764	6.93
417.122	6.94
417.48	6.91
417.838	6.91
418.195	6.93
418.553	6.91
418.911	6.9
419.269	6.91
419.626	6.9
419.984	6.89
420.342	6.91
420.699	6.94
421.057	6.93
421.414	6.91
421.772	6.91
422.129	6.91
422.486	6.9
422.844	6.9
423.201	6.89
423.558	6.89
423.915	6.87
424.273	6.88
424.63	6.86
424.987	6.84
425.344	6.84
425.701	6.83
426.058	6.83
426.415	6.84
426.772	6.82
427.128	6.81
427.485	6.82
427.842	6.79
428.199	6.78
428.555	6.76
428.912	6.77
429.269	6.78
429.625	6.78
429.982	6.75
430.338	6.76
430.695	6.76
431.051	6.74
431.407	6.75
431.764	6.71
432.12	6.72
432.476	6.72
432.832	6.7
433.189	6.71
433.545	6.71
433.901	6.71
434.257	6.7
434.613	6.72
434.969	6.73
435.325	6.75
435.681	6.73
436.036	6.76
436.392	6.75
436.748	6.72
437.104	6.71
437.459	6.72
437.815	6.71
438.171	6.71
438.526	6.74
438.882	6.73
439.237	6.74
439.593	6.75
439.948	6.76
440.304	6.77
440.659	6.77
441.014	6.75
441.369	6.74
441.725	6.74
442.08	6.75
442.435	6.73
442.79	6.73
443.145	6.73
443.5	6.72
443.855	6.72
444.21	6.73
444.565	6.73
444.92	6.73
445.275	6.72
445.629	6.71
445.984	6.69
446.339	6.68
446.693	6.66
447.048	6.65
447.403	6.65
447.757	6.64
448.112	6.62
448.466	6.62
448.82	6.62
449.175	6.61
449.529	6.59
449.883	6.58
450.238	6.56
450.592	6.56
450.946	6.54
451.3	6.52
451.654	6.5
452.008	6.49
452.362	6.48
452.716	6.48
453.07	6.48
453.424	6.48
453.778	6.5
454.132	6.5
454.486	6.49
454.839	6.47
455.193	6.46
455.547	6.47
455.9	6.47
456.254	6.48
456.607	6.47
456.961	6.46
457.314	6.47
457.668	6.47
458.021	6.46
458.375	6.45
458.728	6.47
459.081	6.46
459.434	6.45
459.787	6.45
460.141	6.44
460.494	6.44
460.847	6.43
461.2	6.43
461.553	6.44
461.906	6.45
462.259	6.47
462.611	6.47
462.964	6.48
463.317	6.46
463.67	6.42
464.022	6.43
464.375	6.43
464.728	6.45
465.08	6.46
465.433	6.45
465.785	6.46
466.138	6.46
466.49	6.49
466.843	6.51
467.195	6.52
467.547	6.55
467.899	6.57
468.252	6.58
468.604	6.58
468.956	6.58
469.308	6.59
469.66	6.59
470.012	6.61
470.364	6.61
470.716	6.62
471.068	6.65
471.42	6.67
471.772	6.7
472.123	6.73
472.475	6.76
472.827	6.78
473.178	6.81
473.53	6.8
473.882	6.78
474.233	6.79
474.585	6.79
474.936	6.77
475.288	6.77
475.639	6.78
475.99	6.77
476.342	6.76
476.693	6.75
477.044	6.76
477.395	6.75
477.746	6.77
478.097	6.78
478.448	6.77
478.8	6.78
479.15	6.78
479.501	6.76
479.852	6.75
480.203	6.75
480.554	6.76
480.905	6.79
481.255	6.82
481.606	6.82
481.957	6.83
482.307	6.85
482.658	6.83
483.009	6.83
483.359	6.85
483.709	6.85
484.06	6.84
484.41	6.83
484.761	6.83
485.111	6.83
485.461	6.82
485.811	6.83
486.162	6.82
486.512	6.81
486.862	6.82
487.212	6.82
487.562	6.82
487.912	6.81
488.262	6.8
488.612	6.79
488.961	6.78
489.311	6.77
489.661	6.76
490.011	6.77
490.36	6.75
490.71	6.74
491.06	6.76
491.409	6.77
491.759	6.77
492.108	6.78
492.458	6.78
492.807	6.77
493.157	6.77
493.506	6.77
493.855	6.78
494.204	6.77
494.554	6.78
494.903	6.77
495.252	6.77
495.601	6.77
495.95	6.77
496.299	6.78
496.648	6.79
496.997	6.81
497.346	6.81
497.695	6.84
498.043	6.85
498.392	6.83
498.741	6.85
499.09	6.86
499.438	6.86
499.787	6.89
500.135	6.94
500.484	6.96
500.832	6.99
501.181	7.01
501.529	7.02
501.878	7.05
502.226	7.09
502.574	7.12
502.923	7.13
503.271	7.14
503.619	7.16
503.967	7.15
504.315	7.14
504.663	7.16
505.011	7.16
505.359	7.18
505.707	7.22
506.055	7.21
506.403	7.23
506.751	7.25
507.098	7.22
507.446	7.25
507.794	7.25
508.141	7.24
508.489	7.28
508.837	7.27
509.184	7.27
509.531	7.27
509.879	7.29
510.226	7.31
510.574	7.31
510.921	7.31
511.268	7.33
511.616	7.36
511.963	7.36
512.31	7.38
512.657	7.37
513.004	7.36
513.351	7.39
513.698	7.39
514.045	7.39
514.392	7.42
514.739	7.41
515.086	7.4
515.432	7.42
515.779	7.4
516.126	7.44
516.473	7.46
516.819	7.46
517.166	7.46
517.512	7.46
517.859	7.49
518.205	7.48
518.552	7.5
518.898	7.51
519.245	7.52
519.591	7.51
519.937	7.52
520.283	7.54
520.629	7.56
520.976	7.58
521.322	7.59
521.668	7.58
522.014	7.61
522.36	7.65
522.706	7.67
523.052	7.7
523.398	7.72
523.743	7.73
524.089	7.74
524.435	7.75
524.781	7.79
525.126	7.81
525.472	7.84
525.817	7.85
526.163	7.86
526.509	7.86
526.854	7.89
527.199	7.9
527.545	7.88
527.89	7.87
528.235	7.87
528.581	7.87
528.926	7.89
529.271	7.89
529.616	7.87
529.961	7.87
530.306	7.87
530.651	7.87
530.996	7.88
531.341	7.89
531.686	7.9
532.031	7.89
532.376	7.89
532.721	7.89
533.065	7.9
533.41	7.9
533.755	7.9
534.099	7.9
534.444	7.91
534.788	7.94
535.133	7.95
535.477	7.97
535.822	7.98
536.166	7.97
536.51	8
536.855	8.01
537.199	8.04
537.543	8.05
537.887	8.04
538.231	8.04
538.576	8.06
538.92	8.05
539.264	8.05
539.608	8.05
539.951	8.05
540.295	8.05
540.639	8.05
540.983	8.05
541.327	8.06
541.671	8.06
542.014	8.08
542.358	8.09
542.701	8.09
543.045	8.1
543.389	8.11
543.732	8.1
544.075	8.1
544.419	8.1
544.762	8.1
545.105	8.11
545.449	8.12
545.792	8.11
546.135	8.12
546.478	8.12
546.821	8.14
547.165	8.15
547.508	8.18
547.851	8.19
548.194	8.21
548.536	8.21
548.879	8.22
549.222	8.2
549.565	8.21
549.908	8.21
550.25	8.19
550.593	8.2
550.936	8.19
551.278	8.22
551.621	8.21
551.963	8.2
552.306	8.21
552.648	8.21
552.991	8.21
553.333	8.24
553.675	8.26
554.017	8.25
554.36	8.26
554.702	8.26
555.044	8.28
555.386	8.29
555.728	8.29
556.07	8.3
556.412	8.29
556.754	8.28
557.096	8.3
557.438	8.31
557.78	8.31
558.121	8.29
558.463	8.25
558.805	8.29
559.147	8.28
559.488	8.3
559.83	8.26
560.171	8.27
560.513	8.26
560.854	8.25
561.196	8.23
561.537	8.2
561.878	8.17
562.22	8.15
562.561	8.1
562.902	8.09
563.243	8.1
563.584	8.1
563.925	8.13
564.266	8.14
564.607	8.14
564.948	8.14
565.289	8.2
565.63	8.23
565.971	8.21
566.312	8.21
566.653	8.19
566.993	8.22
567.334	8.24
567.675	8.24
568.015	8.25
568.356	8.26
568.696	8.3
569.037	8.33
569.377	8.32
569.718	8.34
570.058	8.35
570.398	8.33
570.739	8.35
571.079	8.33
571.419	8.33
571.759	8.36
572.099	8.38
572.439	8.36
572.779	8.35
573.119	8.36
573.459	8.38
573.799	8.44
574.139	8.45
574.479	8.44
574.819	8.43
575.158	8.41
575.498	8.4
575.838	8.41
576.177	8.39
576.517	8.38
576.856	8.41
577.196	8.41
577.535	8.44
577.875	8.42
578.214	8.41
578.553	8.4
578.893	8.39
579.232	8.38
579.571	8.42
579.91	8.42
580.25	8.39
580.589	8.38
580.928	8.32
581.267	8.32
581.606	8.29
581.945	8.29
582.283	8.33
582.622	8.34
582.961	8.3
583.3	8.33
583.639	8.36
583.977	8.35
584.316	8.35
584.654	8.33
584.993	8.36
585.332	8.36
585.67	8.38
586.008	8.34
586.347	8.38
586.685	8.3
587.024	8.32
587.362	8.33
587.7	8.34
588.038	8.34
588.376	8.34
588.715	8.37
589.053	8.41
589.391	8.39
589.729	8.4
590.067	8.42
590.404	8.39
590.742	8.43
591.08	8.42
591.418	8.44
591.756	8.46
592.093	8.48
592.431	8.49
592.769	8.5
593.106	8.54
593.444	8.5
593.781	8.54
594.119	8.54
594.456	8.56
594.793	8.55
595.131	8.55
595.468	8.56
595.805	8.53
596.143	8.52
596.48	8.52
596.817	8.52
597.154	8.51
597.491	8.54
597.828	8.54
598.165	8.55
598.502	8.52
598.839	8.52
599.176	8.53
599.512	8.53
599.849	8.55
600.186	8.56
600.523	8.6
600.859	8.59
601.196	8.62
601.532	8.61
601.869	8.6
602.205	8.58
602.542	8.58
602.878	8.59
603.215	8.59
603.551	8.56
603.887	8.56
604.223	8.58
604.56	8.57
604.896	8.54
605.232	8.54
605.568	8.55
605.904	8.54
606.24	8.52
606.576	8.52
606.912	8.5
607.248	8.48
607.583	8.47
607.919	8.47
608.255	8.44
608.591	8.49
608.926	8.52
609.262	8.59
609.597	8.61
609.933	8.61
610.268	8.61
610.604	8.65
610.939	8.65
611.275	8.66
611.61	8.69
611.945	8.69
612.281	8.71
612.616	8.69
612.951	8.7
613.286	8.72
613.621	8.73
613.956	8.72
614.291	8.75
614.626	8.76
614.961	8.74
615.296	8.74
615.631	8.74
615.966	8.73
616.3	8.67
616.635	8.63
616.97	8.65
617.304	8.65
617.639	8.66
617.973	8.64
618.308	8.62
618.642	8.62
618.977	8.66
619.311	8.63
619.646	8.67
619.98	8.68
620.314	8.66
620.648	8.65
620.983	8.69
621.317	8.66
621.651	8.64
621.985	8.68
622.319	8.68
622.653	8.64
622.987	8.64
623.321	8.64
623.655	8.67
623.988	8.69
624.322	8.68
624.656	8.72
624.99	8.74
625.323	8.72
625.657	8.71
625.99	8.77
626.324	8.81
626.657	8.83
626.991	8.81
627.324	8.85
627.658	8.86
627.991	8.88
628.324	8.88
628.657	8.86
628.991	8.87
629.324	8.92
629.657	8.88
629.99	8.87
630.323	8.91
630.656	8.9
630.989	8.89
631.322	8.92
631.655	8.88
631.987	8.85
632.32	8.87
632.653	8.86
632.986	8.77
633.318	8.71
633.651	8.72
633.984	8.78
634.316	8.73
634.649	8.71
634.981	8.68
635.313	8.67
635.646	8.69
635.978	8.71
636.31	8.68
636.643	8.74
636.975	8.7
637.307	8.68
637.639	8.65
637.971	8.68
638.303	8.67
638.635	8.63
638.967	8.74
639.299	8.74
639.631	8.74
639.963	8.74
640.295	8.79
640.626	8.8
640.958	8.74
641.29	8.75
641.621	8.77
641.953	8.75
642.285	8.76
642.616	8.74
642.948	8.72
643.279	8.7
643.61	8.67
643.942	8.74
644.273	8.74
644.604	8.82
644.936	8.82
645.267	8.82
645.598	8.89
645.929	8.8
646.26	8.84
646.591	8.88
646.922	8.85
647.253	8.81
647.584	8.77
647.915	8.71
648.245	8.68
648.576	8.7
648.907	8.73
649.238	8.72
649.568	8.76
649.899	8.73
650.229	8.76
650.56	8.86
650.89	8.83
651.221	8.86
651.551	8.81
651.882	8.84
652.212	8.89
652.542	8.82
652.872	8.81
653.203	8.78
653.533	8.77
653.863	8.79
654.193	8.83
654.523	8.82
654.853	8.85
655.183	8.97
655.513	8.89
655.843	8.89
656.172	8.93
656.502	8.93
656.832	8.92
657.162	8.96
657.491	8.91
657.821	8.93
658.15	8.94
658.48	8.99
658.809	8.97
659.139	8.89
659.468	8.92
659.798	8.94
660.127	8.89
660.456	8.88
660.785	8.97
661.115	8.97
661.444	9.02
661.773	9.05
662.102	9.07
662.431	9.18
662.76	9.16
663.089	9.14
663.418	9.06
663.747	9.06
664.076	9.05
664.404	9.09
664.733	9.1
665.062	9.06
665.39	9
665.719	8.92
666.048	9
666.376	8.98
666.705	9
667.033	9.08
667.362	9.13
667.69	9.06
668.018	9.08
668.347	9.17
668.675	9.19
669.003	9.05
669.331	9.09
669.659	9.14
669.987	9.14
670.315	9.16
670.643	9.23
670.971	9.19
671.299	9.19
671.627	9.19
671.955	9.15
672.283	9.15
672.61	9.17
672.938	9.12
673.266	9.13
673.593	9.11
673.921	9.08
674.249	9.08
674.576	9.1
674.904	9.09
675.231	8.98
675.558	8.99
675.886	9.06
676.213	9.02
676.54	8.98
676.867	9.12
677.195	9.15
677.522	9.13
677.849	9.19
678.176	9.15
678.503	9.1
678.83	9.11
679.157	9.2
679.484	9.28
679.81	9.34
680.137	9.34
680.464	9.34
680.791	9.32
681.117	9.24
681.444	9.24
681.771	9.21
682.097	9.3
682.424	9.27
682.75	9.25
683.077	9.22
683.403	9.22
683.729	9.11
684.056	9.16
684.382	9.21
684.708	9.16
685.034	9.17
685.36	9.19
685.686	9.18
686.012	9.11
686.339	9.18
686.664	9.2
686.99	9.22
687.316	9.19
687.642	9.35
687.968	9.44
688.294	9.47
688.619	9.53
688.945	9.38
689.271	9.44
689.596	9.51
689.922	9.5
690.247	9.56
690.573	9.59
690.898	9.53
691.224	9.48
691.549	9.51
691.874	9.5
692.2	9.59
692.525	9.67
692.85	9.72
693.175	9.66
693.5	9.54
693.825	9.53
694.15	9.47
694.475	9.34
694.8	9.3
695.125	9.3
695.45	9.19
695.775	9.23
696.099	9.19
696.424	9.13
696.749	9.16
697.073	9.16
697.398	9.18
697.723	9.27
698.047	9.26
698.372	9.22
698.696	9.34
699.02	9.33
699.345	9.26
699.669	9.34
699.993	9.31
700.318	9.39
700.642	9.42
700.966	9.51
701.29	9.6
701.614	9.58
701.938	9.6
702.262	9.79
702.586	9.85
702.91	9.81
703.234	9.77
703.557	9.8
703.881	9.72
704.205	9.7
704.529	9.69
704.852	9.7
705.176	9.73
705.499	9.52
705.823	9.58
706.146	9.72
706.47	9.64
706.793	9.77
707.117	9.75
707.44	9.74
707.763	9.65
708.086	9.56
708.409	9.56
708.733	9.46
709.056	9.34
709.379	9.43
709.702	9.47
710.025	9.48
710.348	9.49
710.671	9.49
710.993	9.54
711.316	9.55
711.639	9.69
711.962	9.64
712.284	9.72
712.607	9.66
712.93	9.64
713.252	9.58
713.575	9.42
713.897	9.49
714.22	9.5
714.542	9.65
714.864	9.68
715.187	9.72
715.509	9.86
715.831	9.82
716.153	9.84
716.475	9.95
716.798	10.13
717.12	10.05
717.442	10.16
717.764	10
718.085	9.99
718.407	9.83
718.729	9.88
719.051	9.85
719.373	9.87
719.695	9.84
720.016	10.1
720.338	10.1
720.659	10.03
720.981	10.06
721.302	9.96
721.624	10.02
721.945	9.92
722.267	9.94
722.588	10.05
722.909	9.88
723.231	9.64
723.552	9.56
723.873	9.53
724.194	9.48
724.515	9.58
724.836	9.57
725.157	9.7
725.478	9.74
725.799	9.84
726.12	9.7
726.441	9.72
726.762	9.57
727.083	9.65
727.403	9.73
727.724	9.71
728.045	9.8
728.365	9.72
728.686	9.73
729.006	9.72
729.327	9.48
729.647	9.5
729.967	9.63
730.288	9.65
730.608	9.63
730.928	9.77
731.249	9.74
731.569	9.84
731.889	9.79
732.209	9.73
732.529	9.62
732.849	9.89
733.169	9.74
733.489	9.76
733.809	9.63
734.129	9.58
734.448	9.67
734.768	9.61
735.088	9.75
735.408	9.96
735.727	9.89
736.047	10.05
736.366	9.9
736.686	9.97
737.005	9.9
737.325	9.98
737.644	9.86
737.963	9.99
738.283	9.77
738.602	9.71
738.921	9.82
739.24	10.11
739.56	9.92
739.879	10.04
740.198	9.97
740.517	10.13
740.836	10.22
741.155	10.21
741.473	10.32
741.792	10.08
742.111	9.99
742.43	9.88
742.748	10.02
743.067	10.43
743.386	10.34
743.704	10.41
744.023	10.53
744.341	10.64
744.66	10.75
744.978	10.67
745.297	10.84
745.615	11.05
745.933	10.87
746.252	10.88
746.57	10.93
746.888	11.04
747.206	11.09
747.524	10.9
747.842	10.85
748.16	10.91
748.478	11.24
748.796	11.38
749.114	11.51
749.432	11.22
749.749	11.07
750.067	11.15
750.385	11.09
750.703	11.06
751.02	10.95
751.338	10.9
751.655	11.03
751.973	10.72
752.29	10.63
752.608	10.59
752.925	10.51
753.242	10.5
753.56	10.42
753.877	10.26
754.194	10.25
754.511	10.36
754.828	10.26
755.145	9.88
755.462	9.72
755.779	9.66
756.096	9.88
756.413	9.99
756.73	10.07
757.047	10.14
757.364	10.06
757.68	9.92
757.997	9.69
758.314	9.77
758.63	10
758.947	9.91
759.264	9.83
759.58	9.95
759.896	9.93
760.213	10.01
760.529	10.08
760.846	10.2
761.162	10.19
761.478	10.16
761.794	10.18
762.11	10.01
762.426	10.14
762.743	10.17
763.059	9.89
763.375	9.86
763.69	10.13
764.006	10.25
764.322	10.42
764.638	10.54
764.954	10.71
765.27	10.74
765.585	10.69
765.901	10.75
766.216	10.85
766.532	10.87
766.848	10.65
767.163	10.63
767.478	10.53
767.794	10.6
768.109	10.66
768.424	10.9
768.74	11.41
769.055	11.34
769.37	11.57
769.685	11.89
770	12.02
770.315	11.47
770.63	11.47
770.945	11.56
771.26	11.55
771.575	11.37
771.89	11.53
772.205	11.91
772.52	12.08
772.834	11.89
773.149	11.97
773.464	12.17
773.778	12.39
774.093	12.44
774.407	12.47
774.722	12.42
775.036	12.61
775.351	12.08
775.665	12.38
775.979	12.03
776.293	11.82
776.608	11.63
776.922	11.87
777.236	11.97
777.55	11.52
777.864	11.44
778.178	11.25
778.492	11.39
778.806	11.2
779.12	10.91
779.434	11.05
779.747	10.88
780.061	11.07
780.375	10.77
780.689	10.87
781.002	10.86
781.316	11.1
781.629	11.02
781.943	10.99
782.256	11.05
782.57	11.33
782.883	11.53
783.196	11.78
783.51	11.67
783.823	11.32
784.136	11.96
784.449	12.01
784.762	12.12
785.075	11.66
785.388	11.48
785.701	11.68
786.014	11.55
786.327	11.97
786.64	12.05
786.953	12.32
787.266	12.36
787.578	12.27
787.891	12.02
788.204	11.32
788.516	11.67
788.829	11.65
789.141	11.9
789.454	11.74
789.766	11.78
790.079	11.79
790.391	11.91
790.703	11.88
791.016	12.1
791.328	11.93
791.64	11.94
791.952	12.35
792.264	12.4
792.576	12.32
792.888	12.08
793.2	11.95
793.512	11.62
793.824	11.43
794.136	11.18
794.448	11.28
794.76	11.66
795.071	11.11
795.383	10.55
795.695	9.82
796.006	9.69
796.318	9.62
796.629	10.03
796.941	10.44
797.252	10.4
797.564	10.25
797.875	10.37
798.186	10.29
798.497	9.88
798.809	9.64
799.12	9.54
799.431	9.19
799.742	9.24
800.053	9.24
800.364	9.33
800.675	9.48
800.986	9.42
801.297	9.85
801.608	10.14
801.918	10.28
802.229	10.66
802.54	10.79
802.851	10.76
803.161	10.66
803.472	10.25
803.782	9.79
804.093	9.63
804.403	9.8
804.714	10.12
805.024	9.7
805.334	9.91
805.645	10.52
805.955	11.17
806.265	11.17
806.575	11.39
806.885	11.73
807.195	11.93
807.505	12.09
807.815	12.21
808.125	12.28
808.435	12.17
808.745	12.13
809.055	12.61
809.365	12.81
809.674	12.25
809.984	12.67
810.294	13.05
810.603	14.02
810.913	14.7
811.222	15.25
811.532	15.98
811.841	16.48
812.151	17.15
812.46	16.66
812.769	16.35
813.079	16.62
813.388	16.76
813.697	16.81
814.006	16.34
814.315	15.94
814.624	16.07
814.933	16.6
815.242	16.21
815.551	15.9
815.86	15.97
816.169	16.38
816.478	16.03
816.786	15.84
817.095	15.22
817.404	14.98
817.712	14.33
818.021	14.39
818.33	14.35
818.638	13.79
818.947	13.9
819.255	14.34
819.563	14.24
819.872	13.92
820.18	13.71
820.488	13.64
820.796	13.64
821.105	13.4
821.413	13.33
821.721	13.36
822.029	13.39
822.337	13.27
822.645	13.4
822.953	13.36
823.26	13.41
823.568	13.35
823.876	13.28
824.184	13.26
824.491	13.33
824.799	13.33
825.107	13.42
825.414	13.47
825.722	13.32
826.029	13.29
826.337	13.41
826.644	13.39
826.951	13.46
827.259	13.51
827.566	13.63
827.873	13.64
828.18	13.74
828.488	13.62
828.795	13.63
829.102	13.45
829.409	13.53
829.716	13.48
830.023	13.4
830.329	13.35
830.636	13.62
830.943	13.5
831.25	13.37
831.557	12.86
831.863	12.77
832.17	12.51
832.476	12.73
832.783	12.66
833.089	12.67
833.396	12.54
833.702	12.56
834.009	12.85
834.315	12.73
834.621	12.56
834.928	12.75
835.234	13.01
835.54	12.98
835.846	12.87
836.152	13.09
836.458	13.28
836.764	13.37
837.07	12.9
837.376	12.53
837.682	12.75
837.988	12.35
838.293	12.39
838.599	12.63
838.905	12.16
839.211	11.95
839.516	12.46
839.822	13.04
840.127	13.31
840.433	12.95
840.738	12.95
841.044	13.03
841.349	12.58
841.654	12.21
841.959	12.43
842.265	12.22
842.57	11.89
842.875	11.21
843.18	11.78
843.485	12.46
843.79	13.09
844.095	11.92
844.4	13.72
844.705	12.79
845.01	12.88
845.315	12.98
845.619	12.6
845.924	11.7
846.229	11.94
846.533	10.64
846.838	10.32
847.142	9.52
847.447	9.2
847.751	11.16
848.056	10.2
848.36	11.24
848.664	11.42
848.969	11.19
849.273	9.94
849.577	7.93
849.881	7.57
850.185	7.63
850.489	10.27
850.794	10.15
851.097	12.36
851.401	13.74
851.705	14.04
852.009	13.38
852.313	12.81
852.617	11.16
852.92	12.22
853.224	11.77
853.528	15.36
853.831	15.42
854.135	16.59
854.438	17.52
854.742	16.55
855.045	18.14
855.349	20.28
855.652	23.37
855.955	26.84
856.259	25.66
856.562	27.44
856.865	26.43
857.168	25.03
857.471	24.94
857.774	24.9
858.077	25.52
858.38	29.19
858.683	30.16
858.986	31.63
859.289	31.74
859.592	33.86
859.894	32.96
860.197	34.34
860.5	31.15
860.802	28.58
861.105	29.28
861.407	28.92
861.71	27.63
862.012	27.17
862.315	23.75
862.617	23.78
862.919	19.76
863.222	17.92
863.524	18.6
863.826	19.76
864.128	19.83
864.43	21.14
864.732	20.22
865.034	21.98
865.336	20.59
865.638	18.75
865.94	15.75
866.242	14.53
866.544	13.93
866.846	14.99
867.147	18.81
867.449	18.95
867.751	18.86
868.052	18.62
868.354	17.44
868.655	19.81
868.957	20.04
869.258	20.87
869.56	21.9
869.861	19.83
870.162	14.46
870.463	13.84
870.765	14.06
871.066	12.24
871.367	10.08
871.668	9.21
871.969	10.74
872.27	9.1
872.571	8.7
872.872	10.4
873.173	9.02
873.473	9.16
873.774	8.65
874.075	8.17
874.376	6.42
874.676	8.29
874.977	5.88
875.277	6.74
875.578	6.35
875.878	5.62
876.179	6.99
876.479	10.04
876.78	9.1
877.08	5.92
877.38	6.36
877.68	6.31
877.981	7.17
878.281	6.45
878.581	12.36
