Data from BA57890_Reflection_00005.txt Node
Date: Mon Nov 18 15:06:00 EST 2019
User: vgr7
Spectrometer: USB2G7710
Scans to average: 3
Trigger mode: 4
Integration Time (sec): 2.000000E-2
Electric dark correction enabled: true
Boxcar width: 10
XAxis mode: Wavelengths
Number of Pixels in Spectrum: 2048
>>>>>Begin Spectral Data<<<<<
177.721	18.93
178.105	164.04
178.488	180.89
178.871	267.06
179.254	266.94
179.636	311.23
180.019	216.86
180.402	57.14
180.785	1473.13
181.168	-88.43
181.55	12.52
181.933	79.92
182.316	53.61
182.698	75.63
183.081	52.12
183.463	82.57
183.846	20.35
184.228	-13.27
184.611	-12.18
184.993	22.11
185.376	36.9
185.758	115.08
186.14	244.61
186.522	197.67
186.904	217.55
187.287	213.56
187.669	234.01
188.051	260.51
188.433	302.09
188.815	-2738.71
189.197	-108.37
189.579	-133.85
189.961	-160.39
190.342	-2764.86
190.724	-46.79
191.106	41.35
191.488	51.57
191.869	227.17
192.251	194.37
192.633	1170.42
193.014	89.65
193.396	120.74
193.777	70.74
194.159	45.05
194.54	47.53
194.922	38.89
195.303	2.23
195.684	27.34
196.065	-17.19
196.447	1.51
196.828	33.3
197.209	10.34
197.59	23.46
197.971	4.89
198.352	9.18
198.733	95.98
199.114	199.55
199.495	-231.21
199.876	-71.29
200.257	-33.19
200.638	-57.23
201.018	-83.87
201.399	-1.71
201.78	23.75
202.16	0.84
202.541	-56.99
202.922	-229.29
203.302	-348.36
203.683	-179.82
204.063	-213.94
204.444	-89.36
204.824	-79.76
205.204	-75.22
205.585	-75.68
205.965	-46.21
206.345	-32.39
206.725	-25.08
207.106	-69.89
207.486	-184.46
207.866	-76.17
208.246	-39.86
208.626	-140.66
209.006	-50.94
209.386	173.39
209.766	133.83
210.145	-22.05
210.525	11.74
210.905	40.62
211.285	12.33
211.664	10.34
212.044	34.11
212.424	23.2
212.803	55.07
213.183	86.05
213.562	108.72
213.942	96.18
214.321	105.37
214.701	100.94
215.08	103.61
215.459	70.14
215.838	58.88
216.218	61.53
216.597	83.79
216.976	80.4
217.355	62.93
217.734	47.34
218.113	50.68
218.492	43.58
218.871	41.65
219.25	58.58
219.629	54.42
220.008	36.72
220.387	47.63
220.766	36.64
221.144	13.4
221.523	0.19
221.902	-20.89
222.28	-18.87
222.659	-7.7
223.037	-5.72
223.416	-6.86
223.794	-7.76
224.173	-8.21
224.551	-9.62
224.929	-9.99
225.308	3.01
225.686	1.29
226.064	2.57
226.442	3.85
226.821	5.48
227.199	2.96
227.577	1.72
227.955	4.46
228.333	1.5
228.711	2.46
229.089	4.06
229.467	3.66
229.845	5.13
230.222	6.68
230.6	4.89
230.978	6.91
231.356	8.23
231.733	7.91
232.111	7.39
232.488	8.43
232.866	7.77
233.243	6.01
233.621	5.06
233.998	5.11
234.376	4.76
234.753	4.27
235.13	2.72
235.508	5.33
235.885	5.06
236.262	4.73
236.639	3.29
237.016	2.57
237.393	3.73
237.77	4.17
238.147	4.39
238.524	4.38
238.901	4.5
239.278	4.77
239.655	5.19
240.032	5.35
240.409	4.8
240.785	5.13
241.162	4.8
241.539	5.3
241.915	4.96
242.292	4.54
242.668	5.13
243.045	5.58
243.421	4.99
243.798	4.71
244.174	4.61
244.551	4.95
244.927	5.14
245.303	5.17
245.679	5.2
246.056	4.94
246.432	4.93
246.808	5
247.184	4.64
247.56	4.56
247.936	4.48
248.312	4.42
248.688	4.44
249.064	4.6
249.44	4.75
249.815	4.76
250.191	4.99
250.567	4.74
250.943	4.49
251.318	4.66
251.694	4.88
252.069	4.93
252.445	4.85
252.82	4.84
253.196	4.62
253.571	4.68
253.947	4.65
254.322	4.85
254.697	4.79
255.073	4.84
255.448	4.7
255.823	4.65
256.198	4.9
256.573	4.6
256.948	4.76
257.323	4.57
257.698	4.57
258.073	4.57
258.448	4.66
258.823	4.74
259.198	4.62
259.573	4.69
259.948	4.75
260.322	4.87
260.697	4.84
261.072	4.91
261.446	4.92
261.821	4.93
262.195	5
262.57	4.78
262.944	4.81
263.319	4.94
263.693	4.96
264.067	4.93
264.442	5.16
264.816	5.18
265.19	5.18
265.564	5.27
265.938	5.13
266.313	5.06
266.687	5.08
267.061	5.33
267.435	5.13
267.809	5.06
268.183	5.01
268.556	5.07
268.93	5.04
269.304	4.89
269.678	4.95
270.051	4.86
270.425	4.93
270.799	4.97
271.172	4.87
271.546	4.93
271.919	4.83
272.293	4.78
272.666	4.73
273.04	4.73
273.413	4.63
273.787	4.68
274.16	4.65
274.533	4.65
274.906	4.44
275.279	4.41
275.653	4.51
276.026	4.53
276.399	4.47
276.772	4.45
277.145	4.4
277.518	4.34
277.891	4.25
278.263	4.31
278.636	4.32
279.009	4.28
279.382	4.34
279.755	4.43
280.127	4.5
280.5	4.55
280.872	4.68
281.245	4.81
281.617	4.87
281.99	5.15
282.362	5.19
282.735	5.07
283.107	5.16
283.479	5.12
283.852	5.03
284.224	5.04
284.596	5.13
284.968	5.34
285.34	5.43
285.713	5.47
286.085	5.5
286.457	5.53
286.829	5.67
287.201	5.62
287.572	5.53
287.944	5.56
288.316	5.52
288.688	5.36
289.06	5.24
289.431	5.29
289.803	5.2
290.175	5.28
290.546	5.57
290.918	5.67
291.289	5.74
291.661	5.93
292.032	6.07
292.403	6.1
292.775	6.05
293.146	5.99
293.517	5.98
293.889	6.08
294.26	6.11
294.631	6.03
295.002	6.07
295.373	6.2
295.744	6.24
296.115	6.36
296.486	6.35
296.857	6.53
297.228	6.57
297.599	6.46
297.97	6.46
298.34	6.42
298.711	6.4
299.082	6.4
299.452	6.36
299.823	6.38
300.194	6.34
300.564	6.28
300.935	6.39
301.305	6.52
301.676	6.5
302.046	6.59
302.416	6.87
302.787	6.98
303.157	6.98
303.527	6.99
303.897	6.93
304.267	7.23
304.637	7.16
305.008	7.16
305.378	7.42
305.748	7.47
306.117	7.4
306.487	7.64
306.857	7.72
307.227	7.7
307.597	7.71
307.967	7.64
308.336	7.82
308.706	7.8
309.076	7.74
309.445	7.72
309.815	7.69
310.184	7.5
310.554	7.47
310.923	7.51
311.293	7.51
311.662	7.51
312.031	7.43
312.401	7.5
312.77	7.67
313.139	7.57
313.508	7.6
313.877	7.65
314.246	7.39
314.616	7.36
314.985	7.37
315.353	7.34
315.722	7.5
316.091	7.44
316.46	7.46
316.829	7.5
317.198	7.44
317.567	7.44
317.935	7.41
318.304	7.34
318.672	7.38
319.041	7.47
319.41	7.57
319.778	7.55
320.147	7.59
320.515	7.41
320.883	7.37
321.252	7.31
321.62	7.26
321.988	7.26
322.357	7.24
322.725	7.33
323.093	7.28
323.461	7.23
323.829	7.26
324.197	7.13
324.565	7.16
324.933	7.38
325.301	7.4
325.669	7.45
326.037	7.6
326.405	7.55
326.772	7.52
327.14	7.36
327.508	7.38
327.875	7.31
328.243	7.37
328.61	7.43
328.978	7.48
329.346	7.52
329.713	7.6
330.08	7.68
330.448	7.63
330.815	7.55
331.182	7.61
331.55	7.57
331.917	7.7
332.284	7.87
332.651	7.74
333.018	7.73
333.385	7.69
333.752	7.62
334.119	7.58
334.486	7.49
334.853	7.72
335.22	7.66
335.587	7.56
335.954	7.48
336.32	7.48
336.687	7.48
337.054	7.53
337.42	7.59
337.787	7.56
338.153	7.58
338.52	7.74
338.886	7.54
339.253	7.48
339.619	7.51
339.986	7.39
340.352	7.45
340.718	7.45
341.084	7.5
341.451	7.45
341.817	7.45
342.183	7.44
342.549	7.27
342.915	7.31
343.281	7.42
343.647	7.48
344.013	7.54
344.379	7.56
344.745	7.55
345.11	7.49
345.476	7.54
345.842	7.55
346.208	7.49
346.573	7.66
346.939	7.77
347.304	7.71
347.67	7.77
348.035	7.7
348.401	7.67
348.766	7.72
349.132	7.71
349.497	7.69
349.862	7.72
350.228	7.83
350.593	7.79
350.958	7.77
351.323	7.85
351.688	7.85
352.053	7.81
352.418	7.78
352.783	7.84
353.148	7.76
353.513	7.84
353.878	7.89
354.243	7.99
354.608	7.93
354.972	7.92
355.337	7.96
355.702	8.02
356.066	8.08
356.431	8.08
356.795	8.16
357.16	8.16
357.524	8.19
357.889	8.16
358.253	8.22
358.618	8.24
358.982	8.17
359.346	8.09
359.71	8.15
360.075	8.16
360.439	8.2
360.803	8.24
361.167	8.18
361.531	8.15
361.895	8.08
362.259	8.07
362.623	8.14
362.987	8.06
363.351	8.09
363.714	8.11
364.078	8.09
364.442	8.04
364.806	8.1
365.169	8.18
365.533	8.14
365.896	8.14
366.26	8.2
366.623	8.16
366.987	8.18
367.35	8.17
367.714	8.23
368.077	8.17
368.44	8.11
368.803	8.09
369.167	8.08
369.53	8.07
369.893	8.13
370.256	8.2
370.619	8.21
370.982	8.16
371.345	8.17
371.708	8.17
372.071	8.22
372.434	8.18
372.797	8.15
373.159	8.23
373.522	8.24
373.885	8.2
374.247	8.28
374.61	8.29
374.973	8.25
375.335	8.23
375.698	8.31
376.06	8.3
376.423	8.31
376.785	8.36
377.147	8.44
377.51	8.42
377.872	8.33
378.234	8.33
378.596	8.35
378.958	8.28
379.321	8.28
379.683	8.27
380.045	8.27
380.407	8.23
380.769	8.24
381.13	8.26
381.492	8.27
381.854	8.28
382.216	8.29
382.578	8.34
382.939	8.26
383.301	8.25
383.663	8.31
384.024	8.3
384.386	8.33
384.747	8.3
385.109	8.29
385.47	8.33
385.832	8.35
386.193	8.32
386.554	8.34
386.916	8.33
387.277	8.32
387.638	8.35
387.999	8.37
388.36	8.34
388.721	8.29
389.082	8.27
389.443	8.25
389.804	8.26
390.165	8.26
390.526	8.32
390.887	8.31
391.248	8.31
391.609	8.34
391.969	8.33
392.33	8.32
392.691	8.31
393.051	8.33
393.412	8.32
393.772	8.33
394.133	8.36
394.493	8.41
394.854	8.39
395.214	8.43
395.574	8.44
395.935	8.43
396.295	8.46
396.655	8.46
397.015	8.49
397.376	8.47
397.736	8.48
398.096	8.52
398.456	8.52
398.816	8.54
399.176	8.49
399.535	8.44
399.895	8.46
400.255	8.45
400.615	8.41
400.975	8.38
401.334	8.37
401.694	8.38
402.054	8.36
402.413	8.38
402.773	8.34
403.132	8.31
403.492	8.32
403.851	8.32
404.211	8.36
404.57	8.31
404.929	8.35
405.288	8.31
405.648	8.32
406.007	8.32
406.366	8.3
406.725	8.36
407.084	8.39
407.443	8.39
407.802	8.41
408.161	8.4
408.52	8.4
408.879	8.4
409.238	8.39
409.596	8.39
409.955	8.38
410.314	8.39
410.673	8.39
411.031	8.37
411.39	8.34
411.748	8.35
412.107	8.34
412.465	8.32
412.824	8.31
413.182	8.27
413.54	8.26
413.899	8.27
414.257	8.25
414.615	8.22
414.974	8.23
415.332	8.22
415.69	8.24
416.048	8.24
416.406	8.28
416.764	8.26
417.122	8.29
417.48	8.29
417.838	8.27
418.195	8.28
418.553	8.29
418.911	8.32
419.269	8.32
419.626	8.33
419.984	8.32
420.342	8.35
420.699	8.34
421.057	8.35
421.414	8.33
421.772	8.34
422.129	8.37
422.486	8.38
422.844	8.39
423.201	8.36
423.558	8.37
423.915	8.34
424.273	8.35
424.63	8.32
424.987	8.34
425.344	8.34
425.701	8.36
426.058	8.36
426.415	8.37
426.772	8.34
427.128	8.36
427.485	8.39
427.842	8.36
428.199	8.39
428.555	8.38
428.912	8.39
429.269	8.38
429.625	8.37
429.982	8.34
430.338	8.35
430.695	8.4
431.051	8.39
431.407	8.43
431.764	8.42
432.12	8.43
432.476	8.4
432.832	8.4
433.189	8.39
433.545	8.38
433.901	8.37
434.257	8.37
434.613	8.37
434.969	8.34
435.325	8.35
435.681	8.34
436.036	8.33
436.392	8.34
436.748	8.34
437.104	8.34
437.459	8.34
437.815	8.35
438.171	8.33
438.526	8.35
438.882	8.34
439.237	8.36
439.593	8.37
439.948	8.37
440.304	8.36
440.659	8.35
441.014	8.36
441.369	8.36
441.725	8.36
442.08	8.34
442.435	8.34
442.79	8.33
443.145	8.33
443.5	8.35
443.855	8.34
444.21	8.34
444.565	8.33
444.92	8.32
445.275	8.28
445.629	8.29
445.984	8.28
446.339	8.26
446.693	8.24
447.048	8.24
447.403	8.24
447.757	8.25
448.112	8.25
448.466	8.25
448.82	8.25
449.175	8.24
449.529	8.23
449.883	8.22
450.238	8.23
450.592	8.22
450.946	8.2
451.3	8.2
451.654	8.21
452.008	8.21
452.362	8.2
452.716	8.22
453.07	8.21
453.424	8.2
453.778	8.2
454.132	8.18
454.486	8.17
454.839	8.18
455.193	8.18
455.547	8.18
455.9	8.2
456.254	8.21
456.607	8.23
456.961	8.23
457.314	8.25
457.668	8.26
458.021	8.26
458.375	8.28
458.728	8.28
459.081	8.26
459.434	8.27
459.787	8.27
460.141	8.28
460.494	8.28
460.847	8.29
461.2	8.32
461.553	8.35
461.906	8.35
462.259	8.34
462.611	8.35
462.964	8.35
463.317	8.32
463.67	8.33
464.022	8.36
464.375	8.37
464.728	8.37
465.08	8.37
465.433	8.38
465.785	8.35
466.138	8.36
466.49	8.34
466.843	8.33
467.195	8.34
467.547	8.33
467.899	8.36
468.252	8.35
468.604	8.33
468.956	8.34
469.308	8.36
469.66	8.34
470.012	8.35
470.364	8.37
470.716	8.4
471.068	8.38
471.42	8.36
471.772	8.39
472.123	8.38
472.475	8.4
472.827	8.4
473.178	8.43
473.53	8.42
473.882	8.44
474.233	8.46
474.585	8.47
474.936	8.48
475.288	8.46
475.639	8.49
475.99	8.48
476.342	8.47
476.693	8.46
477.044	8.49
477.395	8.48
477.746	8.47
478.097	8.47
478.448	8.44
478.8	8.43
479.15	8.41
479.501	8.42
479.852	8.41
480.203	8.44
480.554	8.45
480.905	8.46
481.255	8.48
481.606	8.51
481.957	8.53
482.307	8.56
482.658	8.59
483.009	8.58
483.359	8.6
483.709	8.61
484.06	8.62
484.41	8.62
484.761	8.63
485.111	8.65
485.461	8.65
485.811	8.68
486.162	8.69
486.512	8.7
486.862	8.7
487.212	8.7
487.562	8.71
487.912	8.71
488.262	8.72
488.612	8.72
488.961	8.72
489.311	8.72
489.661	8.71
490.011	8.69
490.36	8.7
490.71	8.7
491.06	8.69
491.409	8.69
491.759	8.69
492.108	8.7
492.458	8.69
492.807	8.69
493.157	8.68
493.506	8.7
493.855	8.7
494.204	8.72
494.554	8.75
494.903	8.73
495.252	8.75
495.601	8.77
495.95	8.78
496.299	8.76
496.648	8.76
496.997	8.79
497.346	8.8
497.695	8.81
498.043	8.84
498.392	8.86
498.741	8.88
499.09	8.86
499.438	8.89
499.787	8.9
500.135	8.91
500.484	8.93
500.832	8.95
501.181	8.96
501.529	8.95
501.878	8.95
502.226	9
502.574	8.98
502.923	8.98
503.271	8.98
503.619	9.01
503.967	9.02
504.315	9
504.663	9
505.011	9
505.359	8.99
505.707	9
506.055	9.01
506.403	9.05
506.751	9.02
507.098	9.04
507.446	9.05
507.794	9.05
508.141	9.05
508.489	9.06
508.837	9.08
509.184	9.09
509.531	9.09
509.879	9.14
510.226	9.14
510.574	9.15
510.921	9.16
511.268	9.17
511.616	9.18
511.963	9.21
512.31	9.24
512.657	9.25
513.004	9.28
513.351	9.28
513.698	9.29
514.045	9.32
514.392	9.31
514.739	9.32
515.086	9.35
515.432	9.38
515.779	9.4
516.126	9.39
516.473	9.4
516.819	9.41
517.166	9.41
517.512	9.43
517.859	9.43
518.205	9.43
518.552	9.44
518.898	9.46
519.245	9.45
519.591	9.44
519.937	9.43
520.283	9.4
520.629	9.4
520.976	9.41
521.322	9.41
521.668	9.41
522.014	9.39
522.36	9.39
522.706	9.38
523.052	9.38
523.398	9.4
523.743	9.42
524.089	9.42
524.435	9.41
524.781	9.41
525.126	9.43
525.472	9.47
525.817	9.47
526.163	9.47
526.509	9.48
526.854	9.5
527.199	9.52
527.545	9.53
527.89	9.54
528.235	9.55
528.581	9.56
528.926	9.57
529.271	9.59
529.616	9.58
529.961	9.57
530.306	9.56
530.651	9.56
530.996	9.56
531.341	9.56
531.686	9.59
532.031	9.59
532.376	9.58
532.721	9.57
533.065	9.57
533.41	9.57
533.755	9.58
534.099	9.59
534.444	9.59
534.788	9.6
535.133	9.59
535.477	9.6
535.822	9.59
536.166	9.59
536.51	9.57
536.855	9.6
537.199	9.62
537.543	9.63
537.887	9.65
538.231	9.65
538.576	9.63
538.92	9.61
539.264	9.61
539.608	9.63
539.951	9.63
540.295	9.65
540.639	9.66
540.983	9.65
541.327	9.63
541.671	9.62
542.014	9.62
542.358	9.63
542.701	9.63
543.045	9.63
543.389	9.63
543.732	9.66
544.075	9.64
544.419	9.66
544.762	9.67
545.105	9.66
545.449	9.65
545.792	9.68
546.135	9.7
546.478	9.71
546.821	9.72
547.165	9.72
547.508	9.71
547.851	9.72
548.194	9.74
548.536	9.72
548.879	9.73
549.222	9.75
549.565	9.77
549.908	9.76
550.25	9.77
550.593	9.8
550.936	9.77
551.278	9.77
551.621	9.78
551.963	9.83
552.306	9.85
552.648	9.85
552.991	9.84
553.333	9.84
553.675	9.83
554.017	9.82
554.36	9.83
554.702	9.83
555.044	9.8
555.386	9.78
555.728	9.82
556.07	9.83
556.412	9.83
556.754	9.79
557.096	9.82
557.438	9.85
557.78	9.85
558.121	9.92
558.463	9.96
558.805	9.93
559.147	9.9
559.488	9.92
559.83	9.98
560.171	10.02
560.513	10.04
560.854	10.04
561.196	10.02
561.537	10
561.878	10.02
562.22	10.04
562.561	10.07
562.902	10.05
563.243	10.04
563.584	10.03
563.925	10.05
564.266	10.01
564.607	10
564.948	9.99
565.289	9.97
565.63	9.99
565.971	10.01
566.312	9.97
566.653	9.96
566.993	9.89
567.334	9.89
567.675	9.85
568.015	9.89
568.356	9.9
568.696	9.96
569.037	9.94
569.377	9.97
569.718	9.95
570.058	9.97
570.398	9.98
570.739	10
571.079	9.98
571.419	10.01
571.759	10.01
572.099	9.99
572.439	9.98
572.779	9.95
573.119	9.93
573.459	9.98
573.799	10
574.139	10
574.479	10
574.819	10.04
575.158	10.02
575.498	10.03
575.838	10.01
576.177	9.99
576.517	9.99
576.856	10.01
577.196	10.01
577.535	9.97
577.875	9.98
578.214	10
578.553	9.98
578.893	9.99
579.232	10
579.571	10.01
579.91	10.06
580.25	10.09
580.589	10.05
580.928	10.07
581.267	10.1
581.606	10.08
581.945	10.05
582.283	10.03
582.622	10.02
582.961	9.98
583.3	10
583.639	10.03
583.977	10.03
584.316	9.97
584.654	10.01
584.993	10.02
585.332	10.03
585.67	10.04
586.008	10.01
586.347	10.04
586.685	9.99
587.024	9.97
587.362	9.96
587.7	9.99
588.038	9.96
588.376	9.98
588.715	9.98
589.053	10.05
589.391	10.11
589.729	10.11
590.067	10.13
590.404	10.16
590.742	10.14
591.08	10.13
591.418	10.21
591.756	10.2
592.093	10.23
592.431	10.24
592.769	10.31
593.106	10.32
593.444	10.25
593.781	10.27
594.119	10.27
594.456	10.25
594.793	10.23
595.131	10.25
595.468	10.23
595.805	10.22
596.143	10.18
596.48	10.15
596.817	10.16
597.154	10.15
597.491	10.14
597.828	10.14
598.165	10.14
598.502	10.12
598.839	10.13
599.176	10.09
599.512	10.08
599.849	10.06
600.186	10.05
600.523	10.15
600.859	10.17
601.196	10.19
601.532	10.18
601.869	10.21
602.205	10.16
602.542	10.18
602.878	10.21
603.215	10.2
603.551	10.17
603.887	10.18
604.223	10.18
604.56	10.18
604.896	10.17
605.232	10.18
605.568	10.18
605.904	10.16
606.24	10.21
606.576	10.2
606.912	10.2
607.248	10.24
607.583	10.24
607.919	10.26
608.255	10.28
608.591	10.29
608.926	10.32
609.262	10.37
609.597	10.37
609.933	10.37
610.268	10.41
610.604	10.47
610.939	10.47
611.275	10.48
611.61	10.5
611.945	10.49
612.281	10.53
612.616	10.57
612.951	10.63
613.286	10.6
613.621	10.61
613.956	10.59
614.291	10.6
614.626	10.59
614.961	10.56
615.296	10.51
615.631	10.53
615.966	10.51
616.3	10.53
616.635	10.48
616.97	10.44
617.304	10.4
617.639	10.41
617.973	10.38
618.308	10.4
618.642	10.41
618.977	10.38
619.311	10.33
619.646	10.32
619.98	10.28
620.314	10.28
620.648	10.32
620.983	10.32
621.317	10.31
621.651	10.27
621.985	10.29
622.319	10.33
622.653	10.35
622.987	10.37
623.321	10.36
623.655	10.36
623.988	10.47
624.322	10.47
624.656	10.42
624.99	10.47
625.323	10.49
625.657	10.49
625.99	10.57
626.324	10.62
626.657	10.59
626.991	10.57
627.324	10.57
627.658	10.57
627.991	10.56
628.324	10.6
628.657	10.6
628.991	10.6
629.324	10.6
629.657	10.63
629.99	10.63
630.323	10.62
630.656	10.68
630.989	10.68
631.322	10.68
631.655	10.71
631.987	10.74
632.32	10.75
632.653	10.75
632.986	10.74
633.318	10.74
633.651	10.8
633.984	10.86
634.316	10.88
634.649	10.88
634.981	10.89
635.313	10.83
635.646	10.84
635.978	10.83
636.31	10.83
636.643	10.8
636.975	10.79
637.307	10.81
637.639	10.83
637.971	10.79
638.303	10.76
638.635	10.75
638.967	10.72
639.299	10.76
639.631	10.69
639.963	10.64
640.295	10.63
640.626	10.64
640.958	10.7
641.29	10.68
641.621	10.66
641.953	10.67
642.285	10.75
642.616	10.78
642.948	10.8
643.279	10.81
643.61	10.8
643.942	10.83
644.273	10.83
644.604	10.77
644.936	10.79
645.267	10.83
645.598	10.85
645.929	10.78
646.26	10.76
646.591	10.75
646.922	10.73
647.253	10.76
647.584	10.75
647.915	10.66
648.245	10.68
648.576	10.76
648.907	10.74
649.238	10.71
649.568	10.68
649.899	10.68
650.229	10.66
650.56	10.64
650.89	10.68
651.221	10.72
651.551	10.75
651.882	10.7
652.212	10.75
652.542	10.78
652.872	10.75
653.203	10.75
653.533	10.8
653.863	10.89
654.193	10.89
654.523	10.88
654.853	10.97
655.183	11.02
655.513	10.99
655.843	11.04
656.172	11.07
656.502	11.06
656.832	11.08
657.162	11.11
657.491	11.17
657.821	11.13
658.15	11.07
658.48	11.07
658.809	11.13
659.139	11.11
659.468	11.07
659.798	11.15
660.127	11.21
660.456	11.21
660.785	11.13
661.115	11.13
661.444	11.19
661.773	11.2
662.102	11.18
662.431	11.2
662.76	11.24
663.089	11.2
663.418	11.25
663.747	11.31
664.076	11.35
664.404	11.36
664.733	11.4
665.062	11.38
665.39	11.4
665.719	11.41
666.048	11.46
666.376	11.42
666.705	11.42
667.033	11.34
667.362	11.33
667.69	11.41
668.018	11.41
668.347	11.37
668.675	11.33
669.003	11.34
669.331	11.31
669.659	11.31
669.987	11.3
670.315	11.29
670.643	11.28
670.971	11.25
671.299	11.22
671.627	11.26
671.955	11.34
672.283	11.4
672.61	11.41
672.938	11.42
673.266	11.54
673.593	11.66
673.921	11.65
674.249	11.73
674.576	11.79
674.904	11.78
675.231	11.76
675.558	11.76
675.886	11.74
676.213	11.77
676.54	11.69
676.867	11.79
677.195	11.85
677.522	11.87
677.849	11.77
678.176	11.76
678.503	11.68
678.83	11.75
679.157	11.59
679.484	11.58
679.81	11.65
680.137	11.6
680.464	11.53
680.791	11.52
681.117	11.47
681.444	11.45
681.771	11.52
682.097	11.45
682.424	11.44
682.75	11.51
683.077	11.42
683.403	11.45
683.729	11.34
684.056	11.3
684.382	11.21
684.708	11.26
685.034	11.33
685.36	11.4
685.686	11.32
686.012	11.43
686.339	11.42
686.664	11.33
686.99	11.33
687.316	11.26
687.642	11.37
687.968	11.43
688.294	11.42
688.619	11.4
688.945	11.45
689.271	11.43
689.596	11.32
689.922	11.46
690.247	11.43
690.573	11.6
690.898	11.63
691.224	11.66
691.549	11.65
691.874	11.59
692.2	11.51
692.525	11.66
692.85	11.61
693.175	11.61
693.5	11.57
693.825	11.71
694.15	11.85
694.475	11.81
694.8	11.82
695.125	11.79
695.45	11.73
695.775	11.83
696.099	11.88
696.424	11.93
696.749	11.83
697.073	11.93
697.398	11.85
697.723	11.89
698.047	11.87
698.372	12
698.696	12
699.02	12.11
699.345	12.07
699.669	12.17
699.993	12.27
700.318	12.34
700.642	12.29
700.966	12.3
701.29	12.31
701.614	12.24
701.938	12.37
702.262	12.49
702.586	12.43
702.91	12.38
703.234	12.48
703.557	12.55
703.881	12.49
704.205	12.56
704.529	12.57
704.852	12.63
705.176	12.53
705.499	12.58
705.823	12.44
706.146	12.39
706.47	12.54
706.793	12.37
707.117	12.36
707.44	12.31
707.763	12.23
708.086	12.12
708.409	12.15
708.733	11.97
709.056	11.93
709.379	12.12
709.702	12.06
710.025	11.93
710.348	11.86
710.671	11.91
710.993	11.83
711.316	11.66
711.639	11.79
711.962	11.69
712.284	11.73
712.607	11.71
712.93	11.72
713.252	11.42
713.575	11.42
713.897	11.42
714.22	11.48
714.542	11.65
714.864	11.8
715.187	11.99
715.509	12.09
715.831	12.25
716.153	12.19
716.475	12.28
716.798	12.29
717.12	12.44
717.442	12.52
717.764	12.64
718.085	12.81
718.407	12.58
718.729	12.72
719.051	12.73
719.373	12.81
719.695	12.87
720.016	13.2
720.338	13.28
720.659	13.35
720.981	13.47
721.302	13.3
721.624	13.35
721.945	13.44
722.267	13.35
722.588	12.96
722.909	12.95
723.231	13.04
723.552	13.12
723.873	13.16
724.194	13
724.515	12.98
724.836	12.98
725.157	13.2
725.478	13.14
725.799	13.13
726.12	13.21
726.441	13.12
726.762	12.92
727.083	12.89
727.403	12.83
727.724	12.73
728.045	12.81
728.365	12.7
728.686	12.43
729.006	12.41
729.327	12.64
729.647	12.67
729.967	12.64
730.288	12.69
730.608	12.6
730.928	12.66
731.249	12.7
731.569	12.85
731.889	12.88
732.209	12.91
732.529	12.87
732.849	13.01
733.169	13.11
733.489	13.07
733.809	13.25
734.129	13.22
734.448	13.24
734.768	13.17
735.088	13.21
735.408	13.29
735.727	13.35
736.047	13.38
736.366	13.24
736.686	13.3
737.005	13.25
737.325	13.31
737.644	13.33
737.963	13.32
738.283	13.07
738.602	12.93
738.921	12.97
739.24	13.07
739.56	12.74
739.879	12.59
740.198	12.55
740.517	12.44
740.836	12.55
741.155	12.49
741.473	12.64
741.792	12.54
742.111	12.6
742.43	12.54
742.748	12.29
743.067	12.44
743.386	12.55
743.704	12.57
744.023	12.67
744.341	12.82
744.66	12.86
744.978	12.98
745.297	13.16
745.615	13.01
745.933	12.94
746.252	13.07
746.57	13.04
746.888	13.04
747.206	12.89
747.524	12.91
747.842	12.97
748.16	12.89
748.478	12.97
748.796	13.02
749.114	13.31
749.432	13.4
749.749	13.2
750.067	13.12
750.385	13.05
750.703	12.95
751.02	12.65
751.338	12.6
751.655	12.61
751.973	12.32
752.29	12.55
752.608	12.66
752.925	12.84
753.242	13.18
753.56	13.33
753.877	13.62
754.194	13.35
754.511	13.26
754.828	13.12
755.145	13.19
755.462	13.2
755.779	13.23
756.096	13.37
756.413	13.55
756.73	13.57
757.047	13.63
757.364	13.72
757.68	13.85
757.997	13.77
758.314	13.62
758.63	13.82
758.947	13.83
759.264	13.6
759.58	13.53
759.896	13.6
760.213	13.63
760.529	13.48
760.846	13.82
761.162	13.91
761.478	13.9
761.794	13.75
762.11	13.72
762.426	13.54
762.743	13.53
763.059	13.6
763.375	13.57
763.69	13.76
764.006	13.67
764.322	13.72
764.638	14
764.954	14.09
765.27	14.07
765.585	13.83
765.901	13.98
766.216	13.99
766.532	13.72
766.848	13.58
767.163	13.63
767.478	13.32
767.794	13.39
768.109	13.48
768.424	13.57
768.74	13.64
769.055	13.7
769.37	13.9
769.685	13.95
770	13.94
770.315	13.71
770.63	13.81
770.945	13.89
771.26	13.67
771.575	13.6
771.89	13.68
772.205	13.93
772.52	13.92
772.834	13.85
773.149	13.77
773.464	13.94
773.778	14.17
774.093	14.21
774.407	14.06
774.722	14.14
775.036	14.44
775.351	14.59
775.665	14.7
775.979	14.35
776.293	14.29
776.608	14.25
776.922	14.26
777.236	14.01
777.55	13.7
777.864	13.4
778.178	13.46
778.492	13.56
778.806	13.49
779.12	13.66
779.434	13.97
779.747	14.16
780.061	14.54
780.375	14.39
780.689	14.79
781.002	15.01
781.316	15
781.629	15.19
781.943	15.22
782.256	15.11
782.57	15.28
782.883	15.26
783.196	15.16
783.51	14.86
783.823	15.27
784.136	15.43
784.449	15.71
784.762	15.73
785.075	15.46
785.388	15.32
785.701	15.18
786.014	14.49
786.327	14.87
786.64	14.86
786.953	14.73
787.266	14.53
787.578	14.44
787.891	14.48
788.204	14.01
788.516	13.99
788.829	13.91
789.141	14.12
789.454	13.95
789.766	14.17
790.079	14.54
790.391	14.2
790.703	14.33
791.016	14.14
791.328	14.15
791.64	14.08
791.952	14.53
792.264	14.56
792.576	14.91
792.888	15.03
793.2	14.71
793.512	14.86
793.824	14.76
794.136	14.73
794.448	14.74
794.76	14.64
795.071	14.13
795.383	13.94
795.695	13.88
796.006	14.09
796.318	14.2
796.629	14.43
796.941	14.44
797.252	14.56
797.564	15.23
797.875	14.96
798.186	14.9
798.497	15.28
798.809	15.4
799.12	15.74
799.431	15.3
799.742	15.58
800.053	15.77
800.364	15.92
800.675	15.75
800.986	15.25
801.297	15.65
801.608	15.64
801.918	15.65
802.229	15.39
802.54	14.93
802.851	14.92
803.161	14.43
803.472	14.39
803.782	14.74
804.093	14.33
804.403	14.76
804.714	15.46
805.024	14.5
805.334	14.13
805.645	13.95
805.955	14.17
806.265	14.37
806.575	13.86
806.885	13.83
807.195	14.18
807.505	14.69
807.815	14.59
808.125	14.77
808.435	15.31
808.745	15.72
809.055	16.35
809.365	16.17
809.674	16.16
809.984	16.15
810.294	15.62
810.603	15.68
810.913	15.83
811.222	15.25
811.532	16.07
811.841	16.43
812.151	16.53
812.46	16.75
812.769	15.71
813.079	16.05
813.388	16.32
813.697	16.56
814.006	16.45
814.315	16.48
814.624	16.94
814.933	16.65
815.242	16.79
815.551	16.81
815.86	17.27
816.169	17.46
816.478	17.82
816.786	17.74
817.095	17.48
817.404	17.43
817.712	17.2
818.021	16.68
818.33	16.4
818.638	15.7
818.947	15.57
819.255	16.47
819.563	16.58
819.872	16.19
820.18	15.99
820.488	15.89
820.796	16.01
821.105	15.84
821.413	15.85
821.721	15.57
822.029	15.26
822.337	15.24
822.645	15.29
822.953	15.26
823.26	15.37
823.568	15.27
823.876	15.3
824.184	15.43
824.491	15.63
824.799	15.7
825.107	15.7
825.414	15.79
825.722	15.68
826.029	15.62
826.337	15.89
826.644	16
826.951	16.12
827.259	15.92
827.566	15.99
827.873	15.86
828.18	15.97
828.488	16.26
828.795	16.46
829.102	16.51
829.409	16.71
829.716	16.65
830.023	16.97
830.329	16.84
830.636	16.85
830.943	16.64
831.25	16.72
831.557	17.28
831.863	17.09
832.17	16.91
832.476	17.08
832.783	17.02
833.089	16.78
833.396	16.92
833.702	17.27
834.009	17.28
834.315	17.39
834.621	17.28
834.928	17.26
835.234	16.99
835.54	16.74
835.846	16.16
836.152	16.03
836.458	15.72
836.764	15.82
837.07	15.56
837.376	15.79
837.682	15.97
837.988	15.77
838.293	15.95
838.599	16
838.905	15.58
839.211	14.92
839.516	15.18
839.822	15.29
840.127	14.56
840.433	14.11
840.738	14.3
841.044	15.32
841.349	15.16
841.654	14.77
841.959	15.2
842.265	15.13
842.57	15.28
842.875	15.62
843.18	15.92
843.485	16.54
843.79	16.47
844.095	15.57
844.4	16.64
844.705	16.53
845.01	17.38
845.315	17.19
845.619	17.58
845.924	16.34
846.229	16.16
846.533	17.26
846.838	16.55
847.142	15.89
847.447	13.48
847.751	13.57
848.056	13.41
848.36	13.98
848.664	15.25
848.969	14.66
849.273	14.73
849.577	13.85
849.881	13.73
850.185	14.64
850.489	15.55
850.794	12.96
851.097	12.9
851.401	10.42
851.705	11.77
852.009	13.36
852.313	14.31
852.617	13.27
852.92	13.21
853.224	15.16
853.528	17.34
853.831	19.47
854.135	21.09
854.438	22.32
854.742	21.14
855.045	20.79
855.349	21.86
855.652	22
855.955	22.51
856.259	20.88
856.562	20.69
856.865	20.54
857.168	22.15
857.471	22.38
857.774	24.24
858.077	23.78
858.38	23.35
858.683	22.11
858.986	23.08
859.289	24.05
859.592	23.07
859.894	21.95
860.197	20.81
860.5	18.98
860.802	15.7
861.105	18.55
861.407	19.91
861.71	20
862.012	20.1
862.315	19.2
862.617	20.32
862.919	19.16
863.222	19.81
863.524	18.93
863.826	18.25
864.128	19.02
864.43	18.18
864.732	18.45
865.034	17.79
865.336	16.67
865.638	15.38
865.94	14.49
866.242	16.18
866.544	17.47
866.846	17.07
867.147	19.18
867.449	18.02
867.751	17.36
868.052	17.43
868.354	18.94
868.655	21.34
868.957	21.49
869.258	22.28
869.56	22.66
869.861	22.15
870.162	21.36
870.463	22.96
870.765	25.33
871.066	23.4
871.367	27.33
871.668	26.11
871.969	26.59
872.27	24.94
872.571	24.87
872.872	23.12
873.173	22.07
873.473	20.71
873.774	20.45
874.075	21.3
874.376	21.01
874.676	22.2
874.977	19.8
875.277	21.55
875.578	20.58
875.878	18.91
876.179	19.91
876.479	20.94
876.78	17.46
877.08	14.85
877.38	14.73
877.68	13.06
877.981	15.43
878.281	15.8
878.581	20.59
