Data from BA57715_Reflection_00012.txt Node
Date: Mon Nov 18 15:26:12 EST 2019
User: vgr7
Spectrometer: USB2G7710
Scans to average: 3
Trigger mode: 4
Integration Time (sec): 2.000000E-2
Electric dark correction enabled: true
Boxcar width: 10
XAxis mode: Wavelengths
Number of Pixels in Spectrum: 2048
>>>>>Begin Spectral Data<<<<<
177.721	13.22
178.105	-18.17
178.488	-13.39
178.871	-16.01
179.254	-146.11
179.636	-17.99
180.019	50.1
180.402	166.67
180.785	-112.12
181.168	94.05
181.55	83.5
181.933	114.23
182.316	111.49
182.698	142.96
183.081	216.91
183.463	344.94
183.846	308.2
184.228	1091.97
184.611	439.26
184.993	-3838.27
185.376	-631.92
185.758	-1212.68
186.14	-955.89
186.522	-841.71
186.904	1517.51
187.287	481.08
187.669	-2072.69
188.051	8496.83
188.433	2568.6
188.815	2867.2
189.197	-1514.99
189.579	-829.08
189.961	-1249.21
190.342	-437.18
190.724	-309.82
191.106	-377.56
191.488	-358.1
191.869	-286.76
192.251	-330.09
192.633	-264.44
193.014	-352.99
193.396	-699.71
193.777	-896.23
194.159	2104.44
194.54	-791.55
194.922	-310.21
195.303	-200.56
195.684	-431.22
196.065	-306.68
196.447	-254.68
196.828	-311.85
197.209	-225.1
197.59	-352.03
197.971	-234.49
198.352	-179.15
198.733	-122.85
199.114	-118.44
199.495	-160.3
199.876	-97.6
200.257	-85.75
200.638	-78.52
201.018	-76.18
201.399	-64.85
201.78	-50.07
202.16	-72.05
202.541	-88.04
202.922	-167.5
203.302	-326.9
203.683	-176.67
204.063	-206.4
204.444	-254.29
204.824	-206.78
205.204	-210.39
205.585	-164.44
205.965	-107.36
206.345	-148.52
206.725	-240.64
207.106	-285.81
207.486	-395.5
207.866	-1710.46
208.246	820.16
208.626	-1353.9
209.006	-260.45
209.386	-325.64
209.766	-277.91
210.145	-109.73
210.525	-133.07
210.905	-30.81
211.285	-3.1
211.664	-15.28
212.044	0.22
212.424	-14.28
212.803	-59.86
213.183	-66.51
213.562	-72.31
213.942	-75.89
214.321	-62.21
214.701	-86.05
215.08	-97.86
215.459	-66.35
215.838	-63.41
216.218	-78.5
216.597	-60.04
216.976	-56.08
217.355	-44.42
217.734	-51.41
218.113	-50.6
218.492	-43.47
218.871	-58.86
219.25	-55.7
219.629	-50.47
220.008	-54.39
220.387	-56.1
220.766	-39.54
221.144	-37.62
221.523	-39.08
221.902	-46.42
222.28	-47.65
222.659	-40.63
223.037	-23.2
223.416	-36.97
223.794	-49.43
224.173	-39.72
224.551	-44.93
224.929	-41.18
225.308	-36.09
225.686	-24.3
226.064	-20.22
226.442	-15.25
226.821	-6.72
227.199	-11.52
227.577	-14.95
227.955	-12.16
228.333	-7.45
228.711	-6.83
229.089	-3.41
229.467	-5.71
229.845	-7.19
230.222	-5.02
230.6	-3.88
230.978	-3.87
231.356	-1.93
231.733	-0.54
232.111	1.5
232.488	2.92
232.866	5.03
233.243	5.84
233.621	4.5
233.998	3.84
234.376	2.74
234.753	2.61
235.13	4.52
235.508	5.26
235.885	3.56
236.262	1.82
236.639	1.71
237.016	0.6
237.393	1.29
237.77	2.91
238.147	3.04
238.524	2.69
238.901	3.36
239.278	3.72
239.655	4.25
240.032	3.5
240.409	3.02
240.785	2.53
241.162	2.66
241.539	3.1
241.915	2.87
242.292	2.05
242.668	2.17
243.045	2.37
243.421	2.3
243.798	2.64
244.174	2.77
244.551	2.7
244.927	2.88
245.303	3.07
245.679	3.4
246.056	3.31
246.432	3.23
246.808	3.28
247.184	3.15
247.56	2.97
247.936	3.02
248.312	3.09
248.688	3.18
249.064	3.05
249.44	2.97
249.815	2.83
250.191	2.89
250.567	2.78
250.943	2.58
251.318	2.7
251.694	2.68
252.069	2.54
252.445	2.72
252.82	2.51
253.196	2.55
253.571	2.07
253.947	1.93
254.322	2.34
254.697	2.02
255.073	1.91
255.448	1.66
255.823	1.77
256.198	1.95
256.573	1.9
256.948	1.94
257.323	1.95
257.698	2.13
258.073	2.61
258.448	2.56
258.823	2.66
259.198	2.65
259.573	2.61
259.948	2.66
260.322	2.57
260.697	2.43
261.072	2.42
261.446	2.4
261.821	2.34
262.195	2.31
262.57	2.28
262.944	2.23
263.319	2.35
263.693	2.3
264.067	2.2
264.442	2.34
264.816	2.47
265.19	2.49
265.564	2.49
265.938	2.2
266.313	2.32
266.687	2.39
267.061	2.58
267.435	2.53
267.809	2.51
268.183	2.55
268.556	2.75
268.93	2.79
269.304	2.86
269.678	3.08
270.051	2.95
270.425	2.94
270.799	2.9
271.172	2.99
271.546	2.94
271.919	2.81
272.293	2.73
272.666	2.64
273.04	2.64
273.413	2.63
273.787	2.71
274.16	2.67
274.533	2.71
274.906	2.58
275.279	2.59
275.653	2.68
276.026	2.76
276.399	2.79
276.772	2.83
277.145	2.65
277.518	2.55
277.891	2.49
278.263	2.44
278.636	2.72
279.009	2.74
279.382	2.88
279.755	2.99
280.127	3.07
280.5	3.22
280.872	3.21
281.245	3.2
281.617	3.28
281.99	3.35
282.362	3.22
282.735	3.1
283.107	2.99
283.479	2.83
283.852	2.82
284.224	2.79
284.596	2.71
284.968	2.94
285.34	3.03
285.713	3.26
286.085	3.3
286.457	3.28
286.829	3.3
287.201	3.3
287.572	3.14
287.944	3.13
288.316	3.01
288.688	3.01
289.06	3.16
289.431	3.15
289.803	3.1
290.175	3.05
290.546	3.25
290.918	3.38
291.289	3.53
291.661	3.6
292.032	3.75
292.403	3.79
292.775	3.8
293.146	3.7
293.517	3.64
293.889	3.71
294.26	3.6
294.631	3.59
295.002	3.52
295.373	3.64
295.744	3.65
296.115	3.8
296.486	3.7
296.857	3.69
297.228	3.69
297.599	3.66
297.97	3.84
298.34	3.79
298.711	3.84
299.082	3.82
299.452	3.83
299.823	3.8
300.194	3.78
300.564	3.71
300.935	3.88
301.305	3.76
301.676	3.82
302.046	3.89
302.416	3.98
302.787	4.13
303.157	4.24
303.527	4.11
303.897	4.07
304.267	4.27
304.637	4.18
305.008	4.37
305.378	4.53
305.748	4.62
306.117	4.66
306.487	4.81
306.857	4.91
307.227	4.99
307.597	5.01
307.967	5.17
308.336	5.25
308.706	5.22
309.076	5.31
309.445	5.28
309.815	5.4
310.184	5.36
310.554	5.45
310.923	5.39
311.293	5.54
311.662	5.57
312.031	5.62
312.401	5.78
312.77	5.8
313.139	5.85
313.508	5.83
313.877	5.85
314.246	5.87
314.616	5.85
314.985	5.8
315.353	5.86
315.722	5.94
316.091	5.95
316.46	5.8
316.829	5.84
317.198	5.95
317.567	5.82
317.935	5.93
318.304	5.98
318.672	6.2
319.041	6.3
319.41	6.39
319.778	6.49
320.147	6.47
320.515	6.37
320.883	6.47
321.252	6.5
321.62	6.57
321.988	6.47
322.357	6.53
322.725	6.55
323.093	6.55
323.461	6.56
323.829	6.62
324.197	6.85
324.565	7.02
324.933	6.99
325.301	7.22
325.669	7.17
326.037	7.16
326.405	7.04
326.772	7.07
327.14	7.01
327.508	6.97
327.875	6.97
328.243	6.98
328.61	6.99
328.978	6.95
329.346	7.12
329.713	7.08
330.08	7.14
330.448	7.09
330.815	6.98
331.182	7.03
331.55	7.1
331.917	7.15
332.284	7.15
332.651	7.19
333.018	7.2
333.385	7.37
333.752	7.48
334.119	7.65
334.486	7.63
334.853	7.75
335.22	7.81
335.587	7.82
335.954	7.87
336.32	7.84
336.687	7.98
337.054	7.84
337.42	8
337.787	8.11
338.153	8.25
338.52	8.45
338.886	8.46
339.253	8.33
339.619	8.38
339.986	8.38
340.352	8.55
340.718	8.5
341.084	8.49
341.451	8.43
341.817	8.65
342.183	8.72
342.549	8.63
342.915	8.73
343.281	8.72
343.647	8.82
344.013	8.87
344.379	8.78
344.745	8.84
345.11	8.95
345.476	8.93
345.842	8.9
346.208	8.98
346.573	9.05
346.939	9.31
347.304	9.28
347.67	9.39
348.035	9.39
348.401	9.49
348.766	9.45
349.132	9.5
349.497	9.35
349.862	9.45
350.228	9.54
350.593	9.54
350.958	9.62
351.323	9.54
351.688	9.49
352.053	9.66
352.418	9.68
352.783	9.54
353.148	9.52
353.513	9.54
353.878	9.48
354.243	9.46
354.608	9.35
354.972	9.39
355.337	9.28
355.702	9.24
356.066	9.28
356.431	9.3
356.795	9.26
357.16	9.24
357.524	9.13
357.889	9.11
358.253	9.14
358.618	9.16
358.982	9.17
359.346	9.14
359.71	9.07
360.075	9.07
360.439	9.12
360.803	9.08
361.167	9.01
361.531	8.94
361.895	8.91
362.259	8.89
362.623	8.81
362.987	8.79
363.351	8.8
363.714	8.77
364.078	8.75
364.442	8.64
364.806	8.62
365.169	8.68
365.533	8.63
365.896	8.52
366.26	8.46
366.623	8.4
366.987	8.39
367.35	8.4
367.714	8.32
368.077	8.29
368.44	8.35
368.803	8.35
369.167	8.37
369.53	8.29
369.893	8.25
370.256	8.29
370.619	8.29
370.982	8.21
371.345	8.08
371.708	8.07
372.071	8.08
372.434	8.05
372.797	7.97
373.159	7.9
373.522	7.91
373.885	7.91
374.247	7.89
374.61	7.81
374.973	7.69
375.335	7.64
375.698	7.55
376.06	7.49
376.423	7.49
376.785	7.42
377.147	7.45
377.51	7.41
377.872	7.34
378.234	7.27
378.596	7.24
378.958	7.22
379.321	7.2
379.683	7.26
380.045	7.2
380.407	7.11
380.769	7.12
381.13	7
381.492	6.91
381.854	6.91
382.216	6.91
382.578	6.85
382.939	6.82
383.301	6.76
383.663	6.67
384.024	6.62
384.386	6.6
384.747	6.51
385.109	6.49
385.47	6.43
385.832	6.46
386.193	6.47
386.554	6.4
386.916	6.3
387.277	6.23
387.638	6.22
387.999	6.2
388.36	6.18
388.721	6.19
389.082	6.18
389.443	6.04
389.804	5.98
390.165	5.97
390.526	5.93
390.887	5.9
391.248	5.92
391.609	5.87
391.969	5.84
392.33	5.81
392.691	5.74
393.051	5.7
393.412	5.61
393.772	5.55
394.133	5.55
394.493	5.53
394.854	5.47
395.214	5.37
395.574	5.34
395.935	5.28
396.295	5.21
396.655	5.16
397.015	5.19
397.376	5.16
397.736	5.1
398.096	5.07
398.456	5.06
398.816	4.97
399.176	4.88
399.535	4.86
399.895	4.81
400.255	4.78
400.615	4.73
400.975	4.72
401.334	4.67
401.694	4.59
402.054	4.57
402.413	4.56
402.773	4.55
403.132	4.51
403.492	4.49
403.851	4.47
404.211	4.43
404.57	4.37
404.929	4.35
405.288	4.32
405.648	4.32
406.007	4.3
406.366	4.3
406.725	4.34
407.084	4.32
407.443	4.3
407.802	4.32
408.161	4.31
408.52	4.27
408.879	4.24
409.238	4.25
409.596	4.23
409.955	4.18
410.314	4.18
410.673	4.14
411.031	4.1
411.39	4.08
411.748	4.08
412.107	4.09
412.465	4.06
412.824	4.04
413.182	4
413.54	3.98
413.899	3.96
414.257	3.92
414.615	3.89
414.974	3.89
415.332	3.85
415.69	3.83
416.048	3.81
416.406	3.81
416.764	3.78
417.122	3.75
417.48	3.71
417.838	3.7
418.195	3.69
418.553	3.67
418.911	3.66
419.269	3.65
419.626	3.62
419.984	3.62
420.342	3.61
420.699	3.58
421.057	3.56
421.414	3.53
421.772	3.51
422.129	3.51
422.486	3.49
422.844	3.48
423.201	3.46
423.558	3.45
423.915	3.44
424.273	3.42
424.63	3.42
424.987	3.42
425.344	3.4
425.701	3.4
426.058	3.39
426.415	3.38
426.772	3.35
427.128	3.36
427.485	3.33
427.842	3.33
428.199	3.34
428.555	3.3
428.912	3.33
429.269	3.33
429.625	3.3
429.982	3.29
430.338	3.28
430.695	3.27
431.051	3.25
431.407	3.24
431.764	3.25
432.12	3.22
432.476	3.2
432.832	3.17
433.189	3.16
433.545	3.15
433.901	3.14
434.257	3.11
434.613	3.09
434.969	3.1
435.325	3.1
435.681	3.1
436.036	3.11
436.392	3.1
436.748	3.11
437.104	3.1
437.459	3.1
437.815	3.1
438.171	3.1
438.526	3.09
438.882	3.11
439.237	3.1
439.593	3.12
439.948	3.12
440.304	3.13
440.659	3.14
441.014	3.15
441.369	3.14
441.725	3.15
442.08	3.15
442.435	3.14
442.79	3.14
443.145	3.14
443.5	3.13
443.855	3.11
444.21	3.1
444.565	3.08
444.92	3.07
445.275	3.07
445.629	3.07
445.984	3.09
446.339	3.05
446.693	3.04
447.048	3.03
447.403	3.03
447.757	3.04
448.112	3.01
448.466	2.99
448.82	3.01
449.175	3
449.529	3
449.883	2.98
450.238	2.96
450.592	2.95
450.946	2.95
451.3	2.93
451.654	2.9
452.008	2.91
452.362	2.9
452.716	2.89
453.07	2.88
453.424	2.86
453.778	2.84
454.132	2.83
454.486	2.83
454.839	2.82
455.193	2.8
455.547	2.82
455.9	2.82
456.254	2.81
456.607	2.81
456.961	2.81
457.314	2.84
457.668	2.85
458.021	2.85
458.375	2.85
458.728	2.87
459.081	2.88
459.434	2.89
459.787	2.9
460.141	2.9
460.494	2.91
460.847	2.92
461.2	2.94
461.553	2.96
461.906	2.96
462.259	2.96
462.611	2.98
462.964	2.99
463.317	3
463.67	3.01
464.022	3.01
464.375	3.04
464.728	3.04
465.08	3.03
465.433	3.04
465.785	3.04
466.138	3.06
466.49	3.06
466.843	3.06
467.195	3.06
467.547	3.07
467.899	3.08
468.252	3.09
468.604	3.11
468.956	3.09
469.308	3.11
469.66	3.12
470.012	3.13
470.364	3.14
470.716	3.15
471.068	3.14
471.42	3.17
471.772	3.17
472.123	3.16
472.475	3.19
472.827	3.2
473.178	3.2
473.53	3.19
473.882	3.21
474.233	3.22
474.585	3.22
474.936	3.23
475.288	3.21
475.639	3.2
475.99	3.16
476.342	3.17
476.693	3.15
477.044	3.15
477.395	3.16
477.746	3.15
478.097	3.15
478.448	3.16
478.8	3.14
479.15	3.12
479.501	3.11
479.852	3.11
480.203	3.12
480.554	3.13
480.905	3.12
481.255	3.12
481.606	3.13
481.957	3.13
482.307	3.12
482.658	3.12
483.009	3.13
483.359	3.15
483.709	3.15
484.06	3.16
484.41	3.17
484.761	3.17
485.111	3.17
485.461	3.19
485.811	3.19
486.162	3.2
486.512	3.2
486.862	3.21
487.212	3.22
487.562	3.23
487.912	3.22
488.262	3.23
488.612	3.24
488.961	3.24
489.311	3.25
489.661	3.26
490.011	3.28
490.36	3.28
490.71	3.29
491.06	3.31
491.409	3.31
491.759	3.31
492.108	3.31
492.458	3.33
492.807	3.32
493.157	3.36
493.506	3.39
493.855	3.41
494.204	3.42
494.554	3.41
494.903	3.42
495.252	3.45
495.601	3.47
495.95	3.49
496.299	3.53
496.648	3.56
496.997	3.58
497.346	3.62
497.695	3.66
498.043	3.7
498.392	3.72
498.741	3.76
499.09	3.81
499.438	3.88
499.787	3.92
500.135	3.96
500.484	3.97
500.832	4.01
501.181	4.06
501.529	4.1
501.878	4.18
502.226	4.24
502.574	4.32
502.923	4.36
503.271	4.42
503.619	4.47
503.967	4.54
504.315	4.57
504.663	4.64
505.011	4.69
505.359	4.74
505.707	4.8
506.055	4.87
506.403	4.95
506.751	5.01
507.098	5.08
507.446	5.17
507.794	5.24
508.141	5.3
508.489	5.39
508.837	5.49
509.184	5.56
509.531	5.65
509.879	5.73
510.226	5.82
510.574	5.88
510.921	5.96
511.268	6.03
511.616	6.14
511.963	6.24
512.31	6.33
512.657	6.46
513.004	6.55
513.351	6.65
513.698	6.73
514.045	6.81
514.392	6.91
514.739	7
515.086	7.11
515.432	7.23
515.779	7.32
516.126	7.43
516.473	7.54
516.819	7.63
517.166	7.71
517.512	7.8
517.859	7.92
518.205	8.02
518.552	8.13
518.898	8.21
519.245	8.29
519.591	8.39
519.937	8.46
520.283	8.58
520.629	8.68
520.976	8.81
521.322	8.96
521.668	9.11
522.014	9.27
522.36	9.43
522.706	9.59
523.052	9.78
523.398	9.98
523.743	10.18
524.089	10.4
524.435	10.61
524.781	10.8
525.126	10.98
525.472	11.13
525.817	11.27
526.163	11.44
526.509	11.59
526.854	11.72
527.199	11.88
527.545	12.02
527.89	12.16
528.235	12.29
528.581	12.43
528.926	12.55
529.271	12.69
529.616	12.84
529.961	12.98
530.306	13.12
530.651	13.27
530.996	13.43
531.341	13.6
531.686	13.78
532.031	13.97
532.376	14.17
532.721	14.38
533.065	14.6
533.41	14.83
533.755	15.04
534.099	15.28
534.444	15.47
534.788	15.68
535.133	15.89
535.477	16.13
535.822	16.39
536.166	16.68
536.51	16.95
536.855	17.24
537.199	17.57
537.543	17.88
537.887	18.19
538.231	18.48
538.576	18.79
538.92	19.12
539.264	19.43
539.608	19.72
539.951	20.01
540.295	20.27
540.639	20.5
540.983	20.75
541.327	20.99
541.671	21.27
542.014	21.55
542.358	21.8
542.701	22.04
543.045	22.29
543.389	22.54
543.732	22.83
544.075	23.05
544.419	23.28
544.762	23.56
545.105	23.85
545.449	24.18
545.792	24.49
546.135	24.78
546.478	25.07
546.821	25.41
547.165	25.72
547.508	26.05
547.851	26.39
548.194	26.71
548.536	27.03
548.879	27.38
549.222	27.66
549.565	28
549.908	28.33
550.25	28.62
550.593	28.98
550.936	29.26
551.278	29.64
551.621	30.01
551.963	30.34
552.306	30.6
552.648	30.91
552.991	31.2
553.333	31.5
553.675	31.81
554.017	32.1
554.36	32.46
554.702	32.74
555.044	33
555.386	33.37
555.728	33.68
556.07	33.96
556.412	34.3
556.754	34.61
557.096	34.91
557.438	35.19
557.78	35.41
558.121	35.68
558.463	35.98
558.805	36.19
559.147	36.46
559.488	36.71
559.83	36.95
560.171	37.25
560.513	37.56
560.854	37.81
561.196	38.06
561.537	38.22
561.878	38.48
562.22	38.8
562.561	39.04
562.902	39.34
563.243	39.62
563.584	39.83
563.925	40.08
564.266	40.36
564.607	40.59
564.948	40.84
565.289	41.1
565.63	41.28
565.971	41.53
566.312	41.71
566.653	41.96
566.993	42.16
567.334	42.34
567.675	42.51
568.015	42.72
568.356	42.91
568.696	43.2
569.037	43.42
569.377	43.57
569.718	43.74
570.058	43.89
570.398	44.02
570.739	44.23
571.079	44.43
571.419	44.56
571.759	44.77
572.099	44.91
572.439	44.98
572.779	45.14
573.119	45.28
573.459	45.46
573.799	45.64
574.139	45.82
574.479	45.99
574.819	46.09
575.158	46.25
575.498	46.38
575.838	46.47
576.177	46.58
576.517	46.74
576.856	46.86
577.196	46.94
577.535	47.14
577.875	47.27
578.214	47.3
578.553	47.46
578.893	47.59
579.232	47.75
579.571	48
579.91	48.14
580.25	48.29
580.589	48.4
580.928	48.53
581.267	48.62
581.606	48.74
581.945	48.89
582.283	48.97
582.622	49.11
582.961	49.26
583.3	49.37
583.639	49.46
583.977	49.57
584.316	49.71
584.654	49.67
584.993	49.78
585.332	49.97
585.67	50.03
586.008	50.11
586.347	50.16
586.685	50.21
587.024	50.35
587.362	50.46
587.7	50.53
588.038	50.6
588.376	50.71
588.715	50.78
589.053	50.89
589.391	50.99
589.729	50.99
590.067	51.05
590.404	51.11
590.742	51.19
591.08	51.27
591.418	51.38
591.756	51.52
592.093	51.57
592.431	51.63
592.769	51.77
593.106	51.91
593.444	52.05
593.781	52.14
594.119	52.16
594.456	52.21
594.793	52.35
595.131	52.44
595.468	52.48
595.805	52.56
596.143	52.65
596.48	52.69
596.817	52.81
597.154	52.88
597.491	52.97
597.828	53.03
598.165	53.14
598.502	53.16
598.839	53.26
599.176	53.35
599.512	53.39
599.849	53.46
600.186	53.47
600.523	53.44
600.859	53.46
601.196	53.54
601.532	53.56
601.869	53.55
602.205	53.59
602.542	53.74
602.878	53.76
603.215	53.8
603.551	53.82
603.887	53.83
604.223	53.88
604.56	53.94
604.896	53.98
605.232	54.02
605.568	54.04
605.904	54.07
606.24	54.06
606.576	54.07
606.912	54.09
607.248	54.14
607.583	54.25
607.919	54.36
608.255	54.39
608.591	54.48
608.926	54.59
609.262	54.64
609.597	54.66
609.933	54.68
610.268	54.75
610.604	54.83
610.939	54.9
611.275	54.9
611.61	54.92
611.945	55.02
612.281	55.05
612.616	55.14
612.951	55.26
613.286	55.39
613.621	55.49
613.956	55.54
614.291	55.62
614.626	55.65
614.961	55.6
615.296	55.62
615.631	55.69
615.966	55.67
616.3	55.72
616.635	55.79
616.97	55.91
617.304	55.92
617.639	55.97
617.973	56.04
618.308	56.13
618.642	56.17
618.977	56.18
619.311	56.14
619.646	56.18
619.98	56.16
620.314	56.2
620.648	56.2
620.983	56.23
621.317	56.2
621.651	56.28
621.985	56.31
622.319	56.41
622.653	56.51
622.987	56.63
623.321	56.64
623.655	56.61
623.988	56.55
624.322	56.56
624.656	56.55
624.99	56.59
625.323	56.66
625.657	56.65
625.99	56.68
626.324	56.75
626.657	56.78
626.991	56.74
627.324	56.74
627.658	56.83
627.991	56.89
628.324	56.95
628.657	56.88
628.991	56.92
629.324	56.94
629.657	56.95
629.99	56.85
630.323	56.86
630.656	56.84
630.989	56.87
631.322	56.92
631.655	57
631.987	57
632.32	56.93
632.653	56.96
632.986	56.89
633.318	56.92
633.651	56.98
633.984	57.02
634.316	57.06
634.649	57.03
634.981	56.99
635.313	56.96
635.646	57.01
635.978	57.07
636.31	57.1
636.643	57
636.975	57.01
637.307	57.06
637.639	57.15
637.971	57.22
638.303	57.12
638.635	57.03
638.967	57.05
639.299	57.08
639.631	57.04
639.963	57.03
640.295	57.06
640.626	57.04
640.958	57.12
641.29	57.12
641.621	57.23
641.953	57.3
642.285	57.35
642.616	57.46
642.948	57.54
643.279	57.56
643.61	57.66
643.942	57.75
644.273	57.72
644.604	57.7
644.936	57.66
645.267	57.75
645.598	57.89
645.929	57.89
646.26	57.91
646.591	57.95
646.922	58
647.253	58.01
647.584	57.89
647.915	57.84
648.245	57.83
648.576	57.78
648.907	57.67
649.238	57.67
649.568	57.64
649.899	57.69
650.229	57.65
650.56	57.75
650.89	57.78
651.221	57.93
651.551	57.9
651.882	57.97
652.212	57.99
652.542	57.96
652.872	57.91
653.203	57.96
653.533	57.97
653.863	58.09
654.193	58.09
654.523	58.23
654.853	58.25
655.183	58.34
655.513	58.33
655.843	58.46
656.172	58.51
656.502	58.55
656.832	58.43
657.162	58.46
657.491	58.47
657.821	58.42
658.15	58.37
658.48	58.39
658.809	58.37
659.139	58.42
659.468	58.47
659.798	58.56
660.127	58.57
660.456	58.65
660.785	58.62
661.115	58.74
661.444	58.78
661.773	58.81
662.102	58.75
662.431	58.75
662.76	58.79
663.089	58.82
663.418	58.84
663.747	58.97
664.076	59.05
664.404	58.93
664.733	59.03
665.062	58.95
665.39	58.99
665.719	58.99
666.048	58.92
666.376	58.85
666.705	58.91
667.033	58.89
667.362	58.79
667.69	58.82
668.018	58.82
668.347	58.85
668.675	58.95
669.003	59.07
669.331	59.18
669.659	59.16
669.987	59.2
670.315	59.28
670.643	59.18
670.971	59.06
671.299	59.17
671.627	59.19
671.955	59.35
672.283	59.37
672.61	59.41
672.938	59.49
673.266	59.41
673.593	59.45
673.921	59.42
674.249	59.6
674.576	59.46
674.904	59.35
675.231	59.19
675.558	59.2
675.886	59.06
676.213	58.98
676.54	58.93
676.867	58.94
677.195	58.77
677.522	58.85
677.849	58.9
678.176	58.91
678.503	58.9
678.83	58.91
679.157	58.88
679.484	58.89
679.81	59
680.137	59.26
680.464	59.24
680.791	59.34
681.117	59.22
681.444	59.32
681.771	59.32
682.097	59.37
682.424	59.31
682.75	59.45
683.077	59.48
683.403	59.49
683.729	59.43
684.056	59.51
684.382	59.53
684.708	59.56
685.034	59.56
685.36	59.46
685.686	59.31
686.012	59.19
686.339	59.26
686.664	59.15
686.99	59.04
687.316	59.08
687.642	59.24
687.968	59.25
688.294	59.38
688.619	59.43
688.945	59.43
689.271	59.38
689.596	59.32
689.922	59.31
690.247	59.3
690.573	59.38
690.898	59.38
691.224	59.33
691.549	59.29
691.874	59.32
692.2	59.5
692.525	59.71
692.85	59.88
693.175	59.74
693.5	59.73
693.825	59.77
694.15	59.67
694.475	59.64
694.8	59.63
695.125	59.69
695.45	59.78
695.775	59.92
696.099	59.97
696.424	60
696.749	59.99
697.073	60.17
697.398	60.08
697.723	60.05
698.047	60.1
698.372	60.04
698.696	60.05
699.02	60
699.345	59.89
699.669	59.89
699.993	59.99
700.318	60.06
700.642	59.88
700.966	60.04
701.29	59.93
701.614	60.05
701.938	59.81
702.262	59.82
702.586	59.93
702.91	59.85
703.234	59.71
703.557	59.88
703.881	59.75
704.205	59.81
704.529	59.94
704.852	59.87
705.176	59.83
705.499	59.86
705.823	59.73
706.146	59.78
706.47	59.8
706.793	59.73
707.117	59.53
707.44	59.85
707.763	59.78
708.086	59.75
708.409	59.76
708.733	59.84
709.056	59.73
709.379	59.6
709.702	59.71
710.025	59.91
710.348	59.8
710.671	59.69
710.993	59.61
711.316	59.64
711.639	59.66
711.962	59.83
712.284	59.73
712.607	59.8
712.93	59.83
713.252	59.86
713.575	59.78
713.897	59.9
714.22	59.76
714.542	59.83
714.864	59.86
715.187	59.9
715.509	59.99
715.831	59.91
716.153	59.94
716.475	60.19
716.798	60.18
717.12	60.07
717.442	60.16
717.764	60.16
718.085	60
718.407	59.89
718.729	59.74
719.051	59.83
719.373	59.88
719.695	59.76
720.016	59.96
720.338	60.25
720.659	60.26
720.981	60.16
721.302	60
721.624	60.13
721.945	60.22
722.267	60.25
722.588	60.24
722.909	60.23
723.231	59.94
723.552	59.75
723.873	59.72
724.194	59.75
724.515	60.02
724.836	60.11
725.157	60.36
725.478	60.45
725.799	60.4
726.12	60.41
726.441	60.51
726.762	60.28
727.083	60.23
727.403	60.1
727.724	60.15
728.045	60.02
728.365	59.87
728.686	59.68
729.006	59.8
729.327	59.84
729.647	60.08
729.967	60.07
730.288	60.2
730.608	60.19
730.928	60.26
731.249	60.04
731.569	59.93
731.889	59.85
732.209	59.99
732.529	60.13
732.849	59.92
733.169	59.87
733.489	60.02
733.809	60.01
734.129	60.13
734.448	60.07
734.768	60.3
735.088	60.3
735.408	60.24
735.727	60.12
736.047	60.39
736.366	60.04
736.686	60.28
737.005	60.18
737.325	60.32
737.644	60.28
737.963	60.12
738.283	60.19
738.602	60.25
738.921	60.19
739.24	60.07
739.56	60.16
739.879	60.07
740.198	59.92
740.517	59.67
740.836	59.74
741.155	59.57
741.473	59.25
741.792	59.21
742.111	59.29
742.43	59.19
742.748	58.94
743.067	58.87
743.386	58.62
743.704	58.46
744.023	58.69
744.341	58.69
744.66	59.04
744.978	58.91
745.297	59
745.615	58.92
745.933	58.7
746.252	58.96
746.57	59.18
746.888	59.21
747.206	59.41
747.524	59.28
747.842	59.65
748.16	59.99
748.478	60.24
748.796	60.5
749.114	60.53
749.432	60.72
749.749	60.78
750.067	60.84
750.385	60.83
750.703	60.47
751.02	60.35
751.338	60.06
751.655	60.35
751.973	60.04
752.29	60.25
752.608	60.25
752.925	60.16
753.242	60.12
753.56	60.38
753.877	60.43
754.194	60.52
754.511	60.63
754.828	60.27
755.145	60.09
755.462	60.05
755.779	60.1
756.096	60.2
756.413	60.11
756.73	60.12
757.047	60.4
757.364	60.46
757.68	60.47
757.997	60.76
758.314	60.76
758.63	61.03
758.947	61.02
759.264	61.16
759.58	60.87
759.896	60.77
760.213	60.02
760.529	59.86
760.846	59.75
761.162	59.75
761.478	60.12
761.794	60.15
762.11	60.22
762.426	60.33
762.743	60.27
763.059	60.13
763.375	60.01
763.69	59.98
764.006	60.12
764.322	60.23
764.638	60.31
764.954	60.32
765.27	60.16
765.585	59.83
765.901	60.01
766.216	59.98
766.532	60.14
766.848	60.65
767.163	60.92
767.478	60.98
767.794	60.86
768.109	60.58
768.424	60.61
768.74	60.47
769.055	60.24
769.37	60.32
769.685	60.91
770	60.91
770.315	61.18
770.63	61.22
770.945	61.33
771.26	61.06
771.575	60.79
771.89	60.94
772.205	61.04
772.52	60.94
772.834	61.45
773.149	61.39
773.464	61.09
773.778	61.17
774.093	61.13
774.407	61.17
774.722	61.58
775.036	61.53
775.351	61.2
775.665	61.32
775.979	61
776.293	60.56
776.608	61.02
776.922	60.53
777.236	60.16
777.55	59.9
777.864	60.14
778.178	60.59
778.492	60.55
778.806	60.92
779.12	60.78
779.434	60.47
779.747	59.9
780.061	59.97
780.375	59.49
780.689	59.6
781.002	59.85
781.316	59.69
781.629	60.22
781.943	60.58
782.256	60.45
782.57	60.35
782.883	60.86
783.196	60.49
783.51	60.77
783.823	60.93
784.136	60.67
784.449	60.57
784.762	60.46
785.075	60.56
785.388	60.27
785.701	60.14
786.014	60.04
786.327	60.49
786.64	60.64
786.953	60.43
787.266	60.27
787.578	60.45
787.891	60.85
788.204	60.16
788.516	59.68
788.829	60.34
789.141	60.7
789.454	60.19
789.766	59.73
790.079	60.2
790.391	60.23
790.703	60.52
791.016	60.89
791.328	60.97
791.64	60.84
791.952	60.45
792.264	60.89
792.576	61.14
792.888	61.28
793.2	61.2
793.512	61.44
793.824	61.14
794.136	60.9
794.448	60.25
794.76	60.61
795.071	60.63
795.383	59.85
795.695	59.48
796.006	59.49
796.318	59.93
796.629	59.87
796.941	59.59
797.252	60.03
797.564	59.61
797.875	59.08
798.186	58.76
798.497	59.21
798.809	59.48
799.12	59.22
799.431	59.03
799.742	58.99
800.053	59.17
800.364	59.45
800.675	59.25
800.986	59.44
801.297	59.25
801.608	59.2
801.918	59.76
802.229	60.02
802.54	59.37
802.851	59.4
803.161	58.56
803.472	58.51
803.782	57.84
804.093	57.93
804.403	58.1
804.714	58.5
805.024	58.68
805.334	57.55
805.645	57.91
805.955	57.94
806.265	57.85
806.575	57.33
806.885	57.51
807.195	57.73
807.505	58.06
807.815	57.83
808.125	57.89
808.435	57.41
808.745	57.59
809.055	58.76
809.365	58.93
809.674	59.29
809.984	59.74
810.294	60.58
810.603	60.12
810.913	60.15
811.222	60.06
811.532	60.48
811.841	60.77
812.151	60.56
812.46	60.66
812.769	60.88
813.079	61.46
813.388	61.84
813.697	61.51
814.006	61.15
814.315	61.19
814.624	61.72
814.933	62.03
815.242	62.37
815.551	61.81
815.86	61.52
816.169	61.94
816.478	62.79
816.786	62.29
817.095	62.74
817.404	62.68
817.712	62.17
818.021	62.6
818.33	62.72
818.638	63.09
818.947	63.76
819.255	63.36
819.563	62.95
819.872	62.75
820.18	62.69
820.488	62.48
820.796	62.5
821.105	62.38
821.413	62.46
821.721	62.37
822.029	62.37
822.337	62.33
822.645	62.08
822.953	61.88
823.26	61.81
823.568	61.86
823.876	61.91
824.184	62.05
824.491	61.83
824.799	61.86
825.107	61.79
825.414	61.52
825.722	61.49
826.029	61.81
826.337	61.71
826.644	61.79
826.951	61.72
827.259	61.74
827.566	61.67
827.873	61.53
828.18	61.59
828.488	61.48
828.795	61.53
829.102	61.64
829.409	61.37
829.716	61.58
830.023	61.1
830.329	61.43
830.636	61.45
830.943	61.51
831.25	61.63
831.557	62.02
831.863	61.81
832.17	62.12
832.476	61.56
832.783	61.94
833.089	61.92
833.396	62.23
833.702	62.19
834.009	62.62
834.315	62.38
834.621	62.21
834.928	62.79
835.234	62.52
835.54	62.43
835.846	62.44
836.152	61.97
836.458	62.48
836.764	61.88
837.07	62.02
837.376	61.77
837.682	61.03
837.988	60.33
838.293	60.43
838.599	60.72
838.905	60.84
839.211	60.94
839.516	60.28
839.822	60.36
840.127	60.34
840.433	59.26
840.738	59.58
841.044	58.39
841.349	57.57
841.654	58.3
841.959	58.37
842.265	57.84
842.57	58.42
842.875	58.44
843.18	57.96
843.485	56.8
843.79	56.85
844.095	57.08
844.4	56.27
844.705	55.84
845.01	54.62
845.315	54.87
845.619	54.27
845.924	55.67
846.229	55.16
846.533	54.54
846.838	55.67
847.142	55.93
847.447	55.96
847.751	53.5
848.056	53.23
848.36	52.8
848.664	53.82
848.969	53.31
849.273	53.2
849.577	54.73
849.881	57.86
850.185	58.11
850.489	58.84
850.794	59.16
851.097	57.44
851.401	57.41
851.705	55.68
852.009	56.44
852.313	55.03
852.617	53.8
852.92	54.86
853.224	54.99
853.528	53.19
853.831	53.3
854.135	55.06
854.438	53.15
854.742	52.78
855.045	53.09
855.349	51.75
855.652	51.79
855.955	51.91
856.259	51.64
856.562	52.4
856.865	52.95
857.168	53.16
857.471	55
857.774	53.27
858.077	54.06
858.38	55.12
858.683	55.15
858.986	59.15
859.289	59.38
859.592	58.69
859.894	61.06
860.197	60.67
860.5	62
860.802	63.9
861.105	63.71
861.407	64.73
861.71	65.59
862.012	65.08
862.315	63.33
862.617	61.26
862.919	59.98
863.222	60.93
863.524	63.35
863.826	66.33
864.128	68.03
864.43	68.02
864.732	66.08
865.034	64.7
865.336	60.31
865.638	59.81
865.94	60.13
866.242	58.19
866.544	59.24
866.846	58.72
867.147	59.73
867.449	60.63
867.751	57.92
868.052	60.52
868.354	60.54
868.655	60.99
868.957	61.36
869.258	61.59
869.56	60.33
869.861	56.54
870.162	54.8
870.463	55.22
870.765	54.82
871.066	54.1
871.367	53.68
871.668	53.5
871.969	53.67
872.27	53.51
872.571	51.43
872.872	51.92
873.173	50.91
873.473	50.18
873.774	49.47
874.075	51.77
874.376	47.91
874.676	49.08
874.977	48.82
875.277	49.52
875.578	48.55
875.878	48.22
876.179	50.22
876.479	49.09
876.78	47.9
877.08	47.93
877.38	47.29
877.68	49.17
877.981	50.64
878.281	49.07
878.581	47.88
