Data from BA57662_Reflection_00010.txt Node
Date: Mon Nov 18 15:34:42 EST 2019
User: vgr7
Spectrometer: USB2G7710
Scans to average: 3
Trigger mode: 4
Integration Time (sec): 2.000000E-2
Electric dark correction enabled: true
Boxcar width: 10
XAxis mode: Wavelengths
Number of Pixels in Spectrum: 2048
>>>>>Begin Spectral Data<<<<<
177.721	71.38
178.105	10.75
178.488	23.25
178.871	-3.52
179.254	13.44
179.636	141.35
180.019	240.28
180.402	229.41
180.785	73.85
181.168	250.14
181.55	453.36
181.933	123.05
182.316	134.31
182.698	86.33
183.081	90.97
183.463	98.84
183.846	88.93
184.228	109.7
184.611	153.91
184.993	220.41
185.376	362.3
185.758	427.78
186.14	468.19
186.522	827.27
186.904	-748.76
187.287	-1445.82
187.669	-240.11
188.051	-268.12
188.433	-111.18
188.815	-57.68
189.197	-53.33
189.579	-33.89
189.961	-42.48
190.342	-27.51
190.724	-27.5
191.106	-29.8
191.488	-30.95
191.869	-23.71
192.251	-23.92
192.633	-17.17
193.014	-32.12
193.396	-33.37
193.777	-39.08
194.159	-37.08
194.54	0.36
194.922	-3.76
195.303	-10.24
195.684	-63.95
196.065	-58.02
196.447	-134.11
196.828	-149.89
197.209	-137.27
197.59	-122.8
197.971	-103
198.352	-75.56
198.733	-96.07
199.114	-97.55
199.495	-74.47
199.876	-71.62
200.257	-56.64
200.638	-43.45
201.018	-45.28
201.399	-43.72
201.78	-40.48
202.16	-47.82
202.541	-50.35
202.922	-70.71
203.302	-58.7
203.683	-28.08
204.063	-33.38
204.444	-11.91
204.824	-5.79
205.204	-4.31
205.585	3.22
205.965	5.63
206.345	-3.34
206.725	-13.34
207.106	-19.12
207.486	-31.86
207.866	-47.48
208.246	-25.13
208.626	-32.17
209.006	-22.01
209.386	-36.67
209.766	-31.15
210.145	-30.42
210.525	-29.55
210.905	-24.19
211.285	-21.03
211.664	-14.24
212.044	-15.24
212.424	-14.75
212.803	-29.98
213.183	-22.93
213.562	-28.49
213.942	-45.42
214.321	-49.12
214.701	-38.65
215.08	-56.95
215.459	-43.72
215.838	-29.61
216.218	-37.98
216.597	-18.02
216.976	-23.31
217.355	-26.43
217.734	-34.33
218.113	-20.82
218.492	-23.38
218.871	-18.96
219.25	-15.45
219.629	-31.18
220.008	-22.08
220.387	-22.15
220.766	-14.8
221.144	-17.69
221.523	-30.38
221.902	-28.39
222.28	-27.78
222.659	-26.47
223.037	-4.65
223.416	-4.27
223.794	-8.79
224.173	-5.56
224.551	-8.19
224.929	-8.4
225.308	-2.55
225.686	-0.79
226.064	-6.42
226.442	-5.03
226.821	-4.25
227.199	-3.91
227.577	-5.65
227.955	-4.42
228.333	-4.13
228.711	-4.95
229.089	-0.56
229.467	-0.49
229.845	-2.46
230.222	-1.09
230.6	1.31
230.978	-1.95
231.356	-1.04
231.733	-0.96
232.111	-2.2
232.488	-4.58
232.866	-1.65
233.243	-1.76
233.621	-0.52
233.998	1.46
234.376	-1.33
234.753	-2.82
235.13	-2.71
235.508	-0.83
235.885	-1.93
236.262	-3.14
236.639	-2.88
237.016	-2.56
237.393	-0.53
237.77	2.26
238.147	2.97
238.524	2.79
238.901	4.08
239.278	4.91
239.655	5.63
240.032	6.14
240.409	6.49
240.785	5.87
241.162	5.56
241.539	5.14
241.915	4.9
242.292	5.3
242.668	5.65
243.045	5.75
243.421	5.2
243.798	4.89
244.174	4.87
244.551	4.8
244.927	4.47
245.303	4.45
245.679	4.24
246.056	3.83
246.432	3.74
246.808	3.53
247.184	3.14
247.56	2.85
247.936	2.61
248.312	2.61
248.688	2.67
249.064	2.95
249.44	3.17
249.815	3.21
250.191	3.14
250.567	2.98
250.943	2.84
251.318	3.16
251.694	3.33
252.069	3.27
252.445	3.27
252.82	3.25
253.196	2.94
253.571	2.87
253.947	3.09
254.322	3.25
254.697	3.34
255.073	3.22
255.448	3.16
255.823	3.19
256.198	3.38
256.573	3.46
256.948	3.31
257.323	3.1
257.698	3.13
258.073	3.08
258.448	3.14
258.823	3.1
259.198	2.98
259.573	2.93
259.948	3.12
260.322	3.11
260.697	3.11
261.072	3.14
261.446	3.17
261.821	3.19
262.195	3.29
262.57	3.28
262.944	3.37
263.319	3.35
263.693	3.3
264.067	3.27
264.442	3.17
264.816	3.23
265.19	3.32
265.564	3.27
265.938	3.16
266.313	3.14
266.687	3.17
267.061	3.5
267.435	3.54
267.809	3.37
268.183	3.37
268.556	3.32
268.93	3.52
269.304	3.4
269.678	3.54
270.051	3.46
270.425	3.39
270.799	3.43
271.172	3.5
271.546	3.59
271.919	3.48
272.293	3.49
272.666	3.47
273.04	3.54
273.413	3.57
273.787	3.72
274.16	3.69
274.533	3.63
274.906	3.43
275.279	3.4
275.653	3.46
276.026	3.48
276.399	3.42
276.772	3.34
277.145	3.28
277.518	3.17
277.891	3.13
278.263	3.14
278.636	3.07
279.009	3.01
279.382	3.17
279.755	3.32
280.127	3.4
280.5	3.34
280.872	3.19
281.245	3.09
281.617	3.15
281.99	3.3
282.362	3.41
282.735	3.31
283.107	3.37
283.479	3.4
283.852	3.41
284.224	3.51
284.596	3.52
284.968	3.6
285.34	3.57
285.713	3.59
286.085	3.74
286.457	3.83
286.829	3.96
287.201	3.85
287.572	3.73
287.944	3.69
288.316	3.77
288.688	3.76
289.06	3.74
289.431	3.72
289.803	3.7
290.175	3.76
290.546	3.89
290.918	3.77
291.289	3.7
291.661	3.74
292.032	3.77
292.403	3.69
292.775	3.79
293.146	3.77
293.517	3.64
293.889	3.72
294.26	3.76
294.631	3.69
295.002	3.71
295.373	3.74
295.744	3.73
296.115	3.74
296.486	3.7
296.857	3.73
297.228	3.85
297.599	3.92
297.97	3.91
298.34	3.86
298.711	4.13
299.082	4.23
299.452	4.3
299.823	4.36
300.194	4.54
300.564	4.46
300.935	4.66
301.305	4.73
301.676	4.63
302.046	4.61
302.416	4.67
302.787	4.68
303.157	4.71
303.527	4.88
303.897	4.92
304.267	5.13
304.637	5.22
305.008	5.18
305.378	5.19
305.748	5.32
306.117	5.4
306.487	5.34
306.857	5.37
307.227	5.43
307.597	5.39
307.967	5.35
308.336	5.38
308.706	5.34
309.076	5.42
309.445	5.37
309.815	5.36
310.184	5.28
310.554	5.44
310.923	5.47
311.293	5.44
311.662	5.49
312.031	5.55
312.401	5.65
312.77	5.72
313.139	5.72
313.508	5.62
313.877	5.64
314.246	5.68
314.616	5.67
314.985	5.72
315.353	5.7
315.722	5.73
316.091	5.83
316.46	5.71
316.829	5.75
317.198	5.82
317.567	5.97
317.935	6.11
318.304	6.05
318.672	6.21
319.041	6.33
319.41	6.48
319.778	6.47
320.147	6.39
320.515	6.47
320.883	6.45
321.252	6.58
321.62	6.64
321.988	6.52
322.357	6.6
322.725	6.61
323.093	6.96
323.461	7.06
323.829	7.08
324.197	7.25
324.565	7.28
324.933	7.37
325.301	7.43
325.669	7.46
326.037	7.52
326.405	7.58
326.772	7.62
327.14	7.55
327.508	7.53
327.875	7.59
328.243	7.68
328.61	7.71
328.978	7.88
329.346	7.9
329.713	8
330.08	8.21
330.448	8.11
330.815	7.9
331.182	7.88
331.55	7.99
331.917	8
332.284	8.22
332.651	8.14
333.018	8.05
333.385	8.07
333.752	8.22
334.119	8.3
334.486	8.27
334.853	8.29
335.22	8.37
335.587	8.42
335.954	8.38
336.32	8.46
336.687	8.42
337.054	8.45
337.42	8.53
337.787	8.43
338.153	8.57
338.52	8.72
338.886	8.71
339.253	8.68
339.619	8.77
339.986	8.6
340.352	8.82
340.718	8.98
341.084	9.16
341.451	9.21
341.817	9.21
342.183	9.15
342.549	9.3
342.915	9.32
343.281	9.42
343.647	9.48
344.013	9.53
344.379	9.6
344.745	9.64
345.11	9.66
345.476	9.65
345.842	9.64
346.208	9.63
346.573	9.7
346.939	9.82
347.304	9.81
347.67	9.85
348.035	9.82
348.401	9.68
348.766	9.62
349.132	9.6
349.497	9.58
349.862	9.74
350.228	9.69
350.593	9.77
350.958	9.74
351.323	9.73
351.688	9.67
352.053	9.54
352.418	9.61
352.783	9.66
353.148	9.69
353.513	9.74
353.878	9.69
354.243	9.79
354.608	9.77
354.972	9.73
355.337	9.84
355.702	9.85
356.066	9.98
356.431	9.96
356.795	9.98
357.16	9.98
357.524	9.95
357.889	9.93
358.253	9.92
358.618	9.96
358.982	9.92
359.346	9.88
359.71	9.81
360.075	9.83
360.439	9.85
360.803	9.83
361.167	9.75
361.531	9.81
361.895	9.75
362.259	9.69
362.623	9.71
362.987	9.66
363.351	9.6
363.714	9.58
364.078	9.55
364.442	9.47
364.806	9.42
365.169	9.36
365.533	9.34
365.896	9.28
366.26	9.22
366.623	9.2
366.987	9.18
367.35	9.3
367.714	9.17
368.077	9.12
368.44	9.14
368.803	9.14
369.167	9
369.53	8.89
369.893	8.88
370.256	8.82
370.619	8.76
370.982	8.79
371.345	8.7
371.708	8.7
372.071	8.66
372.434	8.62
372.797	8.54
373.159	8.44
373.522	8.37
373.885	8.34
374.247	8.32
374.61	8.31
374.973	8.22
375.335	8.18
375.698	8.11
376.06	8.04
376.423	8.04
376.785	8.09
377.147	8.05
377.51	7.99
377.872	7.93
378.234	7.9
378.596	7.83
378.958	7.73
379.321	7.66
379.683	7.62
380.045	7.6
380.407	7.59
380.769	7.6
381.13	7.56
381.492	7.49
381.854	7.45
382.216	7.38
382.578	7.34
382.939	7.29
383.301	7.18
383.663	7.13
384.024	7.08
384.386	7
384.747	6.96
385.109	6.95
385.47	6.95
385.832	6.87
386.193	6.83
386.554	6.83
386.916	6.78
387.277	6.75
387.638	6.7
387.999	6.7
388.36	6.68
388.721	6.66
389.082	6.63
389.443	6.56
389.804	6.53
390.165	6.47
390.526	6.45
390.887	6.43
391.248	6.41
391.609	6.35
391.969	6.29
392.33	6.28
392.691	6.25
393.051	6.17
393.412	6.14
393.772	6.12
394.133	6.1
394.493	6.1
394.854	6.05
395.214	6.01
395.574	5.92
395.935	5.86
396.295	5.83
396.655	5.76
397.015	5.72
397.376	5.68
397.736	5.66
398.096	5.61
398.456	5.59
398.816	5.55
399.176	5.52
399.535	5.49
399.895	5.41
400.255	5.38
400.615	5.37
400.975	5.33
401.334	5.25
401.694	5.24
402.054	5.19
402.413	5.16
402.773	5.09
403.132	5.07
403.492	5.03
403.851	5.01
404.211	4.99
404.57	4.99
404.929	4.98
405.288	4.96
405.648	4.9
406.007	4.88
406.366	4.86
406.725	4.82
407.084	4.81
407.443	4.84
407.802	4.82
408.161	4.79
408.52	4.77
408.879	4.75
409.238	4.73
409.596	4.71
409.955	4.69
410.314	4.69
410.673	4.67
411.031	4.64
411.39	4.6
411.748	4.61
412.107	4.57
412.465	4.55
412.824	4.5
413.182	4.51
413.54	4.49
413.899	4.46
414.257	4.45
414.615	4.41
414.974	4.37
415.332	4.32
415.69	4.3
416.048	4.3
416.406	4.3
416.764	4.28
417.122	4.26
417.48	4.21
417.838	4.2
418.195	4.18
418.553	4.16
418.911	4.15
419.269	4.12
419.626	4.1
419.984	4.08
420.342	4.08
420.699	4.06
421.057	4.05
421.414	4.02
421.772	4
422.129	4
422.486	3.98
422.844	3.98
423.201	3.96
423.558	3.94
423.915	3.93
424.273	3.9
424.63	3.89
424.987	3.9
425.344	3.88
425.701	3.87
426.058	3.88
426.415	3.85
426.772	3.84
427.128	3.83
427.485	3.83
427.842	3.8
428.199	3.79
428.555	3.78
428.912	3.79
429.269	3.8
429.625	3.76
429.982	3.77
430.338	3.76
430.695	3.75
431.051	3.74
431.407	3.72
431.764	3.72
432.12	3.71
432.476	3.69
432.832	3.7
433.189	3.71
433.545	3.7
433.901	3.71
434.257	3.7
434.613	3.71
434.969	3.71
435.325	3.73
435.681	3.72
436.036	3.72
436.392	3.73
436.748	3.7
437.104	3.71
437.459	3.68
437.815	3.66
438.171	3.68
438.526	3.68
438.882	3.67
439.237	3.67
439.593	3.66
439.948	3.65
440.304	3.67
440.659	3.66
441.014	3.66
441.369	3.63
441.725	3.61
442.08	3.61
442.435	3.61
442.79	3.58
443.145	3.58
443.5	3.58
443.855	3.56
444.21	3.56
444.565	3.55
444.92	3.57
445.275	3.56
445.629	3.54
445.984	3.52
446.339	3.5
446.693	3.5
447.048	3.48
447.403	3.48
447.757	3.45
448.112	3.43
448.466	3.41
448.82	3.42
449.175	3.42
449.529	3.39
449.883	3.39
450.238	3.39
450.592	3.39
450.946	3.37
451.3	3.34
451.654	3.33
452.008	3.32
452.362	3.3
452.716	3.3
453.07	3.3
453.424	3.31
453.778	3.32
454.132	3.3
454.486	3.31
454.839	3.29
455.193	3.3
455.547	3.28
455.9	3.29
456.254	3.3
456.607	3.3
456.961	3.33
457.314	3.31
457.668	3.3
458.021	3.28
458.375	3.28
458.728	3.29
459.081	3.3
459.434	3.31
459.787	3.32
460.141	3.32
460.494	3.31
460.847	3.32
461.2	3.31
461.553	3.34
461.906	3.36
462.259	3.37
462.611	3.39
462.964	3.4
463.317	3.42
463.67	3.41
464.022	3.41
464.375	3.4
464.728	3.41
465.08	3.44
465.433	3.45
465.785	3.45
466.138	3.47
466.49	3.5
466.843	3.5
467.195	3.53
467.547	3.54
467.899	3.53
468.252	3.53
468.604	3.56
468.956	3.53
469.308	3.53
469.66	3.52
470.012	3.53
470.364	3.55
470.716	3.55
471.068	3.56
471.42	3.56
471.772	3.57
472.123	3.59
472.475	3.6
472.827	3.62
473.178	3.66
473.53	3.65
473.882	3.65
474.233	3.65
474.585	3.63
474.936	3.63
475.288	3.63
475.639	3.63
475.99	3.63
476.342	3.64
476.693	3.64
477.044	3.65
477.395	3.64
477.746	3.63
478.097	3.61
478.448	3.62
478.8	3.63
479.15	3.61
479.501	3.61
479.852	3.6
480.203	3.58
480.554	3.56
480.905	3.56
481.255	3.57
481.606	3.58
481.957	3.58
482.307	3.58
482.658	3.58
483.009	3.59
483.359	3.58
483.709	3.59
484.06	3.59
484.41	3.59
484.761	3.59
485.111	3.59
485.461	3.6
485.811	3.59
486.162	3.59
486.512	3.6
486.862	3.6
487.212	3.59
487.562	3.6
487.912	3.61
488.262	3.61
488.612	3.6
488.961	3.59
489.311	3.61
489.661	3.62
490.011	3.63
490.36	3.63
490.71	3.64
491.06	3.64
491.409	3.65
491.759	3.65
492.108	3.66
492.458	3.67
492.807	3.67
493.157	3.69
493.506	3.71
493.855	3.72
494.204	3.73
494.554	3.74
494.903	3.75
495.252	3.76
495.601	3.78
495.95	3.81
496.299	3.83
496.648	3.84
496.997	3.87
497.346	3.89
497.695	3.89
498.043	3.92
498.392	3.95
498.741	3.97
499.09	3.99
499.438	4.03
499.787	4.06
500.135	4.1
500.484	4.12
500.832	4.14
501.181	4.17
501.529	4.21
501.878	4.25
502.226	4.31
502.574	4.34
502.923	4.4
503.271	4.4
503.619	4.44
503.967	4.46
504.315	4.48
504.663	4.51
505.011	4.57
505.359	4.6
505.707	4.67
506.055	4.69
506.403	4.75
506.751	4.8
507.098	4.84
507.446	4.88
507.794	4.9
508.141	4.94
508.489	4.99
508.837	5.03
509.184	5.07
509.531	5.1
509.879	5.17
510.226	5.21
510.574	5.27
510.921	5.31
511.268	5.35
511.616	5.41
511.963	5.46
512.31	5.5
512.657	5.56
513.004	5.59
513.351	5.67
513.698	5.73
514.045	5.76
514.392	5.81
514.739	5.87
515.086	5.96
515.432	6.02
515.779	6.08
516.126	6.15
516.473	6.23
516.819	6.3
517.166	6.34
517.512	6.4
517.859	6.45
518.205	6.51
518.552	6.59
518.898	6.63
519.245	6.68
519.591	6.74
519.937	6.79
520.283	6.85
520.629	6.89
520.976	6.97
521.322	7.06
521.668	7.12
522.014	7.21
522.36	7.28
522.706	7.36
523.052	7.49
523.398	7.59
523.743	7.7
524.089	7.8
524.435	7.91
524.781	8.02
525.126	8.13
525.472	8.22
525.817	8.3
526.163	8.4
526.509	8.5
526.854	8.59
527.199	8.68
527.545	8.76
527.89	8.85
528.235	8.92
528.581	9
528.926	9.09
529.271	9.2
529.616	9.29
529.961	9.4
530.306	9.49
530.651	9.6
530.996	9.71
531.341	9.84
531.686	9.98
532.031	10.1
532.376	10.25
532.721	10.4
533.065	10.55
533.41	10.71
533.755	10.87
534.099	11.05
534.444	11.22
534.788	11.42
535.133	11.61
535.477	11.82
535.822	12.04
536.166	12.24
536.51	12.46
536.855	12.74
537.199	12.98
537.543	13.23
537.887	13.5
538.231	13.76
538.576	14.04
538.92	14.31
539.264	14.56
539.608	14.8
539.951	15.05
540.295	15.3
540.639	15.53
540.983	15.77
541.327	16
541.671	16.23
542.014	16.45
542.358	16.66
542.701	16.89
543.045	17.12
543.389	17.39
543.732	17.64
544.075	17.87
544.419	18.14
544.762	18.41
545.105	18.69
545.449	19
545.792	19.32
546.135	19.67
546.478	20.06
546.821	20.45
547.165	20.81
547.508	21.21
547.851	21.59
548.194	21.94
548.536	22.31
548.879	22.72
549.222	23.09
549.565	23.52
549.908	23.91
550.25	24.27
550.593	24.67
550.936	25.08
551.278	25.51
551.621	25.95
551.963	26.37
552.306	26.78
552.648	27.18
552.991	27.57
553.333	27.95
553.675	28.28
554.017	28.61
554.36	28.97
554.702	29.29
555.044	29.67
555.386	30.02
555.728	30.43
556.07	30.77
556.412	31.12
556.754	31.47
557.096	31.83
557.438	32.28
557.78	32.65
558.121	33.04
558.463	33.41
558.805	33.74
559.147	34.09
559.488	34.4
559.83	34.82
560.171	35.13
560.513	35.42
560.854	35.75
561.196	36.16
561.537	36.5
561.878	36.84
562.22	37.16
562.561	37.45
562.902	37.76
563.243	38.06
563.584	38.41
563.925	38.72
564.266	38.99
564.607	39.26
564.948	39.54
565.289	39.79
565.63	40.01
565.971	40.25
566.312	40.55
566.653	40.83
566.993	40.99
567.334	41.24
567.675	41.43
568.015	41.68
568.356	41.84
568.696	42.04
569.037	42.3
569.377	42.52
569.718	42.74
570.058	43
570.398	43.23
570.739	43.38
571.079	43.57
571.419	43.82
571.759	44.02
572.099	44.19
572.439	44.37
572.779	44.59
573.119	44.79
573.459	44.95
573.799	45.13
574.139	45.33
574.479	45.54
574.819	45.72
575.158	45.85
575.498	46.06
575.838	46.27
576.177	46.39
576.517	46.6
576.856	46.8
577.196	46.91
577.535	47.08
577.875	47.3
578.214	47.5
578.553	47.64
578.893	47.74
579.232	47.91
579.571	48.12
579.91	48.24
580.25	48.39
580.589	48.5
580.928	48.69
581.267	48.89
581.606	49.02
581.945	49.22
582.283	49.37
582.622	49.5
582.961	49.65
583.3	49.8
583.639	49.93
583.977	50.09
584.316	50.22
584.654	50.28
584.993	50.45
585.332	50.53
585.67	50.61
586.008	50.81
586.347	50.96
586.685	51.08
587.024	51.17
587.362	51.28
587.7	51.36
588.038	51.37
588.376	51.44
588.715	51.49
589.053	51.57
589.391	51.69
589.729	51.79
590.067	51.83
590.404	51.89
590.742	51.94
591.08	51.98
591.418	52.09
591.756	52.22
592.093	52.2
592.431	52.28
592.769	52.4
593.106	52.41
593.444	52.35
593.781	52.37
594.119	52.52
594.456	52.63
594.793	52.73
595.131	52.85
595.468	52.92
595.805	53.06
596.143	53.17
596.48	53.25
596.817	53.32
597.154	53.42
597.491	53.51
597.828	53.52
598.165	53.63
598.502	53.71
598.839	53.73
599.176	53.85
599.512	53.91
599.849	53.99
600.186	54.14
600.523	54.34
600.859	54.46
601.196	54.48
601.532	54.43
601.869	54.43
602.205	54.41
602.542	54.4
602.878	54.34
603.215	54.3
603.551	54.34
603.887	54.42
604.223	54.42
604.56	54.44
604.896	54.47
605.232	54.49
605.568	54.45
605.904	54.5
606.24	54.53
606.576	54.55
606.912	54.57
607.248	54.55
607.583	54.59
607.919	54.53
608.255	54.55
608.591	54.66
608.926	54.73
609.262	54.84
609.597	54.94
609.933	54.99
610.268	55.15
610.604	55.18
610.939	55.12
611.275	55.19
611.61	55.23
611.945	55.41
612.281	55.39
612.616	55.54
612.951	55.65
613.286	55.74
613.621	55.88
613.956	55.89
614.291	55.99
614.626	55.98
614.961	56.16
615.296	56.28
615.631	56.28
615.966	56.33
616.3	56.36
616.635	56.33
616.97	56.41
617.304	56.35
617.639	56.45
617.973	56.54
618.308	56.48
618.642	56.51
618.977	56.47
619.311	56.55
619.646	56.63
619.98	56.7
620.314	56.74
620.648	56.73
620.983	56.75
621.317	56.67
621.651	56.79
621.985	56.78
622.319	56.82
622.653	56.88
622.987	56.97
623.321	56.94
623.655	57.04
623.988	57.05
624.322	57.15
624.656	57.11
624.99	57.09
625.323	57.22
625.657	57.31
625.99	57.32
626.324	57.43
626.657	57.35
626.991	57.29
627.324	57.3
627.658	57.4
627.991	57.52
628.324	57.61
628.657	57.59
628.991	57.55
629.324	57.54
629.657	57.59
629.99	57.66
630.323	57.71
630.656	57.8
630.989	57.78
631.322	57.83
631.655	57.87
631.987	57.95
632.32	58
632.653	57.99
632.986	57.98
633.318	57.95
633.651	58.06
633.984	58.12
634.316	58.14
634.649	58.17
634.981	58.12
635.313	58.09
635.646	58.07
635.978	58.22
636.31	58.19
636.643	58.19
636.975	58.02
637.307	58.08
637.639	57.97
637.971	58.05
638.303	58.04
638.635	58
638.967	58.07
639.299	58.03
639.631	58.05
639.963	58.03
640.295	58.04
640.626	57.98
640.958	58.1
641.29	58.07
641.621	57.9
641.953	58.05
642.285	58.02
642.616	58.09
642.948	58.05
643.279	58.15
643.61	58.16
643.942	58.31
644.273	58.34
644.604	58.41
644.936	58.3
645.267	58.33
645.598	58.43
645.929	58.38
646.26	58.24
646.591	58.33
646.922	58.46
647.253	58.56
647.584	58.58
647.915	58.57
648.245	58.67
648.576	58.79
648.907	58.74
649.238	58.78
649.568	58.82
649.899	58.76
650.229	58.72
650.56	58.74
650.89	58.72
651.221	58.74
651.551	58.72
651.882	58.89
652.212	58.85
652.542	58.91
652.872	58.95
653.203	59.14
653.533	58.98
653.863	59
654.193	58.87
654.523	58.89
654.853	58.77
655.183	58.69
655.513	58.63
655.843	58.63
656.172	58.69
656.502	58.61
656.832	58.69
657.162	58.75
657.491	58.84
657.821	58.86
658.15	58.87
658.48	58.86
658.809	58.86
659.139	58.9
659.468	58.84
659.798	58.75
660.127	58.75
660.456	58.89
660.785	58.83
661.115	58.95
661.444	58.98
661.773	59.15
662.102	59.25
662.431	59.43
662.76	59.52
663.089	59.51
663.418	59.66
663.747	59.57
664.076	59.58
664.404	59.56
664.733	59.51
665.062	59.45
665.39	59.47
665.719	59.52
666.048	59.51
666.376	59.45
666.705	59.53
667.033	59.47
667.362	59.43
667.69	59.45
668.018	59.38
668.347	59.4
668.675	59.33
669.003	59.28
669.331	59.15
669.659	59.05
669.987	59.09
670.315	58.99
670.643	59.12
670.971	59.24
671.299	59.11
671.627	59.23
671.955	59.32
672.283	59.3
672.61	59.25
672.938	59.2
673.266	59.35
673.593	59.45
673.921	59.49
674.249	59.61
674.576	59.66
674.904	59.67
675.231	59.67
675.558	59.6
675.886	59.61
676.213	59.65
676.54	59.76
676.867	59.91
677.195	59.89
677.522	59.89
677.849	59.76
678.176	60.02
678.503	59.98
678.83	59.96
679.157	59.83
679.484	59.83
679.81	59.88
680.137	59.91
680.464	59.85
680.791	59.94
681.117	59.89
681.444	59.86
681.771	59.91
682.097	59.92
682.424	59.9
682.75	59.94
683.077	60.02
683.403	60.06
683.729	59.96
684.056	60.1
684.382	60.16
684.708	60.1
685.034	59.95
685.36	60.02
685.686	60.12
686.012	60.33
686.339	60.26
686.664	60.28
686.99	60.13
687.316	60.12
687.642	60.1
687.968	59.99
688.294	60.05
688.619	60.14
688.945	60.09
689.271	60.12
689.596	60.12
689.922	60.19
690.247	60.11
690.573	60.05
690.898	60.08
691.224	59.93
691.549	59.87
691.874	60.02
692.2	60.09
692.525	60.1
692.85	60.16
693.175	60.39
693.5	60.29
693.825	60.35
694.15	60.47
694.475	60.58
694.8	60.65
695.125	60.66
695.45	60.4
695.775	60.43
696.099	60.49
696.424	60.45
696.749	60.32
697.073	60.22
697.398	60.38
697.723	60.33
698.047	60.46
698.372	60.53
698.696	60.4
699.02	60.31
699.345	60.23
699.669	60.23
699.993	60.1
700.318	60.26
700.642	60.4
700.966	60.37
701.29	60.29
701.614	60.22
701.938	60.25
702.262	60.36
702.586	60.5
702.91	60.57
703.234	60.75
703.557	60.69
703.881	60.84
704.205	60.58
704.529	60.53
704.852	60.59
705.176	60.73
705.499	60.8
705.823	60.75
706.146	60.86
706.47	60.9
706.793	61.11
707.117	61.11
707.44	60.98
707.763	61.1
708.086	61.11
708.409	61.27
708.733	61.17
709.056	61.19
709.379	61.25
709.702	61.33
710.025	61.19
710.348	61.35
710.671	61.31
710.993	61.37
711.316	61.44
711.639	61.32
711.962	61.25
712.284	61.41
712.607	61.44
712.93	61.47
713.252	61.48
713.575	61.27
713.897	61.11
714.22	61.19
714.542	61.07
714.864	61
715.187	60.9
715.509	60.84
715.831	61
716.153	60.78
716.475	60.6
716.798	60.57
717.12	60.6
717.442	60.68
717.764	60.91
718.085	60.81
718.407	60.92
718.729	60.86
719.051	60.7
719.373	60.55
719.695	60.42
720.016	60.36
720.338	60.5
720.659	60.52
720.981	60.41
721.302	60.48
721.624	60.56
721.945	60.68
722.267	60.86
722.588	60.45
722.909	60.76
723.231	60.88
723.552	60.72
723.873	60.74
724.194	60.73
724.515	60.54
724.836	60.68
725.157	60.47
725.478	60.52
725.799	60.52
726.12	60.78
726.441	60.66
726.762	60.6
727.083	60.58
727.403	60.8
727.724	60.78
728.045	60.56
728.365	60.45
728.686	60.41
729.006	60.17
729.327	60.4
729.647	60.17
729.967	60.05
730.288	60.09
730.608	60.05
730.928	60.13
731.249	60.33
731.569	60.27
731.889	60.29
732.209	60.41
732.529	60.31
732.849	60.24
733.169	60.47
733.489	60.57
733.809	60.41
734.129	60.32
734.448	60.15
734.768	60.3
735.088	60.39
735.408	60.39
735.727	60.47
736.047	60.34
736.366	60.4
736.686	60.35
737.005	60.56
737.325	60.51
737.644	60.33
737.963	60.16
738.283	60.17
738.602	60.48
738.921	60.35
739.24	60.5
739.56	60.55
739.879	60.51
740.198	60.44
740.517	60.53
740.836	60.5
741.155	60.87
741.473	60.79
741.792	60.84
742.111	61.08
742.43	61.22
742.748	61.16
743.067	61.1
743.386	60.92
743.704	60.81
744.023	60.46
744.341	60.51
744.66	60.74
744.978	60.49
745.297	60.31
745.615	60.14
745.933	60.25
746.252	60.47
746.57	60.41
746.888	60.35
747.206	60.16
747.524	60.13
747.842	59.82
748.16	60.06
748.478	60.47
748.796	60.16
749.114	60.26
749.432	60.54
749.749	60.46
750.067	60.71
750.385	61.06
750.703	61.21
751.02	61.3
751.338	61.05
751.655	61.2
751.973	61.13
752.29	61.66
752.608	61.82
752.925	61.62
753.242	61.8
753.56	61.53
753.877	61.74
754.194	61.98
754.511	62.52
754.828	62.12
755.145	61.51
755.462	61.7
755.779	61.75
756.096	61.62
756.413	61.93
756.73	62.05
757.047	62.18
757.364	62.38
757.68	62.18
757.997	62.1
758.314	61.96
758.63	62.02
758.947	61.67
759.264	61.11
759.58	61.24
759.896	60.85
760.213	61.13
760.529	61.26
760.846	60.91
761.162	60.57
761.478	60.79
761.794	60.82
762.11	60.73
762.426	60.67
762.743	60.89
763.059	60.93
763.375	61.06
763.69	60.74
764.006	60.99
764.322	61.28
764.638	61.39
764.954	61.38
765.27	61.41
765.585	61.32
765.901	61.57
766.216	61.22
766.532	61.19
766.848	61.21
767.163	61.3
767.478	61.37
767.794	61.6
768.109	61.52
768.424	61.69
768.74	61.64
769.055	61.8
769.37	61.51
769.685	61.22
770	60.99
770.315	61.21
770.63	61.15
770.945	60.69
771.26	60.62
771.575	60.88
771.89	60.94
772.205	61.21
772.52	60.92
772.834	61.43
773.149	61.92
773.464	61.65
773.778	61.29
774.093	61.18
774.407	60.54
774.722	60.41
775.036	59.87
775.351	60.15
775.665	59.9
775.979	59.98
776.293	60.09
776.608	60.01
776.922	59.64
777.236	59.18
777.55	59.05
777.864	59.05
778.178	59.02
778.492	59.17
778.806	59.3
779.12	59.44
779.434	59.44
779.747	59.62
780.061	59.7
780.375	59.92
780.689	60.06
781.002	60.23
781.316	60.46
781.629	60.87
781.943	60.47
782.256	60.71
782.57	61.07
782.883	61.3
783.196	61.04
783.51	61.15
783.823	61.68
784.136	61.67
784.449	61.72
784.762	61.67
785.075	61.4
785.388	61.26
785.701	61.61
786.014	61.44
786.327	60.74
786.64	60.75
786.953	60.45
787.266	60.42
787.578	60.49
787.891	60.47
788.204	60.84
788.516	60.93
788.829	60.99
789.141	60.48
789.454	60.25
789.766	60.52
790.079	60.08
790.391	59.93
790.703	60.2
791.016	60.57
791.328	60.68
791.64	60.21
791.952	60.16
792.264	59.56
792.576	59.65
792.888	60.41
793.2	60.38
793.512	60.6
793.824	60.85
794.136	61.12
794.448	61.23
794.76	61.29
795.071	61.71
795.383	61.34
795.695	61.31
796.006	61.57
796.318	61.76
796.629	62.29
796.941	61.81
797.252	61.83
797.564	61.65
797.875	61.38
798.186	62.27
798.497	62.4
798.809	62.9
799.12	62.88
799.431	62.17
799.742	63.17
800.053	63.4
800.364	62.96
800.675	63.25
800.986	62.98
801.297	62.87
801.608	62.32
801.918	62.42
802.229	62.96
802.54	62.64
802.851	62.84
803.161	62.93
803.472	63.54
803.782	64.09
804.093	63.45
804.403	64
804.714	63.2
805.024	63.02
805.334	62.89
805.645	62.85
805.955	63.2
806.265	63.04
806.575	62.47
806.885	63.05
807.195	63.54
807.505	63.32
807.815	63.32
808.125	62.7
808.435	62.66
808.745	62.46
809.055	62.39
809.365	61.69
809.674	61.76
809.984	61.55
810.294	61.49
810.603	62.19
810.913	62.42
811.222	62.69
811.532	62.98
811.841	63.33
812.151	63.26
812.46	63.22
812.769	62.57
813.079	62.65
813.388	62.02
813.697	61.14
814.006	61.87
814.315	61.25
814.624	62.28
814.933	62.31
815.242	62.12
815.551	62.38
815.86	63.03
816.169	62.64
816.478	62.51
816.786	62.71
817.095	62.16
817.404	61.63
817.712	61.46
818.021	61.74
818.33	61.47
818.638	61.93
818.947	62.34
819.255	63.03
819.563	63.56
819.872	64.26
820.18	64.02
820.488	63.93
820.796	64.35
821.105	64.39
821.413	64.27
821.721	64.38
822.029	64.49
822.337	64.16
822.645	64.24
822.953	64.03
823.26	63.86
823.568	64.09
823.876	63.97
824.184	64.04
824.491	63.98
824.799	64.01
825.107	63.91
825.414	63.94
825.722	63.9
826.029	63.83
826.337	63.71
826.644	63.86
826.951	63.9
827.259	63.8
827.566	63.77
827.873	63.89
828.18	63.99
828.488	63.69
828.795	63.94
829.102	64.01
829.409	64.54
829.716	64.44
830.023	64.12
830.329	64.42
830.636	64.63
830.943	64.28
831.25	64.39
831.557	64.29
831.863	64.3
832.17	64.3
832.476	64.29
832.783	63.84
833.089	63.48
833.396	63.68
833.702	63.64
834.009	63.37
834.315	63.26
834.621	63.03
834.928	63.37
835.234	63.46
835.54	63.36
835.846	63.04
836.152	63.33
836.458	63.36
836.764	63.63
837.07	63.42
837.376	63.92
837.682	64.08
837.988	64.22
838.293	63.67
838.599	63.07
838.905	63.75
839.211	64.19
839.516	64.79
839.822	64.31
840.127	64.07
840.433	64.65
840.738	64.8
841.044	65.08
841.349	65.1
841.654	65.79
841.959	65.89
842.265	65.11
842.57	65.29
842.875	64.96
843.18	64.73
843.485	64.41
843.79	65.47
844.095	63.42
844.4	63.34
844.705	64.47
845.01	64.46
845.315	62.37
845.619	62.53
845.924	62.2
846.229	61.87
846.533	62.38
846.838	60.62
847.142	60.39
847.447	57.84
847.751	55.86
848.056	53.33
848.36	54.15
848.664	55.06
848.969	54.37
849.273	55.58
849.577	54.91
849.881	53.58
850.185	51.56
850.489	52.9
850.794	53.33
851.097	51.78
851.401	53.44
851.705	54.13
852.009	53.52
852.313	53.31
852.617	53.71
852.92	53.12
853.224	53.55
853.528	53.52
853.831	55.15
854.135	55.97
854.438	57.74
854.742	57.59
855.045	56.36
855.349	55.46
855.652	53.91
855.955	54.45
856.259	57.18
856.562	59.78
856.865	62.35
857.168	61.25
857.471	62.53
857.774	61.1
858.077	62.85
858.38	63.35
858.683	63.59
858.986	64.99
859.289	66.26
859.592	66.57
859.894	67.56
860.197	66.88
860.5	67.08
860.802	66.48
861.105	64.85
861.407	66.24
861.71	67.04
862.012	68.47
862.315	66.67
862.617	65
862.919	64.44
863.222	61.9
863.524	61.92
863.826	63.31
864.128	62.68
864.43	62.05
864.732	61.35
865.034	62.53
865.336	61.58
865.638	62.19
865.94	61.8
866.242	61.78
866.544	61.82
866.846	64.6
867.147	64.55
867.449	64.59
867.751	64.93
868.052	64.74
868.354	63.26
868.655	63.81
868.957	62.59
869.258	61.9
869.56	62.16
869.861	62.92
870.162	63.06
870.463	63.97
870.765	61.95
871.066	64.36
871.367	63.68
871.668	62.98
871.969	60.47
872.27	60.68
872.571	60.57
872.872	62.52
873.173	62.8
873.473	63.9
873.774	65.21
874.075	65.76
874.376	66.4
874.676	69.9
874.977	71.09
875.277	72.56
875.578	68.95
875.878	70.09
876.179	70.6
876.479	68.62
876.78	68.52
877.08	70.67
877.38	68.64
877.68	68.09
877.981	69.13
878.281	70.9
878.581	73.87
