Data from BA57730_Reflection_00009.txt Node
Date: Mon Nov 18 15:59:47 EST 2019
User: vgr7
Spectrometer: USB2G7710
Scans to average: 3
Trigger mode: 4
Integration Time (sec): 2.000000E-2
Electric dark correction enabled: true
Boxcar width: 10
XAxis mode: Wavelengths
Number of Pixels in Spectrum: 2048
>>>>>Begin Spectral Data<<<<<
177.721	480.95
178.105	1.96
178.488	-39.92
178.871	-41.03
179.254	-31.69
179.636	-137.37
180.019	-117.49
180.402	69.77
180.785	-7.45
181.168	54.02
181.55	10.03
181.933	172.73
182.316	136.04
182.698	125.78
183.081	74.1
183.463	78.77
183.846	86.64
184.228	130.03
184.611	72.09
184.993	72.03
185.376	124.84
185.758	109.22
186.14	115.67
186.522	110.9
186.904	86.64
187.287	60.85
187.669	79.33
188.051	124.17
188.433	1741.03
188.815	245.92
189.197	212.15
189.579	112.7
189.961	159.41
190.342	100
190.724	181.63
191.106	-1378.26
191.488	-336.97
191.869	-84.1
192.251	-395.58
192.633	-519.47
193.014	-547.48
193.396	1292.98
193.777	-317.11
194.159	-277.14
194.54	-162.55
194.922	-65.1
195.303	-73.91
195.684	-133.44
196.065	-57.52
196.447	-67.98
196.828	-113.65
197.209	-135.69
197.59	-199.69
197.971	-222.81
198.352	-89.62
198.733	-140.41
199.114	-214.87
199.495	-310.48
199.876	-261.77
200.257	-304.49
200.638	-230.43
201.018	-124.45
201.399	-107.51
201.78	-123.85
202.16	-204.64
202.541	-502.62
202.922	970.23
203.302	815.23
203.683	-5204.35
204.063	566.93
204.444	372.97
204.824	354.45
205.204	1338.1
205.585	1828.4
205.965	2253.85
206.345	1026.17
206.725	686.67
207.106	411.24
207.486	353.04
207.866	439.83
208.246	434.23
208.626	422.58
209.006	641.18
209.386	598.55
209.766	1703.31
210.145	-4872.97
210.525	-671.08
210.905	-309.68
211.285	-226.24
211.664	-272.39
212.044	-182.63
212.424	-149.76
212.803	-138.65
213.183	-120.02
213.562	-126.71
213.942	-101.66
214.321	-104.98
214.701	-101.97
215.08	-104.28
215.459	-121.48
215.838	-112.83
216.218	-82.98
216.597	-71.37
216.976	-93.67
217.355	-61.99
217.734	-63.6
218.113	-67.03
218.492	-64.49
218.871	-72.01
219.25	-79.35
219.629	-81.97
220.008	-75.07
220.387	-68.08
220.766	-71.56
221.144	-102.39
221.523	-92.79
221.902	-102.53
222.28	-98.16
222.659	-66.22
223.037	-30.24
223.416	-13.59
223.794	-22.74
224.173	-31.92
224.551	-2.16
224.929	4.29
225.308	-4.31
225.686	-5.91
226.064	-1.19
226.442	-2.56
226.821	-1.82
227.199	-1.32
227.577	-1.9
227.955	-4.27
228.333	-3.05
228.711	1.6
229.089	7.43
229.467	4.62
229.845	8.02
230.222	7.48
230.6	2.77
230.978	-0.59
231.356	-0.3
231.733	1.96
232.111	-0.03
232.488	0.05
232.866	0.01
233.243	0.32
233.621	0.62
233.998	-0.58
234.376	-2.57
234.753	-2.2
235.13	-3.96
235.508	-1.66
235.885	-2.71
236.262	-4.19
236.639	-5.02
237.016	-6.17
237.393	-4.27
237.77	-4.26
238.147	-2.64
238.524	-0.89
238.901	0.1
239.278	2.37
239.655	2.15
240.032	2.03
240.409	1.41
240.785	1.75
241.162	2
241.539	2.44
241.915	2.68
242.292	2.72
242.668	2.84
243.045	3.48
243.421	3.23
243.798	3.45
244.174	3.88
244.551	3.86
244.927	3.66
245.303	3.69
245.679	3.7
246.056	3.53
246.432	3.53
246.808	3.57
247.184	3.24
247.56	3.13
247.936	3.28
248.312	3.21
248.688	3.07
249.064	3.21
249.44	3.34
249.815	3.13
250.191	3.33
250.567	3.44
250.943	3.34
251.318	3.46
251.694	3.42
252.069	3.47
252.445	3.77
252.82	3.97
253.196	3.84
253.571	4
253.947	3.92
254.322	3.95
254.697	3.83
255.073	3.28
255.448	3.29
255.823	3.62
256.198	4.1
256.573	4.11
256.948	3.95
257.323	3.93
257.698	4.24
258.073	4.19
258.448	4.18
258.823	4.33
259.198	4.2
259.573	4.11
259.948	4.09
260.322	4.1
260.697	4.11
261.072	4.07
261.446	3.88
261.821	3.96
262.195	3.87
262.57	3.65
262.944	3.66
263.319	3.69
263.693	3.48
264.067	3.12
264.442	3.17
264.816	3.16
265.19	2.92
265.564	2.65
265.938	2.55
266.313	2.39
266.687	2.04
267.061	1.96
267.435	2.11
267.809	2.04
268.183	2.12
268.556	2.08
268.93	2.13
269.304	2.12
269.678	2.26
270.051	2.36
270.425	2.52
270.799	2.66
271.172	2.68
271.546	2.72
271.919	2.9
272.293	2.93
272.666	2.85
273.04	2.93
273.413	2.91
273.787	3.12
274.16	3.33
274.533	3.39
274.906	3.44
275.279	3.49
275.653	3.25
276.026	3.04
276.399	3.07
276.772	3.22
277.145	3.29
277.518	3.28
277.891	3.31
278.263	3.29
278.636	3.17
279.009	3.1
279.382	3.19
279.755	3.2
280.127	3.1
280.5	3.39
280.872	3.53
281.245	3.63
281.617	3.58
281.99	3.45
282.362	3.51
282.735	3.49
283.107	3.45
283.479	3.76
283.852	3.89
284.224	3.82
284.596	3.63
284.968	3.76
285.34	3.58
285.713	3.67
286.085	3.71
286.457	3.78
286.829	3.84
287.201	3.81
287.572	3.7
287.944	3.73
288.316	3.46
288.688	3.34
289.06	3.36
289.431	3.28
289.803	3.22
290.175	3.22
290.546	3.27
290.918	3.24
291.289	3.22
291.661	3.11
292.032	3.24
292.403	3.48
292.775	3.39
293.146	3.39
293.517	3.29
293.889	3.29
294.26	3.36
294.631	3.48
295.002	3.55
295.373	3.68
295.744	3.73
296.115	3.93
296.486	3.82
296.857	3.82
297.228	3.82
297.599	3.89
297.97	3.91
298.34	4.01
298.711	4.05
299.082	4
299.452	4.06
299.823	4.11
300.194	4.12
300.564	4.03
300.935	4.26
301.305	4.31
301.676	4.36
302.046	4.39
302.416	4.46
302.787	4.47
303.157	4.54
303.527	4.57
303.897	4.6
304.267	5
304.637	5.08
305.008	5.25
305.378	5.47
305.748	5.62
306.117	5.55
306.487	5.53
306.857	5.6
307.227	5.58
307.597	5.5
307.967	5.5
308.336	5.7
308.706	5.71
309.076	5.88
309.445	5.93
309.815	6.01
310.184	6.02
310.554	6.08
310.923	6.07
311.293	6.21
311.662	6.2
312.031	6.12
312.401	6.25
312.77	6.35
313.139	6.38
313.508	6.42
313.877	6.45
314.246	6.69
314.616	6.81
314.985	6.91
315.353	7.06
315.722	7.18
316.091	7.33
316.46	7.33
316.829	7.3
317.198	7.34
317.567	7.43
317.935	7.58
318.304	7.73
318.672	7.78
319.041	7.92
319.41	8.06
319.778	8.16
320.147	8.31
320.515	8.31
320.883	8.29
321.252	8.52
321.62	8.71
321.988	8.72
322.357	8.76
322.725	8.81
323.093	8.93
323.461	8.87
323.829	8.99
324.197	9.19
324.565	9.28
324.933	9.44
325.301	9.49
325.669	9.48
326.037	9.48
326.405	9.71
326.772	9.69
327.14	9.8
327.508	9.88
327.875	9.83
328.243	10.03
328.61	10.14
328.978	10.2
329.346	10.32
329.713	10.39
330.08	10.48
330.448	10.57
330.815	10.58
331.182	10.83
331.55	10.85
331.917	10.87
332.284	11.04
332.651	11.18
333.018	11.28
333.385	11.23
333.752	11.42
334.119	11.39
334.486	11.49
334.853	11.51
335.22	11.5
335.587	11.6
335.954	11.65
336.32	11.63
336.687	11.52
337.054	11.59
337.42	11.68
337.787	11.75
338.153	11.79
338.52	11.91
338.886	11.83
339.253	11.86
339.619	11.96
339.986	11.88
340.352	11.94
340.718	12.02
341.084	12.13
341.451	12.15
341.817	12.24
342.183	12.2
342.549	12.27
342.915	12.39
343.281	12.4
343.647	12.36
344.013	12.42
344.379	12.43
344.745	12.39
345.11	12.46
345.476	12.62
345.842	12.71
346.208	12.67
346.573	12.72
346.939	12.88
347.304	12.97
347.67	13.05
348.035	12.94
348.401	12.93
348.766	13
349.132	12.91
349.497	12.88
349.862	13.04
350.228	13.09
350.593	13.06
350.958	13.11
351.323	13.12
351.688	13.15
352.053	13.24
352.418	13.3
352.783	13.35
353.148	13.28
353.513	13.26
353.878	13.29
354.243	13.33
354.608	13.24
354.972	13.15
355.337	13.19
355.702	13.27
356.066	13.34
356.431	13.37
356.795	13.49
357.16	13.51
357.524	13.32
357.889	13.28
358.253	13.22
358.618	13.21
358.982	13.25
359.346	13.27
359.71	13.27
360.075	13.27
360.439	13.15
360.803	13.17
361.167	13.22
361.531	13.17
361.895	13.13
362.259	13.11
362.623	13.15
362.987	13.1
363.351	13.09
363.714	13.04
364.078	12.96
364.442	12.87
364.806	12.78
365.169	12.8
365.533	12.8
365.896	12.81
366.26	12.78
366.623	12.72
366.987	12.64
367.35	12.57
367.714	12.55
368.077	12.46
368.44	12.33
368.803	12.25
369.167	12.24
369.53	12.17
369.893	12.19
370.256	12.15
370.619	12.07
370.982	11.9
371.345	11.77
371.708	11.74
372.071	11.68
372.434	11.62
372.797	11.54
373.159	11.39
373.522	11.36
373.885	11.29
374.247	11.22
374.61	11.08
374.973	11.02
375.335	10.93
375.698	10.91
376.06	10.83
376.423	10.75
376.785	10.65
377.147	10.62
377.51	10.51
377.872	10.38
378.234	10.32
378.596	10.32
378.958	10.25
379.321	10.19
379.683	10.15
380.045	10.09
380.407	9.99
380.769	9.93
381.13	9.83
381.492	9.75
381.854	9.68
382.216	9.7
382.578	9.59
382.939	9.45
383.301	9.4
383.663	9.32
384.024	9.25
384.386	9.22
384.747	9.1
385.109	9.05
385.47	8.95
385.832	8.9
386.193	8.88
386.554	8.85
386.916	8.82
387.277	8.74
387.638	8.69
387.999	8.67
388.36	8.62
388.721	8.63
389.082	8.59
389.443	8.53
389.804	8.46
390.165	8.37
390.526	8.37
390.887	8.33
391.248	8.3
391.609	8.23
391.969	8.14
392.33	8.13
392.691	8.06
393.051	8.01
393.412	7.99
393.772	7.87
394.133	7.8
394.493	7.7
394.854	7.62
395.214	7.56
395.574	7.5
395.935	7.44
396.295	7.33
396.655	7.27
397.015	7.19
397.376	7.1
397.736	7.04
398.096	6.98
398.456	6.87
398.816	6.8
399.176	6.75
399.535	6.67
399.895	6.6
400.255	6.55
400.615	6.52
400.975	6.43
401.334	6.42
401.694	6.37
402.054	6.31
402.413	6.27
402.773	6.22
403.132	6.17
403.492	6.12
403.851	6.11
404.211	6.05
404.57	5.99
404.929	5.97
405.288	5.98
405.648	5.93
406.007	5.91
406.366	5.9
406.725	5.91
407.084	5.91
407.443	5.87
407.802	5.89
408.161	5.85
408.52	5.8
408.879	5.75
409.238	5.76
409.596	5.73
409.955	5.7
410.314	5.69
410.673	5.67
411.031	5.66
411.39	5.59
411.748	5.59
412.107	5.59
412.465	5.55
412.824	5.52
413.182	5.49
413.54	5.46
413.899	5.42
414.257	5.37
414.615	5.35
414.974	5.33
415.332	5.23
415.69	5.19
416.048	5.16
416.406	5.15
416.764	5.09
417.122	5.04
417.48	5.03
417.838	4.98
418.195	4.93
418.553	4.9
418.911	4.9
419.269	4.86
419.626	4.83
419.984	4.82
420.342	4.8
420.699	4.78
421.057	4.76
421.414	4.73
421.772	4.69
422.129	4.66
422.486	4.64
422.844	4.63
423.201	4.61
423.558	4.59
423.915	4.56
424.273	4.55
424.63	4.53
424.987	4.5
425.344	4.49
425.701	4.49
426.058	4.47
426.415	4.45
426.772	4.44
427.128	4.43
427.485	4.41
427.842	4.38
428.199	4.34
428.555	4.32
428.912	4.32
429.269	4.31
429.625	4.29
429.982	4.24
430.338	4.22
430.695	4.21
431.051	4.19
431.407	4.18
431.764	4.16
432.12	4.15
432.476	4.15
432.832	4.14
433.189	4.14
433.545	4.12
433.901	4.11
434.257	4.08
434.613	4.08
434.969	4.08
435.325	4.08
435.681	4.07
436.036	4.05
436.392	4.04
436.748	4.04
437.104	4.04
437.459	4.05
437.815	4.05
438.171	4.04
438.526	4.05
438.882	4.04
439.237	4.05
439.593	4.05
439.948	4.05
440.304	4.04
440.659	4.04
441.014	4.04
441.369	4.03
441.725	4.02
442.08	4.01
442.435	4
442.79	3.98
443.145	3.98
443.5	3.97
443.855	3.96
444.21	3.96
444.565	3.96
444.92	3.96
445.275	3.95
445.629	3.95
445.984	3.94
446.339	3.92
446.693	3.88
447.048	3.88
447.403	3.86
447.757	3.84
448.112	3.83
448.466	3.81
448.82	3.8
449.175	3.81
449.529	3.77
449.883	3.75
450.238	3.74
450.592	3.75
450.946	3.74
451.3	3.73
451.654	3.71
452.008	3.68
452.362	3.65
452.716	3.64
453.07	3.63
453.424	3.63
453.778	3.62
454.132	3.63
454.486	3.61
454.839	3.6
455.193	3.59
455.547	3.58
455.9	3.58
456.254	3.6
456.607	3.59
456.961	3.6
457.314	3.62
457.668	3.62
458.021	3.6
458.375	3.61
458.728	3.61
459.081	3.61
459.434	3.62
459.787	3.64
460.141	3.63
460.494	3.62
460.847	3.62
461.2	3.63
461.553	3.65
461.906	3.65
462.259	3.66
462.611	3.67
462.964	3.69
463.317	3.7
463.67	3.7
464.022	3.69
464.375	3.71
464.728	3.72
465.08	3.72
465.433	3.75
465.785	3.76
466.138	3.77
466.49	3.79
466.843	3.8
467.195	3.81
467.547	3.82
467.899	3.84
468.252	3.83
468.604	3.86
468.956	3.86
469.308	3.88
469.66	3.89
470.012	3.9
470.364	3.92
470.716	3.9
471.068	3.93
471.42	3.92
471.772	3.94
472.123	3.95
472.475	3.98
472.827	4
473.178	4
473.53	4.03
473.882	4.02
474.233	4.02
474.585	4.01
474.936	4.02
475.288	4.02
475.639	4.05
475.99	4.03
476.342	4.05
476.693	4.05
477.044	4.06
477.395	4.05
477.746	4.02
478.097	4.04
478.448	4.02
478.8	4.03
479.15	4
479.501	4
479.852	3.98
480.203	3.97
480.554	3.96
480.905	3.95
481.255	3.95
481.606	3.96
481.957	3.97
482.307	3.95
482.658	3.94
483.009	3.93
483.359	3.93
483.709	3.94
484.06	3.94
484.41	3.94
484.761	3.95
485.111	3.95
485.461	3.96
485.811	3.96
486.162	3.96
486.512	3.97
486.862	3.97
487.212	3.97
487.562	3.97
487.912	3.98
488.262	3.97
488.612	3.97
488.961	3.98
489.311	3.98
489.661	4
490.011	4.01
490.36	4.02
490.71	4.02
491.06	4.03
491.409	4.04
491.759	4.04
492.108	4.04
492.458	4.05
492.807	4.05
493.157	4.07
493.506	4.1
493.855	4.12
494.204	4.12
494.554	4.16
494.903	4.17
495.252	4.21
495.601	4.24
495.95	4.28
496.299	4.28
496.648	4.32
496.997	4.34
497.346	4.39
497.695	4.44
498.043	4.47
498.392	4.48
498.741	4.52
499.09	4.56
499.438	4.63
499.787	4.68
500.135	4.74
500.484	4.8
500.832	4.84
501.181	4.89
501.529	4.96
501.878	5.01
502.226	5.1
502.574	5.15
502.923	5.21
503.271	5.28
503.619	5.35
503.967	5.41
504.315	5.5
504.663	5.56
505.011	5.62
505.359	5.69
505.707	5.79
506.055	5.88
506.403	5.96
506.751	6.01
507.098	6.09
507.446	6.19
507.794	6.24
508.141	6.32
508.489	6.39
508.837	6.47
509.184	6.59
509.531	6.66
509.879	6.76
510.226	6.85
510.574	6.92
510.921	7.02
511.268	7.1
511.616	7.18
511.963	7.29
512.31	7.38
512.657	7.49
513.004	7.59
513.351	7.7
513.698	7.81
514.045	7.91
514.392	8.01
514.739	8.12
515.086	8.25
515.432	8.37
515.779	8.49
516.126	8.6
516.473	8.69
516.819	8.8
517.166	8.9
517.512	8.98
517.859	9.09
518.205	9.16
518.552	9.27
518.898	9.37
519.245	9.45
519.591	9.57
519.937	9.65
520.283	9.75
520.629	9.86
520.976	9.98
521.322	10.11
521.668	10.23
522.014	10.35
522.36	10.49
522.706	10.64
523.052	10.84
523.398	11.01
523.743	11.19
524.089	11.37
524.435	11.54
524.781	11.73
525.126	11.91
525.472	12.08
525.817	12.24
526.163	12.38
526.509	12.51
526.854	12.63
527.199	12.79
527.545	12.91
527.89	13.03
528.235	13.19
528.581	13.33
528.926	13.49
529.271	13.65
529.616	13.77
529.961	13.91
530.306	14.05
530.651	14.21
530.996	14.39
531.341	14.57
531.686	14.78
532.031	14.97
532.376	15.16
532.721	15.4
533.065	15.62
533.41	15.86
533.755	16.08
534.099	16.33
534.444	16.56
534.788	16.81
535.133	17.07
535.477	17.29
535.822	17.54
536.166	17.82
536.51	18.12
536.855	18.44
537.199	18.78
537.543	19.12
537.887	19.49
538.231	19.82
538.576	20.18
538.92	20.5
539.264	20.84
539.608	21.19
539.951	21.45
540.295	21.72
540.639	22.01
540.983	22.32
541.327	22.59
541.671	22.87
542.014	23.14
542.358	23.39
542.701	23.67
543.045	23.94
543.389	24.2
543.732	24.47
544.075	24.76
544.419	25.06
544.762	25.36
545.105	25.65
545.449	25.97
545.792	26.3
546.135	26.68
546.478	27.06
546.821	27.4
547.165	27.8
547.508	28.2
547.851	28.58
548.194	28.91
548.536	29.29
548.879	29.7
549.222	30.12
549.565	30.47
549.908	30.9
550.25	31.3
550.593	31.7
550.936	32.09
551.278	32.47
551.621	32.92
551.963	33.31
552.306	33.68
552.648	34.07
552.991	34.46
553.333	34.78
553.675	35.07
554.017	35.42
554.36	35.75
554.702	36.1
555.044	36.45
555.386	36.8
555.728	37.12
556.07	37.43
556.412	37.76
556.754	38.2
557.096	38.48
557.438	38.79
557.78	39.14
558.121	39.48
558.463	39.85
558.805	40.14
559.147	40.47
559.488	40.78
559.83	41.11
560.171	41.41
560.513	41.73
560.854	42.02
561.196	42.27
561.537	42.58
561.878	42.82
562.22	43.05
562.561	43.29
562.902	43.61
563.243	43.84
563.584	44
563.925	44.27
564.266	44.46
564.607	44.73
564.948	44.99
565.289	45.17
565.63	45.39
565.971	45.56
566.312	45.74
566.653	45.91
566.993	46.09
567.334	46.28
567.675	46.41
568.015	46.64
568.356	46.89
568.696	47.07
569.037	47.23
569.377	47.47
569.718	47.67
570.058	47.8
570.398	47.94
570.739	48.17
571.079	48.33
571.419	48.54
571.759	48.68
572.099	48.81
572.439	48.94
572.779	49.11
573.119	49.27
573.459	49.41
573.799	49.62
574.139	49.82
574.479	49.92
574.819	50.06
575.158	50.13
575.498	50.22
575.838	50.36
576.177	50.49
576.517	50.52
576.856	50.61
577.196	50.79
577.535	50.96
577.875	51.07
578.214	51.14
578.553	51.26
578.893	51.37
579.232	51.5
579.571	51.76
579.91	51.83
580.25	51.87
580.589	51.99
580.928	52.12
581.267	52.07
581.606	52.26
581.945	52.39
582.283	52.56
582.622	52.7
582.961	52.85
583.3	52.96
583.639	53.2
583.977	53.39
584.316	53.42
584.654	53.52
584.993	53.62
585.332	53.68
585.67	53.78
586.008	53.96
586.347	54.06
586.685	54.04
587.024	54.07
587.362	54.25
587.7	54.31
588.038	54.39
588.376	54.56
588.715	54.54
589.053	54.59
589.391	54.63
589.729	54.68
590.067	54.68
590.404	54.8
590.742	54.83
591.08	54.8
591.418	54.96
591.756	55.06
592.093	55.07
592.431	55.16
592.769	55.24
593.106	55.18
593.444	55.18
593.781	55.29
594.119	55.37
594.456	55.38
594.793	55.37
595.131	55.35
595.468	55.36
595.805	55.45
596.143	55.5
596.48	55.5
596.817	55.46
597.154	55.52
597.491	55.47
597.828	55.48
598.165	55.58
598.502	55.56
598.839	55.6
599.176	55.72
599.512	55.78
599.849	55.79
600.186	55.86
600.523	55.88
600.859	55.86
601.196	55.92
601.532	55.93
601.869	56.09
602.205	56.08
602.542	56.06
602.878	56.21
603.215	56.23
603.551	56.37
603.887	56.47
604.223	56.5
604.56	56.59
604.896	56.65
605.232	56.65
605.568	56.69
605.904	56.74
606.24	56.81
606.576	56.83
606.912	56.81
607.248	56.83
607.583	56.94
607.919	57.01
608.255	57.03
608.591	57.06
608.926	57.03
609.262	57.13
609.597	57.27
609.933	57.12
610.268	57.15
610.604	57.16
610.939	57.15
611.275	57.19
611.61	57.17
611.945	57.23
612.281	57.23
612.616	57.26
612.951	57.21
613.286	57.15
613.621	57.15
613.956	57.28
614.291	57.31
614.626	57.36
614.961	57.38
615.296	57.42
615.631	57.47
615.966	57.57
616.3	57.59
616.635	57.61
616.97	57.74
617.304	57.8
617.639	57.83
617.973	57.95
618.308	57.95
618.642	58.12
618.977	58.07
619.311	58.12
619.646	58.09
619.98	58.14
620.314	58.07
620.648	58.06
620.983	58.07
621.317	58.2
621.651	58.2
621.985	58.22
622.319	58.17
622.653	58.21
622.987	58.3
623.321	58.27
623.655	58.26
623.988	58.23
624.322	58.16
624.656	58.27
624.99	58.29
625.323	58.35
625.657	58.25
625.99	58.29
626.324	58.38
626.657	58.4
626.991	58.42
627.324	58.53
627.658	58.62
627.991	58.58
628.324	58.52
628.657	58.56
628.991	58.51
629.324	58.56
629.657	58.59
629.99	58.56
630.323	58.6
630.656	58.62
630.989	58.62
631.322	58.7
631.655	58.52
631.987	58.46
632.32	58.45
632.653	58.48
632.986	58.45
633.318	58.4
633.651	58.48
633.984	58.51
634.316	58.6
634.649	58.61
634.981	58.69
635.313	58.71
635.646	58.63
635.978	58.72
636.31	58.79
636.643	58.73
636.975	58.77
637.307	58.84
637.639	58.92
637.971	59.03
638.303	59.12
638.635	59.26
638.967	59.25
639.299	59.31
639.631	59.39
639.963	59.43
640.295	59.5
640.626	59.51
640.958	59.47
641.29	59.36
641.621	59.33
641.953	59.34
642.285	59.37
642.616	59.42
642.948	59.51
643.279	59.48
643.61	59.55
643.942	59.45
644.273	59.46
644.604	59.43
644.936	59.38
645.267	59.22
645.598	59.19
645.929	59.24
646.26	59.2
646.591	59.1
646.922	59.13
647.253	59.07
647.584	59.12
647.915	59.14
648.245	59.2
648.576	59.28
648.907	59.32
649.238	59.35
649.568	59.39
649.899	59.3
650.229	59.29
650.56	59.33
650.89	59.37
651.221	59.33
651.551	59.29
651.882	59.31
652.212	59.36
652.542	59.37
652.872	59.36
653.203	59.39
653.533	59.55
653.863	59.64
654.193	59.69
654.523	59.68
654.853	59.75
655.183	59.69
655.513	59.58
655.843	59.53
656.172	59.49
656.502	59.52
656.832	59.63
657.162	59.55
657.491	59.6
657.821	59.65
658.15	59.74
658.48	59.78
658.809	59.86
659.139	59.99
659.468	59.92
659.798	59.96
660.127	60.01
660.456	59.91
660.785	59.8
661.115	59.75
661.444	59.74
661.773	59.75
662.102	59.85
662.431	59.96
662.76	59.99
663.089	60.08
663.418	59.98
663.747	59.86
664.076	59.99
664.404	59.98
664.733	60.03
665.062	59.92
665.39	59.89
665.719	59.72
666.048	59.64
666.376	59.72
666.705	59.76
667.033	59.6
667.362	59.61
667.69	59.69
668.018	59.8
668.347	59.8
668.675	59.79
669.003	59.81
669.331	59.93
669.659	59.97
669.987	59.81
670.315	59.92
670.643	59.88
670.971	59.97
671.299	60.08
671.627	60.02
671.955	59.99
672.283	60.03
672.61	59.97
672.938	59.93
673.266	60
673.593	60.03
673.921	60.11
674.249	60.1
674.576	60.11
674.904	60.08
675.231	60.11
675.558	60.04
675.886	59.98
676.213	59.62
676.54	59.73
676.867	59.82
677.195	59.76
677.522	59.91
677.849	59.94
678.176	59.82
678.503	59.89
678.83	60.13
679.157	60.03
679.484	60.26
679.81	60.3
680.137	60.19
680.464	60.13
680.791	60.13
681.117	60.15
681.444	60.23
681.771	60.23
682.097	60.16
682.424	60.2
682.75	60.11
683.077	60.36
683.403	60.2
683.729	60.21
684.056	60.27
684.382	60.21
684.708	60.16
685.034	60.19
685.36	60.15
685.686	60.03
686.012	60.12
686.339	60.13
686.664	60.26
686.99	60.4
687.316	60.48
687.642	60.45
687.968	60.58
688.294	60.39
688.619	60.45
688.945	60.56
689.271	60.39
689.596	60.48
689.922	60.34
690.247	60.36
690.573	60.31
690.898	60.22
691.224	60.33
691.549	60.29
691.874	60.04
692.2	60.09
692.525	60.13
692.85	60.08
693.175	59.98
693.5	59.76
693.825	59.74
694.15	59.68
694.475	59.84
694.8	59.73
695.125	59.74
695.45	59.69
695.775	59.84
696.099	60.05
696.424	60.02
696.749	60.07
697.073	59.99
697.398	59.92
697.723	59.98
698.047	59.9
698.372	59.8
698.696	59.92
699.02	59.83
699.345	59.8
699.669	59.88
699.993	59.86
700.318	59.84
700.642	59.79
700.966	59.73
701.29	59.68
701.614	59.68
701.938	59.89
702.262	59.9
702.586	59.6
702.91	59.52
703.234	59.52
703.557	59.54
703.881	59.51
704.205	59.58
704.529	59.5
704.852	59.63
705.176	59.75
705.499	59.72
705.823	59.86
706.146	59.78
706.47	59.61
706.793	59.62
707.117	59.67
707.44	59.77
707.763	59.99
708.086	60.03
708.409	60.06
708.733	59.91
709.056	59.71
709.379	59.81
709.702	59.85
710.025	59.84
710.348	59.83
710.671	60.15
710.993	60.19
711.316	60.31
711.639	60.27
711.962	60.15
712.284	60
712.607	59.92
712.93	59.71
713.252	59.75
713.575	59.79
713.897	59.86
714.22	59.85
714.542	59.75
714.864	59.68
715.187	59.59
715.509	59.66
715.831	59.9
716.153	60.06
716.475	60.08
716.798	60.13
717.12	60.15
717.442	59.95
717.764	59.94
718.085	59.91
718.407	60.02
718.729	60.25
719.051	60.5
719.373	60.47
719.695	60.58
720.016	60.53
720.338	60.51
720.659	60.46
720.981	60.52
721.302	60.31
721.624	60.38
721.945	60.47
722.267	60.49
722.588	60.32
722.909	60.01
723.231	60.04
723.552	59.95
723.873	59.98
724.194	60.12
724.515	60.06
724.836	59.8
725.157	59.67
725.478	59.41
725.799	59.46
726.12	59.46
726.441	59.52
726.762	59.33
727.083	59.13
727.403	59.21
727.724	59.09
728.045	59.28
728.365	59.23
728.686	59.37
729.006	59.22
729.327	59.18
729.647	59.51
729.967	59.51
730.288	59.52
730.608	59.49
730.928	59.37
731.249	59.4
731.569	59.54
731.889	59.54
732.209	59.63
732.529	59.78
732.849	59.84
733.169	60.01
733.489	60.22
733.809	60.31
734.129	60.27
734.448	60.24
734.768	60.09
735.088	60.01
735.408	59.95
735.727	60.05
736.047	60.15
736.366	59.93
736.686	59.88
737.005	59.99
737.325	59.97
737.644	59.94
737.963	59.83
738.283	59.85
738.602	59.85
738.921	59.85
739.24	59.58
739.56	59.49
739.879	59.27
740.198	59.61
740.517	59.8
740.836	59.92
741.155	59.84
741.473	60.04
741.792	60.21
742.111	60.08
742.43	59.76
742.748	59.88
743.067	60.25
743.386	60.15
743.704	60.33
744.023	60.32
744.341	60.3
744.66	60.74
744.978	60.94
745.297	60.93
745.615	61.08
745.933	61.02
746.252	61.22
746.57	61.3
746.888	60.91
747.206	60.72
747.524	60.38
747.842	60.28
748.16	60.42
748.478	60.6
748.796	60.79
749.114	61.33
749.432	61.43
749.749	61.22
750.067	61.15
750.385	60.88
750.703	60.85
751.02	61
751.338	60.89
751.655	60.58
751.973	60.39
752.29	60.31
752.608	60.42
752.925	60.23
753.242	60.47
753.56	60.44
753.877	60.78
754.194	60.76
754.511	60.78
754.828	60.2
755.145	59.88
755.462	59.87
755.779	59.8
756.096	59.39
756.413	59.14
756.73	59.36
757.047	59.36
757.364	59.37
757.68	59.33
757.997	59.19
758.314	59.73
758.63	59.64
758.947	59.84
759.264	59.93
759.58	60.09
759.896	60.24
760.213	60.57
760.529	60.23
760.846	60.17
761.162	60.35
761.478	60.8
761.794	60.99
762.11	61.02
762.426	60.7
762.743	60.88
763.059	60.93
763.375	60.83
763.69	60.9
764.006	61.12
764.322	61.33
764.638	61.45
764.954	61.09
765.27	61.42
765.585	61.23
765.901	61.27
766.216	61.21
766.532	60.97
766.848	60.88
767.163	61.06
767.478	61.39
767.794	61.42
768.109	61.23
768.424	61.23
768.74	61.14
769.055	61.33
769.37	61.41
769.685	61.48
770	61.73
770.315	61.64
770.63	61.4
770.945	60.94
771.26	60.59
771.575	60.38
771.89	60.13
772.205	60.28
772.52	60.34
772.834	60.48
773.149	60.54
773.464	60.5
773.778	60.77
774.093	60.61
774.407	60.7
774.722	60.75
775.036	60.69
775.351	60.41
775.665	60.35
775.979	60.27
776.293	60.03
776.608	59.8
776.922	59.81
777.236	60.06
777.55	60.25
777.864	60.48
778.178	60.74
778.492	60.9
778.806	60.69
779.12	60.41
779.434	59.83
779.747	59.9
780.061	60.08
780.375	59.66
780.689	59.46
781.002	59.54
781.316	59.45
781.629	59.2
781.943	59.19
782.256	59.62
782.57	59.75
782.883	60.09
783.196	59.87
783.51	59.62
783.823	59.34
784.136	59.22
784.449	58.87
784.762	58.88
785.075	58.78
785.388	58.9
785.701	58.79
786.014	59.31
786.327	59.27
786.64	58.8
786.953	58.77
787.266	58.87
787.578	58.9
787.891	59.17
788.204	59.58
788.516	59.7
788.829	58.81
789.141	58.51
789.454	58.41
789.766	58.95
790.079	59.38
790.391	59.78
790.703	60.11
791.016	60.85
791.328	61.12
791.64	61.01
791.952	61.2
792.264	61.22
792.576	61.16
792.888	61.21
793.2	61.44
793.512	61.52
793.824	61.73
794.136	61.77
794.448	61.63
794.76	61.34
795.071	61.53
795.383	62.35
795.695	62.27
796.006	62.05
796.318	62.16
796.629	62.17
796.941	61.62
797.252	61.74
797.564	61.67
797.875	61.78
798.186	61.21
798.497	60.93
798.809	60.95
799.12	60.58
799.431	60.35
799.742	60.77
800.053	60.83
800.364	60.18
800.675	59.17
800.986	58.64
801.297	58.44
801.608	58.38
801.918	57.76
802.229	57.6
802.54	57.85
802.851	57.11
803.161	56.91
803.472	56.79
803.782	56.43
804.093	55.87
804.403	55.85
804.714	56.12
805.024	56.12
805.334	56.82
805.645	56.3
805.955	56.17
806.265	55.79
806.575	56.14
806.885	57.25
807.195	58.31
807.505	59.03
807.815	59.55
808.125	59.4
808.435	59.78
808.745	60.13
809.055	60
809.365	60.57
809.674	60.48
809.984	60.61
810.294	60.52
810.603	60.49
810.913	59.78
811.222	60.73
811.532	59.55
811.841	59.02
812.151	60.34
812.46	60.96
812.769	61.58
813.079	60.68
813.388	60.22
813.697	60.25
814.006	60.34
814.315	60.08
814.624	60.29
814.933	60.26
815.242	59.57
815.551	59.53
815.86	59.12
816.169	59.12
816.478	58.83
816.786	59.32
817.095	59.39
817.404	59.58
817.712	58.83
818.021	59.85
818.33	60.08
818.638	60.07
818.947	59.62
819.255	59.09
819.563	59.2
819.872	59.53
820.18	59.62
820.488	59.5
820.796	59.33
821.105	59.32
821.413	59.41
821.721	59.65
822.029	59.75
822.337	59.88
822.645	59.98
822.953	60.3
823.26	60.35
823.568	60.45
823.876	60.3
824.184	60.36
824.491	60.3
824.799	60.3
825.107	60.13
825.414	60.19
825.722	60.17
826.029	60.23
826.337	60.25
826.644	60.23
826.951	60.46
827.259	60.5
827.566	60.65
827.873	60.59
828.18	60.62
828.488	60.67
828.795	60.5
829.102	60.43
829.409	60.02
829.716	59.75
830.023	59.49
830.329	59.76
830.636	59.84
830.943	59.99
831.25	59.96
831.557	60
831.863	60.39
832.17	60.72
832.476	61.13
832.783	60.93
833.089	60.93
833.396	60.28
833.702	60.4
834.009	60.22
834.315	60.6
834.621	61.18
834.928	60.61
835.234	60.85
835.54	60.79
835.846	60.91
836.152	61.05
836.458	61.86
836.764	61.56
837.07	61.22
837.376	61.14
837.682	60.77
837.988	61.02
838.293	60.44
838.599	60.33
838.905	59.27
839.211	58.9
839.516	58.48
839.822	58.63
840.127	58.06
840.433	58.41
840.738	57.37
841.044	56.12
841.349	56.66
841.654	57.47
841.959	57.29
842.265	57.34
842.57	56.38
842.875	54.85
843.18	55.45
843.485	56.09
843.79	55.12
844.095	55.08
844.4	54.4
844.705	54.5
845.01	53.9
845.315	54.71
845.619	55.18
845.924	54.47
846.229	54.06
846.533	55.1
846.838	53.18
847.142	52.73
847.447	52.26
847.751	51.56
848.056	49.29
848.36	48.36
848.664	48.54
848.969	50.04
849.273	50.59
849.577	48.92
849.881	48.56
850.185	50.94
850.489	52.09
850.794	53.95
851.097	53.11
851.401	54.05
851.705	55.05
852.009	54.67
852.313	54.78
852.617	56.78
852.92	56.94
853.224	57.62
853.528	61.13
853.831	60.92
854.135	62.89
854.438	62.05
854.742	65.23
855.045	63.91
855.349	63.09
855.652	65.12
855.955	65.3
856.259	65.72
856.562	63.08
856.865	62.5
857.168	59.58
857.471	61.2
857.774	59.11
858.077	57.2
858.38	58.44
858.683	60.03
858.986	59.97
859.289	60.19
859.592	61.49
859.894	60.98
860.197	61.84
860.5	62.47
860.802	63.98
861.105	61.95
861.407	60.1
861.71	60.98
862.012	61.11
862.315	62.01
862.617	62.21
862.919	62.76
863.222	64.05
863.524	66.3
863.826	67.25
864.128	68.82
864.43	68.82
864.732	68.96
865.034	66.8
865.336	61.63
865.638	57.76
865.94	54.39
866.242	53.69
866.544	52.55
866.846	50.99
867.147	50.59
867.449	51.27
867.751	53.19
868.052	52.62
868.354	52.11
868.655	55.49
868.957	54.02
869.258	55.06
869.56	54.12
869.861	52.43
870.162	49.96
870.463	51.67
870.765	53.13
871.066	51.78
871.367	53.6
871.668	55.19
871.969	56.94
872.27	58.16
872.571	57.96
872.872	60.29
873.173	59.27
873.473	57.98
873.774	60.83
874.075	59.82
874.376	59
874.676	56.05
874.977	54.88
875.277	55.68
875.578	54.37
875.878	53.38
876.179	54.4
876.479	55.07
876.78	52.08
877.08	50.75
877.38	50.19
877.68	49.19
877.981	52.27
878.281	54.33
878.581	57.28
