Data from BA57712_Reflection_00013.txt Node
Date: Mon Nov 18 15:19:45 EST 2019
User: vgr7
Spectrometer: USB2G7710
Scans to average: 3
Trigger mode: 4
Integration Time (sec): 2.000000E-2
Electric dark correction enabled: true
Boxcar width: 10
XAxis mode: Wavelengths
Number of Pixels in Spectrum: 2048
>>>>>Begin Spectral Data<<<<<
177.721	15.03
178.105	12.09
178.488	25.21
178.871	28.57
179.254	45.81
179.636	-44.74
180.019	70.3
180.402	111.36
180.785	-103.54
181.168	3100
181.55	119.87
181.933	64.49
182.316	71.07
182.698	92.68
183.081	62.96
183.463	45.64
183.846	49.93
184.228	76.3
184.611	80.15
184.993	126
185.376	87.06
185.758	125.15
186.14	108.88
186.522	87.62
186.904	101.89
187.287	85.8
187.669	61.67
188.051	112.99
188.433	115.08
188.815	59.71
189.197	109.9
189.579	-100
189.961	-120.22
190.342	-96.79
190.724	-141.11
191.106	-163.16
191.488	-52.91
191.869	-29.35
192.251	-34.38
192.633	-18.19
193.014	-67.63
193.396	-33.18
193.777	-15.48
194.159	-21.13
194.54	-5.97
194.922	-20.98
195.303	-62.85
195.684	-92.63
196.065	-92.25
196.447	-59.56
196.828	-60.34
197.209	-45.43
197.59	-64.66
197.971	-35.75
198.352	-20.26
198.733	-15.55
199.114	-5.3
199.495	-7.72
199.876	-4.96
200.257	3.12
200.638	13.95
201.018	14.95
201.399	18.4
201.78	21.07
202.16	7.02
202.541	7.68
202.922	7.93
203.302	14.34
203.683	-0.6
204.063	-5.97
204.444	-6.97
204.824	-0.33
205.204	-4.4
205.585	0.9
205.965	3.23
206.345	25.41
206.725	-5.34
207.106	-101.2
207.486	-310.85
207.866	97.05
208.246	41.62
208.626	129.35
209.006	115.87
209.386	257.89
209.766	249.43
210.145	93.79
210.525	114.25
210.905	104.93
211.285	45.45
211.664	-17.85
212.044	-119.05
212.424	-133.64
212.803	159.83
213.183	-53.44
213.562	-123.14
213.942	-29.19
214.321	-100
214.701	6.12
215.08	34.58
215.459	29.92
215.838	21.79
216.218	14.67
216.597	45.66
216.976	38.04
217.355	43.23
217.734	37.34
218.113	35.18
218.492	33.61
218.871	34.95
219.25	36.61
219.629	54.36
220.008	56.68
220.387	54.73
220.766	58.1
221.144	68.14
221.523	88.32
221.902	55.89
222.28	35.56
222.659	38.69
223.037	30.45
223.416	11.27
223.794	5.42
224.173	0.66
224.551	3.42
224.929	9.64
225.308	21.41
225.686	16.82
226.064	10.54
226.442	6.73
226.821	1.84
227.199	-0.48
227.577	-3.9
227.955	-5.47
228.333	-6.5
228.711	-3.08
229.089	-1.26
229.467	-2.19
229.845	-0.74
230.222	2.01
230.6	0.94
230.978	2.44
231.356	4.9
231.733	4.35
232.111	6.77
232.488	4.71
232.866	4.39
233.243	2.12
233.621	0.58
233.998	1.99
234.376	2.29
234.753	2.42
235.13	2.36
235.508	4.02
235.885	5.99
236.262	5.16
236.639	5.35
237.016	4.19
237.393	3.89
237.77	5.02
238.147	4.47
238.524	4.63
238.901	5.05
239.278	4.84
239.655	5.09
240.032	4.43
240.409	4.12
240.785	4.27
241.162	4.3
241.539	4.69
241.915	4.48
242.292	4.61
242.668	4.39
243.045	4.59
243.421	4.48
243.798	4.44
244.174	4.79
244.551	4.47
244.927	4.32
245.303	4.33
245.679	4.2
246.056	4.27
246.432	4.09
246.808	4
247.184	3.9
247.56	3.81
247.936	3.49
248.312	3.71
248.688	3.68
249.064	3.88
249.44	3.98
249.815	4.1
250.191	4.12
250.567	4.24
250.943	4.12
251.318	3.97
251.694	3.61
252.069	3.49
252.445	3.53
252.82	3.48
253.196	3.54
253.571	3.52
253.947	3.31
254.322	3.6
254.697	3.3
255.073	3.44
255.448	3.13
255.823	3.4
256.198	3.52
256.573	3.33
256.948	3.27
257.323	3.14
257.698	3.06
258.073	2.92
258.448	2.72
258.823	2.77
259.198	2.69
259.573	2.78
259.948	2.77
260.322	2.87
260.697	2.99
261.072	2.87
261.446	2.9
261.821	2.82
262.195	2.76
262.57	2.69
262.944	2.65
263.319	2.78
263.693	2.82
264.067	2.7
264.442	2.86
264.816	2.74
265.19	2.7
265.564	2.77
265.938	2.65
266.313	2.77
266.687	2.93
267.061	3.12
267.435	3.05
267.809	2.93
268.183	2.88
268.556	2.87
268.93	2.97
269.304	3
269.678	3.18
270.051	3.22
270.425	3.42
270.799	3.38
271.172	3.35
271.546	3.35
271.919	3.27
272.293	3.18
272.666	3.26
273.04	3.38
273.413	3.23
273.787	3.28
274.16	3.37
274.533	3.25
274.906	3.22
275.279	3.3
275.653	3.3
276.026	3.23
276.399	3.28
276.772	3.43
277.145	3.27
277.518	3.29
277.891	3.28
278.263	3.2
278.636	3.24
279.009	3.3
279.382	3.33
279.755	3.46
280.127	3.51
280.5	3.58
280.872	3.67
281.245	3.57
281.617	3.78
281.99	3.74
282.362	3.96
282.735	3.76
283.107	3.67
283.479	3.62
283.852	3.61
284.224	3.6
284.596	3.45
284.968	3.55
285.34	3.45
285.713	3.41
286.085	3.48
286.457	3.59
286.829	3.65
287.201	3.61
287.572	3.56
287.944	3.59
288.316	3.57
288.688	3.46
289.06	3.49
289.431	3.45
289.803	3.55
290.175	3.52
290.546	3.81
290.918	3.92
291.289	4.07
291.661	4.19
292.032	4.22
292.403	4.44
292.775	4.49
293.146	4.63
293.517	4.74
293.889	4.81
294.26	4.79
294.631	4.82
295.002	4.87
295.373	4.92
295.744	4.9
296.115	4.86
296.486	4.87
296.857	4.86
297.228	4.9
297.599	4.85
297.97	4.82
298.34	4.77
298.711	4.86
299.082	4.9
299.452	4.93
299.823	5.14
300.194	5.1
300.564	5.08
300.935	5.17
301.305	5.19
301.676	5.27
302.046	5.35
302.416	5.47
302.787	5.63
303.157	5.77
303.527	5.78
303.897	5.97
304.267	6.13
304.637	6.44
305.008	6.44
305.378	6.63
305.748	6.62
306.117	6.72
306.487	6.83
306.857	6.8
307.227	6.88
307.597	6.92
307.967	7.11
308.336	7.19
308.706	7.34
309.076	7.35
309.445	7.38
309.815	7.42
310.184	7.48
310.554	7.58
310.923	7.65
311.293	7.84
311.662	7.87
312.031	7.95
312.401	8.04
312.77	8.17
313.139	8.34
313.508	8.58
313.877	8.62
314.246	8.76
314.616	8.86
314.985	8.99
315.353	8.94
315.722	9.08
316.091	9.28
316.46	9.24
316.829	9.46
317.198	9.67
317.567	9.78
317.935	9.91
318.304	9.96
318.672	10.09
319.041	10.22
319.41	10.35
319.778	10.47
320.147	10.4
320.515	10.48
320.883	10.32
321.252	10.29
321.62	10.49
321.988	10.52
322.357	10.69
322.725	10.68
323.093	10.83
323.461	10.92
323.829	10.97
324.197	11.08
324.565	11.05
324.933	11.04
325.301	11.1
325.669	11.13
326.037	11.23
326.405	11.26
326.772	11.39
327.14	11.49
327.508	11.45
327.875	11.47
328.243	11.58
328.61	11.7
328.978	11.8
329.346	11.84
329.713	11.9
330.08	11.93
330.448	11.79
330.815	11.79
331.182	11.73
331.55	11.75
331.917	11.77
332.284	11.95
332.651	12.02
333.018	12.14
333.385	12.02
333.752	12
334.119	12.04
334.486	12.05
334.853	12.07
335.22	12.26
335.587	12.5
335.954	12.5
336.32	12.55
336.687	12.58
337.054	12.54
337.42	12.46
337.787	12.41
338.153	12.54
338.52	12.59
338.886	12.61
339.253	12.57
339.619	12.59
339.986	12.57
340.352	12.54
340.718	12.49
341.084	12.59
341.451	12.71
341.817	12.86
342.183	12.79
342.549	12.76
342.915	12.73
343.281	12.66
343.647	12.72
344.013	12.78
344.379	12.77
344.745	12.92
345.11	12.98
345.476	13.18
345.842	13.28
346.208	13.28
346.573	13.28
346.939	13.32
347.304	13.32
347.67	13.3
348.035	13.38
348.401	13.38
348.766	13.47
349.132	13.35
349.497	13.23
349.862	13.25
350.228	13.29
350.593	13.27
350.958	13.27
351.323	13.16
351.688	13.08
352.053	13.13
352.418	13.11
352.783	13.14
353.148	12.98
353.513	12.95
353.878	12.94
354.243	12.99
354.608	13.04
354.972	13.02
355.337	13.08
355.702	13.09
356.066	13.16
356.431	13.11
356.795	13.14
357.16	13.11
357.524	13.09
357.889	13.03
358.253	12.96
358.618	12.96
358.982	12.96
359.346	12.9
359.71	12.81
360.075	12.75
360.439	12.7
360.803	12.7
361.167	12.67
361.531	12.67
361.895	12.55
362.259	12.5
362.623	12.51
362.987	12.42
363.351	12.26
363.714	12.21
364.078	12.16
364.442	12.07
364.806	11.98
365.169	11.92
365.533	11.88
365.896	11.84
366.26	11.74
366.623	11.66
366.987	11.63
367.35	11.59
367.714	11.47
368.077	11.36
368.44	11.3
368.803	11.27
369.167	11.14
369.53	11.04
369.893	10.95
370.256	10.83
370.619	10.76
370.982	10.73
371.345	10.57
371.708	10.5
372.071	10.4
372.434	10.32
372.797	10.21
373.159	10.07
373.522	9.98
373.885	9.92
374.247	9.91
374.61	9.81
374.973	9.71
375.335	9.64
375.698	9.54
376.06	9.46
376.423	9.32
376.785	9.29
377.147	9.31
377.51	9.25
377.872	9.25
378.234	9.2
378.596	9.14
378.958	9.1
379.321	9.04
379.683	8.99
380.045	8.93
380.407	8.84
380.769	8.81
381.13	8.77
381.492	8.68
381.854	8.56
382.216	8.5
382.578	8.44
382.939	8.37
383.301	8.32
383.663	8.24
384.024	8.23
384.386	8.2
384.747	8.13
385.109	8.07
385.47	7.96
385.832	7.87
386.193	7.82
386.554	7.79
386.916	7.73
387.277	7.64
387.638	7.61
387.999	7.57
388.36	7.5
388.721	7.45
389.082	7.42
389.443	7.37
389.804	7.34
390.165	7.26
390.526	7.2
390.887	7.13
391.248	7.11
391.609	7.06
391.969	6.95
392.33	6.85
392.691	6.8
393.051	6.75
393.412	6.73
393.772	6.66
394.133	6.6
394.493	6.52
394.854	6.48
395.214	6.42
395.574	6.36
395.935	6.3
396.295	6.26
396.655	6.19
397.015	6.11
397.376	6.03
397.736	5.99
398.096	5.94
398.456	5.91
398.816	5.84
399.176	5.73
399.535	5.66
399.895	5.63
400.255	5.55
400.615	5.49
400.975	5.44
401.334	5.39
401.694	5.3
402.054	5.25
402.413	5.2
402.773	5.13
403.132	5.13
403.492	5.11
403.851	5.04
404.211	4.97
404.57	4.95
404.929	4.93
405.288	4.91
405.648	4.88
406.007	4.86
406.366	4.86
406.725	4.88
407.084	4.92
407.443	4.9
407.802	4.91
408.161	4.89
408.52	4.86
408.879	4.83
409.238	4.85
409.596	4.86
409.955	4.85
410.314	4.84
410.673	4.78
411.031	4.74
411.39	4.73
411.748	4.72
412.107	4.71
412.465	4.67
412.824	4.64
413.182	4.62
413.54	4.63
413.899	4.61
414.257	4.54
414.615	4.48
414.974	4.48
415.332	4.46
415.69	4.41
416.048	4.37
416.406	4.35
416.764	4.31
417.122	4.28
417.48	4.24
417.838	4.23
418.195	4.2
418.553	4.18
418.911	4.15
419.269	4.14
419.626	4.12
419.984	4.1
420.342	4.09
420.699	4.06
421.057	4.03
421.414	3.99
421.772	3.98
422.129	3.99
422.486	3.95
422.844	3.93
423.201	3.92
423.558	3.9
423.915	3.89
424.273	3.87
424.63	3.84
424.987	3.84
425.344	3.83
425.701	3.83
426.058	3.83
426.415	3.82
426.772	3.81
427.128	3.79
427.485	3.79
427.842	3.75
428.199	3.77
428.555	3.75
428.912	3.75
429.269	3.74
429.625	3.68
429.982	3.67
430.338	3.66
430.695	3.67
431.051	3.67
431.407	3.64
431.764	3.65
432.12	3.65
432.476	3.63
432.832	3.6
433.189	3.6
433.545	3.58
433.901	3.57
434.257	3.56
434.613	3.56
434.969	3.55
435.325	3.56
435.681	3.53
436.036	3.53
436.392	3.55
436.748	3.54
437.104	3.56
437.459	3.54
437.815	3.54
438.171	3.54
438.526	3.52
438.882	3.52
439.237	3.52
439.593	3.54
439.948	3.53
440.304	3.54
440.659	3.52
441.014	3.52
441.369	3.51
441.725	3.5
442.08	3.51
442.435	3.49
442.79	3.49
443.145	3.47
443.5	3.46
443.855	3.45
444.21	3.42
444.565	3.43
444.92	3.44
445.275	3.42
445.629	3.42
445.984	3.42
446.339	3.4
446.693	3.38
447.048	3.34
447.403	3.33
447.757	3.32
448.112	3.32
448.466	3.31
448.82	3.28
449.175	3.3
449.529	3.27
449.883	3.26
450.238	3.25
450.592	3.25
450.946	3.25
451.3	3.23
451.654	3.24
452.008	3.22
452.362	3.2
452.716	3.2
453.07	3.2
453.424	3.19
453.778	3.2
454.132	3.21
454.486	3.25
454.839	3.26
455.193	3.27
455.547	3.27
455.9	3.28
456.254	3.29
456.607	3.28
456.961	3.3
457.314	3.3
457.668	3.3
458.021	3.3
458.375	3.29
458.728	3.29
459.081	3.28
459.434	3.29
459.787	3.3
460.141	3.31
460.494	3.32
460.847	3.32
461.2	3.32
461.553	3.32
461.906	3.32
462.259	3.33
462.611	3.34
462.964	3.35
463.317	3.35
463.67	3.36
464.022	3.37
464.375	3.36
464.728	3.39
465.08	3.4
465.433	3.42
465.785	3.44
466.138	3.45
466.49	3.45
466.843	3.46
467.195	3.47
467.547	3.47
467.899	3.48
468.252	3.5
468.604	3.51
468.956	3.54
469.308	3.54
469.66	3.53
470.012	3.54
470.364	3.56
470.716	3.6
471.068	3.61
471.42	3.6
471.772	3.63
472.123	3.66
472.475	3.67
472.827	3.68
473.178	3.7
473.53	3.7
473.882	3.72
474.233	3.72
474.585	3.69
474.936	3.7
475.288	3.72
475.639	3.73
475.99	3.71
476.342	3.69
476.693	3.68
477.044	3.7
477.395	3.68
477.746	3.67
478.097	3.65
478.448	3.64
478.8	3.63
479.15	3.6
479.501	3.58
479.852	3.57
480.203	3.57
480.554	3.56
480.905	3.58
481.255	3.57
481.606	3.58
481.957	3.58
482.307	3.57
482.658	3.56
483.009	3.56
483.359	3.57
483.709	3.59
484.06	3.58
484.41	3.58
484.761	3.58
485.111	3.57
485.461	3.57
485.811	3.58
486.162	3.59
486.512	3.59
486.862	3.59
487.212	3.59
487.562	3.6
487.912	3.6
488.262	3.6
488.612	3.61
488.961	3.61
489.311	3.63
489.661	3.63
490.011	3.64
490.36	3.63
490.71	3.63
491.06	3.63
491.409	3.64
491.759	3.65
492.108	3.67
492.458	3.7
492.807	3.71
493.157	3.73
493.506	3.74
493.855	3.77
494.204	3.8
494.554	3.83
494.903	3.85
495.252	3.88
495.601	3.92
495.95	3.93
496.299	3.97
496.648	3.99
496.997	4.05
497.346	4.1
497.695	4.15
498.043	4.21
498.392	4.25
498.741	4.3
499.09	4.36
499.438	4.42
499.787	4.47
500.135	4.52
500.484	4.56
500.832	4.64
501.181	4.7
501.529	4.76
501.878	4.83
502.226	4.89
502.574	4.96
502.923	5.03
503.271	5.12
503.619	5.2
503.967	5.29
504.315	5.36
504.663	5.43
505.011	5.52
505.359	5.62
505.707	5.71
506.055	5.78
506.403	5.87
506.751	5.95
507.098	6.04
507.446	6.15
507.794	6.24
508.141	6.33
508.489	6.43
508.837	6.52
509.184	6.63
509.531	6.73
509.879	6.83
510.226	6.97
510.574	7.08
510.921	7.19
511.268	7.29
511.616	7.39
511.963	7.5
512.31	7.61
512.657	7.71
513.004	7.85
513.351	8
513.698	8.14
514.045	8.27
514.392	8.41
514.739	8.53
515.086	8.67
515.432	8.82
515.779	8.98
516.126	9.13
516.473	9.25
516.819	9.4
517.166	9.54
517.512	9.64
517.859	9.77
518.205	9.89
518.552	10.02
518.898	10.18
519.245	10.3
519.591	10.45
519.937	10.57
520.283	10.71
520.629	10.85
520.976	10.99
521.322	11.16
521.668	11.31
522.014	11.52
522.36	11.74
522.706	11.92
523.052	12.12
523.398	12.34
523.743	12.57
524.089	12.76
524.435	12.97
524.781	13.19
525.126	13.4
525.472	13.61
525.817	13.79
526.163	13.95
526.509	14.1
526.854	14.24
527.199	14.4
527.545	14.52
527.89	14.67
528.235	14.83
528.581	14.97
528.926	15.12
529.271	15.27
529.616	15.41
529.961	15.56
530.306	15.72
530.651	15.88
530.996	16.05
531.341	16.25
531.686	16.46
532.031	16.67
532.376	16.85
532.721	17.04
533.065	17.26
533.41	17.47
533.755	17.7
534.099	17.94
534.444	18.16
534.788	18.39
535.133	18.62
535.477	18.83
535.822	19.07
536.166	19.35
536.51	19.62
536.855	19.91
537.199	20.2
537.543	20.53
537.887	20.85
538.231	21.17
538.576	21.47
538.92	21.76
539.264	22.03
539.608	22.29
539.951	22.54
540.295	22.78
540.639	23.02
540.983	23.25
541.327	23.46
541.671	23.7
542.014	23.95
542.358	24.18
542.701	24.4
543.045	24.65
543.389	24.85
543.732	25.06
544.075	25.28
544.419	25.49
544.762	25.71
545.105	25.94
545.449	26.18
545.792	26.43
546.135	26.7
546.478	26.97
546.821	27.26
547.165	27.55
547.508	27.82
547.851	28.1
548.194	28.4
548.536	28.72
548.879	29.01
549.222	29.3
549.565	29.6
549.908	29.93
550.25	30.2
550.593	30.53
550.936	30.79
551.278	31.05
551.621	31.36
551.963	31.67
552.306	31.92
552.648	32.21
552.991	32.48
553.333	32.77
553.675	33.01
554.017	33.27
554.36	33.57
554.702	33.84
555.044	34.08
555.386	34.33
555.728	34.54
556.07	34.73
556.412	34.94
556.754	35.13
557.096	35.37
557.438	35.61
557.78	35.8
558.121	36.09
558.463	36.36
558.805	36.62
559.147	36.88
559.488	37.08
559.83	37.29
560.171	37.51
560.513	37.67
560.854	37.9
561.196	38.1
561.537	38.27
561.878	38.41
562.22	38.56
562.561	38.76
562.902	38.96
563.243	39.2
563.584	39.4
563.925	39.61
564.266	39.76
564.607	39.92
564.948	40.11
565.289	40.25
565.63	40.38
565.971	40.48
566.312	40.61
566.653	40.77
566.993	40.95
567.334	41.09
567.675	41.23
568.015	41.33
568.356	41.46
568.696	41.57
569.037	41.71
569.377	41.91
569.718	42.03
570.058	42.1
570.398	42.18
570.739	42.29
571.079	42.39
571.419	42.48
571.759	42.59
572.099	42.66
572.439	42.78
572.779	42.94
573.119	43.08
573.459	43.18
573.799	43.33
574.139	43.38
574.479	43.49
574.819	43.51
575.158	43.65
575.498	43.75
575.838	43.85
576.177	43.96
576.517	44.04
576.856	44.2
577.196	44.36
577.535	44.52
577.875	44.62
578.214	44.7
578.553	44.89
578.893	45
579.232	45.17
579.571	45.27
579.91	45.42
580.25	45.59
580.589	45.73
580.928	45.83
581.267	45.98
581.606	46.15
581.945	46.31
582.283	46.38
582.622	46.52
582.961	46.63
583.3	46.75
583.639	46.81
583.977	46.81
584.316	46.87
584.654	46.91
584.993	46.99
585.332	47.1
585.67	47.13
586.008	47.19
586.347	47.17
586.685	47.24
587.024	47.22
587.362	47.18
587.7	47.18
588.038	47.17
588.376	47.2
588.715	47.25
589.053	47.4
589.391	47.52
589.729	47.56
590.067	47.62
590.404	47.69
590.742	47.73
591.08	47.8
591.418	47.85
591.756	47.94
592.093	48
592.431	48.04
592.769	48.09
593.106	48.06
593.444	48.15
593.781	48.16
594.119	48.19
594.456	48.25
594.793	48.23
595.131	48.32
595.468	48.35
595.805	48.34
596.143	48.3
596.48	48.3
596.817	48.31
597.154	48.38
597.491	48.4
597.828	48.51
598.165	48.56
598.502	48.68
598.839	48.66
599.176	48.72
599.512	48.75
599.849	48.79
600.186	48.89
600.523	48.98
600.859	49.06
601.196	49.03
601.532	49.07
601.869	49.22
602.205	49.28
602.542	49.28
602.878	49.22
603.215	49.28
603.551	49.32
603.887	49.34
604.223	49.29
604.56	49.36
604.896	49.25
605.232	49.26
605.568	49.24
605.904	49.29
606.24	49.3
606.576	49.33
606.912	49.36
607.248	49.41
607.583	49.39
607.919	49.45
608.255	49.54
608.591	49.59
608.926	49.54
609.262	49.55
609.597	49.62
609.933	49.68
610.268	49.69
610.604	49.7
610.939	49.78
611.275	49.88
611.61	49.89
611.945	50.07
612.281	50.08
612.616	50.12
612.951	50.17
613.286	50.24
613.621	50.27
613.956	50.28
614.291	50.36
614.626	50.38
614.961	50.43
615.296	50.52
615.631	50.54
615.966	50.57
616.3	50.58
616.635	50.58
616.97	50.68
617.304	50.71
617.639	50.71
617.973	50.63
618.308	50.6
618.642	50.52
618.977	50.5
619.311	50.59
619.646	50.57
619.98	50.6
620.314	50.59
620.648	50.61
620.983	50.67
621.317	50.66
621.651	50.7
621.985	50.69
622.319	50.7
622.653	50.75
622.987	50.79
623.321	50.79
623.655	50.79
623.988	50.82
624.322	50.86
624.656	50.94
624.99	51.04
625.323	51.16
625.657	51.26
625.99	51.24
626.324	51.23
626.657	51.23
626.991	51.24
627.324	51.24
627.658	51.29
627.991	51.26
628.324	51.26
628.657	51.33
628.991	51.31
629.324	51.32
629.657	51.22
629.99	51.25
630.323	51.36
630.656	51.37
630.989	51.38
631.322	51.39
631.655	51.39
631.987	51.37
632.32	51.25
632.653	51.25
632.986	51.31
633.318	51.29
633.651	51.31
633.984	51.28
634.316	51.36
634.649	51.39
634.981	51.44
635.313	51.39
635.646	51.31
635.978	51.36
636.31	51.4
636.643	51.5
636.975	51.54
637.307	51.41
637.639	51.48
637.971	51.46
638.303	51.53
638.635	51.53
638.967	51.65
639.299	51.67
639.631	51.64
639.963	51.63
640.295	51.7
640.626	51.78
640.958	51.81
641.29	51.74
641.621	51.65
641.953	51.64
642.285	51.74
642.616	51.83
642.948	51.74
643.279	51.79
643.61	51.87
643.942	51.85
644.273	51.95
644.604	51.96
644.936	51.97
645.267	51.92
645.598	51.89
645.929	51.8
646.26	51.86
646.591	51.8
646.922	51.78
647.253	51.69
647.584	51.62
647.915	51.58
648.245	51.65
648.576	51.78
648.907	51.86
649.238	51.87
649.568	51.79
649.899	51.82
650.229	51.78
650.56	51.79
650.89	51.84
651.221	51.87
651.551	51.8
651.882	51.79
652.212	51.78
652.542	51.79
652.872	51.74
653.203	51.7
653.533	51.79
653.863	51.76
654.193	51.83
654.523	51.81
654.853	51.87
655.183	51.82
655.513	51.73
655.843	51.74
656.172	51.68
656.502	51.78
656.832	51.81
657.162	51.89
657.491	51.89
657.821	51.8
658.15	51.81
658.48	51.94
658.809	51.89
659.139	51.85
659.468	51.89
659.798	52
660.127	52.13
660.456	52.23
660.785	52.26
661.115	52.24
661.444	52.26
661.773	52.3
662.102	52.41
662.431	52.45
662.76	52.28
663.089	52.41
663.418	52.39
663.747	52.46
664.076	52.28
664.404	52.44
664.733	52.55
665.062	52.53
665.39	52.45
665.719	52.49
666.048	52.68
666.376	52.68
666.705	52.76
667.033	52.63
667.362	52.52
667.69	52.55
668.018	52.53
668.347	52.61
668.675	52.63
669.003	52.52
669.331	52.52
669.659	52.7
669.987	52.73
670.315	52.8
670.643	52.69
670.971	52.93
671.299	52.81
671.627	52.71
671.955	52.77
672.283	52.87
672.61	52.89
672.938	52.73
673.266	52.82
673.593	52.6
673.921	52.67
674.249	52.64
674.576	52.68
674.904	52.73
675.231	52.71
675.558	52.65
675.886	52.56
676.213	52.47
676.54	52.37
676.867	52.19
677.195	52.23
677.522	52.33
677.849	52.23
678.176	52.26
678.503	52.44
678.83	52.46
679.157	52.44
679.484	52.52
679.81	52.59
680.137	52.5
680.464	52.66
680.791	52.61
681.117	52.49
681.444	52.43
681.771	52.3
682.097	52.36
682.424	52.43
682.75	52.61
683.077	52.66
683.403	52.68
683.729	52.7
684.056	52.67
684.382	52.59
684.708	52.61
685.034	52.57
685.36	52.39
685.686	52.29
686.012	52.25
686.339	52.29
686.664	52.27
686.99	52.29
687.316	52.32
687.642	52.33
687.968	52.52
688.294	52.51
688.619	52.76
688.945	52.7
689.271	52.55
689.596	52.41
689.922	52.4
690.247	52.43
690.573	52.48
690.898	52.45
691.224	52.53
691.549	52.58
691.874	52.45
692.2	52.47
692.525	52.54
692.85	52.57
693.175	52.46
693.5	52.47
693.825	52.4
694.15	52.23
694.475	52.2
694.8	52.09
695.125	52.06
695.45	52.02
695.775	52.01
696.099	52.05
696.424	52.13
696.749	52.07
697.073	52.09
697.398	52.18
697.723	52.28
698.047	52.32
698.372	52.27
698.696	52.22
699.02	52.3
699.345	52.31
699.669	52.3
699.993	52.19
700.318	52.14
700.642	52.09
700.966	52.14
701.29	52
701.614	52.21
701.938	52.29
702.262	52.35
702.586	52.39
702.91	52.5
703.234	52.45
703.557	52.6
703.881	52.62
704.205	52.52
704.529	52.32
704.852	52.2
705.176	52.07
705.499	52.22
705.823	52.09
706.146	52.08
706.47	52.16
706.793	52.36
707.117	52.46
707.44	52.6
707.763	52.57
708.086	52.82
708.409	52.58
708.733	52.35
709.056	52.36
709.379	52.41
709.702	52.49
710.025	52.63
710.348	52.51
710.671	52.49
710.993	52.55
711.316	52.63
711.639	52.53
711.962	52.55
712.284	52.57
712.607	52.6
712.93	52.61
713.252	52.45
713.575	52.37
713.897	52.47
714.22	52.43
714.542	52.46
714.864	52.56
715.187	52.47
715.509	52.6
715.831	52.51
716.153	52.59
716.475	52.37
716.798	52.28
717.12	52.26
717.442	52.31
717.764	52.09
718.085	52.05
718.407	52.27
718.729	52.14
719.051	52.26
719.373	52.39
719.695	52.4
720.016	52.54
720.338	52.67
720.659	52.44
720.981	52.46
721.302	52.45
721.624	52.17
721.945	52.51
722.267	52.43
722.588	52.51
722.909	52.33
723.231	52.39
723.552	52.52
723.873	52.49
724.194	52.61
724.515	53.03
724.836	53.15
725.157	53.1
725.478	53.25
725.799	53.18
726.12	52.94
726.441	52.92
726.762	52.98
727.083	52.89
727.403	52.85
727.724	52.78
728.045	52.77
728.365	52.9
728.686	52.71
729.006	52.99
729.327	53.12
729.647	53.11
729.967	53.2
730.288	53.2
730.608	53.12
730.928	52.98
731.249	52.71
731.569	52.68
731.889	52.82
732.209	53.01
732.529	53.02
732.849	53.39
733.169	53.26
733.489	53.15
733.809	53.32
734.129	53.41
734.448	53.48
734.768	53.56
735.088	53.54
735.408	53.51
735.727	53.47
736.047	53.27
736.366	53.32
736.686	53.15
737.005	52.84
737.325	53.16
737.644	53.11
737.963	53.25
738.283	53.13
738.602	53.09
738.921	53.06
739.24	52.9
739.56	52.53
739.879	52.77
740.198	52.83
740.517	52.85
740.836	53.08
741.155	53.12
741.473	53.04
741.792	53.1
742.111	53.42
742.43	53.22
742.748	53.09
743.067	52.94
743.386	53.35
743.704	53.67
744.023	53.7
744.341	53.73
744.66	53.92
744.978	53.8
745.297	53.61
745.615	53.3
745.933	53.45
746.252	53.62
746.57	53.58
746.888	53.35
747.206	52.9
747.524	52.47
747.842	52.66
748.16	52.58
748.478	52.87
748.796	52.64
749.114	52.86
749.432	52.93
749.749	53.14
750.067	52.85
750.385	52.74
750.703	52.63
751.02	52.68
751.338	52.43
751.655	52.8
751.973	52.81
752.29	53.12
752.608	52.88
752.925	52.66
753.242	52.54
753.56	52.79
753.877	53.14
754.194	53.61
754.511	53.49
754.828	53.74
755.145	53.29
755.462	53.54
755.779	53.61
756.096	53.69
756.413	53.59
756.73	53.64
757.047	53.53
757.364	53.43
757.68	53.26
757.997	53.33
758.314	53.14
758.63	52.9
758.947	52.9
759.264	52.9
759.58	53
759.896	53.03
760.213	52.84
760.529	52.69
760.846	52.28
761.162	52.26
761.478	52.07
761.794	52.22
762.11	51.88
762.426	51.97
762.743	51.8
763.059	51.84
763.375	51.71
763.69	51.83
764.006	51.92
764.322	52.07
764.638	52.03
764.954	51.93
765.27	52.1
765.585	51.96
765.901	51.96
766.216	52
766.532	52.11
766.848	52.28
767.163	52.47
767.478	52.59
767.794	52.48
768.109	52.31
768.424	52.35
768.74	52.53
769.055	52.34
769.37	52.59
769.685	52.63
770	52.91
770.315	52.81
770.63	52.77
770.945	52.62
771.26	52.43
771.575	52.24
771.89	52.32
772.205	52.37
772.52	52.17
772.834	51.81
773.149	51.61
773.464	51.18
773.778	50.78
774.093	50.49
774.407	50.77
774.722	51.13
775.036	51.11
775.351	50.85
775.665	51.18
775.979	50.84
776.293	50.71
776.608	50.33
776.922	50.29
777.236	50.52
777.55	50.71
777.864	50.84
778.178	51.25
778.492	51.39
778.806	51.47
779.12	51.98
779.434	52.13
779.747	52.44
780.061	52.75
780.375	52.69
780.689	53.08
781.002	53.03
781.316	53.07
781.629	53.23
781.943	53.68
782.256	53.27
782.57	53.25
782.883	53.04
783.196	52.98
783.51	53.03
783.823	52.8
784.136	52.64
784.449	52.73
784.762	52.64
785.075	52.33
785.388	52.24
785.701	52.11
786.014	52.49
786.327	52.04
786.64	52.62
786.953	52.67
787.266	52.14
787.578	51.8
787.891	51.83
788.204	51.84
788.516	51.54
788.829	51.84
789.141	51.82
789.454	51.86
789.766	52
790.079	52.05
790.391	51.64
790.703	51.8
791.016	51.25
791.328	51.47
791.64	51.62
791.952	51.9
792.264	51.88
792.576	51.38
792.888	51.38
793.2	51.14
793.512	51.7
793.824	52.31
794.136	52.59
794.448	52.52
794.76	51.88
795.071	51.6
795.383	51.2
795.695	51.46
796.006	51.46
796.318	51.39
796.629	51.52
796.941	51.85
797.252	52.06
797.564	52.54
797.875	52.51
798.186	52.6
798.497	52.53
798.809	52.6
799.12	52.97
799.431	53.18
799.742	52.85
800.053	52.93
800.364	52.22
800.675	52.29
800.986	52.11
801.297	52.26
801.608	52.45
801.918	52.37
802.229	52.67
802.54	52.37
802.851	52.57
803.161	52.13
803.472	52.14
803.782	51.78
804.093	51.93
804.403	51.23
804.714	51.29
805.024	51.25
805.334	51.59
805.645	51.71
805.955	51.71
806.265	51.89
806.575	51.49
806.885	52.06
807.195	51.69
807.505	51.48
807.815	51.37
808.125	51.49
808.435	51.73
808.745	51.84
809.055	52.07
809.365	52.58
809.674	53.22
809.984	53.17
810.294	52.47
810.603	52.41
810.913	52.95
811.222	52.79
811.532	52.46
811.841	52.11
812.151	52.46
812.46	52.46
812.769	51.7
813.079	51.65
813.388	51.69
813.697	52.22
814.006	53.03
814.315	53.31
814.624	53.49
814.933	54.03
815.242	53.29
815.551	53.88
815.86	53.83
816.169	53.85
816.478	53.68
816.786	54.45
817.095	54.45
817.404	54.06
817.712	53.78
818.021	54.17
818.33	53.89
818.638	53.59
818.947	52.61
819.255	52.9
819.563	52.52
819.872	51.83
820.18	51.63
820.488	51.49
820.796	51.35
821.105	51.43
821.413	51.14
821.721	51.05
822.029	50.64
822.337	50.72
822.645	51.03
822.953	51.21
823.26	51.04
823.568	51.2
823.876	51.59
824.184	51.63
824.491	51.62
824.799	51.44
825.107	51.29
825.414	51.41
825.722	51.23
826.029	51.14
826.337	51.42
826.644	51.48
826.951	51.43
827.259	51.65
827.566	51.69
827.873	51.97
828.18	52.06
828.488	52.41
828.795	52.12
829.102	51.62
829.409	51.6
829.716	51.63
830.023	51.3
830.329	50.75
830.636	50.82
830.943	50.65
831.25	51
831.557	51.39
831.863	51.95
832.17	51.99
832.476	52.45
832.783	52.49
833.089	52.56
833.396	53.04
833.702	52.69
834.009	52.37
834.315	51.72
834.621	51.95
834.928	52.52
835.234	52.69
835.54	52.89
835.846	52.71
836.152	53.01
836.458	53.33
836.764	53.54
837.07	53.48
837.376	53.48
837.682	53.77
837.988	53.13
838.293	52.53
838.599	53.52
838.905	53.6
839.211	53.42
839.516	53.02
839.822	52.91
840.127	53.06
840.433	52.93
840.738	53.54
841.044	53.97
841.349	53.88
841.654	54.19
841.959	53.88
842.265	54.11
842.57	54.11
842.875	53.41
843.18	53.01
843.485	52.73
843.79	52.99
844.095	52.21
844.4	53.65
844.705	53.23
845.01	52.14
845.315	51.35
845.619	51.81
845.924	52.7
846.229	52.38
846.533	51.17
846.838	51.69
847.142	51.87
847.447	51.6
847.751	50.02
848.056	48.45
848.36	49.81
848.664	50.11
848.969	49.52
849.273	48.98
849.577	49.25
849.881	49.72
850.185	49.57
850.489	50.52
850.794	49.4
851.097	50.73
851.401	51.4
851.705	53.73
852.009	53.78
852.313	53.31
852.617	51.35
852.92	54.56
853.224	56.37
853.528	53.13
853.831	53.56
854.135	54
854.438	54.88
854.742	53.4
855.045	52.15
855.349	50.71
855.652	51.48
855.955	50.82
856.259	50.93
856.562	50.06
856.865	49.05
857.168	47.51
857.471	47.26
857.774	47.58
858.077	47.5
858.38	48.62
858.683	47.91
858.986	49.19
859.289	49.36
859.592	48.06
859.894	50.64
860.197	50.31
860.5	51.25
860.802	51.45
861.105	53.34
861.407	52.78
861.71	56.73
862.012	60.23
862.315	57.97
862.617	56.88
862.919	57.69
863.222	58.56
863.524	59.51
863.826	58.99
864.128	58.09
864.43	57.97
864.732	57.19
865.034	58.05
865.336	57.85
865.638	57.04
865.94	55.43
866.242	54.99
866.544	55.64
866.846	53.24
867.147	55.03
867.449	52.23
867.751	53.76
868.052	53.57
868.354	48.36
868.655	53.32
868.957	54.18
869.258	54.84
869.56	54.3
869.861	53.75
870.162	55.35
870.463	55.63
870.765	54.33
871.066	54.67
871.367	53.89
871.668	53.86
871.969	54.03
872.27	57.28
872.571	56.51
872.872	54.98
873.173	55.56
873.473	53.57
873.774	54.7
874.075	56.52
874.376	55.79
874.676	59.83
874.977	58.51
875.277	57.38
875.578	55.07
875.878	55.66
876.179	57.12
876.479	56.73
876.78	56.61
877.08	56.59
877.38	55.4
877.68	56.49
877.981	56.3
878.281	55.84
878.581	51.51
