Data from BA57715_Reflection_00002.txt Node
Date: Mon Nov 18 15:25:45 EST 2019
User: vgr7
Spectrometer: USB2G7710
Scans to average: 3
Trigger mode: 4
Integration Time (sec): 2.000000E-2
Electric dark correction enabled: true
Boxcar width: 10
XAxis mode: Wavelengths
Number of Pixels in Spectrum: 2048
>>>>>Begin Spectral Data<<<<<
177.721	77.51
178.105	87.65
178.488	67.9
178.871	111.75
179.254	218.38
179.636	119.17
180.019	295.61
180.402	41.67
180.785	-30.78
181.168	236.9
181.55	212.21
181.933	125.47
182.316	74.25
182.698	98.91
183.081	196.62
183.463	427.81
183.846	214.35
184.228	622.09
184.611	221.48
184.993	-1653.09
185.376	-319.75
185.758	-725.96
186.14	-446.91
186.522	-355.37
186.904	638.72
187.287	208.36
187.669	-711.24
188.051	3782.54
188.433	1481.64
188.815	1486.24
189.197	-778.55
189.579	-399.29
189.961	-684.58
190.342	-269.26
190.724	-162.59
191.106	-194.33
191.488	-144.49
191.869	-146.51
192.251	-173.03
192.633	-116.69
193.014	-201.48
193.396	-420.74
193.777	-404.71
194.159	1237.78
194.54	-451.83
194.922	-173.03
195.303	-116.47
195.684	-295.77
196.065	-211.33
196.447	-169.93
196.828	-224.05
197.209	-145.74
197.59	-283.78
197.971	-166.67
198.352	-116.74
198.733	-108.1
199.114	-105.55
199.495	-118.05
199.876	-81.69
200.257	-71.55
200.638	-62.4
201.018	-69.63
201.399	-79.72
201.78	-66.24
202.16	-71.13
202.541	-103.68
202.922	-157.77
203.302	-264.24
203.683	-151.44
204.063	-193.41
204.444	-240.54
204.824	-267.58
205.204	-294.27
205.585	-197.83
205.965	-169.43
206.345	-214.55
206.725	-358.45
207.106	-376.19
207.486	-600.13
207.866	-3181.05
208.246	2042.39
208.626	-3630.5
209.006	-528.25
209.386	-421.03
209.766	-426.85
210.145	-308.94
210.525	-399.56
210.905	-185.96
211.285	-163.75
211.664	-147.75
212.044	-176.25
212.424	-127.2
212.803	-117.79
213.183	-105.23
213.562	-106.2
213.942	-80.28
214.321	-63.02
214.701	-85.22
215.08	-87.42
215.459	-53.14
215.838	-33.78
216.218	-39.53
216.597	-28.72
216.976	-25.88
217.355	-41.4
217.734	-38.95
218.113	-29.86
218.492	-25.74
218.871	-27.2
219.25	-29.64
219.629	-35.35
220.008	-29.83
220.387	-43.42
220.766	-39.04
221.144	-47.93
221.523	-51.56
221.902	-68.87
222.28	-76.32
222.659	-61.11
223.037	-59.27
223.416	-84.97
223.794	-87.67
224.173	-62.97
224.551	-61.3
224.929	-66.43
225.308	-41.76
225.686	-31.5
226.064	-27.41
226.442	-22.31
226.821	-23.39
227.199	-18.11
227.577	-20.57
227.955	-19.49
228.333	-14.83
228.711	-13.04
229.089	-8.25
229.467	-9.33
229.845	-9.26
230.222	-6.94
230.6	-7.63
230.978	-5.6
231.356	-2.91
231.733	-5.34
232.111	-4.66
232.488	-4.39
232.866	-1.74
233.243	-2.13
233.621	-2.24
233.998	-1.28
234.376	-2.48
234.753	0.63
235.13	-0.02
235.508	1.91
235.885	2.35
236.262	2.22
236.639	1.63
237.016	1.09
237.393	2.52
237.77	3.78
238.147	4.59
238.524	5.36
238.901	5.24
239.278	5.58
239.655	7.33
240.032	6.96
240.409	6.29
240.785	6.39
241.162	6.81
241.539	7.08
241.915	6.67
242.292	6.43
242.668	5.83
243.045	6.19
243.421	6.51
243.798	6.73
244.174	6.87
244.551	6.77
244.927	6.95
245.303	6.82
245.679	6.93
246.056	6.8
246.432	6.78
246.808	6.85
247.184	6.81
247.56	6.56
247.936	6.64
248.312	6.84
248.688	6.9
249.064	6.79
249.44	6.59
249.815	6.73
250.191	7.02
250.567	7.04
250.943	7.15
251.318	7.29
251.694	7.3
252.069	7.33
252.445	7.62
252.82	7.47
253.196	7.68
253.571	7.8
253.947	7.69
254.322	7.52
254.697	7.24
255.073	6.95
255.448	6.83
255.823	6.96
256.198	7.18
256.573	6.91
256.948	6.8
257.323	6.96
257.698	7.03
258.073	7
258.448	7
258.823	6.8
259.198	6.65
259.573	6.56
259.948	6.38
260.322	6.31
260.697	6.29
261.072	6.19
261.446	6.05
261.821	6.04
262.195	6.14
262.57	6.25
262.944	6.43
263.319	6.53
263.693	6.15
264.067	6.01
264.442	6.1
264.816	6.1
265.19	5.92
265.564	5.86
265.938	5.67
266.313	5.71
266.687	5.7
267.061	5.64
267.435	5.58
267.809	5.7
268.183	5.74
268.556	5.77
268.93	5.83
269.304	5.83
269.678	5.92
270.051	5.72
270.425	5.63
270.799	5.42
271.172	5.27
271.546	5.36
271.919	5.21
272.293	5.11
272.666	5.23
273.04	5.48
273.413	5.4
273.787	5.46
274.16	5.31
274.533	5.16
274.906	5.06
275.279	5.19
275.653	5.16
276.026	5.06
276.399	5.02
276.772	5.13
277.145	5.14
277.518	5.25
277.891	5.59
278.263	5.52
278.636	5.78
279.009	5.9
279.382	6.1
279.755	6.37
280.127	6.55
280.5	6.32
280.872	6.13
281.245	6.03
281.617	6.13
281.99	6.4
282.362	6.52
282.735	6.54
283.107	6.43
283.479	6.5
283.852	6.46
284.224	6.53
284.596	6.46
284.968	6.41
285.34	6.35
285.713	6.2
286.085	6.38
286.457	6.44
286.829	6.5
287.201	6.53
287.572	6.4
287.944	6.32
288.316	6.55
288.688	6.63
289.06	6.78
289.431	6.68
289.803	6.59
290.175	6.72
290.546	6.96
290.918	7.05
291.289	7.05
291.661	7.1
292.032	7.09
292.403	7.09
292.775	7.22
293.146	7.23
293.517	7.22
293.889	7.24
294.26	7.11
294.631	7.33
295.002	7.32
295.373	7.33
295.744	7.29
296.115	7.25
296.486	7.2
296.857	7.2
297.228	7.28
297.599	7.33
297.97	7.42
298.34	7.42
298.711	7.41
299.082	7.42
299.452	7.58
299.823	7.68
300.194	7.78
300.564	7.77
300.935	7.81
301.305	7.91
301.676	7.97
302.046	8.1
302.416	8.02
302.787	8.09
303.157	8.26
303.527	8.26
303.897	8.25
304.267	8.39
304.637	8.38
305.008	8.57
305.378	8.52
305.748	8.44
306.117	8.28
306.487	8.26
306.857	8.19
307.227	8.13
307.597	8.05
307.967	8.03
308.336	7.92
308.706	7.98
309.076	7.98
309.445	7.84
309.815	7.76
310.184	7.59
310.554	7.58
310.923	7.53
311.293	7.61
311.662	7.62
312.031	7.58
312.401	7.63
312.77	7.47
313.139	7.47
313.508	7.5
313.877	7.61
314.246	7.75
314.616	7.79
314.985	7.8
315.353	7.7
315.722	7.65
316.091	7.66
316.46	7.6
316.829	7.6
317.198	7.68
317.567	7.52
317.935	7.58
318.304	7.62
318.672	7.53
319.041	7.55
319.41	7.54
319.778	7.47
320.147	7.45
320.515	7.41
320.883	7.45
321.252	7.49
321.62	7.38
321.988	7.19
322.357	7.15
322.725	7.17
323.093	7.28
323.461	7.32
323.829	7.35
324.197	7.46
324.565	7.58
324.933	7.55
325.301	7.74
325.669	7.77
326.037	7.63
326.405	7.7
326.772	7.69
327.14	7.77
327.508	7.79
327.875	7.82
328.243	7.94
328.61	7.85
328.978	7.72
329.346	7.84
329.713	7.89
330.08	7.96
330.448	7.68
330.815	7.5
331.182	7.6
331.55	7.57
331.917	7.47
332.284	7.34
332.651	7.37
333.018	7.29
333.385	7.3
333.752	7.54
334.119	7.58
334.486	7.58
334.853	7.4
335.22	7.4
335.587	7.48
335.954	7.37
336.32	7.5
336.687	7.6
337.054	7.42
337.42	7.46
337.787	7.58
338.153	7.79
338.52	8.03
338.886	7.91
339.253	7.89
339.619	7.95
339.986	8.02
340.352	8.09
340.718	8.13
341.084	8.14
341.451	8.17
341.817	8.23
342.183	8.17
342.549	8.23
342.915	8.16
343.281	8.11
343.647	8.21
344.013	8.17
344.379	8.07
344.745	8.15
345.11	8.1
345.476	7.98
345.842	7.95
346.208	7.95
346.573	7.99
346.939	8.14
347.304	8.13
347.67	8.08
348.035	8.04
348.401	8.09
348.766	8.07
349.132	7.96
349.497	7.82
349.862	7.93
350.228	7.9
350.593	8.03
350.958	8.02
351.323	7.99
351.688	7.99
352.053	8.12
352.418	8.13
352.783	8.19
353.148	8.19
353.513	8.2
353.878	8.14
354.243	8.16
354.608	8.05
354.972	8.07
355.337	8.07
355.702	8.11
356.066	8.06
356.431	8.05
356.795	8.04
357.16	8.08
357.524	8
357.889	8.06
358.253	8.02
358.618	8.02
358.982	7.99
359.346	7.94
359.71	7.87
360.075	7.89
360.439	7.93
360.803	7.98
361.167	7.99
361.531	8.03
361.895	8
362.259	8.03
362.623	7.95
362.987	8.01
363.351	7.99
363.714	8
364.078	8
364.442	7.97
364.806	7.9
365.169	7.87
365.533	7.89
365.896	7.89
366.26	7.86
366.623	7.86
366.987	7.9
367.35	7.96
367.714	8.01
368.077	7.89
368.44	7.81
368.803	7.79
369.167	7.7
369.53	7.64
369.893	7.69
370.256	7.75
370.619	7.71
370.982	7.6
371.345	7.65
371.708	7.62
372.071	7.65
372.434	7.69
372.797	7.68
373.159	7.6
373.522	7.57
373.885	7.59
374.247	7.63
374.61	7.63
374.973	7.58
375.335	7.49
375.698	7.62
376.06	7.7
376.423	7.68
376.785	7.72
377.147	7.81
377.51	7.73
377.872	7.73
378.234	7.7
378.596	7.81
378.958	7.77
379.321	7.8
379.683	7.82
380.045	7.83
380.407	7.89
380.769	7.97
381.13	8.01
381.492	7.96
381.854	8
382.216	7.96
382.578	7.97
382.939	8.01
383.301	7.94
383.663	7.91
384.024	7.92
384.386	7.96
384.747	7.95
385.109	7.97
385.47	7.98
385.832	7.96
386.193	7.95
386.554	7.93
386.916	7.93
387.277	7.91
387.638	7.95
387.999	7.91
388.36	7.88
388.721	7.86
389.082	7.89
389.443	7.82
389.804	7.8
390.165	7.79
390.526	7.77
390.887	7.76
391.248	7.8
391.609	7.8
391.969	7.78
392.33	7.76
392.691	7.75
393.051	7.76
393.412	7.78
393.772	7.76
394.133	7.79
394.493	7.8
394.854	7.8
395.214	7.77
395.574	7.79
395.935	7.81
396.295	7.81
396.655	7.8
397.015	7.81
397.376	7.81
397.736	7.8
398.096	7.8
398.456	7.77
398.816	7.71
399.176	7.71
399.535	7.69
399.895	7.71
400.255	7.73
400.615	7.71
400.975	7.72
401.334	7.71
401.694	7.68
402.054	7.66
402.413	7.65
402.773	7.62
403.132	7.6
403.492	7.57
403.851	7.56
404.211	7.56
404.57	7.58
404.929	7.62
405.288	7.63
405.648	7.64
406.007	7.66
406.366	7.66
406.725	7.65
407.084	7.64
407.443	7.62
407.802	7.61
408.161	7.57
408.52	7.56
408.879	7.56
409.238	7.58
409.596	7.57
409.955	7.57
410.314	7.58
410.673	7.58
411.031	7.58
411.39	7.59
411.748	7.59
412.107	7.58
412.465	7.55
412.824	7.54
413.182	7.53
413.54	7.55
413.899	7.55
414.257	7.56
414.615	7.55
414.974	7.55
415.332	7.54
415.69	7.54
416.048	7.51
416.406	7.53
416.764	7.49
417.122	7.48
417.48	7.48
417.838	7.47
418.195	7.47
418.553	7.47
418.911	7.46
419.269	7.45
419.626	7.43
419.984	7.45
420.342	7.44
420.699	7.43
421.057	7.43
421.414	7.42
421.772	7.4
422.129	7.42
422.486	7.42
422.844	7.43
423.201	7.41
423.558	7.44
423.915	7.44
424.273	7.45
424.63	7.45
424.987	7.44
425.344	7.43
425.701	7.42
426.058	7.4
426.415	7.41
426.772	7.42
427.128	7.43
427.485	7.42
427.842	7.44
428.199	7.44
428.555	7.41
428.912	7.44
429.269	7.46
429.625	7.45
429.982	7.44
430.338	7.43
430.695	7.45
431.051	7.41
431.407	7.41
431.764	7.38
432.12	7.39
432.476	7.42
432.832	7.4
433.189	7.44
433.545	7.45
433.901	7.43
434.257	7.42
434.613	7.41
434.969	7.41
435.325	7.4
435.681	7.4
436.036	7.42
436.392	7.4
436.748	7.4
437.104	7.38
437.459	7.35
437.815	7.35
438.171	7.36
438.526	7.37
438.882	7.37
439.237	7.37
439.593	7.38
439.948	7.36
440.304	7.39
440.659	7.38
441.014	7.37
441.369	7.37
441.725	7.36
442.08	7.36
442.435	7.33
442.79	7.32
443.145	7.31
443.5	7.29
443.855	7.29
444.21	7.28
444.565	7.29
444.92	7.31
445.275	7.31
445.629	7.29
445.984	7.29
446.339	7.26
446.693	7.27
447.048	7.25
447.403	7.24
447.757	7.22
448.112	7.21
448.466	7.18
448.82	7.18
449.175	7.16
449.529	7.17
449.883	7.17
450.238	7.16
450.592	7.17
450.946	7.17
451.3	7.15
451.654	7.14
452.008	7.13
452.362	7.1
452.716	7.1
453.07	7.13
453.424	7.1
453.778	7.13
454.132	7.13
454.486	7.12
454.839	7.13
455.193	7.12
455.547	7.12
455.9	7.15
456.254	7.14
456.607	7.15
456.961	7.14
457.314	7.15
457.668	7.17
458.021	7.16
458.375	7.17
458.728	7.17
459.081	7.19
459.434	7.19
459.787	7.22
460.141	7.21
460.494	7.21
460.847	7.22
461.2	7.2
461.553	7.2
461.906	7.21
462.259	7.21
462.611	7.21
462.964	7.23
463.317	7.24
463.67	7.26
464.022	7.26
464.375	7.28
464.728	7.3
465.08	7.28
465.433	7.28
465.785	7.28
466.138	7.28
466.49	7.28
466.843	7.28
467.195	7.29
467.547	7.28
467.899	7.26
468.252	7.28
468.604	7.32
468.956	7.31
469.308	7.31
469.66	7.3
470.012	7.32
470.364	7.32
470.716	7.31
471.068	7.32
471.42	7.32
471.772	7.32
472.123	7.32
472.475	7.36
472.827	7.37
473.178	7.38
473.53	7.38
473.882	7.4
474.233	7.42
474.585	7.41
474.936	7.42
475.288	7.41
475.639	7.4
475.99	7.4
476.342	7.37
476.693	7.35
477.044	7.38
477.395	7.38
477.746	7.37
478.097	7.37
478.448	7.36
478.8	7.36
479.15	7.36
479.501	7.37
479.852	7.36
480.203	7.39
480.554	7.41
480.905	7.42
481.255	7.43
481.606	7.44
481.957	7.45
482.307	7.47
482.658	7.48
483.009	7.48
483.359	7.49
483.709	7.52
484.06	7.54
484.41	7.53
484.761	7.54
485.111	7.55
485.461	7.55
485.811	7.55
486.162	7.57
486.512	7.59
486.862	7.59
487.212	7.6
487.562	7.59
487.912	7.58
488.262	7.59
488.612	7.59
488.961	7.6
489.311	7.6
489.661	7.6
490.011	7.61
490.36	7.6
490.71	7.6
491.06	7.59
491.409	7.6
491.759	7.6
492.108	7.61
492.458	7.61
492.807	7.63
493.157	7.64
493.506	7.65
493.855	7.63
494.204	7.62
494.554	7.63
494.903	7.62
495.252	7.64
495.601	7.63
495.95	7.63
496.299	7.63
496.648	7.63
496.997	7.65
497.346	7.67
497.695	7.69
498.043	7.72
498.392	7.72
498.741	7.72
499.09	7.72
499.438	7.72
499.787	7.75
500.135	7.76
500.484	7.76
500.832	7.76
501.181	7.78
501.529	7.83
501.878	7.82
502.226	7.87
502.574	7.85
502.923	7.89
503.271	7.88
503.619	7.87
503.967	7.87
504.315	7.87
504.663	7.88
505.011	7.88
505.359	7.88
505.707	7.91
506.055	7.95
506.403	7.98
506.751	7.99
507.098	7.98
507.446	7.99
507.794	8
508.141	8.01
508.489	8
508.837	7.99
509.184	8.01
509.531	8.04
509.879	8.07
510.226	8.11
510.574	8.12
510.921	8.12
511.268	8.14
511.616	8.16
511.963	8.18
512.31	8.19
512.657	8.22
513.004	8.24
513.351	8.24
513.698	8.25
514.045	8.25
514.392	8.27
514.739	8.3
515.086	8.29
515.432	8.29
515.779	8.31
516.126	8.33
516.473	8.32
516.819	8.33
517.166	8.35
517.512	8.33
517.859	8.34
518.205	8.36
518.552	8.38
518.898	8.39
519.245	8.38
519.591	8.39
519.937	8.38
520.283	8.34
520.629	8.34
520.976	8.34
521.322	8.36
521.668	8.36
522.014	8.37
522.36	8.41
522.706	8.46
523.052	8.46
523.398	8.47
523.743	8.51
524.089	8.49
524.435	8.49
524.781	8.51
525.126	8.53
525.472	8.54
525.817	8.55
526.163	8.55
526.509	8.57
526.854	8.58
527.199	8.58
527.545	8.6
527.89	8.61
528.235	8.61
528.581	8.62
528.926	8.63
529.271	8.63
529.616	8.63
529.961	8.62
530.306	8.61
530.651	8.61
530.996	8.6
531.341	8.6
531.686	8.61
532.031	8.61
532.376	8.61
532.721	8.61
533.065	8.61
533.41	8.61
533.755	8.61
534.099	8.61
534.444	8.61
534.788	8.62
535.133	8.62
535.477	8.62
535.822	8.6
536.166	8.59
536.51	8.59
536.855	8.59
537.199	8.61
537.543	8.63
537.887	8.65
538.231	8.65
538.576	8.67
538.92	8.68
539.264	8.69
539.608	8.71
539.951	8.7
540.295	8.7
540.639	8.71
540.983	8.69
541.327	8.68
541.671	8.7
542.014	8.71
542.358	8.71
542.701	8.73
543.045	8.76
543.389	8.77
543.732	8.79
544.075	8.82
544.419	8.8
544.762	8.82
545.105	8.82
545.449	8.84
545.792	8.84
546.135	8.85
546.478	8.87
546.821	8.86
547.165	8.87
547.508	8.87
547.851	8.87
548.194	8.89
548.536	8.9
548.879	8.9
549.222	8.9
549.565	8.89
549.908	8.87
550.25	8.84
550.593	8.86
550.936	8.84
551.278	8.83
551.621	8.85
551.963	8.87
552.306	8.86
552.648	8.85
552.991	8.87
553.333	8.84
553.675	8.82
554.017	8.86
554.36	8.89
554.702	8.94
555.044	8.96
555.386	8.97
555.728	8.97
556.07	8.95
556.412	8.96
556.754	8.98
557.096	8.98
557.438	9
557.78	9.01
558.121	9.01
558.463	9.01
558.805	8.99
559.147	8.95
559.488	8.95
559.83	8.94
560.171	8.93
560.513	8.95
560.854	8.98
561.196	8.97
561.537	8.95
561.878	8.9
562.22	8.9
562.561	8.9
562.902	8.93
563.243	8.97
563.584	8.94
563.925	8.95
564.266	8.98
564.607	9
564.948	9
565.289	9.04
565.63	9.06
565.971	9.04
566.312	9.08
566.653	9.1
566.993	9.11
567.334	9.12
567.675	9.14
568.015	9.13
568.356	9.13
568.696	9.19
569.037	9.21
569.377	9.19
569.718	9.23
570.058	9.26
570.398	9.23
570.739	9.28
571.079	9.3
571.419	9.3
571.759	9.27
572.099	9.26
572.439	9.26
572.779	9.23
573.119	9.25
573.459	9.26
573.799	9.28
574.139	9.31
574.479	9.3
574.819	9.29
575.158	9.3
575.498	9.31
575.838	9.26
576.177	9.22
576.517	9.23
576.856	9.22
577.196	9.16
577.535	9.18
577.875	9.17
578.214	9.1
578.553	9.13
578.893	9.08
579.232	9.09
579.571	9.1
579.91	9.12
580.25	9.14
580.589	9.08
580.928	9.06
581.267	9.07
581.606	9.05
581.945	9.04
582.283	9.03
582.622	8.98
582.961	9.02
583.3	9.03
583.639	9.07
583.977	9.07
584.316	9.09
584.654	9.08
584.993	9.1
585.332	9.15
585.67	9.08
586.008	9.16
586.347	9.15
586.685	9.11
587.024	9.11
587.362	9.12
587.7	9.11
588.038	9.12
588.376	9.12
588.715	9.19
589.053	9.19
589.391	9.21
589.729	9.27
590.067	9.24
590.404	9.29
590.742	9.29
591.08	9.27
591.418	9.31
591.756	9.35
592.093	9.3
592.431	9.31
592.769	9.36
593.106	9.34
593.444	9.35
593.781	9.33
594.119	9.37
594.456	9.34
594.793	9.37
595.131	9.37
595.468	9.37
595.805	9.36
596.143	9.38
596.48	9.36
596.817	9.35
597.154	9.38
597.491	9.36
597.828	9.36
598.165	9.36
598.502	9.31
598.839	9.28
599.176	9.3
599.512	9.27
599.849	9.24
600.186	9.27
600.523	9.27
600.859	9.34
601.196	9.32
601.532	9.33
601.869	9.33
602.205	9.34
602.542	9.35
602.878	9.29
603.215	9.29
603.551	9.29
603.887	9.31
604.223	9.3
604.56	9.3
604.896	9.27
605.232	9.33
605.568	9.35
605.904	9.35
606.24	9.4
606.576	9.4
606.912	9.41
607.248	9.42
607.583	9.45
607.919	9.43
608.255	9.42
608.591	9.46
608.926	9.48
609.262	9.44
609.597	9.45
609.933	9.49
610.268	9.51
610.604	9.55
610.939	9.53
611.275	9.54
611.61	9.56
611.945	9.62
612.281	9.56
612.616	9.55
612.951	9.56
613.286	9.54
613.621	9.59
613.956	9.6
614.291	9.59
614.626	9.53
614.961	9.51
615.296	9.5
615.631	9.5
615.966	9.52
616.3	9.54
616.635	9.47
616.97	9.47
617.304	9.48
617.639	9.42
617.973	9.4
618.308	9.38
618.642	9.38
618.977	9.4
619.311	9.47
619.646	9.53
619.98	9.52
620.314	9.51
620.648	9.54
620.983	9.56
621.317	9.57
621.651	9.65
621.985	9.68
622.319	9.72
622.653	9.69
622.987	9.7
623.321	9.74
623.655	9.78
623.988	9.79
624.322	9.77
624.656	9.81
624.99	9.8
625.323	9.85
625.657	9.84
625.99	9.87
626.324	9.87
626.657	9.85
626.991	9.86
627.324	9.87
627.658	9.86
627.991	9.89
628.324	9.9
628.657	9.85
628.991	9.86
629.324	9.87
629.657	9.89
629.99	9.88
630.323	9.92
630.656	9.93
630.989	9.93
631.322	9.98
631.655	9.95
631.987	9.99
632.32	9.94
632.653	9.98
632.986	9.9
633.318	9.85
633.651	9.86
633.984	9.88
634.316	9.89
634.649	9.9
634.981	9.93
635.313	9.95
635.646	9.92
635.978	9.97
636.31	9.94
636.643	9.93
636.975	9.94
637.307	9.88
637.639	9.85
637.971	9.83
638.303	9.77
638.635	9.75
638.967	9.78
639.299	9.87
639.631	9.82
639.963	9.85
640.295	9.94
640.626	9.92
640.958	9.94
641.29	9.94
641.621	9.92
641.953	9.85
642.285	9.82
642.616	9.94
642.948	9.9
643.279	9.93
643.61	9.93
643.942	9.83
644.273	9.88
644.604	9.87
644.936	9.92
645.267	9.96
645.598	9.94
645.929	9.91
646.26	9.9
646.591	9.9
646.922	9.93
647.253	9.87
647.584	9.85
647.915	9.79
648.245	9.83
648.576	9.81
648.907	9.86
649.238	9.85
649.568	9.79
649.899	9.81
650.229	9.83
650.56	9.92
650.89	10.02
651.221	10
651.551	10.03
651.882	9.98
652.212	9.99
652.542	10.08
652.872	10
653.203	9.86
653.533	9.89
653.863	9.91
654.193	9.92
654.523	9.99
654.853	10.01
655.183	9.97
655.513	9.92
655.843	9.93
656.172	9.87
656.502	9.9
656.832	9.83
657.162	9.83
657.491	9.81
657.821	9.8
658.15	9.81
658.48	9.79
658.809	9.8
659.139	9.78
659.468	9.78
659.798	9.82
660.127	9.91
660.456	9.91
660.785	9.92
661.115	9.91
661.444	9.83
661.773	9.84
662.102	9.84
662.431	9.91
662.76	9.92
663.089	9.99
663.418	9.96
663.747	9.99
664.076	9.93
664.404	9.88
664.733	9.86
665.062	9.89
665.39	9.95
665.719	9.92
666.048	9.97
666.376	9.96
666.705	10.03
667.033	9.98
667.362	10.06
667.69	9.96
668.018	10.04
668.347	10.12
668.675	10.1
669.003	10.1
669.331	10.17
669.659	10.08
669.987	10.07
670.315	10.1
670.643	10.12
670.971	10.2
671.299	10.15
671.627	10.18
671.955	10.13
672.283	10.11
672.61	10.1
672.938	10.13
673.266	10.17
673.593	10.21
673.921	10.24
674.249	10.16
674.576	10.13
674.904	10.06
675.231	10.12
675.558	10.15
675.886	10.19
676.213	10.13
676.54	10.17
676.867	10.19
677.195	10.15
677.522	10.13
677.849	10.12
678.176	10.11
678.503	10.07
678.83	10.11
679.157	10.05
679.484	10.16
679.81	10.13
680.137	10.07
680.464	9.94
680.791	10
681.117	10
681.444	10.05
681.771	10.01
682.097	9.92
682.424	9.95
682.75	9.93
683.077	9.92
683.403	9.99
683.729	9.98
684.056	10.02
684.382	10.09
684.708	10.05
685.034	10.11
685.36	10.15
685.686	10.14
686.012	10.25
686.339	10.26
686.664	10.3
686.99	10.38
687.316	10.44
687.642	10.43
687.968	10.33
688.294	10.41
688.619	10.48
688.945	10.52
689.271	10.42
689.596	10.39
689.922	10.4
690.247	10.35
690.573	10.4
690.898	10.35
691.224	10.29
691.549	10.32
691.874	10.28
692.2	10.29
692.525	10.28
692.85	10.37
693.175	10.32
693.5	10.23
693.825	10.29
694.15	10.22
694.475	10.28
694.8	10.42
695.125	10.4
695.45	10.39
695.775	10.48
696.099	10.56
696.424	10.64
696.749	10.67
697.073	10.73
697.398	10.71
697.723	10.74
698.047	10.73
698.372	10.63
698.696	10.65
699.02	10.54
699.345	10.47
699.669	10.39
699.993	10.39
700.318	10.42
700.642	10.39
700.966	10.54
701.29	10.47
701.614	10.58
701.938	10.72
702.262	10.84
702.586	10.78
702.91	10.77
703.234	10.77
703.557	10.81
703.881	10.68
704.205	10.68
704.529	10.59
704.852	10.63
705.176	10.8
705.499	10.94
705.823	11.09
706.146	11.1
706.47	11.08
706.793	11.06
707.117	10.97
707.44	10.88
707.763	10.81
708.086	10.74
708.409	10.58
708.733	10.28
709.056	10.25
709.379	10.43
709.702	10.46
710.025	10.34
710.348	10.24
710.671	10.33
710.993	10.34
711.316	10.37
711.639	10.37
711.962	10.3
712.284	10.37
712.607	10.33
712.93	10.4
713.252	10.35
713.575	10.4
713.897	10.47
714.22	10.52
714.542	10.64
714.864	10.75
715.187	10.89
715.509	11.1
715.831	11.1
716.153	10.95
716.475	10.85
716.798	10.98
717.12	10.94
717.442	10.9
717.764	10.93
718.085	10.95
718.407	11.01
718.729	11.24
719.051	11.11
719.373	11.07
719.695	11.04
720.016	11.23
720.338	11.24
720.659	11.28
720.981	11.31
721.302	11.18
721.624	11.04
721.945	10.84
722.267	10.7
722.588	10.68
722.909	10.84
723.231	11.02
723.552	10.85
723.873	11.07
724.194	11.01
724.515	10.87
724.836	10.91
725.157	11.01
725.478	10.87
725.799	10.91
726.12	11.07
726.441	11.18
726.762	11.17
727.083	11.27
727.403	11.27
727.724	11.3
728.045	11.29
728.365	11.35
728.686	11.22
729.006	11.17
729.327	10.98
729.647	10.97
729.967	10.89
730.288	11.1
730.608	10.86
730.928	10.95
731.249	11.02
731.569	11.04
731.889	11.06
732.209	11.04
732.529	11.03
732.849	11.02
733.169	10.84
733.489	10.89
733.809	10.73
734.129	10.69
734.448	10.68
734.768	10.64
735.088	10.83
735.408	11.01
735.727	11.1
736.047	11.21
736.366	11.01
736.686	11.13
737.005	11.07
737.325	11.22
737.644	11.39
737.963	11.48
738.283	11.37
738.602	11.3
738.921	11.14
739.24	11.08
739.56	10.88
739.879	11.06
740.198	10.99
740.517	11.17
740.836	11.21
741.155	11.02
741.473	10.99
741.792	10.89
742.111	10.9
742.43	10.88
742.748	11.07
743.067	11.33
743.386	11.23
743.704	11.23
744.023	11.29
744.341	11.28
744.66	11.35
744.978	11.5
745.297	11.51
745.615	11.72
745.933	11.69
746.252	11.92
746.57	11.91
746.888	11.83
747.206	11.67
747.524	11.9
747.842	12.11
748.16	12.4
748.478	12.31
748.796	12.45
749.114	12.68
749.432	12.61
749.749	12.23
750.067	12.2
750.385	12.25
750.703	12.19
751.02	12.05
751.338	11.99
751.655	12.02
751.973	11.82
752.29	11.69
752.608	11.87
752.925	12.08
753.242	12.16
753.56	12.35
753.877	12.46
754.194	12.34
754.511	12.56
754.828	12.34
755.145	12.5
755.462	12.09
755.779	11.94
756.096	11.79
756.413	12.27
756.73	12.44
757.047	12.52
757.364	12.73
757.68	12.63
757.997	12.53
758.314	12.5
758.63	12.65
758.947	12.84
759.264	12.75
759.58	12.57
759.896	12.72
760.213	12.62
760.529	12.57
760.846	12.47
761.162	12.21
761.478	12.34
761.794	12.13
762.11	12.48
762.426	12.37
762.743	12.48
763.059	12.35
763.375	12.22
763.69	12.17
764.006	12.12
764.322	12.2
764.638	12.32
764.954	12.39
765.27	12.31
765.585	12.31
765.901	12.34
766.216	12.16
766.532	11.85
766.848	11.84
767.163	11.83
767.478	11.91
767.794	11.95
768.109	12.02
768.424	12.23
768.74	11.95
769.055	12.02
769.37	11.95
769.685	11.68
770	11.7
770.315	11.66
770.63	11.45
770.945	11.34
771.26	11.29
771.575	10.95
771.89	11.07
772.205	11.05
772.52	11.14
772.834	11.28
773.149	11.46
773.464	11.24
773.778	11.62
774.093	11.39
774.407	11.53
774.722	11.11
775.036	11.15
775.351	11.38
775.665	11.55
775.979	11.43
776.293	11.67
776.608	11.82
776.922	11.63
777.236	11.73
777.55	11.68
777.864	11.64
778.178	12.01
778.492	12.34
778.806	11.88
779.12	12.05
779.434	12.23
779.747	12.31
780.061	12.3
780.375	11.88
780.689	11.94
781.002	11.91
781.316	12.18
781.629	12.39
781.943	12.7
782.256	12.64
782.57	12.67
782.883	12.58
783.196	12.21
783.51	12.47
783.823	12.32
784.136	12.66
784.449	12.77
784.762	12.69
785.075	12.27
785.388	12.71
785.701	12.79
786.014	12.54
786.327	12.4
786.64	12.95
786.953	12.91
787.266	12.87
787.578	12.75
787.891	12.65
788.204	12.44
788.516	12.1
788.829	12.47
789.141	12.61
789.454	12.76
789.766	13.54
790.079	13.26
790.391	13.5
790.703	13.52
791.016	13.48
791.328	13.57
791.64	13.09
791.952	13.14
792.264	12.68
792.576	12.61
792.888	12.78
793.2	12.37
793.512	12.62
793.824	12.72
794.136	12.69
794.448	12.42
794.76	12.23
795.071	12.16
795.383	11.74
795.695	11.38
796.006	11.06
796.318	10.63
796.629	10.78
796.941	10.58
797.252	10.77
797.564	11.12
797.875	11.34
798.186	11.45
798.497	11.1
798.809	10.94
799.12	11.48
799.431	11.62
799.742	11.73
800.053	11.72
800.364	11.7
800.675	11.8
800.986	12.11
801.297	12.07
801.608	12.03
801.918	12.18
802.229	12.34
802.54	12.64
802.851	12.87
803.161	13.04
803.472	12.81
803.782	12.37
804.093	12.23
804.403	11.84
804.714	12.51
805.024	12.73
805.334	13.25
805.645	13.48
805.955	13.57
806.265	13.49
806.575	13.32
806.885	13.41
807.195	13.18
807.505	13.53
807.815	13.67
808.125	13.78
808.435	13.17
808.745	13.46
809.055	13.55
809.365	12.89
809.674	12.59
809.984	13.18
810.294	14.02
810.603	14.81
810.913	15.86
811.222	15.52
811.532	15.91
811.841	16.12
812.151	15.97
812.46	16.42
812.769	16.42
813.079	16.43
813.388	16.44
813.697	16.93
814.006	16.43
814.315	16.32
814.624	16.12
814.933	16.38
815.242	16.36
815.551	16.06
815.86	16.29
816.169	16.8
816.478	16.92
816.786	15.72
817.095	14.67
817.404	14.07
817.712	14.37
818.021	14.46
818.33	14.25
818.638	13.84
818.947	13.57
819.255	14.21
819.563	14.14
819.872	14.1
820.18	14.15
820.488	14.22
820.796	14.36
821.105	14.28
821.413	14.62
821.721	14.91
822.029	15.01
822.337	15.02
822.645	15
822.953	14.93
823.26	15.2
823.568	15.22
823.876	15.21
824.184	15.35
824.491	15.33
824.799	15.31
825.107	15.43
825.414	15.38
825.722	15.27
826.029	15.46
826.337	15.48
826.644	15.46
826.951	15.62
827.259	15.67
827.566	15.77
827.873	15.75
828.18	15.42
828.488	15.59
828.795	15.7
829.102	15.56
829.409	15.77
829.716	15.7
830.023	15.66
830.329	15.31
830.636	15.09
830.943	15.03
831.25	15.16
831.557	15.02
831.863	15
832.17	14.95
832.476	14.65
832.783	14.99
833.089	15.25
833.396	15.55
833.702	15.54
834.009	16.22
834.315	15.68
834.621	15.8
834.928	15.7
835.234	15.44
835.54	15.59
835.846	15.23
836.152	15.05
836.458	15.05
836.764	15.31
837.07	15.03
837.376	14.61
837.682	14.52
837.988	14.69
838.293	15.09
838.599	15.18
838.905	15.4
839.211	14.72
839.516	14.62
839.822	13.63
840.127	13.27
840.433	13.01
840.738	13.18
841.044	12.94
841.349	13.03
841.654	13.4
841.959	13.45
842.265	13.5
842.57	13.58
842.875	14.33
843.18	14.38
843.485	14.85
843.79	15.35
844.095	15.08
844.4	15.12
844.705	13.65
845.01	13.75
845.315	14.14
845.619	14.26
845.924	13.11
846.229	14.69
846.533	15
846.838	14.44
847.142	14.29
847.447	13.5
847.751	12.08
848.056	10.53
848.36	11.79
848.664	11.89
848.969	12.18
849.273	9.14
849.577	8.46
849.881	7.12
850.185	7.31
850.489	7.22
850.794	5.11
851.097	6.73
851.401	6.97
851.705	5.99
852.009	7.13
852.313	7.6
852.617	4.77
852.92	5.98
853.224	5.75
853.528	7.89
853.831	8.79
854.135	10.24
854.438	11.5
854.742	8.69
855.045	8.8
855.349	8.64
855.652	11.14
855.955	12.72
856.259	12.16
856.562	12.54
856.865	13.2
857.168	15.13
857.471	14.71
857.774	14.78
858.077	14.19
858.38	15.97
858.683	16.77
858.986	20.39
859.289	19.68
859.592	18.29
859.894	17.61
860.197	18.76
860.5	17.84
860.802	17.08
861.105	17.8
861.407	16.33
861.71	15.75
862.012	15.45
862.315	14.79
862.617	16.24
862.919	14.04
863.222	10.81
863.524	8.72
863.826	8
864.128	8.33
864.43	10.11
864.732	8.2
865.034	7.66
865.336	4.89
865.638	5.39
865.94	7.11
866.242	8.35
866.544	6.49
866.846	6.43
867.147	8.1
867.449	8.88
867.751	9.26
868.052	10.71
868.354	11.8
868.655	12.26
868.957	13.66
869.258	15.11
869.56	17.23
869.861	18.97
870.162	20.59
870.463	21.21
870.765	19.98
871.066	18.96
871.367	19.01
871.668	20.27
871.969	18.61
872.27	17.59
872.571	15.37
872.872	16.85
873.173	16.87
873.473	15.69
873.774	16.37
874.075	17.65
874.376	16.13
874.676	14.3
874.977	12
875.277	9.95
875.578	10.78
875.878	10.86
876.179	11.04
876.479	10.04
876.78	7.49
877.08	6.95
877.38	7.57
877.68	7.89
877.981	5.97
878.281	5.53
878.581	6.49
