Data from BA57748_Reflection_00007.txt Node
Date: Mon Nov 18 15:55:30 EST 2019
User: vgr7
Spectrometer: USB2G7710
Scans to average: 3
Trigger mode: 4
Integration Time (sec): 2.000000E-2
Electric dark correction enabled: true
Boxcar width: 10
XAxis mode: Wavelengths
Number of Pixels in Spectrum: 2048
>>>>>Begin Spectral Data<<<<<
177.721	40.22
178.105	-23.89
178.488	120.51
178.871	54.94
179.254	101.45
179.636	162.99
180.019	77.5
180.402	95.45
180.785	-25.78
181.168	149.08
181.55	-171.26
181.933	131.31
182.316	103.64
182.698	103.38
183.081	107.45
183.463	93.87
183.846	191.59
184.228	173.22
184.611	184.72
184.993	349.36
185.376	567.49
185.758	-1432.54
186.14	317.62
186.522	562.57
186.904	329.14
187.287	261.41
187.669	363.16
188.051	315.54
188.433	516.55
188.815	473.06
189.197	363.48
189.579	310.48
189.961	329.74
190.342	373.45
190.724	608.64
191.106	521.76
191.488	-9981.08
191.869	-2581.53
192.251	9490.24
192.633	982.7
193.014	419.61
193.396	421.05
193.777	374.8
194.159	371.49
194.54	529.34
194.922	1624.89
195.303	-3101.83
195.684	1285.87
196.065	-1042.43
196.447	22041.18
196.828	-12319.35
197.209	-12706.45
197.59	6320.34
197.971	2375.68
198.352	-9981.08
198.733	785.01
199.114	2489.31
199.495	446.42
199.876	648.81
200.257	1513.41
200.638	-372.9
201.018	-476.83
201.399	-147.43
201.78	-90.7
202.16	-108.85
202.541	-30042.86
202.922	540.9
203.302	296.22
203.683	1613.09
204.063	414.46
204.444	734.67
204.824	1058.16
205.204	1109.3
205.585	823.24
205.965	-1309.76
206.345	-1615.03
206.725	-2555.17
207.106	-23636.84
207.486	-2600.53
207.866	3085.4
208.246	-2183.42
208.626	-3323.84
209.006	-1261.45
209.386	2176.36
209.766	1904.95
210.145	2289.59
210.525	4515.93
210.905	-1038.11
211.285	-505.59
211.664	-635.14
212.044	-584.67
212.424	-452.97
212.803	-459.94
213.183	-156.23
213.562	-171.75
213.942	-123.96
214.321	-93.48
214.701	-95.49
215.08	-153.96
215.459	-79.11
215.838	-111.04
216.218	-104.28
216.597	-72.65
216.976	-61.85
217.355	-40.22
217.734	-45.97
218.113	-44.73
218.492	-69.87
218.871	-111.7
219.25	-58.63
219.629	-35.84
220.008	-54.17
220.387	-52.45
220.766	-58.84
221.144	-152.15
221.523	-117.67
221.902	-108.53
222.28	-201.54
222.659	-179.29
223.037	-77.79
223.416	-152.81
223.794	-97.52
224.173	-65.14
224.551	-29.33
224.929	-22.5
225.308	-27.77
225.686	-24.45
226.064	-21.36
226.442	-13.22
226.821	-9.81
227.199	-10.49
227.577	-10.8
227.955	-7.77
228.333	-6.65
228.711	-9.3
229.089	-3.32
229.467	-7.5
229.845	-13.19
230.222	-9.83
230.6	-7.2
230.978	-9.39
231.356	-5.67
231.733	-7.94
232.111	-8.68
232.488	-10.04
232.866	-7.82
233.243	-4.45
233.621	-4.42
233.998	-1
234.376	-4.25
234.753	-3.63
235.13	-5.7
235.508	-5.32
235.885	-5.29
236.262	-6.7
236.639	-4.73
237.016	-4.29
237.393	-0.13
237.77	2.52
238.147	3.4
238.524	3.67
238.901	6
239.278	6.2
239.655	6.89
240.032	6.82
240.409	6.73
240.785	6.78
241.162	6.08
241.539	6.24
241.915	5.9
242.292	6.38
242.668	6.19
243.045	6.31
243.421	6.44
243.798	6.3
244.174	6.52
244.551	6.25
244.927	6.35
245.303	6.19
245.679	5.87
246.056	5.83
246.432	5.81
246.808	5.37
247.184	5.04
247.56	4.84
247.936	4.82
248.312	4.67
248.688	4.6
249.064	4.85
249.44	4.8
249.815	4.88
250.191	5.25
250.567	5.24
250.943	5.13
251.318	5.1
251.694	5.12
252.069	4.92
252.445	4.88
252.82	4.68
253.196	4.4
253.571	4.55
253.947	4.6
254.322	4.86
254.697	4.78
255.073	4.79
255.448	4.7
255.823	4.56
256.198	4.77
256.573	4.54
256.948	4.74
257.323	4.96
257.698	4.83
258.073	4.55
258.448	4.59
258.823	4.57
259.198	4.58
259.573	4.62
259.948	4.71
260.322	4.72
260.697	4.73
261.072	4.82
261.446	4.79
261.821	4.79
262.195	4.75
262.57	4.83
262.944	4.86
263.319	4.96
263.693	5.04
264.067	5.1
264.442	5.32
264.816	5.27
265.19	5.22
265.564	5.25
265.938	5.03
266.313	5.07
266.687	5.2
267.061	5.21
267.435	5.33
267.809	5.36
268.183	5.42
268.556	5.34
268.93	5.19
269.304	5.18
269.678	5.09
270.051	4.81
270.425	4.72
270.799	4.85
271.172	4.9
271.546	4.75
271.919	4.65
272.293	4.55
272.666	4.36
273.04	4.18
273.413	4.22
273.787	4.35
274.16	4.3
274.533	4.38
274.906	4.2
275.279	4.2
275.653	4.13
276.026	4.12
276.399	4.07
276.772	4.27
277.145	4.2
277.518	4.34
277.891	4.54
278.263	4.5
278.636	4.39
279.009	4.28
279.382	4.47
279.755	4.52
280.127	4.54
280.5	4.9
280.872	5.01
281.245	4.85
281.617	5.16
281.99	5.32
282.362	5.39
282.735	5.49
283.107	5.42
283.479	5.39
283.852	5.49
284.224	5.54
284.596	5.47
284.968	5.66
285.34	5.64
285.713	5.67
286.085	5.74
286.457	5.96
286.829	6.08
287.201	6.1
287.572	6.08
287.944	6.04
288.316	5.91
288.688	5.87
289.06	6.04
289.431	6.06
289.803	6.03
290.175	6.01
290.546	6.2
290.918	6.42
291.289	6.51
291.661	6.56
292.032	6.68
292.403	6.76
292.775	6.73
293.146	6.74
293.517	6.89
293.889	7.08
294.26	6.84
294.631	6.82
295.002	6.88
295.373	6.95
295.744	7.11
296.115	7.05
296.486	7.05
296.857	7.03
297.228	6.92
297.599	6.77
297.97	6.78
298.34	6.76
298.711	6.78
299.082	6.8
299.452	6.85
299.823	6.81
300.194	6.82
300.564	6.88
300.935	6.92
301.305	6.77
301.676	6.67
302.046	6.88
302.416	7.1
302.787	7.04
303.157	7.1
303.527	7.05
303.897	7.35
304.267	7.6
304.637	7.58
305.008	7.76
305.378	8.09
305.748	8.12
306.117	8.04
306.487	8.06
306.857	8.18
307.227	8.19
307.597	8.1
307.967	8.24
308.336	8.29
308.706	8.46
309.076	8.61
309.445	8.74
309.815	8.72
310.184	8.6
310.554	8.83
310.923	8.84
311.293	8.97
311.662	8.9
312.031	8.84
312.401	8.87
312.77	8.89
313.139	8.84
313.508	8.93
313.877	8.99
314.246	9.06
314.616	9.12
314.985	9.26
315.353	9.47
315.722	9.58
316.091	9.5
316.46	9.44
316.829	9.43
317.198	9.42
317.567	9.39
317.935	9.53
318.304	9.4
318.672	9.59
319.041	9.59
319.41	9.69
319.778	9.85
320.147	10.04
320.515	10.15
320.883	10.23
321.252	10.3
321.62	10.4
321.988	10.31
322.357	10.28
322.725	10.28
323.093	10.44
323.461	10.42
323.829	10.62
324.197	10.73
324.565	10.85
324.933	10.82
325.301	10.96
325.669	10.96
326.037	11.04
326.405	11.11
326.772	11.21
327.14	11.36
327.508	11.44
327.875	11.44
328.243	11.52
328.61	11.65
328.978	11.8
329.346	11.97
329.713	12.06
330.08	12.21
330.448	12.27
330.815	12.17
331.182	12.28
331.55	12.38
331.917	12.54
332.284	12.75
332.651	12.92
333.018	12.94
333.385	13.09
333.752	13.14
334.119	13.17
334.486	13.21
334.853	13.01
335.22	12.99
335.587	13.16
335.954	13
336.32	12.95
336.687	12.85
337.054	12.88
337.42	13.11
337.787	13.22
338.153	13.27
338.52	13.45
338.886	13.45
339.253	13.33
339.619	13.35
339.986	13.33
340.352	13.5
340.718	13.59
341.084	13.52
341.451	13.7
341.817	13.69
342.183	13.69
342.549	13.82
342.915	13.91
343.281	13.93
343.647	14.03
344.013	14.2
344.379	14.25
344.745	14.24
345.11	14.05
345.476	14.07
345.842	14.08
346.208	14.02
346.573	13.97
346.939	14.2
347.304	14.04
347.67	13.9
348.035	13.8
348.401	13.76
348.766	13.83
349.132	13.7
349.497	13.61
349.862	13.74
350.228	13.73
350.593	13.76
350.958	13.72
351.323	13.71
351.688	13.67
352.053	13.78
352.418	13.74
352.783	13.99
353.148	13.9
353.513	13.87
353.878	13.81
354.243	13.84
354.608	13.7
354.972	13.76
355.337	13.85
355.702	13.81
356.066	13.77
356.431	13.67
356.795	13.66
357.16	13.68
357.524	13.53
357.889	13.54
358.253	13.49
358.618	13.47
358.982	13.46
359.346	13.3
359.71	13.18
360.075	13.12
360.439	12.96
360.803	12.92
361.167	12.91
361.531	12.89
361.895	12.82
362.259	12.74
362.623	12.67
362.987	12.57
363.351	12.56
363.714	12.56
364.078	12.52
364.442	12.48
364.806	12.41
365.169	12.4
365.533	12.3
365.896	12.14
366.26	12.01
366.623	11.94
366.987	11.94
367.35	11.93
367.714	11.93
368.077	11.85
368.44	11.79
368.803	11.66
369.167	11.55
369.53	11.52
369.893	11.51
370.256	11.51
370.619	11.51
370.982	11.36
371.345	11.29
371.708	11.27
372.071	11.18
372.434	11.04
372.797	10.86
373.159	10.79
373.522	10.77
373.885	10.78
374.247	10.68
374.61	10.61
374.973	10.5
375.335	10.4
375.698	10.3
376.06	10.23
376.423	10.16
376.785	10.18
377.147	10.15
377.51	10.1
377.872	10.04
378.234	9.96
378.596	9.95
378.958	9.84
379.321	9.74
379.683	9.7
380.045	9.67
380.407	9.67
380.769	9.6
381.13	9.47
381.492	9.35
381.854	9.31
382.216	9.23
382.578	9.15
382.939	9.07
383.301	9.03
383.663	9.02
384.024	8.96
384.386	8.9
384.747	8.8
385.109	8.74
385.47	8.64
385.832	8.56
386.193	8.48
386.554	8.45
386.916	8.36
387.277	8.31
387.638	8.29
387.999	8.24
388.36	8.22
388.721	8.23
389.082	8.15
389.443	8.08
389.804	8.04
390.165	7.96
390.526	7.9
390.887	7.84
391.248	7.74
391.609	7.67
391.969	7.59
392.33	7.53
392.691	7.44
393.051	7.37
393.412	7.36
393.772	7.3
394.133	7.24
394.493	7.21
394.854	7.12
395.214	7.06
395.574	6.98
395.935	6.9
396.295	6.86
396.655	6.84
397.015	6.77
397.376	6.72
397.736	6.66
398.096	6.64
398.456	6.58
398.816	6.53
399.176	6.5
399.535	6.45
399.895	6.37
400.255	6.31
400.615	6.27
400.975	6.18
401.334	6.11
401.694	6.07
402.054	6.02
402.413	5.98
402.773	5.9
403.132	5.86
403.492	5.78
403.851	5.75
404.211	5.71
404.57	5.68
404.929	5.65
405.288	5.66
405.648	5.6
406.007	5.57
406.366	5.55
406.725	5.55
407.084	5.55
407.443	5.53
407.802	5.53
408.161	5.48
408.52	5.44
408.879	5.46
409.238	5.43
409.596	5.42
409.955	5.4
410.314	5.43
410.673	5.41
411.031	5.4
411.39	5.37
411.748	5.35
412.107	5.35
412.465	5.32
412.824	5.28
413.182	5.24
413.54	5.19
413.899	5.18
414.257	5.15
414.615	5.1
414.974	5.11
415.332	5.1
415.69	5.08
416.048	5.05
416.406	5
416.764	4.95
417.122	4.94
417.48	4.91
417.838	4.88
418.195	4.85
418.553	4.83
418.911	4.8
419.269	4.77
419.626	4.74
419.984	4.73
420.342	4.7
420.699	4.67
421.057	4.68
421.414	4.65
421.772	4.62
422.129	4.6
422.486	4.56
422.844	4.54
423.201	4.5
423.558	4.51
423.915	4.49
424.273	4.48
424.63	4.45
424.987	4.43
425.344	4.42
425.701	4.41
426.058	4.39
426.415	4.37
426.772	4.36
427.128	4.36
427.485	4.34
427.842	4.33
428.199	4.33
428.555	4.3
428.912	4.29
429.269	4.28
429.625	4.25
429.982	4.24
430.338	4.24
430.695	4.25
431.051	4.2
431.407	4.21
431.764	4.19
432.12	4.19
432.476	4.18
432.832	4.15
433.189	4.16
433.545	4.15
433.901	4.14
434.257	4.12
434.613	4.11
434.969	4.08
435.325	4.09
435.681	4.08
436.036	4.07
436.392	4.05
436.748	4.05
437.104	4.04
437.459	4.05
437.815	4.04
438.171	4.04
438.526	4.06
438.882	4.06
439.237	4.05
439.593	4.05
439.948	4.06
440.304	4.05
440.659	4.03
441.014	4.04
441.369	4.04
441.725	4.03
442.08	4.03
442.435	4.03
442.79	4.03
443.145	4.01
443.5	4
443.855	4
444.21	3.99
444.565	3.99
444.92	3.98
445.275	3.97
445.629	3.96
445.984	3.93
446.339	3.92
446.693	3.92
447.048	3.9
447.403	3.89
447.757	3.88
448.112	3.88
448.466	3.87
448.82	3.85
449.175	3.85
449.529	3.84
449.883	3.8
450.238	3.78
450.592	3.79
450.946	3.79
451.3	3.76
451.654	3.75
452.008	3.76
452.362	3.74
452.716	3.73
453.07	3.72
453.424	3.71
453.778	3.69
454.132	3.68
454.486	3.67
454.839	3.66
455.193	3.66
455.547	3.67
455.9	3.68
456.254	3.68
456.607	3.69
456.961	3.68
457.314	3.7
457.668	3.7
458.021	3.69
458.375	3.7
458.728	3.71
459.081	3.71
459.434	3.71
459.787	3.72
460.141	3.73
460.494	3.74
460.847	3.76
461.2	3.77
461.553	3.77
461.906	3.78
462.259	3.81
462.611	3.82
462.964	3.84
463.317	3.83
463.67	3.86
464.022	3.85
464.375	3.85
464.728	3.88
465.08	3.89
465.433	3.91
465.785	3.92
466.138	3.93
466.49	3.94
466.843	3.92
467.195	3.93
467.547	3.94
467.899	3.95
468.252	3.95
468.604	3.95
468.956	3.97
469.308	3.99
469.66	3.96
470.012	3.99
470.364	4
470.716	3.99
471.068	4
471.42	4.01
471.772	4.06
472.123	4.07
472.475	4.07
472.827	4.08
473.178	4.09
473.53	4.08
473.882	4.09
474.233	4.13
474.585	4.11
474.936	4.11
475.288	4.13
475.639	4.15
475.99	4.15
476.342	4.16
476.693	4.17
477.044	4.17
477.395	4.16
477.746	4.14
478.097	4.15
478.448	4.15
478.8	4.13
479.15	4.1
479.501	4.09
479.852	4.08
480.203	4.08
480.554	4.08
480.905	4.09
481.255	4.08
481.606	4.09
481.957	4.09
482.307	4.1
482.658	4.09
483.009	4.09
483.359	4.08
483.709	4.09
484.06	4.08
484.41	4.09
484.761	4.09
485.111	4.09
485.461	4.1
485.811	4.09
486.162	4.09
486.512	4.11
486.862	4.11
487.212	4.11
487.562	4.11
487.912	4.11
488.262	4.11
488.612	4.11
488.961	4.11
489.311	4.12
489.661	4.13
490.011	4.15
490.36	4.14
490.71	4.14
491.06	4.15
491.409	4.15
491.759	4.15
492.108	4.15
492.458	4.17
492.807	4.17
493.157	4.2
493.506	4.22
493.855	4.21
494.204	4.23
494.554	4.26
494.903	4.3
495.252	4.33
495.601	4.37
495.95	4.4
496.299	4.42
496.648	4.44
496.997	4.47
497.346	4.49
497.695	4.53
498.043	4.57
498.392	4.59
498.741	4.64
499.09	4.68
499.438	4.74
499.787	4.77
500.135	4.81
500.484	4.86
500.832	4.91
501.181	4.97
501.529	5.01
501.878	5.07
502.226	5.12
502.574	5.18
502.923	5.22
503.271	5.28
503.619	5.37
503.967	5.43
504.315	5.46
504.663	5.55
505.011	5.61
505.359	5.68
505.707	5.76
506.055	5.83
506.403	5.93
506.751	6
507.098	6.1
507.446	6.21
507.794	6.28
508.141	6.35
508.489	6.43
508.837	6.55
509.184	6.62
509.531	6.72
509.879	6.8
510.226	6.88
510.574	6.96
510.921	7.04
511.268	7.13
511.616	7.27
511.963	7.36
512.31	7.47
512.657	7.59
513.004	7.73
513.351	7.88
513.698	7.99
514.045	8.12
514.392	8.23
514.739	8.35
515.086	8.49
515.432	8.66
515.779	8.78
516.126	8.92
516.473	9.07
516.819	9.2
517.166	9.32
517.512	9.46
517.859	9.61
518.205	9.74
518.552	9.88
518.898	9.99
519.245	10.14
519.591	10.28
519.937	10.41
520.283	10.55
520.629	10.69
520.976	10.86
521.322	11.03
521.668	11.24
522.014	11.45
522.36	11.64
522.706	11.86
523.052	12.12
523.398	12.37
523.743	12.62
524.089	12.87
524.435	13.13
524.781	13.39
525.126	13.6
525.472	13.84
525.817	14.02
526.163	14.23
526.509	14.4
526.854	14.57
527.199	14.73
527.545	14.89
527.89	15.05
528.235	15.21
528.581	15.39
528.926	15.56
529.271	15.74
529.616	15.92
529.961	16.07
530.306	16.27
530.651	16.45
530.996	16.66
531.341	16.87
531.686	17.09
532.031	17.3
532.376	17.53
532.721	17.75
533.065	18.01
533.41	18.25
533.755	18.51
534.099	18.8
534.444	19.07
534.788	19.34
535.133	19.6
535.477	19.88
535.822	20.12
536.166	20.42
536.51	20.73
536.855	21.08
537.199	21.46
537.543	21.81
537.887	22.14
538.231	22.49
538.576	22.87
538.92	23.24
539.264	23.57
539.608	23.89
539.951	24.21
540.295	24.51
540.639	24.79
540.983	25.07
541.327	25.31
541.671	25.57
542.014	25.85
542.358	26.09
542.701	26.36
543.045	26.63
543.389	26.88
543.732	27.14
544.075	27.39
544.419	27.62
544.762	27.87
545.105	28.17
545.449	28.49
545.792	28.75
546.135	29.07
546.478	29.38
546.821	29.7
547.165	30.05
547.508	30.4
547.851	30.73
548.194	31.05
548.536	31.45
548.879	31.83
549.222	32.13
549.565	32.51
549.908	32.84
550.25	33.23
550.593	33.58
550.936	33.89
551.278	34.27
551.621	34.64
551.963	34.96
552.306	35.29
552.648	35.57
552.991	35.87
553.333	36.2
553.675	36.53
554.017	36.85
554.36	37.15
554.702	37.37
555.044	37.71
555.386	37.96
555.728	38.17
556.07	38.41
556.412	38.74
556.754	39.07
557.096	39.32
557.438	39.55
557.78	39.83
558.121	40.14
558.463	40.36
558.805	40.64
559.147	40.91
559.488	41.17
559.83	41.46
560.171	41.74
560.513	41.91
560.854	42.12
561.196	42.36
561.537	42.58
561.878	42.81
562.22	42.99
562.561	43.21
562.902	43.46
563.243	43.67
563.584	43.83
563.925	43.97
564.266	44.18
564.607	44.39
564.948	44.55
565.289	44.67
565.63	44.81
565.971	44.96
566.312	45.14
566.653	45.32
566.993	45.5
567.334	45.66
567.675	45.87
568.015	46.03
568.356	46.18
568.696	46.35
569.037	46.47
569.377	46.62
569.718	46.83
570.058	46.98
570.398	47.15
570.739	47.27
571.079	47.46
571.419	47.61
571.759	47.77
572.099	47.92
572.439	48.06
572.779	48.27
573.119	48.41
573.459	48.54
573.799	48.67
574.139	48.74
574.479	48.88
574.819	49
575.158	49.13
575.498	49.24
575.838	49.34
576.177	49.48
576.517	49.65
576.856	49.77
577.196	49.88
577.535	50
577.875	50.17
578.214	50.26
578.553	50.39
578.893	50.49
579.232	50.63
579.571	50.82
579.91	50.95
580.25	51.01
580.589	51.12
580.928	51.22
581.267	51.34
581.606	51.47
581.945	51.6
582.283	51.68
582.622	51.81
582.961	51.89
583.3	52.08
583.639	52.09
583.977	52.25
584.316	52.3
584.654	52.42
584.993	52.53
585.332	52.66
585.67	52.75
586.008	52.86
586.347	52.97
586.685	53.07
587.024	53.11
587.362	53.2
587.7	53.29
588.038	53.43
588.376	53.52
588.715	53.59
589.053	53.61
589.391	53.72
589.729	53.82
590.067	53.84
590.404	53.88
590.742	53.95
591.08	53.94
591.418	54.05
591.756	54.1
592.093	54.2
592.431	54.24
592.769	54.3
593.106	54.33
593.444	54.35
593.781	54.27
594.119	54.32
594.456	54.4
594.793	54.46
595.131	54.47
595.468	54.56
595.805	54.58
596.143	54.63
596.48	54.67
596.817	54.67
597.154	54.79
597.491	54.82
597.828	54.89
598.165	54.96
598.502	55.02
598.839	55.07
599.176	55.15
599.512	55.22
599.849	55.21
600.186	55.28
600.523	55.31
600.859	55.42
601.196	55.49
601.532	55.5
601.869	55.49
602.205	55.53
602.542	55.59
602.878	55.64
603.215	55.65
603.551	55.69
603.887	55.7
604.223	55.72
604.56	55.74
604.896	55.81
605.232	55.87
605.568	55.85
605.904	55.92
606.24	55.92
606.576	55.91
606.912	55.94
607.248	55.96
607.583	56
607.919	56.09
608.255	56.13
608.591	56.25
608.926	56.31
609.262	56.33
609.597	56.33
609.933	56.45
610.268	56.57
610.604	56.53
610.939	56.64
611.275	56.57
611.61	56.58
611.945	56.52
612.281	56.59
612.616	56.66
612.951	56.6
613.286	56.65
613.621	56.73
613.956	56.81
614.291	56.91
614.626	56.98
614.961	57.02
615.296	57
615.631	56.99
615.966	57.11
616.3	57.16
616.635	57.17
616.97	57.08
617.304	57.08
617.639	57.16
617.973	57.12
618.308	57.33
618.642	57.45
618.977	57.58
619.311	57.58
619.646	57.63
619.98	57.68
620.314	57.69
620.648	57.65
620.983	57.73
621.317	57.66
621.651	57.7
621.985	57.73
622.319	57.72
622.653	57.78
622.987	57.76
623.321	57.71
623.655	57.71
623.988	57.6
624.322	57.49
624.656	57.59
624.99	57.64
625.323	57.63
625.657	57.64
625.99	57.7
626.324	57.62
626.657	57.62
626.991	57.67
627.324	57.64
627.658	57.72
627.991	57.79
628.324	57.86
628.657	57.83
628.991	57.8
629.324	57.94
629.657	57.91
629.99	57.95
630.323	58.08
630.656	58.14
630.989	58.39
631.322	58.48
631.655	58.5
631.987	58.45
632.32	58.48
632.653	58.56
632.986	58.54
633.318	58.65
633.651	58.73
633.984	58.72
634.316	58.72
634.649	58.65
634.981	58.54
635.313	58.59
635.646	58.64
635.978	58.57
636.31	58.49
636.643	58.58
636.975	58.56
637.307	58.52
637.639	58.5
637.971	58.44
638.303	58.52
638.635	58.53
638.967	58.71
639.299	58.75
639.631	58.67
639.963	58.65
640.295	58.51
640.626	58.46
640.958	58.47
641.29	58.63
641.621	58.68
641.953	58.72
642.285	58.77
642.616	58.8
642.948	58.91
643.279	59.01
643.61	58.97
643.942	59.09
644.273	59.17
644.604	59.14
644.936	59.08
645.267	59.09
645.598	58.99
645.929	58.86
646.26	58.81
646.591	58.9
646.922	58.81
647.253	58.9
647.584	58.91
647.915	58.96
648.245	58.8
648.576	58.78
648.907	58.83
649.238	58.76
649.568	58.68
649.899	58.76
650.229	58.77
650.56	58.78
650.89	58.74
651.221	58.68
651.551	58.81
651.882	58.89
652.212	58.83
652.542	58.94
652.872	58.99
653.203	58.97
653.533	58.86
653.863	58.95
654.193	58.96
654.523	58.94
654.853	58.89
655.183	59.02
655.513	59.07
655.843	59
656.172	59
656.502	59.08
656.832	59.01
657.162	59.03
657.491	58.96
657.821	59
658.15	59.04
658.48	59.12
658.809	59.13
659.139	59.15
659.468	59.08
659.798	59.08
660.127	59.05
660.456	59.05
660.785	59.06
661.115	59.08
661.444	59.14
661.773	59.13
662.102	59.05
662.431	59.09
662.76	59.15
663.089	59.12
663.418	59.06
663.747	59.08
664.076	59.09
664.404	59.22
664.733	59.19
665.062	59.16
665.39	59.01
665.719	58.89
666.048	58.95
666.376	58.92
666.705	59.01
667.033	59.09
667.362	59.17
667.69	59.23
668.018	59.25
668.347	59.18
668.675	59.27
669.003	59.38
669.331	59.22
669.659	59.26
669.987	59.25
670.315	59.32
670.643	59.33
670.971	59.3
671.299	59.26
671.627	59.3
671.955	59.31
672.283	59.35
672.61	59.37
672.938	59.38
673.266	59.49
673.593	59.41
673.921	59.49
674.249	59.46
674.576	59.41
674.904	59.34
675.231	59.32
675.558	59.35
675.886	59.28
676.213	59.43
676.54	59.43
676.867	59.59
677.195	59.55
677.522	59.54
677.849	59.46
678.176	59.36
678.503	59.32
678.83	59.34
679.157	59.49
679.484	59.66
679.81	59.7
680.137	59.65
680.464	59.67
680.791	59.65
681.117	59.75
681.444	59.86
681.771	59.82
682.097	59.83
682.424	59.79
682.75	59.81
683.077	59.72
683.403	59.65
683.729	59.56
684.056	59.72
684.382	59.82
684.708	59.74
685.034	59.73
685.36	59.58
685.686	59.55
686.012	59.38
686.339	59.31
686.664	59.22
686.99	59.24
687.316	59.21
687.642	59.28
687.968	59.25
688.294	59.18
688.619	59.28
688.945	59.36
689.271	59.27
689.596	59.26
689.922	59.32
690.247	59.37
690.573	59.22
690.898	59.09
691.224	58.96
691.549	59.09
691.874	59.16
692.2	59.39
692.525	59.42
692.85	59.45
693.175	59.39
693.5	59.35
693.825	59.38
694.15	59.46
694.475	59.36
694.8	59.24
695.125	59.3
695.45	59.3
695.775	59.26
696.099	59.31
696.424	59.33
696.749	59.46
697.073	59.37
697.398	59.47
697.723	59.54
698.047	59.62
698.372	59.6
698.696	59.61
699.02	59.51
699.345	59.52
699.669	59.5
699.993	59.49
700.318	59.49
700.642	59.47
700.966	59.29
701.29	59.31
701.614	59.42
701.938	59.36
702.262	59.27
702.586	59.43
702.91	59.41
703.234	59.47
703.557	59.45
703.881	59.4
704.205	59.42
704.529	59.32
704.852	59.25
705.176	59.27
705.499	59.31
705.823	59.24
706.146	59.16
706.47	59.29
706.793	59.36
707.117	59.59
707.44	59.59
707.763	59.71
708.086	59.65
708.409	59.54
708.733	59.43
709.056	59.66
709.379	59.49
709.702	59.66
710.025	59.62
710.348	59.58
710.671	59.79
710.993	59.73
711.316	59.74
711.639	59.92
711.962	60.04
712.284	60.07
712.607	60.11
712.93	60.27
713.252	60.21
713.575	60.16
713.897	59.97
714.22	59.94
714.542	59.97
714.864	59.81
715.187	59.99
715.509	59.93
715.831	59.75
716.153	59.66
716.475	59.47
716.798	59.41
717.12	59.41
717.442	59.41
717.764	59.38
718.085	59.36
718.407	59.22
718.729	59.17
719.051	59.1
719.373	59.17
719.695	59.04
720.016	58.84
720.338	58.95
720.659	58.89
720.981	58.97
721.302	59.18
721.624	59.53
721.945	59.31
722.267	59.29
722.588	59.44
722.909	59.57
723.231	59.65
723.552	59.8
723.873	59.89
724.194	59.7
724.515	59.73
724.836	59.94
725.157	59.93
725.478	59.98
725.799	60.02
726.12	59.99
726.441	59.81
726.762	59.89
727.083	59.88
727.403	60.01
727.724	60.09
728.045	59.98
728.365	59.9
728.686	59.9
729.006	60
729.327	59.96
729.647	60.12
729.967	60.05
730.288	60.11
730.608	60.18
730.928	60.42
731.249	60.45
731.569	60.41
731.889	60.35
732.209	60.33
732.529	60.31
732.849	60.48
733.169	60.49
733.489	60.58
733.809	60.57
734.129	60.53
734.448	60.52
734.768	60.28
735.088	60.17
735.408	60.29
735.727	60.23
736.047	60.21
736.366	60.02
736.686	60
737.005	59.8
737.325	59.74
737.644	59.54
737.963	59.53
738.283	59.28
738.602	59.25
738.921	59.2
739.24	59.17
739.56	58.98
739.879	59.1
740.198	58.91
740.517	58.82
740.836	58.76
741.155	58.44
741.473	58.8
741.792	59.03
742.111	59.03
742.43	59.19
742.748	59.1
743.067	59.01
743.386	59
743.704	59.01
744.023	58.6
744.341	58.68
744.66	58.97
744.978	59.15
745.297	59.23
745.615	59.37
745.933	59.45
746.252	59.54
746.57	59.42
746.888	59.61
747.206	59.63
747.524	59.79
747.842	60.28
748.16	59.99
748.478	59.59
748.796	59.38
749.114	59.61
749.432	59.76
749.749	59.99
750.067	60.14
750.385	60.18
750.703	60.32
751.02	60.29
751.338	60.01
751.655	59.8
751.973	59.73
752.29	59.69
752.608	59.49
752.925	59.4
753.242	59.62
753.56	59.83
753.877	59.76
754.194	59.82
754.511	59.6
754.828	59.6
755.145	59.67
755.462	59.87
755.779	59.4
756.096	59.32
756.413	59.15
756.73	59.07
757.047	58.94
757.364	59.2
757.68	59.08
757.997	59.3
758.314	59.55
758.63	59.64
758.947	59.72
759.264	59.94
759.58	60.02
759.896	59.73
760.213	59.42
760.529	59.35
760.846	59.42
761.162	59.32
761.478	59.29
761.794	59.31
762.11	59.31
762.426	59.41
762.743	59.39
763.059	59.79
763.375	59.51
763.69	59.77
764.006	59.96
764.322	60.01
764.638	59.8
764.954	59.57
765.27	59.59
765.585	59.5
765.901	59.55
766.216	59.7
766.532	59.83
766.848	59.63
767.163	59.67
767.478	59.47
767.794	59.62
768.109	59.55
768.424	59.66
768.74	59.85
769.055	59.83
769.37	59.89
769.685	59.23
770	59.78
770.315	59.8
770.63	59.49
770.945	59.7
771.26	59.5
771.575	59.6
771.89	59.76
772.205	60.03
772.52	60.03
772.834	59.71
773.149	59.49
773.464	59.77
773.778	59.92
774.093	60.02
774.407	59.89
774.722	60.18
775.036	60.21
775.351	60.05
775.665	60.45
775.979	60.54
776.293	61.14
776.608	61.01
776.922	60.73
777.236	60.65
777.55	60.64
777.864	61.16
778.178	61.56
778.492	61.24
778.806	60.86
779.12	60.84
779.434	61.1
779.747	61.11
780.061	61.29
780.375	61.2
780.689	61.31
781.002	61.43
781.316	61.79
781.629	61.94
781.943	62
782.256	61.45
782.57	61.6
782.883	61.32
783.196	61.71
783.51	61.75
783.823	61.78
784.136	61.74
784.449	61.41
784.762	60.91
785.075	60.96
785.388	61.06
785.701	61.32
786.014	60.77
786.327	61.38
786.64	61.5
786.953	61.36
787.266	60.82
787.578	60.66
787.891	60.2
788.204	60.39
788.516	60.01
788.829	59.77
789.141	59.85
789.454	59.82
789.766	59.3
790.079	58.91
790.391	59.46
790.703	59.76
791.016	60.27
791.328	60.78
791.64	60.67
791.952	60.81
792.264	60.14
792.576	60.52
792.888	60.09
793.2	60.21
793.512	60.53
793.824	60.58
794.136	60.38
794.448	61.06
794.76	60.9
795.071	61.25
795.383	61.76
795.695	61.36
796.006	61.59
796.318	61.62
796.629	62.04
796.941	61.37
797.252	61.22
797.564	60.52
797.875	60.12
798.186	59.98
798.497	60.32
798.809	60.59
799.12	60.56
799.431	60.4
799.742	60.22
800.053	60.23
800.364	60.58
800.675	60.91
800.986	60.75
801.297	60.47
801.608	60.42
801.918	60.28
802.229	60.54
802.54	60.54
802.851	60.03
803.161	60.13
803.472	60.43
803.782	60.2
804.093	60.49
804.403	60.84
804.714	61.59
805.024	61.24
805.334	61.03
805.645	60.89
805.955	61.48
806.265	61.64
806.575	61.66
806.885	61.65
807.195	61.29
807.505	60.98
807.815	61.16
808.125	60.93
808.435	61.01
808.745	61.07
809.055	61.04
809.365	61.84
809.674	61.3
809.984	61.11
810.294	60.93
810.603	60.79
810.913	60.38
811.222	60.09
811.532	60.37
811.841	61.31
812.151	61.54
812.46	62.22
812.769	61.92
813.079	62.16
813.388	62.02
813.697	62.03
814.006	62.14
814.315	61.66
814.624	61.26
814.933	61.57
815.242	61.62
815.551	61.52
815.86	60.83
816.169	61.26
816.478	60.92
816.786	60.87
817.095	61.01
817.404	61.57
817.712	61.67
818.021	61.3
818.33	59.96
818.638	59.44
818.947	59.22
819.255	58.95
819.563	59.1
819.872	59.01
820.18	58.88
820.488	58.65
820.796	58.9
821.105	58.97
821.413	59.11
821.721	58.97
822.029	58.8
822.337	58.87
822.645	58.87
822.953	59.07
823.26	59.3
823.568	59.23
823.876	59.09
824.184	59.14
824.491	59.09
824.799	59.36
825.107	59.54
825.414	59.38
825.722	59.52
826.029	59.22
826.337	59.43
826.644	59.62
826.951	59.61
827.259	59.69
827.566	59.86
827.873	59.55
828.18	59.72
828.488	60.05
828.795	60.21
829.102	60.42
829.409	60.4
829.716	59.83
830.023	60.01
830.329	59.74
830.636	59.84
830.943	60.05
831.25	59.65
831.557	59.3
831.863	59.37
832.17	59.33
832.476	59.79
832.783	59.74
833.089	59.7
833.396	59.68
833.702	59.43
834.009	59.34
834.315	59.71
834.621	59.27
834.928	58.79
835.234	58.68
835.54	58.64
835.846	58.24
836.152	58.7
836.458	58.98
836.764	59.34
837.07	58.95
837.376	58.97
837.682	59.28
837.988	59.24
838.293	59.23
838.599	59.18
838.905	59
839.211	58.18
839.516	58.58
839.822	58.73
840.127	59.01
840.433	58.65
840.738	58.51
841.044	58.73
841.349	59.51
841.654	59.77
841.959	59.7
842.265	60.69
842.57	61.3
842.875	61.12
843.18	61.23
843.485	61.47
843.79	61.73
844.095	62.18
844.4	62.8
844.705	62.61
845.01	61.43
845.315	61.56
845.619	61.77
845.924	60.21
846.229	60.81
846.533	60.29
846.838	60.44
847.142	60.82
847.447	60.56
847.751	60.36
848.056	60.09
848.36	60.18
848.664	58.79
848.969	58.43
849.273	57.16
849.577	58.29
849.881	58.78
850.185	57.72
850.489	58.35
850.794	58.74
851.097	58.26
851.401	60.4
851.705	60.3
852.009	60.21
852.313	60.7
852.617	61.41
852.92	61.23
853.224	60.17
853.528	59.83
853.831	59.7
854.135	60.36
854.438	62.95
854.742	60.29
855.045	61.18
855.349	60.42
855.652	61.4
855.955	60.49
856.259	57.87
856.562	57.76
856.865	54.75
857.168	53.2
857.471	56.22
857.774	58.56
858.077	59.48
858.38	60.8
858.683	60.62
858.986	60.71
859.289	59.9
859.592	61.35
859.894	60.87
860.197	60.15
860.5	58.41
860.802	55.07
861.105	57.41
861.407	57.74
861.71	58.77
862.012	58.8
862.315	57.62
862.617	62
862.919	64.14
863.222	65.68
863.524	69.17
863.826	65.97
864.128	63.35
864.43	64.06
864.732	64.18
865.034	64.32
865.336	61.91
865.638	61.52
865.94	61.9
866.242	62.33
866.544	63.68
866.846	63.6
867.147	65.53
867.449	64.26
867.751	64.01
868.052	63.3
868.354	60.79
868.655	62.1
868.957	59.12
869.258	57.8
869.56	57.49
869.861	53.95
870.162	55.06
870.463	54.62
870.765	54.9
871.066	54.35
871.367	52.82
871.668	55.87
871.969	56.2
872.27	56.75
872.571	57.81
872.872	57.85
873.173	56.74
873.473	59.05
873.774	58.33
874.075	58.32
874.376	56.33
874.676	57.85
874.977	57.08
875.277	56.7
875.578	54.11
875.878	54.26
876.179	55.58
876.479	55.5
876.78	55.61
877.08	53.32
877.38	53.04
877.68	55.41
877.981	52.49
878.281	53.59
878.581	52.71
