Data from BA57965_Reflection_00008.txt Node
Date: Mon Nov 18 15:16:15 EST 2019
User: vgr7
Spectrometer: USB2G7710
Scans to average: 3
Trigger mode: 4
Integration Time (sec): 2.000000E-2
Electric dark correction enabled: true
Boxcar width: 10
XAxis mode: Wavelengths
Number of Pixels in Spectrum: 2048
>>>>>Begin Spectral Data<<<<<
177.721	70.55
178.105	34.72
178.488	-22.4
178.871	-36.69
179.254	-145.32
179.636	-32.55
180.019	-44.11
180.402	92.11
180.785	27.42
181.168	66.47
181.55	178.82
181.933	185.89
182.316	335.76
182.698	920.08
183.081	1596.77
183.463	-1377.71
183.846	-352.08
184.228	-97.64
184.611	-106.21
184.993	-52.91
185.376	-45.58
185.758	-58.08
186.14	-61.95
186.522	-74.39
186.904	-73.89
187.287	-89.38
187.669	-57.29
188.051	-65.15
188.433	-67.76
188.815	-39.12
189.197	-36.31
189.579	-32.62
189.961	-25.54
190.342	-29.22
190.724	-30.14
191.106	-23.22
191.488	-22.47
191.869	-21.64
192.251	-35.59
192.633	-40.17
193.014	-36.68
193.396	-47.43
193.777	-34.29
194.159	-37.78
194.54	-36.45
194.922	-18.86
195.303	-22.13
195.684	-19.09
196.065	4.78
196.447	-0.61
196.828	-20.34
197.209	-13.83
197.59	-21.18
197.971	-22
198.352	-5.35
198.733	-12.63
199.114	-6.8
199.495	-1.11
199.876	3.12
200.257	-2.99
200.638	6.23
201.018	-3.58
201.399	6.57
201.78	8.38
202.16	4.49
202.541	7.53
202.922	-1.13
203.302	-0.05
203.683	-1.48
204.063	-11.59
204.444	-2.86
204.824	3.33
205.204	3.35
205.585	6.51
205.965	3.13
206.345	2.36
206.725	13.68
207.106	3.22
207.486	-29.29
207.866	-44.48
208.246	-40.37
208.626	-37.91
209.006	-16.92
209.386	-31.82
209.766	-32.4
210.145	-37.25
210.525	-36.87
210.905	-26.82
211.285	-25.33
211.664	-29.38
212.044	-24.4
212.424	-19.32
212.803	-21.85
213.183	-22.51
213.562	-22.02
213.942	-20.41
214.321	-17.73
214.701	-18.11
215.08	-21.22
215.459	-19.55
215.838	-8.77
216.218	-8.33
216.597	-9.02
216.976	-17.41
217.355	-13.29
217.734	-16.32
218.113	-9.09
218.492	-8.66
218.871	-20.1
219.25	-19.39
219.629	-14.33
220.008	-23.7
220.387	-29.83
220.766	-32.28
221.144	-46.64
221.523	-43.97
221.902	-40.72
222.28	-46.19
222.659	-48.74
223.037	-41.09
223.416	-28.71
223.794	-32.69
224.173	-28.53
224.551	-22.04
224.929	-16.74
225.308	-10.12
225.686	-6.78
226.064	-5.53
226.442	-4.92
226.821	1.84
227.199	-0.38
227.577	-2.74
227.955	-0.92
228.333	-1.28
228.711	0.47
229.089	4.53
229.467	4.78
229.845	3.52
230.222	5.04
230.6	6.72
230.978	7.11
231.356	6.78
231.733	7.18
232.111	6.61
232.488	5.49
232.866	4.6
233.243	3.84
233.621	4.05
233.998	3.49
234.376	3.11
234.753	2.08
235.13	2.66
235.508	4.46
235.885	4.01
236.262	2.7
236.639	3.05
237.016	3.03
237.393	2.5
237.77	3.62
238.147	3.84
238.524	4.25
238.901	4.79
239.278	4.99
239.655	5.39
240.032	5.74
240.409	5.16
240.785	5.24
241.162	5.11
241.539	4.88
241.915	4.96
242.292	4.49
242.668	4.19
243.045	4.28
243.421	4.19
243.798	4.09
244.174	4.46
244.551	4.55
244.927	4.4
245.303	4.57
245.679	4.36
246.056	4.05
246.432	3.95
246.808	3.82
247.184	3.62
247.56	3.3
247.936	3.07
248.312	3.23
248.688	3.32
249.064	3.29
249.44	3.48
249.815	3.58
250.191	3.95
250.567	4.23
250.943	4.05
251.318	3.91
251.694	3.95
252.069	3.87
252.445	3.81
252.82	3.85
253.196	3.77
253.571	3.75
253.947	3.92
254.322	3.89
254.697	3.9
255.073	3.71
255.448	3.62
255.823	3.7
256.198	3.55
256.573	3.4
256.948	3.48
257.323	3.32
257.698	3.32
258.073	3.23
258.448	3.03
258.823	2.98
259.198	2.9
259.573	2.98
259.948	2.98
260.322	2.93
260.697	2.93
261.072	2.87
261.446	2.92
261.821	3
262.195	2.99
262.57	2.94
262.944	3.01
263.319	3.13
263.693	3.15
264.067	3.35
264.442	3.39
264.816	3.26
265.19	3.17
265.564	3.11
265.938	2.98
266.313	3.12
266.687	3.23
267.061	3.46
267.435	3.34
267.809	3.23
268.183	3.18
268.556	3.34
268.93	3.42
269.304	3.43
269.678	3.43
270.051	3.49
270.425	3.58
270.799	3.64
271.172	3.55
271.546	3.41
271.919	3.18
272.293	3.21
272.666	3.35
273.04	3.55
273.413	3.51
273.787	3.65
274.16	3.47
274.533	3.44
274.906	3.31
275.279	3.47
275.653	3.5
276.026	3.63
276.399	3.46
276.772	3.45
277.145	3.4
277.518	3.27
277.891	3.25
278.263	3.2
278.636	3.06
279.009	3.25
279.382	3.38
279.755	3.46
280.127	3.66
280.5	3.69
280.872	3.6
281.245	3.66
281.617	3.59
281.99	3.82
282.362	3.9
282.735	3.82
283.107	3.85
283.479	4.05
283.852	4.03
284.224	3.94
284.596	3.89
284.968	3.98
285.34	4.04
285.713	3.93
286.085	3.99
286.457	4.04
286.829	3.96
287.201	3.99
287.572	3.99
287.944	3.86
288.316	3.83
288.688	3.82
289.06	3.7
289.431	3.74
289.803	3.7
290.175	3.62
290.546	3.73
290.918	3.7
291.289	3.52
291.661	3.51
292.032	3.7
292.403	3.79
292.775	3.85
293.146	3.7
293.517	3.79
293.889	3.68
294.26	3.64
294.631	3.67
295.002	3.62
295.373	3.73
295.744	3.78
296.115	3.82
296.486	3.73
296.857	3.83
297.228	3.82
297.599	3.64
297.97	3.73
298.34	3.76
298.711	3.65
299.082	3.65
299.452	3.63
299.823	3.66
300.194	3.65
300.564	3.57
300.935	3.78
301.305	3.71
301.676	3.81
302.046	3.91
302.416	4.03
302.787	4.17
303.157	4.17
303.527	4.08
303.897	4.05
304.267	4.16
304.637	4.24
305.008	4.27
305.378	4.54
305.748	4.58
306.117	4.61
306.487	4.81
306.857	5.08
307.227	5.22
307.597	5.1
307.967	5.01
308.336	4.98
308.706	4.83
309.076	5
309.445	4.89
309.815	4.92
310.184	4.87
310.554	4.95
310.923	4.95
311.293	5
311.662	5.18
312.031	5.14
312.401	5.15
312.77	5.22
313.139	5.28
313.508	5.24
313.877	5.25
314.246	5.1
314.616	4.97
314.985	4.9
315.353	4.9
315.722	5.14
316.091	5.09
316.46	5.31
316.829	5.19
317.198	5.44
317.567	5.39
317.935	5.35
318.304	5.18
318.672	5.16
319.041	5.24
319.41	5.07
319.778	5.2
320.147	5.13
320.515	5.12
320.883	4.9
321.252	4.97
321.62	5.02
321.988	5.13
322.357	5.23
322.725	5.29
323.093	5.43
323.461	5.35
323.829	5.55
324.197	5.46
324.565	5.6
324.933	5.64
325.301	5.68
325.669	5.78
326.037	5.82
326.405	5.94
326.772	5.98
327.14	6.17
327.508	6.21
327.875	6.18
328.243	6.22
328.61	6.36
328.978	6.38
329.346	6.43
329.713	6.46
330.08	6.5
330.448	6.44
330.815	6.42
331.182	6.46
331.55	6.46
331.917	6.58
332.284	6.59
332.651	6.52
333.018	6.63
333.385	6.6
333.752	6.69
334.119	6.75
334.486	6.66
334.853	6.43
335.22	6.38
335.587	6.51
335.954	6.57
336.32	6.59
336.687	6.63
337.054	6.67
337.42	6.69
337.787	6.67
338.153	6.73
338.52	6.79
338.886	6.79
339.253	6.82
339.619	6.8
339.986	6.83
340.352	6.87
340.718	6.86
341.084	6.92
341.451	6.88
341.817	6.8
342.183	6.94
342.549	6.94
342.915	7.12
343.281	7.06
343.647	7.11
344.013	7.16
344.379	7.08
344.745	7.06
345.11	7.12
345.476	7.13
345.842	7.24
346.208	7.18
346.573	7.18
346.939	7.18
347.304	7.19
347.67	7.19
348.035	7.09
348.401	7.07
348.766	7.19
349.132	7.19
349.497	7.15
349.862	7.15
350.228	7.22
350.593	7.11
350.958	7.14
351.323	7.1
351.688	7.16
352.053	7.24
352.418	7.34
352.783	7.29
353.148	7.28
353.513	7.25
353.878	7.29
354.243	7.34
354.608	7.34
354.972	7.41
355.337	7.49
355.702	7.57
356.066	7.57
356.431	7.42
356.795	7.42
357.16	7.39
357.524	7.25
357.889	7.19
358.253	7.18
358.618	7.25
358.982	7.21
359.346	7.1
359.71	7.1
360.075	7.01
360.439	7.04
360.803	7.05
361.167	7.04
361.531	6.97
361.895	6.94
362.259	6.9
362.623	6.88
362.987	6.74
363.351	6.69
363.714	6.67
364.078	6.64
364.442	6.56
364.806	6.58
365.169	6.63
365.533	6.64
365.896	6.6
366.26	6.53
366.623	6.54
366.987	6.58
367.35	6.52
367.714	6.47
368.077	6.4
368.44	6.32
368.803	6.25
369.167	6.22
369.53	6.15
369.893	6.15
370.256	6.07
370.619	6.09
370.982	6.02
371.345	5.95
371.708	5.95
372.071	5.97
372.434	5.89
372.797	5.82
373.159	5.74
373.522	5.7
373.885	5.61
374.247	5.54
374.61	5.49
374.973	5.43
375.335	5.45
375.698	5.41
376.06	5.38
376.423	5.33
376.785	5.38
377.147	5.39
377.51	5.32
377.872	5.3
378.234	5.28
378.596	5.25
378.958	5.23
379.321	5.17
379.683	5.14
380.045	5.14
380.407	5.08
380.769	5.1
381.13	5.06
381.492	5.1
381.854	5.07
382.216	5.05
382.578	5.02
382.939	4.94
383.301	4.89
383.663	4.88
384.024	4.86
384.386	4.82
384.747	4.77
385.109	4.79
385.47	4.74
385.832	4.7
386.193	4.71
386.554	4.68
386.916	4.67
387.277	4.66
387.638	4.61
387.999	4.62
388.36	4.59
388.721	4.56
389.082	4.5
389.443	4.46
389.804	4.41
390.165	4.4
390.526	4.37
390.887	4.36
391.248	4.36
391.609	4.32
391.969	4.29
392.33	4.26
392.691	4.19
393.051	4.17
393.412	4.11
393.772	4.07
394.133	4.06
394.493	4.06
394.854	4.05
395.214	4.03
395.574	4.01
395.935	3.96
396.295	3.95
396.655	3.89
397.015	3.89
397.376	3.89
397.736	3.85
398.096	3.87
398.456	3.85
398.816	3.77
399.176	3.75
399.535	3.72
399.895	3.71
400.255	3.71
400.615	3.69
400.975	3.71
401.334	3.7
401.694	3.68
402.054	3.66
402.413	3.61
402.773	3.61
403.132	3.62
403.492	3.63
403.851	3.62
404.211	3.66
404.57	3.63
404.929	3.63
405.288	3.62
405.648	3.6
406.007	3.6
406.366	3.6
406.725	3.61
407.084	3.6
407.443	3.58
407.802	3.57
408.161	3.53
408.52	3.5
408.879	3.49
409.238	3.52
409.596	3.5
409.955	3.49
410.314	3.48
410.673	3.46
411.031	3.44
411.39	3.45
411.748	3.42
412.107	3.4
412.465	3.38
412.824	3.35
413.182	3.33
413.54	3.3
413.899	3.32
414.257	3.31
414.615	3.27
414.974	3.3
415.332	3.29
415.69	3.29
416.048	3.28
416.406	3.27
416.764	3.23
417.122	3.23
417.48	3.2
417.838	3.18
418.195	3.19
418.553	3.18
418.911	3.14
419.269	3.14
419.626	3.13
419.984	3.11
420.342	3.11
420.699	3.11
421.057	3.13
421.414	3.11
421.772	3.1
422.129	3.12
422.486	3.09
422.844	3.09
423.201	3.08
423.558	3.08
423.915	3.07
424.273	3.07
424.63	3.06
424.987	3.07
425.344	3.07
425.701	3.05
426.058	3.04
426.415	3.05
426.772	3.06
427.128	3.05
427.485	3.07
427.842	3.06
428.199	3.06
428.555	3.05
428.912	3.06
429.269	3.05
429.625	3.02
429.982	3.03
430.338	3.04
430.695	3.07
431.051	3.06
431.407	3.07
431.764	3.04
432.12	3.05
432.476	3.05
432.832	3.01
433.189	3.04
433.545	3.04
433.901	3.05
434.257	3.03
434.613	3.03
434.969	3.03
435.325	3.04
435.681	3.03
436.036	3.02
436.392	3
436.748	3.01
437.104	3.01
437.459	3
437.815	2.98
438.171	2.96
438.526	2.96
438.882	2.95
439.237	2.98
439.593	2.98
439.948	2.96
440.304	2.98
440.659	2.98
441.014	2.97
441.369	2.94
441.725	2.92
442.08	2.94
442.435	2.93
442.79	2.91
443.145	2.93
443.5	2.92
443.855	2.92
444.21	2.92
444.565	2.92
444.92	2.93
445.275	2.92
445.629	2.93
445.984	2.93
446.339	2.92
446.693	2.9
447.048	2.88
447.403	2.88
447.757	2.88
448.112	2.85
448.466	2.85
448.82	2.87
449.175	2.88
449.529	2.87
449.883	2.85
450.238	2.86
450.592	2.85
450.946	2.83
451.3	2.82
451.654	2.8
452.008	2.81
452.362	2.79
452.716	2.78
453.07	2.77
453.424	2.79
453.778	2.79
454.132	2.78
454.486	2.79
454.839	2.8
455.193	2.81
455.547	2.83
455.9	2.84
456.254	2.82
456.607	2.83
456.961	2.83
457.314	2.85
457.668	2.83
458.021	2.82
458.375	2.84
458.728	2.84
459.081	2.86
459.434	2.85
459.787	2.86
460.141	2.88
460.494	2.88
460.847	2.87
461.2	2.87
461.553	2.9
461.906	2.91
462.259	2.92
462.611	2.92
462.964	2.94
463.317	2.93
463.67	2.96
464.022	2.96
464.375	2.95
464.728	2.94
465.08	2.95
465.433	2.96
465.785	2.97
466.138	2.99
466.49	2.99
466.843	2.99
467.195	2.98
467.547	2.98
467.899	2.98
468.252	2.99
468.604	3
468.956	3
469.308	3
469.66	2.97
470.012	2.99
470.364	2.98
470.716	2.99
471.068	2.99
471.42	3
471.772	3.03
472.123	3.04
472.475	3.06
472.827	3.07
473.178	3.08
473.53	3.07
473.882	3.07
474.233	3.08
474.585	3.08
474.936	3.07
475.288	3.06
475.639	3.06
475.99	3.06
476.342	3.06
476.693	3.05
477.044	3.07
477.395	3.04
477.746	3.03
478.097	3
478.448	2.99
478.8	2.97
479.15	2.97
479.501	2.97
479.852	2.96
480.203	2.97
480.554	2.97
480.905	2.96
481.255	2.96
481.606	2.96
481.957	2.97
482.307	2.99
482.658	2.99
483.009	2.99
483.359	3
483.709	3
484.06	3
484.41	3.01
484.761	3.01
485.111	3.02
485.461	3.04
485.811	3.03
486.162	3.04
486.512	3.04
486.862	3.04
487.212	3.05
487.562	3.05
487.912	3.05
488.262	3.07
488.612	3.08
488.961	3.08
489.311	3.09
489.661	3.09
490.011	3.1
490.36	3.1
490.71	3.09
491.06	3.11
491.409	3.11
491.759	3.12
492.108	3.13
492.458	3.14
492.807	3.15
493.157	3.17
493.506	3.2
493.855	3.22
494.204	3.22
494.554	3.24
494.903	3.24
495.252	3.25
495.601	3.26
495.95	3.27
496.299	3.28
496.648	3.29
496.997	3.29
497.346	3.3
497.695	3.31
498.043	3.34
498.392	3.33
498.741	3.34
499.09	3.34
499.438	3.35
499.787	3.37
500.135	3.39
500.484	3.39
500.832	3.4
501.181	3.4
501.529	3.45
501.878	3.48
502.226	3.5
502.574	3.54
502.923	3.52
503.271	3.58
503.619	3.64
503.967	3.65
504.315	3.68
504.663	3.71
505.011	3.77
505.359	3.8
505.707	3.84
506.055	3.87
506.403	3.93
506.751	3.97
507.098	4.02
507.446	4.04
507.794	4.07
508.141	4.12
508.489	4.16
508.837	4.19
509.184	4.22
509.531	4.26
509.879	4.31
510.226	4.38
510.574	4.4
510.921	4.43
511.268	4.48
511.616	4.52
511.963	4.56
512.31	4.61
512.657	4.65
513.004	4.71
513.351	4.79
513.698	4.82
514.045	4.86
514.392	4.89
514.739	4.96
515.086	5.02
515.432	5.09
515.779	5.13
516.126	5.19
516.473	5.26
516.819	5.32
517.166	5.35
517.512	5.41
517.859	5.48
518.205	5.53
518.552	5.58
518.898	5.65
519.245	5.73
519.591	5.78
519.937	5.84
520.283	5.91
520.629	5.96
520.976	6.05
521.322	6.13
521.668	6.22
522.014	6.3
522.36	6.42
522.706	6.5
523.052	6.61
523.398	6.73
523.743	6.85
524.089	6.96
524.435	7.09
524.781	7.21
525.126	7.31
525.472	7.42
525.817	7.52
526.163	7.6
526.509	7.68
526.854	7.76
527.199	7.84
527.545	7.92
527.89	8
528.235	8.09
528.581	8.18
528.926	8.27
529.271	8.37
529.616	8.46
529.961	8.57
530.306	8.68
530.651	8.79
530.996	8.9
531.341	9.02
531.686	9.14
532.031	9.28
532.376	9.42
532.721	9.57
533.065	9.73
533.41	9.9
533.755	10.07
534.099	10.25
534.444	10.43
534.788	10.63
535.133	10.8
535.477	10.98
535.822	11.18
536.166	11.38
536.51	11.59
536.855	11.85
537.199	12.09
537.543	12.34
537.887	12.61
538.231	12.87
538.576	13.17
538.92	13.44
539.264	13.69
539.608	13.95
539.951	14.17
540.295	14.41
540.639	14.63
540.983	14.84
541.327	15.07
541.671	15.3
542.014	15.5
542.358	15.76
542.701	15.98
543.045	16.21
543.389	16.44
543.732	16.69
544.075	16.92
544.419	17.15
544.762	17.43
545.105	17.71
545.449	17.99
545.792	18.26
546.135	18.57
546.478	18.89
546.821	19.22
547.165	19.56
547.508	19.91
547.851	20.24
548.194	20.59
548.536	20.93
548.879	21.28
549.222	21.67
549.565	22.01
549.908	22.36
550.25	22.7
550.593	23.09
550.936	23.45
551.278	23.8
551.621	24.18
551.963	24.54
552.306	24.9
552.648	25.25
552.991	25.59
553.333	25.9
553.675	26.26
554.017	26.58
554.36	26.89
554.702	27.24
555.044	27.59
555.386	27.92
555.728	28.21
556.07	28.52
556.412	28.82
556.754	29.13
557.096	29.49
557.438	29.84
557.78	30.14
558.121	30.46
558.463	30.8
558.805	31.11
559.147	31.45
559.488	31.72
559.83	32.01
560.171	32.29
560.513	32.62
560.854	32.89
561.196	33.21
561.537	33.51
561.878	33.76
562.22	34.01
562.561	34.29
562.902	34.64
563.243	34.92
563.584	35.2
563.925	35.46
564.266	35.63
564.607	35.88
564.948	36.14
565.289	36.38
565.63	36.67
565.971	36.9
566.312	37.15
566.653	37.37
566.993	37.59
567.334	37.85
567.675	38.1
568.015	38.3
568.356	38.52
568.696	38.74
569.037	38.97
569.377	39.23
569.718	39.44
570.058	39.68
570.398	39.9
570.739	40.09
571.079	40.34
571.419	40.61
571.759	40.82
572.099	41.02
572.439	41.28
572.779	41.39
573.119	41.59
573.459	41.77
573.799	41.97
574.139	42.15
574.479	42.32
574.819	42.46
575.158	42.68
575.498	42.88
575.838	43.07
576.177	43.2
576.517	43.35
576.856	43.54
577.196	43.64
577.535	43.78
577.875	43.99
578.214	44.09
578.553	44.26
578.893	44.43
579.232	44.57
579.571	44.64
579.91	44.77
580.25	44.87
580.589	44.93
580.928	45.08
581.267	45.28
581.606	45.4
581.945	45.6
582.283	45.77
582.622	45.84
582.961	46.01
583.3	46.27
583.639	46.4
583.977	46.51
584.316	46.58
584.654	46.77
584.993	46.85
585.332	47.1
585.67	47.14
586.008	47.23
586.347	47.37
586.685	47.47
587.024	47.71
587.362	47.89
587.7	48.11
588.038	48.21
588.376	48.31
588.715	48.38
589.053	48.45
589.391	48.45
589.729	48.56
590.067	48.58
590.404	48.62
590.742	48.77
591.08	48.85
591.418	49.02
591.756	49.09
592.093	49.17
592.431	49.23
592.769	49.37
593.106	49.54
593.444	49.56
593.781	49.64
594.119	49.75
594.456	49.79
594.793	49.85
595.131	49.96
595.468	49.94
595.805	50.1
596.143	50.18
596.48	50.26
596.817	50.32
597.154	50.36
597.491	50.44
597.828	50.5
598.165	50.65
598.502	50.69
598.839	50.8
599.176	50.91
599.512	50.95
599.849	51.06
600.186	51.07
600.523	51.28
600.859	51.46
601.196	51.51
601.532	51.65
601.869	51.68
602.205	51.77
602.542	51.94
602.878	51.96
603.215	52.01
603.551	52.06
603.887	52.13
604.223	52.26
604.56	52.34
604.896	52.4
605.232	52.42
605.568	52.47
605.904	52.51
606.24	52.57
606.576	52.63
606.912	52.69
607.248	52.76
607.583	52.77
607.919	52.81
608.255	52.87
608.591	52.85
608.926	52.95
609.262	52.92
609.597	53.01
609.933	53.06
610.268	53.07
610.604	53.15
610.939	53.16
611.275	53.21
611.61	53.26
611.945	53.32
612.281	53.35
612.616	53.42
612.951	53.49
613.286	53.55
613.621	53.62
613.956	53.69
614.291	53.71
614.626	53.67
614.961	53.73
615.296	53.79
615.631	53.89
615.966	53.95
616.3	54.09
616.635	54.11
616.97	54.13
617.304	54.19
617.639	54.13
617.973	54.22
618.308	54.26
618.642	54.29
618.977	54.27
619.311	54.28
619.646	54.37
619.98	54.41
620.314	54.46
620.648	54.51
620.983	54.51
621.317	54.59
621.651	54.76
621.985	54.85
622.319	54.9
622.653	54.89
622.987	54.89
623.321	54.92
623.655	54.87
623.988	54.94
624.322	54.98
624.656	55.15
624.99	55.17
625.323	55.19
625.657	55.24
625.99	55.41
626.324	55.51
626.657	55.49
626.991	55.45
627.324	55.47
627.658	55.49
627.991	55.48
628.324	55.53
628.657	55.53
628.991	55.54
629.324	55.62
629.657	55.7
629.99	55.71
630.323	55.77
630.656	55.85
630.989	55.88
631.322	55.95
631.655	55.97
631.987	56.03
632.32	56.07
632.653	56.06
632.986	55.96
633.318	56.01
633.651	56.01
633.984	56.04
634.316	56.04
634.649	56.08
634.981	56.2
635.313	56.2
635.646	56.26
635.978	56.22
636.31	56.16
636.643	56.07
636.975	56.04
637.307	56
637.639	55.99
637.971	55.98
638.303	55.87
638.635	55.82
638.967	55.83
639.299	55.87
639.631	55.83
639.963	55.96
640.295	55.86
640.626	55.83
640.958	55.93
641.29	55.98
641.621	55.93
641.953	55.86
642.285	55.82
642.616	55.88
642.948	55.93
643.279	55.95
643.61	56.13
643.942	56.23
644.273	56.25
644.604	56.31
644.936	56.25
645.267	56.52
645.598	56.62
645.929	56.71
646.26	56.72
646.591	56.81
646.922	56.7
647.253	56.77
647.584	56.89
647.915	56.9
648.245	56.89
648.576	57.06
648.907	57.23
649.238	57.16
649.568	57.1
649.899	57.15
650.229	57.18
650.56	57.17
650.89	57.23
651.221	57.33
651.551	57.29
651.882	57.48
652.212	57.32
652.542	57.35
652.872	57.23
653.203	57.31
653.533	57.35
653.863	57.37
654.193	57.39
654.523	57.37
654.853	57.3
655.183	57.31
655.513	57.34
655.843	57.27
656.172	57.31
656.502	57.3
656.832	57.19
657.162	57.22
657.491	57.25
657.821	57.14
658.15	57.12
658.48	57.18
658.809	57.1
659.139	57.12
659.468	57.12
659.798	57.21
660.127	57.25
660.456	57.25
660.785	57.32
661.115	57.28
661.444	57.28
661.773	57.41
662.102	57.47
662.431	57.32
662.76	57.36
663.089	57.53
663.418	57.58
663.747	57.66
664.076	57.62
664.404	57.48
664.733	57.56
665.062	57.66
665.39	57.65
665.719	57.61
666.048	57.81
666.376	57.8
666.705	57.87
667.033	57.69
667.362	57.75
667.69	57.73
668.018	57.82
668.347	57.93
668.675	58.1
669.003	58.04
669.331	58.07
669.659	58.08
669.987	57.96
670.315	58.04
670.643	58.04
670.971	58.04
671.299	58.21
671.627	58.32
671.955	58.34
672.283	58.44
672.61	58.41
672.938	58.3
673.266	58.33
673.593	58.08
673.921	58.18
674.249	58.18
674.576	58.1
674.904	58.06
675.231	58.07
675.558	57.91
675.886	58
676.213	58.11
676.54	58.01
676.867	57.98
677.195	58.08
677.522	58.1
677.849	58.14
678.176	58.17
678.503	58.13
678.83	57.97
679.157	57.88
679.484	58.1
679.81	58.11
680.137	58.15
680.464	58.27
680.791	58.31
681.117	58.27
681.444	58.3
681.771	58.3
682.097	58.27
682.424	58.3
682.75	58.24
683.077	58.23
683.403	58.42
683.729	58.54
684.056	58.46
684.382	58.35
684.708	58.46
685.034	58.39
685.36	58.35
685.686	58.4
686.012	58.51
686.339	58.52
686.664	58.55
686.99	58.49
687.316	58.49
687.642	58.54
687.968	58.47
688.294	58.59
688.619	58.67
688.945	58.65
689.271	58.62
689.596	58.5
689.922	58.56
690.247	58.37
690.573	58.36
690.898	58.32
691.224	58.5
691.549	58.44
691.874	58.48
692.2	58.56
692.525	58.59
692.85	58.5
693.175	58.48
693.5	58.4
693.825	58.4
694.15	58.4
694.475	58.44
694.8	58.62
695.125	58.5
695.45	58.48
695.775	58.53
696.099	58.45
696.424	58.63
696.749	58.72
697.073	58.73
697.398	58.67
697.723	58.7
698.047	58.7
698.372	58.59
698.696	58.58
699.02	58.59
699.345	58.62
699.669	58.81
699.993	58.68
700.318	58.74
700.642	58.7
700.966	58.84
701.29	58.65
701.614	58.55
701.938	58.64
702.262	58.8
702.586	58.79
702.91	58.76
703.234	58.62
703.557	58.46
703.881	58.4
704.205	58.48
704.529	58.4
704.852	58.46
705.176	58.66
705.499	58.72
705.823	58.75
706.146	58.79
706.47	58.57
706.793	58.73
707.117	58.88
707.44	59.04
707.763	58.84
708.086	58.96
708.409	58.99
708.733	59.1
709.056	58.83
709.379	58.89
709.702	59.31
710.025	59.48
710.348	59.66
710.671	59.82
710.993	59.64
711.316	59.7
711.639	59.56
711.962	59.52
712.284	59.62
712.607	59.54
712.93	59.6
713.252	59.83
713.575	59.9
713.897	59.75
714.22	59.75
714.542	59.91
714.864	59.97
715.187	60.11
715.509	60.08
715.831	60.22
716.153	60.14
716.475	60.04
716.798	60.01
717.12	59.85
717.442	59.66
717.764	59.94
718.085	60.02
718.407	60.04
718.729	60.02
719.051	59.78
719.373	59.67
719.695	59.66
720.016	59.52
720.338	59.4
720.659	59.23
720.981	59.24
721.302	59.32
721.624	59.1
721.945	59.01
722.267	58.8
722.588	58.61
722.909	58.63
723.231	58.42
723.552	58.28
723.873	58.25
724.194	58.6
724.515	58.45
724.836	58.44
725.157	58.51
725.478	58.48
725.799	58.53
726.12	58.63
726.441	58.29
726.762	58.04
727.083	58.14
727.403	58.32
727.724	58.19
728.045	58.1
728.365	58.05
728.686	57.95
729.006	58.27
729.327	58.4
729.647	58.44
729.967	58.42
730.288	58.61
730.608	58.59
730.928	58.46
731.249	58.47
731.569	58.35
731.889	58.3
732.209	58.51
732.529	58.66
732.849	58.6
733.169	58.73
733.489	58.89
733.809	58.68
734.129	58.76
734.448	59.07
734.768	58.97
735.088	59.29
735.408	59.52
735.727	59.51
736.047	59.82
736.366	59.74
736.686	59.89
737.005	59.79
737.325	59.74
737.644	59.82
737.963	60.02
738.283	60.16
738.602	60.29
738.921	60.22
739.24	60.16
739.56	60.52
739.879	60.63
740.198	60.6
740.517	60.8
740.836	60.7
741.155	60.34
741.473	60.62
741.792	60.54
742.111	60.29
742.43	60.3
742.748	59.67
743.067	59.88
743.386	60.02
743.704	60.14
744.023	60.39
744.341	60.36
744.66	60.24
744.978	60.37
745.297	60.62
745.615	60.47
745.933	60.41
746.252	60.31
746.57	60.28
746.888	60.27
747.206	60.35
747.524	60.19
747.842	60.46
748.16	60.22
748.478	60.33
748.796	60.45
749.114	60.44
749.432	60.76
749.749	60.69
750.067	60.53
750.385	60.48
750.703	60.26
751.02	60.2
751.338	60.06
751.655	59.91
751.973	59.36
752.29	59.11
752.608	59.22
752.925	59.05
753.242	59.37
753.56	59.47
753.877	59.25
754.194	59.33
754.511	59.15
754.828	59.29
755.145	58.82
755.462	58.82
755.779	58.71
756.096	58.5
756.413	58.53
756.73	58.4
757.047	58.25
757.364	58.22
757.68	58.34
757.997	58.47
758.314	58.43
758.63	59.02
758.947	59.14
759.264	58.87
759.58	58.94
759.896	58.62
760.213	58.74
760.529	59.02
760.846	59.14
761.162	59.33
761.478	59.55
761.794	59.99
762.11	60.01
762.426	59.89
762.743	60.08
763.059	60.01
763.375	59.92
763.69	60.03
764.006	59.96
764.322	59.93
764.638	60
764.954	60.11
765.27	59.65
765.585	59.68
765.901	60.01
766.216	59.82
766.532	59.84
766.848	59.58
767.163	59.57
767.478	59.51
767.794	59.34
768.109	59.07
768.424	58.72
768.74	58.3
769.055	58.22
769.37	58.15
769.685	57.83
770	58.01
770.315	58.01
770.63	58.08
770.945	58.2
771.26	57.85
771.575	57.97
771.89	58.36
772.205	58.42
772.52	58.33
772.834	58.51
773.149	58.5
773.464	58.75
773.778	58.54
774.093	58.6
774.407	58.95
774.722	58.62
775.036	58.93
775.351	59.67
775.665	59.72
775.979	59.82
776.293	59.92
776.608	59.65
776.922	59.45
777.236	59.39
777.55	59.09
777.864	59.45
778.178	59.13
778.492	58.94
778.806	58.97
779.12	58.66
779.434	58.78
779.747	58.95
780.061	58.99
780.375	59.31
780.689	59.32
781.002	58.71
781.316	59.45
781.629	59.26
781.943	59.01
782.256	59.24
782.57	59.22
782.883	59.49
783.196	59.84
783.51	60.13
783.823	60.19
784.136	60.13
784.449	60.2
784.762	60.44
785.075	61.17
785.388	61.06
785.701	61.18
786.014	61.31
786.327	60.79
786.64	60.75
786.953	60.64
787.266	60.45
787.578	61.19
787.891	60.81
788.204	60.87
788.516	60.94
788.829	60.71
789.141	60.4
789.454	60.24
789.766	60.47
790.079	60.29
790.391	60.79
790.703	61.17
791.016	61.06
791.328	60.94
791.64	60.53
791.952	60.26
792.264	60.45
792.576	59.77
792.888	60.95
793.2	60.98
793.512	61.65
793.824	62.09
794.136	61.52
794.448	61.14
794.76	61.15
795.071	61.64
795.383	61.83
795.695	62.15
796.006	62.61
796.318	61.98
796.629	62.07
796.941	62.1
797.252	61.66
797.564	61.25
797.875	61.12
798.186	61.16
798.497	61.62
798.809	61.6
799.12	61.94
799.431	61.05
799.742	60.68
800.053	59.89
800.364	59.48
800.675	59.98
800.986	60.52
801.297	60.6
801.608	60.25
801.918	60.1
802.229	59.67
802.54	59.76
802.851	59.73
803.161	59.22
803.472	59.37
803.782	59.09
804.093	59.51
804.403	59.76
804.714	59.66
805.024	59.31
805.334	59.04
805.645	59.7
805.955	59.97
806.265	60.56
806.575	60.56
806.885	60.83
807.195	60.67
807.505	60.23
807.815	60.38
808.125	59.69
808.435	60.15
808.745	60.18
809.055	60
809.365	59.68
809.674	59.72
809.984	59.67
810.294	60.49
810.603	61.08
810.913	60.96
811.222	61.09
811.532	61.06
811.841	61.13
812.151	60.62
812.46	60.83
812.769	59.97
813.079	59.98
813.388	60.23
813.697	59.64
814.006	60.09
814.315	59.66
814.624	60.75
814.933	60.35
815.242	61.09
815.551	60.48
815.86	61.3
816.169	61.58
816.478	61.46
816.786	61.16
817.095	60.83
817.404	59.98
817.712	59.67
818.021	59.73
818.33	60.02
818.638	59.97
818.947	60.22
819.255	60.97
819.563	61.11
819.872	60.83
820.18	61.23
820.488	60.82
820.796	61.12
821.105	60.96
821.413	61.28
821.721	61.32
822.029	61.6
822.337	61.42
822.645	61.42
822.953	61.39
823.26	61.4
823.568	61.31
823.876	61.39
824.184	61.28
824.491	61.36
824.799	61.32
825.107	61.4
825.414	61.28
825.722	61.2
826.029	61.21
826.337	61.22
826.644	61.32
826.951	61.53
827.259	61.47
827.566	61.25
827.873	60.97
828.18	60.89
828.488	60.86
828.795	61.1
829.102	61.23
829.409	61.2
829.716	61.21
830.023	61.18
830.329	61.23
830.636	61.24
830.943	61.39
831.25	61.45
831.557	61.21
831.863	61.34
832.17	60.91
832.476	60.64
832.783	61.11
833.089	60.36
833.396	60.33
833.702	60.03
834.009	60.35
834.315	60.19
834.621	59.62
834.928	59.47
835.234	59.12
835.54	58.87
835.846	58.87
836.152	59.08
836.458	59.24
836.764	59.32
837.07	59.31
837.376	58.79
837.682	58.45
837.988	58.57
838.293	58.47
838.599	59.24
838.905	59.17
839.211	58.17
839.516	58.34
839.822	57.4
840.127	58.07
840.433	57.98
840.738	58.55
841.044	58.59
841.349	57.63
841.654	57.53
841.959	56.56
842.265	56.47
842.57	56.16
842.875	56.51
843.18	56.32
843.485	57.17
843.79	57.59
844.095	57.07
844.4	56.45
844.705	55.44
845.01	54.96
845.315	54.97
845.619	54.93
845.924	55.56
846.229	56.2
846.533	54.62
846.838	52.81
847.142	51.01
847.447	52.63
847.751	52.03
848.056	52.23
848.36	54.15
848.664	52.56
848.969	53.33
849.273	51.83
849.577	52.57
849.881	51.73
850.185	52.14
850.489	51.9
850.794	51.25
851.097	52.16
851.401	50.7
851.705	50.23
852.009	53.85
852.313	54.48
852.617	54.81
852.92	56.36
853.224	58.4
853.528	61.57
853.831	58.64
854.135	61.79
854.438	61.47
854.742	62.06
855.045	62.99
855.349	63.13
855.652	63.76
855.955	63.86
856.259	64.95
856.562	64.75
856.865	68.56
857.168	70.78
857.471	70.67
857.774	72.41
858.077	71.35
858.38	68.58
858.683	68.2
858.986	69.41
859.289	67.66
859.592	67.66
859.894	67.22
860.197	70.13
860.5	70.62
860.802	71.48
861.105	68.58
861.407	68.84
861.71	65.44
862.012	66.04
862.315	65.14
862.617	64.93
862.919	65.91
863.222	63.64
863.524	60.85
863.826	59.82
864.128	58.31
864.43	59.7
864.732	57.32
865.034	56.23
865.336	56.76
865.638	58.73
865.94	57.38
866.242	56.08
866.544	53.35
866.846	52.37
867.147	52.29
867.449	53.09
867.751	56.58
868.052	59.8
868.354	56.43
868.655	57.18
868.957	55.02
869.258	53.22
869.56	53.23
869.861	53.25
870.162	54.59
870.463	57.91
870.765	56.37
871.066	59.79
871.367	61.19
871.668	58.63
871.969	55.6
872.27	54.85
872.571	53.95
872.872	56.29
873.173	57.21
873.473	56.44
873.774	56.44
874.075	51.64
874.376	49.18
874.676	50.54
874.977	49.35
875.277	52.39
875.578	53.93
875.878	54.2
876.179	55.49
876.479	54.91
876.78	52.17
877.08	53.98
877.38	51.91
877.68	49.58
877.981	50.36
878.281	53.23
878.581	56.79
