Data from BA57965_Reflection_00013.txt Node
Date: Mon Nov 18 15:16:28 EST 2019
User: vgr7
Spectrometer: USB2G7710
Scans to average: 3
Trigger mode: 4
Integration Time (sec): 2.000000E-2
Electric dark correction enabled: true
Boxcar width: 10
XAxis mode: Wavelengths
Number of Pixels in Spectrum: 2048
>>>>>Begin Spectral Data<<<<<
177.721	14.86
178.105	-48.37
178.488	-42.06
178.871	-65.47
179.254	-72.56
179.636	24.45
180.019	-24.53
180.402	84.21
180.785	69.99
181.168	24.2
181.55	154.19
181.933	157.67
182.316	209.93
182.698	447.28
183.081	325.81
183.463	259.24
183.846	36.71
184.228	23.74
184.611	63.98
184.993	46.25
185.376	12.55
185.758	1.45
186.14	-32.12
186.522	-28.07
186.904	-24.88
187.287	-18.44
187.669	-5.92
188.051	-15.11
188.433	-13.08
188.815	2.26
189.197	14.06
189.579	4.63
189.961	13.95
190.342	20.09
190.724	21.08
191.106	4.18
191.488	-2.2
191.869	13.91
192.251	4.27
192.633	-6.99
193.014	-10.27
193.396	-12.11
193.777	3.97
194.159	25.64
194.54	22.47
194.922	33.4
195.303	30.64
195.684	54.38
196.065	58.63
196.447	53.07
196.828	44.69
197.209	30.1
197.59	51.29
197.971	40.28
198.352	46.15
198.733	42.53
199.114	59.46
199.495	57.9
199.876	39.66
200.257	38.56
200.638	49.42
201.018	60.82
201.399	56.34
201.78	49.4
202.16	39.18
202.541	34.83
202.922	27.84
203.302	23.02
203.683	10.39
204.063	2.78
204.444	13.78
204.824	27.69
205.204	19.69
205.585	15.42
205.965	17.4
206.345	9.09
206.725	8.12
207.106	-20.98
207.486	-27.94
207.866	-15.06
208.246	10.59
208.626	6.43
209.006	9.09
209.386	6.28
209.766	7.13
210.145	5.57
210.525	15.45
210.905	20.49
211.285	25.61
211.664	30.32
212.044	32.88
212.424	27.64
212.803	19.72
213.183	31.12
213.562	35.12
213.942	37.44
214.321	30.6
214.701	27.67
215.08	31.11
215.459	37.91
215.838	41.42
216.218	32.01
216.597	30.97
216.976	35.28
217.355	34.5
217.734	34.55
218.113	33.27
218.492	39.62
218.871	32.99
219.25	43.11
219.629	35.36
220.008	28.04
220.387	26.84
220.766	32.95
221.144	20.17
221.523	18.36
221.902	11.29
222.28	5.03
222.659	7.73
223.037	10.69
223.416	8.12
223.794	-3.19
224.173	-0.48
224.551	-3.33
224.929	-5.08
225.308	0.34
225.686	4.9
226.064	13.07
226.442	10.37
226.821	15.25
227.199	7.91
227.577	10.65
227.955	12.46
228.333	14.48
228.711	16
229.089	16.4
229.467	13.58
229.845	13.07
230.222	15.74
230.6	13.15
230.978	11.84
231.356	9.25
231.733	9.01
232.111	9.67
232.488	10.99
232.866	9.25
233.243	9.3
233.621	7.98
233.998	8
234.376	7.68
234.753	6.89
235.13	6.87
235.508	6.64
235.885	6.55
236.262	4.45
236.639	2.38
237.016	2.64
237.393	4.06
237.77	4.64
238.147	3.82
238.524	4.24
238.901	5.02
239.278	6.07
239.655	7.13
240.032	6.67
240.409	6.85
240.785	7.1
241.162	7.08
241.539	7.19
241.915	6.49
242.292	5.74
242.668	5.64
243.045	6.23
243.421	6.38
243.798	6.12
244.174	6.22
244.551	6.11
244.927	6.08
245.303	5.96
245.679	6.02
246.056	6.15
246.432	6.03
246.808	6
247.184	5.79
247.56	5.61
247.936	5.69
248.312	5.44
248.688	5.31
249.064	5.16
249.44	4.96
249.815	4.83
250.191	5.2
250.567	5.31
250.943	5.07
251.318	5.02
251.694	5.09
252.069	5.08
252.445	5.47
252.82	5.32
253.196	5.05
253.571	4.69
253.947	4.69
254.322	4.98
254.697	4.67
255.073	4.75
255.448	4.83
255.823	4.62
256.198	4.73
256.573	4.92
256.948	5.05
257.323	5.21
257.698	5.23
258.073	4.94
258.448	4.81
258.823	4.7
259.198	4.52
259.573	4.52
259.948	4.59
260.322	4.5
260.697	4.43
261.072	4.51
261.446	4.7
261.821	4.63
262.195	4.58
262.57	4.61
262.944	4.52
263.319	4.52
263.693	4.48
264.067	4.46
264.442	4.39
264.816	4.28
265.19	3.97
265.564	4.07
265.938	4.06
266.313	4.08
266.687	4.02
267.061	4.27
267.435	4.14
267.809	4.03
268.183	3.94
268.556	3.91
268.93	3.93
269.304	3.95
269.678	4.26
270.051	4.31
270.425	4.31
270.799	4.31
271.172	4.26
271.546	4.29
271.919	4.16
272.293	4.15
272.666	4.2
273.04	4.4
273.413	4.4
273.787	4.4
274.16	4.3
274.533	4.35
274.906	4.18
275.279	4.42
275.653	4.42
276.026	4.42
276.399	4.68
276.772	4.88
277.145	4.87
277.518	4.77
277.891	4.84
278.263	4.74
278.636	4.71
279.009	4.65
279.382	4.81
279.755	4.95
280.127	5.04
280.5	5.06
280.872	4.94
281.245	4.81
281.617	5.12
281.99	5.19
282.362	5.26
282.735	5.16
283.107	4.97
283.479	5.08
283.852	4.98
284.224	5.02
284.596	4.97
284.968	5.05
285.34	4.9
285.713	4.79
286.085	4.94
286.457	5.17
286.829	5.28
287.201	5.21
287.572	5.24
287.944	5.23
288.316	5.25
288.688	5.35
289.06	5.36
289.431	5.23
289.803	5.32
290.175	5.34
290.546	5.61
290.918	5.8
291.289	5.79
291.661	5.91
292.032	5.87
292.403	5.76
292.775	5.7
293.146	5.7
293.517	5.92
293.889	5.97
294.26	5.86
294.631	5.86
295.002	5.95
295.373	6.01
295.744	6.1
296.115	6.15
296.486	6.06
296.857	6.3
297.228	6.41
297.599	6.34
297.97	6.37
298.34	6.28
298.711	6.36
299.082	6.37
299.452	6.47
299.823	6.63
300.194	6.78
300.564	6.82
300.935	7.05
301.305	7.05
301.676	7.09
302.046	7.18
302.416	7.27
302.787	7.43
303.157	7.54
303.527	7.5
303.897	7.61
304.267	7.9
304.637	7.95
305.008	8.08
305.378	8.24
305.748	8.49
306.117	8.63
306.487	8.7
306.857	8.9
307.227	9.08
307.597	9.05
307.967	9.17
308.336	9.21
308.706	9.25
309.076	9.27
309.445	9.36
309.815	9.39
310.184	9.47
310.554	9.4
310.923	9.41
311.293	9.53
311.662	9.55
312.031	9.68
312.401	9.68
312.77	9.69
313.139	9.79
313.508	9.67
313.877	9.66
314.246	9.65
314.616	9.63
314.985	9.62
315.353	9.74
315.722	9.79
316.091	9.95
316.46	10
316.829	10.11
317.198	10.12
317.567	10.19
317.935	10.34
318.304	10.72
318.672	10.88
319.041	11.07
319.41	11.31
319.778	11.38
320.147	11.56
320.515	11.73
320.883	11.74
321.252	12
321.62	12.26
321.988	12.34
322.357	12.56
322.725	12.56
323.093	12.6
323.461	12.73
323.829	12.74
324.197	12.87
324.565	12.93
324.933	13.13
325.301	13.41
325.669	13.56
326.037	13.48
326.405	13.46
326.772	13.6
327.14	13.75
327.508	13.81
327.875	13.74
328.243	13.87
328.61	14.06
328.978	14.12
329.346	14.15
329.713	14.19
330.08	14.2
330.448	14.31
330.815	14.3
331.182	14.31
331.55	14.41
331.917	14.54
332.284	14.69
332.651	14.77
333.018	14.73
333.385	14.68
333.752	14.8
334.119	14.91
334.486	14.85
334.853	14.79
335.22	14.79
335.587	14.89
335.954	14.83
336.32	14.85
336.687	14.94
337.054	14.98
337.42	15.09
337.787	15.19
338.153	15.2
338.52	15.38
338.886	15.42
339.253	15.48
339.619	15.52
339.986	15.49
340.352	15.46
340.718	15.4
341.084	15.39
341.451	15.39
341.817	15.43
342.183	15.45
342.549	15.42
342.915	15.54
343.281	15.6
343.647	15.68
344.013	15.79
344.379	15.74
344.745	15.78
345.11	15.83
345.476	15.82
345.842	15.9
346.208	15.87
346.573	15.89
346.939	15.97
347.304	15.88
347.67	15.88
348.035	15.89
348.401	15.95
348.766	15.9
349.132	15.85
349.497	15.89
349.862	16.02
350.228	16
350.593	15.88
350.958	15.94
351.323	15.93
351.688	15.8
352.053	15.8
352.418	15.78
352.783	15.74
353.148	15.78
353.513	15.73
353.878	15.68
354.243	15.76
354.608	15.75
354.972	15.75
355.337	15.74
355.702	15.73
356.066	15.8
356.431	15.72
356.795	15.73
357.16	15.63
357.524	15.44
357.889	15.41
358.253	15.37
358.618	15.29
358.982	15.16
359.346	15.03
359.71	14.88
360.075	14.82
360.439	14.75
360.803	14.57
361.167	14.52
361.531	14.47
361.895	14.35
362.259	14.2
362.623	14.12
362.987	14.01
363.351	13.95
363.714	13.83
364.078	13.79
364.442	13.71
364.806	13.64
365.169	13.61
365.533	13.53
365.896	13.47
366.26	13.42
366.623	13.36
366.987	13.31
367.35	13.33
367.714	13.27
368.077	13.17
368.44	13.14
368.803	13.06
369.167	13.01
369.53	12.83
369.893	12.83
370.256	12.74
370.619	12.67
370.982	12.6
371.345	12.5
371.708	12.39
372.071	12.22
372.434	12.11
372.797	12
373.159	11.89
373.522	11.77
373.885	11.68
374.247	11.56
374.61	11.5
374.973	11.39
375.335	11.25
375.698	11.19
376.06	11.07
376.423	10.97
376.785	10.85
377.147	10.85
377.51	10.71
377.872	10.64
378.234	10.54
378.596	10.45
378.958	10.35
379.321	10.32
379.683	10.31
380.045	10.25
380.407	10.13
380.769	10.05
381.13	9.97
381.492	9.82
381.854	9.81
382.216	9.7
382.578	9.6
382.939	9.56
383.301	9.48
383.663	9.41
384.024	9.35
384.386	9.32
384.747	9.27
385.109	9.24
385.47	9.15
385.832	9.08
386.193	8.99
386.554	8.89
386.916	8.81
387.277	8.73
387.638	8.68
387.999	8.66
388.36	8.56
388.721	8.5
389.082	8.49
389.443	8.38
389.804	8.3
390.165	8.24
390.526	8.16
390.887	8.06
391.248	8.02
391.609	7.94
391.969	7.83
392.33	7.75
392.691	7.68
393.051	7.59
393.412	7.57
393.772	7.48
394.133	7.4
394.493	7.34
394.854	7.27
395.214	7.19
395.574	7.1
395.935	7.08
396.295	7.02
396.655	6.94
397.015	6.87
397.376	6.81
397.736	6.72
398.096	6.64
398.456	6.59
398.816	6.56
399.176	6.46
399.535	6.43
399.895	6.39
400.255	6.34
400.615	6.36
400.975	6.28
401.334	6.26
401.694	6.22
402.054	6.17
402.413	6.09
402.773	6.01
403.132	5.99
403.492	5.95
403.851	5.9
404.211	5.86
404.57	5.82
404.929	5.82
405.288	5.79
405.648	5.74
406.007	5.72
406.366	5.68
406.725	5.75
407.084	5.69
407.443	5.66
407.802	5.61
408.161	5.53
408.52	5.5
408.879	5.47
409.238	5.47
409.596	5.44
409.955	5.44
410.314	5.44
410.673	5.39
411.031	5.35
411.39	5.35
411.748	5.33
412.107	5.31
412.465	5.25
412.824	5.24
413.182	5.21
413.54	5.17
413.899	5.13
414.257	5.04
414.615	5
414.974	4.96
415.332	4.94
415.69	4.91
416.048	4.86
416.406	4.83
416.764	4.78
417.122	4.74
417.48	4.69
417.838	4.68
418.195	4.67
418.553	4.62
418.911	4.58
419.269	4.55
419.626	4.52
419.984	4.49
420.342	4.48
420.699	4.46
421.057	4.44
421.414	4.4
421.772	4.39
422.129	4.39
422.486	4.37
422.844	4.37
423.201	4.34
423.558	4.33
423.915	4.33
424.273	4.32
424.63	4.31
424.987	4.31
425.344	4.28
425.701	4.26
426.058	4.26
426.415	4.26
426.772	4.23
427.128	4.23
427.485	4.24
427.842	4.22
428.199	4.22
428.555	4.22
428.912	4.23
429.269	4.22
429.625	4.19
429.982	4.17
430.338	4.14
430.695	4.16
431.051	4.15
431.407	4.13
431.764	4.12
432.12	4.11
432.476	4.12
432.832	4.1
433.189	4.1
433.545	4.07
433.901	4.08
434.257	4.1
434.613	4.09
434.969	4.09
435.325	4.1
435.681	4.09
436.036	4.08
436.392	4.06
436.748	4.07
437.104	4.07
437.459	4.05
437.815	4.05
438.171	4.04
438.526	4.05
438.882	4.05
439.237	4.02
439.593	4.03
439.948	4.02
440.304	4.02
440.659	4
441.014	4.02
441.369	4
441.725	3.99
442.08	3.97
442.435	3.95
442.79	3.93
443.145	3.91
443.5	3.91
443.855	3.91
444.21	3.89
444.565	3.87
444.92	3.88
445.275	3.86
445.629	3.84
445.984	3.79
446.339	3.77
446.693	3.78
447.048	3.76
447.403	3.74
447.757	3.74
448.112	3.72
448.466	3.71
448.82	3.7
449.175	3.68
449.529	3.66
449.883	3.66
450.238	3.65
450.592	3.65
450.946	3.62
451.3	3.61
451.654	3.6
452.008	3.58
452.362	3.58
452.716	3.57
453.07	3.58
453.424	3.6
453.778	3.6
454.132	3.59
454.486	3.6
454.839	3.61
455.193	3.59
455.547	3.59
455.9	3.6
456.254	3.62
456.607	3.63
456.961	3.64
457.314	3.63
457.668	3.64
458.021	3.65
458.375	3.67
458.728	3.68
459.081	3.68
459.434	3.68
459.787	3.68
460.141	3.68
460.494	3.69
460.847	3.72
461.2	3.72
461.553	3.74
461.906	3.74
462.259	3.75
462.611	3.76
462.964	3.78
463.317	3.78
463.67	3.79
464.022	3.81
464.375	3.81
464.728	3.84
465.08	3.86
465.433	3.89
465.785	3.9
466.138	3.91
466.49	3.94
466.843	3.97
467.195	3.98
467.547	4
467.899	4
468.252	3.99
468.604	4
468.956	4.02
469.308	4.02
469.66	4.04
470.012	4.07
470.364	4.07
470.716	4.08
471.068	4.08
471.42	4.07
471.772	4.1
472.123	4.11
472.475	4.1
472.827	4.09
473.178	4.11
473.53	4.09
473.882	4.08
474.233	4.09
474.585	4.07
474.936	4.06
475.288	4.06
475.639	4.07
475.99	4.07
476.342	4.06
476.693	4.04
477.044	4.04
477.395	4.01
477.746	4.01
478.097	4
478.448	3.99
478.8	3.98
479.15	3.95
479.501	3.94
479.852	3.94
480.203	3.94
480.554	3.94
480.905	3.95
481.255	3.94
481.606	3.93
481.957	3.94
482.307	3.94
482.658	3.94
483.009	3.93
483.359	3.93
483.709	3.95
484.06	3.96
484.41	3.96
484.761	3.96
485.111	3.96
485.461	3.97
485.811	3.98
486.162	3.99
486.512	4.01
486.862	4.02
487.212	4.04
487.562	4.05
487.912	4.05
488.262	4.06
488.612	4.08
488.961	4.09
489.311	4.11
489.661	4.12
490.011	4.14
490.36	4.16
490.71	4.18
491.06	4.19
491.409	4.2
491.759	4.22
492.108	4.25
492.458	4.29
492.807	4.3
493.157	4.32
493.506	4.35
493.855	4.37
494.204	4.39
494.554	4.41
494.903	4.44
495.252	4.47
495.601	4.51
495.95	4.56
496.299	4.59
496.648	4.63
496.997	4.68
497.346	4.75
497.695	4.8
498.043	4.85
498.392	4.9
498.741	4.98
499.09	5.02
499.438	5.08
499.787	5.12
500.135	5.2
500.484	5.27
500.832	5.33
501.181	5.39
501.529	5.46
501.878	5.53
502.226	5.62
502.574	5.7
502.923	5.77
503.271	5.84
503.619	5.92
503.967	5.99
504.315	6.07
504.663	6.14
505.011	6.23
505.359	6.31
505.707	6.41
506.055	6.48
506.403	6.58
506.751	6.69
507.098	6.82
507.446	6.91
507.794	7.02
508.141	7.14
508.489	7.25
508.837	7.36
509.184	7.47
509.531	7.57
509.879	7.7
510.226	7.84
510.574	7.96
510.921	8.1
511.268	8.21
511.616	8.35
511.963	8.48
512.31	8.62
512.657	8.77
513.004	8.92
513.351	9.1
513.698	9.24
514.045	9.41
514.392	9.55
514.739	9.7
515.086	9.87
515.432	10.04
515.779	10.2
516.126	10.37
516.473	10.53
516.819	10.71
517.166	10.87
517.512	11
517.859	11.15
518.205	11.3
518.552	11.46
518.898	11.61
519.245	11.78
519.591	11.92
519.937	12.07
520.283	12.26
520.629	12.45
520.976	12.67
521.322	12.86
521.668	13.06
522.014	13.3
522.36	13.54
522.706	13.76
523.052	14
523.398	14.31
523.743	14.6
524.089	14.92
524.435	15.21
524.781	15.49
525.126	15.77
525.472	16.02
525.817	16.24
526.163	16.43
526.509	16.63
526.854	16.81
527.199	17
527.545	17.17
527.89	17.35
528.235	17.51
528.581	17.69
528.926	17.88
529.271	18.07
529.616	18.26
529.961	18.48
530.306	18.72
530.651	18.93
530.996	19.16
531.341	19.37
531.686	19.59
532.031	19.84
532.376	20.07
532.721	20.34
533.065	20.62
533.41	20.9
533.755	21.17
534.099	21.47
534.444	21.76
534.788	22.05
535.133	22.32
535.477	22.64
535.822	22.98
536.166	23.3
536.51	23.65
536.855	24
537.199	24.34
537.543	24.7
537.887	25.1
538.231	25.5
538.576	25.92
538.92	26.34
539.264	26.69
539.608	27.05
539.951	27.35
540.295	27.66
540.639	27.97
540.983	28.27
541.327	28.57
541.671	28.86
542.014	29.15
542.358	29.42
542.701	29.69
543.045	29.94
543.389	30.24
543.732	30.51
544.075	30.79
544.419	31.08
544.762	31.35
545.105	31.66
545.449	31.96
545.792	32.22
546.135	32.53
546.478	32.87
546.821	33.18
547.165	33.53
547.508	33.89
547.851	34.26
548.194	34.65
548.536	35
548.879	35.35
549.222	35.66
549.565	36.03
549.908	36.37
550.25	36.68
550.593	37.01
550.936	37.32
551.278	37.69
551.621	38.03
551.963	38.35
552.306	38.65
552.648	38.92
552.991	39.26
553.333	39.57
553.675	39.87
554.017	40.14
554.36	40.42
554.702	40.65
555.044	40.87
555.386	41.11
555.728	41.37
556.07	41.63
556.412	41.89
556.754	42.15
557.096	42.41
557.438	42.7
557.78	42.93
558.121	43.23
558.463	43.48
558.805	43.77
559.147	44.04
559.488	44.26
559.83	44.51
560.171	44.72
560.513	44.84
560.854	45.11
561.196	45.47
561.537	45.67
561.878	45.97
562.22	46.14
562.561	46.38
562.902	46.58
563.243	46.75
563.584	47
563.925	47.18
564.266	47.33
564.607	47.52
564.948	47.71
565.289	47.82
565.63	48
565.971	48.12
566.312	48.28
566.653	48.47
566.993	48.62
567.334	48.82
567.675	49.06
568.015	49.17
568.356	49.27
568.696	49.46
569.037	49.54
569.377	49.78
569.718	49.95
570.058	50.14
570.398	50.32
570.739	50.42
571.079	50.57
571.419	50.72
571.759	50.84
572.099	50.98
572.439	51.16
572.779	51.24
573.119	51.38
573.459	51.51
573.799	51.62
574.139	51.7
574.479	51.8
574.819	51.92
575.158	52.02
575.498	52.12
575.838	52.23
576.177	52.33
576.517	52.37
576.856	52.47
577.196	52.53
577.535	52.62
577.875	52.72
578.214	52.77
578.553	52.84
578.893	52.93
579.232	53.03
579.571	53.08
579.91	53.13
580.25	53.2
580.589	53.25
580.928	53.38
581.267	53.5
581.606	53.52
581.945	53.59
582.283	53.67
582.622	53.67
582.961	53.78
583.3	53.91
583.639	54.02
583.977	54.08
584.316	54.1
584.654	54.21
584.993	54.31
585.332	54.46
585.67	54.6
586.008	54.65
586.347	54.71
586.685	54.8
587.024	54.97
587.362	55.1
587.7	55.2
588.038	55.21
588.376	55.26
588.715	55.33
589.053	55.38
589.391	55.46
589.729	55.51
590.067	55.51
590.404	55.58
590.742	55.64
591.08	55.67
591.418	55.73
591.756	55.77
592.093	55.82
592.431	55.83
592.769	55.87
593.106	55.99
593.444	55.98
593.781	56.04
594.119	56.09
594.456	56.04
594.793	56.15
595.131	56.22
595.468	56.27
595.805	56.4
596.143	56.43
596.48	56.45
596.817	56.57
597.154	56.6
597.491	56.62
597.828	56.64
598.165	56.7
598.502	56.83
598.839	56.87
599.176	56.96
599.512	56.93
599.849	56.97
600.186	57.01
600.523	57.19
600.859	57.27
601.196	57.27
601.532	57.39
601.869	57.36
602.205	57.42
602.542	57.43
602.878	57.42
603.215	57.48
603.551	57.52
603.887	57.56
604.223	57.64
604.56	57.69
604.896	57.76
605.232	57.81
605.568	57.77
605.904	57.76
606.24	57.78
606.576	57.9
606.912	57.96
607.248	57.98
607.583	57.97
607.919	57.99
608.255	58.06
608.591	58.11
608.926	58.24
609.262	58.23
609.597	58.33
609.933	58.32
610.268	58.37
610.604	58.39
610.939	58.38
611.275	58.34
611.61	58.38
611.945	58.41
612.281	58.42
612.616	58.53
612.951	58.7
613.286	58.73
613.621	58.8
613.956	58.84
614.291	58.91
614.626	58.87
614.961	58.85
615.296	58.92
615.631	58.95
615.966	58.85
616.3	58.86
616.635	58.86
616.97	58.86
617.304	58.84
617.639	58.89
617.973	58.87
618.308	58.98
618.642	59.01
618.977	59
619.311	59.04
619.646	59.03
619.98	59.04
620.314	59.09
620.648	59.07
620.983	59.11
621.317	59.13
621.651	59.3
621.985	59.34
622.319	59.37
622.653	59.33
622.987	59.38
623.321	59.45
623.655	59.44
623.988	59.46
624.322	59.49
624.656	59.6
624.99	59.65
625.323	59.63
625.657	59.7
625.99	59.78
626.324	59.79
626.657	59.83
626.991	59.72
627.324	59.74
627.658	59.81
627.991	59.79
628.324	59.75
628.657	59.72
628.991	59.71
629.324	59.72
629.657	59.76
629.99	59.82
630.323	59.93
630.656	59.96
630.989	60.08
631.322	60.15
631.655	60.15
631.987	60.25
632.32	60.34
632.653	60.26
632.986	60.2
633.318	60.22
633.651	60.22
633.984	60.24
634.316	60.18
634.649	60.12
634.981	60.15
635.313	60.21
635.646	60.14
635.978	60.15
636.31	60.21
636.643	60.18
636.975	60.12
637.307	59.99
637.639	59.95
637.971	60.03
638.303	59.93
638.635	59.81
638.967	59.75
639.299	59.83
639.631	59.83
639.963	59.9
640.295	59.91
640.626	59.91
640.958	60.06
641.29	60.1
641.621	60.11
641.953	60.13
642.285	60.22
642.616	60.37
642.948	60.46
643.279	60.46
643.61	60.51
643.942	60.51
644.273	60.54
644.604	60.64
644.936	60.46
645.267	60.66
645.598	60.8
645.929	60.89
646.26	60.83
646.591	60.84
646.922	60.84
647.253	60.84
647.584	60.88
647.915	60.69
648.245	60.8
648.576	60.9
648.907	60.94
649.238	60.81
649.568	60.75
649.899	60.7
650.229	60.66
650.56	60.76
650.89	60.82
651.221	60.85
651.551	60.89
651.882	60.96
652.212	60.77
652.542	60.77
652.872	60.59
653.203	60.6
653.533	60.58
653.863	60.6
654.193	60.63
654.523	60.58
654.853	60.8
655.183	60.74
655.513	60.82
655.843	60.85
656.172	60.93
656.502	61.03
656.832	61.06
657.162	61.11
657.491	60.97
657.821	60.94
658.15	60.93
658.48	60.91
658.809	60.85
659.139	60.91
659.468	60.95
659.798	61.09
660.127	61.1
660.456	61.19
660.785	61.13
661.115	61.09
661.444	61.18
661.773	61.08
662.102	61.05
662.431	60.96
662.76	60.98
663.089	61
663.418	60.89
663.747	60.81
664.076	60.7
664.404	60.75
664.733	60.89
665.062	60.96
665.39	61.13
665.719	61.19
666.048	61.35
666.376	61.27
666.705	61.24
667.033	61.18
667.362	61.23
667.69	61.3
668.018	61.49
668.347	61.54
668.675	61.68
669.003	61.83
669.331	61.84
669.659	61.72
669.987	61.62
670.315	61.69
670.643	61.67
670.971	61.73
671.299	61.83
671.627	61.69
671.955	61.73
672.283	61.59
672.61	61.54
672.938	61.44
673.266	61.42
673.593	61.38
673.921	61.44
674.249	61.37
674.576	61.37
674.904	61.28
675.231	61.23
675.558	61.19
675.886	61.03
676.213	61.12
676.54	61.29
676.867	61.39
677.195	61.43
677.522	61.6
677.849	61.7
678.176	61.66
678.503	61.71
678.83	61.62
679.157	61.47
679.484	61.51
679.81	61.58
680.137	61.64
680.464	61.69
680.791	61.71
681.117	61.71
681.444	61.66
681.771	61.67
682.097	61.67
682.424	61.57
682.75	61.56
683.077	61.51
683.403	61.41
683.729	61.47
684.056	61.44
684.382	61.35
684.708	61.24
685.034	61.25
685.36	61.3
685.686	61.3
686.012	61.48
686.339	61.53
686.664	61.65
686.99	61.68
687.316	61.68
687.642	61.64
687.968	61.5
688.294	61.59
688.619	61.66
688.945	61.52
689.271	61.49
689.596	61.49
689.922	61.53
690.247	61.59
690.573	61.61
690.898	61.66
691.224	61.71
691.549	61.8
691.874	61.78
692.2	61.76
692.525	61.92
692.85	62.02
693.175	62.2
693.5	61.98
693.825	62.05
694.15	62.01
694.475	62.11
694.8	62.43
695.125	62.32
695.45	62.25
695.775	62.36
696.099	62.46
696.424	62.67
696.749	62.6
697.073	62.55
697.398	62.46
697.723	62.44
698.047	62.56
698.372	62.46
698.696	62.47
699.02	62.65
699.345	62.49
699.669	62.53
699.993	62.4
700.318	62.37
700.642	62.3
700.966	62.27
701.29	62.22
701.614	62.12
701.938	62.19
702.262	62.32
702.586	62.45
702.91	62.57
703.234	62.51
703.557	62.58
703.881	62.59
704.205	62.55
704.529	62.44
704.852	62.16
705.176	62.21
705.499	62.15
705.823	61.88
706.146	62.14
706.47	62.07
706.793	62.01
707.117	62.16
707.44	62.26
707.763	62.51
708.086	62.53
708.409	62.46
708.733	62.62
709.056	62.38
709.379	62.23
709.702	62.11
710.025	62.16
710.348	61.99
710.671	62.07
710.993	61.94
711.316	61.96
711.639	62.05
711.962	62.08
712.284	62.44
712.607	62.41
712.93	62.31
713.252	62.33
713.575	62.49
713.897	62.44
714.22	62.45
714.542	62.39
714.864	62.21
715.187	62.17
715.509	62.04
715.831	62.25
716.153	62.38
716.475	62.35
716.798	62.31
717.12	62.35
717.442	62.42
717.764	62.69
718.085	62.82
718.407	62.88
718.729	62.89
719.051	62.49
719.373	62.55
719.695	62.36
720.016	62.51
720.338	62.49
720.659	62.24
720.981	62.29
721.302	62.11
721.624	62.22
721.945	62.15
722.267	62.07
722.588	61.87
722.909	61.75
723.231	61.96
723.552	61.91
723.873	61.98
724.194	62.09
724.515	62.3
724.836	62.21
725.157	62.43
725.478	62.39
725.799	62.61
726.12	62.48
726.441	62.42
726.762	62.34
727.083	62.31
727.403	62.47
727.724	62.48
728.045	62.64
728.365	62.63
728.686	62.76
729.006	62.86
729.327	62.96
729.647	62.9
729.967	62.71
730.288	62.67
730.608	62.59
730.928	62.5
731.249	62.19
731.569	62.19
731.889	61.91
732.209	62.01
732.529	61.98
732.849	62.12
733.169	62.2
733.489	62
733.809	61.89
734.129	62.2
734.448	62.09
734.768	62.05
735.088	62.39
735.408	62.36
735.727	62.41
736.047	62.62
736.366	62.67
736.686	62.61
737.005	62.68
737.325	62.79
737.644	62.73
737.963	63.04
738.283	63.05
738.602	63.27
738.921	63.36
739.24	63.22
739.56	63.2
739.879	63.27
740.198	63.44
740.517	63.53
740.836	63.26
741.155	63.09
741.473	63.11
741.792	62.85
742.111	62.99
742.43	63.09
742.748	62.84
743.067	62.96
743.386	63.07
743.704	63.34
744.023	63.28
744.341	63.52
744.66	63.14
744.978	63.31
745.297	63.42
745.615	63.23
745.933	63.45
746.252	63.58
746.57	63.71
746.888	63.94
747.206	63.88
747.524	63.81
747.842	64.26
748.16	64.21
748.478	64.27
748.796	64.31
749.114	64.55
749.432	64.47
749.749	64.21
750.067	64.48
750.385	63.92
750.703	63.97
751.02	63.81
751.338	63.75
751.655	63.66
751.973	63.44
752.29	63.5
752.608	63.26
752.925	62.97
753.242	62.91
753.56	62.68
753.877	62.55
754.194	62.39
754.511	62.18
754.828	62.14
755.145	61.49
755.462	61.54
755.779	61.29
756.096	61.16
756.413	61.58
756.73	61.53
757.047	61.86
757.364	61.87
757.68	61.94
757.997	62.3
758.314	62.11
758.63	62.23
758.947	62.28
759.264	62.39
759.58	62.36
759.896	62.42
760.213	62.34
760.529	62.78
760.846	62.84
761.162	62.98
761.478	63.09
761.794	63.85
762.11	63.72
762.426	63.59
762.743	63.86
763.059	63.72
763.375	63.55
763.69	63.5
764.006	63.49
764.322	63.34
764.638	63.24
764.954	63.26
765.27	62.98
765.585	62.97
765.901	62.98
766.216	62.88
766.532	62.8
766.848	62.87
767.163	62.43
767.478	62.64
767.794	62.34
768.109	62.16
768.424	62.01
768.74	61.79
769.055	61.85
769.37	61.54
769.685	61.31
770	61.55
770.315	61.87
770.63	61.98
770.945	62.1
771.26	61.95
771.575	62.16
771.89	62.8
772.205	62.71
772.52	62.83
772.834	63.04
773.149	62.81
773.464	62.7
773.778	62.95
774.093	62.8
774.407	63.02
774.722	63.35
775.036	63.36
775.351	64.25
775.665	64.16
775.979	64.21
776.293	64.55
776.608	63.63
776.922	63.29
777.236	63.37
777.55	63.37
777.864	64.05
778.178	64.02
778.492	63.43
778.806	63.46
779.12	63.27
779.434	63.65
779.747	63.91
780.061	64.06
780.375	64.6
780.689	64.48
781.002	64.8
781.316	64.7
781.629	64.5
781.943	64.05
782.256	64.25
782.57	64.73
782.883	64.51
783.196	65.29
783.51	65.3
783.823	64.86
784.136	64.53
784.449	63.73
784.762	63.56
785.075	63.9
785.388	64.12
785.701	64.43
786.014	64.2
786.327	64.44
786.64	64.68
786.953	64.15
787.266	64.35
787.578	64.37
787.891	64.75
788.204	64.6
788.516	64.42
788.829	64.36
789.141	64.15
789.454	64.1
789.766	64.24
790.079	64.05
790.391	64.42
790.703	64.68
791.016	65.19
791.328	65.91
791.64	66.43
791.952	66.21
792.264	65.93
792.576	65.83
792.888	66.02
793.2	65.95
793.512	66.04
793.824	66.13
794.136	65.1
794.448	64.33
794.76	64.63
795.071	64.91
795.383	64.72
795.695	64.41
796.006	64.67
796.318	64.29
796.629	64.54
796.941	64.41
797.252	64.58
797.564	64.33
797.875	63.93
798.186	63.57
798.497	63.79
798.809	64.2
799.12	64.24
799.431	64.23
799.742	63.67
800.053	63.8
800.364	63.74
800.675	64.67
800.986	64.45
801.297	64.88
801.608	64.91
801.918	65.1
802.229	65.42
802.54	65
802.851	65.25
803.161	65.36
803.472	65.42
803.782	65.83
804.093	65.88
804.403	66.19
804.714	65.85
805.024	65.6
805.334	65.21
805.645	66.16
805.955	65.73
806.265	66.35
806.575	66.1
806.885	66.36
807.195	66.11
807.505	66.7
807.815	65.22
808.125	64.87
808.435	64.92
808.745	64.63
809.055	64.78
809.365	64.96
809.674	64.95
809.984	64.5
810.294	64.26
810.603	64.46
810.913	64.13
811.222	64.7
811.532	65.03
811.841	64.51
812.151	63.72
812.46	63.89
812.769	64.11
813.079	63.46
813.388	63.5
813.697	63.37
814.006	63.56
814.315	64.78
814.624	64.75
814.933	64.1
815.242	64.12
815.551	64.91
815.86	64.93
816.169	65.24
816.478	66.16
816.786	65.64
817.095	64.96
817.404	64.28
817.712	63.4
818.021	63.07
818.33	63.83
818.638	63.89
818.947	64.1
819.255	64.01
819.563	64.26
819.872	64.05
820.18	64.2
820.488	64.14
820.796	64.3
821.105	64.42
821.413	64.78
821.721	64.94
822.029	64.69
822.337	64.6
822.645	64.46
822.953	64.24
823.26	64.12
823.568	64.41
823.876	64.41
824.184	64.48
824.491	64.68
824.799	64.56
825.107	64.51
825.414	64.47
825.722	64.33
826.029	64.39
826.337	64.54
826.644	64.57
826.951	64.65
827.259	64.33
827.566	64.25
827.873	63.92
828.18	63.86
828.488	63.79
828.795	63.56
829.102	63.68
829.409	63.72
829.716	63.88
830.023	63.64
830.329	63.78
830.636	63.83
830.943	63.44
831.25	63.49
831.557	63.2
831.863	63.42
832.17	63.64
832.476	63.69
832.783	63.65
833.089	63.35
833.396	62.77
833.702	63.28
834.009	63.4
834.315	63.67
834.621	63.53
834.928	64.01
835.234	64.44
835.54	63.97
835.846	64.19
836.152	64.52
836.458	64.56
836.764	64.67
837.07	64.65
837.376	64.47
837.682	64.2
837.988	64.53
838.293	64.06
838.599	64.05
838.905	63.81
839.211	63.46
839.516	64.01
839.822	64.77
840.127	64.79
840.433	65.07
840.738	65.21
841.044	65.17
841.349	63.87
841.654	64.11
841.959	64.61
842.265	63.85
842.57	64.15
842.875	63.51
843.18	63.21
843.485	63.41
843.79	63.5
844.095	64.65
844.4	65.13
844.705	65
845.01	65.16
845.315	66.48
845.619	66.02
845.924	65.72
846.229	63.88
846.533	62.79
846.838	62.92
847.142	62.73
847.447	62.14
847.751	63.65
848.056	62.98
848.36	64.8
848.664	64.66
848.969	63.66
849.273	63.9
849.577	63.46
849.881	62.11
850.185	63.41
850.489	63.99
850.794	63.08
851.097	64.69
851.401	63.52
851.705	61.29
852.009	62.87
852.313	64.3
852.617	67.23
852.92	68.56
853.224	67.43
853.528	68.28
853.831	69.34
854.135	70.12
854.438	70.55
854.742	69.13
855.045	68.52
855.349	67.45
855.652	67.58
855.955	68.54
856.259	69.05
856.562	68.01
856.865	67.65
857.168	67.38
857.471	65.84
857.774	66.45
858.077	66.65
858.38	66.75
858.683	64.57
858.986	63.25
859.289	62.26
859.592	61.58
859.894	60.05
860.197	60.36
860.5	60.17
860.802	59.77
861.105	58.17
861.407	60.42
861.71	59.7
862.012	59.96
862.315	58.84
862.617	60.8
862.919	61.92
863.222	60.56
863.524	62.42
863.826	61.88
864.128	62.67
864.43	65.33
864.732	65.06
865.034	66
865.336	66.37
865.638	66.52
865.94	67.65
866.242	70.71
866.544	67.79
866.846	67.03
867.147	68.18
867.449	68.84
867.751	70.71
868.052	72.92
868.354	70.81
868.655	71.44
868.957	69.87
869.258	71.57
869.56	73.92
869.861	74.98
870.162	75.43
870.463	75.24
870.765	74.47
871.066	73.6
871.367	71.14
871.668	69.92
871.969	70.79
872.27	67.71
872.571	67.01
872.872	71.63
873.173	70.21
873.473	69.6
873.774	69.98
874.075	68.19
874.376	67
874.676	67.64
874.977	67.31
875.277	70.62
875.578	69.98
875.878	68.68
876.179	67.46
876.479	68.01
876.78	67.67
877.08	66.71
877.38	66.81
877.68	69.27
877.981	71.46
878.281	71.27
878.581	76.32
