Data from BA57712_Reflection_00005.txt Node
Date: Mon Nov 18 15:19:19 EST 2019
User: vgr7
Spectrometer: USB2G7710
Scans to average: 3
Trigger mode: 4
Integration Time (sec): 2.000000E-2
Electric dark correction enabled: true
Boxcar width: 10
XAxis mode: Wavelengths
Number of Pixels in Spectrum: 2048
>>>>>Begin Spectral Data<<<<<
177.721	-53.23
178.105	41.39
178.488	44.91
178.871	112.9
179.254	187.03
179.636	102.92
180.019	131.9
180.402	36.36
180.785	-70.11
181.168	655.56
181.55	5.08
181.933	43.3
182.316	51.78
182.698	58.52
183.081	66.91
183.463	64.18
183.846	82.36
184.228	89.99
184.611	133.08
184.993	193.77
185.376	136.35
185.758	165.12
186.14	170.46
186.522	162.82
186.904	254.38
187.287	289.99
187.669	440.3
188.051	557.43
188.433	490.28
188.815	369.84
189.197	1166.01
189.579	-905.33
189.961	-447.53
190.342	-460.91
190.724	-467.85
191.106	-307.64
191.488	-129.59
191.869	-183.26
192.251	-244.97
192.633	-162.51
193.014	-219.2
193.396	-305.57
193.777	-331.61
194.159	-406.1
194.54	-253.89
194.922	-184.33
195.303	-179.5
195.684	-204.3
196.065	-145.02
196.447	-135.89
196.828	-134.6
197.209	-126.08
197.59	-161.94
197.971	-121.42
198.352	-91.82
198.733	-97.8
199.114	-102.43
199.495	-105.59
199.876	-37.58
200.257	-36.65
200.638	-39.86
201.018	-39.89
201.399	-33.21
201.78	-17.31
202.16	-19.6
202.541	-18.57
202.922	-43.85
203.302	-69.22
203.683	-69.96
204.063	-104.51
204.444	-93.98
204.824	-78.24
205.204	-98.32
205.585	-59.83
205.965	-93.12
206.345	-109.44
206.725	-152.93
207.106	-259.36
207.486	-672.61
207.866	376.3
208.246	212.37
208.626	239.2
209.006	321.16
209.386	400.58
209.766	443.55
210.145	227.67
210.525	332.67
210.905	462.89
211.285	244.24
211.664	206.62
212.044	325.4
212.424	526.79
212.803	746.72
213.183	-543.74
213.562	-855.92
213.942	-338.6
214.321	-525.4
214.701	-249.66
215.08	-112.46
215.459	-99.85
215.838	-70.66
216.218	-60.75
216.597	-33.14
216.976	-8.36
217.355	2.47
217.734	-4.98
218.113	-1.74
218.492	-5.18
218.871	-1.26
219.25	-2.02
219.629	-7.61
220.008	-30.56
220.387	-15.7
220.766	2.65
221.144	8.57
221.523	6.86
221.902	-7.19
222.28	-14.99
222.659	-1.25
223.037	9.75
223.416	5.94
223.794	17.93
224.173	7.53
224.551	0.62
224.929	-17.44
225.308	-22.2
225.686	-11.52
226.064	-14.29
226.442	-11.73
226.821	-6.96
227.199	-4.34
227.577	-6.56
227.955	-4.57
228.333	-5.66
228.711	-8.28
229.089	-5.05
229.467	-8.67
229.845	-9.61
230.222	-8.4
230.6	-7.03
230.978	-7.94
231.356	-3.82
231.733	-5.5
232.111	-4.53
232.488	-4.85
232.866	-4.92
233.243	-4.76
233.621	-7.67
233.998	-7.24
234.376	-6.83
234.753	-7.72
235.13	-7.1
235.508	-5.15
235.885	-5
236.262	-5.41
236.639	-3.8
237.016	-2.74
237.393	-1.27
237.77	0.17
238.147	0.81
238.524	0.93
238.901	1.53
239.278	2.33
239.655	3.05
240.032	3.29
240.409	2.88
240.785	3.27
241.162	3.83
241.539	4.53
241.915	4.55
242.292	4.39
242.668	4.42
243.045	4.29
243.421	4.3
243.798	4.43
244.174	4.46
244.551	4.36
244.927	4.49
245.303	4.89
245.679	4.92
246.056	5.06
246.432	5.18
246.808	4.96
247.184	4.56
247.56	4.45
247.936	4.47
248.312	4.64
248.688	4.68
249.064	4.71
249.44	4.45
249.815	4.73
250.191	4.61
250.567	4.63
250.943	4.72
251.318	4.7
251.694	4.61
252.069	4.51
252.445	4.53
252.82	4.23
253.196	3.96
253.571	3.84
253.947	3.59
254.322	3.25
254.697	3.4
255.073	3.59
255.448	3.42
255.823	3.51
256.198	3.64
256.573	3.63
256.948	3.7
257.323	4
257.698	3.95
258.073	4.33
258.448	4.24
258.823	4.16
259.198	4.23
259.573	4.27
259.948	4.29
260.322	4.3
260.697	4.34
261.072	4.28
261.446	4.25
261.821	4.3
262.195	4.5
262.57	4.45
262.944	4.42
263.319	4.51
263.693	4.44
264.067	4.54
264.442	4.55
264.816	4.49
265.19	4.33
265.564	4.28
265.938	3.9
266.313	3.85
266.687	4.01
267.061	3.89
267.435	3.85
267.809	3.92
268.183	3.94
268.556	3.9
268.93	4.05
269.304	3.99
269.678	3.94
270.051	3.77
270.425	3.86
270.799	4.03
271.172	4.09
271.546	4.03
271.919	3.87
272.293	3.95
272.666	3.98
273.04	4.08
273.413	4.07
273.787	4.26
274.16	4.22
274.533	4.07
274.906	4.15
275.279	4.16
275.653	4.25
276.026	4.29
276.399	4.33
276.772	4.34
277.145	4.32
277.518	4.3
277.891	4.42
278.263	4.35
278.636	4.11
279.009	4.01
279.382	4.19
279.755	4.11
280.127	4.11
280.5	4.17
280.872	4.26
281.245	4.24
281.617	4.28
281.99	4.48
282.362	4.38
282.735	4.3
283.107	4.2
283.479	4.22
283.852	4.11
284.224	4.09
284.596	4.06
284.968	4.19
285.34	4.2
285.713	4.14
286.085	4.21
286.457	4.39
286.829	4.44
287.201	4.41
287.572	4.51
287.944	4.39
288.316	4.24
288.688	4.11
289.06	4.06
289.431	3.97
289.803	3.99
290.175	4.13
290.546	4.22
290.918	4.18
291.289	4.25
291.661	4.36
292.032	4.37
292.403	4.4
292.775	4.42
293.146	4.42
293.517	4.37
293.889	4.27
294.26	4.13
294.631	4.16
295.002	4.16
295.373	4.13
295.744	4.18
296.115	4.18
296.486	4.11
296.857	4.21
297.228	4.27
297.599	4.15
297.97	4.11
298.34	4.08
298.711	4.21
299.082	3.98
299.452	3.87
299.823	3.95
300.194	3.98
300.564	3.88
300.935	3.95
301.305	4.01
301.676	4.1
302.046	4.15
302.416	4.19
302.787	4.2
303.157	4.12
303.527	4.13
303.897	4.22
304.267	4.43
304.637	4.35
305.008	4.34
305.378	4.36
305.748	4.42
306.117	4.39
306.487	4.42
306.857	4.6
307.227	4.65
307.597	4.58
307.967	4.54
308.336	4.61
308.706	4.51
309.076	4.43
309.445	4.36
309.815	4.26
310.184	4.2
310.554	4.09
310.923	4.13
311.293	4.1
311.662	3.98
312.031	3.89
312.401	3.87
312.77	3.85
313.139	3.9
313.508	3.88
313.877	3.9
314.246	3.87
314.616	3.92
314.985	3.92
315.353	3.87
315.722	3.81
316.091	3.68
316.46	3.67
316.829	3.68
317.198	3.68
317.567	3.74
317.935	3.6
318.304	3.75
318.672	3.82
319.041	3.9
319.41	4.04
319.778	3.97
320.147	4.03
320.515	4.08
320.883	4.06
321.252	4.09
321.62	4.05
321.988	4.07
322.357	3.81
322.725	3.74
323.093	3.82
323.461	3.92
323.829	3.96
324.197	3.97
324.565	3.95
324.933	4.02
325.301	4.05
325.669	4.03
326.037	3.95
326.405	3.83
326.772	3.94
327.14	4.01
327.508	4.1
327.875	3.88
328.243	3.85
328.61	3.78
328.978	3.77
329.346	3.76
329.713	3.62
330.08	3.76
330.448	3.73
330.815	3.61
331.182	3.63
331.55	3.63
331.917	3.76
332.284	3.96
332.651	3.97
333.018	3.9
333.385	4.08
333.752	4.1
334.119	4.16
334.486	3.95
334.853	3.86
335.22	3.86
335.587	4.07
335.954	4.09
336.32	4.02
336.687	4.07
337.054	4.02
337.42	4.14
337.787	4.08
338.153	4.03
338.52	4.13
338.886	3.96
339.253	3.92
339.619	3.8
339.986	3.63
340.352	3.54
340.718	3.58
341.084	3.53
341.451	3.53
341.817	3.72
342.183	3.67
342.549	3.64
342.915	3.68
343.281	3.59
343.647	3.51
344.013	3.52
344.379	3.38
344.745	3.45
345.11	3.39
345.476	3.49
345.842	3.63
346.208	3.64
346.573	3.69
346.939	3.84
347.304	3.83
347.67	3.78
348.035	3.76
348.401	3.73
348.766	3.75
349.132	3.72
349.497	3.56
349.862	3.71
350.228	3.75
350.593	3.64
350.958	3.67
351.323	3.75
351.688	3.89
352.053	4.02
352.418	4.03
352.783	4.07
353.148	3.98
353.513	3.93
353.878	3.83
354.243	3.9
354.608	3.83
354.972	3.88
355.337	4.04
355.702	4.15
356.066	4.19
356.431	4.21
356.795	4.27
357.16	4.26
357.524	4.16
357.889	4.12
358.253	4.15
358.618	4.21
358.982	4.21
359.346	4.1
359.71	4.02
360.075	4.04
360.439	4.01
360.803	4.1
361.167	4.1
361.531	4.08
361.895	4.06
362.259	4.02
362.623	4
362.987	3.91
363.351	3.89
363.714	3.89
364.078	3.85
364.442	3.81
364.806	3.81
365.169	3.85
365.533	3.79
365.896	3.82
366.26	3.75
366.623	3.77
366.987	3.73
367.35	3.76
367.714	3.7
368.077	3.7
368.44	3.66
368.803	3.67
369.167	3.74
369.53	3.67
369.893	3.78
370.256	3.79
370.619	3.78
370.982	3.7
371.345	3.69
371.708	3.72
372.071	3.75
372.434	3.73
372.797	3.78
373.159	3.84
373.522	3.81
373.885	3.83
374.247	3.78
374.61	3.86
374.973	3.82
375.335	3.78
375.698	3.8
376.06	3.83
376.423	3.8
376.785	3.84
377.147	3.9
377.51	3.83
377.872	3.83
378.234	3.91
378.596	3.93
378.958	3.91
379.321	3.89
379.683	3.88
380.045	3.87
380.407	3.85
380.769	3.89
381.13	3.87
381.492	3.87
381.854	3.91
382.216	3.88
382.578	3.92
382.939	4
383.301	4.01
383.663	3.93
384.024	3.9
384.386	3.86
384.747	3.86
385.109	3.91
385.47	3.89
385.832	3.9
386.193	3.92
386.554	3.92
386.916	3.92
387.277	3.92
387.638	3.96
387.999	3.96
388.36	3.91
388.721	3.92
389.082	3.92
389.443	3.87
389.804	3.89
390.165	3.88
390.526	3.88
390.887	3.89
391.248	3.95
391.609	4.03
391.969	4.04
392.33	4.02
392.691	3.97
393.051	4.01
393.412	4
393.772	3.99
394.133	3.99
394.493	4
394.854	4.01
395.214	3.97
395.574	3.97
395.935	4.01
396.295	4.04
396.655	4.06
397.015	4.08
397.376	4.08
397.736	4.06
398.096	4.03
398.456	4.02
398.816	3.99
399.176	3.97
399.535	3.98
399.895	3.97
400.255	4.01
400.615	3.97
400.975	3.97
401.334	3.99
401.694	3.99
402.054	3.95
402.413	3.94
402.773	3.91
403.132	3.89
403.492	3.89
403.851	3.9
404.211	3.87
404.57	3.89
404.929	3.89
405.288	3.89
405.648	3.89
406.007	3.87
406.366	3.89
406.725	3.87
407.084	3.87
407.443	3.89
407.802	3.91
408.161	3.87
408.52	3.84
408.879	3.83
409.238	3.86
409.596	3.89
409.955	3.87
410.314	3.92
410.673	3.91
411.031	3.89
411.39	3.85
411.748	3.89
412.107	3.9
412.465	3.89
412.824	3.89
413.182	3.9
413.54	3.91
413.899	3.9
414.257	3.92
414.615	3.89
414.974	3.87
415.332	3.84
415.69	3.85
416.048	3.86
416.406	3.88
416.764	3.86
417.122	3.86
417.48	3.85
417.838	3.84
418.195	3.85
418.553	3.84
418.911	3.84
419.269	3.82
419.626	3.81
419.984	3.82
420.342	3.82
420.699	3.82
421.057	3.82
421.414	3.81
421.772	3.8
422.129	3.81
422.486	3.81
422.844	3.81
423.201	3.82
423.558	3.81
423.915	3.79
424.273	3.81
424.63	3.79
424.987	3.79
425.344	3.79
425.701	3.79
426.058	3.81
426.415	3.81
426.772	3.81
427.128	3.79
427.485	3.79
427.842	3.79
428.199	3.8
428.555	3.78
428.912	3.8
429.269	3.81
429.625	3.8
429.982	3.79
430.338	3.8
430.695	3.81
431.051	3.8
431.407	3.79
431.764	3.78
432.12	3.79
432.476	3.8
432.832	3.8
433.189	3.79
433.545	3.78
433.901	3.79
434.257	3.78
434.613	3.79
434.969	3.8
435.325	3.8
435.681	3.8
436.036	3.79
436.392	3.79
436.748	3.78
437.104	3.78
437.459	3.78
437.815	3.78
438.171	3.78
438.526	3.81
438.882	3.82
439.237	3.82
439.593	3.82
439.948	3.81
440.304	3.81
440.659	3.82
441.014	3.84
441.369	3.82
441.725	3.82
442.08	3.81
442.435	3.81
442.79	3.79
443.145	3.79
443.5	3.8
443.855	3.8
444.21	3.8
444.565	3.8
444.92	3.8
445.275	3.79
445.629	3.8
445.984	3.78
446.339	3.77
446.693	3.75
447.048	3.73
447.403	3.73
447.757	3.74
448.112	3.74
448.466	3.74
448.82	3.74
449.175	3.75
449.529	3.74
449.883	3.75
450.238	3.76
450.592	3.76
450.946	3.73
451.3	3.73
451.654	3.72
452.008	3.73
452.362	3.74
452.716	3.73
453.07	3.72
453.424	3.74
453.778	3.76
454.132	3.78
454.486	3.78
454.839	3.78
455.193	3.75
455.547	3.75
455.9	3.75
456.254	3.77
456.607	3.77
456.961	3.78
457.314	3.77
457.668	3.76
458.021	3.76
458.375	3.77
458.728	3.77
459.081	3.77
459.434	3.75
459.787	3.75
460.141	3.77
460.494	3.76
460.847	3.77
461.2	3.76
461.553	3.74
461.906	3.75
462.259	3.75
462.611	3.77
462.964	3.77
463.317	3.78
463.67	3.78
464.022	3.79
464.375	3.78
464.728	3.79
465.08	3.8
465.433	3.8
465.785	3.82
466.138	3.83
466.49	3.84
466.843	3.85
467.195	3.85
467.547	3.85
467.899	3.85
468.252	3.83
468.604	3.84
468.956	3.85
469.308	3.86
469.66	3.86
470.012	3.87
470.364	3.85
470.716	3.84
471.068	3.83
471.42	3.82
471.772	3.83
472.123	3.83
472.475	3.82
472.827	3.83
473.178	3.84
473.53	3.82
473.882	3.79
474.233	3.81
474.585	3.81
474.936	3.78
475.288	3.79
475.639	3.8
475.99	3.79
476.342	3.78
476.693	3.8
477.044	3.8
477.395	3.81
477.746	3.8
478.097	3.81
478.448	3.8
478.8	3.8
479.15	3.79
479.501	3.81
479.852	3.83
480.203	3.83
480.554	3.84
480.905	3.86
481.255	3.87
481.606	3.88
481.957	3.9
482.307	3.91
482.658	3.92
483.009	3.92
483.359	3.93
483.709	3.94
484.06	3.94
484.41	3.94
484.761	3.94
485.111	3.94
485.461	3.95
485.811	3.96
486.162	3.97
486.512	3.98
486.862	3.97
487.212	3.97
487.562	3.97
487.912	3.97
488.262	3.96
488.612	3.97
488.961	3.96
489.311	3.96
489.661	3.96
490.011	3.96
490.36	3.95
490.71	3.96
491.06	3.96
491.409	3.94
491.759	3.95
492.108	3.95
492.458	3.96
492.807	3.94
493.157	3.95
493.506	3.97
493.855	3.97
494.204	3.98
494.554	3.98
494.903	3.98
495.252	3.97
495.601	3.98
495.95	3.98
496.299	3.99
496.648	3.98
496.997	3.99
497.346	4.01
497.695	4.03
498.043	4.01
498.392	4.01
498.741	4.02
499.09	4.01
499.438	4.01
499.787	4.01
500.135	4.02
500.484	3.99
500.832	3.98
501.181	3.98
501.529	3.96
501.878	3.98
502.226	4.01
502.574	4.02
502.923	4.01
503.271	4
503.619	3.99
503.967	3.99
504.315	3.98
504.663	3.95
505.011	3.95
505.359	3.96
505.707	3.97
506.055	3.97
506.403	3.97
506.751	3.99
507.098	4.01
507.446	4.02
507.794	4.02
508.141	4.01
508.489	4.02
508.837	4.04
509.184	4.03
509.531	4.02
509.879	4.04
510.226	4.06
510.574	4.05
510.921	4.07
511.268	4.07
511.616	4.08
511.963	4.11
512.31	4.12
512.657	4.14
513.004	4.13
513.351	4.15
513.698	4.17
514.045	4.15
514.392	4.16
514.739	4.15
515.086	4.16
515.432	4.17
515.779	4.16
516.126	4.15
516.473	4.15
516.819	4.16
517.166	4.16
517.512	4.16
517.859	4.18
518.205	4.15
518.552	4.18
518.898	4.18
519.245	4.18
519.591	4.16
519.937	4.13
520.283	4.12
520.629	4.13
520.976	4.13
521.322	4.13
521.668	4.12
522.014	4.14
522.36	4.17
522.706	4.17
523.052	4.19
523.398	4.22
523.743	4.23
524.089	4.21
524.435	4.2
524.781	4.2
525.126	4.21
525.472	4.23
525.817	4.22
526.163	4.22
526.509	4.24
526.854	4.26
527.199	4.27
527.545	4.26
527.89	4.27
528.235	4.27
528.581	4.29
528.926	4.3
529.271	4.3
529.616	4.29
529.961	4.28
530.306	4.28
530.651	4.27
530.996	4.28
531.341	4.28
531.686	4.3
532.031	4.3
532.376	4.32
532.721	4.32
533.065	4.33
533.41	4.33
533.755	4.33
534.099	4.32
534.444	4.34
534.788	4.36
535.133	4.35
535.477	4.35
535.822	4.34
536.166	4.34
536.51	4.33
536.855	4.34
537.199	4.34
537.543	4.34
537.887	4.34
538.231	4.34
538.576	4.34
538.92	4.33
539.264	4.32
539.608	4.31
539.951	4.31
540.295	4.31
540.639	4.31
540.983	4.3
541.327	4.31
541.671	4.29
542.014	4.3
542.358	4.3
542.701	4.31
543.045	4.32
543.389	4.33
543.732	4.33
544.075	4.31
544.419	4.32
544.762	4.32
545.105	4.33
545.449	4.32
545.792	4.32
546.135	4.34
546.478	4.34
546.821	4.34
547.165	4.35
547.508	4.36
547.851	4.37
548.194	4.36
548.536	4.36
548.879	4.38
549.222	4.35
549.565	4.35
549.908	4.34
550.25	4.33
550.593	4.3
550.936	4.3
551.278	4.32
551.621	4.33
551.963	4.34
552.306	4.31
552.648	4.31
552.991	4.31
553.333	4.31
553.675	4.31
554.017	4.32
554.36	4.32
554.702	4.3
555.044	4.3
555.386	4.3
555.728	4.28
556.07	4.31
556.412	4.31
556.754	4.31
557.096	4.31
557.438	4.31
557.78	4.34
558.121	4.33
558.463	4.34
558.805	4.35
559.147	4.34
559.488	4.35
559.83	4.37
560.171	4.36
560.513	4.38
560.854	4.38
561.196	4.38
561.537	4.37
561.878	4.38
562.22	4.39
562.561	4.38
562.902	4.41
563.243	4.38
563.584	4.39
563.925	4.4
564.266	4.38
564.607	4.39
564.948	4.4
565.289	4.4
565.63	4.38
565.971	4.36
566.312	4.35
566.653	4.34
566.993	4.33
567.334	4.34
567.675	4.34
568.015	4.35
568.356	4.32
568.696	4.35
569.037	4.35
569.377	4.34
569.718	4.35
570.058	4.34
570.398	4.31
570.739	4.32
571.079	4.32
571.419	4.33
571.759	4.34
572.099	4.31
572.439	4.34
572.779	4.34
573.119	4.36
573.459	4.39
573.799	4.42
574.139	4.43
574.479	4.44
574.819	4.4
575.158	4.38
575.498	4.4
575.838	4.38
576.177	4.37
576.517	4.36
576.856	4.36
577.196	4.37
577.535	4.42
577.875	4.42
578.214	4.4
578.553	4.42
578.893	4.4
579.232	4.44
579.571	4.42
579.91	4.42
580.25	4.43
580.589	4.38
580.928	4.39
581.267	4.39
581.606	4.34
581.945	4.39
582.283	4.38
582.622	4.4
582.961	4.42
583.3	4.41
583.639	4.45
583.977	4.47
584.316	4.47
584.654	4.47
584.993	4.44
585.332	4.45
585.67	4.45
586.008	4.47
586.347	4.44
586.685	4.45
587.024	4.51
587.362	4.5
587.7	4.53
588.038	4.52
588.376	4.52
588.715	4.52
589.053	4.57
589.391	4.59
589.729	4.59
590.067	4.59
590.404	4.6
590.742	4.6
591.08	4.6
591.418	4.62
591.756	4.61
592.093	4.64
592.431	4.63
592.769	4.62
593.106	4.59
593.444	4.57
593.781	4.57
594.119	4.57
594.456	4.58
594.793	4.55
595.131	4.56
595.468	4.57
595.805	4.62
596.143	4.59
596.48	4.57
596.817	4.56
597.154	4.57
597.491	4.58
597.828	4.55
598.165	4.53
598.502	4.54
598.839	4.52
599.176	4.54
599.512	4.55
599.849	4.55
600.186	4.57
600.523	4.6
600.859	4.64
601.196	4.62
601.532	4.56
601.869	4.58
602.205	4.54
602.542	4.53
602.878	4.5
603.215	4.5
603.551	4.5
603.887	4.51
604.223	4.52
604.56	4.52
604.896	4.54
605.232	4.57
605.568	4.54
605.904	4.52
606.24	4.53
606.576	4.55
606.912	4.56
607.248	4.58
607.583	4.58
607.919	4.54
608.255	4.55
608.591	4.61
608.926	4.62
609.262	4.69
609.597	4.65
609.933	4.67
610.268	4.67
610.604	4.72
610.939	4.69
611.275	4.67
611.61	4.68
611.945	4.66
612.281	4.62
612.616	4.66
612.951	4.71
613.286	4.7
613.621	4.71
613.956	4.69
614.291	4.67
614.626	4.65
614.961	4.64
615.296	4.61
615.631	4.59
615.966	4.58
616.3	4.55
616.635	4.57
616.97	4.61
617.304	4.61
617.639	4.6
617.973	4.61
618.308	4.63
618.642	4.65
618.977	4.67
619.311	4.65
619.646	4.65
619.98	4.66
620.314	4.68
620.648	4.64
620.983	4.7
621.317	4.67
621.651	4.68
621.985	4.67
622.319	4.71
622.653	4.75
622.987	4.74
623.321	4.73
623.655	4.75
623.988	4.72
624.322	4.72
624.656	4.73
624.99	4.75
625.323	4.73
625.657	4.7
625.99	4.67
626.324	4.73
626.657	4.71
626.991	4.67
627.324	4.65
627.658	4.67
627.991	4.65
628.324	4.66
628.657	4.65
628.991	4.69
629.324	4.67
629.657	4.65
629.99	4.64
630.323	4.69
630.656	4.67
630.989	4.68
631.322	4.67
631.655	4.62
631.987	4.6
632.32	4.58
632.653	4.59
632.986	4.61
633.318	4.61
633.651	4.62
633.984	4.64
634.316	4.62
634.649	4.62
634.981	4.6
635.313	4.64
635.646	4.63
635.978	4.6
636.31	4.57
636.643	4.63
636.975	4.66
637.307	4.6
637.639	4.58
637.971	4.57
638.303	4.57
638.635	4.59
638.967	4.61
639.299	4.66
639.631	4.64
639.963	4.61
640.295	4.62
640.626	4.61
640.958	4.62
641.29	4.63
641.621	4.68
641.953	4.63
642.285	4.58
642.616	4.57
642.948	4.58
643.279	4.6
643.61	4.53
643.942	4.6
644.273	4.65
644.604	4.67
644.936	4.63
645.267	4.67
645.598	4.66
645.929	4.65
646.26	4.72
646.591	4.76
646.922	4.82
647.253	4.76
647.584	4.78
647.915	4.77
648.245	4.81
648.576	4.76
648.907	4.83
649.238	4.85
649.568	4.89
649.899	4.89
650.229	4.89
650.56	4.84
650.89	4.82
651.221	4.81
651.551	4.84
651.882	4.9
652.212	4.88
652.542	4.9
652.872	4.88
653.203	4.77
653.533	4.76
653.863	4.72
654.193	4.67
654.523	4.71
654.853	4.69
655.183	4.65
655.513	4.71
655.843	4.71
656.172	4.72
656.502	4.69
656.832	4.71
657.162	4.74
657.491	4.77
657.821	4.75
658.15	4.77
658.48	4.78
658.809	4.73
659.139	4.73
659.468	4.72
659.798	4.74
660.127	4.78
660.456	4.8
660.785	4.81
661.115	4.84
661.444	4.79
661.773	4.8
662.102	4.8
662.431	4.82
662.76	4.83
663.089	4.86
663.418	4.94
663.747	4.94
664.076	4.92
664.404	4.92
664.733	4.86
665.062	4.83
665.39	4.84
665.719	4.84
666.048	4.91
666.376	4.94
666.705	4.95
667.033	4.89
667.362	4.92
667.69	4.94
668.018	4.89
668.347	4.89
668.675	4.9
669.003	4.86
669.331	4.85
669.659	4.8
669.987	4.82
670.315	4.74
670.643	4.72
670.971	4.74
671.299	4.81
671.627	4.88
671.955	4.77
672.283	4.76
672.61	4.69
672.938	4.7
673.266	4.66
673.593	4.73
673.921	4.72
674.249	4.73
674.576	4.68
674.904	4.79
675.231	4.83
675.558	4.84
675.886	4.88
676.213	4.79
676.54	4.76
676.867	4.78
677.195	4.83
677.522	4.84
677.849	4.91
678.176	4.95
678.503	4.95
678.83	5.01
679.157	5.04
679.484	5.14
679.81	5.13
680.137	5.14
680.464	5.06
680.791	5.14
681.117	5.1
681.444	5.14
681.771	5.16
682.097	5.13
682.424	5.15
682.75	5.19
683.077	5.27
683.403	5.35
683.729	5.31
684.056	5.26
684.382	5.29
684.708	5.26
685.034	5.17
685.36	5.14
685.686	5.14
686.012	5.06
686.339	5.13
686.664	5.02
686.99	5.05
687.316	5.03
687.642	5.01
687.968	5.06
688.294	5.11
688.619	5.05
688.945	5.05
689.271	5.01
689.596	4.96
689.922	4.86
690.247	4.87
690.573	4.83
690.898	4.83
691.224	4.84
691.549	4.8
691.874	4.89
692.2	4.95
692.525	5.02
692.85	5.11
693.175	5.05
693.5	5.13
693.825	5.19
694.15	5.27
694.475	5.29
694.8	5.3
695.125	5.22
695.45	5.21
695.775	5.23
696.099	5.3
696.424	5.31
696.749	5.28
697.073	5.3
697.398	5.35
697.723	5.35
698.047	5.3
698.372	5.35
698.696	5.39
699.02	5.44
699.345	5.38
699.669	5.4
699.993	5.32
700.318	5.29
700.642	5.29
700.966	5.35
701.29	5.35
701.614	5.29
701.938	5.39
702.262	5.54
702.586	5.56
702.91	5.57
703.234	5.64
703.557	5.81
703.881	5.76
704.205	5.77
704.529	5.74
704.852	5.88
705.176	5.79
705.499	5.58
705.823	5.54
706.146	5.57
706.47	5.4
706.793	5.47
707.117	5.49
707.44	5.35
707.763	5.32
708.086	5.26
708.409	5.24
708.733	5.25
709.056	5.26
709.379	5.4
709.702	5.38
710.025	5.44
710.348	5.38
710.671	5.32
710.993	5.39
711.316	5.56
711.639	5.49
711.962	5.53
712.284	5.54
712.607	5.53
712.93	5.52
713.252	5.6
713.575	5.62
713.897	5.67
714.22	5.86
714.542	5.86
714.864	5.96
715.187	6.06
715.509	6.03
715.831	5.89
716.153	5.83
716.475	5.83
716.798	5.81
717.12	5.87
717.442	6.11
717.764	6.1
718.085	6.06
718.407	6.09
718.729	6.12
719.051	6.22
719.373	6.15
719.695	6.13
720.016	6.06
720.338	6.01
720.659	5.94
720.981	5.71
721.302	5.78
721.624	5.75
721.945	5.69
722.267	5.53
722.588	5.51
722.909	5.31
723.231	5.16
723.552	5.09
723.873	5.01
724.194	4.79
724.515	4.65
724.836	4.62
725.157	4.52
725.478	4.48
725.799	4.45
726.12	4.5
726.441	4.66
726.762	4.74
727.083	4.9
727.403	4.97
727.724	5.1
728.045	5.05
728.365	5.08
728.686	5.09
729.006	5.11
729.327	5.25
729.647	5.51
729.967	5.56
730.288	5.71
730.608	5.75
730.928	5.8
731.249	5.88
731.569	5.85
731.889	6.02
732.209	6.04
732.529	6.07
732.849	6.08
733.169	6.05
733.489	6.06
733.809	6.07
734.129	6.16
734.448	6.26
734.768	6.15
735.088	6.14
735.408	6.13
735.727	6.39
736.047	6.39
736.366	6.15
736.686	6.22
737.005	6.18
737.325	6.14
737.644	6.06
737.963	6.15
738.283	6.11
738.602	5.93
738.921	5.89
739.24	6.09
739.56	5.99
739.879	5.95
740.198	6.08
740.517	6.02
740.836	5.92
741.155	5.77
741.473	5.89
741.792	5.96
742.111	6.12
742.43	5.81
742.748	5.84
743.067	6
743.386	6.08
743.704	6
744.023	6.02
744.341	5.96
744.66	6.15
744.978	5.98
745.297	5.95
745.615	6.1
745.933	5.93
746.252	6.13
746.57	6.32
746.888	6.15
747.206	6.1
747.524	6.22
747.842	6.26
748.16	6.39
748.478	6.3
748.796	6.31
749.114	6.61
749.432	6.59
749.749	6.71
750.067	6.39
750.385	6.38
750.703	6.32
751.02	6.41
751.338	6.11
751.655	6.46
751.973	6.71
752.29	6.62
752.608	6.72
752.925	6.92
753.242	6.6
753.56	6.84
753.877	7.01
754.194	7.05
754.511	7.16
754.828	6.97
755.145	7.01
755.462	6.75
755.779	6.89
756.096	6.77
756.413	6.91
756.73	6.99
757.047	6.82
757.364	6.98
757.68	6.97
757.997	6.95
758.314	7.04
758.63	6.72
758.947	6.62
759.264	6.52
759.58	6.3
759.896	6.49
760.213	6.54
760.529	6.46
760.846	6.22
761.162	6.21
761.478	6.2
761.794	5.96
762.11	6.09
762.426	6.06
762.743	6.11
763.059	5.85
763.375	5.97
763.69	6.19
764.006	6.18
764.322	6.31
764.638	6.46
764.954	6.54
765.27	6.71
765.585	6.66
765.901	6.97
766.216	6.99
766.532	6.81
766.848	6.63
767.163	6.71
767.478	6.78
767.794	6.76
768.109	6.8
768.424	7.03
768.74	6.99
769.055	6.62
769.37	6.77
769.685	6.63
770	6.86
770.315	6.82
770.63	6.75
770.945	6.61
771.26	6.75
771.575	6.47
771.89	6.52
772.205	6.93
772.52	6.39
772.834	6.48
773.149	6.84
773.464	7.09
773.778	7.45
774.093	7.48
774.407	7.46
774.722	7.55
775.036	7.79
775.351	8.29
775.665	8.29
775.979	7.92
776.293	8.41
776.608	7.92
776.922	7.76
777.236	7.64
777.55	7.5
777.864	7.32
778.178	7.52
778.492	7.46
778.806	7.21
779.12	7.3
779.434	6.94
779.747	6.74
780.061	6.79
780.375	6.08
780.689	6.34
781.002	6.84
781.316	6.75
781.629	6.66
781.943	6.14
782.256	6.51
782.57	6.51
782.883	6.04
783.196	6.1
783.51	6.1
783.823	6.31
784.136	6.67
784.449	6.75
784.762	6.64
785.075	6.65
785.388	6.95
785.701	7.24
786.014	7.73
786.327	7.61
786.64	7.62
786.953	7.95
787.266	7.62
787.578	7.28
787.891	7.24
788.204	7.18
788.516	7.22
788.829	7.41
789.141	7.95
789.454	8.21
789.766	8.28
790.079	8.32
790.391	8.67
790.703	8.74
791.016	8.61
791.328	8.95
791.64	8.73
791.952	8.59
792.264	8
792.576	7.82
792.888	7.79
793.2	7.91
793.512	7.85
793.824	8.05
794.136	7.94
794.448	7.94
794.76	7.53
795.071	7.43
795.383	6.71
795.695	6.53
796.006	6.47
796.318	6.54
796.629	6.79
796.941	6.61
797.252	6.44
797.564	6.45
797.875	6.15
798.186	6.34
798.497	6.04
798.809	6.18
799.12	6.36
799.431	6.72
799.742	6.52
800.053	6.64
800.364	6.33
800.675	6.13
800.986	5.94
801.297	6.39
801.608	6.49
801.918	6.9
802.229	6.51
802.54	6.57
802.851	6.55
803.161	6.48
803.472	6.52
803.782	6.72
804.093	6.28
804.403	6.47
804.714	6.34
805.024	6.8
805.334	7.1
805.645	7.13
805.955	6.89
806.265	7.13
806.575	7.05
806.885	7.37
807.195	7.66
807.505	7.92
807.815	8.61
808.125	8.56
808.435	8.32
808.745	9.04
809.055	9.13
809.365	9.56
809.674	9.36
809.984	9.39
810.294	9.22
810.603	9.79
810.913	10.1
811.222	10.6
811.532	10.34
811.841	10.81
812.151	10.74
812.46	10.87
812.769	10.41
813.079	10.64
813.388	10.71
813.697	10.45
814.006	11.53
814.315	10.89
814.624	11.26
814.933	11.62
815.242	11.45
815.551	11.56
815.86	11.48
816.169	11.25
816.478	11.01
816.786	10.68
817.095	10.07
817.404	9.53
817.712	9.53
818.021	9.6
818.33	9.21
818.638	9
818.947	9.23
819.255	9.43
819.563	9.43
819.872	9.08
820.18	9.09
820.488	8.53
820.796	8.61
821.105	8.47
821.413	8.6
821.721	8.39
822.029	8.31
822.337	8.27
822.645	8.3
822.953	8.13
823.26	8.32
823.568	8.27
823.876	8.32
824.184	8.16
824.491	8.01
824.799	8.12
825.107	8.1
825.414	7.95
825.722	7.92
826.029	7.71
826.337	7.77
826.644	7.72
826.951	7.76
827.259	7.51
827.566	7.59
827.873	7.29
828.18	7.32
828.488	7.27
828.795	7.32
829.102	7.47
829.409	7.86
829.716	7.38
830.023	7.61
830.329	7.34
830.636	7.57
830.943	7.62
831.25	7.5
831.557	7.6
831.863	7.78
832.17	7.74
832.476	7.81
832.783	7.89
833.089	7.87
833.396	7.97
833.702	8.36
834.009	8.16
834.315	8.4
834.621	8.29
834.928	8.45
835.234	8.37
835.54	8.22
835.846	7.88
836.152	8.18
836.458	8.15
836.764	8.52
837.07	8.36
837.376	8.15
837.682	8.27
837.988	8.2
838.293	8.19
838.599	7.58
838.905	8.27
839.211	8
839.516	8.03
839.822	7.96
840.127	7.4
840.433	7.53
840.738	7.91
841.044	8.58
841.349	8.96
841.654	8.7
841.959	9.03
842.265	9.61
842.57	10.86
842.875	10.37
843.18	10.06
843.485	10.1
843.79	10.92
844.095	10.5
844.4	11.36
844.705	10.9
845.01	12.12
845.315	11.74
845.619	10.76
845.924	10.83
846.229	10.7
846.533	11.12
846.838	10.7
847.142	10.14
847.447	8.43
847.751	7.22
848.056	6.2
848.36	4.99
848.664	5.38
848.969	3.79
849.273	3.67
849.577	3.21
849.881	2.57
850.185	4.06
850.489	5.31
850.794	3.12
851.097	4.36
851.401	4.79
851.705	1.69
852.009	5.43
852.313	5.15
852.617	4.1
852.92	3.67
853.224	2.81
853.528	2.48
853.831	1.5
854.135	2.89
854.438	2.15
854.742	2.42
855.045	0.26
855.349	0.09
855.652	0.47
855.955	1.34
856.259	0.52
856.562	-0.37
856.865	-2.22
857.168	-0.95
857.471	-1.64
857.774	-3.1
858.077	-0.14
858.38	-0.69
858.683	0.6
858.986	1.49
859.289	2.89
859.592	4.48
859.894	6.28
860.197	9.3
860.5	8.65
860.802	9.91
861.105	10.82
861.407	11.61
861.71	11.31
862.012	12
862.315	9.65
862.617	10.72
862.919	9.46
863.222	9.01
863.524	7.15
863.826	8.22
864.128	9.27
864.43	7
864.732	6.43
865.034	6.88
865.336	6.33
865.638	3.09
865.94	2.09
866.242	0.27
866.544	-0.61
866.846	-1.17
867.147	-0.16
867.449	1.03
867.751	1.06
868.052	3.15
868.354	3.25
868.655	5.08
868.957	7.81
869.258	8.12
869.56	9.03
869.861	10.3
870.162	8.73
870.463	9.28
870.765	9.49
871.066	9.96
871.367	7.61
871.668	7.55
871.969	8.49
872.27	7.01
872.571	7.53
872.872	9.39
873.173	8.89
873.473	7.37
873.774	4.38
874.075	4.15
874.376	2.8
874.676	4.6
874.977	5.4
875.277	2.87
875.578	3.95
875.878	3.34
876.179	3.17
876.479	3.34
876.78	2.15
877.08	3.49
877.38	1.92
877.68	3.43
877.981	3.99
878.281	6.17
878.581	11.11
