Data from BA57757_Reflection_00035.txt Node
Date: Mon Nov 18 15:02:11 EST 2019
User: vgr7
Spectrometer: USB2G7710
Scans to average: 3
Trigger mode: 4
Integration Time (sec): 2.000000E-2
Electric dark correction enabled: true
Boxcar width: 10
XAxis mode: Wavelengths
Number of Pixels in Spectrum: 2048
>>>>>Begin Spectral Data<<<<<
177.721	-186.11
178.105	-251.92
178.488	2175.31
178.871	-1275
179.254	186.56
179.636	-382.76
180.019	471.86
180.402	73.17
180.785	-423.36
181.168	268.14
181.55	1262.79
181.933	97.09
182.316	73.09
182.698	82.6
183.081	106.88
183.463	77.57
183.846	105.11
184.228	161.45
184.611	129.05
184.993	244.33
185.376	-342.93
185.758	-354.09
186.14	-255.64
186.522	-691.77
186.904	-560.04
187.287	1164.22
187.669	-114.41
188.051	-60.6
188.433	1.97
188.815	8.1
189.197	2.97
189.579	7.96
189.961	-4.44
190.342	1.53
190.724	9.39
191.106	16.93
191.488	15.71
191.869	21.18
192.251	25.54
192.633	8.74
193.014	30.59
193.396	19.23
193.777	11.57
194.159	19.57
194.54	13.35
194.922	10.96
195.303	-4.78
195.684	-4.91
196.065	3.42
196.447	1.55
196.828	0.4
197.209	-3.02
197.59	1
197.971	3.31
198.352	9.97
198.733	16.85
199.114	24.33
199.495	21.05
199.876	10.34
200.257	11.4
200.638	16.57
201.018	5.81
201.399	-1.67
201.78	6.31
202.16	-12.39
202.541	-13.06
202.922	-19.69
203.302	-21.04
203.683	-18.49
204.063	-45.63
204.444	-56.75
204.824	-55.64
205.204	-47.9
205.585	-40.42
205.965	-30.82
206.345	-61.72
206.725	-67.79
207.106	-93.68
207.486	-87.58
207.866	-83.67
208.246	-75.54
208.626	-88.22
209.006	-64.05
209.386	-72.54
209.766	-64.25
210.145	-51.75
210.525	-39.26
210.905	-33.07
211.285	-24.98
211.664	-26.47
212.044	-7.53
212.424	-2.39
212.803	5
213.183	-4.47
213.562	-21.4
213.942	-17.24
214.321	-4.72
214.701	-7.1
215.08	-6.42
215.459	-2.9
215.838	-3.91
216.218	-26.76
216.597	-18.09
216.976	-23.64
217.355	-22.89
217.734	-27.07
218.113	-26.55
218.492	-39.03
218.871	-61.4
219.25	-63.43
219.629	-61.6
220.008	-75.82
220.387	-67.04
220.766	-69.7
221.144	-72.29
221.523	-67.25
221.902	-67.12
222.28	-70.24
222.659	-55.08
223.037	-48.48
223.416	-48.32
223.794	-40.01
224.173	-33.01
224.551	-26.23
224.929	-27.64
225.308	-18.44
225.686	-18.61
226.064	-15.26
226.442	-10.56
226.821	-4.44
227.199	-1.95
227.577	0.09
227.955	-1.32
228.333	1.05
228.711	1.87
229.089	5.29
229.467	1.35
229.845	-3.56
230.222	-3.77
230.6	-3.48
230.978	-1.42
231.356	-0.54
231.733	-1.24
232.111	1.36
232.488	1.6
232.866	2.48
233.243	2
233.621	1.7
233.998	0.24
234.376	0.26
234.753	0.67
235.13	-0.22
235.508	-1.46
235.885	-1.76
236.262	-2.61
236.639	-3
237.016	-3.66
237.393	-1.32
237.77	1.67
238.147	2.42
238.524	1.85
238.901	2.4
239.278	3.17
239.655	4.02
240.032	3.83
240.409	4.05
240.785	3.93
241.162	4.3
241.539	4.56
241.915	4.83
242.292	3.87
242.668	3.45
243.045	3.58
243.421	3.69
243.798	4.09
244.174	4.14
244.551	4.41
244.927	4.93
245.303	5.21
245.679	4.87
246.056	4.92
246.432	4.95
246.808	4.69
247.184	4.39
247.56	4.33
247.936	4.22
248.312	3.98
248.688	4.19
249.064	4.03
249.44	3.84
249.815	3.91
250.191	4.37
250.567	4.57
250.943	4.55
251.318	4.59
251.694	4.48
252.069	4.56
252.445	4.56
252.82	4.37
253.196	4.08
253.571	4.2
253.947	4.23
254.322	4.46
254.697	4.47
255.073	4.46
255.448	4.08
255.823	4.24
256.198	4.59
256.573	4.39
256.948	4.38
257.323	4.72
257.698	4.85
258.073	4.69
258.448	4.71
258.823	4.81
259.198	4.89
259.573	4.91
259.948	5.01
260.322	4.91
260.697	4.73
261.072	4.58
261.446	4.63
261.821	4.47
262.195	4.41
262.57	4.27
262.944	4.3
263.319	4.53
263.693	4.36
264.067	4.17
264.442	4.29
264.816	4.45
265.19	4.28
265.564	4.19
265.938	4.22
266.313	4.18
266.687	4.1
267.061	4.01
267.435	4.06
267.809	3.84
268.183	3.83
268.556	3.93
268.93	4.05
269.304	4
269.678	4.27
270.051	4.31
270.425	4.39
270.799	4.38
271.172	4.39
271.546	4.51
271.919	4.45
272.293	4.38
272.666	4.36
273.04	4.5
273.413	4.5
273.787	4.55
274.16	4.58
274.533	4.67
274.906	4.65
275.279	4.44
275.653	4.51
276.026	4.5
276.399	4.47
276.772	4.59
277.145	4.57
277.518	4.47
277.891	4.27
278.263	4.26
278.636	4.18
279.009	4.05
279.382	4.1
279.755	4.3
280.127	4.45
280.5	4.5
280.872	4.28
281.245	4.12
281.617	4
281.99	4.11
282.362	4.09
282.735	4.02
283.107	4.24
283.479	4.31
283.852	4.37
284.224	4.41
284.596	4.35
284.968	4.4
285.34	4.47
285.713	4.54
286.085	4.63
286.457	4.83
286.829	4.84
287.201	4.89
287.572	4.85
287.944	4.68
288.316	4.65
288.688	4.71
289.06	4.77
289.431	4.84
289.803	4.74
290.175	4.73
290.546	4.99
290.918	4.94
291.289	4.91
291.661	5.07
292.032	5.16
292.403	5.21
292.775	5.22
293.146	5.09
293.517	5.17
293.889	5.24
294.26	5.13
294.631	5.08
295.002	4.92
295.373	4.91
295.744	5.03
296.115	4.98
296.486	4.98
296.857	5.04
297.228	5.02
297.599	5.01
297.97	5
298.34	4.92
298.711	4.98
299.082	4.95
299.452	4.81
299.823	4.82
300.194	4.76
300.564	4.78
300.935	4.95
301.305	4.98
301.676	5
302.046	5.09
302.416	5.2
302.787	5.36
303.157	5.42
303.527	5.53
303.897	5.66
304.267	6.03
304.637	6.05
305.008	6.24
305.378	6.47
305.748	6.56
306.117	6.49
306.487	6.59
306.857	6.72
307.227	6.79
307.597	6.78
307.967	6.89
308.336	6.95
308.706	7.05
309.076	7.1
309.445	7.09
309.815	7.26
310.184	7.24
310.554	7.36
310.923	7.44
311.293	7.45
311.662	7.56
312.031	7.37
312.401	7.49
312.77	7.48
313.139	7.47
313.508	7.6
313.877	7.8
314.246	7.79
314.616	7.96
314.985	8.14
315.353	8.29
315.722	8.45
316.091	8.44
316.46	8.4
316.829	8.51
317.198	8.61
317.567	8.51
317.935	8.68
318.304	8.78
318.672	8.84
319.041	8.95
319.41	8.89
319.778	9.02
320.147	9.14
320.515	9.22
320.883	9.1
321.252	9.24
321.62	9.26
321.988	9.33
322.357	9.21
322.725	9.22
323.093	9.28
323.461	9.4
323.829	9.59
324.197	9.77
324.565	9.82
324.933	9.83
325.301	9.95
325.669	9.97
326.037	9.97
326.405	9.97
326.772	9.98
327.14	10.16
327.508	10.24
327.875	10.24
328.243	10.35
328.61	10.42
328.978	10.48
329.346	10.56
329.713	10.57
330.08	10.69
330.448	10.69
330.815	10.76
331.182	10.67
331.55	10.78
331.917	10.75
332.284	10.84
332.651	10.96
333.018	11.04
333.385	11.18
333.752	11.43
334.119	11.61
334.486	11.59
334.853	11.53
335.22	11.62
335.587	11.7
335.954	11.69
336.32	11.88
336.687	11.84
337.054	11.74
337.42	11.75
337.787	11.84
338.153	11.94
338.52	11.96
338.886	12.02
339.253	11.91
339.619	11.92
339.986	11.86
340.352	11.89
340.718	11.87
341.084	11.88
341.451	11.81
341.817	11.85
342.183	11.9
342.549	11.94
342.915	11.98
343.281	12.03
343.647	12.14
344.013	12.13
344.379	12.14
344.745	12.25
345.11	12.49
345.476	12.48
345.842	12.46
346.208	12.42
346.573	12.48
346.939	12.67
347.304	12.58
347.67	12.55
348.035	12.55
348.401	12.56
348.766	12.54
349.132	12.47
349.497	12.41
349.862	12.4
350.228	12.48
350.593	12.37
350.958	12.38
351.323	12.34
351.688	12.23
352.053	12.27
352.418	12.32
352.783	12.23
353.148	12.28
353.513	12.32
353.878	12.4
354.243	12.47
354.608	12.37
354.972	12.55
355.337	12.58
355.702	12.58
356.066	12.63
356.431	12.58
356.795	12.6
357.16	12.54
357.524	12.46
357.889	12.42
358.253	12.45
358.618	12.5
358.982	12.42
359.346	12.43
359.71	12.38
360.075	12.35
360.439	12.36
360.803	12.36
361.167	12.32
361.531	12.26
361.895	12.11
362.259	12.05
362.623	11.93
362.987	11.91
363.351	11.87
363.714	11.86
364.078	11.85
364.442	11.76
364.806	11.71
365.169	11.77
365.533	11.72
365.896	11.67
366.26	11.54
366.623	11.48
366.987	11.44
367.35	11.41
367.714	11.31
368.077	11.15
368.44	11.08
368.803	10.99
369.167	10.93
369.53	10.93
369.893	10.94
370.256	10.88
370.619	10.77
370.982	10.67
371.345	10.52
371.708	10.48
372.071	10.48
372.434	10.46
372.797	10.35
373.159	10.2
373.522	10.14
373.885	10.1
374.247	10.13
374.61	10.09
374.973	10.01
375.335	9.9
375.698	9.88
376.06	9.7
376.423	9.66
376.785	9.6
377.147	9.54
377.51	9.38
377.872	9.32
378.234	9.31
378.596	9.29
378.958	9.21
379.321	9.13
379.683	9.03
380.045	9
380.407	8.94
380.769	8.93
381.13	8.87
381.492	8.77
381.854	8.64
382.216	8.58
382.578	8.5
382.939	8.46
383.301	8.38
383.663	8.35
384.024	8.28
384.386	8.29
384.747	8.24
385.109	8.24
385.47	8.15
385.832	8.08
386.193	7.99
386.554	7.97
386.916	7.93
387.277	7.9
387.638	7.86
387.999	7.79
388.36	7.72
388.721	7.63
389.082	7.63
389.443	7.56
389.804	7.5
390.165	7.47
390.526	7.45
390.887	7.41
391.248	7.37
391.609	7.31
391.969	7.21
392.33	7.13
392.691	7.05
393.051	7.01
393.412	6.95
393.772	6.91
394.133	6.84
394.493	6.79
394.854	6.74
395.214	6.62
395.574	6.56
395.935	6.49
396.295	6.47
396.655	6.35
397.015	6.33
397.376	6.28
397.736	6.19
398.096	6.13
398.456	6.06
398.816	6
399.176	5.91
399.535	5.84
399.895	5.8
400.255	5.77
400.615	5.74
400.975	5.68
401.334	5.62
401.694	5.54
402.054	5.49
402.413	5.42
402.773	5.39
403.132	5.36
403.492	5.35
403.851	5.3
404.211	5.29
404.57	5.23
404.929	5.2
405.288	5.19
405.648	5.13
406.007	5.1
406.366	5.07
406.725	5.09
407.084	5.1
407.443	5.08
407.802	5.1
408.161	5.05
408.52	5.03
408.879	5
409.238	5.03
409.596	5
409.955	5.02
410.314	5.03
410.673	5.03
411.031	4.98
411.39	4.97
411.748	4.95
412.107	4.94
412.465	4.88
412.824	4.89
413.182	4.86
413.54	4.86
413.899	4.84
414.257	4.8
414.615	4.74
414.974	4.73
415.332	4.64
415.69	4.64
416.048	4.6
416.406	4.59
416.764	4.54
417.122	4.53
417.48	4.46
417.838	4.45
418.195	4.42
418.553	4.41
418.911	4.39
419.269	4.37
419.626	4.35
419.984	4.34
420.342	4.31
420.699	4.3
421.057	4.27
421.414	4.24
421.772	4.2
422.129	4.2
422.486	4.16
422.844	4.16
423.201	4.14
423.558	4.12
423.915	4.09
424.273	4.07
424.63	4.04
424.987	4.03
425.344	4.01
425.701	4
426.058	3.98
426.415	3.95
426.772	3.93
427.128	3.92
427.485	3.9
427.842	3.89
428.199	3.86
428.555	3.84
428.912	3.84
429.269	3.86
429.625	3.84
429.982	3.84
430.338	3.81
430.695	3.79
431.051	3.79
431.407	3.8
431.764	3.8
432.12	3.8
432.476	3.8
432.832	3.8
433.189	3.78
433.545	3.76
433.901	3.75
434.257	3.76
434.613	3.73
434.969	3.75
435.325	3.75
435.681	3.75
436.036	3.77
436.392	3.76
436.748	3.75
437.104	3.75
437.459	3.74
437.815	3.76
438.171	3.77
438.526	3.76
438.882	3.76
439.237	3.77
439.593	3.77
439.948	3.76
440.304	3.76
440.659	3.74
441.014	3.75
441.369	3.75
441.725	3.74
442.08	3.73
442.435	3.71
442.79	3.69
443.145	3.69
443.5	3.67
443.855	3.66
444.21	3.64
444.565	3.63
444.92	3.63
445.275	3.6
445.629	3.58
445.984	3.56
446.339	3.53
446.693	3.51
447.048	3.5
447.403	3.5
447.757	3.48
448.112	3.46
448.466	3.43
448.82	3.42
449.175	3.42
449.529	3.4
449.883	3.38
450.238	3.38
450.592	3.36
450.946	3.33
451.3	3.3
451.654	3.3
452.008	3.29
452.362	3.26
452.716	3.27
453.07	3.28
453.424	3.29
453.778	3.28
454.132	3.26
454.486	3.24
454.839	3.23
455.193	3.22
455.547	3.22
455.9	3.25
456.254	3.25
456.607	3.24
456.961	3.26
457.314	3.26
457.668	3.28
458.021	3.28
458.375	3.3
458.728	3.31
459.081	3.3
459.434	3.3
459.787	3.31
460.141	3.31
460.494	3.31
460.847	3.31
461.2	3.32
461.553	3.36
461.906	3.38
462.259	3.39
462.611	3.42
462.964	3.43
463.317	3.43
463.67	3.42
464.022	3.43
464.375	3.43
464.728	3.45
465.08	3.45
465.433	3.45
465.785	3.45
466.138	3.48
466.49	3.49
466.843	3.52
467.195	3.53
467.547	3.55
467.899	3.54
468.252	3.57
468.604	3.6
468.956	3.6
469.308	3.61
469.66	3.63
470.012	3.62
470.364	3.64
470.716	3.66
471.068	3.69
471.42	3.68
471.772	3.72
472.123	3.74
472.475	3.74
472.827	3.75
473.178	3.77
473.53	3.78
473.882	3.79
474.233	3.79
474.585	3.79
474.936	3.76
475.288	3.77
475.639	3.74
475.99	3.73
476.342	3.73
476.693	3.71
477.044	3.7
477.395	3.7
477.746	3.68
478.097	3.66
478.448	3.65
478.8	3.65
479.15	3.63
479.501	3.62
479.852	3.62
480.203	3.63
480.554	3.63
480.905	3.62
481.255	3.6
481.606	3.6
481.957	3.62
482.307	3.64
482.658	3.64
483.009	3.63
483.359	3.62
483.709	3.63
484.06	3.64
484.41	3.65
484.761	3.64
485.111	3.64
485.461	3.65
485.811	3.65
486.162	3.65
486.512	3.66
486.862	3.66
487.212	3.67
487.562	3.67
487.912	3.67
488.262	3.67
488.612	3.69
488.961	3.69
489.311	3.69
489.661	3.69
490.011	3.7
490.36	3.71
490.71	3.72
491.06	3.71
491.409	3.72
491.759	3.73
492.108	3.73
492.458	3.76
492.807	3.77
493.157	3.8
493.506	3.82
493.855	3.83
494.204	3.84
494.554	3.85
494.903	3.85
495.252	3.87
495.601	3.91
495.95	3.92
496.299	3.95
496.648	3.96
496.997	4
497.346	4.02
497.695	4.08
498.043	4.1
498.392	4.13
498.741	4.17
499.09	4.2
499.438	4.25
499.787	4.29
500.135	4.35
500.484	4.39
500.832	4.46
501.181	4.51
501.529	4.56
501.878	4.63
502.226	4.72
502.574	4.79
502.923	4.82
503.271	4.92
503.619	4.97
503.967	5.05
504.315	5.12
504.663	5.22
505.011	5.28
505.359	5.35
505.707	5.47
506.055	5.54
506.403	5.62
506.751	5.7
507.098	5.79
507.446	5.85
507.794	5.94
508.141	6.02
508.489	6.11
508.837	6.21
509.184	6.32
509.531	6.4
509.879	6.49
510.226	6.6
510.574	6.69
510.921	6.8
511.268	6.91
511.616	7.02
511.963	7.12
512.31	7.22
512.657	7.34
513.004	7.46
513.351	7.58
513.698	7.73
514.045	7.86
514.392	7.98
514.739	8.13
515.086	8.26
515.432	8.4
515.779	8.53
516.126	8.67
516.473	8.78
516.819	8.92
517.166	9.02
517.512	9.14
517.859	9.26
518.205	9.37
518.552	9.49
518.898	9.61
519.245	9.73
519.591	9.86
519.937	9.97
520.283	10.08
520.629	10.22
520.976	10.37
521.322	10.52
521.668	10.65
522.014	10.82
522.36	10.98
522.706	11.14
523.052	11.35
523.398	11.57
523.743	11.77
524.089	11.99
524.435	12.23
524.781	12.43
525.126	12.63
525.472	12.81
525.817	12.99
526.163	13.14
526.509	13.29
526.854	13.42
527.199	13.57
527.545	13.72
527.89	13.85
528.235	14
528.581	14.16
528.926	14.33
529.271	14.47
529.616	14.62
529.961	14.78
530.306	14.94
530.651	15.1
530.996	15.29
531.341	15.49
531.686	15.68
532.031	15.91
532.376	16.11
532.721	16.36
533.065	16.58
533.41	16.83
533.755	17.06
534.099	17.3
534.444	17.55
534.788	17.79
535.133	18.03
535.477	18.28
535.822	18.53
536.166	18.8
536.51	19.11
536.855	19.46
537.199	19.78
537.543	20.12
537.887	20.45
538.231	20.79
538.576	21.15
538.92	21.47
539.264	21.79
539.608	22.09
539.951	22.37
540.295	22.62
540.639	22.87
540.983	23.16
541.327	23.44
541.671	23.69
542.014	23.95
542.358	24.21
542.701	24.46
543.045	24.7
543.389	24.96
543.732	25.24
544.075	25.48
544.419	25.78
544.762	26.07
545.105	26.39
545.449	26.67
545.792	26.96
546.135	27.32
546.478	27.65
546.821	28.01
547.165	28.39
547.508	28.78
547.851	29.16
548.194	29.52
548.536	29.88
548.879	30.33
549.222	30.71
549.565	31.1
549.908	31.53
550.25	31.95
550.593	32.38
550.936	32.73
551.278	33.13
551.621	33.55
551.963	33.9
552.306	34.28
552.648	34.75
552.991	35.13
553.333	35.42
553.675	35.77
554.017	36.08
554.36	36.42
554.702	36.77
555.044	37.16
555.386	37.46
555.728	37.79
556.07	38.1
556.412	38.36
556.754	38.68
557.096	39.01
557.438	39.31
557.78	39.57
558.121	39.91
558.463	40.19
558.805	40.47
559.147	40.79
559.488	41.07
559.83	41.3
560.171	41.57
560.513	41.93
560.854	42.12
561.196	42.43
561.537	42.69
561.878	42.93
562.22	43.16
562.561	43.45
562.902	43.77
563.243	44.07
563.584	44.44
563.925	44.71
564.266	44.94
564.607	45.25
564.948	45.56
565.289	45.83
565.63	46.14
565.971	46.28
566.312	46.47
566.653	46.66
566.993	46.84
567.334	47.08
567.675	47.29
568.015	47.59
568.356	47.8
568.696	47.97
569.037	48.16
569.377	48.38
569.718	48.59
570.058	48.75
570.398	48.89
570.739	49.09
571.079	49.27
571.419	49.38
571.759	49.48
572.099	49.58
572.439	49.72
572.779	49.8
573.119	50.08
573.459	50.23
573.799	50.36
574.139	50.54
574.479	50.68
574.819	50.79
575.158	50.95
575.498	51.06
575.838	51.24
576.177	51.37
576.517	51.51
576.856	51.67
577.196	51.81
577.535	51.93
577.875	52.08
578.214	52.2
578.553	52.41
578.893	52.51
579.232	52.75
579.571	52.91
579.91	53.12
580.25	53.14
580.589	53.25
580.928	53.44
581.267	53.58
581.606	53.71
581.945	53.88
582.283	53.98
582.622	54.12
582.961	54.28
583.3	54.5
583.639	54.64
583.977	54.73
584.316	54.83
584.654	54.98
584.993	55.07
585.332	55.28
585.67	55.45
586.008	55.58
586.347	55.62
586.685	55.61
587.024	55.7
587.362	55.77
587.7	55.93
588.038	56.07
588.376	56.23
588.715	56.31
589.053	56.39
589.391	56.48
589.729	56.58
590.067	56.57
590.404	56.59
590.742	56.69
591.08	56.78
591.418	56.85
591.756	56.93
592.093	56.94
592.431	57
592.769	56.93
593.106	57.08
593.444	57.13
593.781	57.21
594.119	57.3
594.456	57.4
594.793	57.47
595.131	57.48
595.468	57.45
595.805	57.47
596.143	57.47
596.48	57.5
596.817	57.55
597.154	57.63
597.491	57.7
597.828	57.77
598.165	57.81
598.502	57.89
598.839	57.99
599.176	58.16
599.512	58.19
599.849	58.3
600.186	58.35
600.523	58.44
600.859	58.51
601.196	58.57
601.532	58.68
601.869	58.67
602.205	58.77
602.542	58.8
602.878	58.86
603.215	58.92
603.551	58.99
603.887	58.93
604.223	59
604.56	59.03
604.896	59.03
605.232	59.11
605.568	59.11
605.904	59.08
606.24	59.08
606.576	59.16
606.912	59.24
607.248	59.22
607.583	59.27
607.919	59.39
608.255	59.41
608.591	59.45
608.926	59.53
609.262	59.47
609.597	59.59
609.933	59.59
610.268	59.65
610.604	59.75
610.939	59.94
611.275	59.95
611.61	59.94
611.945	60.01
612.281	60.07
612.616	60.15
612.951	60.23
613.286	60.25
613.621	60.31
613.956	60.39
614.291	60.57
614.626	60.63
614.961	60.68
615.296	60.69
615.631	60.69
615.966	60.69
616.3	60.81
616.635	60.85
616.97	61
617.304	61.05
617.639	61.02
617.973	61.14
618.308	61.15
618.642	61.28
618.977	61.3
619.311	61.42
619.646	61.43
619.98	61.45
620.314	61.41
620.648	61.47
620.983	61.48
621.317	61.44
621.651	61.52
621.985	61.41
622.319	61.42
622.653	61.42
622.987	61.47
623.321	61.59
623.655	61.58
623.988	61.56
624.322	61.49
624.656	61.49
624.99	61.42
625.323	61.41
625.657	61.4
625.99	61.38
626.324	61.31
626.657	61.35
626.991	61.37
627.324	61.49
627.658	61.45
627.991	61.47
628.324	61.45
628.657	61.3
628.991	61.35
629.324	61.46
629.657	61.48
629.99	61.53
630.323	61.47
630.656	61.51
630.989	61.63
631.322	61.64
631.655	61.63
631.987	61.59
632.32	61.7
632.653	61.77
632.986	61.83
633.318	61.74
633.651	61.77
633.984	61.79
634.316	61.78
634.649	61.82
634.981	61.72
635.313	61.79
635.646	61.94
635.978	62.02
636.31	61.96
636.643	61.98
636.975	61.93
637.307	62.02
637.639	62.02
637.971	61.87
638.303	61.97
638.635	61.99
638.967	62.02
639.299	62.05
639.631	62.06
639.963	62.1
640.295	62.24
640.626	62.27
640.958	62.26
641.29	62.29
641.621	62.24
641.953	62.31
642.285	62.34
642.616	62.26
642.948	62.3
643.279	62.43
643.61	62.49
643.942	62.61
644.273	62.52
644.604	62.46
644.936	62.48
645.267	62.46
645.598	62.55
645.929	62.68
646.26	62.61
646.591	62.47
646.922	62.54
647.253	62.59
647.584	62.52
647.915	62.5
648.245	62.52
648.576	62.51
648.907	62.59
649.238	62.49
649.568	62.59
649.899	62.6
650.229	62.64
650.56	62.61
650.89	62.71
651.221	62.7
651.551	62.74
651.882	62.77
652.212	62.8
652.542	62.71
652.872	62.64
653.203	62.66
653.533	62.63
653.863	62.58
654.193	62.52
654.523	62.45
654.853	62.47
655.183	62.48
655.513	62.46
655.843	62.45
656.172	62.54
656.502	62.6
656.832	62.56
657.162	62.5
657.491	62.51
657.821	62.41
658.15	62.38
658.48	62.38
658.809	62.3
659.139	62.42
659.468	62.41
659.798	62.45
660.127	62.46
660.456	62.59
660.785	62.62
661.115	62.69
661.444	62.84
661.773	62.81
662.102	62.92
662.431	63
662.76	62.95
663.089	62.96
663.418	62.85
663.747	62.76
664.076	62.73
664.404	62.71
664.733	62.86
665.062	62.99
665.39	62.91
665.719	63.02
666.048	62.97
666.376	62.98
666.705	62.9
667.033	62.82
667.362	62.78
667.69	62.68
668.018	62.57
668.347	62.6
668.675	62.67
669.003	62.55
669.331	62.67
669.659	62.62
669.987	62.5
670.315	62.46
670.643	62.51
670.971	62.61
671.299	62.65
671.627	62.56
671.955	62.53
672.283	62.69
672.61	62.74
672.938	62.73
673.266	62.79
673.593	62.9
673.921	62.97
674.249	62.96
674.576	63
674.904	63.05
675.231	63.09
675.558	63.08
675.886	63.12
676.213	62.82
676.54	62.88
676.867	62.97
677.195	63
677.522	63.07
677.849	62.96
678.176	63.01
678.503	62.96
678.83	62.93
679.157	62.87
679.484	62.86
679.81	62.85
680.137	62.83
680.464	62.86
680.791	62.89
681.117	63.08
681.444	63.09
681.771	63.02
682.097	62.96
682.424	63.19
682.75	63.05
683.077	63.18
683.403	63.32
683.729	63.32
684.056	63.36
684.382	63.47
684.708	63.59
685.034	63.45
685.36	63.31
685.686	63.28
686.012	63.35
686.339	63.32
686.664	63.34
686.99	63.34
687.316	63.31
687.642	63.28
687.968	63.22
688.294	63.24
688.619	63.41
688.945	63.28
689.271	63.04
689.596	63.05
689.922	63.17
690.247	63.12
690.573	63.24
690.898	63.28
691.224	63.23
691.549	63.17
691.874	63.22
692.2	63.37
692.525	63.34
692.85	63.37
693.175	63.37
693.5	63.35
693.825	63.28
694.15	63.27
694.475	63.39
694.8	63.36
695.125	63.25
695.45	63.11
695.775	63.21
696.099	63.3
696.424	63.43
696.749	63.23
697.073	63.31
697.398	63.3
697.723	63.37
698.047	63.22
698.372	63.3
698.696	63.27
699.02	63.37
699.345	63.37
699.669	63.4
699.993	63.44
700.318	63.42
700.642	63.43
700.966	63.33
701.29	63.27
701.614	63.09
701.938	63
702.262	63.13
702.586	63.18
702.91	63.05
703.234	63.14
703.557	63.14
703.881	63.01
704.205	62.97
704.529	62.87
704.852	62.94
705.176	62.87
705.499	63
705.823	62.98
706.146	63.12
706.47	62.96
706.793	62.79
707.117	62.75
707.44	62.95
707.763	62.97
708.086	62.75
708.409	62.9
708.733	63.18
709.056	63.03
709.379	63.27
709.702	63.41
710.025	63.25
710.348	63.44
710.671	63.24
710.993	63.14
711.316	63.14
711.639	63.15
711.962	63.1
712.284	63.21
712.607	63.18
712.93	63.19
713.252	63.39
713.575	63.29
713.897	63.25
714.22	63.42
714.542	63.65
714.864	63.76
715.187	63.83
715.509	63.73
715.831	63.74
716.153	63.25
716.475	63.21
716.798	63.25
717.12	63.24
717.442	63.33
717.764	63.64
718.085	63.55
718.407	63.37
718.729	63.49
719.051	63.37
719.373	63.34
719.695	63.33
720.016	62.92
720.338	63.22
720.659	63.23
720.981	62.76
721.302	62.54
721.624	62.49
721.945	62.32
722.267	62.42
722.588	62.51
722.909	62.89
723.231	62.8
723.552	62.76
723.873	62.86
724.194	62.7
724.515	62.46
724.836	62.42
725.157	62.83
725.478	62.63
725.799	62.54
726.12	62.45
726.441	62.48
726.762	62.73
727.083	62.45
727.403	62.53
727.724	62.46
728.045	62.42
728.365	62.63
728.686	62.74
729.006	62.66
729.327	62.71
729.647	62.64
729.967	62.56
730.288	62.72
730.608	62.42
730.928	62.53
731.249	62.35
731.569	62.38
731.889	62.32
732.209	62.32
732.529	62.35
732.849	62.28
733.169	62.13
733.489	62.13
733.809	62.36
734.129	62.33
734.448	62.68
734.768	62.72
735.088	62.79
735.408	62.89
735.727	63.06
736.047	62.97
736.366	63.18
736.686	63.06
737.005	62.82
737.325	63.05
737.644	63.26
737.963	63.41
738.283	63.59
738.602	63.35
738.921	63.51
739.24	63.58
739.56	63.72
739.879	63.94
740.198	64.21
740.517	64.46
740.836	64.66
741.155	64.65
741.473	64.54
741.792	64.46
742.111	64.17
742.43	63.84
742.748	63.76
743.067	63.4
743.386	63.9
743.704	63.99
744.023	64.13
744.341	63.93
744.66	64.15
744.978	64.17
745.297	64.59
745.615	64.75
745.933	64.76
746.252	64.59
746.57	64.53
746.888	63.88
747.206	63.51
747.524	63.49
747.842	63.43
748.16	63.56
748.478	63.47
748.796	63.81
749.114	64.04
749.432	64.05
749.749	63.86
750.067	63.55
750.385	63.53
750.703	63.26
751.02	63.03
751.338	62.92
751.655	62.51
751.973	62.33
752.29	61.92
752.608	61.95
752.925	62.05
753.242	61.96
753.56	62.43
753.877	62.64
754.194	62.54
754.511	62.42
754.828	62.11
755.145	62.07
755.462	62.17
755.779	62.04
756.096	62.21
756.413	62.36
756.73	62.57
757.047	62.62
757.364	62.37
757.68	62.62
757.997	62.72
758.314	62.91
758.63	62.87
758.947	63.07
759.264	63
759.58	63.08
759.896	62.99
760.213	63.01
760.529	62.92
760.846	62.8
761.162	62.92
761.478	63.7
761.794	63.5
762.11	63.34
762.426	63.43
762.743	63.35
763.059	63.41
763.375	63.27
763.69	63.01
764.006	63.39
764.322	63.58
764.638	63.58
764.954	63.71
765.27	63.63
765.585	63.68
765.901	63.47
766.216	63.42
766.532	63.58
766.848	63.44
767.163	63.53
767.478	63.47
767.794	63.37
768.109	62.79
768.424	63.21
768.74	63.31
769.055	63.17
769.37	63.36
769.685	63.59
770	64.14
770.315	64.61
770.63	64.2
770.945	63.96
771.26	63.83
771.575	63.76
771.89	63.6
772.205	63.25
772.52	63.93
772.834	63.5
773.149	63.61
773.464	63.66
773.778	63.64
774.093	63.34
774.407	63.69
774.722	63.83
775.036	63.59
775.351	63.38
775.665	63.81
775.979	63.5
776.293	63.46
776.608	62.85
776.922	62.94
777.236	63.38
777.55	63.2
777.864	63.43
778.178	63.87
778.492	63.73
778.806	63.58
779.12	63.75
779.434	64.37
779.747	64.36
780.061	64.78
780.375	64.34
780.689	64.74
781.002	63.91
781.316	64.24
781.629	64.36
781.943	64.2
782.256	63.71
782.57	63.43
782.883	63.09
783.196	62.92
783.51	62.47
783.823	62.43
784.136	63.17
784.449	62.89
784.762	62.58
785.075	62.58
785.388	63.24
785.701	62.77
786.014	63.01
786.327	62.83
786.64	62.62
786.953	62.67
787.266	63.12
787.578	63.79
787.891	63.41
788.204	63.34
788.516	63.44
788.829	63.48
789.141	63.84
789.454	64.17
789.766	64.21
790.079	64.57
790.391	64.1
790.703	63.11
791.016	63.34
791.328	63.35
791.64	63.31
791.952	62.92
792.264	61.95
792.576	61.73
792.888	61.57
793.2	61.3
793.512	61.49
793.824	60.86
794.136	60.06
794.448	60.65
794.76	60.35
795.071	60.3
795.383	60.19
795.695	59.91
796.006	59.67
796.318	59.78
796.629	59.39
796.941	60.07
797.252	60.84
797.564	60.54
797.875	60.47
798.186	60.65
798.497	60.85
798.809	61.86
799.12	61.93
799.431	61.86
799.742	61.89
800.053	62.26
800.364	62.48
800.675	62.79
800.986	62.62
801.297	62.69
801.608	63.19
801.918	63.84
802.229	64.13
802.54	64.18
802.851	64.88
803.161	65.04
803.472	64.47
803.782	64.39
804.093	64.21
804.403	63.97
804.714	64.41
805.024	64.28
805.334	64.27
805.645	64.18
805.955	64.18
806.265	63.9
806.575	64.01
806.885	64.33
807.195	64.51
807.505	63.9
807.815	63.79
808.125	63.34
808.435	63.66
808.745	63.84
809.055	63.96
809.365	62.66
809.674	62.29
809.984	62.67
810.294	62.58
810.603	62.95
810.913	63.01
811.222	62.86
811.532	62.63
811.841	62.3
812.151	62.53
812.46	62.23
812.769	62.77
813.079	61.99
813.388	61.71
813.697	61.94
814.006	61.98
814.315	62.33
814.624	62.58
814.933	61.32
815.242	60.97
815.551	60.79
815.86	61.41
816.169	62.58
816.478	61.82
816.786	61.95
817.095	61.28
817.404	61.68
817.712	61.78
818.021	62.23
818.33	62.4
818.638	62
818.947	62.52
819.255	62.58
819.563	62.51
819.872	62.55
820.18	62.44
820.488	62.27
820.796	62.31
821.105	62.25
821.413	62.75
821.721	62.83
822.029	62.78
822.337	63.08
822.645	63.04
822.953	63.18
823.26	63.17
823.568	63.45
823.876	63.27
824.184	63.26
824.491	63.24
824.799	63.15
825.107	63.23
825.414	63.3
825.722	63.3
826.029	63.39
826.337	63.49
826.644	63.75
826.951	63.84
827.259	64.12
827.566	63.98
827.873	63.82
828.18	63.81
828.488	64.1
828.795	63.8
829.102	63.37
829.409	63.22
829.716	63.27
830.023	63.14
830.329	63.63
830.636	63.59
830.943	63.77
831.25	63.73
831.557	63.27
831.863	62.61
832.17	62.33
832.476	62.69
832.783	62.45
833.089	61.97
833.396	61.98
833.702	61.58
834.009	61.89
834.315	61.62
834.621	61.79
834.928	61.43
835.234	60.82
835.54	61.28
835.846	61.68
836.152	61.55
836.458	61.37
836.764	61.07
837.07	60.64
837.376	60.3
837.682	60.62
837.988	60.97
838.293	61.21
838.599	61
838.905	60.05
839.211	60.19
839.516	60.34
839.822	60.93
840.127	60.4
840.433	60.28
840.738	60.28
841.044	59.45
841.349	59.4
841.654	60.24
841.959	59.96
842.265	59.63
842.57	58.79
842.875	58.52
843.18	58.71
843.485	59.86
843.79	60.36
844.095	59.77
844.4	60.26
844.705	60.3
845.01	60.51
845.315	61.02
845.619	60.92
845.924	61.93
846.229	61.45
846.533	61.96
846.838	61.52
847.142	63.78
847.447	64.64
847.751	63.77
848.056	63.39
848.36	63.82
848.664	63.15
848.969	65.33
849.273	65.14
849.577	64.51
849.881	63.3
850.185	64.15
850.489	67.58
850.794	68.14
851.097	68.71
851.401	68.84
851.705	68.27
852.009	67.67
852.313	64.84
852.617	63.72
852.92	64.89
853.224	64.71
853.528	63.19
853.831	63.83
854.135	65.94
854.438	69.71
854.742	69.05
855.045	70.49
855.349	69.08
855.652	69.52
855.955	68.02
856.259	69.88
856.562	68.59
856.865	66.16
857.168	65.22
857.471	65.8
857.774	66.14
858.077	65.13
858.38	66.15
858.683	68.75
858.986	69.83
859.289	69.17
859.592	69.3
859.894	70.86
860.197	68.77
860.5	68.54
860.802	63.88
861.105	63.16
861.407	62.84
861.71	64.87
862.012	62.52
862.315	64.63
862.617	62.82
862.919	63.76
863.222	62.58
863.524	63.78
863.826	64.09
864.128	63.02
864.43	65.33
864.732	63.3
865.034	61.01
865.336	62.08
865.638	61.19
865.94	63.46
866.242	61.12
866.544	63.95
866.846	61.5
867.147	63.32
867.449	64.53
867.751	63.29
868.052	61.54
868.354	65.42
868.655	65.07
868.957	64.24
869.258	61.02
869.56	61.68
869.861	61.21
870.162	62.01
870.463	64.32
870.765	65.15
871.066	64.94
871.367	66.08
871.668	66.21
871.969	65.14
872.27	63.52
872.571	59.28
872.872	58.31
873.173	58.94
873.473	58.06
873.774	59.68
874.075	61.3
874.376	59.96
874.676	59.52
874.977	56.57
875.277	57.29
875.578	58.81
875.878	58.78
876.179	57.45
876.479	55.88
876.78	54.5
877.08	52.56
877.38	53.99
877.68	53.39
877.981	50.23
878.281	51.2
878.581	50.09
