Data from BA57748_Reflection_00003.txt Node
Date: Mon Nov 18 15:55:15 EST 2019
User: vgr7
Spectrometer: USB2G7710
Scans to average: 3
Trigger mode: 4
Integration Time (sec): 2.000000E-2
Electric dark correction enabled: true
Boxcar width: 10
XAxis mode: Wavelengths
Number of Pixels in Spectrum: 2048
>>>>>Begin Spectral Data<<<<<
177.721	-2.73
178.105	20.35
178.488	60.19
178.871	65.12
179.254	78.23
179.636	-53.54
180.019	13.89
180.402	159.09
180.785	73.85
181.168	228.83
181.55	-349.39
181.933	144.09
182.316	126.49
182.698	107.25
183.081	136.1
183.463	161.91
183.846	374.78
184.228	252.92
184.611	317.47
184.993	817.22
185.376	870.9
185.758	-1444.38
186.14	368.36
186.522	543.38
186.904	318.59
187.287	151.82
187.669	182.96
188.051	161.69
188.433	266.89
188.815	225.15
189.197	151.88
189.579	144.54
189.961	160.06
190.342	168.11
190.724	336.08
191.106	363.79
191.488	-5170.27
191.869	-912.74
192.251	3246.34
192.633	231.96
193.014	116.25
193.396	213.48
193.777	192.19
194.159	158.72
194.54	338.22
194.922	1090.95
195.303	-3340.37
195.684	1471.75
196.065	-1137.39
196.447	22158.82
196.828	-12964.52
197.209	-12964.52
197.59	6049.15
197.971	2224.32
198.352	-10359.46
198.733	674.95
199.114	1771.76
199.495	314.59
199.876	431.89
200.257	1390.5
200.638	-410.28
201.018	-602.77
201.399	-224.97
201.78	-170.7
202.16	-226.28
202.541	-32042.86
202.922	499.62
203.302	216.47
203.683	1152.36
204.063	354.84
204.444	666.56
204.824	790.38
205.204	923.26
205.585	515.14
205.965	-675.61
206.345	-723.83
206.725	-872.41
207.106	-12373.68
207.486	-1520.32
207.866	2355.47
208.246	-1680.75
208.626	-2145.03
209.006	-659.04
209.386	1201.82
209.766	945.2
210.145	958.74
210.525	1613.27
210.905	-245.27
211.285	-164.34
211.664	-88.46
212.044	-18.25
212.424	-43.19
212.803	-14.25
213.183	8.69
213.562	0.88
213.942	-1.16
214.321	-11.2
214.701	-47.63
215.08	-17.89
215.459	-23
215.838	-13.71
216.218	14.84
216.597	19.53
216.976	34.71
217.355	61.76
217.734	69.11
218.113	48.84
218.492	42.28
218.871	9.27
219.25	7.32
219.629	-12.93
220.008	-5.16
220.387	-5.7
220.766	-12.84
221.144	-67.15
221.523	-42.1
221.902	-69.89
222.28	-130.4
222.659	-92.34
223.037	-69.64
223.416	-73.29
223.794	-69.04
224.173	-48.77
224.551	-45.99
224.929	-61.86
225.308	-29.6
225.686	-22.53
226.064	-16.65
226.442	-17.97
226.821	-4.42
227.199	-4.21
227.577	-3.09
227.955	-9.61
228.333	-12.13
228.711	-10.91
229.089	-5.18
229.467	-8.78
229.845	-10.45
230.222	-6.93
230.6	-11.72
230.978	-10.41
231.356	-9.23
231.733	-7.22
232.111	-8.25
232.488	-7.88
232.866	-6.7
233.243	-7.57
233.621	-7.68
233.998	-6
234.376	-7.39
234.753	-7.85
235.13	-7.93
235.508	-4.97
235.885	-3.98
236.262	-3.34
236.639	-3.54
237.016	-1.83
237.393	-0.49
237.77	1.91
238.147	2.21
238.524	3.97
238.901	3.71
239.278	4.67
239.655	4.79
240.032	4.47
240.409	3.48
240.785	3.21
241.162	3.65
241.539	3.83
241.915	3.48
242.292	3.7
242.668	2.97
243.045	2.77
243.421	2.47
243.798	2.26
244.174	2.37
244.551	2.75
244.927	2.28
245.303	2.13
245.679	2.07
246.056	2.24
246.432	2.34
246.808	2.36
247.184	2.04
247.56	1.72
247.936	1.54
248.312	1.95
248.688	2.29
249.064	2.04
249.44	1.86
249.815	1.63
250.191	1.67
250.567	2.12
250.943	2.04
251.318	2.22
251.694	1.96
252.069	1.79
252.445	1.9
252.82	2.14
253.196	2.22
253.571	1.95
253.947	1.97
254.322	1.65
254.697	1.49
255.073	1.07
255.448	1.05
255.823	1.64
256.198	1.36
256.573	1.22
256.948	1.34
257.323	1.55
257.698	1.64
258.073	1.54
258.448	1.47
258.823	1.48
259.198	1.33
259.573	1.37
259.948	1.42
260.322	1.21
260.697	1.07
261.072	1.03
261.446	1
261.821	0.77
262.195	0.97
262.57	0.86
262.944	0.97
263.319	0.9
263.693	0.66
264.067	0.68
264.442	0.76
264.816	0.78
265.19	0.61
265.564	0.55
265.938	0.54
266.313	0.4
266.687	0.61
267.061	0.8
267.435	1.02
267.809	0.88
268.183	0.85
268.556	0.76
268.93	0.88
269.304	1.04
269.678	1.23
270.051	1.14
270.425	1.35
270.799	1.4
271.172	1.57
271.546	1.52
271.919	1.62
272.293	1.57
272.666	1.51
273.04	1.51
273.413	1.73
273.787	1.56
274.16	1.47
274.533	1.42
274.906	1.26
275.279	1.2
275.653	1.28
276.026	1.31
276.399	1.5
276.772	1.57
277.145	1.45
277.518	1.52
277.891	1.6
278.263	1.46
278.636	1.31
279.009	1.5
279.382	1.65
279.755	1.42
280.127	1.62
280.5	1.65
280.872	1.88
281.245	1.55
281.617	1.86
281.99	1.98
282.362	2.13
282.735	2.15
283.107	2.17
283.479	2.19
283.852	2.18
284.224	2.26
284.596	2.19
284.968	2.27
285.34	2.2
285.713	2.14
286.085	2.14
286.457	2.34
286.829	2.39
287.201	2.29
287.572	2.31
287.944	2.03
288.316	2.04
288.688	1.94
289.06	2.1
289.431	2.08
289.803	2.07
290.175	1.96
290.546	2.09
290.918	2.13
291.289	2.24
291.661	2.3
292.032	2.22
292.403	2.22
292.775	2.27
293.146	2.28
293.517	2.26
293.889	2.4
294.26	2.31
294.631	2.15
295.002	2.3
295.373	2.34
295.744	2.54
296.115	2.62
296.486	2.46
296.857	2.58
297.228	2.58
297.599	2.57
297.97	2.55
298.34	2.52
298.711	2.59
299.082	2.5
299.452	2.55
299.823	2.58
300.194	2.67
300.564	2.6
300.935	2.57
301.305	2.69
301.676	2.7
302.046	2.84
302.416	2.92
302.787	2.88
303.157	2.87
303.527	2.85
303.897	2.78
304.267	3.06
304.637	2.83
305.008	2.89
305.378	2.96
305.748	3.15
306.117	3.17
306.487	3.18
306.857	3.24
307.227	3.14
307.597	3.16
307.967	3.08
308.336	3.11
308.706	3.14
309.076	3.06
309.445	2.89
309.815	2.75
310.184	2.64
310.554	2.74
310.923	2.78
311.293	2.72
311.662	2.6
312.031	2.54
312.401	2.7
312.77	2.68
313.139	2.69
313.508	2.45
313.877	2.3
314.246	2.17
314.616	2.1
314.985	2.15
315.353	2.04
315.722	2.07
316.091	1.87
316.46	1.62
316.829	1.61
317.198	1.77
317.567	1.84
317.935	1.82
318.304	1.72
318.672	1.66
319.041	1.69
319.41	1.79
319.778	1.69
320.147	1.55
320.515	1.5
320.883	1.4
321.252	1.61
321.62	1.66
321.988	1.79
322.357	1.82
322.725	1.71
323.093	1.87
323.461	1.81
323.829	1.99
324.197	2.2
324.565	2.16
324.933	2.12
325.301	2.06
325.669	2.22
326.037	2.13
326.405	2.24
326.772	2.27
327.14	2.35
327.508	2.42
327.875	2.36
328.243	2.38
328.61	2.38
328.978	2.34
329.346	2.51
329.713	2.37
330.08	2.28
330.448	2.25
330.815	2.13
331.182	2.22
331.55	2.18
331.917	2.25
332.284	2.33
332.651	2.28
333.018	2.31
333.385	2.18
333.752	2.24
334.119	2.3
334.486	2.26
334.853	2.22
335.22	2.28
335.587	2.39
335.954	2.19
336.32	2.12
336.687	2.17
337.054	1.93
337.42	2.11
337.787	2.27
338.153	2.38
338.52	2.45
338.886	2.34
339.253	2.39
339.619	2.28
339.986	2.28
340.352	2.36
340.718	2.33
341.084	2.37
341.451	2.44
341.817	2.41
342.183	2.31
342.549	2.33
342.915	2.33
343.281	2.23
343.647	2.41
344.013	2.46
344.379	2.41
344.745	2.42
345.11	2.37
345.476	2.3
345.842	2.26
346.208	2.2
346.573	2.31
346.939	2.32
347.304	2.32
347.67	2.22
348.035	2.12
348.401	2.16
348.766	2.19
349.132	2.11
349.497	2.02
349.862	2.15
350.228	2.11
350.593	2.07
350.958	2.14
351.323	2.11
351.688	2.11
352.053	2.15
352.418	2.28
352.783	2.27
353.148	2.26
353.513	2.3
353.878	2.39
354.243	2.43
354.608	2.44
354.972	2.48
355.337	2.59
355.702	2.7
356.066	2.75
356.431	2.65
356.795	2.73
357.16	2.68
357.524	2.55
357.889	2.55
358.253	2.58
358.618	2.61
358.982	2.6
359.346	2.56
359.71	2.52
360.075	2.45
360.439	2.45
360.803	2.39
361.167	2.34
361.531	2.28
361.895	2.2
362.259	2.12
362.623	2.16
362.987	2.08
363.351	2.07
363.714	2.04
364.078	2.02
364.442	1.89
364.806	1.96
365.169	2.04
365.533	1.97
365.896	1.94
366.26	1.92
366.623	1.9
366.987	1.99
367.35	1.95
367.714	1.94
368.077	1.89
368.44	1.95
368.803	1.98
369.167	1.95
369.53	1.9
369.893	1.99
370.256	1.96
370.619	1.97
370.982	1.92
371.345	1.93
371.708	1.97
372.071	2.08
372.434	1.99
372.797	2
373.159	2.03
373.522	2
373.885	2.09
374.247	2.15
374.61	2.11
374.973	2.09
375.335	2.09
375.698	2.14
376.06	2.13
376.423	2.1
376.785	2.12
377.147	2.18
377.51	2.16
377.872	2.15
378.234	2.19
378.596	2.21
378.958	2.17
379.321	2.21
379.683	2.19
380.045	2.23
380.407	2.21
380.769	2.26
381.13	2.3
381.492	2.21
381.854	2.15
382.216	2.12
382.578	2.13
382.939	2.11
383.301	2.07
383.663	2.04
384.024	2.02
384.386	2.05
384.747	2.11
385.109	2.1
385.47	2.05
385.832	2.02
386.193	1.99
386.554	1.98
386.916	1.92
387.277	1.9
387.638	1.92
387.999	1.92
388.36	1.87
388.721	1.82
389.082	1.85
389.443	1.85
389.804	1.85
390.165	1.88
390.526	1.91
390.887	1.92
391.248	1.98
391.609	2.03
391.969	2
392.33	1.95
392.691	1.95
393.051	1.97
393.412	1.94
393.772	1.97
394.133	1.97
394.493	2.02
394.854	2.03
395.214	2.02
395.574	2.05
395.935	2.08
396.295	2.13
396.655	2.12
397.015	2.11
397.376	2.13
397.736	2.13
398.096	2.15
398.456	2.13
398.816	2.13
399.176	2.11
399.535	2.13
399.895	2.13
400.255	2.15
400.615	2.16
400.975	2.18
401.334	2.19
401.694	2.16
402.054	2.16
402.413	2.17
402.773	2.14
403.132	2.11
403.492	2.12
403.851	2.12
404.211	2.11
404.57	2.1
404.929	2.09
405.288	2.09
405.648	2.07
406.007	2.05
406.366	2.05
406.725	2.06
407.084	2.1
407.443	2.12
407.802	2.13
408.161	2.14
408.52	2.14
408.879	2.14
409.238	2.16
409.596	2.14
409.955	2.13
410.314	2.15
410.673	2.14
411.031	2.13
411.39	2.11
411.748	2.12
412.107	2.14
412.465	2.15
412.824	2.16
413.182	2.16
413.54	2.17
413.899	2.15
414.257	2.15
414.615	2.09
414.974	2.12
415.332	2.1
415.69	2.1
416.048	2.09
416.406	2.1
416.764	2.1
417.122	2.13
417.48	2.12
417.838	2.13
418.195	2.13
418.553	2.12
418.911	2.12
419.269	2.12
419.626	2.13
419.984	2.15
420.342	2.14
420.699	2.14
421.057	2.15
421.414	2.14
421.772	2.15
422.129	2.15
422.486	2.14
422.844	2.15
423.201	2.14
423.558	2.16
423.915	2.15
424.273	2.15
424.63	2.13
424.987	2.14
425.344	2.14
425.701	2.14
426.058	2.14
426.415	2.15
426.772	2.14
427.128	2.12
427.485	2.1
427.842	2.1
428.199	2.11
428.555	2.11
428.912	2.12
429.269	2.12
429.625	2.12
429.982	2.11
430.338	2.08
430.695	2.09
431.051	2.06
431.407	2.07
431.764	2.06
432.12	2.06
432.476	2.06
432.832	2.06
433.189	2.07
433.545	2.08
433.901	2.08
434.257	2.09
434.613	2.09
434.969	2.1
435.325	2.1
435.681	2.1
436.036	2.09
436.392	2.09
436.748	2.08
437.104	2.08
437.459	2.09
437.815	2.11
438.171	2.1
438.526	2.12
438.882	2.11
439.237	2.12
439.593	2.13
439.948	2.13
440.304	2.12
440.659	2.11
441.014	2.11
441.369	2.1
441.725	2.09
442.08	2.11
442.435	2.1
442.79	2.11
443.145	2.12
443.5	2.12
443.855	2.13
444.21	2.12
444.565	2.12
444.92	2.12
445.275	2.11
445.629	2.13
445.984	2.11
446.339	2.1
446.693	2.09
447.048	2.1
447.403	2.1
447.757	2.12
448.112	2.12
448.466	2.12
448.82	2.12
449.175	2.12
449.529	2.1
449.883	2.08
450.238	2.07
450.592	2.08
450.946	2.06
451.3	2.05
451.654	2.06
452.008	2.07
452.362	2.07
452.716	2.06
453.07	2.06
453.424	2.08
453.778	2.08
454.132	2.09
454.486	2.07
454.839	2.08
455.193	2.07
455.547	2.06
455.9	2.07
456.254	2.08
456.607	2.09
456.961	2.11
457.314	2.12
457.668	2.12
458.021	2.1
458.375	2.11
458.728	2.12
459.081	2.12
459.434	2.11
459.787	2.12
460.141	2.13
460.494	2.13
460.847	2.13
461.2	2.13
461.553	2.13
461.906	2.14
462.259	2.15
462.611	2.16
462.964	2.17
463.317	2.16
463.67	2.15
464.022	2.14
464.375	2.13
464.728	2.14
465.08	2.15
465.433	2.15
465.785	2.14
466.138	2.15
466.49	2.14
466.843	2.13
467.195	2.14
467.547	2.12
467.899	2.11
468.252	2.1
468.604	2.1
468.956	2.08
469.308	2.08
469.66	2.05
470.012	2.05
470.364	2.06
470.716	2.06
471.068	2.06
471.42	2.07
471.772	2.09
472.123	2.09
472.475	2.08
472.827	2.1
473.178	2.11
473.53	2.1
473.882	2.11
474.233	2.11
474.585	2.11
474.936	2.11
475.288	2.13
475.639	2.14
475.99	2.14
476.342	2.17
476.693	2.16
477.044	2.18
477.395	2.17
477.746	2.18
478.097	2.17
478.448	2.17
478.8	2.18
479.15	2.15
479.501	2.15
479.852	2.16
480.203	2.16
480.554	2.16
480.905	2.17
481.255	2.18
481.606	2.18
481.957	2.18
482.307	2.18
482.658	2.18
483.009	2.18
483.359	2.18
483.709	2.18
484.06	2.19
484.41	2.19
484.761	2.2
485.111	2.19
485.461	2.19
485.811	2.19
486.162	2.2
486.512	2.21
486.862	2.22
487.212	2.22
487.562	2.22
487.912	2.22
488.262	2.22
488.612	2.22
488.961	2.22
489.311	2.23
489.661	2.23
490.011	2.23
490.36	2.23
490.71	2.24
491.06	2.23
491.409	2.24
491.759	2.23
492.108	2.23
492.458	2.23
492.807	2.24
493.157	2.23
493.506	2.24
493.855	2.22
494.204	2.22
494.554	2.21
494.903	2.2
495.252	2.2
495.601	2.2
495.95	2.21
496.299	2.19
496.648	2.18
496.997	2.18
497.346	2.2
497.695	2.21
498.043	2.21
498.392	2.21
498.741	2.21
499.09	2.21
499.438	2.22
499.787	2.23
500.135	2.22
500.484	2.23
500.832	2.23
501.181	2.22
501.529	2.22
501.878	2.22
502.226	2.22
502.574	2.23
502.923	2.21
503.271	2.21
503.619	2.24
503.967	2.25
504.315	2.23
504.663	2.23
505.011	2.23
505.359	2.21
505.707	2.24
506.055	2.24
506.403	2.24
506.751	2.26
507.098	2.24
507.446	2.26
507.794	2.23
508.141	2.23
508.489	2.24
508.837	2.25
509.184	2.25
509.531	2.26
509.879	2.27
510.226	2.29
510.574	2.28
510.921	2.27
511.268	2.27
511.616	2.28
511.963	2.28
512.31	2.29
512.657	2.28
513.004	2.27
513.351	2.29
513.698	2.29
514.045	2.25
514.392	2.27
514.739	2.27
515.086	2.29
515.432	2.29
515.779	2.28
516.126	2.28
516.473	2.3
516.819	2.3
517.166	2.32
517.512	2.32
517.859	2.35
518.205	2.34
518.552	2.36
518.898	2.36
519.245	2.36
519.591	2.34
519.937	2.35
520.283	2.35
520.629	2.36
520.976	2.37
521.322	2.39
521.668	2.39
522.014	2.4
522.36	2.39
522.706	2.4
523.052	2.42
523.398	2.43
523.743	2.44
524.089	2.45
524.435	2.44
524.781	2.43
525.126	2.44
525.472	2.45
525.817	2.45
526.163	2.45
526.509	2.46
526.854	2.47
527.199	2.48
527.545	2.48
527.89	2.48
528.235	2.48
528.581	2.47
528.926	2.48
529.271	2.47
529.616	2.48
529.961	2.49
530.306	2.49
530.651	2.48
530.996	2.49
531.341	2.47
531.686	2.47
532.031	2.47
532.376	2.47
532.721	2.47
533.065	2.46
533.41	2.46
533.755	2.46
534.099	2.48
534.444	2.47
534.788	2.48
535.133	2.49
535.477	2.49
535.822	2.5
536.166	2.48
536.51	2.48
536.855	2.47
537.199	2.46
537.543	2.45
537.887	2.46
538.231	2.44
538.576	2.45
538.92	2.45
539.264	2.47
539.608	2.47
539.951	2.48
540.295	2.48
540.639	2.5
540.983	2.5
541.327	2.48
541.671	2.49
542.014	2.49
542.358	2.48
542.701	2.49
543.045	2.49
543.389	2.5
543.732	2.51
544.075	2.52
544.419	2.51
544.762	2.52
545.105	2.53
545.449	2.55
545.792	2.55
546.135	2.57
546.478	2.55
546.821	2.53
547.165	2.53
547.508	2.53
547.851	2.52
548.194	2.51
548.536	2.51
548.879	2.51
549.222	2.49
549.565	2.51
549.908	2.5
550.25	2.54
550.593	2.55
550.936	2.55
551.278	2.55
551.621	2.57
551.963	2.56
552.306	2.57
552.648	2.56
552.991	2.54
553.333	2.51
553.675	2.51
554.017	2.55
554.36	2.54
554.702	2.54
555.044	2.54
555.386	2.56
555.728	2.57
556.07	2.6
556.412	2.6
556.754	2.58
557.096	2.58
557.438	2.56
557.78	2.53
558.121	2.54
558.463	2.55
558.805	2.52
559.147	2.51
559.488	2.49
559.83	2.52
560.171	2.53
560.513	2.57
560.854	2.59
561.196	2.58
561.537	2.56
561.878	2.55
562.22	2.55
562.561	2.54
562.902	2.54
563.243	2.51
563.584	2.54
563.925	2.54
564.266	2.53
564.607	2.53
564.948	2.53
565.289	2.52
565.63	2.49
565.971	2.5
566.312	2.49
566.653	2.51
566.993	2.49
567.334	2.48
567.675	2.46
568.015	2.48
568.356	2.46
568.696	2.48
569.037	2.48
569.377	2.49
569.718	2.51
570.058	2.51
570.398	2.51
570.739	2.48
571.079	2.49
571.419	2.51
571.759	2.51
572.099	2.52
572.439	2.54
572.779	2.56
573.119	2.58
573.459	2.6
573.799	2.6
574.139	2.61
574.479	2.61
574.819	2.63
575.158	2.63
575.498	2.64
575.838	2.63
576.177	2.63
576.517	2.63
576.856	2.64
577.196	2.63
577.535	2.65
577.875	2.65
578.214	2.66
578.553	2.64
578.893	2.62
579.232	2.6
579.571	2.62
579.91	2.63
580.25	2.59
580.589	2.57
580.928	2.55
581.267	2.54
581.606	2.55
581.945	2.53
582.283	2.48
582.622	2.47
582.961	2.51
583.3	2.5
583.639	2.51
583.977	2.51
584.316	2.52
584.654	2.51
584.993	2.52
585.332	2.52
585.67	2.52
586.008	2.54
586.347	2.57
586.685	2.54
587.024	2.55
587.362	2.59
587.7	2.62
588.038	2.67
588.376	2.68
588.715	2.67
589.053	2.73
589.391	2.74
589.729	2.74
590.067	2.69
590.404	2.72
590.742	2.73
591.08	2.69
591.418	2.68
591.756	2.72
592.093	2.74
592.431	2.74
592.769	2.76
593.106	2.77
593.444	2.72
593.781	2.72
594.119	2.72
594.456	2.68
594.793	2.66
595.131	2.64
595.468	2.65
595.805	2.67
596.143	2.62
596.48	2.63
596.817	2.63
597.154	2.66
597.491	2.66
597.828	2.66
598.165	2.68
598.502	2.68
598.839	2.65
599.176	2.65
599.512	2.64
599.849	2.63
600.186	2.65
600.523	2.71
600.859	2.75
601.196	2.72
601.532	2.75
601.869	2.73
602.205	2.7
602.542	2.7
602.878	2.69
603.215	2.68
603.551	2.67
603.887	2.71
604.223	2.7
604.56	2.68
604.896	2.68
605.232	2.72
605.568	2.72
605.904	2.72
606.24	2.74
606.576	2.73
606.912	2.74
607.248	2.7
607.583	2.7
607.919	2.68
608.255	2.68
608.591	2.71
608.926	2.76
609.262	2.8
609.597	2.79
609.933	2.78
610.268	2.79
610.604	2.83
610.939	2.84
611.275	2.82
611.61	2.84
611.945	2.88
612.281	2.85
612.616	2.85
612.951	2.88
613.286	2.86
613.621	2.86
613.956	2.83
614.291	2.87
614.626	2.87
614.961	2.86
615.296	2.88
615.631	2.84
615.966	2.84
616.3	2.81
616.635	2.81
616.97	2.78
617.304	2.79
617.639	2.78
617.973	2.76
618.308	2.75
618.642	2.78
618.977	2.72
619.311	2.73
619.646	2.74
619.98	2.68
620.314	2.65
620.648	2.73
620.983	2.75
621.317	2.74
621.651	2.75
621.985	2.77
622.319	2.77
622.653	2.78
622.987	2.78
623.321	2.77
623.655	2.8
623.988	2.85
624.322	2.87
624.656	2.86
624.99	2.86
625.323	2.86
625.657	2.86
625.99	2.93
626.324	2.91
626.657	2.91
626.991	2.96
627.324	2.99
627.658	2.95
627.991	3
628.324	3.02
628.657	3
628.991	2.98
629.324	3.01
629.657	3.04
629.99	3.05
630.323	3.05
630.656	3.09
630.989	3.09
631.322	3.12
631.655	3.1
631.987	3.07
632.32	3.11
632.653	3.01
632.986	2.94
633.318	2.93
633.651	2.95
633.984	2.92
634.316	2.92
634.649	2.95
634.981	2.92
635.313	2.89
635.646	2.92
635.978	2.94
636.31	2.92
636.643	2.89
636.975	2.94
637.307	2.97
637.639	2.88
637.971	2.84
638.303	2.8
638.635	2.8
638.967	2.86
639.299	2.84
639.631	2.95
639.963	2.93
640.295	2.94
640.626	2.94
640.958	2.94
641.29	2.94
641.621	2.89
641.953	2.83
642.285	2.86
642.616	2.86
642.948	2.82
643.279	2.77
643.61	2.78
643.942	2.72
644.273	2.7
644.604	2.72
644.936	2.76
645.267	2.75
645.598	2.8
645.929	2.79
646.26	2.85
646.591	2.8
646.922	2.82
647.253	2.81
647.584	2.82
647.915	2.81
648.245	2.82
648.576	2.81
648.907	2.85
649.238	2.83
649.568	2.83
649.899	2.87
650.229	2.92
650.56	2.89
650.89	2.9
651.221	2.94
651.551	2.98
651.882	2.94
652.212	2.96
652.542	2.92
652.872	2.9
653.203	2.87
653.533	2.96
653.863	2.95
654.193	3.05
654.523	2.95
654.853	2.96
655.183	2.91
655.513	2.92
655.843	2.95
656.172	2.93
656.502	2.97
656.832	2.95
657.162	2.97
657.491	2.99
657.821	2.98
658.15	2.97
658.48	3
658.809	3.03
659.139	3.08
659.468	3.09
659.798	3.09
660.127	3.09
660.456	3.01
660.785	3.03
661.115	2.97
661.444	3.04
661.773	3.07
662.102	3.14
662.431	3.22
662.76	3.22
663.089	3.19
663.418	3.16
663.747	3.18
664.076	3.18
664.404	3.22
664.733	3.28
665.062	3.28
665.39	3.22
665.719	3.19
666.048	3.16
666.376	3.16
666.705	3.15
667.033	3.15
667.362	3.25
667.69	3.26
668.018	3.3
668.347	3.28
668.675	3.22
669.003	3.24
669.331	3.33
669.659	3.33
669.987	3.41
670.315	3.45
670.643	3.37
670.971	3.37
671.299	3.35
671.627	3.31
671.955	3.26
672.283	3.3
672.61	3.27
672.938	3.27
673.266	3.35
673.593	3.39
673.921	3.42
674.249	3.33
674.576	3.31
674.904	3.33
675.231	3.26
675.558	3.29
675.886	3.23
676.213	3.11
676.54	3.07
676.867	3.01
677.195	2.9
677.522	2.95
677.849	2.96
678.176	2.85
678.503	2.8
678.83	2.86
679.157	2.83
679.484	2.84
679.81	2.88
680.137	2.78
680.464	2.79
680.791	2.71
681.117	2.73
681.444	2.78
681.771	2.8
682.097	2.86
682.424	2.88
682.75	2.85
683.077	2.88
683.403	2.96
683.729	3.03
684.056	3.15
684.382	3.17
684.708	3.15
685.034	3.17
685.36	3.3
685.686	3.2
686.012	3.22
686.339	3.32
686.664	3.22
686.99	3.25
687.316	3.19
687.642	3.22
687.968	3.3
688.294	3.32
688.619	3.25
688.945	3.22
689.271	3.19
689.596	3.2
689.922	3.13
690.247	3.14
690.573	3.07
690.898	3.09
691.224	3.1
691.549	3.2
691.874	3.28
692.2	3.19
692.525	3.23
692.85	3.33
693.175	3.29
693.5	3.34
693.825	3.3
694.15	3.26
694.475	3.24
694.8	3.15
695.125	3.01
695.45	3.05
695.775	3.11
696.099	3.13
696.424	3.3
696.749	3.3
697.073	3.2
697.398	3.25
697.723	3.25
698.047	3.27
698.372	3.18
698.696	3.19
699.02	3.19
699.345	3.25
699.669	3.22
699.993	3.17
700.318	3.17
700.642	3.15
700.966	3.19
701.29	3.26
701.614	3.25
701.938	3.35
702.262	3.4
702.586	3.34
702.91	3.29
703.234	3.12
703.557	3.07
703.881	3.07
704.205	3.04
704.529	2.92
704.852	2.99
705.176	2.91
705.499	3
705.823	2.93
706.146	2.89
706.47	2.97
706.793	3.08
707.117	3.03
707.44	3.01
707.763	3.06
708.086	2.95
708.409	3.02
708.733	2.99
709.056	2.81
709.379	2.97
709.702	3.01
710.025	3
710.348	3.05
710.671	3
710.993	3.02
711.316	2.98
711.639	2.91
711.962	3.03
712.284	3
712.607	2.98
712.93	3.03
713.252	2.89
713.575	2.87
713.897	2.98
714.22	3.05
714.542	3.12
714.864	3.17
715.187	3.22
715.509	3.28
715.831	3.3
716.153	3.25
716.475	3.19
716.798	3.3
717.12	3.24
717.442	3.22
717.764	3.28
718.085	3.32
718.407	3.25
718.729	3.13
719.051	3.06
719.373	2.97
719.695	2.9
720.016	2.98
720.338	3.03
720.659	3.01
720.981	3.13
721.302	3.07
721.624	3.16
721.945	3.01
722.267	2.97
722.588	2.97
722.909	2.83
723.231	2.84
723.552	2.83
723.873	2.97
724.194	3.01
724.515	2.9
724.836	2.86
725.157	3.03
725.478	3.23
725.799	3.22
726.12	3.26
726.441	3.29
726.762	3.32
727.083	3.18
727.403	3.14
727.724	3.16
728.045	3.24
728.365	3.18
728.686	3.16
729.006	3.25
729.327	3.38
729.647	3.42
729.967	3.48
730.288	3.41
730.608	3.26
730.928	3.25
731.249	3.17
731.569	3.3
731.889	3.16
732.209	3.03
732.529	3.06
732.849	3.24
733.169	3.27
733.489	3.34
733.809	3.39
734.129	3.25
734.448	3.24
734.768	3.09
735.088	3.17
735.408	3.34
735.727	3.38
736.047	3.41
736.366	3.48
736.686	3.52
737.005	3.69
737.325	3.8
737.644	3.84
737.963	3.96
738.283	3.84
738.602	3.87
738.921	4.13
739.24	4.21
739.56	4.2
739.879	4.15
740.198	4.04
740.517	3.85
740.836	3.78
741.155	3.61
741.473	3.68
741.792	3.59
742.111	3.6
742.43	3.44
742.748	3.26
743.067	3.19
743.386	3.21
743.704	3.12
744.023	3.17
744.341	3.32
744.66	3.74
744.978	3.71
745.297	3.66
745.615	3.44
745.933	3.35
746.252	3.36
746.57	3.62
746.888	3.42
747.206	3.67
747.524	3.77
747.842	3.88
748.16	3.87
748.478	3.85
748.796	3.71
749.114	3.88
749.432	3.84
749.749	4.2
750.067	4.25
750.385	4.14
750.703	4.25
751.02	4.12
751.338	3.68
751.655	3.97
751.973	4.28
752.29	4.28
752.608	4.24
752.925	4.37
753.242	4.2
753.56	4.41
753.877	4.45
754.194	4.69
754.511	4.79
754.828	4.73
755.145	4.58
755.462	4.72
755.779	4.63
756.096	4.74
756.413	4.52
756.73	4.5
757.047	4.39
757.364	4.43
757.68	4.56
757.997	4.49
758.314	4.18
758.63	4.04
758.947	4.07
759.264	4.11
759.58	3.98
759.896	3.68
760.213	3.73
760.529	3.82
760.846	3.68
761.162	3.61
761.478	3.56
761.794	3.63
762.11	3.52
762.426	3.52
762.743	3.42
763.059	3.38
763.375	3.21
763.69	3.27
764.006	3.22
764.322	3.26
764.638	3.48
764.954	3.74
765.27	3.72
765.585	3.6
765.901	3.46
766.216	3.5
766.532	3.58
766.848	3.39
767.163	3.31
767.478	3.31
767.794	3.49
768.109	3.57
768.424	3.72
768.74	3.95
769.055	4.11
769.37	4.58
769.685	4.37
770	4.56
770.315	4.52
770.63	4.5
770.945	4.2
771.26	4.01
771.575	3.87
771.89	3.85
772.205	4.05
772.52	4.24
772.834	4.08
773.149	4.16
773.464	4.34
773.778	4.27
774.093	4.22
774.407	4.08
774.722	4.08
775.036	4.26
775.351	4.03
775.665	3.52
775.979	2.92
776.293	3.09
776.608	2.92
776.922	3.15
777.236	3.2
777.55	3.41
777.864	3.37
778.178	3.52
778.492	3.74
778.806	3.67
779.12	3.89
779.434	3.9
779.747	3.69
780.061	3.61
780.375	3.74
780.689	3.92
781.002	3.8
781.316	3.97
781.629	4.48
781.943	4.49
782.256	4.45
782.57	4.57
782.883	4.85
783.196	4.99
783.51	4.7
783.823	4.46
784.136	4.65
784.449	4.7
784.762	4.4
785.075	4.28
785.388	4.35
785.701	4.27
786.014	4.14
786.327	4.45
786.64	4.57
786.953	4.72
787.266	4.48
787.578	4.15
787.891	3.86
788.204	3.31
788.516	3.49
788.829	3.5
789.141	3.63
789.454	3.73
789.766	4.18
790.079	4.48
790.391	4.37
790.703	4.23
791.016	4.38
791.328	4.16
791.64	4.06
791.952	4.04
792.264	3.69
792.576	3.7
792.888	3.48
793.2	3.48
793.512	3.01
793.824	2.89
794.136	3.37
794.448	3.57
794.76	3.27
795.071	3.05
795.383	3.15
795.695	2.94
796.006	2.57
796.318	2.02
796.629	1.89
796.941	1.97
797.252	2.15
797.564	1.79
797.875	1.61
798.186	1.24
798.497	1.45
798.809	1.72
799.12	1.9
799.431	2.13
799.742	2.62
800.053	3.16
800.364	3.61
800.675	3.05
800.986	2.8
801.297	2.43
801.608	2.05
801.918	2.13
802.229	2.09
802.54	1.65
802.851	1.36
803.161	1.41
803.472	1.54
803.782	1.29
804.093	1.91
804.403	2.65
804.714	2.63
805.024	2.23
805.334	2.36
805.645	2.61
805.955	2.84
806.265	2.13
806.575	1.9
806.885	1.47
807.195	1.91
807.505	2.6
807.815	2.59
808.125	2.73
808.435	2.98
808.745	3.05
809.055	3.84
809.365	4.44
809.674	4.01
809.984	4.18
810.294	3.8
810.603	4.06
810.913	3.98
811.222	4.71
811.532	4.47
811.841	4.7
812.151	4.92
812.46	4.72
812.769	4.76
813.079	4
813.388	4.46
813.697	4.95
814.006	4.53
814.315	5.22
814.624	4.95
814.933	4.95
815.242	5.6
815.551	5.41
815.86	5.61
816.169	5.51
816.478	5.19
816.786	5.61
817.095	5.34
817.404	5.64
817.712	5.68
818.021	5.87
818.33	5.43
818.638	5.71
818.947	5.98
819.255	6.05
819.563	6.3
819.872	6.15
820.18	5.88
820.488	5.47
820.796	5.48
821.105	5.48
821.413	5.5
821.721	5.25
822.029	5.2
822.337	5.14
822.645	5.26
822.953	5.19
823.26	5.36
823.568	5.2
823.876	5.09
824.184	5.04
824.491	5.14
824.799	5.12
825.107	5
825.414	5.09
825.722	5.28
826.029	5.28
826.337	5.32
826.644	5.33
826.951	5.46
827.259	5.31
827.566	5.51
827.873	5.43
828.18	5.61
828.488	5.8
828.795	5.89
829.102	6
829.409	6.14
829.716	5.75
830.023	5.72
830.329	5.98
830.636	5.99
830.943	6.18
831.25	6.29
831.557	6.52
831.863	5.83
832.17	5.22
832.476	5.29
832.783	5.23
833.089	4.73
833.396	4.84
833.702	4.93
834.009	5
834.315	5.17
834.621	5.01
834.928	4.91
835.234	4.95
835.54	4.85
835.846	5.39
836.152	5.53
836.458	5.71
836.764	5.36
837.07	5.1
837.376	4.54
837.682	4.64
837.988	4.29
838.293	4.91
838.599	5.16
838.905	5.04
839.211	5.24
839.516	6.23
839.822	6.55
840.127	6.74
840.433	6.51
840.738	6.89
841.044	6.74
841.349	6.78
841.654	6.77
841.959	6.3
842.265	5.72
842.57	6.48
842.875	6.63
843.18	8.05
843.485	8.99
843.79	8.81
844.095	7.89
844.4	8.61
844.705	7.58
845.01	7.5
845.315	7.24
845.619	7
845.924	6.29
846.229	7.5
846.533	7.3
846.838	5.47
847.142	3.43
847.447	3.35
847.751	3.38
848.056	1.77
848.36	1.96
848.664	0.98
848.969	0.41
849.273	-2.19
849.577	-5.68
849.881	-7.67
850.185	-6.26
850.489	-3.26
850.794	-4.9
851.097	-3.29
851.401	-4.48
851.705	-4.1
852.009	-3.42
852.313	-3.23
852.617	-5.16
852.92	-3.85
853.224	-2.33
853.528	-1.55
853.831	-1.73
854.135	-3.87
854.438	-3.12
854.742	-3.6
855.045	-1.56
855.349	-0.84
855.652	3.39
855.955	5.08
856.259	4.87
856.562	6.21
856.865	5.04
857.168	4.66
857.471	4.01
857.774	6.4
858.077	5.83
858.38	6.98
858.683	8.22
858.986	7.35
859.289	5.2
859.592	6.36
859.894	7.97
860.197	9.79
860.5	12.08
860.802	12.91
861.105	14.18
861.407	11.66
861.71	11.21
862.012	8.84
862.315	7.96
862.617	11.52
862.919	9.46
863.222	7.25
863.524	7.07
863.826	7.14
864.128	6.06
864.43	7.8
864.732	7.33
865.034	5.63
865.336	4.65
865.638	3.25
865.94	-0.17
866.242	-1.06
866.544	-3.13
866.846	-4.02
867.147	-6.42
867.449	-5.36
867.751	-3.61
868.052	-6.24
868.354	-5.41
868.655	-5.17
868.957	-11.14
869.258	-12.16
869.56	-12.53
869.861	-14.54
870.162	-15.28
870.463	-14.33
870.765	-13.02
871.066	-15.45
871.367	-16.1
871.668	-13.68
871.969	-10.36
872.27	-7.35
872.571	-7.18
872.872	-5.73
873.173	-6.61
873.473	-3.62
873.774	-2.88
874.075	-2.49
874.376	-1.78
874.676	0.22
874.977	-0.31
875.277	3.79
875.578	5.69
875.878	6.97
876.179	8.91
876.479	9.8
876.78	9.2
877.08	7.49
877.38	9.02
877.68	11.21
877.981	10.24
878.281	9.84
878.581	11.47
