Data from BA57757_Reflection_00030.txt Node
Date: Mon Nov 18 15:01:50 EST 2019
User: vgr7
Spectrometer: USB2G7710
Scans to average: 3
Trigger mode: 4
Integration Time (sec): 2.000000E-2
Electric dark correction enabled: true
Boxcar width: 10
XAxis mode: Wavelengths
Number of Pixels in Spectrum: 2048
>>>>>Begin Spectral Data<<<<<
177.721	108.37
178.105	5.92
178.488	526.78
178.871	-184.48
179.254	59
179.636	48.28
180.019	311.06
180.402	9.76
180.785	43.93
181.168	46.9
181.55	-179.07
181.933	65.09
182.316	88.86
182.698	94.78
183.081	79.36
183.463	79.81
183.846	107.66
184.228	159.46
184.611	146.93
184.993	170.69
185.376	-206.64
185.758	-290.65
186.14	-223.68
186.522	-748.33
186.904	-639.56
187.287	3182.57
187.669	-532.69
188.051	-434.5
188.433	-201.26
188.815	-164.33
189.197	-115.24
189.579	-140
189.961	-107.76
190.342	-68.58
190.724	-60.35
191.106	-87.77
191.488	-93.37
191.869	-76.92
192.251	-76.76
192.633	-83.22
193.014	-95.23
193.396	-113.41
193.777	-94.31
194.159	-91.74
194.54	-66.71
194.922	-49.73
195.303	-39.59
195.684	-40.47
196.065	-34.94
196.447	-32.15
196.828	-36.13
197.209	-41.42
197.59	-38.52
197.971	-38.42
198.352	-40.32
198.733	-52.31
199.114	-44.97
199.495	-45.4
199.876	-49.18
200.257	-55.49
200.638	-55.32
201.018	-49.28
201.399	-63.82
201.78	-51.51
202.16	-66.07
202.541	-94.85
202.922	-115.74
203.302	-149.64
203.683	-157.22
204.063	-187.85
204.444	-194.98
204.824	-186.07
205.204	-184.37
205.585	-149.18
205.965	-153.55
206.345	-177.24
206.725	-163.06
207.106	-174.86
207.486	-168.54
207.866	-169.24
208.246	-158.5
208.626	-151.33
209.006	-131.6
209.386	-117.25
209.766	-131.62
210.145	-107.54
210.525	-75.84
210.905	-65.08
211.285	-56.57
211.664	-48.94
212.044	-40.65
212.424	-62.62
212.803	-63.05
213.183	-77.2
213.562	-74.29
213.942	-52.38
214.321	-42.09
214.701	-29.42
215.08	-41.77
215.459	-31
215.838	-31.08
216.218	-40.69
216.597	-37.72
216.976	-45.79
217.355	-58.18
217.734	-45.79
218.113	-50.09
218.492	-63.27
218.871	-67.24
219.25	-50.32
219.629	-57.16
220.008	-60.48
220.387	-33.97
220.766	-30.28
221.144	-33.42
221.523	-49.2
221.902	-67.96
222.28	-69.84
222.659	-68.88
223.037	-49.16
223.416	-55.73
223.794	-52.1
224.173	-48.14
224.551	-42.11
224.929	-38.73
225.308	-29.81
225.686	-32.55
226.064	-30.28
226.442	-32.11
226.821	-24.2
227.199	-23.78
227.577	-23.12
227.955	-21.52
228.333	-23.18
228.711	-17.15
229.089	-10.56
229.467	-10.23
229.845	-8.71
230.222	-6.89
230.6	-6.7
230.978	-7.52
231.356	-3.5
231.733	-1.96
232.111	-1.72
232.488	-2.36
232.866	-2.24
233.243	-1.43
233.621	0.14
233.998	1.71
234.376	3.09
234.753	1.19
235.13	0.29
235.508	0.86
235.885	1.7
236.262	1.73
236.639	-0.02
237.016	-0.83
237.393	1.03
237.77	1.03
238.147	0.42
238.524	0.77
238.901	2.09
239.278	1.89
239.655	2.21
240.032	3.46
240.409	3.4
240.785	4.12
241.162	4.1
241.539	4.57
241.915	4.31
242.292	3.98
242.668	4.3
243.045	4.68
243.421	5.03
243.798	5
244.174	5.04
244.551	5.17
244.927	4.94
245.303	5.07
245.679	5.24
246.056	5.3
246.432	5.41
246.808	5.06
247.184	4.82
247.56	4.55
247.936	4.19
248.312	4.2
248.688	4
249.064	3.89
249.44	3.78
249.815	3.83
250.191	4.04
250.567	3.99
250.943	3.84
251.318	3.37
251.694	3.4
252.069	3.45
252.445	3.35
252.82	3.24
253.196	2.9
253.571	2.69
253.947	2.65
254.322	2.8
254.697	3.01
255.073	3.1
255.448	2.95
255.823	3.23
256.198	3.57
256.573	3.73
256.948	4.14
257.323	4.43
257.698	4.27
258.073	4.21
258.448	4.28
258.823	4.33
259.198	4.56
259.573	4.56
259.948	4.39
260.322	4.4
260.697	4.38
261.072	4.41
261.446	4.47
261.821	4.47
262.195	4.46
262.57	4.39
262.944	4.3
263.319	4.43
263.693	4.14
264.067	4.05
264.442	4.1
264.816	3.74
265.19	3.44
265.564	3.49
265.938	3.32
266.313	3.17
266.687	3.14
267.061	3.13
267.435	2.88
267.809	3.01
268.183	3.01
268.556	2.97
268.93	3.19
269.304	3.23
269.678	3.45
270.051	3.36
270.425	3.48
270.799	3.75
271.172	3.88
271.546	3.96
271.919	3.92
272.293	3.89
272.666	4.08
273.04	4.15
273.413	4.01
273.787	4.08
274.16	4.08
274.533	4
274.906	3.99
275.279	4.03
275.653	4.03
276.026	3.98
276.399	4.16
276.772	4.13
277.145	4.03
277.518	3.92
277.891	3.89
278.263	3.84
278.636	3.77
279.009	3.54
279.382	3.67
279.755	3.65
280.127	3.74
280.5	3.65
280.872	3.67
281.245	3.85
281.617	3.88
281.99	4.1
282.362	4.37
282.735	4.07
283.107	4.22
283.479	4.3
283.852	4.45
284.224	4.43
284.596	4.33
284.968	4.37
285.34	4.45
285.713	4.42
286.085	4.55
286.457	4.59
286.829	4.79
287.201	4.89
287.572	4.8
287.944	4.7
288.316	4.85
288.688	4.93
289.06	4.87
289.431	5
289.803	4.95
290.175	4.81
290.546	5.13
290.918	5.01
291.289	4.93
291.661	4.97
292.032	5.06
292.403	5.18
292.775	5.3
293.146	5.22
293.517	5.31
293.889	5.29
294.26	5.36
294.631	5.41
295.002	5.32
295.373	5.54
295.744	5.54
296.115	5.43
296.486	5.37
296.857	5.48
297.228	5.42
297.599	5.22
297.97	5.32
298.34	5.32
298.711	5.36
299.082	5.37
299.452	5.32
299.823	5.39
300.194	5.38
300.564	5.27
300.935	5.38
301.305	5.35
301.676	5.3
302.046	5.22
302.416	5.25
302.787	5.2
303.157	5.16
303.527	5.27
303.897	5.29
304.267	5.28
304.637	5.34
305.008	5.47
305.378	5.72
305.748	5.66
306.117	5.62
306.487	5.8
306.857	5.99
307.227	5.94
307.597	5.85
307.967	5.84
308.336	5.94
308.706	5.97
309.076	6.09
309.445	6.15
309.815	6.17
310.184	6.11
310.554	6.17
310.923	6.18
311.293	6.22
311.662	6.28
312.031	6.24
312.401	6.26
312.77	6.3
313.139	6.35
313.508	6.45
313.877	6.43
314.246	6.37
314.616	6.34
314.985	6.43
315.353	6.39
315.722	6.39
316.091	6.37
316.46	6.21
316.829	6.08
317.198	6.1
317.567	6.09
317.935	6.11
318.304	6.17
318.672	6.22
319.041	6.27
319.41	6.25
319.778	6.25
320.147	6.15
320.515	5.86
320.883	5.75
321.252	5.81
321.62	5.84
321.988	5.87
322.357	5.74
322.725	5.68
323.093	5.68
323.461	5.82
323.829	5.82
324.197	5.92
324.565	6.03
324.933	6
325.301	5.93
325.669	5.87
326.037	5.89
326.405	5.94
326.772	5.91
327.14	5.97
327.508	5.99
327.875	5.95
328.243	6.1
328.61	6.11
328.978	6.08
329.346	6.09
329.713	6.03
330.08	6.05
330.448	5.95
330.815	5.97
331.182	5.83
331.55	5.79
331.917	5.85
332.284	5.82
332.651	5.81
333.018	5.82
333.385	5.91
333.752	5.97
334.119	5.98
334.486	5.98
334.853	5.82
335.22	5.81
335.587	5.93
335.954	5.89
336.32	5.93
336.687	5.95
337.054	5.92
337.42	5.98
337.787	6.04
338.153	6.14
338.52	6.2
338.886	6.14
339.253	6.14
339.619	6.12
339.986	6.11
340.352	6.18
340.718	6.13
341.084	5.98
341.451	6.03
341.817	5.98
342.183	5.86
342.549	5.91
342.915	6.01
343.281	5.94
343.647	5.92
344.013	6.01
344.379	5.93
344.745	6.06
345.11	6.01
345.476	5.93
345.842	5.93
346.208	5.8
346.573	5.91
346.939	6.05
347.304	5.95
347.67	5.86
348.035	5.76
348.401	5.8
348.766	5.8
349.132	5.8
349.497	5.77
349.862	5.81
350.228	5.83
350.593	5.71
350.958	5.67
351.323	5.69
351.688	5.66
352.053	5.7
352.418	5.58
352.783	5.57
353.148	5.55
353.513	5.54
353.878	5.67
354.243	5.68
354.608	5.6
354.972	5.64
355.337	5.8
355.702	5.87
356.066	5.9
356.431	5.99
356.795	5.98
357.16	5.99
357.524	6.04
357.889	6.06
358.253	6.12
358.618	6.11
358.982	6.02
359.346	5.91
359.71	5.84
360.075	5.88
360.439	5.97
360.803	6.02
361.167	6.01
361.531	5.93
361.895	5.92
362.259	5.88
362.623	5.87
362.987	5.8
363.351	5.78
363.714	5.81
364.078	5.77
364.442	5.68
364.806	5.66
365.169	5.66
365.533	5.62
365.896	5.63
366.26	5.68
366.623	5.75
366.987	5.8
367.35	5.83
367.714	5.88
368.077	5.81
368.44	5.79
368.803	5.76
369.167	5.78
369.53	5.72
369.893	5.81
370.256	5.82
370.619	5.76
370.982	5.68
371.345	5.65
371.708	5.66
372.071	5.68
372.434	5.75
372.797	5.77
373.159	5.74
373.522	5.75
373.885	5.75
374.247	5.76
374.61	5.8
374.973	5.82
375.335	5.76
375.698	5.8
376.06	5.78
376.423	5.8
376.785	5.87
377.147	5.93
377.51	5.89
377.872	5.86
378.234	5.87
378.596	5.96
378.958	5.91
379.321	5.9
379.683	5.97
380.045	5.93
380.407	5.89
380.769	5.9
381.13	5.86
381.492	5.85
381.854	5.84
382.216	5.79
382.578	5.82
382.939	5.8
383.301	5.79
383.663	5.8
384.024	5.77
384.386	5.8
384.747	5.75
385.109	5.74
385.47	5.77
385.832	5.83
386.193	5.77
386.554	5.8
386.916	5.81
387.277	5.77
387.638	5.79
387.999	5.79
388.36	5.81
388.721	5.84
389.082	5.81
389.443	5.77
389.804	5.79
390.165	5.78
390.526	5.76
390.887	5.74
391.248	5.78
391.609	5.79
391.969	5.74
392.33	5.72
392.691	5.73
393.051	5.72
393.412	5.7
393.772	5.71
394.133	5.76
394.493	5.75
394.854	5.73
395.214	5.71
395.574	5.7
395.935	5.69
396.295	5.67
396.655	5.66
397.015	5.7
397.376	5.65
397.736	5.64
398.096	5.7
398.456	5.69
398.816	5.72
399.176	5.7
399.535	5.68
399.895	5.69
400.255	5.69
400.615	5.69
400.975	5.69
401.334	5.69
401.694	5.66
402.054	5.66
402.413	5.67
402.773	5.69
403.132	5.7
403.492	5.68
403.851	5.71
404.211	5.73
404.57	5.76
404.929	5.78
405.288	5.75
405.648	5.72
406.007	5.73
406.366	5.69
406.725	5.74
407.084	5.74
407.443	5.73
407.802	5.72
408.161	5.71
408.52	5.7
408.879	5.69
409.238	5.69
409.596	5.67
409.955	5.68
410.314	5.64
410.673	5.62
411.031	5.64
411.39	5.6
411.748	5.58
412.107	5.54
412.465	5.56
412.824	5.57
413.182	5.55
413.54	5.54
413.899	5.57
414.257	5.54
414.615	5.55
414.974	5.59
415.332	5.61
415.69	5.61
416.048	5.61
416.406	5.59
416.764	5.59
417.122	5.61
417.48	5.59
417.838	5.61
418.195	5.61
418.553	5.61
418.911	5.62
419.269	5.62
419.626	5.62
419.984	5.61
420.342	5.63
420.699	5.62
421.057	5.62
421.414	5.61
421.772	5.61
422.129	5.62
422.486	5.61
422.844	5.61
423.201	5.59
423.558	5.57
423.915	5.59
424.273	5.59
424.63	5.58
424.987	5.59
425.344	5.58
425.701	5.58
426.058	5.57
426.415	5.56
426.772	5.55
427.128	5.56
427.485	5.56
427.842	5.56
428.199	5.56
428.555	5.55
428.912	5.54
429.269	5.54
429.625	5.51
429.982	5.53
430.338	5.51
430.695	5.54
431.051	5.54
431.407	5.55
431.764	5.55
432.12	5.55
432.476	5.52
432.832	5.51
433.189	5.5
433.545	5.5
433.901	5.49
434.257	5.49
434.613	5.47
434.969	5.48
435.325	5.45
435.681	5.44
436.036	5.45
436.392	5.45
436.748	5.45
437.104	5.46
437.459	5.45
437.815	5.44
438.171	5.43
438.526	5.41
438.882	5.4
439.237	5.41
439.593	5.42
439.948	5.43
440.304	5.43
440.659	5.43
441.014	5.44
441.369	5.44
441.725	5.44
442.08	5.43
442.435	5.42
442.79	5.44
443.145	5.45
443.5	5.43
443.855	5.41
444.21	5.41
444.565	5.42
444.92	5.41
445.275	5.4
445.629	5.4
445.984	5.41
446.339	5.4
446.693	5.37
447.048	5.36
447.403	5.36
447.757	5.34
448.112	5.35
448.466	5.33
448.82	5.34
449.175	5.35
449.529	5.34
449.883	5.34
450.238	5.33
450.592	5.32
450.946	5.33
451.3	5.33
451.654	5.31
452.008	5.28
452.362	5.27
452.716	5.29
453.07	5.3
453.424	5.3
453.778	5.32
454.132	5.34
454.486	5.33
454.839	5.33
455.193	5.33
455.547	5.33
455.9	5.34
456.254	5.34
456.607	5.33
456.961	5.34
457.314	5.34
457.668	5.34
458.021	5.33
458.375	5.33
458.728	5.34
459.081	5.34
459.434	5.36
459.787	5.37
460.141	5.37
460.494	5.37
460.847	5.39
461.2	5.36
461.553	5.35
461.906	5.35
462.259	5.33
462.611	5.35
462.964	5.33
463.317	5.33
463.67	5.32
464.022	5.32
464.375	5.31
464.728	5.31
465.08	5.32
465.433	5.33
465.785	5.35
466.138	5.36
466.49	5.35
466.843	5.33
467.195	5.33
467.547	5.32
467.899	5.33
468.252	5.32
468.604	5.34
468.956	5.35
469.308	5.35
469.66	5.36
470.012	5.37
470.364	5.38
470.716	5.38
471.068	5.38
471.42	5.38
471.772	5.4
472.123	5.42
472.475	5.42
472.827	5.41
473.178	5.4
473.53	5.39
473.882	5.4
474.233	5.41
474.585	5.4
474.936	5.4
475.288	5.4
475.639	5.39
475.99	5.39
476.342	5.39
476.693	5.39
477.044	5.39
477.395	5.36
477.746	5.34
478.097	5.32
478.448	5.33
478.8	5.33
479.15	5.36
479.501	5.37
479.852	5.39
480.203	5.42
480.554	5.44
480.905	5.45
481.255	5.48
481.606	5.48
481.957	5.5
482.307	5.51
482.658	5.51
483.009	5.51
483.359	5.53
483.709	5.55
484.06	5.55
484.41	5.56
484.761	5.57
485.111	5.58
485.461	5.59
485.811	5.6
486.162	5.6
486.512	5.6
486.862	5.6
487.212	5.58
487.562	5.58
487.912	5.58
488.262	5.58
488.612	5.57
488.961	5.57
489.311	5.56
489.661	5.55
490.011	5.55
490.36	5.55
490.71	5.53
491.06	5.52
491.409	5.52
491.759	5.51
492.108	5.51
492.458	5.49
492.807	5.48
493.157	5.48
493.506	5.5
493.855	5.49
494.204	5.48
494.554	5.51
494.903	5.5
495.252	5.48
495.601	5.49
495.95	5.5
496.299	5.51
496.648	5.51
496.997	5.51
497.346	5.51
497.695	5.53
498.043	5.53
498.392	5.52
498.741	5.53
499.09	5.54
499.438	5.58
499.787	5.58
500.135	5.6
500.484	5.61
500.832	5.59
501.181	5.57
501.529	5.57
501.878	5.57
502.226	5.59
502.574	5.59
502.923	5.57
503.271	5.57
503.619	5.58
503.967	5.59
504.315	5.6
504.663	5.59
505.011	5.57
505.359	5.56
505.707	5.59
506.055	5.59
506.403	5.59
506.751	5.56
507.098	5.58
507.446	5.59
507.794	5.6
508.141	5.62
508.489	5.64
508.837	5.66
509.184	5.67
509.531	5.68
509.879	5.72
510.226	5.73
510.574	5.74
510.921	5.74
511.268	5.73
511.616	5.75
511.963	5.77
512.31	5.8
512.657	5.82
513.004	5.83
513.351	5.83
513.698	5.83
514.045	5.84
514.392	5.84
514.739	5.83
515.086	5.84
515.432	5.85
515.779	5.84
516.126	5.83
516.473	5.83
516.819	5.84
517.166	5.81
517.512	5.8
517.859	5.8
518.205	5.81
518.552	5.83
518.898	5.84
519.245	5.84
519.591	5.85
519.937	5.84
520.283	5.82
520.629	5.85
520.976	5.86
521.322	5.87
521.668	5.87
522.014	5.88
522.36	5.86
522.706	5.86
523.052	5.89
523.398	5.9
523.743	5.91
524.089	5.91
524.435	5.92
524.781	5.94
525.126	5.95
525.472	5.96
525.817	5.96
526.163	5.96
526.509	5.95
526.854	5.96
527.199	5.98
527.545	5.99
527.89	5.98
528.235	5.99
528.581	6
528.926	6
529.271	6
529.616	6.01
529.961	6
530.306	6
530.651	6.01
530.996	6.02
531.341	6.02
531.686	6.02
532.031	6.03
532.376	6.03
532.721	6.03
533.065	6.02
533.41	6.03
533.755	6.03
534.099	6.03
534.444	6.03
534.788	6.05
535.133	6.06
535.477	6.06
535.822	6.05
536.166	6.06
536.51	6.06
536.855	6.08
537.199	6.11
537.543	6.12
537.887	6.11
538.231	6.07
538.576	6.1
538.92	6.1
539.264	6.1
539.608	6.09
539.951	6.09
540.295	6.1
540.639	6.09
540.983	6.09
541.327	6.09
541.671	6.08
542.014	6.07
542.358	6.06
542.701	6.07
543.045	6.07
543.389	6.07
543.732	6.08
544.075	6.08
544.419	6.06
544.762	6.06
545.105	6.06
545.449	6.09
545.792	6.07
546.135	6.07
546.478	6.07
546.821	6.07
547.165	6.08
547.508	6.07
547.851	6.08
548.194	6.09
548.536	6.1
548.879	6.12
549.222	6.1
549.565	6.11
549.908	6.1
550.25	6.11
550.593	6.11
550.936	6.08
551.278	6.1
551.621	6.1
551.963	6.08
552.306	6.09
552.648	6.08
552.991	6.08
553.333	6.04
553.675	6.05
554.017	6.09
554.36	6.08
554.702	6.09
555.044	6.1
555.386	6.12
555.728	6.12
556.07	6.12
556.412	6.11
556.754	6.09
557.096	6.06
557.438	6.1
557.78	6.08
558.121	6.1
558.463	6.09
558.805	6.12
559.147	6.15
559.488	6.15
559.83	6.14
560.171	6.15
560.513	6.19
560.854	6.16
561.196	6.13
561.537	6.15
561.878	6.15
562.22	6.17
562.561	6.13
562.902	6.15
563.243	6.16
563.584	6.16
563.925	6.19
564.266	6.22
564.607	6.21
564.948	6.24
565.289	6.25
565.63	6.24
565.971	6.24
566.312	6.23
566.653	6.23
566.993	6.24
567.334	6.22
567.675	6.19
568.015	6.21
568.356	6.2
568.696	6.22
569.037	6.24
569.377	6.23
569.718	6.25
570.058	6.25
570.398	6.2
570.739	6.21
571.079	6.2
571.419	6.19
571.759	6.17
572.099	6.16
572.439	6.18
572.779	6.18
573.119	6.18
573.459	6.2
573.799	6.21
574.139	6.22
574.479	6.21
574.819	6.23
575.158	6.2
575.498	6.22
575.838	6.19
576.177	6.16
576.517	6.14
576.856	6.14
577.196	6.12
577.535	6.15
577.875	6.13
578.214	6.14
578.553	6.17
578.893	6.16
579.232	6.14
579.571	6.13
579.91	6.09
580.25	6.1
580.589	6.08
580.928	6.09
581.267	6.09
581.606	6.12
581.945	6.12
582.283	6.14
582.622	6.16
582.961	6.16
583.3	6.21
583.639	6.24
583.977	6.24
584.316	6.24
584.654	6.23
584.993	6.24
585.332	6.25
585.67	6.24
586.008	6.26
586.347	6.29
586.685	6.23
587.024	6.27
587.362	6.27
587.7	6.3
588.038	6.31
588.376	6.35
588.715	6.33
589.053	6.38
589.391	6.39
589.729	6.38
590.067	6.38
590.404	6.35
590.742	6.35
591.08	6.35
591.418	6.35
591.756	6.37
592.093	6.38
592.431	6.42
592.769	6.4
593.106	6.36
593.444	6.33
593.781	6.36
594.119	6.38
594.456	6.36
594.793	6.36
595.131	6.32
595.468	6.31
595.805	6.32
596.143	6.29
596.48	6.3
596.817	6.32
597.154	6.34
597.491	6.32
597.828	6.31
598.165	6.32
598.502	6.35
598.839	6.37
599.176	6.37
599.512	6.36
599.849	6.4
600.186	6.41
600.523	6.48
600.859	6.49
601.196	6.48
601.532	6.49
601.869	6.5
602.205	6.55
602.542	6.52
602.878	6.52
603.215	6.49
603.551	6.51
603.887	6.52
604.223	6.5
604.56	6.55
604.896	6.53
605.232	6.54
605.568	6.5
605.904	6.47
606.24	6.49
606.576	6.49
606.912	6.47
607.248	6.48
607.583	6.46
607.919	6.47
608.255	6.48
608.591	6.5
608.926	6.48
609.262	6.45
609.597	6.5
609.933	6.52
610.268	6.54
610.604	6.51
610.939	6.48
611.275	6.47
611.61	6.46
611.945	6.52
612.281	6.49
612.616	6.5
612.951	6.53
613.286	6.5
613.621	6.49
613.956	6.5
614.291	6.53
614.626	6.56
614.961	6.55
615.296	6.48
615.631	6.45
615.966	6.43
616.3	6.42
616.635	6.39
616.97	6.31
617.304	6.27
617.639	6.31
617.973	6.33
618.308	6.33
618.642	6.31
618.977	6.26
619.311	6.3
619.646	6.32
619.98	6.25
620.314	6.29
620.648	6.25
620.983	6.25
621.317	6.24
621.651	6.23
621.985	6.24
622.319	6.28
622.653	6.3
622.987	6.37
623.321	6.36
623.655	6.39
623.988	6.47
624.322	6.5
624.656	6.47
624.99	6.51
625.323	6.56
625.657	6.55
625.99	6.56
626.324	6.54
626.657	6.57
626.991	6.65
627.324	6.62
627.658	6.64
627.991	6.66
628.324	6.64
628.657	6.6
628.991	6.61
629.324	6.65
629.657	6.65
629.99	6.59
630.323	6.62
630.656	6.65
630.989	6.6
631.322	6.62
631.655	6.62
631.987	6.59
632.32	6.59
632.653	6.62
632.986	6.62
633.318	6.63
633.651	6.62
633.984	6.62
634.316	6.62
634.649	6.66
634.981	6.67
635.313	6.67
635.646	6.71
635.978	6.73
636.31	6.71
636.643	6.7
636.975	6.73
637.307	6.75
637.639	6.66
637.971	6.74
638.303	6.73
638.635	6.73
638.967	6.71
639.299	6.69
639.631	6.66
639.963	6.65
640.295	6.69
640.626	6.63
640.958	6.62
641.29	6.63
641.621	6.6
641.953	6.6
642.285	6.65
642.616	6.69
642.948	6.66
643.279	6.65
643.61	6.66
643.942	6.72
644.273	6.69
644.604	6.69
644.936	6.58
645.267	6.61
645.598	6.62
645.929	6.68
646.26	6.68
646.591	6.73
646.922	6.63
647.253	6.65
647.584	6.64
647.915	6.59
648.245	6.63
648.576	6.66
648.907	6.64
649.238	6.61
649.568	6.57
649.899	6.52
650.229	6.51
650.56	6.45
650.89	6.43
651.221	6.43
651.551	6.53
651.882	6.61
652.212	6.61
652.542	6.61
652.872	6.55
653.203	6.55
653.533	6.55
653.863	6.63
654.193	6.6
654.523	6.57
654.853	6.63
655.183	6.58
655.513	6.56
655.843	6.5
656.172	6.52
656.502	6.52
656.832	6.58
657.162	6.63
657.491	6.69
657.821	6.66
658.15	6.58
658.48	6.58
658.809	6.53
659.139	6.47
659.468	6.43
659.798	6.44
660.127	6.49
660.456	6.52
660.785	6.53
661.115	6.48
661.444	6.56
661.773	6.55
662.102	6.5
662.431	6.52
662.76	6.55
663.089	6.51
663.418	6.54
663.747	6.49
664.076	6.49
664.404	6.45
664.733	6.49
665.062	6.54
665.39	6.49
665.719	6.52
666.048	6.6
666.376	6.59
666.705	6.6
667.033	6.56
667.362	6.58
667.69	6.59
668.018	6.67
668.347	6.66
668.675	6.68
669.003	6.79
669.331	6.82
669.659	6.84
669.987	6.87
670.315	6.83
670.643	6.86
670.971	6.8
671.299	6.8
671.627	6.78
671.955	6.83
672.283	6.84
672.61	6.77
672.938	6.77
673.266	6.87
673.593	6.88
673.921	6.86
674.249	6.76
674.576	6.76
674.904	6.69
675.231	6.72
675.558	6.71
675.886	6.69
676.213	6.65
676.54	6.65
676.867	6.73
677.195	6.7
677.522	6.79
677.849	6.85
678.176	6.82
678.503	6.82
678.83	6.8
679.157	6.72
679.484	6.76
679.81	6.79
680.137	6.72
680.464	6.72
680.791	6.73
681.117	6.75
681.444	6.71
681.771	6.73
682.097	6.62
682.424	6.66
682.75	6.63
683.077	6.61
683.403	6.57
683.729	6.47
684.056	6.52
684.382	6.46
684.708	6.36
685.034	6.4
685.36	6.42
685.686	6.41
686.012	6.51
686.339	6.55
686.664	6.53
686.99	6.53
687.316	6.41
687.642	6.33
687.968	6.32
688.294	6.4
688.619	6.47
688.945	6.42
689.271	6.33
689.596	6.29
689.922	6.34
690.247	6.46
690.573	6.53
690.898	6.5
691.224	6.46
691.549	6.56
691.874	6.59
692.2	6.57
692.525	6.64
692.85	6.64
693.175	6.56
693.5	6.52
693.825	6.53
694.15	6.73
694.475	6.8
694.8	6.85
695.125	6.85
695.45	6.86
695.775	6.96
696.099	7.01
696.424	7.07
696.749	6.98
697.073	6.98
697.398	7.07
697.723	7.17
698.047	7.23
698.372	7.21
698.696	7.12
699.02	7.06
699.345	7.04
699.669	7.07
699.993	7.14
700.318	7.2
700.642	7.18
700.966	7.07
701.29	7.08
701.614	7
701.938	7.04
702.262	6.99
702.586	7.05
702.91	7.03
703.234	7.11
703.557	7.19
703.881	7.14
704.205	7.01
704.529	6.81
704.852	6.8
705.176	6.77
705.499	6.92
705.823	6.99
706.146	6.88
706.47	6.94
706.793	7.03
707.117	7.08
707.44	7.21
707.763	7.23
708.086	7.25
708.409	7.17
708.733	7.09
709.056	7.21
709.379	7.25
709.702	7.22
710.025	7.12
710.348	7.13
710.671	7.02
710.993	7.1
711.316	7.2
711.639	7.17
711.962	7.27
712.284	7.21
712.607	7.26
712.93	7.4
713.252	7.38
713.575	7.29
713.897	7.16
714.22	7.16
714.542	7.29
714.864	7.3
715.187	7.4
715.509	7.41
715.831	7.29
716.153	7.21
716.475	7.34
716.798	7.36
717.12	7.31
717.442	7.45
717.764	7.29
718.085	7.22
718.407	7.18
718.729	7.15
719.051	7.25
719.373	7.14
719.695	6.99
720.016	7.02
720.338	7.05
720.659	7.16
720.981	7.13
721.302	7.03
721.624	6.93
721.945	6.97
722.267	7.06
722.588	7.07
722.909	7.27
723.231	7.05
723.552	7.08
723.873	7.23
724.194	7.21
724.515	7.28
724.836	7.18
725.157	7.28
725.478	7.06
725.799	7.01
726.12	7.04
726.441	7.08
726.762	7.06
727.083	7
727.403	6.9
727.724	6.91
728.045	6.97
728.365	6.98
728.686	7.01
729.006	6.83
729.327	6.91
729.647	6.84
729.967	6.99
730.288	7.05
730.608	6.9
730.928	6.73
731.249	6.88
731.569	7.13
731.889	7.06
732.209	7.16
732.529	7.13
732.849	7.16
733.169	7.04
733.489	7.01
733.809	7.04
734.129	7.04
734.448	7.05
734.768	7.01
735.088	7.09
735.408	7.04
735.727	7.21
736.047	7.17
736.366	7.12
736.686	7.03
737.005	6.95
737.325	6.99
737.644	7.26
737.963	7.14
738.283	6.99
738.602	7.05
738.921	7.16
739.24	7.2
739.56	7.21
739.879	7.57
740.198	7.68
740.517	7.68
740.836	7.6
741.155	7.44
741.473	7.45
741.792	7.36
742.111	7.56
742.43	7.46
742.748	7.27
743.067	7.11
743.386	7.12
743.704	7.16
744.023	7.27
744.341	7.22
744.66	7.34
744.978	7.45
745.297	7.38
745.615	7.41
745.933	7.43
746.252	7.36
746.57	7.12
746.888	6.94
747.206	6.75
747.524	6.97
747.842	7.09
748.16	7.29
748.478	7.36
748.796	7.39
749.114	7.69
749.432	7.71
749.749	8.14
750.067	8.12
750.385	7.94
750.703	7.94
751.02	7.73
751.338	7.61
751.655	7.56
751.973	7.76
752.29	7.69
752.608	7.76
752.925	7.87
753.242	7.83
753.56	7.68
753.877	7.78
754.194	7.73
754.511	7.78
754.828	7.67
755.145	7.67
755.462	7.57
755.779	7.45
756.096	7.38
756.413	7.21
756.73	7.51
757.047	7.66
757.364	7.73
757.68	8
757.997	7.97
758.314	7.7
758.63	7.55
758.947	7.75
759.264	7.52
759.58	7.6
759.896	7.92
760.213	8.18
760.529	8.21
760.846	8.16
761.162	8.06
761.478	8.02
761.794	7.99
762.11	7.94
762.426	7.85
762.743	7.98
763.059	7.95
763.375	7.83
763.69	7.89
764.006	7.79
764.322	8.03
764.638	7.98
764.954	8.29
765.27	8.48
765.585	8.34
765.901	8.48
766.216	8.48
766.532	8.22
766.848	8.07
767.163	8.03
767.478	8.14
767.794	8.12
768.109	8.13
768.424	8.19
768.74	8
769.055	7.85
769.37	8.05
769.685	8.18
770	8.15
770.315	8.01
770.63	7.98
770.945	7.6
771.26	7.39
771.575	7.1
771.89	6.84
772.205	6.75
772.52	6.8
772.834	6.58
773.149	6.64
773.464	6.7
773.778	6.9
774.093	6.82
774.407	6.9
774.722	6.84
775.036	6.89
775.351	7.17
775.665	7.47
775.979	7.25
776.293	6.97
776.608	6.72
776.922	6.44
777.236	6.31
777.55	5.99
777.864	6.37
778.178	6.29
778.492	6.44
778.806	6.31
779.12	6.24
779.434	6.5
779.747	6.54
780.061	6.64
780.375	6.68
780.689	6.69
781.002	6.79
781.316	6.87
781.629	6.98
781.943	6.88
782.256	6.49
782.57	6.45
782.883	6.76
783.196	6.98
783.51	7.23
783.823	7.08
784.136	7.68
784.449	7.95
784.762	7.84
785.075	7.75
785.388	8.06
785.701	7.96
786.014	7.47
786.327	7.46
786.64	8.03
786.953	7.87
787.266	7.84
787.578	7.89
787.891	8
788.204	7.86
788.516	8.13
788.829	8.39
789.141	8.46
789.454	8.41
789.766	8.59
790.079	8.48
790.391	9.02
790.703	9.08
791.016	8.64
791.328	9.18
791.64	8.66
791.952	8.89
792.264	8.57
792.576	8.42
792.888	8.71
793.2	8.23
793.512	8
793.824	8.17
794.136	8.11
794.448	8.06
794.76	7.84
795.071	7.49
795.383	7.63
795.695	7.5
796.006	7.25
796.318	7.21
796.629	7.52
796.941	6.94
797.252	6.72
797.564	7.12
797.875	6.81
798.186	7.22
798.497	6.98
798.809	7.16
799.12	7.58
799.431	7.16
799.742	6.98
800.053	7.13
800.364	6.81
800.675	6.58
800.986	6.19
801.297	6.27
801.608	6.42
801.918	5.87
802.229	6.28
802.54	6.13
802.851	5.99
803.161	6.6
803.472	6.7
803.782	6.68
804.093	6.33
804.403	6.41
804.714	6.34
805.024	6.12
805.334	6.8
805.645	6.98
805.955	7
806.265	7.39
806.575	7.21
806.885	7.28
807.195	7.98
807.505	8.28
807.815	8.56
808.125	8.53
808.435	8.95
808.745	8.46
809.055	8.91
809.365	8.9
809.674	8.38
809.984	8.77
810.294	8.87
810.603	9.32
810.913	9.56
811.222	9.85
811.532	10.36
811.841	10.23
812.151	10.51
812.46	10.87
812.769	10.52
813.079	10.55
813.388	10.44
813.697	10.11
814.006	10.08
814.315	9.38
814.624	9.47
814.933	9.45
815.242	9.8
815.551	9.68
815.86	9.93
816.169	8.92
816.478	8.97
816.786	8.94
817.095	8.79
817.404	9.3
817.712	9.11
818.021	8.75
818.33	8.34
818.638	8.06
818.947	8.21
819.255	9
819.563	9.18
819.872	9.23
820.18	9.29
820.488	9.05
820.796	9.08
821.105	9.07
821.413	9.36
821.721	9.34
822.029	9.37
822.337	9.33
822.645	9.56
822.953	9.57
823.26	9.51
823.568	9.61
823.876	9.52
824.184	9.59
824.491	9.84
824.799	9.96
825.107	10.01
825.414	10.15
825.722	9.97
826.029	10
826.337	10.14
826.644	10.13
826.951	10.25
827.259	10.42
827.566	10.43
827.873	10.2
828.18	10.33
828.488	10.3
828.795	10.33
829.102	10.51
829.409	10.49
829.716	10.48
830.023	10.05
830.329	9.71
830.636	9.62
830.943	9.08
831.25	9.1
831.557	9.07
831.863	8.77
832.17	8.24
832.476	8.32
832.783	8.07
833.089	8.23
833.396	8.51
833.702	8.83
834.009	8.97
834.315	9.1
834.621	9.01
834.928	9.1
835.234	9.04
835.54	9.1
835.846	9.14
836.152	9.08
836.458	9.4
836.764	9.84
837.07	9.59
837.376	9.58
837.682	9.34
837.988	8.85
838.293	8.77
838.599	8.99
838.905	8.8
839.211	8.21
839.516	7.76
839.822	7.59
840.127	7.07
840.433	7.22
840.738	7.12
841.044	6.22
841.349	6
841.654	5.81
841.959	5.23
842.265	4.62
842.57	5.43
842.875	5.28
843.18	5.59
843.485	6.05
843.79	6.01
844.095	5.93
844.4	6.54
844.705	5.39
845.01	6
845.315	6.95
845.619	8.67
845.924	9.43
846.229	9.34
846.533	9.97
846.838	8.69
847.142	7.7
847.447	8.58
847.751	8.17
848.056	6.94
848.36	7.2
848.664	9.4
848.969	9.18
849.273	7.61
849.577	6.29
849.881	6.56
850.185	7.37
850.489	8.11
850.794	9.46
851.097	12.44
851.401	11.74
851.705	10.15
852.009	9.27
852.313	7.1
852.617	7.54
852.92	7.69
853.224	7.56
853.528	8.85
853.831	9.22
854.135	11.29
854.438	13.65
854.742	13.09
855.045	11.28
855.349	9.6
855.652	10.71
855.955	11.1
856.259	10.02
856.562	8.21
856.865	7.72
857.168	5.16
857.471	3.62
857.774	4.59
858.077	6.39
858.38	7.27
858.683	8.3
858.986	7.6
859.289	6.95
859.592	9.23
859.894	10.27
860.197	10.46
860.5	8.45
860.802	7.66
861.105	9.34
861.407	9.17
861.71	10.02
862.012	9.43
862.315	9.68
862.617	11.17
862.919	12.24
863.222	12.83
863.524	13.68
863.826	14.21
864.128	14.36
864.43	13.2
864.732	13.17
865.034	14.22
865.336	15.72
865.638	15.98
865.94	12.01
866.242	10.72
866.544	9.56
866.846	9.16
867.147	8.26
867.449	6.29
867.751	7.61
868.052	7.96
868.354	9.16
868.655	8.38
868.957	5.84
869.258	7.21
869.56	7.5
869.861	8
870.162	6.1
870.463	6.05
870.765	6.09
871.066	4.04
871.367	2.46
871.668	1.32
871.969	-0.23
872.27	0.59
872.571	0.92
872.872	1.7
873.173	2.37
873.473	3.49
873.774	4.12
874.075	2.49
874.376	0.9
874.676	1.12
874.977	-0.17
875.277	2.57
875.578	3.04
875.878	1.13
876.179	0.78
876.479	2.11
876.78	1.35
877.08	1.11
877.38	1.49
877.68	1.58
877.981	1.25
878.281	2.29
878.581	6.42
