Data from BA57758_Reflection_00010.txt Node
Date: Mon Nov 18 15:11:43 EST 2019
User: vgr7
Spectrometer: USB2G7710
Scans to average: 3
Trigger mode: 4
Integration Time (sec): 2.000000E-2
Electric dark correction enabled: true
Boxcar width: 10
XAxis mode: Wavelengths
Number of Pixels in Spectrum: 2048
>>>>>Begin Spectral Data<<<<<
177.721	-70.04
178.105	-88.34
178.488	-44.58
178.871	39.09
179.254	5.01
179.636	87.29
180.019	-18.81
180.402	-200
180.785	-94.73
181.168	-54.89
181.55	-117.97
181.933	-0.38
182.316	-19.61
182.698	61.78
183.081	44.77
183.463	10.67
183.846	226.46
184.228	4.86
184.611	-27.37
184.993	-28.7
185.376	-24.86
185.758	-33.21
186.14	-110.15
186.522	-50.79
186.904	-28.77
187.287	-44.9
187.669	-63.15
188.051	-27.66
188.433	-34.1
188.815	-56.43
189.197	-82.88
189.579	-76.22
189.961	-43.63
190.342	-6.01
190.724	-411.85
191.106	-397.24
191.488	-228.77
191.869	329.97
192.251	27.2
192.633	45.4
193.014	76.53
193.396	53.79
193.777	34.66
194.159	-160.87
194.54	4.67
194.922	20.87
195.303	-32.09
195.684	2.09
196.065	22.1
196.447	17.46
196.828	-9.05
197.209	-9.72
197.59	-26.99
197.971	-29.82
198.352	-19.36
198.733	-26.88
199.114	-23.11
199.495	-1.25
199.876	-15.5
200.257	-15.27
200.638	-21.8
201.018	-16.84
201.399	-25.03
201.78	-4.16
202.16	-8.3
202.541	-27.41
202.922	-51.1
203.302	-53.26
203.683	-103.04
204.063	-205
204.444	-207.94
204.824	-193.01
205.204	-353.54
205.585	-209.83
205.965	-323.02
206.345	-182.86
206.725	-463.48
207.106	-887.15
207.486	-750.99
207.866	-668.97
208.246	-1464.2
208.626	-1936.2
209.006	-636.55
209.386	18340
209.766	-1120.56
210.145	-746.82
210.525	-1149.21
210.905	-188.57
211.285	-110.07
211.664	-59.37
212.044	-40.98
212.424	-31.42
212.803	-20.3
213.183	-23.61
213.562	-22.68
213.942	-4.46
214.321	-10.69
214.701	2.57
215.08	8.71
215.459	4.63
215.838	4.93
216.218	-4.78
216.597	9.95
216.976	-0.86
217.355	-0.94
217.734	-0.38
218.113	-19.1
218.492	-26.61
218.871	-45.61
219.25	-42.32
219.629	-64.17
220.008	-64.54
220.387	-67.87
220.766	-84.8
221.144	-101.29
221.523	-91.65
221.902	-125.82
222.28	-127.76
222.659	-109.09
223.037	-83.42
223.416	-70.26
223.794	-66.94
224.173	-64.38
224.551	-57.31
224.929	-27.44
225.308	-21.95
225.686	-8.33
226.064	-4.82
226.442	-7.17
226.821	-1.26
227.199	-5.07
227.577	-5.8
227.955	-5.63
228.333	-5.06
228.711	-3.04
229.089	-0.98
229.467	-3.13
229.845	-3.02
230.222	-2.01
230.6	-2.46
230.978	-1.63
231.356	-1.58
231.733	-0.42
232.111	0.14
232.488	0.02
232.866	-1.58
233.243	-1.07
233.621	-2.65
233.998	-1.82
234.376	-1.45
234.753	-3.24
235.13	-1.06
235.508	-0.05
235.885	-0.25
236.262	-1.44
236.639	-1.25
237.016	-1.05
237.393	-0.6
237.77	0.97
238.147	1.71
238.524	1.99
238.901	1.77
239.278	2.82
239.655	3.08
240.032	3.02
240.409	2.55
240.785	2.89
241.162	2.83
241.539	3.02
241.915	3.32
242.292	3.52
242.668	3.89
243.045	3.54
243.421	3.94
243.798	3.87
244.174	4.15
244.551	3.97
244.927	4.1
245.303	4.45
245.679	4.23
246.056	4.18
246.432	4.39
246.808	4.44
247.184	4.2
247.56	4.31
247.936	4.44
248.312	4.6
248.688	4.52
249.064	4.34
249.44	4.37
249.815	4.16
250.191	4.19
250.567	4.28
250.943	4.37
251.318	4.17
251.694	4.13
252.069	4.02
252.445	3.98
252.82	3.8
253.196	3.49
253.571	3.37
253.947	3.29
254.322	2.82
254.697	2.78
255.073	2.88
255.448	2.56
255.823	2.67
256.198	2.76
256.573	2.82
256.948	3
257.323	3.28
257.698	3.43
258.073	3.42
258.448	3.38
258.823	3.38
259.198	3.19
259.573	3.3
259.948	3.33
260.322	3.4
260.697	3.43
261.072	3.48
261.446	3.49
261.821	3.38
262.195	3.6
262.57	3.52
262.944	3.35
263.319	3.47
263.693	3.38
264.067	3.27
264.442	3.25
264.816	3.39
265.19	3.11
265.564	2.94
265.938	2.77
266.313	2.59
266.687	2.57
267.061	2.7
267.435	2.69
267.809	2.94
268.183	3.11
268.556	3.1
268.93	3.19
269.304	3.37
269.678	3.62
270.051	3.42
270.425	3.56
270.799	3.59
271.172	3.64
271.546	3.55
271.919	3.58
272.293	3.65
272.666	3.45
273.04	3.45
273.413	3.5
273.787	3.68
274.16	3.74
274.533	3.67
274.906	3.72
275.279	3.58
275.653	3.43
276.026	3.2
276.399	3.12
276.772	3.13
277.145	2.9
277.518	2.76
277.891	2.89
278.263	2.68
278.636	2.77
279.009	2.68
279.382	2.99
279.755	2.93
280.127	3.15
280.5	3.32
280.872	3.44
281.245	3.52
281.617	3.57
281.99	3.69
282.362	3.68
282.735	3.59
283.107	3.68
283.479	3.62
283.852	3.72
284.224	3.74
284.596	3.61
284.968	3.72
285.34	3.72
285.713	3.63
286.085	3.71
286.457	3.73
286.829	3.72
287.201	3.64
287.572	3.77
287.944	3.62
288.316	3.63
288.688	3.54
289.06	3.58
289.431	3.58
289.803	3.59
290.175	3.66
290.546	3.87
290.918	3.78
291.289	3.88
291.661	3.98
292.032	4.09
292.403	4.24
292.775	4.34
293.146	4.38
293.517	4.39
293.889	4.49
294.26	4.58
294.631	4.74
295.002	4.71
295.373	4.64
295.744	4.65
296.115	4.83
296.486	4.87
296.857	4.92
297.228	5
297.599	5
297.97	5.07
298.34	5.06
298.711	5.1
299.082	5.07
299.452	5.04
299.823	5.03
300.194	4.98
300.564	4.91
300.935	4.94
301.305	5
301.676	5
302.046	4.99
302.416	5.01
302.787	5.04
303.157	5.09
303.527	5.09
303.897	4.93
304.267	5.15
304.637	5.19
305.008	5.11
305.378	5.38
305.748	5.37
306.117	5.43
306.487	5.65
306.857	5.68
307.227	5.81
307.597	5.89
307.967	5.99
308.336	6.12
308.706	6.11
309.076	6.12
309.445	6.12
309.815	6.26
310.184	6.21
310.554	6.37
310.923	6.39
311.293	6.56
311.662	6.58
312.031	6.57
312.401	6.57
312.77	6.63
313.139	6.53
313.508	6.55
313.877	6.52
314.246	6.59
314.616	6.71
314.985	6.76
315.353	6.81
315.722	6.95
316.091	6.94
316.46	7.02
316.829	7.3
317.198	7.38
317.567	7.38
317.935	7.44
318.304	7.42
318.672	7.46
319.041	7.62
319.41	7.71
319.778	7.79
320.147	7.93
320.515	7.96
320.883	8.04
321.252	8.19
321.62	8.26
321.988	8.22
322.357	8.28
322.725	8.14
323.093	8.3
323.461	8.34
323.829	8.47
324.197	8.56
324.565	8.5
324.933	8.48
325.301	8.44
325.669	8.4
326.037	8.37
326.405	8.5
326.772	8.41
327.14	8.59
327.508	8.43
327.875	8.23
328.243	8.32
328.61	8.18
328.978	8.22
329.346	8.28
329.713	8.2
330.08	8.16
330.448	8.32
330.815	8.14
331.182	8.07
331.55	8.06
331.917	8.05
332.284	8.13
332.651	8.14
333.018	8.27
333.385	8.37
333.752	8.48
334.119	8.52
334.486	8.47
334.853	8.45
335.22	8.58
335.587	8.87
335.954	8.79
336.32	8.85
336.687	8.89
337.054	8.92
337.42	9.15
337.787	9.2
338.153	9.21
338.52	9.32
338.886	9.27
339.253	9.16
339.619	9.26
339.986	9.19
340.352	9.26
340.718	9.14
341.084	9.13
341.451	9.13
341.817	9.13
342.183	9.15
342.549	9.08
342.915	9.16
343.281	9.05
343.647	9.12
344.013	9.15
344.379	9
344.745	8.98
345.11	8.89
345.476	8.97
345.842	8.96
346.208	8.98
346.573	9.02
346.939	9.11
347.304	9.08
347.67	9.17
348.035	9.12
348.401	9.2
348.766	9.28
349.132	9.28
349.497	9.27
349.862	9.33
350.228	9.42
350.593	9.29
350.958	9.41
351.323	9.42
351.688	9.45
352.053	9.62
352.418	9.62
352.783	9.73
353.148	9.71
353.513	9.63
353.878	9.58
354.243	9.62
354.608	9.67
354.972	9.65
355.337	9.62
355.702	9.66
356.066	9.62
356.431	9.56
356.795	9.56
357.16	9.48
357.524	9.43
357.889	9.27
358.253	9.31
358.618	9.26
358.982	9.17
359.346	9.08
359.71	9.03
360.075	8.94
360.439	8.8
360.803	8.74
361.167	8.76
361.531	8.75
361.895	8.65
362.259	8.58
362.623	8.54
362.987	8.45
363.351	8.43
363.714	8.38
364.078	8.33
364.442	8.26
364.806	8.24
365.169	8.19
365.533	8.23
365.896	8.18
366.26	8.06
366.623	8.02
366.987	7.97
367.35	7.88
367.714	7.94
368.077	7.95
368.44	7.89
368.803	7.79
369.167	7.69
369.53	7.71
369.893	7.73
370.256	7.65
370.619	7.6
370.982	7.51
371.345	7.44
371.708	7.42
372.071	7.36
372.434	7.33
372.797	7.24
373.159	7.14
373.522	7.05
373.885	7.01
374.247	6.99
374.61	6.94
374.973	6.88
375.335	6.74
375.698	6.67
376.06	6.61
376.423	6.56
376.785	6.6
377.147	6.58
377.51	6.51
377.872	6.51
378.234	6.46
378.596	6.42
378.958	6.37
379.321	6.28
379.683	6.25
380.045	6.19
380.407	6.2
380.769	6.14
381.13	6.07
381.492	6.07
381.854	6.02
382.216	6.01
382.578	5.94
382.939	5.88
383.301	5.82
383.663	5.75
384.024	5.71
384.386	5.69
384.747	5.62
385.109	5.53
385.47	5.47
385.832	5.45
386.193	5.42
386.554	5.39
386.916	5.36
387.277	5.32
387.638	5.3
387.999	5.24
388.36	5.25
388.721	5.24
389.082	5.21
389.443	5.15
389.804	5.13
390.165	5.07
390.526	5.07
390.887	5.05
391.248	5.06
391.609	5.03
391.969	4.98
392.33	4.94
392.691	4.91
393.051	4.87
393.412	4.85
393.772	4.79
394.133	4.74
394.493	4.7
394.854	4.69
395.214	4.65
395.574	4.62
395.935	4.57
396.295	4.54
396.655	4.44
397.015	4.44
397.376	4.39
397.736	4.39
398.096	4.34
398.456	4.31
398.816	4.28
399.176	4.24
399.535	4.2
399.895	4.16
400.255	4.17
400.615	4.19
400.975	4.12
401.334	4.11
401.694	4.12
402.054	4.12
402.413	4.08
402.773	4.02
403.132	4
403.492	4
403.851	3.98
404.211	4.01
404.57	3.98
404.929	4.02
405.288	4
405.648	4.02
406.007	3.98
406.366	3.98
406.725	3.98
407.084	3.98
407.443	3.96
407.802	3.98
408.161	3.95
408.52	3.95
408.879	3.95
409.238	3.94
409.596	3.93
409.955	3.93
410.314	3.94
410.673	3.95
411.031	3.91
411.39	3.91
411.748	3.88
412.107	3.9
412.465	3.86
412.824	3.85
413.182	3.82
413.54	3.82
413.899	3.81
414.257	3.8
414.615	3.76
414.974	3.78
415.332	3.73
415.69	3.7
416.048	3.68
416.406	3.66
416.764	3.63
417.122	3.62
417.48	3.59
417.838	3.6
418.195	3.57
418.553	3.59
418.911	3.57
419.269	3.58
419.626	3.55
419.984	3.55
420.342	3.55
420.699	3.53
421.057	3.53
421.414	3.52
421.772	3.51
422.129	3.5
422.486	3.5
422.844	3.49
423.201	3.48
423.558	3.49
423.915	3.49
424.273	3.5
424.63	3.5
424.987	3.5
425.344	3.49
425.701	3.48
426.058	3.46
426.415	3.48
426.772	3.46
427.128	3.46
427.485	3.46
427.842	3.45
428.199	3.45
428.555	3.44
428.912	3.43
429.269	3.44
429.625	3.44
429.982	3.41
430.338	3.4
430.695	3.42
431.051	3.38
431.407	3.37
431.764	3.36
432.12	3.35
432.476	3.35
432.832	3.33
433.189	3.34
433.545	3.35
433.901	3.32
434.257	3.34
434.613	3.32
434.969	3.3
435.325	3.27
435.681	3.28
436.036	3.28
436.392	3.28
436.748	3.27
437.104	3.26
437.459	3.27
437.815	3.28
438.171	3.27
438.526	3.29
438.882	3.29
439.237	3.3
439.593	3.3
439.948	3.28
440.304	3.29
440.659	3.3
441.014	3.3
441.369	3.29
441.725	3.27
442.08	3.28
442.435	3.28
442.79	3.29
443.145	3.27
443.5	3.26
443.855	3.25
444.21	3.24
444.565	3.23
444.92	3.22
445.275	3.21
445.629	3.21
445.984	3.19
446.339	3.18
446.693	3.16
447.048	3.15
447.403	3.15
447.757	3.14
448.112	3.12
448.466	3.1
448.82	3.1
449.175	3.1
449.529	3.08
449.883	3.06
450.238	3.06
450.592	3.07
450.946	3.05
451.3	3.04
451.654	3.03
452.008	3.04
452.362	3.03
452.716	3.02
453.07	3.02
453.424	3.03
453.778	3.02
454.132	3.02
454.486	3.02
454.839	3
455.193	2.99
455.547	3
455.9	3
456.254	3.01
456.607	3.01
456.961	3.03
457.314	3.06
457.668	3.05
458.021	3.03
458.375	3.04
458.728	3.06
459.081	3.08
459.434	3.06
459.787	3.06
460.141	3.06
460.494	3.05
460.847	3.06
461.2	3.06
461.553	3.09
461.906	3.09
462.259	3.11
462.611	3.13
462.964	3.13
463.317	3.14
463.67	3.15
464.022	3.15
464.375	3.14
464.728	3.13
465.08	3.13
465.433	3.15
465.785	3.15
466.138	3.13
466.49	3.15
466.843	3.16
467.195	3.18
467.547	3.21
467.899	3.2
468.252	3.2
468.604	3.22
468.956	3.22
469.308	3.23
469.66	3.25
470.012	3.25
470.364	3.25
470.716	3.28
471.068	3.28
471.42	3.27
471.772	3.3
472.123	3.3
472.475	3.31
472.827	3.33
473.178	3.32
473.53	3.32
473.882	3.31
474.233	3.31
474.585	3.3
474.936	3.28
475.288	3.28
475.639	3.29
475.99	3.3
476.342	3.3
476.693	3.3
477.044	3.3
477.395	3.28
477.746	3.3
478.097	3.26
478.448	3.26
478.8	3.25
479.15	3.23
479.501	3.23
479.852	3.21
480.203	3.2
480.554	3.21
480.905	3.22
481.255	3.21
481.606	3.22
481.957	3.23
482.307	3.24
482.658	3.25
483.009	3.24
483.359	3.23
483.709	3.24
484.06	3.25
484.41	3.25
484.761	3.26
485.111	3.26
485.461	3.27
485.811	3.27
486.162	3.28
486.512	3.29
486.862	3.3
487.212	3.31
487.562	3.32
487.912	3.33
488.262	3.33
488.612	3.34
488.961	3.33
489.311	3.34
489.661	3.34
490.011	3.34
490.36	3.34
490.71	3.34
491.06	3.34
491.409	3.33
491.759	3.33
492.108	3.33
492.458	3.34
492.807	3.34
493.157	3.36
493.506	3.36
493.855	3.36
494.204	3.37
494.554	3.38
494.903	3.38
495.252	3.4
495.601	3.41
495.95	3.44
496.299	3.47
496.648	3.48
496.997	3.52
497.346	3.56
497.695	3.59
498.043	3.61
498.392	3.62
498.741	3.66
499.09	3.69
499.438	3.72
499.787	3.75
500.135	3.78
500.484	3.81
500.832	3.84
501.181	3.89
501.529	3.91
501.878	3.94
502.226	4
502.574	4.05
502.923	4.08
503.271	4.11
503.619	4.15
503.967	4.2
504.315	4.22
504.663	4.26
505.011	4.32
505.359	4.36
505.707	4.42
506.055	4.47
506.403	4.54
506.751	4.62
507.098	4.68
507.446	4.76
507.794	4.81
508.141	4.88
508.489	4.96
508.837	5.04
509.184	5.11
509.531	5.17
509.879	5.24
510.226	5.33
510.574	5.4
510.921	5.5
511.268	5.54
511.616	5.64
511.963	5.71
512.31	5.79
512.657	5.88
513.004	5.98
513.351	6.07
513.698	6.14
514.045	6.22
514.392	6.33
514.739	6.41
515.086	6.51
515.432	6.62
515.779	6.71
516.126	6.83
516.473	6.95
516.819	7.06
517.166	7.15
517.512	7.25
517.859	7.38
518.205	7.48
518.552	7.6
518.898	7.7
519.245	7.82
519.591	7.93
519.937	8.03
520.283	8.17
520.629	8.29
520.976	8.46
521.322	8.61
521.668	8.76
522.014	8.91
522.36	9.08
522.706	9.26
523.052	9.46
523.398	9.67
523.743	9.88
524.089	10.09
524.435	10.3
524.781	10.5
525.126	10.68
525.472	10.87
525.817	11.03
526.163	11.2
526.509	11.36
526.854	11.51
527.199	11.66
527.545	11.81
527.89	11.96
528.235	12.08
528.581	12.23
528.926	12.38
529.271	12.53
529.616	12.68
529.961	12.83
530.306	12.99
530.651	13.15
530.996	13.34
531.341	13.52
531.686	13.71
532.031	13.91
532.376	14.11
532.721	14.33
533.065	14.56
533.41	14.78
533.755	15.01
534.099	15.26
534.444	15.5
534.788	15.72
535.133	15.94
535.477	16.2
535.822	16.47
536.166	16.75
536.51	17.08
536.855	17.38
537.199	17.71
537.543	18.05
537.887	18.4
538.231	18.71
538.576	19.05
538.92	19.39
539.264	19.71
539.608	20.05
539.951	20.37
540.295	20.64
540.639	20.9
540.983	21.18
541.327	21.45
541.671	21.71
542.014	21.97
542.358	22.23
542.701	22.49
543.045	22.74
543.389	22.99
543.732	23.25
544.075	23.52
544.419	23.77
544.762	24.05
545.105	24.34
545.449	24.64
545.792	24.99
546.135	25.34
546.478	25.7
546.821	26.02
547.165	26.35
547.508	26.75
547.851	27.1
548.194	27.47
548.536	27.83
548.879	28.21
549.222	28.59
549.565	29
549.908	29.37
550.25	29.76
550.593	30.16
550.936	30.54
551.278	30.96
551.621	31.41
551.963	31.77
552.306	32.14
552.648	32.5
552.991	32.87
553.333	33.23
553.675	33.51
554.017	33.84
554.36	34.16
554.702	34.46
555.044	34.81
555.386	35.09
555.728	35.42
556.07	35.73
556.412	36.11
556.754	36.46
557.096	36.76
557.438	37.11
557.78	37.47
558.121	37.79
558.463	38.11
558.805	38.38
559.147	38.74
559.488	39.04
559.83	39.36
560.171	39.61
560.513	39.92
560.854	40.26
561.196	40.6
561.537	40.93
561.878	41.21
562.22	41.43
562.561	41.71
562.902	42.02
563.243	42.28
563.584	42.55
563.925	42.79
564.266	43.12
564.607	43.29
564.948	43.54
565.289	43.77
565.63	44.01
565.971	44.24
566.312	44.46
566.653	44.7
566.993	44.9
567.334	45.11
567.675	45.32
568.015	45.54
568.356	45.77
568.696	45.95
569.037	46.2
569.377	46.46
569.718	46.7
570.058	46.8
570.398	47.04
570.739	47.22
571.079	47.41
571.419	47.56
571.759	47.82
572.099	47.98
572.439	48.15
572.779	48.32
573.119	48.5
573.459	48.64
573.799	48.79
574.139	48.98
574.479	49.18
574.819	49.32
575.158	49.43
575.498	49.55
575.838	49.7
576.177	49.82
576.517	50.02
576.856	50.17
577.196	50.43
577.535	50.56
577.875	50.71
578.214	50.88
578.553	51.09
578.893	51.15
579.232	51.3
579.571	51.46
579.91	51.56
580.25	51.67
580.589	51.86
580.928	52.03
581.267	52.18
581.606	52.3
581.945	52.44
582.283	52.69
582.622	52.79
582.961	52.91
583.3	53.13
583.639	53.2
583.977	53.3
584.316	53.47
584.654	53.64
584.993	53.78
585.332	53.88
585.67	54
586.008	54.22
586.347	54.38
586.685	54.48
587.024	54.72
587.362	54.85
587.7	54.92
588.038	55.01
588.376	55.12
588.715	55.24
589.053	55.39
589.391	55.42
589.729	55.54
590.067	55.66
590.404	55.61
590.742	55.74
591.08	55.85
591.418	55.9
591.756	55.99
592.093	56.03
592.431	56.24
592.769	56.36
593.106	56.34
593.444	56.39
593.781	56.48
594.119	56.47
594.456	56.56
594.793	56.67
595.131	56.72
595.468	56.82
595.805	56.87
596.143	56.91
596.48	56.97
596.817	57.02
597.154	57.09
597.491	57.18
597.828	57.28
598.165	57.41
598.502	57.44
598.839	57.49
599.176	57.6
599.512	57.54
599.849	57.53
600.186	57.69
600.523	57.73
600.859	57.83
601.196	57.94
601.532	58.02
601.869	58.14
602.205	58.27
602.542	58.22
602.878	58.28
603.215	58.32
603.551	58.4
603.887	58.47
604.223	58.49
604.56	58.6
604.896	58.61
605.232	58.61
605.568	58.69
605.904	58.68
606.24	58.79
606.576	58.83
606.912	58.95
607.248	59.01
607.583	59.09
607.919	59.11
608.255	59.12
608.591	59.17
608.926	59.17
609.262	59.19
609.597	59.35
609.933	59.41
610.268	59.46
610.604	59.51
610.939	59.56
611.275	59.64
611.61	59.68
611.945	59.7
612.281	59.75
612.616	59.75
612.951	59.93
613.286	59.9
613.621	60.06
613.956	60.12
614.291	60.22
614.626	60.31
614.961	60.38
615.296	60.37
615.631	60.45
615.966	60.53
616.3	60.65
616.635	60.69
616.97	60.75
617.304	60.75
617.639	60.81
617.973	60.9
618.308	60.96
618.642	61.01
618.977	61.14
619.311	61.2
619.646	61.31
619.98	61.31
620.314	61.42
620.648	61.34
620.983	61.23
621.317	61.19
621.651	61.23
621.985	61.33
622.319	61.51
622.653	61.44
622.987	61.52
623.321	61.51
623.655	61.48
623.988	61.51
624.322	61.56
624.656	61.57
624.99	61.53
625.323	61.48
625.657	61.43
625.99	61.41
626.324	61.49
626.657	61.47
626.991	61.54
627.324	61.54
627.658	61.66
627.991	61.81
628.324	61.8
628.657	61.81
628.991	61.84
629.324	61.82
629.657	61.91
629.99	61.84
630.323	61.89
630.656	61.89
630.989	61.98
631.322	62.03
631.655	62.08
631.987	62.14
632.32	62.23
632.653	62.3
632.986	62.33
633.318	62.3
633.651	62.42
633.984	62.44
634.316	62.4
634.649	62.34
634.981	62.42
635.313	62.45
635.646	62.48
635.978	62.45
636.31	62.46
636.643	62.52
636.975	62.58
637.307	62.66
637.639	62.64
637.971	62.58
638.303	62.76
638.635	62.73
638.967	62.74
639.299	62.83
639.631	62.87
639.963	62.88
640.295	62.99
640.626	62.83
640.958	62.72
641.29	62.72
641.621	62.8
641.953	62.76
642.285	62.83
642.616	62.84
642.948	62.91
643.279	62.94
643.61	62.93
643.942	62.83
644.273	62.89
644.604	63.05
644.936	62.97
645.267	62.89
645.598	62.92
645.929	62.95
646.26	62.91
646.591	62.95
646.922	62.97
647.253	62.8
647.584	63
647.915	63.13
648.245	63.14
648.576	63.15
648.907	63.13
649.238	63.17
649.568	63.2
649.899	63.13
650.229	63.25
650.56	63.19
650.89	63.33
651.221	63.31
651.551	63.25
651.882	63.44
652.212	63.41
652.542	63.36
652.872	63.5
653.203	63.53
653.533	63.55
653.863	63.59
654.193	63.65
654.523	63.57
654.853	63.63
655.183	63.69
655.513	63.55
655.843	63.54
656.172	63.56
656.502	63.57
656.832	63.63
657.162	63.63
657.491	63.63
657.821	63.66
658.15	63.58
658.48	63.64
658.809	63.5
659.139	63.58
659.468	63.7
659.798	63.64
660.127	63.67
660.456	63.63
660.785	63.66
661.115	63.7
661.444	63.89
661.773	63.74
662.102	63.78
662.431	63.94
662.76	63.98
663.089	64.04
663.418	64.07
663.747	64.13
664.076	64.11
664.404	64.07
664.733	64.12
665.062	64.2
665.39	64.19
665.719	64.22
666.048	64.21
666.376	64.14
666.705	64.11
667.033	64.12
667.362	64.13
667.69	64.17
668.018	64.17
668.347	64.01
668.675	64.15
669.003	64.18
669.331	64.24
669.659	64.21
669.987	64.31
670.315	64.33
670.643	64.25
670.971	64.26
671.299	64.5
671.627	64.44
671.955	64.39
672.283	64.41
672.61	64.51
672.938	64.43
673.266	64.53
673.593	64.66
673.921	64.58
674.249	64.65
674.576	64.69
674.904	64.69
675.231	64.74
675.558	64.64
675.886	64.73
676.213	64.75
676.54	64.78
676.867	64.66
677.195	64.69
677.522	64.65
677.849	64.54
678.176	64.49
678.503	64.59
678.83	64.53
679.157	64.46
679.484	64.51
679.81	64.67
680.137	64.6
680.464	64.52
680.791	64.59
681.117	64.54
681.444	64.49
681.771	64.57
682.097	64.42
682.424	64.56
682.75	64.46
683.077	64.4
683.403	64.4
683.729	64.32
684.056	64.26
684.382	64.32
684.708	64.48
685.034	64.35
685.36	64.4
685.686	64.53
686.012	64.71
686.339	64.69
686.664	64.56
686.99	64.6
687.316	64.69
687.642	64.75
687.968	64.8
688.294	64.82
688.619	64.86
688.945	65.03
689.271	64.89
689.596	64.92
689.922	64.86
690.247	64.92
690.573	64.98
690.898	64.99
691.224	65.16
691.549	65.13
691.874	65.15
692.2	64.98
692.525	64.97
692.85	64.91
693.175	64.9
693.5	64.76
693.825	64.72
694.15	64.65
694.475	64.51
694.8	64.41
695.125	64.3
695.45	64.01
695.775	64.02
696.099	64.08
696.424	63.96
696.749	64.01
697.073	63.9
697.398	63.86
697.723	63.92
698.047	63.74
698.372	63.71
698.696	63.81
699.02	63.78
699.345	63.78
699.669	63.71
699.993	63.78
700.318	63.91
700.642	64.01
700.966	63.96
701.29	63.87
701.614	63.87
701.938	63.88
702.262	64.08
702.586	64.05
702.91	63.95
703.234	64.17
703.557	64.16
703.881	64.19
704.205	64.16
704.529	64.08
704.852	64.27
705.176	64.36
705.499	64.39
705.823	64.52
706.146	64.52
706.47	64.51
706.793	64.4
707.117	64.58
707.44	64.51
707.763	64.65
708.086	64.79
708.409	64.82
708.733	64.94
709.056	65.07
709.379	65.14
709.702	65.24
710.025	65.08
710.348	65.08
710.671	65.27
710.993	65.55
711.316	65.67
711.639	65.56
711.962	65.38
712.284	65.23
712.607	65.3
712.93	65.3
713.252	65.28
713.575	65.2
713.897	65.03
714.22	65.15
714.542	65.1
714.864	65.19
715.187	65.13
715.509	65.23
715.831	65.19
716.153	65.27
716.475	65.3
716.798	65.25
717.12	65.48
717.442	65.37
717.764	65.19
718.085	65.09
718.407	65.02
718.729	65.23
719.051	65.29
719.373	65.08
719.695	65.1
720.016	65.32
720.338	65.44
720.659	65.51
720.981	65.32
721.302	65.4
721.624	65.32
721.945	65.56
722.267	65.64
722.588	65.63
722.909	65.49
723.231	65.74
723.552	65.86
723.873	65.59
724.194	65.81
724.515	65.88
724.836	65.86
725.157	65.92
725.478	65.96
725.799	65.97
726.12	65.88
726.441	65.87
726.762	65.69
727.083	65.47
727.403	65.56
727.724	65.69
728.045	65.62
728.365	65.58
728.686	65.59
729.006	65.3
729.327	65.13
729.647	65.26
729.967	65.19
730.288	65.26
730.608	65.29
730.928	65.15
731.249	65.19
731.569	65.29
731.889	65.3
732.209	65.25
732.529	65.22
732.849	65.43
733.169	65.39
733.489	65.36
733.809	65.59
734.129	65.41
734.448	65.46
734.768	65.42
735.088	65.63
735.408	65.69
735.727	65.92
736.047	66.2
736.366	66.26
736.686	66.04
737.005	66.08
737.325	66.12
737.644	66.19
737.963	66.3
738.283	66.46
738.602	66.45
738.921	66.57
739.24	66.93
739.56	66.81
739.879	66.96
740.198	67.26
740.517	66.98
740.836	66.93
741.155	66.81
741.473	66.96
741.792	67
742.111	66.82
742.43	66.7
742.748	66.44
743.067	66
743.386	66.49
743.704	66.35
744.023	66.39
744.341	66.22
744.66	66.2
744.978	66.01
745.297	66.12
745.615	66.05
745.933	65.96
746.252	65.84
746.57	65.63
746.888	65.33
747.206	65.43
747.524	65.41
747.842	65.39
748.16	65.13
748.478	64.82
748.796	64.85
749.114	64.68
749.432	64.87
749.749	65.22
750.067	64.84
750.385	64.94
750.703	64.85
751.02	65.13
751.338	64.93
751.655	64.75
751.973	64.8
752.29	64.63
752.608	64.42
752.925	64.79
753.242	64.65
753.56	64.88
753.877	65.17
754.194	65.33
754.511	65.34
754.828	65.5
755.145	65.9
755.462	65.67
755.779	66.21
756.096	66.19
756.413	66.26
756.73	66.33
757.047	66.12
757.364	66.16
757.68	65.87
757.997	65.78
758.314	66.13
758.63	66.28
758.947	66.52
759.264	66.54
759.58	66.37
759.896	66.52
760.213	66.46
760.529	66.24
760.846	66.57
761.162	66.66
761.478	66.73
761.794	66.54
762.11	66.86
762.426	66.69
762.743	66.71
763.059	66.44
763.375	66.3
763.69	66.53
764.006	66.51
764.322	66.84
764.638	67
764.954	67.12
765.27	66.84
765.585	66.48
765.901	66.48
766.216	66.5
766.532	66.51
766.848	66.39
767.163	66.55
767.478	66.46
767.794	66.48
768.109	66.73
768.424	66.85
768.74	66.58
769.055	66.67
769.37	66.49
769.685	66.49
770	66.77
770.315	66.6
770.63	66.68
770.945	66.09
771.26	66.08
771.575	65.57
771.89	66.05
772.205	66.57
772.52	66.28
772.834	66.13
773.149	66.25
773.464	66.38
773.778	66.29
774.093	65.77
774.407	65.61
774.722	64.91
775.036	64.59
775.351	64.82
775.665	64.09
775.979	63.76
776.293	64.33
776.608	63.92
776.922	63.74
777.236	64.01
777.55	64.14
777.864	64.22
778.178	64.35
778.492	63.94
778.806	63.64
779.12	64.1
779.434	64.33
779.747	64.41
780.061	64.45
780.375	64.33
780.689	64.5
781.002	64.43
781.316	64.6
781.629	65.03
781.943	64.92
782.256	65.48
782.57	66.07
782.883	65.78
783.196	65.67
783.51	65.84
783.823	65.44
784.136	65.73
784.449	65.28
784.762	65.35
785.075	65.41
785.388	65.51
785.701	65.52
786.014	65.5
786.327	65.43
786.64	65.27
786.953	65.48
787.266	65.75
787.578	65.84
787.891	65.89
788.204	65.63
788.516	65.45
788.829	65.23
789.141	65.46
789.454	65.57
789.766	66.09
790.079	66
790.391	66.11
790.703	65.93
791.016	66.08
791.328	66.42
791.64	66.89
791.952	67.05
792.264	67.36
792.576	66.98
792.888	67.16
793.2	67.58
793.512	67.41
793.824	67.78
794.136	67.96
794.448	68.16
794.76	67.93
795.071	68.28
795.383	68.33
795.695	67.83
796.006	67.38
796.318	66.93
796.629	67.03
796.941	67.08
797.252	67.21
797.564	67.26
797.875	67.18
798.186	67
798.497	66.83
798.809	66.55
799.12	67.3
799.431	67.24
799.742	67.01
800.053	67.25
800.364	66.8
800.675	66.73
800.986	66.55
801.297	66.68
801.608	66.82
801.918	66.69
802.229	66.97
802.54	66.74
802.851	66.92
803.161	67.11
803.472	67.45
803.782	66.9
804.093	66.39
804.403	65.84
804.714	65.11
805.024	65.46
805.334	65.21
805.645	65.29
805.955	64.89
806.265	65.14
806.575	65.01
806.885	65.54
807.195	65.77
807.505	65.86
807.815	66.66
808.125	66.43
808.435	66.54
808.745	66.15
809.055	66.88
809.365	66.82
809.674	66.82
809.984	66.59
810.294	67.22
810.603	67.65
810.913	68.03
811.222	68.53
811.532	68.69
811.841	68.52
812.151	68.28
812.46	68.73
812.769	68.53
813.079	68.4
813.388	67.5
813.697	66.94
814.006	67.03
814.315	66.57
814.624	66.83
814.933	67.09
815.242	67.21
815.551	67.45
815.86	67.64
816.169	67.56
816.478	67.39
816.786	66.83
817.095	67.16
817.404	66.88
817.712	66.35
818.021	65.53
818.33	65.51
818.638	66.12
818.947	65.98
819.255	66.74
819.563	66.8
819.872	66.93
820.18	66.94
820.488	66.98
820.796	67.21
821.105	67.1
821.413	66.96
821.721	67.13
822.029	66.93
822.337	67.09
822.645	66.88
822.953	66.81
823.26	66.86
823.568	66.9
823.876	66.99
824.184	67.29
824.491	67.6
824.799	67.82
825.107	67.57
825.414	67.59
825.722	67.26
826.029	67.27
826.337	67.39
826.644	67.59
826.951	67.6
827.259	67.48
827.566	67.39
827.873	67.67
828.18	67.63
828.488	67.78
828.795	67.63
829.102	67.91
829.409	67.94
829.716	68.26
830.023	68.38
830.329	68.21
830.636	68.11
830.943	67.73
831.25	67.92
831.557	68.38
831.863	68.85
832.17	69.12
832.476	68.93
832.783	69.02
833.089	68.99
833.396	69.19
833.702	69.08
834.009	69.38
834.315	68.97
834.621	68.81
834.928	68.56
835.234	68.69
835.54	68.67
835.846	69.29
836.152	69.4
836.458	69.2
836.764	69.76
837.07	69.93
837.376	69.67
837.682	69.07
837.988	68.47
838.293	67.68
838.599	67.87
838.905	67.51
839.211	66.76
839.516	66.81
839.822	66.55
840.127	66.07
840.433	65.88
840.738	66.34
841.044	67.04
841.349	67.74
841.654	67.53
841.959	68.69
842.265	69.08
842.57	67.79
842.875	67.6
843.18	66.4
843.485	64.88
843.79	65.75
844.095	65.64
844.4	65.79
844.705	66.11
845.01	65.29
845.315	67.39
845.619	68.01
845.924	67.73
846.229	67.76
846.533	67.38
846.838	68.97
847.142	67.68
847.447	65.88
847.751	65.94
848.056	66.77
848.36	65.85
848.664	63.04
848.969	62.96
849.273	63.33
849.577	64.23
849.881	65.16
850.185	65.68
850.489	66.21
850.794	66.13
851.097	65.28
851.401	66.67
851.705	65.04
852.009	66.63
852.313	65.09
852.617	64.33
852.92	65.56
853.224	63.16
853.528	67.49
853.831	68.1
854.135	68.15
854.438	65.48
854.742	64.58
855.045	63.03
855.349	64.67
855.652	66.29
855.955	66.18
856.259	68.94
856.562	66.06
856.865	66.25
857.168	66.5
857.471	70.16
857.774	69.11
858.077	71.45
858.38	70.29
858.683	69.27
858.986	67.99
859.289	68.1
859.592	69.93
859.894	67.03
860.197	67.11
860.5	66.89
860.802	69.5
861.105	71.29
861.407	72.69
861.71	73.81
862.012	69.84
862.315	68.8
862.617	66.13
862.919	68.8
863.222	69.71
863.524	70.44
863.826	67.97
864.128	66.9
864.43	66.96
864.732	66.97
865.034	68.17
865.336	68.8
865.638	71.39
865.94	70.73
866.242	69.1
866.544	70.87
866.846	70.18
867.147	70.99
867.449	69.9
867.751	72.95
868.052	72.37
868.354	75.52
868.655	76.54
868.957	75.78
869.258	73.39
869.56	69.96
869.861	69.96
870.162	71.39
870.463	73.61
870.765	70.65
871.066	70.17
871.367	71.19
871.668	70.37
871.969	68.84
872.27	67.67
872.571	68.01
872.872	68.42
873.173	67.24
873.473	62.41
873.774	61.08
874.075	60.83
874.376	60.96
874.676	63.21
874.977	61.08
875.277	63.77
875.578	63.62
875.878	65.82
876.179	65.31
876.479	62.88
876.78	62.23
877.08	63.45
877.38	63.77
877.68	63.54
877.981	66.42
878.281	65.02
878.581	66.71
