Data from BA57730_Reflection_00015.txt Node
Date: Mon Nov 18 16:00:04 EST 2019
User: vgr7
Spectrometer: USB2G7710
Scans to average: 3
Trigger mode: 4
Integration Time (sec): 2.000000E-2
Electric dark correction enabled: true
Boxcar width: 10
XAxis mode: Wavelengths
Number of Pixels in Spectrum: 2048
>>>>>Begin Spectral Data<<<<<
177.721	-804.76
178.105	178.43
178.488	21.81
178.871	16.67
179.254	62.96
179.636	89.9
180.019	187.47
180.402	83.72
180.785	-62.39
181.168	-92.53
181.55	-138.75
181.933	380
182.316	202.7
182.698	186.56
183.081	158.99
183.463	225.27
183.846	168.45
184.228	325.23
184.611	504.65
184.993	666.43
185.376	578.26
185.758	454.84
186.14	327.15
186.522	304.36
186.904	267.04
187.287	248.45
187.669	350.65
188.051	501.81
188.433	3561.54
188.815	550.64
189.197	402.18
189.579	350.79
189.961	373.93
190.342	312.94
190.724	678.23
191.106	-4117.39
191.488	-782.35
191.869	-397.91
192.251	-988.5
192.633	-1094.69
193.014	-914.39
193.396	2503.51
193.777	-793.05
194.159	-797.14
194.54	-498.46
194.922	-232.08
195.303	-212.63
195.684	-401.58
196.065	-260.38
196.447	-264.83
196.828	-318.4
197.209	-415.15
197.59	-422.94
197.971	-443.86
198.352	-234.53
198.733	-362.92
199.114	-386.88
199.495	-533.19
199.876	-449.49
200.257	-473.03
200.638	-279.71
201.018	-234.67
201.399	-191.59
201.78	-155.05
202.16	-193.6
202.541	-454.59
202.922	1008.4
203.302	980.79
203.683	-5160.87
204.063	477.43
204.444	275.85
204.824	209.41
205.204	490.48
205.585	408.64
205.965	546.15
206.345	267.79
206.725	211.11
207.106	195.1
207.486	209.49
207.866	164.07
208.246	102.7
208.626	87.59
209.006	-21.57
209.386	15.94
209.766	141.32
210.145	-954.05
210.525	-120.88
210.905	-13.59
211.285	10.64
211.664	-20.39
212.044	-6.59
212.424	-44.24
212.803	-75.42
213.183	-81.14
213.562	-95
213.942	-64.79
214.321	-61.57
214.701	-55.41
215.08	-62.08
215.459	-60.77
215.838	-75.48
216.218	-74.66
216.597	-60.86
216.976	-76.24
217.355	-71.34
217.734	-73.11
218.113	-72.07
218.492	-72.94
218.871	-66.54
219.25	-63.53
219.629	-79.4
220.008	-96.96
220.387	-87.91
220.766	-53.3
221.144	-79.39
221.523	-73.51
221.902	-107.4
222.28	-131.87
222.659	-129.67
223.037	-118.55
223.416	-102.01
223.794	-101.44
224.173	-99.39
224.551	-91.88
224.929	-101.99
225.308	-55.56
225.686	-51.86
226.064	-39.14
226.442	-28.79
226.821	-22.66
227.199	-22.54
227.577	-20.45
227.955	-16.9
228.333	-11.95
228.711	-11.36
229.089	-5.38
229.467	-5.48
229.845	-6.26
230.222	-1.03
230.6	-0.53
230.978	0.91
231.356	3.22
231.733	4.97
232.111	5.91
232.488	8.49
232.866	8.58
233.243	4.96
233.621	2.95
233.998	5.97
234.376	4.93
234.753	3.81
235.13	3.88
235.508	5.87
235.885	6.03
236.262	3.35
236.639	2.69
237.016	1.15
237.393	0.44
237.77	2.53
238.147	2.75
238.524	3.34
238.901	3.35
239.278	3.01
239.655	3.59
240.032	3.17
240.409	2.55
240.785	2.83
241.162	3.26
241.539	3.38
241.915	2.38
242.292	2.25
242.668	2.44
243.045	2.73
243.421	2.62
243.798	2.56
244.174	3.04
244.551	3.4
244.927	3.56
245.303	3.87
245.679	3.85
246.056	3.86
246.432	3.74
246.808	3.78
247.184	3.45
247.56	3.29
247.936	3.22
248.312	3.2
248.688	3.34
249.064	3.24
249.44	3.3
249.815	3.42
250.191	3.76
250.567	3.74
250.943	3.62
251.318	3.77
251.694	3.61
252.069	3.43
252.445	3.36
252.82	3.82
253.196	3.79
253.571	3.74
253.947	3.53
254.322	3.72
254.697	3.47
255.073	3.53
255.448	3.42
255.823	3.5
256.198	3.47
256.573	3.4
256.948	3.6
257.323	3.94
257.698	3.78
258.073	3.67
258.448	3.72
258.823	3.84
259.198	3.67
259.573	3.83
259.948	3.83
260.322	3.78
260.697	3.45
261.072	3.34
261.446	3.38
261.821	3.45
262.195	3.47
262.57	3.48
262.944	3.56
263.319	3.56
263.693	3.73
264.067	3.73
264.442	3.78
264.816	3.57
265.19	3.38
265.564	3.38
265.938	3.45
266.313	3.32
266.687	3.14
267.061	3.27
267.435	3.15
267.809	2.97
268.183	3.03
268.556	3.21
268.93	3.34
269.304	3.28
269.678	3.33
270.051	3.28
270.425	3.43
270.799	3.5
271.172	3.51
271.546	3.26
271.919	3.23
272.293	3.17
272.666	3.23
273.04	3.3
273.413	3.39
273.787	3.33
274.16	3.38
274.533	3.39
274.906	3.25
275.279	3.42
275.653	3.59
276.026	3.5
276.399	3.39
276.772	3.44
277.145	3.47
277.518	3.49
277.891	3.62
278.263	3.53
278.636	3.49
279.009	3.52
279.382	3.62
279.755	3.7
280.127	3.74
280.5	3.86
280.872	3.83
281.245	3.79
281.617	3.75
281.99	3.76
282.362	3.71
282.735	3.55
283.107	3.55
283.479	3.65
283.852	3.57
284.224	3.76
284.596	3.64
284.968	3.65
285.34	3.61
285.713	3.57
286.085	3.74
286.457	3.73
286.829	3.76
287.201	3.82
287.572	3.76
287.944	3.7
288.316	3.55
288.688	3.65
289.06	3.71
289.431	3.64
289.803	3.61
290.175	3.77
290.546	4.02
290.918	4.07
291.289	3.95
291.661	4.09
292.032	4.09
292.403	4.25
292.775	4.28
293.146	4.18
293.517	4.31
293.889	4.29
294.26	4.32
294.631	4.37
295.002	4.34
295.373	4.34
295.744	4.44
296.115	4.6
296.486	4.43
296.857	4.49
297.228	4.61
297.599	4.6
297.97	4.58
298.34	4.61
298.711	4.66
299.082	4.79
299.452	4.95
299.823	4.92
300.194	4.94
300.564	5
300.935	5.05
301.305	5.02
301.676	5.01
302.046	5.14
302.416	5.24
302.787	5.27
303.157	5.38
303.527	5.36
303.897	5.3
304.267	5.48
304.637	5.46
305.008	5.39
305.378	5.73
305.748	5.74
306.117	5.77
306.487	5.77
306.857	5.87
307.227	5.89
307.597	5.94
307.967	5.82
308.336	5.95
308.706	6.03
309.076	5.99
309.445	5.9
309.815	5.93
310.184	5.89
310.554	5.93
310.923	5.89
311.293	6
311.662	6
312.031	6.06
312.401	6.14
312.77	6.32
313.139	6.28
313.508	6.4
313.877	6.38
314.246	6.5
314.616	6.48
314.985	6.38
315.353	6.42
315.722	6.55
316.091	6.38
316.46	6.41
316.829	6.46
317.198	6.7
317.567	6.72
317.935	6.81
318.304	6.99
318.672	7.22
319.041	7.35
319.41	7.33
319.778	7.33
320.147	7.4
320.515	7.36
320.883	7.32
321.252	7.44
321.62	7.46
321.988	7.49
322.357	7.69
322.725	7.83
323.093	7.96
323.461	8.11
323.829	8.29
324.197	8.51
324.565	8.64
324.933	8.64
325.301	8.61
325.669	8.53
326.037	8.56
326.405	8.58
326.772	8.66
327.14	8.94
327.508	9
327.875	8.92
328.243	9.12
328.61	9.05
328.978	9.14
329.346	9.16
329.713	9.15
330.08	9.17
330.448	9.29
330.815	9.15
331.182	9.16
331.55	9.26
331.917	9.26
332.284	9.36
332.651	9.43
333.018	9.66
333.385	9.77
333.752	9.71
334.119	9.77
334.486	9.73
334.853	9.79
335.22	9.87
335.587	10.04
335.954	9.97
336.32	10.14
336.687	10.04
337.054	10.17
337.42	10.22
337.787	10.17
338.153	10.24
338.52	10.45
338.886	10.57
339.253	10.44
339.619	10.59
339.986	10.57
340.352	10.6
340.718	10.65
341.084	10.77
341.451	10.9
341.817	10.97
342.183	11.04
342.549	11.08
342.915	11.18
343.281	11.11
343.647	11.15
344.013	11.21
344.379	11.25
344.745	11.31
345.11	11.29
345.476	11.36
345.842	11.39
346.208	11.35
346.573	11.35
346.939	11.56
347.304	11.43
347.67	11.54
348.035	11.58
348.401	11.55
348.766	11.52
349.132	11.55
349.497	11.54
349.862	11.61
350.228	11.61
350.593	11.48
350.958	11.62
351.323	11.59
351.688	11.6
352.053	11.69
352.418	11.73
352.783	11.87
353.148	11.87
353.513	11.8
353.878	11.81
354.243	11.77
354.608	11.72
354.972	11.79
355.337	11.79
355.702	11.76
356.066	11.71
356.431	11.67
356.795	11.61
357.16	11.61
357.524	11.56
357.889	11.61
358.253	11.59
358.618	11.57
358.982	11.56
359.346	11.5
359.71	11.46
360.075	11.39
360.439	11.28
360.803	11.21
361.167	11.15
361.531	11.09
361.895	11.07
362.259	11.01
362.623	10.92
362.987	10.89
363.351	10.85
363.714	10.88
364.078	10.86
364.442	10.79
364.806	10.74
365.169	10.68
365.533	10.6
365.896	10.59
366.26	10.54
366.623	10.49
366.987	10.43
367.35	10.33
367.714	10.34
368.077	10.27
368.44	10.23
368.803	10.23
369.167	10.19
369.53	10.16
369.893	10.13
370.256	10.17
370.619	10.1
370.982	10.02
371.345	9.83
371.708	9.79
372.071	9.8
372.434	9.69
372.797	9.64
373.159	9.52
373.522	9.43
373.885	9.37
374.247	9.32
374.61	9.29
374.973	9.2
375.335	9.06
375.698	9.07
376.06	9
376.423	8.91
376.785	8.87
377.147	8.81
377.51	8.74
377.872	8.72
378.234	8.59
378.596	8.63
378.958	8.66
379.321	8.59
379.683	8.55
380.045	8.53
380.407	8.5
380.769	8.47
381.13	8.45
381.492	8.42
381.854	8.45
382.216	8.36
382.578	8.36
382.939	8.3
383.301	8.24
383.663	8.14
384.024	8.11
384.386	8.04
384.747	7.97
385.109	7.98
385.47	7.87
385.832	7.88
386.193	7.81
386.554	7.74
386.916	7.71
387.277	7.67
387.638	7.6
387.999	7.53
388.36	7.49
388.721	7.46
389.082	7.36
389.443	7.23
389.804	7.21
390.165	7.15
390.526	7.16
390.887	7.12
391.248	7.11
391.609	7.1
391.969	7.08
392.33	7.07
392.691	7.01
393.051	6.93
393.412	6.89
393.772	6.82
394.133	6.8
394.493	6.74
394.854	6.68
395.214	6.65
395.574	6.62
395.935	6.58
396.295	6.55
396.655	6.49
397.015	6.49
397.376	6.42
397.736	6.37
398.096	6.34
398.456	6.28
398.816	6.23
399.176	6.15
399.535	6.1
399.895	6.02
400.255	5.98
400.615	6.01
400.975	5.98
401.334	5.95
401.694	5.9
402.054	5.84
402.413	5.8
402.773	5.74
403.132	5.69
403.492	5.66
403.851	5.6
404.211	5.61
404.57	5.56
404.929	5.55
405.288	5.52
405.648	5.47
406.007	5.41
406.366	5.38
406.725	5.37
407.084	5.38
407.443	5.35
407.802	5.31
408.161	5.25
408.52	5.21
408.879	5.18
409.238	5.15
409.596	5.13
409.955	5.08
410.314	5.07
410.673	5.04
411.031	5.01
411.39	4.99
411.748	4.96
412.107	4.96
412.465	4.92
412.824	4.89
413.182	4.89
413.54	4.89
413.899	4.89
414.257	4.87
414.615	4.8
414.974	4.81
415.332	4.79
415.69	4.75
416.048	4.72
416.406	4.7
416.764	4.67
417.122	4.65
417.48	4.65
417.838	4.63
418.195	4.61
418.553	4.61
418.911	4.58
419.269	4.55
419.626	4.52
419.984	4.52
420.342	4.53
420.699	4.49
421.057	4.48
421.414	4.44
421.772	4.43
422.129	4.43
422.486	4.39
422.844	4.37
423.201	4.36
423.558	4.35
423.915	4.33
424.273	4.31
424.63	4.3
424.987	4.27
425.344	4.27
425.701	4.25
426.058	4.22
426.415	4.21
426.772	4.2
427.128	4.19
427.485	4.14
427.842	4.1
428.199	4.09
428.555	4.08
428.912	4.08
429.269	4.06
429.625	4.01
429.982	4.01
430.338	3.99
430.695	3.97
431.051	3.95
431.407	3.93
431.764	3.93
432.12	3.92
432.476	3.91
432.832	3.88
433.189	3.89
433.545	3.88
433.901	3.87
434.257	3.88
434.613	3.88
434.969	3.9
435.325	3.92
435.681	3.92
436.036	3.9
436.392	3.9
436.748	3.9
437.104	3.92
437.459	3.92
437.815	3.93
438.171	3.93
438.526	3.94
438.882	3.96
439.237	3.96
439.593	3.96
439.948	3.97
440.304	4
440.659	3.98
441.014	3.98
441.369	3.98
441.725	3.96
442.08	3.95
442.435	3.93
442.79	3.91
443.145	3.9
443.5	3.9
443.855	3.88
444.21	3.86
444.565	3.84
444.92	3.84
445.275	3.81
445.629	3.8
445.984	3.79
446.339	3.76
446.693	3.73
447.048	3.71
447.403	3.69
447.757	3.66
448.112	3.65
448.466	3.63
448.82	3.61
449.175	3.62
449.529	3.6
449.883	3.58
450.238	3.56
450.592	3.56
450.946	3.54
451.3	3.54
451.654	3.52
452.008	3.5
452.362	3.49
452.716	3.48
453.07	3.47
453.424	3.45
453.778	3.45
454.132	3.44
454.486	3.43
454.839	3.43
455.193	3.44
455.547	3.44
455.9	3.43
456.254	3.44
456.607	3.44
456.961	3.45
457.314	3.45
457.668	3.46
458.021	3.44
458.375	3.45
458.728	3.45
459.081	3.45
459.434	3.44
459.787	3.45
460.141	3.46
460.494	3.47
460.847	3.49
461.2	3.48
461.553	3.51
461.906	3.53
462.259	3.54
462.611	3.56
462.964	3.57
463.317	3.58
463.67	3.57
464.022	3.57
464.375	3.56
464.728	3.59
465.08	3.59
465.433	3.63
465.785	3.63
466.138	3.63
466.49	3.66
466.843	3.68
467.195	3.69
467.547	3.72
467.899	3.71
468.252	3.7
468.604	3.72
468.956	3.7
469.308	3.69
469.66	3.7
470.012	3.72
470.364	3.74
470.716	3.75
471.068	3.78
471.42	3.8
471.772	3.81
472.123	3.81
472.475	3.83
472.827	3.84
473.178	3.85
473.53	3.88
473.882	3.88
474.233	3.91
474.585	3.88
474.936	3.87
475.288	3.89
475.639	3.91
475.99	3.91
476.342	3.93
476.693	3.93
477.044	3.93
477.395	3.92
477.746	3.9
478.097	3.89
478.448	3.89
478.8	3.87
479.15	3.85
479.501	3.84
479.852	3.84
480.203	3.83
480.554	3.82
480.905	3.82
481.255	3.83
481.606	3.83
481.957	3.84
482.307	3.84
482.658	3.84
483.009	3.83
483.359	3.83
483.709	3.83
484.06	3.83
484.41	3.83
484.761	3.83
485.111	3.83
485.461	3.84
485.811	3.83
486.162	3.83
486.512	3.84
486.862	3.84
487.212	3.83
487.562	3.84
487.912	3.84
488.262	3.84
488.612	3.83
488.961	3.83
489.311	3.83
489.661	3.83
490.011	3.82
490.36	3.83
490.71	3.84
491.06	3.84
491.409	3.85
491.759	3.85
492.108	3.86
492.458	3.87
492.807	3.86
493.157	3.87
493.506	3.88
493.855	3.9
494.204	3.92
494.554	3.96
494.903	3.97
495.252	3.98
495.601	4.01
495.95	4.04
496.299	4.08
496.648	4.11
496.997	4.13
497.346	4.2
497.695	4.24
498.043	4.28
498.392	4.33
498.741	4.36
499.09	4.39
499.438	4.44
499.787	4.47
500.135	4.54
500.484	4.61
500.832	4.69
501.181	4.74
501.529	4.8
501.878	4.87
502.226	4.92
502.574	4.98
502.923	5.04
503.271	5.08
503.619	5.14
503.967	5.21
504.315	5.28
504.663	5.33
505.011	5.39
505.359	5.45
505.707	5.51
506.055	5.57
506.403	5.65
506.751	5.71
507.098	5.79
507.446	5.85
507.794	5.91
508.141	5.97
508.489	6.02
508.837	6.08
509.184	6.13
509.531	6.2
509.879	6.26
510.226	6.33
510.574	6.4
510.921	6.46
511.268	6.51
511.616	6.58
511.963	6.64
512.31	6.73
512.657	6.78
513.004	6.88
513.351	6.95
513.698	7.04
514.045	7.12
514.392	7.21
514.739	7.3
515.086	7.41
515.432	7.48
515.779	7.57
516.126	7.66
516.473	7.73
516.819	7.83
517.166	7.89
517.512	7.97
517.859	8.04
518.205	8.11
518.552	8.21
518.898	8.28
519.245	8.35
519.591	8.42
519.937	8.5
520.283	8.57
520.629	8.68
520.976	8.77
521.322	8.87
521.668	8.95
522.014	9.05
522.36	9.15
522.706	9.27
523.052	9.4
523.398	9.56
523.743	9.72
524.089	9.86
524.435	10.03
524.781	10.17
525.126	10.3
525.472	10.44
525.817	10.56
526.163	10.65
526.509	10.74
526.854	10.85
527.199	10.94
527.545	11.04
527.89	11.12
528.235	11.23
528.581	11.34
528.926	11.46
529.271	11.57
529.616	11.68
529.961	11.8
530.306	11.93
530.651	12.05
530.996	12.19
531.341	12.31
531.686	12.46
532.031	12.6
532.376	12.77
532.721	12.93
533.065	13.09
533.41	13.29
533.755	13.48
534.099	13.65
534.444	13.86
534.788	14.04
535.133	14.23
535.477	14.42
535.822	14.63
536.166	14.85
536.51	15.11
536.855	15.35
537.199	15.62
537.543	15.88
537.887	16.15
538.231	16.44
538.576	16.74
538.92	17.01
539.264	17.3
539.608	17.56
539.951	17.79
540.295	18.04
540.639	18.29
540.983	18.51
541.327	18.76
541.671	18.98
542.014	19.21
542.358	19.45
542.701	19.69
543.045	19.9
543.389	20.13
543.732	20.33
544.075	20.57
544.419	20.82
544.762	21.06
545.105	21.35
545.449	21.62
545.792	21.92
546.135	22.21
546.478	22.54
546.821	22.85
547.165	23.19
547.508	23.51
547.851	23.86
548.194	24.2
548.536	24.51
548.879	24.88
549.222	25.27
549.565	25.58
549.908	25.93
550.25	26.28
550.593	26.64
550.936	27.02
551.278	27.39
551.621	27.71
551.963	28.07
552.306	28.39
552.648	28.71
552.991	29.06
553.333	29.35
553.675	29.64
554.017	29.95
554.36	30.23
554.702	30.54
555.044	30.82
555.386	31.14
555.728	31.51
556.07	31.79
556.412	32.04
556.754	32.41
557.096	32.73
557.438	33.07
557.78	33.35
558.121	33.69
558.463	34.01
558.805	34.39
559.147	34.67
559.488	34.96
559.83	35.27
560.171	35.56
560.513	35.88
560.854	36.18
561.196	36.49
561.537	36.77
561.878	37.07
562.22	37.28
562.561	37.53
562.902	37.78
563.243	38.06
563.584	38.28
563.925	38.48
564.266	38.67
564.607	38.87
564.948	39.18
565.289	39.36
565.63	39.61
565.971	39.76
566.312	39.98
566.653	40.12
566.993	40.26
567.334	40.42
567.675	40.58
568.015	40.75
568.356	40.91
568.696	41.12
569.037	41.23
569.377	41.5
569.718	41.67
570.058	41.81
570.398	41.93
570.739	42.13
571.079	42.32
571.419	42.51
571.759	42.71
572.099	42.8
572.439	42.97
572.779	43.1
573.119	43.24
573.459	43.41
573.799	43.57
574.139	43.74
574.479	43.85
574.819	44.02
575.158	44.18
575.498	44.33
575.838	44.5
576.177	44.71
576.517	44.75
576.856	44.88
577.196	45.08
577.535	45.24
577.875	45.38
578.214	45.56
578.553	45.7
578.893	45.82
579.232	45.96
579.571	46.09
579.91	46.23
580.25	46.32
580.589	46.44
580.928	46.65
581.267	46.78
581.606	47.01
581.945	47.11
582.283	47.19
582.622	47.4
582.961	47.45
583.3	47.54
583.639	47.79
583.977	47.9
584.316	47.93
584.654	48.07
584.993	48.1
585.332	48.24
585.67	48.33
586.008	48.49
586.347	48.62
586.685	48.75
587.024	48.85
587.362	48.91
587.7	48.89
588.038	48.96
588.376	49.07
588.715	49.04
589.053	49.11
589.391	49.2
589.729	49.18
590.067	49.29
590.404	49.35
590.742	49.41
591.08	49.54
591.418	49.64
591.756	49.71
592.093	49.78
592.431	49.79
592.769	49.84
593.106	49.9
593.444	49.94
593.781	49.97
594.119	49.99
594.456	50.09
594.793	50.18
595.131	50.22
595.468	50.27
595.805	50.39
596.143	50.48
596.48	50.52
596.817	50.54
597.154	50.56
597.491	50.59
597.828	50.6
598.165	50.62
598.502	50.64
598.839	50.72
599.176	50.88
599.512	50.92
599.849	51
600.186	51
600.523	51.04
600.859	51.06
601.196	51.11
601.532	51.12
601.869	51.24
602.205	51.2
602.542	51.21
602.878	51.25
603.215	51.29
603.551	51.39
603.887	51.45
604.223	51.51
604.56	51.57
604.896	51.57
605.232	51.6
605.568	51.68
605.904	51.65
606.24	51.69
606.576	51.7
606.912	51.72
607.248	51.73
607.583	51.82
607.919	51.93
608.255	51.99
608.591	52.11
608.926	52.16
609.262	52.29
609.597	52.37
609.933	52.33
610.268	52.34
610.604	52.36
610.939	52.4
611.275	52.38
611.61	52.39
611.945	52.5
612.281	52.53
612.616	52.58
612.951	52.7
613.286	52.65
613.621	52.7
613.956	52.77
614.291	52.94
614.626	52.99
614.961	52.88
615.296	52.88
615.631	52.89
615.966	52.98
616.3	53.04
616.635	53.06
616.97	53.17
617.304	53.22
617.639	53.29
617.973	53.4
618.308	53.43
618.642	53.53
618.977	53.49
619.311	53.55
619.646	53.56
619.98	53.56
620.314	53.67
620.648	53.78
620.983	53.69
621.317	53.71
621.651	53.76
621.985	53.86
622.319	53.91
622.653	53.85
622.987	53.8
623.321	53.87
623.655	53.91
623.988	53.93
624.322	53.95
624.656	53.97
624.99	53.95
625.323	54
625.657	53.92
625.99	53.98
626.324	53.98
626.657	53.88
626.991	53.88
627.324	53.89
627.658	53.93
627.991	54.02
628.324	54.04
628.657	54.07
628.991	54.09
629.324	54.15
629.657	54.27
629.99	54.32
630.323	54.3
630.656	54.32
630.989	54.42
631.322	54.41
631.655	54.36
631.987	54.33
632.32	54.35
632.653	54.45
632.986	54.4
633.318	54.47
633.651	54.54
633.984	54.52
634.316	54.54
634.649	54.49
634.981	54.52
635.313	54.53
635.646	54.48
635.978	54.49
636.31	54.53
636.643	54.49
636.975	54.48
637.307	54.46
637.639	54.5
637.971	54.49
638.303	54.7
638.635	54.64
638.967	54.67
639.299	54.7
639.631	54.66
639.963	54.69
640.295	54.66
640.626	54.74
640.958	54.87
641.29	54.94
641.621	55.01
641.953	55.03
642.285	55.01
642.616	55.05
642.948	55.18
643.279	55.13
643.61	55.21
643.942	55.23
644.273	55.28
644.604	55.18
644.936	55.15
645.267	54.99
645.598	55.14
645.929	55.16
646.26	55.22
646.591	55.26
646.922	55.29
647.253	55.36
647.584	55.4
647.915	55.32
648.245	55.27
648.576	55.31
648.907	55.36
649.238	55.32
649.568	55.26
649.899	55.17
650.229	55.18
650.56	55.19
650.89	55.17
651.221	55.2
651.551	55.21
651.882	55.22
652.212	55.15
652.542	55.15
652.872	55.18
653.203	55.16
653.533	55.22
653.863	55.15
654.193	55.03
654.523	54.96
654.853	55.03
655.183	55.06
655.513	54.93
655.843	54.75
656.172	54.71
656.502	54.66
656.832	54.69
657.162	54.78
657.491	54.74
657.821	54.73
658.15	54.75
658.48	54.85
658.809	54.84
659.139	54.88
659.468	54.76
659.798	54.77
660.127	54.77
660.456	54.74
660.785	54.82
661.115	54.9
661.444	54.95
661.773	55.05
662.102	55.03
662.431	55.11
662.76	55.21
663.089	55.29
663.418	55.39
663.747	55.35
664.076	55.28
664.404	55.24
664.733	55.24
665.062	55.16
665.39	55.16
665.719	55.17
666.048	55.19
666.376	55.26
666.705	55.24
667.033	55.12
667.362	55.04
667.69	55.04
668.018	55.08
668.347	55.14
668.675	55.07
669.003	55.09
669.331	55.12
669.659	55.21
669.987	55.18
670.315	55.26
670.643	55.27
670.971	55.29
671.299	55.47
671.627	55.52
671.955	55.54
672.283	55.52
672.61	55.5
672.938	55.57
673.266	55.67
673.593	55.83
673.921	55.88
674.249	55.96
674.576	55.97
674.904	56.01
675.231	56.02
675.558	55.93
675.886	55.94
676.213	55.74
676.54	55.68
676.867	55.71
677.195	55.67
677.522	55.64
677.849	55.67
678.176	55.62
678.503	55.54
678.83	55.69
679.157	55.53
679.484	55.6
679.81	55.54
680.137	55.33
680.464	55.23
680.791	55.27
681.117	55.31
681.444	55.34
681.771	55.35
682.097	55.22
682.424	55.17
682.75	55.04
683.077	55.25
683.403	55.27
683.729	55.29
684.056	55.19
684.382	55.32
684.708	55.24
685.034	55.15
685.36	55.26
685.686	55.26
686.012	55.34
686.339	55.33
686.664	55.37
686.99	55.48
687.316	55.56
687.642	55.64
687.968	55.72
688.294	55.81
688.619	55.73
688.945	55.78
689.271	55.81
689.596	55.97
689.922	56
690.247	55.98
690.573	55.93
690.898	55.94
691.224	55.91
691.549	55.98
691.874	55.92
692.2	55.92
692.525	55.81
692.85	55.88
693.175	55.77
693.5	55.72
693.825	55.83
694.15	55.68
694.475	55.76
694.8	55.66
695.125	55.49
695.45	55.47
695.775	55.57
696.099	55.69
696.424	55.7
696.749	55.53
697.073	55.34
697.398	55.35
697.723	55.38
698.047	55.33
698.372	55.17
698.696	55.36
699.02	55.27
699.345	55.27
699.669	55.26
699.993	55.29
700.318	55.27
700.642	55.32
700.966	55.36
701.29	55.24
701.614	55.23
701.938	55.39
702.262	55.46
702.586	55.34
702.91	55.31
703.234	55.25
703.557	55.35
703.881	55.56
704.205	55.52
704.529	55.61
704.852	55.61
705.176	55.88
705.499	55.79
705.823	55.85
706.146	55.68
706.47	55.69
706.793	55.7
707.117	55.73
707.44	55.74
707.763	55.69
708.086	55.57
708.409	55.61
708.733	55.42
709.056	55.35
709.379	55.41
709.702	55.37
710.025	55.38
710.348	55.48
710.671	55.6
710.993	55.64
711.316	55.37
711.639	55.27
711.962	55.2
712.284	55.19
712.607	55.19
712.93	55.41
713.252	55.45
713.575	55.52
713.897	55.49
714.22	55.4
714.542	55.49
714.864	55.48
715.187	55.42
715.509	55.42
715.831	55.53
716.153	55.64
716.475	55.56
716.798	55.48
717.12	55.34
717.442	55.11
717.764	55.03
718.085	55.42
718.407	55.52
718.729	55.55
719.051	55.46
719.373	55.55
719.695	55.5
720.016	55.55
720.338	55.43
720.659	55.49
720.981	55.49
721.302	55.42
721.624	55.65
721.945	55.61
722.267	55.66
722.588	55.61
722.909	55.39
723.231	55.5
723.552	55.63
723.873	55.76
724.194	56.06
724.515	56.09
724.836	55.8
725.157	55.91
725.478	55.88
725.799	55.91
726.12	55.74
726.441	55.71
726.762	55.71
727.083	55.82
727.403	55.78
727.724	55.8
728.045	55.72
728.365	55.61
728.686	55.66
729.006	55.7
729.327	55.72
729.647	55.89
729.967	56.02
730.288	55.85
730.608	55.76
730.928	55.48
731.249	55.56
731.569	55.88
731.889	55.7
732.209	55.72
732.529	55.8
732.849	55.85
733.169	55.95
733.489	55.95
733.809	55.87
734.129	55.88
734.448	55.91
734.768	55.97
735.088	55.97
735.408	56.05
735.727	55.98
736.047	55.96
736.366	56.04
736.686	55.96
737.005	56.21
737.325	56.1
737.644	56.4
737.963	56.36
738.283	56.21
738.602	56.44
738.921	56.57
739.24	56.61
739.56	56.51
739.879	56.18
740.198	56.15
740.517	56.16
740.836	55.95
741.155	55.84
741.473	55.86
741.792	55.87
742.111	55.96
742.43	55.85
742.748	56.08
743.067	56.09
743.386	56.07
743.704	55.89
744.023	55.9
744.341	55.73
744.66	56.17
744.978	56.09
745.297	55.82
745.615	55.59
745.933	55.52
746.252	55.97
746.57	56.39
746.888	56.17
747.206	56.27
747.524	56.76
747.842	56.41
748.16	56.41
748.478	56.44
748.796	56.28
749.114	56.67
749.432	56.39
749.749	56.35
750.067	56.15
750.385	56.01
750.703	56.25
751.02	56.2
751.338	55.7
751.655	55.66
751.973	55.86
752.29	55.85
752.608	55.74
752.925	55.52
753.242	55.23
753.56	55.18
753.877	55.28
754.194	55.22
754.511	55.56
754.828	55.21
755.145	55.07
755.462	54.9
755.779	54.84
756.096	54.92
756.413	54.91
756.73	55.1
757.047	55.4
757.364	55.41
757.68	55.62
757.997	55.86
758.314	55.79
758.63	55.49
758.947	55.67
759.264	55.92
759.58	55.81
759.896	55.83
760.213	55.78
760.529	55.56
760.846	55.19
761.162	55.22
761.478	55.52
761.794	55.88
762.11	56.2
762.426	56.08
762.743	55.98
763.059	55.95
763.375	55.82
763.69	55.77
764.006	55.86
764.322	55.92
764.638	55.76
764.954	55.78
765.27	56.16
765.585	56.17
765.901	56.07
766.216	56.01
766.532	56.05
766.848	56.24
767.163	56.37
767.478	56.29
767.794	56.68
768.109	56.82
768.424	56.8
768.74	56.56
769.055	56.65
769.37	56.76
769.685	56.64
770	56.89
770.315	56.67
770.63	56.6
770.945	56.58
771.26	56.33
771.575	56.35
771.89	56.19
772.205	56.06
772.52	55.85
772.834	56.06
773.149	55.87
773.464	56.07
773.778	56.09
774.093	56.65
774.407	56.03
774.722	55.69
775.036	55.63
775.351	55.72
775.665	55.5
775.979	55.42
776.293	55.67
776.608	55.41
776.922	55.79
777.236	55.57
777.55	55.31
777.864	55.82
778.178	55.75
778.492	55.62
778.806	55.83
779.12	56.09
779.434	55.62
779.747	56
780.061	55.88
780.375	55.67
780.689	55.84
781.002	56.09
781.316	56.48
781.629	56.19
781.943	56.02
782.256	55.75
782.57	55.88
782.883	55.67
783.196	55.79
783.51	55.77
783.823	55.77
784.136	55.84
784.449	55.55
784.762	55.71
785.075	55.51
785.388	55.2
785.701	55.3
786.014	55.67
786.327	55.5
786.64	55.31
786.953	55.57
787.266	54.91
787.578	54.53
787.891	54.35
788.204	54.71
788.516	54.91
788.829	55.46
789.141	55.38
789.454	55.63
789.766	55.67
790.079	55.67
790.391	55.74
790.703	55.73
791.016	56.07
791.328	56.01
791.64	56
791.952	56.35
792.264	55.87
792.576	56.09
792.888	56.17
793.2	55.81
793.512	55.58
793.824	55.7
794.136	55.94
794.448	56.19
794.76	55.59
795.071	55.84
795.383	55.63
795.695	55.9
796.006	54.97
796.318	54.99
796.629	55.37
796.941	54.92
797.252	54.82
797.564	54.34
797.875	54.68
798.186	54.8
798.497	54.4
798.809	54.62
799.12	54.13
799.431	53.94
799.742	54.69
800.053	55.25
800.364	55.19
800.675	54.97
800.986	54.37
801.297	54.56
801.608	54.11
801.918	54.37
802.229	54.4
802.54	54.75
802.851	54.73
803.161	53.9
803.472	54.36
803.782	55.11
804.093	55.49
804.403	55.37
804.714	55.59
805.024	55.68
805.334	56.28
805.645	56.6
805.955	56.66
806.265	56.24
806.575	56.4
806.885	56.56
807.195	57.18
807.505	57.21
807.815	57.57
808.125	57.45
808.435	57.1
808.745	56.47
809.055	57.08
809.365	57.03
809.674	57.4
809.984	57.01
810.294	56.58
810.603	56.37
810.913	55.8
811.222	55.55
811.532	54.86
811.841	54.01
812.151	53.91
812.46	54.29
812.769	54.86
813.079	54.17
813.388	54.44
813.697	53.93
814.006	54.17
814.315	54.37
814.624	54.25
814.933	55.41
815.242	56.09
815.551	55.94
815.86	56.05
816.169	56.45
816.478	56.73
816.786	56.91
817.095	57.12
817.404	57.06
817.712	57.49
818.021	57.62
818.33	57.95
818.638	57.91
818.947	57.1
819.255	56.86
819.563	56.77
819.872	56.47
820.18	56.68
820.488	56.81
820.796	56.48
821.105	56.4
821.413	55.84
821.721	55.45
822.029	55.54
822.337	55.67
822.645	55.53
822.953	55.45
823.26	55.46
823.568	55.52
823.876	55.46
824.184	55.55
824.491	55.64
824.799	55.67
825.107	55.55
825.414	55.64
825.722	55.56
826.029	55.58
826.337	55.69
826.644	55.74
826.951	55.56
827.259	55.51
827.566	55.82
827.873	56.15
828.18	56.28
828.488	56.45
828.795	56.36
829.102	56.19
829.409	56.5
829.716	56.27
830.023	56.05
830.329	56.34
830.636	56.24
830.943	56.39
831.25	56.15
831.557	56.42
831.863	56.51
832.17	56.68
832.476	56.74
832.783	56.46
833.089	56.01
833.396	56.09
833.702	55.97
834.009	55.82
834.315	55.32
834.621	56
834.928	55.04
835.234	54.4
835.54	55.34
835.846	54.98
836.152	54.97
836.458	55.17
836.764	55.37
837.07	54.83
837.376	54.38
837.682	54.63
837.988	54.34
838.293	54.42
838.599	54.42
838.905	54.16
839.211	53.93
839.516	54.18
839.822	54.83
840.127	55.14
840.433	54.49
840.738	54.23
841.044	53.27
841.349	54.82
841.654	56.75
841.959	55.64
842.265	55.33
842.57	55.62
842.875	54.64
843.18	54.32
843.485	54.67
843.79	54.9
844.095	54.58
844.4	54.82
844.705	54.65
845.01	54.44
845.315	53.85
845.619	54.81
845.924	54.42
846.229	53.45
846.533	53.67
846.838	53.59
847.142	53.89
847.447	54.24
847.751	51.37
848.056	49.62
848.36	50.16
848.664	51.74
848.969	51.64
849.273	51.22
849.577	51.01
849.881	50.84
850.185	52.82
850.489	52.32
850.794	51.32
851.097	50.48
851.401	49.78
851.705	51.16
852.009	52.15
852.313	52.21
852.617	51.08
852.92	51.96
853.224	53.61
853.528	54.65
853.831	54.64
854.135	57.9
854.438	56.54
854.742	55.36
855.045	52.75
855.349	50.93
855.652	55.29
855.955	55.05
856.259	55.7
856.562	54.37
856.865	57.3
857.168	58.92
857.471	60.16
857.774	61.66
858.077	60.39
858.38	62.02
858.683	64.93
858.986	66.92
859.289	66.42
859.592	65.26
859.894	64.97
860.197	65.48
860.5	62.56
860.802	65.02
861.105	66.54
861.407	65.6
861.71	69.62
862.012	66.79
862.315	68.14
862.617	68.57
862.919	66.97
863.222	65.53
863.524	65.81
863.826	66.75
864.128	65.98
864.43	68.92
864.732	67.29
865.034	65.52
865.336	62.7
865.638	62.57
865.94	61.11
866.242	61.94
866.544	59.54
866.846	61.52
867.147	60.06
867.449	59.69
867.751	64.58
868.052	64.22
868.354	63.89
868.655	65.28
868.957	64.59
869.258	65.9
869.56	64.48
869.861	64.28
870.162	63.11
870.463	64.15
870.765	62.32
871.066	60.87
871.367	59.73
871.668	63.11
871.969	62.84
872.27	64.49
872.571	63.83
872.872	65.98
873.173	63.96
873.473	63.93
873.774	64.42
874.075	61.82
874.376	60.2
874.676	62.43
874.977	59.83
875.277	60.38
875.578	60.13
875.878	60.98
876.179	61.01
876.479	61.38
876.78	59.7
877.08	59.54
877.38	60.43
877.68	61.12
877.981	58.52
878.281	58.59
878.581	58.7
