Data from BA57890_Reflection_00007.txt Node
Date: Mon Nov 18 15:06:08 EST 2019
User: vgr7
Spectrometer: USB2G7710
Scans to average: 3
Trigger mode: 4
Integration Time (sec): 2.000000E-2
Electric dark correction enabled: true
Boxcar width: 10
XAxis mode: Wavelengths
Number of Pixels in Spectrum: 2048
>>>>>Begin Spectral Data<<<<<
177.721	-166.94
178.105	-131.53
178.488	-41.03
178.871	-15.75
179.254	81.64
179.636	30.48
180.019	41.57
180.402	121.43
180.785	-2064.18
181.168	118.66
181.55	173.56
181.933	128.57
182.316	126.96
182.698	119.88
183.081	174.9
183.463	228.27
183.846	108.09
184.228	54.23
184.611	87.45
184.993	68.01
185.376	31.1
185.758	89.63
186.14	167.85
186.522	172.88
186.904	209.77
187.287	232.72
187.669	381.92
188.051	496.47
188.433	1023.34
188.815	-7674.19
189.197	-251.51
189.579	-715.38
189.961	-750.42
190.342	-7872.97
190.724	-2826.61
191.106	912.32
191.488	799.76
191.869	1666.47
192.251	613.61
192.633	5184.51
193.014	435.06
193.396	400.66
193.777	234
194.159	292.33
194.54	466.21
194.922	353.51
195.303	458.13
195.684	268.55
196.065	282.23
196.447	261.72
196.828	218.91
197.209	178.18
197.59	271.13
197.971	323.45
198.352	509.67
198.733	995.37
199.114	2113.57
199.495	-2849.04
199.876	-516.41
200.257	-384.43
200.638	-379.77
201.018	-298.64
201.399	-168.29
201.78	-153.96
202.16	-187.18
202.541	-306.59
202.922	-338.47
203.302	-431.49
203.683	-201.91
204.063	-169.28
204.444	-58.26
204.824	-25.08
205.204	-14.7
205.585	-9.8
205.965	-3.92
206.345	14.81
206.725	10.22
207.106	-11.86
207.486	-20.35
207.866	94.82
208.246	358.74
208.626	-252.7
209.006	-62.26
209.386	167.89
209.766	254.33
210.145	-126.07
210.525	-45.44
210.905	-48.44
211.285	-55.07
211.664	-36.39
212.044	-45.24
212.424	-30.34
212.803	-19.97
213.183	-11.2
213.562	13.21
213.942	19.37
214.321	42.03
214.701	37.41
215.08	34.54
215.459	38.58
215.838	23.5
216.218	23.35
216.597	42.69
216.976	71.89
217.355	62.34
217.734	53.84
218.113	42.75
218.492	35.27
218.871	37.02
219.25	55.75
219.629	54.97
220.008	50.21
220.387	44.83
220.766	32.42
221.144	26.32
221.523	22.39
221.902	30.82
222.28	10.31
222.659	10.51
223.037	11.61
223.416	7.55
223.794	8.83
224.173	2.83
224.551	-3.46
224.929	-22.19
225.308	-15.87
225.686	-14.58
226.064	-5.79
226.442	-8.35
226.821	-1.71
227.199	-2.87
227.577	-2.94
227.955	1.26
228.333	-1.36
228.711	2.3
229.089	3.92
229.467	-0.29
229.845	-3.95
230.222	-1.93
230.6	-1.47
230.978	-2.02
231.356	-1.66
231.733	-2.96
232.111	0.16
232.488	0.05
232.866	-0.53
233.243	-0.43
233.621	-0.5
233.998	-0.83
234.376	1.19
234.753	-2.05
235.13	-2.29
235.508	-2.97
235.885	-3.11
236.262	-3.54
236.639	-4.04
237.016	-2.91
237.393	-0.64
237.77	1.26
238.147	1.43
238.524	1.32
238.901	2.81
239.278	3.07
239.655	3.79
240.032	3.66
240.409	3.7
240.785	4.05
241.162	4.2
241.539	4.44
241.915	5.07
242.292	4.39
242.668	4.75
243.045	4.9
243.421	4.67
243.798	4.6
244.174	4.77
244.551	4.93
244.927	4.69
245.303	4.7
245.679	4.72
246.056	4.75
246.432	4.92
246.808	5.11
247.184	5.01
247.56	4.91
247.936	4.82
248.312	4.91
248.688	4.88
249.064	4.67
249.44	4.37
249.815	4.15
250.191	4.45
250.567	4.67
250.943	4.73
251.318	4.84
251.694	4.7
252.069	4.63
252.445	4.7
252.82	4.95
253.196	4.83
253.571	4.72
253.947	4.61
254.322	4.56
254.697	4.21
255.073	4.17
255.448	3.99
255.823	3.97
256.198	4.05
256.573	4.08
256.948	4.13
257.323	4.44
257.698	4.36
258.073	4.39
258.448	4.23
258.823	4.03
259.198	4.02
259.573	4.13
259.948	4.32
260.322	4.27
260.697	4.19
261.072	4.34
261.446	4.28
261.821	4.33
262.195	4.49
262.57	4.35
262.944	4.41
263.319	4.44
263.693	4.3
264.067	4.3
264.442	4.43
264.816	4.45
265.19	4.4
265.564	4.35
265.938	4.24
266.313	4.17
266.687	4.31
267.061	4.51
267.435	4.63
267.809	4.41
268.183	4.35
268.556	4.26
268.93	4.13
269.304	4.15
269.678	4.14
270.051	3.83
270.425	3.79
270.799	3.75
271.172	3.8
271.546	3.84
271.919	3.74
272.293	3.76
272.666	3.84
273.04	3.82
273.413	3.88
273.787	3.8
274.16	3.87
274.533	3.76
274.906	3.61
275.279	3.45
275.653	3.57
276.026	3.51
276.399	3.46
276.772	3.46
277.145	3.46
277.518	3.48
277.891	3.58
278.263	3.78
278.636	3.7
279.009	3.59
279.382	3.81
279.755	3.95
280.127	3.91
280.5	3.92
280.872	4.05
281.245	4.09
281.617	4.15
281.99	4.13
282.362	4.13
282.735	3.97
283.107	3.85
283.479	3.8
283.852	3.89
284.224	3.9
284.596	3.91
284.968	3.86
285.34	3.88
285.713	3.91
286.085	3.78
286.457	3.91
286.829	3.97
287.201	3.92
287.572	3.81
287.944	3.65
288.316	3.63
288.688	3.51
289.06	3.5
289.431	3.5
289.803	3.58
290.175	3.71
290.546	4
290.918	4.06
291.289	4.05
291.661	4.12
292.032	4.35
292.403	4.51
292.775	4.78
293.146	4.74
293.517	4.74
293.889	4.84
294.26	4.86
294.631	4.92
295.002	4.86
295.373	4.79
295.744	5.12
296.115	5.07
296.486	5.1
296.857	5.09
297.228	5.14
297.599	5
297.97	4.92
298.34	4.88
298.711	5.04
299.082	5.14
299.452	5.08
299.823	5.02
300.194	5
300.564	4.85
300.935	5.04
301.305	5.08
301.676	5.06
302.046	5.11
302.416	5.19
302.787	5.29
303.157	5.62
303.527	5.54
303.897	5.55
304.267	5.7
304.637	5.87
305.008	5.89
305.378	6.31
305.748	6.47
306.117	6.51
306.487	6.48
306.857	6.5
307.227	6.67
307.597	6.69
307.967	6.71
308.336	6.88
308.706	6.93
309.076	7.06
309.445	7.02
309.815	6.99
310.184	6.99
310.554	7.05
310.923	6.94
311.293	6.98
311.662	7.12
312.031	7.1
312.401	7.11
312.77	7.22
313.139	7.2
313.508	7.26
313.877	7.34
314.246	7.44
314.616	7.51
314.985	7.57
315.353	7.62
315.722	7.81
316.091	7.81
316.46	7.72
316.829	7.69
317.198	8.04
317.567	8.07
317.935	8.23
318.304	8.32
318.672	8.53
319.041	8.72
319.41	8.83
319.778	9.03
320.147	9.1
320.515	9.1
320.883	8.97
321.252	9.18
321.62	9.16
321.988	9.36
322.357	9.39
322.725	9.44
323.093	9.56
323.461	9.53
323.829	9.55
324.197	9.57
324.565	9.63
324.933	9.59
325.301	9.7
325.669	9.62
326.037	9.72
326.405	9.79
326.772	9.79
327.14	9.87
327.508	9.84
327.875	9.89
328.243	9.93
328.61	10.18
328.978	10.18
329.346	10.34
329.713	10.27
330.08	10.45
330.448	10.35
330.815	10.39
331.182	10.36
331.55	10.45
331.917	10.64
332.284	10.77
332.651	10.76
333.018	10.82
333.385	10.91
333.752	11.06
334.119	11.08
334.486	11.09
334.853	10.92
335.22	10.96
335.587	11.07
335.954	11.25
336.32	11.3
336.687	11.27
337.054	11.25
337.42	11.35
337.787	11.36
338.153	11.46
338.52	11.56
338.886	11.69
339.253	11.75
339.619	11.77
339.986	11.77
340.352	11.84
340.718	11.97
341.084	11.95
341.451	11.91
341.817	12
342.183	12.06
342.549	12.25
342.915	12.37
343.281	12.37
343.647	12.35
344.013	12.37
344.379	12.43
344.745	12.48
345.11	12.47
345.476	12.43
345.842	12.53
346.208	12.53
346.573	12.46
346.939	12.54
347.304	12.53
347.67	12.51
348.035	12.61
348.401	12.53
348.766	12.65
349.132	12.65
349.497	12.55
349.862	12.57
350.228	12.53
350.593	12.41
350.958	12.33
351.323	12.41
351.688	12.41
352.053	12.3
352.418	12.26
352.783	12.26
353.148	12.27
353.513	12.33
353.878	12.34
354.243	12.46
354.608	12.49
354.972	12.54
355.337	12.6
355.702	12.62
356.066	12.65
356.431	12.54
356.795	12.52
357.16	12.48
357.524	12.38
357.889	12.46
358.253	12.53
358.618	12.65
358.982	12.53
359.346	12.43
359.71	12.44
360.075	12.41
360.439	12.36
360.803	12.37
361.167	12.27
361.531	12.13
361.895	12.07
362.259	11.94
362.623	11.84
362.987	11.83
363.351	11.71
363.714	11.66
364.078	11.78
364.442	11.74
364.806	11.7
365.169	11.73
365.533	11.64
365.896	11.57
366.26	11.41
366.623	11.42
366.987	11.4
367.35	11.35
367.714	11.3
368.077	11.31
368.44	11.28
368.803	11.22
369.167	11.17
369.53	11.09
369.893	11.1
370.256	11.09
370.619	10.98
370.982	10.91
371.345	10.87
371.708	10.71
372.071	10.61
372.434	10.59
372.797	10.52
373.159	10.39
373.522	10.32
373.885	10.3
374.247	10.2
374.61	10.13
374.973	10.04
375.335	10
375.698	9.91
376.06	9.81
376.423	9.73
376.785	9.76
377.147	9.75
377.51	9.64
377.872	9.63
378.234	9.6
378.596	9.59
378.958	9.5
379.321	9.41
379.683	9.42
380.045	9.33
380.407	9.27
380.769	9.29
381.13	9.27
381.492	9.17
381.854	9.13
382.216	9.09
382.578	9.04
382.939	8.95
383.301	8.85
383.663	8.78
384.024	8.73
384.386	8.66
384.747	8.57
385.109	8.56
385.47	8.5
385.832	8.45
386.193	8.41
386.554	8.37
386.916	8.35
387.277	8.27
387.638	8.28
387.999	8.21
388.36	8.14
388.721	8.06
389.082	8.04
389.443	7.93
389.804	7.87
390.165	7.84
390.526	7.81
390.887	7.75
391.248	7.72
391.609	7.68
391.969	7.63
392.33	7.56
392.691	7.53
393.051	7.44
393.412	7.41
393.772	7.33
394.133	7.26
394.493	7.21
394.854	7.15
395.214	7.05
395.574	7
395.935	6.92
396.295	6.93
396.655	6.89
397.015	6.85
397.376	6.81
397.736	6.77
398.096	6.75
398.456	6.69
398.816	6.64
399.176	6.56
399.535	6.52
399.895	6.47
400.255	6.37
400.615	6.34
400.975	6.25
401.334	6.2
401.694	6.16
402.054	6.13
402.413	6.11
402.773	6.08
403.132	6.04
403.492	6.03
403.851	5.93
404.211	5.91
404.57	5.89
404.929	5.83
405.288	5.79
405.648	5.73
406.007	5.75
406.366	5.74
406.725	5.75
407.084	5.71
407.443	5.7
407.802	5.74
408.161	5.7
408.52	5.67
408.879	5.65
409.238	5.63
409.596	5.61
409.955	5.59
410.314	5.58
410.673	5.55
411.031	5.5
411.39	5.5
411.748	5.5
412.107	5.48
412.465	5.46
412.824	5.42
413.182	5.4
413.54	5.33
413.899	5.29
414.257	5.27
414.615	5.23
414.974	5.2
415.332	5.12
415.69	5.08
416.048	5.07
416.406	5.05
416.764	5.02
417.122	4.98
417.48	4.94
417.838	4.91
418.195	4.9
418.553	4.87
418.911	4.85
419.269	4.82
419.626	4.79
419.984	4.76
420.342	4.76
420.699	4.74
421.057	4.74
421.414	4.72
421.772	4.69
422.129	4.69
422.486	4.67
422.844	4.67
423.201	4.64
423.558	4.63
423.915	4.61
424.273	4.6
424.63	4.59
424.987	4.59
425.344	4.6
425.701	4.59
426.058	4.59
426.415	4.57
426.772	4.54
427.128	4.53
427.485	4.53
427.842	4.52
428.199	4.51
428.555	4.49
428.912	4.5
429.269	4.5
429.625	4.49
429.982	4.47
430.338	4.45
430.695	4.47
431.051	4.46
431.407	4.47
431.764	4.46
432.12	4.46
432.476	4.44
432.832	4.4
433.189	4.41
433.545	4.41
433.901	4.39
434.257	4.4
434.613	4.41
434.969	4.41
435.325	4.39
435.681	4.4
436.036	4.42
436.392	4.41
436.748	4.39
437.104	4.37
437.459	4.37
437.815	4.39
438.171	4.38
438.526	4.39
438.882	4.38
439.237	4.4
439.593	4.39
439.948	4.38
440.304	4.39
440.659	4.38
441.014	4.38
441.369	4.4
441.725	4.38
442.08	4.38
442.435	4.36
442.79	4.37
443.145	4.35
443.5	4.35
443.855	4.34
444.21	4.35
444.565	4.36
444.92	4.37
445.275	4.35
445.629	4.33
445.984	4.32
446.339	4.31
446.693	4.28
447.048	4.27
447.403	4.26
447.757	4.24
448.112	4.22
448.466	4.2
448.82	4.19
449.175	4.19
449.529	4.17
449.883	4.15
450.238	4.12
450.592	4.12
450.946	4.07
451.3	4.05
451.654	4.02
452.008	4
452.362	3.96
452.716	3.93
453.07	3.95
453.424	3.94
453.778	3.94
454.132	3.92
454.486	3.92
454.839	3.92
455.193	3.9
455.547	3.91
455.9	3.93
456.254	3.94
456.607	3.94
456.961	3.96
457.314	3.98
457.668	4
458.021	3.99
458.375	4
458.728	4.01
459.081	4
459.434	4
459.787	4.03
460.141	4.05
460.494	4.03
460.847	4.04
461.2	4.05
461.553	4.06
461.906	4.07
462.259	4.11
462.611	4.15
462.964	4.17
463.317	4.18
463.67	4.18
464.022	4.21
464.375	4.21
464.728	4.22
465.08	4.23
465.433	4.25
465.785	4.27
466.138	4.32
466.49	4.36
466.843	4.38
467.195	4.39
467.547	4.41
467.899	4.43
468.252	4.45
468.604	4.47
468.956	4.49
469.308	4.5
469.66	4.48
470.012	4.49
470.364	4.5
470.716	4.51
471.068	4.53
471.42	4.53
471.772	4.57
472.123	4.59
472.475	4.6
472.827	4.62
473.178	4.64
473.53	4.64
473.882	4.63
474.233	4.64
474.585	4.6
474.936	4.6
475.288	4.59
475.639	4.59
475.99	4.59
476.342	4.58
476.693	4.59
477.044	4.59
477.395	4.56
477.746	4.52
478.097	4.51
478.448	4.49
478.8	4.48
479.15	4.45
479.501	4.44
479.852	4.44
480.203	4.43
480.554	4.42
480.905	4.4
481.255	4.41
481.606	4.42
481.957	4.44
482.307	4.44
482.658	4.44
483.009	4.44
483.359	4.44
483.709	4.44
484.06	4.43
484.41	4.44
484.761	4.46
485.111	4.47
485.461	4.48
485.811	4.48
486.162	4.48
486.512	4.49
486.862	4.49
487.212	4.49
487.562	4.5
487.912	4.51
488.262	4.53
488.612	4.53
488.961	4.54
489.311	4.54
489.661	4.54
490.011	4.55
490.36	4.55
490.71	4.56
491.06	4.58
491.409	4.6
491.759	4.6
492.108	4.6
492.458	4.6
492.807	4.62
493.157	4.64
493.506	4.67
493.855	4.7
494.204	4.73
494.554	4.74
494.903	4.76
495.252	4.77
495.601	4.8
495.95	4.83
496.299	4.87
496.648	4.91
496.997	4.94
497.346	4.99
497.695	5.04
498.043	5.09
498.392	5.13
498.741	5.21
499.09	5.25
499.438	5.32
499.787	5.39
500.135	5.44
500.484	5.5
500.832	5.57
501.181	5.64
501.529	5.72
501.878	5.8
502.226	5.88
502.574	5.97
502.923	6.04
503.271	6.14
503.619	6.23
503.967	6.34
504.315	6.44
504.663	6.56
505.011	6.69
505.359	6.78
505.707	6.88
506.055	6.95
506.403	7.05
506.751	7.16
507.098	7.27
507.446	7.37
507.794	7.47
508.141	7.59
508.489	7.73
508.837	7.84
509.184	7.96
509.531	8.06
509.879	8.2
510.226	8.3
510.574	8.4
510.921	8.52
511.268	8.62
511.616	8.74
511.963	8.86
512.31	8.96
512.657	9.12
513.004	9.26
513.351	9.44
513.698	9.63
514.045	9.8
514.392	9.95
514.739	10.13
515.086	10.29
515.432	10.45
515.779	10.58
516.126	10.74
516.473	10.9
516.819	11.08
517.166	11.21
517.512	11.4
517.859	11.56
518.205	11.69
518.552	11.84
518.898	12.02
519.245	12.2
519.591	12.35
519.937	12.52
520.283	12.69
520.629	12.86
520.976	13.04
521.322	13.23
521.668	13.43
522.014	13.66
522.36	13.89
522.706	14.14
523.052	14.42
523.398	14.7
523.743	14.99
524.089	15.27
524.435	15.53
524.781	15.79
525.126	16.05
525.472	16.29
525.817	16.48
526.163	16.65
526.509	16.83
526.854	16.99
527.199	17.14
527.545	17.31
527.89	17.47
528.235	17.63
528.581	17.8
528.926	18
529.271	18.17
529.616	18.35
529.961	18.53
530.306	18.7
530.651	18.87
530.996	19.08
531.341	19.29
531.686	19.52
532.031	19.73
532.376	19.96
532.721	20.2
533.065	20.47
533.41	20.74
533.755	20.99
534.099	21.29
534.444	21.58
534.788	21.86
535.133	22.16
535.477	22.44
535.822	22.74
536.166	23.04
536.51	23.37
536.855	23.71
537.199	24.06
537.543	24.42
537.887	24.81
538.231	25.17
538.576	25.53
538.92	25.89
539.264	26.26
539.608	26.58
539.951	26.87
540.295	27.16
540.639	27.44
540.983	27.72
541.327	27.98
541.671	28.25
542.014	28.51
542.358	28.72
542.701	28.96
543.045	29.19
543.389	29.44
543.732	29.67
544.075	29.91
544.419	30.2
544.762	30.45
545.105	30.72
545.449	30.99
545.792	31.28
546.135	31.6
546.478	31.87
546.821	32.18
547.165	32.57
547.508	32.91
547.851	33.23
548.194	33.54
548.536	33.87
548.879	34.19
549.222	34.53
549.565	34.9
549.908	35.21
550.25	35.55
550.593	35.89
550.936	36.25
551.278	36.59
551.621	36.91
551.963	37.26
552.306	37.57
552.648	37.87
552.991	38.2
553.333	38.46
553.675	38.71
554.017	39.04
554.36	39.3
554.702	39.55
555.044	39.85
555.386	40.11
555.728	40.4
556.07	40.62
556.412	40.86
556.754	41.1
557.096	41.38
557.438	41.64
557.78	41.91
558.121	42.17
558.463	42.45
558.805	42.64
559.147	42.92
559.488	43.18
559.83	43.43
560.171	43.68
560.513	43.9
560.854	44.22
561.196	44.42
561.537	44.61
561.878	44.87
562.22	45.11
562.561	45.36
562.902	45.54
563.243	45.76
563.584	45.96
563.925	46.16
564.266	46.34
564.607	46.52
564.948	46.72
565.289	46.81
565.63	47
565.971	47.24
566.312	47.36
566.653	47.5
566.993	47.64
567.334	47.8
567.675	47.97
568.015	48.1
568.356	48.28
568.696	48.44
569.037	48.54
569.377	48.69
569.718	48.78
570.058	48.95
570.398	49.09
570.739	49.23
571.079	49.34
571.419	49.52
571.759	49.65
572.099	49.77
572.439	49.95
572.779	50.06
573.119	50.13
573.459	50.24
573.799	50.38
574.139	50.5
574.479	50.6
574.819	50.75
575.158	50.87
575.498	51.01
575.838	51.09
576.177	51.16
576.517	51.27
576.856	51.45
577.196	51.56
577.535	51.69
577.875	51.82
578.214	51.99
578.553	52.16
578.893	52.35
579.232	52.48
579.571	52.63
579.91	52.76
580.25	52.92
580.589	53.08
580.928	53.24
581.267	53.38
581.606	53.49
581.945	53.58
582.283	53.65
582.622	53.71
582.961	53.84
583.3	54.05
583.639	54.14
583.977	54.22
584.316	54.31
584.654	54.38
584.993	54.4
585.332	54.46
585.67	54.44
586.008	54.5
586.347	54.48
586.685	54.57
587.024	54.67
587.362	54.68
587.7	54.76
588.038	54.81
588.376	54.89
588.715	55
589.053	55.03
589.391	55.09
589.729	55.15
590.067	55.2
590.404	55.21
590.742	55.28
591.08	55.39
591.418	55.46
591.756	55.57
592.093	55.74
592.431	55.87
592.769	55.97
593.106	56
593.444	56.07
593.781	56.09
594.119	56.16
594.456	56.19
594.793	56.26
595.131	56.32
595.468	56.34
595.805	56.36
596.143	56.45
596.48	56.55
596.817	56.62
597.154	56.65
597.491	56.72
597.828	56.75
598.165	56.72
598.502	56.73
598.839	56.78
599.176	56.82
599.512	56.88
599.849	56.96
600.186	57.08
600.523	57.19
600.859	57.29
601.196	57.35
601.532	57.44
601.869	57.45
602.205	57.44
602.542	57.58
602.878	57.61
603.215	57.58
603.551	57.6
603.887	57.58
604.223	57.61
604.56	57.63
604.896	57.63
605.232	57.76
605.568	57.8
605.904	57.83
606.24	57.87
606.576	57.87
606.912	57.84
607.248	57.83
607.583	57.81
607.919	57.85
608.255	57.89
608.591	57.94
608.926	57.96
609.262	58.04
609.597	58
609.933	58.03
610.268	58.13
610.604	58.17
610.939	58.27
611.275	58.31
611.61	58.38
611.945	58.46
612.281	58.49
612.616	58.66
612.951	58.75
613.286	58.74
613.621	58.81
613.956	58.95
614.291	58.95
614.626	59.04
614.961	59.11
615.296	59.11
615.631	59.14
615.966	59.18
616.3	59.19
616.635	59.27
616.97	59.38
617.304	59.36
617.639	59.45
617.973	59.42
618.308	59.48
618.642	59.45
618.977	59.56
619.311	59.6
619.646	59.56
619.98	59.49
620.314	59.62
620.648	59.54
620.983	59.54
621.317	59.64
621.651	59.69
621.985	59.63
622.319	59.58
622.653	59.62
622.987	59.72
623.321	59.8
623.655	59.77
623.988	59.72
624.322	59.76
624.656	59.76
624.99	59.82
625.323	59.93
625.657	60.03
625.99	59.98
626.324	60.02
626.657	59.93
626.991	59.95
627.324	59.95
627.658	60.05
627.991	60
628.324	59.97
628.657	59.99
628.991	60.08
629.324	60.19
629.657	60.31
629.99	60.3
630.323	60.39
630.656	60.51
630.989	60.56
631.322	60.56
631.655	60.47
631.987	60.51
632.32	60.56
632.653	60.45
632.986	60.48
633.318	60.47
633.651	60.57
633.984	60.6
634.316	60.69
634.649	60.68
634.981	60.83
635.313	60.86
635.646	60.85
635.978	60.83
636.31	60.86
636.643	60.79
636.975	60.85
637.307	60.85
637.639	60.73
637.971	60.75
638.303	60.81
638.635	60.92
638.967	60.91
639.299	60.84
639.631	60.94
639.963	61.03
640.295	61.03
640.626	61.1
640.958	61.2
641.29	61.14
641.621	61.1
641.953	61.07
642.285	61.15
642.616	61.33
642.948	61.4
643.279	61.3
643.61	61.3
643.942	61.24
644.273	61.28
644.604	61.42
644.936	61.54
645.267	61.51
645.598	61.48
645.929	61.41
646.26	61.54
646.591	61.55
646.922	61.44
647.253	61.47
647.584	61.53
647.915	61.55
648.245	61.64
648.576	61.73
648.907	61.82
649.238	61.71
649.568	61.61
649.899	61.63
650.229	61.8
650.56	61.82
650.89	61.95
651.221	61.93
651.551	61.94
651.882	61.8
652.212	62.04
652.542	62.06
652.872	62.2
653.203	62.22
653.533	62.25
653.863	62.37
654.193	62.39
654.523	62.32
654.853	62.46
655.183	62.42
655.513	62.49
655.843	62.52
656.172	62.56
656.502	62.6
656.832	62.55
657.162	62.58
657.491	62.6
657.821	62.66
658.15	62.68
658.48	62.77
658.809	62.86
659.139	62.73
659.468	62.75
659.798	62.75
660.127	62.69
660.456	62.72
660.785	62.83
661.115	62.83
661.444	62.95
661.773	62.79
662.102	62.75
662.431	62.72
662.76	62.64
663.089	62.71
663.418	62.72
663.747	62.82
664.076	62.74
664.404	62.69
664.733	62.56
665.062	62.51
665.39	62.41
665.719	62.45
666.048	62.6
666.376	62.56
666.705	62.56
667.033	62.54
667.362	62.51
667.69	62.31
668.018	62.34
668.347	62.39
668.675	62.39
669.003	62.39
669.331	62.56
669.659	62.72
669.987	62.7
670.315	62.7
670.643	62.64
670.971	62.59
671.299	62.66
671.627	62.65
671.955	62.66
672.283	62.74
672.61	62.73
672.938	62.66
673.266	62.75
673.593	62.78
673.921	62.83
674.249	62.89
674.576	63.09
674.904	63.1
675.231	63.02
675.558	63.03
675.886	63.06
676.213	63.02
676.54	62.9
676.867	62.95
677.195	63.01
677.522	62.97
677.849	62.95
678.176	62.91
678.503	62.89
678.83	62.92
679.157	62.89
679.484	63.03
679.81	62.98
680.137	63.05
680.464	62.93
680.791	62.98
681.117	62.95
681.444	62.89
681.771	62.91
682.097	62.86
682.424	63.09
682.75	63.07
683.077	63.01
683.403	63
683.729	63
684.056	62.99
684.382	63.01
684.708	62.98
685.034	63.1
685.36	63.18
685.686	63.3
686.012	63.36
686.339	63.24
686.664	63.32
686.99	63.35
687.316	63.5
687.642	63.56
687.968	63.6
688.294	63.59
688.619	63.5
688.945	63.56
689.271	63.44
689.596	63.53
689.922	63.52
690.247	63.59
690.573	63.58
690.898	63.69
691.224	63.81
691.549	64.1
691.874	64.1
692.2	64.03
692.525	63.97
692.85	63.83
693.175	63.65
693.5	63.6
693.825	63.65
694.15	63.66
694.475	63.75
694.8	63.7
695.125	63.55
695.45	63.62
695.775	63.57
696.099	63.36
696.424	63.31
696.749	63.3
697.073	63.45
697.398	63.41
697.723	63.41
698.047	63.36
698.372	63.29
698.696	63.23
699.02	63.32
699.345	63.37
699.669	63.64
699.993	63.95
700.318	64.02
700.642	63.88
700.966	63.9
701.29	63.76
701.614	63.84
701.938	64.04
702.262	64.1
702.586	64.25
702.91	64.32
703.234	64.26
703.557	64.43
703.881	64.12
704.205	64.31
704.529	64.49
704.852	64.52
705.176	64.5
705.499	64.57
705.823	64.49
706.146	64.37
706.47	64.28
706.793	64.11
707.117	64.04
707.44	64.22
707.763	64.18
708.086	64.24
708.409	64.17
708.733	63.95
709.056	63.89
709.379	63.83
709.702	64.01
710.025	64.31
710.348	64.16
710.671	64.37
710.993	64.21
711.316	63.82
711.639	63.94
711.962	63.98
712.284	63.89
712.607	63.9
712.93	63.89
713.252	63.59
713.575	63.64
713.897	63.81
714.22	63.72
714.542	63.82
714.864	63.81
715.187	64
715.509	64.25
715.831	64.18
716.153	64.22
716.475	64.3
716.798	64.33
717.12	64.34
717.442	64.31
717.764	64.54
718.085	64.84
718.407	64.72
718.729	64.59
719.051	64.76
719.373	64.78
719.695	64.73
720.016	64.64
720.338	64.69
720.659	64.65
720.981	64.68
721.302	64.45
721.624	64.26
721.945	64
722.267	63.87
722.588	64.18
722.909	64.05
723.231	64.02
723.552	64.01
723.873	63.98
724.194	63.96
724.515	63.64
724.836	63.48
725.157	63.58
725.478	63.75
725.799	63.64
726.12	63.68
726.441	63.81
726.762	64.16
727.083	64.01
727.403	63.96
727.724	64
728.045	64.1
728.365	64.13
728.686	64.06
729.006	63.98
729.327	63.73
729.647	63.85
729.967	63.85
730.288	63.75
730.608	63.73
730.928	63.8
731.249	63.95
731.569	64.11
731.889	64.11
732.209	64.13
732.529	64.29
732.849	64.34
733.169	64.5
733.489	64.51
733.809	64.66
734.129	64.59
734.448	64.52
734.768	64.32
735.088	64.49
735.408	64.61
735.727	64.66
736.047	64.96
736.366	64.98
736.686	64.97
737.005	64.63
737.325	64.73
737.644	64.5
737.963	64.43
738.283	64.29
738.602	64.15
738.921	64.27
739.24	64.17
739.56	64.2
739.879	64.26
740.198	64.37
740.517	64.48
740.836	64.76
741.155	64.98
741.473	65.07
741.792	65.27
742.111	65.29
742.43	65.49
742.748	65.39
743.067	65.35
743.386	65.48
743.704	65.83
744.023	65.91
744.341	66.2
744.66	66.51
744.978	66.57
745.297	66.78
745.615	66.41
745.933	66.47
746.252	66.54
746.57	66.14
746.888	65.81
747.206	65.54
747.524	65.59
747.842	65.24
748.16	65.39
748.478	65.21
748.796	65.63
749.114	65.85
749.432	65.69
749.749	65.54
750.067	65.52
750.385	65.44
750.703	65.27
751.02	65.31
751.338	65.21
751.655	65.21
751.973	65.55
752.29	65.71
752.608	65.8
752.925	66.03
753.242	66.39
753.56	66.48
753.877	66.34
754.194	65.87
754.511	65.82
754.828	66.26
755.145	66.04
755.462	65.52
755.779	65.03
756.096	65.11
756.413	65.19
756.73	65.06
757.047	65.34
757.364	65.52
757.68	65.71
757.997	65.73
758.314	65.63
758.63	64.9
758.947	65
759.264	64.82
759.58	64.32
759.896	64.23
760.213	64.38
760.529	64.9
760.846	64.7
761.162	64.83
761.478	64.53
761.794	64.5
762.11	64.53
762.426	64.52
762.743	64.39
763.059	64.28
763.375	64.2
763.69	64.17
764.006	64.31
764.322	64.31
764.638	64.08
764.954	64.02
765.27	64.21
765.585	64
765.901	64.52
766.216	64.68
766.532	64.66
766.848	64.61
767.163	64.44
767.478	64.75
767.794	64.79
768.109	64.82
768.424	64.89
768.74	65.08
769.055	65.27
769.37	65.49
769.685	65.68
770	65.39
770.315	65.44
770.63	65.21
770.945	65.06
771.26	65.07
771.575	65.43
771.89	65.45
772.205	65.88
772.52	65.04
772.834	65.44
773.149	65.19
773.464	65.19
773.778	65.15
774.093	65.12
774.407	65.12
774.722	64.93
775.036	65.16
775.351	65.33
775.665	65.5
775.979	65.24
776.293	65.05
776.608	65.67
776.922	65.53
777.236	65.68
777.55	65.62
777.864	66.26
778.178	66.02
778.492	65.89
778.806	65.74
779.12	65.64
779.434	65.45
779.747	65.67
780.061	65.97
780.375	65.61
780.689	65.63
781.002	65.83
781.316	66.41
781.629	66.49
781.943	66.79
782.256	66.57
782.57	66.74
782.883	66.98
783.196	67.05
783.51	66.74
783.823	67.1
784.136	67.45
784.449	66.93
784.762	67
785.075	66.87
785.388	66.49
785.701	66.81
786.014	66.12
786.327	66.06
786.64	65.56
786.953	65.9
787.266	65.75
787.578	65.9
787.891	65.67
788.204	65.66
788.516	65.38
788.829	65.35
789.141	65.47
789.454	65.2
789.766	65.07
790.079	65.36
790.391	64.86
790.703	64.71
791.016	64.46
791.328	64.27
791.64	64.6
791.952	64.59
792.264	64.65
792.576	65.4
792.888	65.48
793.2	65.78
793.512	65.75
793.824	65.73
794.136	65.34
794.448	64.7
794.76	65.06
795.071	64.22
795.383	64.34
795.695	64.55
796.006	65.35
796.318	65.53
796.629	65.39
796.941	64.93
797.252	64.43
797.564	64.91
797.875	64.83
798.186	65.21
798.497	65.13
798.809	64.96
799.12	65.16
799.431	65.73
799.742	66.2
800.053	66.55
800.364	67.18
800.675	66.37
800.986	66.87
801.297	66.34
801.608	66.35
801.918	66.16
802.229	66.26
802.54	65.49
802.851	65.3
803.161	65.63
803.472	66.33
803.782	66.74
804.093	66.76
804.403	67.19
804.714	66.38
805.024	66.65
805.334	67.13
805.645	66.93
805.955	66.48
806.265	65.28
806.575	64.65
806.885	64.6
807.195	65.49
807.505	65.42
807.815	65.32
808.125	66.19
808.435	65.85
808.745	65.72
809.055	66.37
809.365	65.51
809.674	65.3
809.984	64.88
810.294	65.08
810.603	64.72
810.913	64.62
811.222	64.9
811.532	64.96
811.841	64.82
812.151	64.69
812.46	64.23
812.769	64.58
813.079	64.31
813.388	64.29
813.697	64.41
814.006	63.91
814.315	64.35
814.624	64.11
814.933	64.7
815.242	64.95
815.551	64.49
815.86	66.12
816.169	66.04
816.478	65.68
816.786	65.29
817.095	66.14
817.404	66.09
817.712	66.62
818.021	66.52
818.33	65.59
818.638	65.71
818.947	65.97
819.255	66.3
819.563	66.44
819.872	65.89
820.18	65.45
820.488	65.76
820.796	65.55
821.105	65.4
821.413	65.45
821.721	65.42
822.029	65.54
822.337	65.34
822.645	65.45
822.953	65.71
823.26	65.59
823.568	65.23
823.876	65.29
824.184	65.33
824.491	65.37
824.799	65.56
825.107	65.6
825.414	65.62
825.722	65.4
826.029	65.29
826.337	65.46
826.644	65.59
826.951	65.65
827.259	65.77
827.566	65.91
827.873	65.87
828.18	65.86
828.488	65.68
828.795	65.55
829.102	65.46
829.409	65.42
829.716	65.78
830.023	66.11
830.329	66.18
830.636	66.01
830.943	66.13
831.25	65.98
831.557	65.98
831.863	65.7
832.17	66.09
832.476	66.08
832.783	65.8
833.089	65.82
833.396	65.62
833.702	65.74
834.009	65.33
834.315	65.46
834.621	65.75
834.928	66.18
835.234	66.83
835.54	66.83
835.846	66.56
836.152	66.27
836.458	65.85
836.764	65.73
837.07	65.78
837.376	65.9
837.682	66.29
837.988	66.22
838.293	66.74
838.599	66.53
838.905	67.17
839.211	67.36
839.516	67.97
839.822	67.51
840.127	67.45
840.433	67.76
840.738	67.31
841.044	66.42
841.349	66.41
841.654	65.7
841.959	66.2
842.265	66.61
842.57	67.02
842.875	67.64
843.18	66.36
843.485	65.91
843.79	66.93
844.095	67.27
844.4	67
844.705	67.07
845.01	67.62
845.315	67.08
845.619	67.44
845.924	67.13
846.229	68.85
846.533	68.72
846.838	68.45
847.142	68.78
847.447	69.14
847.751	68.69
848.056	67.52
848.36	67.21
848.664	66.58
848.969	65.68
849.273	65.99
849.577	67.25
849.881	67.57
850.185	64.74
850.489	64.06
850.794	64
851.097	62.28
851.401	63.59
851.705	64.76
852.009	66.31
852.313	65.58
852.617	65.64
852.92	65.52
853.224	68.93
853.528	68.31
853.831	66.96
854.135	65.41
854.438	65.31
854.742	66.2
855.045	67.53
855.349	66.26
855.652	65.67
855.955	65.56
856.259	65.45
856.562	67.35
856.865	67.2
857.168	69.03
857.471	71.48
857.774	69.83
858.077	67.46
858.38	66.44
858.683	64.74
858.986	61.57
859.289	61.86
859.592	60.41
859.894	62.17
860.197	65.83
860.5	65.86
860.802	67.5
861.105	67.44
861.407	67.44
861.71	69.77
862.012	70.25
862.315	71.39
862.617	70.73
862.919	68.12
863.222	68.47
863.524	65.68
863.826	66.37
864.128	67.23
864.43	67.89
864.732	68.33
865.034	70.51
865.336	72.73
865.638	71.52
865.94	68.86
866.242	70.31
866.544	68.23
866.846	68.7
867.147	67.83
867.449	65.66
867.751	63.08
868.052	64.42
868.354	66.36
868.655	67.36
868.957	68.99
869.258	68.71
869.56	68.3
869.861	68.47
870.162	66.68
870.463	67.08
870.765	69.92
871.066	68.74
871.367	72
871.668	73.87
871.969	76.2
872.27	77.83
872.571	78.05
872.872	75.26
873.173	77.09
873.473	75.01
873.774	77.38
874.075	81.05
874.376	78.71
874.676	76.2
874.977	73.75
875.277	76.64
875.578	77.92
875.878	78.76
876.179	79.76
876.479	80.79
876.78	79.39
877.08	77.26
877.38	77.17
877.68	72.89
877.981	71.73
878.281	68.84
878.581	69.1
