Data from BA57750_Reflection_00001.txt Node
Date: Mon Nov 18 15:46:24 EST 2019
User: vgr7
Spectrometer: USB2G7710
Scans to average: 3
Trigger mode: 4
Integration Time (sec): 2.000000E-2
Electric dark correction enabled: true
Boxcar width: 10
XAxis mode: Wavelengths
Number of Pixels in Spectrum: 2048
>>>>>Begin Spectral Data<<<<<
177.721	36.29
178.105	-13.56
178.488	-2604.92
178.871	104.12
179.254	124.45
179.636	160.66
180.019	96.51
180.402	62.5
180.785	175.58
181.168	144.91
181.55	232.29
181.933	151.6
182.316	211.98
182.698	162.65
183.081	167.44
183.463	186.74
183.846	293.4
184.228	262.85
184.611	381.12
184.993	340.98
185.376	398.53
185.758	404.08
186.14	620.57
186.522	440.99
186.904	256.96
187.287	210.89
187.669	388.3
188.051	226.38
188.433	334.84
188.815	411.91
189.197	14176.92
189.579	1013.04
189.961	6889.47
190.342	1983.72
190.724	-156.89
191.106	-156.95
191.488	-463.57
191.869	-523.13
192.251	-516.87
192.633	-228.16
193.014	-160.95
193.396	-291.56
193.777	-249.3
194.159	-203.64
194.54	-272.39
194.922	-214.2
195.303	-103.57
195.684	-124.24
196.065	-96.3
196.447	-131.54
196.828	-168.83
197.209	-127.49
197.59	-116.57
197.971	-129.34
198.352	-101.38
198.733	-112.2
199.114	-100.85
199.495	-69.89
199.876	-71.73
200.257	-65.25
200.638	-61.08
201.018	-77.3
201.399	-82.29
201.78	-65.82
202.16	-87.99
202.541	-108.69
202.922	-136.66
203.302	-183.06
203.683	-174.58
204.063	-155.74
204.444	-115.57
204.824	-103.22
205.204	-128.09
205.585	-144.29
205.965	-122.19
206.345	-183.49
206.725	-159.97
207.106	-169.31
207.486	-265.39
207.866	-269.83
208.246	-234.56
208.626	-233.76
209.006	-191.22
209.386	-197.43
209.766	-233.87
210.145	-268.52
210.525	-219.47
210.905	-162.41
211.285	-206.24
211.664	-189.14
212.044	-328.01
212.424	-295.3
212.803	-233.89
213.183	-194.81
213.562	-227.2
213.942	-188.69
214.321	-123.09
214.701	-119.25
215.08	-141.24
215.459	-114.23
215.838	-104.2
216.218	-108.71
216.597	-78.04
216.976	-101.21
217.355	-100.38
217.734	-92.67
218.113	-82.16
218.492	-76.79
218.871	-83.71
219.25	-73.1
219.629	-75.99
220.008	-58.31
220.387	-58.73
220.766	-64.43
221.144	-85.57
221.523	-75.97
221.902	-93.85
222.28	-123.79
222.659	-121.78
223.037	-111.06
223.416	-118.51
223.794	-109.03
224.173	-98.43
224.551	-86.1
224.929	-63.87
225.308	-49.88
225.686	-47.95
226.064	-40.58
226.442	-34.71
226.821	-31.49
227.199	-31.15
227.577	-26.43
227.955	-30.72
228.333	-28.38
228.711	-25.93
229.089	-16.98
229.467	-20.38
229.845	-17.5
230.222	-15.67
230.6	-21.66
230.978	-20.38
231.356	-16.52
231.733	-16.41
232.111	-11.87
232.488	-11.84
232.866	-11.17
233.243	-10.54
233.621	-10.68
233.998	-9.74
234.376	-9.53
234.753	-6.97
235.13	-5.75
235.508	-5.59
235.885	-5.24
236.262	-4.95
236.639	-4.5
237.016	-3.67
237.393	-1.14
237.77	0.09
238.147	0.17
238.524	1.71
238.901	3.16
239.278	2.4
239.655	3.04
240.032	2.86
240.409	2.97
240.785	2.56
241.162	3.19
241.539	3.66
241.915	3.59
242.292	3.29
242.668	3.14
243.045	3.27
243.421	3.03
243.798	3.43
244.174	3.56
244.551	3.56
244.927	3.19
245.303	3.31
245.679	3.21
246.056	3.35
246.432	3.46
246.808	3.48
247.184	3.24
247.56	2.98
247.936	2.82
248.312	2.99
248.688	3.09
249.064	2.92
249.44	2.89
249.815	2.88
250.191	3.05
250.567	3.04
250.943	2.89
251.318	3.09
251.694	3.21
252.069	3.16
252.445	3.16
252.82	3.13
253.196	2.77
253.571	2.88
253.947	2.8
254.322	2.97
254.697	2.41
255.073	2.69
255.448	2.64
255.823	2.93
256.198	2.84
256.573	2.75
256.948	2.91
257.323	3.29
257.698	3.35
258.073	3.34
258.448	3.35
258.823	3.47
259.198	3.36
259.573	3.19
259.948	3.27
260.322	3.18
260.697	3.27
261.072	3.38
261.446	3.3
261.821	3.22
262.195	3.3
262.57	3.39
262.944	3.44
263.319	3.56
263.693	3.43
264.067	3.46
264.442	3.58
264.816	3.54
265.19	3.27
265.564	3.18
265.938	3.07
266.313	2.93
266.687	2.91
267.061	2.95
267.435	3.04
267.809	2.84
268.183	3.22
268.556	3.26
268.93	3.36
269.304	3.54
269.678	3.67
270.051	3.37
270.425	3.58
270.799	3.61
271.172	3.54
271.546	3.51
271.919	3.51
272.293	3.59
272.666	3.64
273.04	3.7
273.413	3.73
273.787	3.82
274.16	3.95
274.533	3.88
274.906	3.92
275.279	3.92
275.653	4.08
276.026	3.89
276.399	3.84
276.772	3.76
277.145	3.54
277.518	3.3
277.891	3.43
278.263	3.23
278.636	3.29
279.009	3.41
279.382	3.66
279.755	3.67
280.127	3.73
280.5	3.69
280.872	3.72
281.245	3.78
281.617	3.94
281.99	3.99
282.362	4.16
282.735	4.12
283.107	4.06
283.479	4.13
283.852	4.18
284.224	4.18
284.596	4.06
284.968	4.15
285.34	4.37
285.713	4.38
286.085	4.39
286.457	4.45
286.829	4.4
287.201	4.34
287.572	4.27
287.944	4.18
288.316	4.35
288.688	4.31
289.06	4.25
289.431	4.23
289.803	4.14
290.175	4.09
290.546	4.19
290.918	4.34
291.289	4.36
291.661	4.49
292.032	4.59
292.403	4.81
292.775	4.87
293.146	4.82
293.517	4.85
293.889	4.96
294.26	5.05
294.631	5.13
295.002	5.13
295.373	5.24
295.744	5.27
296.115	5.07
296.486	5.03
296.857	5.22
297.228	5.15
297.599	5.27
297.97	5.29
298.34	5.27
298.711	5.23
299.082	5.18
299.452	5.08
299.823	5.09
300.194	5
300.564	4.83
300.935	4.82
301.305	4.7
301.676	4.69
302.046	4.56
302.416	4.63
302.787	4.53
303.157	4.42
303.527	4.24
303.897	4.29
304.267	4.36
304.637	4.32
305.008	4.45
305.378	4.55
305.748	4.55
306.117	4.44
306.487	4.45
306.857	4.36
307.227	4.53
307.597	4.47
307.967	4.49
308.336	4.64
308.706	4.79
309.076	4.93
309.445	4.9
309.815	4.88
310.184	4.77
310.554	4.88
310.923	4.9
311.293	5.12
311.662	5.16
312.031	5.17
312.401	5.2
312.77	5.29
313.139	5.18
313.508	5.14
313.877	5.31
314.246	5.32
314.616	5.28
314.985	5.1
315.353	5.1
315.722	5.18
316.091	5.12
316.46	4.9
316.829	4.87
317.198	4.95
317.567	4.93
317.935	5.02
318.304	4.95
318.672	4.96
319.041	4.88
319.41	4.85
319.778	4.72
320.147	4.68
320.515	4.5
320.883	4.35
321.252	4.38
321.62	4.27
321.988	4.36
322.357	4.44
322.725	4.44
323.093	4.54
323.461	4.49
323.829	4.62
324.197	4.7
324.565	4.79
324.933	4.78
325.301	4.83
325.669	4.75
326.037	4.83
326.405	4.73
326.772	4.65
327.14	4.61
327.508	4.65
327.875	4.62
328.243	4.69
328.61	4.79
328.978	4.89
329.346	4.98
329.713	4.73
330.08	4.85
330.448	4.9
330.815	4.89
331.182	4.95
331.55	4.96
331.917	4.93
332.284	4.83
332.651	4.76
333.018	4.83
333.385	4.85
333.752	4.85
334.119	5.07
334.486	5.14
334.853	5.16
335.22	5.22
335.587	5.24
335.954	5.04
336.32	5.08
336.687	4.95
337.054	4.94
337.42	5.08
337.787	5.12
338.153	5.07
338.52	5.03
338.886	4.79
339.253	4.75
339.619	4.78
339.986	4.85
340.352	4.94
340.718	4.82
341.084	4.87
341.451	5.02
341.817	5.03
342.183	5.03
342.549	5.05
342.915	5.09
343.281	5.07
343.647	5.15
344.013	5.06
344.379	5.06
344.745	5
345.11	5.07
345.476	4.95
345.842	5.1
346.208	5.19
346.573	5.4
346.939	5.42
347.304	5.44
347.67	5.4
348.035	5.41
348.401	5.45
348.766	5.34
349.132	5.08
349.497	5.04
349.862	5.07
350.228	5.04
350.593	5
350.958	5.01
351.323	4.99
351.688	5.03
352.053	5.06
352.418	5.1
352.783	5.08
353.148	5.09
353.513	4.99
353.878	4.98
354.243	4.95
354.608	4.9
354.972	4.86
355.337	4.88
355.702	4.87
356.066	4.97
356.431	5.07
356.795	5.19
357.16	5.16
357.524	5.07
357.889	5.08
358.253	5.16
358.618	5.19
358.982	5.2
359.346	5.16
359.71	5.13
360.075	5.11
360.439	5.13
360.803	5.17
361.167	5.15
361.531	5.05
361.895	5.02
362.259	4.98
362.623	4.98
362.987	5.03
363.351	5.03
363.714	5.02
364.078	4.96
364.442	4.93
364.806	4.94
365.169	5.04
365.533	5.04
365.896	4.98
366.26	4.93
366.623	4.9
366.987	4.95
367.35	4.97
367.714	4.97
368.077	4.87
368.44	4.79
368.803	4.77
369.167	4.77
369.53	4.79
369.893	4.89
370.256	4.93
370.619	4.86
370.982	4.82
371.345	4.78
371.708	4.81
372.071	4.78
372.434	4.77
372.797	4.77
373.159	4.74
373.522	4.76
373.885	4.83
374.247	4.88
374.61	4.88
374.973	4.8
375.335	4.84
375.698	4.86
376.06	4.85
376.423	4.88
376.785	4.93
377.147	4.92
377.51	4.9
377.872	4.9
378.234	4.94
378.596	4.95
378.958	4.88
379.321	4.91
379.683	4.93
380.045	4.88
380.407	4.86
380.769	4.86
381.13	4.87
381.492	4.82
381.854	4.85
382.216	4.9
382.578	5.02
382.939	4.97
383.301	4.99
383.663	5.01
384.024	5.02
384.386	5.02
384.747	5.1
385.109	5.08
385.47	5.04
385.832	4.97
386.193	4.97
386.554	4.98
386.916	4.94
387.277	4.94
387.638	5
387.999	4.99
388.36	5.04
388.721	5.05
389.082	5.07
389.443	5.03
389.804	5
390.165	4.96
390.526	5.03
390.887	5.01
391.248	5.06
391.609	5.09
391.969	5.13
392.33	5.06
392.691	5.04
393.051	5.1
393.412	5.13
393.772	5.18
394.133	5.2
394.493	5.22
394.854	5.24
395.214	5.24
395.574	5.24
395.935	5.22
396.295	5.2
396.655	5.19
397.015	5.2
397.376	5.23
397.736	5.22
398.096	5.17
398.456	5.22
398.816	5.21
399.176	5.19
399.535	5.13
399.895	5.14
400.255	5.19
400.615	5.19
400.975	5.18
401.334	5.16
401.694	5.16
402.054	5.14
402.413	5.14
402.773	5.13
403.132	5.1
403.492	5.11
403.851	5.1
404.211	5.11
404.57	5.08
404.929	5.06
405.288	5.05
405.648	5.05
406.007	5.07
406.366	5.05
406.725	5.04
407.084	5.05
407.443	5.06
407.802	5.07
408.161	5.04
408.52	5.03
408.879	5.02
409.238	5.04
409.596	5.06
409.955	5.05
410.314	5.07
410.673	5.07
411.031	5.06
411.39	5.08
411.748	5.07
412.107	5.08
412.465	5.07
412.824	5.11
413.182	5.09
413.54	5.05
413.899	5.07
414.257	5.09
414.615	5.09
414.974	5.1
415.332	5.08
415.69	5.12
416.048	5.12
416.406	5.16
416.764	5.16
417.122	5.18
417.48	5.17
417.838	5.17
418.195	5.19
418.553	5.18
418.911	5.19
419.269	5.2
419.626	5.2
419.984	5.21
420.342	5.22
420.699	5.24
421.057	5.25
421.414	5.24
421.772	5.24
422.129	5.24
422.486	5.25
422.844	5.26
423.201	5.24
423.558	5.23
423.915	5.22
424.273	5.22
424.63	5.22
424.987	5.24
425.344	5.23
425.701	5.23
426.058	5.24
426.415	5.21
426.772	5.21
427.128	5.23
427.485	5.23
427.842	5.21
428.199	5.21
428.555	5.21
428.912	5.22
429.269	5.23
429.625	5.24
429.982	5.21
430.338	5.21
430.695	5.2
431.051	5.2
431.407	5.21
431.764	5.21
432.12	5.19
432.476	5.17
432.832	5.18
433.189	5.18
433.545	5.19
433.901	5.2
434.257	5.18
434.613	5.18
434.969	5.19
435.325	5.22
435.681	5.21
436.036	5.21
436.392	5.2
436.748	5.19
437.104	5.19
437.459	5.2
437.815	5.19
438.171	5.19
438.526	5.22
438.882	5.21
439.237	5.23
439.593	5.25
439.948	5.26
440.304	5.25
440.659	5.24
441.014	5.23
441.369	5.21
441.725	5.23
442.08	5.22
442.435	5.22
442.79	5.19
443.145	5.2
443.5	5.2
443.855	5.2
444.21	5.21
444.565	5.21
444.92	5.22
445.275	5.22
445.629	5.23
445.984	5.23
446.339	5.21
446.693	5.19
447.048	5.18
447.403	5.17
447.757	5.18
448.112	5.17
448.466	5.17
448.82	5.16
449.175	5.15
449.529	5.16
449.883	5.14
450.238	5.14
450.592	5.13
450.946	5.12
451.3	5.12
451.654	5.12
452.008	5.12
452.362	5.1
452.716	5.12
453.07	5.13
453.424	5.13
453.778	5.14
454.132	5.14
454.486	5.13
454.839	5.13
455.193	5.12
455.547	5.13
455.9	5.16
456.254	5.19
456.607	5.19
456.961	5.19
457.314	5.19
457.668	5.21
458.021	5.21
458.375	5.23
458.728	5.23
459.081	5.23
459.434	5.24
459.787	5.23
460.141	5.21
460.494	5.2
460.847	5.2
461.2	5.21
461.553	5.22
461.906	5.24
462.259	5.25
462.611	5.26
462.964	5.28
463.317	5.28
463.67	5.28
464.022	5.3
464.375	5.28
464.728	5.28
465.08	5.27
465.433	5.29
465.785	5.27
466.138	5.27
466.49	5.27
466.843	5.28
467.195	5.28
467.547	5.31
467.899	5.31
468.252	5.31
468.604	5.32
468.956	5.3
469.308	5.3
469.66	5.29
470.012	5.27
470.364	5.27
470.716	5.28
471.068	5.27
471.42	5.27
471.772	5.31
472.123	5.33
472.475	5.32
472.827	5.32
473.178	5.33
473.53	5.33
473.882	5.32
474.233	5.3
474.585	5.3
474.936	5.28
475.288	5.27
475.639	5.29
475.99	5.29
476.342	5.31
476.693	5.3
477.044	5.34
477.395	5.36
477.746	5.36
478.097	5.36
478.448	5.35
478.8	5.35
479.15	5.31
479.501	5.31
479.852	5.34
480.203	5.33
480.554	5.35
480.905	5.35
481.255	5.38
481.606	5.4
481.957	5.43
482.307	5.44
482.658	5.45
483.009	5.44
483.359	5.45
483.709	5.45
484.06	5.45
484.41	5.46
484.761	5.47
485.111	5.46
485.461	5.46
485.811	5.47
486.162	5.47
486.512	5.49
486.862	5.49
487.212	5.49
487.562	5.5
487.912	5.5
488.262	5.5
488.612	5.5
488.961	5.5
489.311	5.48
489.661	5.49
490.011	5.49
490.36	5.49
490.71	5.48
491.06	5.48
491.409	5.47
491.759	5.46
492.108	5.46
492.458	5.46
492.807	5.45
493.157	5.45
493.506	5.47
493.855	5.46
494.204	5.46
494.554	5.47
494.903	5.46
495.252	5.47
495.601	5.47
495.95	5.47
496.299	5.46
496.648	5.46
496.997	5.44
497.346	5.45
497.695	5.45
498.043	5.45
498.392	5.45
498.741	5.47
499.09	5.46
499.438	5.46
499.787	5.46
500.135	5.49
500.484	5.5
500.832	5.48
501.181	5.49
501.529	5.5
501.878	5.51
502.226	5.51
502.574	5.49
502.923	5.5
503.271	5.47
503.619	5.48
503.967	5.49
504.315	5.5
504.663	5.51
505.011	5.51
505.359	5.51
505.707	5.51
506.055	5.52
506.403	5.51
506.751	5.51
507.098	5.51
507.446	5.5
507.794	5.48
508.141	5.48
508.489	5.48
508.837	5.48
509.184	5.48
509.531	5.5
509.879	5.53
510.226	5.52
510.574	5.56
510.921	5.57
511.268	5.55
511.616	5.56
511.963	5.55
512.31	5.56
512.657	5.57
513.004	5.55
513.351	5.58
513.698	5.62
514.045	5.61
514.392	5.63
514.739	5.63
515.086	5.65
515.432	5.63
515.779	5.65
516.126	5.65
516.473	5.68
516.819	5.69
517.166	5.69
517.512	5.69
517.859	5.67
518.205	5.67
518.552	5.69
518.898	5.69
519.245	5.69
519.591	5.66
519.937	5.65
520.283	5.67
520.629	5.67
520.976	5.65
521.322	5.66
521.668	5.65
522.014	5.66
522.36	5.65
522.706	5.67
523.052	5.67
523.398	5.68
523.743	5.67
524.089	5.68
524.435	5.67
524.781	5.68
525.126	5.69
525.472	5.69
525.817	5.7
526.163	5.71
526.509	5.71
526.854	5.74
527.199	5.74
527.545	5.75
527.89	5.76
528.235	5.76
528.581	5.76
528.926	5.77
529.271	5.77
529.616	5.77
529.961	5.78
530.306	5.77
530.651	5.76
530.996	5.78
531.341	5.76
531.686	5.76
532.031	5.77
532.376	5.78
532.721	5.78
533.065	5.78
533.41	5.78
533.755	5.77
534.099	5.77
534.444	5.78
534.788	5.78
535.133	5.78
535.477	5.79
535.822	5.78
536.166	5.78
536.51	5.78
536.855	5.78
537.199	5.78
537.543	5.79
537.887	5.8
538.231	5.79
538.576	5.81
538.92	5.8
539.264	5.81
539.608	5.81
539.951	5.8
540.295	5.79
540.639	5.8
540.983	5.81
541.327	5.81
541.671	5.81
542.014	5.79
542.358	5.8
542.701	5.79
543.045	5.81
543.389	5.8
543.732	5.81
544.075	5.8
544.419	5.82
544.762	5.8
545.105	5.81
545.449	5.8
545.792	5.81
546.135	5.82
546.478	5.8
546.821	5.8
547.165	5.78
547.508	5.81
547.851	5.79
548.194	5.8
548.536	5.79
548.879	5.8
549.222	5.83
549.565	5.82
549.908	5.84
550.25	5.82
550.593	5.83
550.936	5.81
551.278	5.82
551.621	5.82
551.963	5.84
552.306	5.81
552.648	5.81
552.991	5.83
553.333	5.84
553.675	5.85
554.017	5.85
554.36	5.88
554.702	5.86
555.044	5.87
555.386	5.86
555.728	5.9
556.07	5.89
556.412	5.87
556.754	5.85
557.096	5.83
557.438	5.85
557.78	5.88
558.121	5.89
558.463	5.94
558.805	5.93
559.147	5.96
559.488	6.02
559.83	6.02
560.171	6
560.513	6.03
560.854	6.05
561.196	6.05
561.537	6.05
561.878	6.07
562.22	6.08
562.561	6.08
562.902	6.07
563.243	6.08
563.584	6.09
563.925	6.1
564.266	6.1
564.607	6.11
564.948	6.11
565.289	6.1
565.63	6.08
565.971	6.06
566.312	6.07
566.653	6.04
566.993	6.04
567.334	6.02
567.675	5.99
568.015	5.97
568.356	5.98
568.696	6.01
569.037	6.01
569.377	6.02
569.718	6.04
570.058	6.03
570.398	6
570.739	5.98
571.079	6.02
571.419	6.03
571.759	6.02
572.099	6.03
572.439	6.03
572.779	6.04
573.119	6.05
573.459	6.06
573.799	6.07
574.139	6.06
574.479	6.08
574.819	6.11
575.158	6.11
575.498	6.1
575.838	6.05
576.177	6.02
576.517	5.99
576.856	5.97
577.196	5.97
577.535	5.97
577.875	6
578.214	5.97
578.553	5.98
578.893	5.98
579.232	5.95
579.571	5.98
579.91	5.95
580.25	5.95
580.589	5.93
580.928	5.91
581.267	5.92
581.606	5.9
581.945	5.89
582.283	5.86
582.622	5.9
582.961	5.93
583.3	6
583.639	6.07
583.977	6.08
584.316	6.1
584.654	6.13
584.993	6.09
585.332	6.1
585.67	6.07
586.008	6.06
586.347	6.06
586.685	6.04
587.024	6.06
587.362	6.11
587.7	6.1
588.038	6.13
588.376	6.12
588.715	6.14
589.053	6.13
589.391	6.15
589.729	6.18
590.067	6.17
590.404	6.17
590.742	6.14
591.08	6.13
591.418	6.14
591.756	6.14
592.093	6.17
592.431	6.16
592.769	6.2
593.106	6.22
593.444	6.2
593.781	6.2
594.119	6.2
594.456	6.15
594.793	6.13
595.131	6.09
595.468	6.12
595.805	6.14
596.143	6.14
596.48	6.17
596.817	6.12
597.154	6.14
597.491	6.12
597.828	6.14
598.165	6.15
598.502	6.12
598.839	6.13
599.176	6.12
599.512	6.11
599.849	6.1
600.186	6.11
600.523	6.15
600.859	6.18
601.196	6.18
601.532	6.22
601.869	6.26
602.205	6.27
602.542	6.28
602.878	6.24
603.215	6.24
603.551	6.22
603.887	6.22
604.223	6.2
604.56	6.22
604.896	6.18
605.232	6.2
605.568	6.2
605.904	6.17
606.24	6.22
606.576	6.25
606.912	6.25
607.248	6.25
607.583	6.26
607.919	6.27
608.255	6.26
608.591	6.23
608.926	6.23
609.262	6.27
609.597	6.26
609.933	6.3
610.268	6.31
610.604	6.35
610.939	6.38
611.275	6.41
611.61	6.39
611.945	6.42
612.281	6.42
612.616	6.42
612.951	6.48
613.286	6.5
613.621	6.49
613.956	6.48
614.291	6.48
614.626	6.48
614.961	6.43
615.296	6.44
615.631	6.47
615.966	6.48
616.3	6.5
616.635	6.5
616.97	6.47
617.304	6.43
617.639	6.39
617.973	6.32
618.308	6.28
618.642	6.32
618.977	6.32
619.311	6.3
619.646	6.3
619.98	6.24
620.314	6.15
620.648	6.17
620.983	6.21
621.317	6.2
621.651	6.19
621.985	6.2
622.319	6.21
622.653	6.15
622.987	6.15
623.321	6.15
623.655	6.15
623.988	6.19
624.322	6.25
624.656	6.25
624.99	6.3
625.323	6.34
625.657	6.33
625.99	6.34
626.324	6.34
626.657	6.33
626.991	6.36
627.324	6.39
627.658	6.39
627.991	6.39
628.324	6.41
628.657	6.44
628.991	6.47
629.324	6.51
629.657	6.55
629.99	6.55
630.323	6.49
630.656	6.46
630.989	6.43
631.322	6.44
631.655	6.47
631.987	6.47
632.32	6.42
632.653	6.38
632.986	6.37
633.318	6.35
633.651	6.38
633.984	6.33
634.316	6.37
634.649	6.28
634.981	6.25
635.313	6.24
635.646	6.18
635.978	6.16
636.31	6.16
636.643	6.14
636.975	6.12
637.307	6.17
637.639	6.2
637.971	6.21
638.303	6.18
638.635	6.18
638.967	6.19
639.299	6.24
639.631	6.24
639.963	6.25
640.295	6.31
640.626	6.35
640.958	6.45
641.29	6.36
641.621	6.42
641.953	6.36
642.285	6.42
642.616	6.49
642.948	6.49
643.279	6.47
643.61	6.51
643.942	6.5
644.273	6.52
644.604	6.54
644.936	6.55
645.267	6.53
645.598	6.51
645.929	6.5
646.26	6.47
646.591	6.47
646.922	6.42
647.253	6.38
647.584	6.35
647.915	6.3
648.245	6.35
648.576	6.39
648.907	6.43
649.238	6.35
649.568	6.28
649.899	6.29
650.229	6.32
650.56	6.31
650.89	6.32
651.221	6.3
651.551	6.29
651.882	6.27
652.212	6.32
652.542	6.34
652.872	6.36
653.203	6.37
653.533	6.42
653.863	6.43
654.193	6.48
654.523	6.49
654.853	6.47
655.183	6.46
655.513	6.48
655.843	6.5
656.172	6.58
656.502	6.58
656.832	6.58
657.162	6.58
657.491	6.62
657.821	6.61
658.15	6.55
658.48	6.58
658.809	6.56
659.139	6.54
659.468	6.54
659.798	6.56
660.127	6.57
660.456	6.54
660.785	6.56
661.115	6.58
661.444	6.54
661.773	6.59
662.102	6.57
662.431	6.58
662.76	6.53
663.089	6.5
663.418	6.53
663.747	6.52
664.076	6.49
664.404	6.49
664.733	6.52
665.062	6.6
665.39	6.61
665.719	6.65
666.048	6.6
666.376	6.6
666.705	6.61
667.033	6.54
667.362	6.59
667.69	6.62
668.018	6.53
668.347	6.59
668.675	6.59
669.003	6.63
669.331	6.63
669.659	6.71
669.987	6.74
670.315	6.72
670.643	6.64
670.971	6.69
671.299	6.7
671.627	6.71
671.955	6.76
672.283	6.76
672.61	6.73
672.938	6.78
673.266	6.79
673.593	6.9
673.921	7
674.249	7.01
674.576	6.98
674.904	7.07
675.231	6.99
675.558	6.98
675.886	6.99
676.213	6.9
676.54	6.88
676.867	6.89
677.195	6.91
677.522	6.98
677.849	6.93
678.176	6.9
678.503	6.9
678.83	6.82
679.157	6.72
679.484	6.78
679.81	6.81
680.137	6.81
680.464	6.73
680.791	6.71
681.117	6.66
681.444	6.65
681.771	6.66
682.097	6.71
682.424	6.73
682.75	6.73
683.077	6.83
683.403	6.89
683.729	6.84
684.056	6.94
684.382	6.98
684.708	6.94
685.034	7.01
685.36	7.01
685.686	6.95
686.012	7.01
686.339	7.1
686.664	7.09
686.99	7.08
687.316	7.08
687.642	7.13
687.968	7.18
688.294	7.23
688.619	7.25
688.945	7.26
689.271	7.2
689.596	7.2
689.922	7.16
690.247	7.01
690.573	6.99
690.898	6.88
691.224	6.8
691.549	6.91
691.874	6.84
692.2	6.87
692.525	6.93
692.85	6.92
693.175	6.85
693.5	6.79
693.825	6.7
694.15	6.66
694.475	6.5
694.8	6.46
695.125	6.42
695.45	6.47
695.775	6.39
696.099	6.4
696.424	6.45
696.749	6.34
697.073	6.45
697.398	6.62
697.723	6.65
698.047	6.75
698.372	6.71
698.696	6.72
699.02	6.62
699.345	6.66
699.669	6.72
699.993	6.61
700.318	6.65
700.642	6.72
700.966	6.75
701.29	6.84
701.614	6.9
701.938	6.97
702.262	6.95
702.586	6.99
702.91	7.15
703.234	7.15
703.557	7.35
703.881	7.26
704.205	7.15
704.529	7.15
704.852	7.09
705.176	7.07
705.499	7.09
705.823	7.17
706.146	7.08
706.47	7.13
706.793	7.34
707.117	7.23
707.44	7.32
707.763	7.36
708.086	7.28
708.409	7.27
708.733	7.24
709.056	7.1
709.379	7.22
709.702	7.12
710.025	7.04
710.348	6.99
710.671	7.04
710.993	7.18
711.316	7.15
711.639	7.04
711.962	7.13
712.284	7.11
712.607	7.1
712.93	7.21
713.252	7.12
713.575	7.02
713.897	7.15
714.22	7.13
714.542	7.24
714.864	7.24
715.187	7.18
715.509	7.08
715.831	7.18
716.153	7.04
716.475	7.04
716.798	7.23
717.12	7.23
717.442	7.34
717.764	7.18
718.085	7.13
718.407	7.19
718.729	7.17
719.051	7.04
719.373	7.01
719.695	6.92
720.016	7.09
720.338	7.14
720.659	7.21
720.981	7.09
721.302	7.03
721.624	7.19
721.945	7.24
722.267	7.27
722.588	7.13
722.909	7.18
723.231	7.1
723.552	6.92
723.873	6.97
724.194	6.86
724.515	6.97
724.836	7.16
725.157	7.23
725.478	7.25
725.799	7.34
726.12	7.34
726.441	7.35
726.762	7.19
727.083	7.18
727.403	7.28
727.724	7.41
728.045	7.3
728.365	7.37
728.686	7.44
729.006	7.67
729.327	7.73
729.647	7.86
729.967	8.03
730.288	8.03
730.608	7.99
730.928	7.99
731.249	7.9
731.569	7.86
731.889	7.93
732.209	7.81
732.529	7.93
732.849	8.02
733.169	8.1
733.489	8.06
733.809	8.06
734.129	7.74
734.448	7.79
734.768	7.69
735.088	7.62
735.408	7.65
735.727	7.47
736.047	7.61
736.366	7.45
736.686	7.43
737.005	7.63
737.325	7.5
737.644	7.45
737.963	7.53
738.283	7.37
738.602	7.34
738.921	7.42
739.24	7.39
739.56	7.23
739.879	7.36
740.198	7.47
740.517	7.27
740.836	7.42
741.155	7.38
741.473	7.46
741.792	7.43
742.111	7.4
742.43	7.56
742.748	7.31
743.067	7.39
743.386	7.27
743.704	7.28
744.023	7.57
744.341	7.56
744.66	7.68
744.978	7.54
745.297	7.4
745.615	7.52
745.933	7.51
746.252	7.69
746.57	7.37
746.888	7.24
747.206	7.35
747.524	7.25
747.842	7.38
748.16	7.62
748.478	7.7
748.796	7.69
749.114	7.78
749.432	7.81
749.749	7.99
750.067	8.06
750.385	7.83
750.703	7.48
751.02	7.46
751.338	7.36
751.655	7.43
751.973	7.64
752.29	7.65
752.608	7.83
752.925	7.87
753.242	8
753.56	8.21
753.877	8.31
754.194	8.34
754.511	8.22
754.828	8.08
755.145	8.11
755.462	8.08
755.779	7.81
756.096	7.96
756.413	8.07
756.73	8.12
757.047	8.19
757.364	8.37
757.68	8.57
757.997	8.55
758.314	8.76
758.63	8.64
758.947	8.5
759.264	8.15
759.58	8.12
759.896	8.16
760.213	8.28
760.529	8.48
760.846	8.54
761.162	8.39
761.478	8.36
761.794	8.15
762.11	8.21
762.426	8.35
762.743	8.31
763.059	8.29
763.375	8.15
763.69	8.14
764.006	8.17
764.322	8.15
764.638	8.24
764.954	8.24
765.27	8.11
765.585	8.05
765.901	8.35
766.216	8.33
766.532	8.33
766.848	8.2
767.163	8.01
767.478	8.03
767.794	8.1
768.109	8.05
768.424	8.06
768.74	7.98
769.055	7.86
769.37	7.86
769.685	7.62
770	7.9
770.315	7.73
770.63	7.53
770.945	7.45
771.26	7.38
771.575	7.26
771.89	7.59
772.205	7.6
772.52	7.17
772.834	6.92
773.149	6.67
773.464	6.49
773.778	6.48
774.093	6.4
774.407	6.48
774.722	6.39
775.036	6.61
775.351	6.67
775.665	6.41
775.979	6.23
776.293	6.34
776.608	6.03
776.922	6.06
777.236	6.31
777.55	6.37
777.864	6.16
778.178	6.35
778.492	6.37
778.806	6.53
779.12	6.73
779.434	6.87
779.747	7.19
780.061	7.29
780.375	7.07
780.689	7.01
781.002	7
781.316	7.27
781.629	7.25
781.943	7.15
782.256	7.36
782.57	7.73
782.883	7.84
783.196	7.93
783.51	7.93
783.823	7.8
784.136	7.77
784.449	7.76
784.762	7.93
785.075	7.69
785.388	7.82
785.701	8.1
786.014	8.23
786.327	8.21
786.64	8.21
786.953	8.52
787.266	8.02
787.578	7.9
787.891	7.95
788.204	7.94
788.516	8.07
788.829	8.35
789.141	8.56
789.454	8.47
789.766	8.5
790.079	8.85
790.391	8.74
790.703	8.78
791.016	9.02
791.328	9.27
791.64	9.15
791.952	9.05
792.264	8.05
792.576	7.56
792.888	7.33
793.2	7.58
793.512	7.28
793.824	7.9
794.136	7.96
794.448	8.14
794.76	7.74
795.071	7.6
795.383	7.09
795.695	6.08
796.006	6.19
796.318	6.22
796.629	6.26
796.941	6.24
797.252	6.03
797.564	5.55
797.875	5.14
798.186	5.19
798.497	4.94
798.809	5.5
799.12	6.33
799.431	6.63
799.742	6.19
800.053	6.22
800.364	6.3
800.675	5.98
800.986	5.78
801.297	5.86
801.608	5.6
801.918	5.82
802.229	6.43
802.54	5.68
802.851	5.54
803.161	4.98
803.472	5.24
803.782	5.52
804.093	6.06
804.403	6.46
804.714	6.74
805.024	6.95
805.334	6.79
805.645	6.85
805.955	6.52
806.265	7.4
806.575	7.72
806.885	7.86
807.195	7.92
807.505	7.96
807.815	8.28
808.125	8.27
808.435	8.52
808.745	8.27
809.055	9.38
809.365	9.26
809.674	9.31
809.984	9.1
810.294	8.58
810.603	8.35
810.913	8.45
811.222	8.14
811.532	8.64
811.841	9.34
812.151	9.4
812.46	9.7
812.769	9.31
813.079	9.56
813.388	9.38
813.697	9.97
814.006	10.19
814.315	10.31
814.624	10.33
814.933	10.53
815.242	10.82
815.551	10.35
815.86	11.14
816.169	11.25
816.478	11.02
816.786	11.27
817.095	11.79
817.404	11.69
817.712	11.5
818.021	11.26
818.33	10.67
818.638	10.21
818.947	10.08
819.255	10.04
819.563	9.85
819.872	9.52
820.18	9.53
820.488	9.39
820.796	9.34
821.105	9.43
821.413	9.44
821.721	9.44
822.029	9.43
822.337	9.45
822.645	9.61
822.953	9.67
823.26	9.81
823.568	9.74
823.876	9.54
824.184	9.76
824.491	9.74
824.799	9.84
825.107	9.69
825.414	9.64
825.722	9.71
826.029	9.83
826.337	10.15
826.644	10.15
826.951	10.04
827.259	10.1
827.566	10.11
827.873	9.99
828.18	10.12
828.488	10.01
828.795	9.8
829.102	9.71
829.409	9.84
829.716	9.68
830.023	9.54
830.329	9.36
830.636	9.29
830.943	9.42
831.25	9.44
831.557	9.39
831.863	9.69
832.17	9.37
832.476	9.13
832.783	8.89
833.089	9.1
833.396	9.44
833.702	9.6
834.009	10.04
834.315	10.09
834.621	9.89
834.928	10.27
835.234	10.52
835.54	10.29
835.846	10.22
836.152	10.41
836.458	10.29
836.764	10.59
837.07	10.39
837.376	10.36
837.682	10.31
837.988	10.52
838.293	10.18
838.599	10.07
838.905	9.71
839.211	9.66
839.516	9.73
839.822	9.56
840.127	9.05
840.433	8.9
840.738	9.28
841.044	9.04
841.349	8.17
841.654	7.89
841.959	8.55
842.265	8.55
842.57	9.09
842.875	10.09
843.18	10.87
843.485	10.46
843.79	9.57
844.095	8.53
844.4	9.77
844.705	9.24
845.01	10.08
845.315	10.28
845.619	10.02
845.924	9.01
846.229	9.9
846.533	10.8
846.838	8.72
847.142	7.53
847.447	6.99
847.751	7.81
848.056	7.08
848.36	7.09
848.664	7.1
848.969	5.43
849.273	3.82
849.577	2.26
849.881	0.28
850.185	1.27
850.489	3.67
850.794	2.31
851.097	3.29
851.401	1.6
851.705	0.75
852.009	0.98
852.313	0.51
852.617	0.19
852.92	0.64
853.224	1.17
853.528	1.99
853.831	2.53
854.135	2.07
854.438	1.66
854.742	0.45
855.045	0.49
855.349	-0.6
855.652	0.17
855.955	0.38
856.259	3.41
856.562	2.47
856.865	0.86
857.168	-1.25
857.471	-2.03
857.774	-0.77
858.077	0.66
858.38	0.82
858.683	0.74
858.986	-1.23
859.289	-2.43
859.592	-0.41
859.894	-0.1
860.197	0.37
860.5	0.64
860.802	2.67
861.105	4.25
861.407	2.29
861.71	2.87
862.012	2.55
862.315	1.11
862.617	0.58
862.919	0.88
863.222	1.85
863.524	4.16
863.826	4.85
864.128	4.13
864.43	4.32
864.732	4.14
865.034	4.9
865.336	3.86
865.638	2.28
865.94	3.91
866.242	4.23
866.544	5.48
866.846	5.25
867.147	2.97
867.449	0.66
867.751	3.62
868.052	4.28
868.354	2.4
868.655	5.94
868.957	7.17
869.258	5.93
869.56	4.93
869.861	4.62
870.162	5.39
870.463	6.17
870.765	6.14
871.066	5.73
871.367	4.26
871.668	7.11
871.969	7.76
872.27	4.44
872.571	4.35
872.872	3.91
873.173	2.33
873.473	2.85
873.774	5.16
874.075	4.31
874.376	3.22
874.676	7.98
874.977	4.38
875.277	3.39
875.578	4
875.878	4.34
876.179	4.6
876.479	4.13
876.78	3.53
877.08	3.23
877.38	3.17
877.68	4.36
877.981	2.75
878.281	2.57
878.581	4.53
