Data from BA57715_Reflection_00001.txt Node
Date: Mon Nov 18 15:25:43 EST 2019
User: vgr7
Spectrometer: USB2G7710
Scans to average: 3
Trigger mode: 4
Integration Time (sec): 2.000000E-2
Electric dark correction enabled: true
Boxcar width: 10
XAxis mode: Wavelengths
Number of Pixels in Spectrum: 2048
>>>>>Begin Spectral Data<<<<<
177.721	80.69
178.105	82.36
178.488	97.11
178.871	80.91
179.254	96.88
179.636	110.32
180.019	217.76
180.402	133.33
180.785	-236.52
181.168	192.26
181.55	142.9
181.933	100.75
182.316	53.56
182.698	41.82
183.081	25.6
183.463	-141.25
183.846	-151.35
184.228	-763.45
184.611	-298.52
184.993	3124.69
185.376	500.35
185.758	875.81
186.14	612.97
186.522	589.98
186.904	-846.13
187.287	-202.11
187.669	1349
188.051	-5407.94
188.433	-1518.36
188.815	-2085.19
189.197	888.11
189.579	481.56
189.961	859.64
190.342	319.72
190.724	263.8
191.106	244.96
191.488	159.86
191.869	157.68
192.251	158.98
192.633	105.7
193.014	127.2
193.396	192.99
193.777	222.41
194.159	-295.56
194.54	88.84
194.922	67.53
195.303	42.65
195.684	47.17
196.065	-3.5
196.447	12.74
196.828	-37.76
197.209	0.65
197.59	15.92
197.971	-4.93
198.352	29.85
198.733	2.01
199.114	17.55
199.495	14.97
199.876	-0.04
200.257	-13.84
200.638	1.11
201.018	9.88
201.399	18.4
201.78	38.44
202.16	36.9
202.541	28.75
202.922	16.09
203.302	-21.14
203.683	-12
204.063	10.05
204.444	12.9
204.824	61.57
205.204	90.68
205.585	48.6
205.965	16.78
206.345	-13.26
206.725	-92.69
207.106	-134.21
207.486	-140.67
207.866	-926.14
208.246	202.88
208.626	-332.62
209.006	-29.94
209.386	-110.26
209.766	-138.1
210.145	-74.23
210.525	-90.85
210.905	-38.64
211.285	-14.03
211.664	-3.56
212.044	-23.31
212.424	-20.38
212.803	-46.57
213.183	-45.73
213.562	-25.4
213.942	8.4
214.321	2.56
214.701	9.34
215.08	1.74
215.459	1.62
215.838	13.73
216.218	1.58
216.597	-1.14
216.976	1.61
217.355	3.96
217.734	6.17
218.113	9.58
218.492	23.68
218.871	18.81
219.25	17.94
219.629	2.23
220.008	0.76
220.387	-0.67
220.766	2.27
221.144	-7.18
221.523	-18.47
221.902	-26.85
222.28	-26.58
222.659	-20.73
223.037	-9.01
223.416	-14.62
223.794	-14.32
224.173	-9.43
224.551	-8.25
224.929	-12.59
225.308	-12.56
225.686	-16.75
226.064	-18.97
226.442	-29.36
226.821	-19.54
227.199	-14.7
227.577	-10.37
227.955	-10.65
228.333	-11.91
228.711	-7.46
229.089	-7.16
229.467	-7.15
229.845	-8.3
230.222	-6.3
230.6	-6.54
230.978	-4.33
231.356	-0.4
231.733	-0.54
232.111	0.66
232.488	1.52
232.866	2.17
233.243	4.01
233.621	4.87
233.998	6
234.376	7.86
234.753	8.63
235.13	7.61
235.508	9.19
235.885	8.42
236.262	8.74
236.639	8.6
237.016	9.32
237.393	11.51
237.77	11.7
238.147	11.57
238.524	12.01
238.901	11.31
239.278	10.05
239.655	11.2
240.032	10.76
240.409	10.76
240.785	11.22
241.162	10.5
241.539	10.53
241.915	10.07
242.292	9.53
242.668	9.19
243.045	9.13
243.421	9.19
243.798	9.41
244.174	9.15
244.551	8.84
244.927	8.64
245.303	8.32
245.679	8.39
246.056	8.16
246.432	8.04
246.808	7.85
247.184	7.82
247.56	7.27
247.936	7.29
248.312	7.29
248.688	6.88
249.064	7.2
249.44	7.4
249.815	7.39
250.191	7.69
250.567	7.46
250.943	7.66
251.318	7.66
251.694	7.71
252.069	7.69
252.445	7.83
252.82	7.67
253.196	7.66
253.571	7.53
253.947	7.47
254.322	7.48
254.697	7.61
255.073	7.55
255.448	7.87
255.823	8
256.198	7.92
256.573	7.86
256.948	7.68
257.323	7.56
257.698	7.58
258.073	7.44
258.448	7.54
258.823	7.31
259.198	7.33
259.573	7.21
259.948	7.33
260.322	7.17
260.697	7.23
261.072	7.17
261.446	7.1
261.821	7.06
262.195	7.29
262.57	7.32
262.944	7.38
263.319	7.2
263.693	6.96
264.067	6.93
264.442	6.98
264.816	7.03
265.19	6.78
265.564	6.69
265.938	6.66
266.313	6.61
266.687	6.69
267.061	6.5
267.435	6.61
267.809	6.5
268.183	6.67
268.556	6.52
268.93	6.59
269.304	6.61
269.678	6.69
270.051	6.38
270.425	6.22
270.799	6.01
271.172	6.13
271.546	6.17
271.919	6.14
272.293	6.06
272.666	6.13
273.04	6.31
273.413	6.34
273.787	6.35
274.16	6.4
274.533	6.31
274.906	6.29
275.279	6.23
275.653	6.3
276.026	6.25
276.399	6.41
276.772	6.37
277.145	6.3
277.518	6.34
277.891	6.4
278.263	6.48
278.636	6.66
279.009	6.61
279.382	6.67
279.755	6.76
280.127	7.06
280.5	6.88
280.872	6.84
281.245	6.99
281.617	7.05
281.99	7.07
282.362	7.18
282.735	7.01
283.107	6.88
283.479	6.91
283.852	6.89
284.224	6.94
284.596	6.88
284.968	7.01
285.34	7.02
285.713	7.15
286.085	7.26
286.457	7.17
286.829	7.23
287.201	7.44
287.572	7.39
287.944	7.21
288.316	7.2
288.688	7.18
289.06	7.13
289.431	7.06
289.803	7.05
290.175	7.1
290.546	7.35
290.918	7.48
291.289	7.43
291.661	7.45
292.032	7.54
292.403	7.56
292.775	7.66
293.146	7.66
293.517	7.58
293.889	7.69
294.26	7.82
294.631	7.87
295.002	7.69
295.373	7.75
295.744	7.9
296.115	7.97
296.486	8.07
296.857	8.11
297.228	8.33
297.599	8.36
297.97	8.43
298.34	8.44
298.711	8.49
299.082	8.62
299.452	8.7
299.823	8.81
300.194	9
300.564	9.11
300.935	9.3
301.305	9.34
301.676	9.23
302.046	9.33
302.416	9.39
302.787	9.44
303.157	9.42
303.527	9.49
303.897	9.6
304.267	9.69
304.637	9.76
305.008	9.8
305.378	9.99
305.748	10.02
306.117	9.92
306.487	10.02
306.857	10.03
307.227	10.09
307.597	10
307.967	9.9
308.336	9.75
308.706	9.63
309.076	9.66
309.445	9.64
309.815	9.6
310.184	9.55
310.554	9.55
310.923	9.59
311.293	9.49
311.662	9.41
312.031	9.43
312.401	9.42
312.77	9.42
313.139	9.37
313.508	9.28
313.877	9.47
314.246	9.49
314.616	9.49
314.985	9.45
315.353	9.34
315.722	9.47
316.091	9.39
316.46	9.4
316.829	9.44
317.198	9.54
317.567	9.52
317.935	9.5
318.304	9.59
318.672	9.62
319.041	9.64
319.41	9.7
319.778	9.73
320.147	9.65
320.515	9.54
320.883	9.27
321.252	9.28
321.62	9.14
321.988	9.18
322.357	9.17
322.725	9.33
323.093	9.51
323.461	9.58
323.829	9.51
324.197	9.52
324.565	9.48
324.933	9.46
325.301	9.52
325.669	9.61
326.037	9.56
326.405	9.54
326.772	9.64
327.14	9.69
327.508	9.49
327.875	9.5
328.243	9.5
328.61	9.62
328.978	9.66
329.346	9.83
329.713	9.73
330.08	9.74
330.448	9.55
330.815	9.31
331.182	9.09
331.55	9.14
331.917	9.04
332.284	9.06
332.651	9.04
333.018	9.06
333.385	8.99
333.752	9.06
334.119	9.09
334.486	8.95
334.853	8.86
335.22	8.86
335.587	8.87
335.954	8.8
336.32	8.84
336.687	8.82
337.054	8.72
337.42	8.67
337.787	8.62
338.153	8.72
338.52	8.85
338.886	8.88
339.253	8.96
339.619	8.99
339.986	8.98
340.352	9.08
340.718	9.1
341.084	9.01
341.451	9.05
341.817	9.01
342.183	9.1
342.549	9.07
342.915	9.24
343.281	9.31
343.647	9.4
344.013	9.51
344.379	9.53
344.745	9.48
345.11	9.55
345.476	9.67
345.842	9.61
346.208	9.6
346.573	9.66
346.939	9.75
347.304	9.87
347.67	9.94
348.035	9.81
348.401	9.76
348.766	9.83
349.132	9.72
349.497	9.68
349.862	9.73
350.228	9.74
350.593	9.69
350.958	9.66
351.323	9.57
351.688	9.49
352.053	9.54
352.418	9.52
352.783	9.47
353.148	9.36
353.513	9.37
353.878	9.34
354.243	9.32
354.608	9.29
354.972	9.18
355.337	9.1
355.702	9.19
356.066	9.19
356.431	9.21
356.795	9.21
357.16	9.2
357.524	9.09
357.889	9.1
358.253	9.09
358.618	9.06
358.982	9.08
359.346	9.02
359.71	8.95
360.075	8.94
360.439	8.97
360.803	9.01
361.167	8.95
361.531	8.93
361.895	8.91
362.259	8.82
362.623	8.8
362.987	8.79
363.351	8.7
363.714	8.69
364.078	8.67
364.442	8.67
364.806	8.73
365.169	8.77
365.533	8.76
365.896	8.76
366.26	8.79
366.623	8.78
366.987	8.81
367.35	8.8
367.714	8.89
368.077	8.83
368.44	8.77
368.803	8.87
369.167	8.9
369.53	8.83
369.893	8.89
370.256	8.97
370.619	8.96
370.982	8.95
371.345	8.93
371.708	8.89
372.071	8.86
372.434	8.78
372.797	8.78
373.159	8.72
373.522	8.73
373.885	8.72
374.247	8.76
374.61	8.74
374.973	8.75
375.335	8.7
375.698	8.74
376.06	8.75
376.423	8.71
376.785	8.72
377.147	8.83
377.51	8.78
377.872	8.79
378.234	8.78
378.596	8.81
378.958	8.82
379.321	8.84
379.683	8.88
380.045	8.93
380.407	8.87
380.769	8.92
381.13	8.9
381.492	8.88
381.854	8.84
382.216	8.82
382.578	8.78
382.939	8.77
383.301	8.75
383.663	8.73
384.024	8.68
384.386	8.71
384.747	8.68
385.109	8.74
385.47	8.64
385.832	8.65
386.193	8.64
386.554	8.65
386.916	8.7
387.277	8.71
387.638	8.66
387.999	8.67
388.36	8.68
388.721	8.67
389.082	8.64
389.443	8.65
389.804	8.66
390.165	8.69
390.526	8.7
390.887	8.71
391.248	8.73
391.609	8.73
391.969	8.7
392.33	8.68
392.691	8.69
393.051	8.69
393.412	8.72
393.772	8.71
394.133	8.67
394.493	8.63
394.854	8.61
395.214	8.62
395.574	8.65
395.935	8.65
396.295	8.65
396.655	8.64
397.015	8.64
397.376	8.64
397.736	8.62
398.096	8.64
398.456	8.64
398.816	8.69
399.176	8.65
399.535	8.67
399.895	8.63
400.255	8.61
400.615	8.65
400.975	8.64
401.334	8.67
401.694	8.7
402.054	8.67
402.413	8.65
402.773	8.63
403.132	8.61
403.492	8.6
403.851	8.6
404.211	8.62
404.57	8.57
404.929	8.59
405.288	8.56
405.648	8.52
406.007	8.48
406.366	8.42
406.725	8.47
407.084	8.46
407.443	8.49
407.802	8.48
408.161	8.48
408.52	8.47
408.879	8.46
409.238	8.49
409.596	8.53
409.955	8.52
410.314	8.54
410.673	8.54
411.031	8.51
411.39	8.49
411.748	8.48
412.107	8.52
412.465	8.53
412.824	8.52
413.182	8.52
413.54	8.54
413.899	8.53
414.257	8.53
414.615	8.51
414.974	8.49
415.332	8.48
415.69	8.44
416.048	8.42
416.406	8.39
416.764	8.36
417.122	8.33
417.48	8.31
417.838	8.3
418.195	8.29
418.553	8.3
418.911	8.32
419.269	8.31
419.626	8.29
419.984	8.27
420.342	8.27
420.699	8.27
421.057	8.26
421.414	8.25
421.772	8.22
422.129	8.21
422.486	8.21
422.844	8.2
423.201	8.19
423.558	8.2
423.915	8.2
424.273	8.2
424.63	8.17
424.987	8.17
425.344	8.17
425.701	8.16
426.058	8.15
426.415	8.12
426.772	8.09
427.128	8.09
427.485	8.1
427.842	8.09
428.199	8.1
428.555	8.08
428.912	8.1
429.269	8.1
429.625	8.1
429.982	8.09
430.338	8.07
430.695	8.06
431.051	8.03
431.407	8.03
431.764	8.01
432.12	8.04
432.476	8.05
432.832	8.03
433.189	8.04
433.545	8.02
433.901	8.03
434.257	8.04
434.613	8.04
434.969	8.02
435.325	8.03
435.681	8
436.036	8
436.392	7.99
436.748	8
437.104	7.99
437.459	7.97
437.815	7.97
438.171	7.99
438.526	8
438.882	7.99
439.237	8
439.593	8
439.948	7.99
440.304	7.99
440.659	8
441.014	8
441.369	7.98
441.725	7.97
442.08	7.96
442.435	7.95
442.79	7.94
443.145	7.94
443.5	7.91
443.855	7.92
444.21	7.92
444.565	7.91
444.92	7.91
445.275	7.89
445.629	7.88
445.984	7.86
446.339	7.85
446.693	7.83
447.048	7.82
447.403	7.82
447.757	7.81
448.112	7.78
448.466	7.78
448.82	7.77
449.175	7.77
449.529	7.77
449.883	7.76
450.238	7.75
450.592	7.75
450.946	7.74
451.3	7.72
451.654	7.69
452.008	7.7
452.362	7.71
452.716	7.71
453.07	7.71
453.424	7.72
453.778	7.7
454.132	7.68
454.486	7.7
454.839	7.67
455.193	7.67
455.547	7.68
455.9	7.69
456.254	7.73
456.607	7.71
456.961	7.72
457.314	7.7
457.668	7.72
458.021	7.72
458.375	7.73
458.728	7.73
459.081	7.73
459.434	7.74
459.787	7.74
460.141	7.75
460.494	7.75
460.847	7.77
461.2	7.78
461.553	7.79
461.906	7.78
462.259	7.82
462.611	7.85
462.964	7.87
463.317	7.86
463.67	7.85
464.022	7.87
464.375	7.87
464.728	7.9
465.08	7.9
465.433	7.89
465.785	7.89
466.138	7.9
466.49	7.91
466.843	7.91
467.195	7.89
467.547	7.92
467.899	7.92
468.252	7.91
468.604	7.93
468.956	7.93
469.308	7.94
469.66	7.93
470.012	7.9
470.364	7.89
470.716	7.9
471.068	7.88
471.42	7.9
471.772	7.92
472.123	7.94
472.475	7.97
472.827	7.97
473.178	7.97
473.53	7.98
473.882	8
474.233	8
474.585	8.01
474.936	8
475.288	7.99
475.639	8.01
475.99	8.02
476.342	8.03
476.693	8.02
477.044	8.01
477.395	8.02
477.746	8
478.097	8
478.448	8.02
478.8	8
479.15	7.97
479.501	7.98
479.852	7.97
480.203	7.98
480.554	8.02
480.905	8.01
481.255	8
481.606	8.02
481.957	8.03
482.307	8.03
482.658	8.03
483.009	8.04
483.359	8.03
483.709	8.03
484.06	8.03
484.41	8.03
484.761	8.03
485.111	8.04
485.461	8.03
485.811	8.03
486.162	8.05
486.512	8.06
486.862	8.06
487.212	8.06
487.562	8.06
487.912	8.05
488.262	8.06
488.612	8.07
488.961	8.06
489.311	8.06
489.661	8.05
490.011	8.06
490.36	8.06
490.71	8.06
491.06	8.06
491.409	8.07
491.759	8.08
492.108	8.08
492.458	8.09
492.807	8.11
493.157	8.11
493.506	8.12
493.855	8.11
494.204	8.11
494.554	8.11
494.903	8.1
495.252	8.1
495.601	8.11
495.95	8.09
496.299	8.1
496.648	8.1
496.997	8.1
497.346	8.12
497.695	8.13
498.043	8.12
498.392	8.12
498.741	8.14
499.09	8.12
499.438	8.16
499.787	8.17
500.135	8.19
500.484	8.22
500.832	8.23
501.181	8.26
501.529	8.27
501.878	8.31
502.226	8.34
502.574	8.36
502.923	8.38
503.271	8.38
503.619	8.41
503.967	8.43
504.315	8.46
504.663	8.48
505.011	8.5
505.359	8.54
505.707	8.58
506.055	8.59
506.403	8.62
506.751	8.61
507.098	8.61
507.446	8.6
507.794	8.59
508.141	8.6
508.489	8.63
508.837	8.67
509.184	8.67
509.531	8.66
509.879	8.66
510.226	8.68
510.574	8.68
510.921	8.7
511.268	8.71
511.616	8.71
511.963	8.74
512.31	8.74
512.657	8.75
513.004	8.74
513.351	8.75
513.698	8.76
514.045	8.79
514.392	8.78
514.739	8.8
515.086	8.81
515.432	8.82
515.779	8.81
516.126	8.82
516.473	8.82
516.819	8.87
517.166	8.89
517.512	8.9
517.859	8.93
518.205	8.92
518.552	8.94
518.898	8.95
519.245	8.95
519.591	8.95
519.937	8.95
520.283	8.96
520.629	8.97
520.976	8.97
521.322	8.97
521.668	9
522.014	9
522.36	9.01
522.706	9.02
523.052	9.04
523.398	9.04
523.743	9.04
524.089	9.04
524.435	9.04
524.781	9.06
525.126	9.09
525.472	9.11
525.817	9.13
526.163	9.14
526.509	9.16
526.854	9.16
527.199	9.17
527.545	9.18
527.89	9.19
528.235	9.2
528.581	9.2
528.926	9.21
529.271	9.22
529.616	9.23
529.961	9.23
530.306	9.23
530.651	9.23
530.996	9.24
531.341	9.25
531.686	9.28
532.031	9.28
532.376	9.29
532.721	9.28
533.065	9.28
533.41	9.29
533.755	9.3
534.099	9.31
534.444	9.32
534.788	9.32
535.133	9.31
535.477	9.32
535.822	9.32
536.166	9.31
536.51	9.31
536.855	9.31
537.199	9.33
537.543	9.33
537.887	9.34
538.231	9.35
538.576	9.34
538.92	9.32
539.264	9.32
539.608	9.31
539.951	9.32
540.295	9.34
540.639	9.34
540.983	9.33
541.327	9.35
541.671	9.34
542.014	9.35
542.358	9.34
542.701	9.36
543.045	9.37
543.389	9.4
543.732	9.41
544.075	9.42
544.419	9.4
544.762	9.42
545.105	9.41
545.449	9.4
545.792	9.41
546.135	9.4
546.478	9.41
546.821	9.4
547.165	9.4
547.508	9.4
547.851	9.39
548.194	9.38
548.536	9.38
548.879	9.42
549.222	9.42
549.565	9.46
549.908	9.43
550.25	9.43
550.593	9.42
550.936	9.41
551.278	9.37
551.621	9.4
551.963	9.42
552.306	9.43
552.648	9.47
552.991	9.47
553.333	9.5
553.675	9.49
554.017	9.49
554.36	9.51
554.702	9.5
555.044	9.47
555.386	9.48
555.728	9.48
556.07	9.46
556.412	9.45
556.754	9.45
557.096	9.47
557.438	9.49
557.78	9.51
558.121	9.5
558.463	9.52
558.805	9.54
559.147	9.5
559.488	9.52
559.83	9.49
560.171	9.52
560.513	9.53
560.854	9.57
561.196	9.59
561.537	9.58
561.878	9.61
562.22	9.63
562.561	9.63
562.902	9.63
563.243	9.64
563.584	9.65
563.925	9.66
564.266	9.66
564.607	9.66
564.948	9.67
565.289	9.68
565.63	9.69
565.971	9.68
566.312	9.65
566.653	9.67
566.993	9.69
567.334	9.67
567.675	9.67
568.015	9.65
568.356	9.66
568.696	9.7
569.037	9.7
569.377	9.7
569.718	9.68
570.058	9.66
570.398	9.66
570.739	9.68
571.079	9.67
571.419	9.67
571.759	9.68
572.099	9.65
572.439	9.64
572.779	9.62
573.119	9.65
573.459	9.7
573.799	9.7
574.139	9.73
574.479	9.73
574.819	9.71
575.158	9.7
575.498	9.67
575.838	9.62
576.177	9.61
576.517	9.58
576.856	9.6
577.196	9.61
577.535	9.61
577.875	9.6
578.214	9.6
578.553	9.63
578.893	9.62
579.232	9.64
579.571	9.69
579.91	9.73
580.25	9.71
580.589	9.72
580.928	9.71
581.267	9.68
581.606	9.68
581.945	9.69
582.283	9.71
582.622	9.77
582.961	9.83
583.3	9.82
583.639	9.9
583.977	9.9
584.316	9.9
584.654	9.9
584.993	9.89
585.332	9.93
585.67	9.94
586.008	9.95
586.347	9.95
586.685	9.94
587.024	9.93
587.362	9.89
587.7	9.88
588.038	9.89
588.376	9.91
588.715	9.92
589.053	9.95
589.391	9.98
589.729	9.97
590.067	9.92
590.404	9.91
590.742	9.84
591.08	9.88
591.418	9.87
591.756	9.9
592.093	9.94
592.431	9.89
592.769	9.89
593.106	9.89
593.444	9.89
593.781	9.87
594.119	9.88
594.456	9.92
594.793	9.91
595.131	9.88
595.468	9.85
595.805	9.84
596.143	9.81
596.48	9.78
596.817	9.8
597.154	9.79
597.491	9.82
597.828	9.84
598.165	9.85
598.502	9.86
598.839	9.83
599.176	9.81
599.512	9.83
599.849	9.84
600.186	9.85
600.523	9.85
600.859	9.88
601.196	9.9
601.532	9.87
601.869	9.87
602.205	9.91
602.542	9.94
602.878	9.93
603.215	9.95
603.551	9.96
603.887	9.93
604.223	9.94
604.56	9.93
604.896	9.95
605.232	9.99
605.568	10.02
605.904	10.02
606.24	10.03
606.576	10.05
606.912	10.04
607.248	10.05
607.583	10.04
607.919	10.04
608.255	10.02
608.591	10.03
608.926	10.04
609.262	10.04
609.597	10.01
609.933	10.05
610.268	10.06
610.604	10.05
610.939	10.07
611.275	10.12
611.61	10.12
611.945	10.13
612.281	10.05
612.616	10.07
612.951	10.1
613.286	10.09
613.621	10.04
613.956	10.01
614.291	9.95
614.626	9.94
614.961	9.91
615.296	9.86
615.631	9.88
615.966	9.85
616.3	9.83
616.635	9.85
616.97	9.82
617.304	9.79
617.639	9.84
617.973	9.82
618.308	9.81
618.642	9.82
618.977	9.83
619.311	9.84
619.646	9.81
619.98	9.81
620.314	9.92
620.648	9.94
620.983	9.99
621.317	10.07
621.651	10.11
621.985	10.16
622.319	10.23
622.653	10.27
622.987	10.28
623.321	10.33
623.655	10.37
623.988	10.42
624.322	10.4
624.656	10.39
624.99	10.43
625.323	10.41
625.657	10.46
625.99	10.43
626.324	10.45
626.657	10.47
626.991	10.47
627.324	10.43
627.658	10.44
627.991	10.44
628.324	10.39
628.657	10.43
628.991	10.38
629.324	10.35
629.657	10.37
629.99	10.43
630.323	10.35
630.656	10.37
630.989	10.33
631.322	10.41
631.655	10.4
631.987	10.34
632.32	10.33
632.653	10.27
632.986	10.29
633.318	10.3
633.651	10.3
633.984	10.31
634.316	10.29
634.649	10.27
634.981	10.27
635.313	10.29
635.646	10.28
635.978	10.33
636.31	10.4
636.643	10.33
636.975	10.33
637.307	10.37
637.639	10.29
637.971	10.31
638.303	10.23
638.635	10.2
638.967	10.24
639.299	10.29
639.631	10.32
639.963	10.32
640.295	10.34
640.626	10.38
640.958	10.37
641.29	10.36
641.621	10.36
641.953	10.43
642.285	10.42
642.616	10.36
642.948	10.34
643.279	10.29
643.61	10.24
643.942	10.2
644.273	10.23
644.604	10.29
644.936	10.22
645.267	10.3
645.598	10.32
645.929	10.38
646.26	10.33
646.591	10.25
646.922	10.2
647.253	10.13
647.584	10.09
647.915	10.07
648.245	10.04
648.576	10.06
648.907	9.93
649.238	9.96
649.568	9.99
649.899	9.94
650.229	9.97
650.56	10.06
650.89	10.07
651.221	10.09
651.551	10.11
651.882	10.2
652.212	10.16
652.542	10.17
652.872	10.08
653.203	10.13
653.533	10.22
653.863	10.29
654.193	10.37
654.523	10.4
654.853	10.43
655.183	10.45
655.513	10.41
655.843	10.49
656.172	10.51
656.502	10.53
656.832	10.63
657.162	10.62
657.491	10.57
657.821	10.6
658.15	10.58
658.48	10.56
658.809	10.55
659.139	10.59
659.468	10.56
659.798	10.57
660.127	10.6
660.456	10.59
660.785	10.59
661.115	10.54
661.444	10.52
661.773	10.51
662.102	10.55
662.431	10.65
662.76	10.71
663.089	10.68
663.418	10.65
663.747	10.61
664.076	10.58
664.404	10.6
664.733	10.6
665.062	10.59
665.39	10.61
665.719	10.57
666.048	10.51
666.376	10.49
666.705	10.52
667.033	10.45
667.362	10.44
667.69	10.42
668.018	10.46
668.347	10.42
668.675	10.48
669.003	10.56
669.331	10.53
669.659	10.42
669.987	10.41
670.315	10.45
670.643	10.46
670.971	10.55
671.299	10.56
671.627	10.5
671.955	10.56
672.283	10.54
672.61	10.59
672.938	10.58
673.266	10.7
673.593	10.75
673.921	10.77
674.249	10.85
674.576	10.94
674.904	10.92
675.231	10.91
675.558	10.85
675.886	10.73
676.213	10.73
676.54	10.76
676.867	10.82
677.195	10.82
677.522	10.85
677.849	10.87
678.176	10.89
678.503	10.87
678.83	10.9
679.157	10.9
679.484	10.86
679.81	10.85
680.137	10.86
680.464	10.81
680.791	10.88
681.117	10.74
681.444	10.66
681.771	10.71
682.097	10.7
682.424	10.76
682.75	10.81
683.077	10.78
683.403	10.82
683.729	10.73
684.056	10.72
684.382	10.74
684.708	10.68
685.034	10.68
685.36	10.76
685.686	10.68
686.012	10.62
686.339	10.68
686.664	10.8
686.99	10.75
687.316	10.81
687.642	10.78
687.968	10.88
688.294	10.91
688.619	10.94
688.945	11
689.271	10.91
689.596	10.85
689.922	10.94
690.247	10.91
690.573	10.88
690.898	10.98
691.224	10.93
691.549	11
691.874	11.01
692.2	11.07
692.525	11.03
692.85	11.09
693.175	11.17
693.5	11.14
693.825	11.12
694.15	11.07
694.475	11.01
694.8	11.05
695.125	11.01
695.45	11.01
695.775	10.95
696.099	11.01
696.424	11.05
696.749	11.01
697.073	11.05
697.398	11.1
697.723	11.04
698.047	11
698.372	10.87
698.696	10.89
699.02	10.84
699.345	10.88
699.669	10.88
699.993	10.77
700.318	10.72
700.642	10.72
700.966	10.78
701.29	10.93
701.614	10.88
701.938	10.94
702.262	11.04
702.586	11.09
702.91	11.1
703.234	11.16
703.557	11.13
703.881	11.16
704.205	11.18
704.529	11.16
704.852	11.25
705.176	11.41
705.499	11.52
705.823	11.52
706.146	11.6
706.47	11.76
706.793	11.85
707.117	11.96
707.44	11.97
707.763	12.01
708.086	11.79
708.409	11.79
708.733	11.69
709.056	11.57
709.379	11.82
709.702	11.78
710.025	11.63
710.348	11.6
710.671	11.44
710.993	11.52
711.316	11.54
711.639	11.5
711.962	11.49
712.284	11.43
712.607	11.46
712.93	11.52
713.252	11.39
713.575	11.33
713.897	11.26
714.22	11.4
714.542	11.4
714.864	11.5
715.187	11.6
715.509	11.77
715.831	11.78
716.153	11.64
716.475	11.74
716.798	11.9
717.12	11.92
717.442	12.07
717.764	12.16
718.085	12.3
718.407	12.26
718.729	12.36
719.051	12.4
719.373	12.43
719.695	12.23
720.016	12.47
720.338	12.56
720.659	12.73
720.981	12.72
721.302	12.84
721.624	12.91
721.945	12.81
722.267	12.83
722.588	12.74
722.909	12.65
723.231	12.32
723.552	12.28
723.873	12.48
724.194	12.44
724.515	12.37
724.836	12.24
725.157	12.44
725.478	12.36
725.799	12.24
726.12	12
726.441	12.25
726.762	12.06
727.083	12.04
727.403	12.02
727.724	12.03
728.045	11.94
728.365	11.86
728.686	11.97
729.006	11.76
729.327	11.8
729.647	12.02
729.967	12.28
730.288	12.41
730.608	12.2
730.928	12.3
731.249	12.3
731.569	12.54
731.889	12.57
732.209	12.64
732.529	12.68
732.849	12.89
733.169	12.83
733.489	12.88
733.809	12.92
734.129	12.75
734.448	12.81
734.768	12.76
735.088	12.86
735.408	12.76
735.727	12.95
736.047	13.08
736.366	12.7
736.686	12.64
737.005	12.53
737.325	12.79
737.644	12.76
737.963	12.72
738.283	12.45
738.602	12.5
738.921	12.44
739.24	12.79
739.56	12.68
739.879	12.57
740.198	12.55
740.517	12.53
740.836	12.66
741.155	12.41
741.473	12.41
741.792	12.39
742.111	12.4
742.43	12.24
742.748	12.08
743.067	12.35
743.386	12.29
743.704	12.22
744.023	12.12
744.341	12.1
744.66	12.24
744.978	12.36
745.297	11.9
745.615	11.98
745.933	11.82
746.252	12.12
746.57	12.37
746.888	12.46
747.206	12.33
747.524	12.31
747.842	12.67
748.16	12.92
748.478	12.92
748.796	13.04
749.114	13.34
749.432	13.18
749.749	13.26
750.067	13.54
750.385	13.64
750.703	13.64
751.02	13.76
751.338	13.58
751.655	13.37
751.973	13.66
752.29	13.6
752.608	13.19
752.925	13.05
753.242	12.9
753.56	12.7
753.877	12.85
754.194	12.98
754.511	12.6
754.828	12.39
755.145	12.47
755.462	12.42
755.779	12.31
756.096	12.58
756.413	12.53
756.73	12.73
757.047	12.53
757.364	12.49
757.68	12.42
757.997	12.49
758.314	12.6
758.63	12.64
758.947	12.65
759.264	12.71
759.58	12.67
759.896	12.86
760.213	12.97
760.529	12.95
760.846	12.91
761.162	13.13
761.478	12.93
761.794	12.86
762.11	12.81
762.426	12.81
762.743	12.8
763.059	12.71
763.375	12.48
763.69	12.68
764.006	12.79
764.322	12.83
764.638	12.83
764.954	12.94
765.27	12.94
765.585	12.87
765.901	13.11
766.216	13.2
766.532	12.97
766.848	12.93
767.163	13.18
767.478	13.11
767.794	13.01
768.109	13.01
768.424	12.94
768.74	13.13
769.055	12.95
769.37	12.81
769.685	12.88
770	13.05
770.315	12.97
770.63	13.04
770.945	12.84
771.26	12.95
771.575	12.88
771.89	12.7
772.205	12.7
772.52	12.59
772.834	12.29
773.149	12.31
773.464	12.48
773.778	12.14
774.093	11.86
774.407	12.15
774.722	12.07
775.036	12.05
775.351	11.92
775.665	12.06
775.979	12.32
776.293	12.12
776.608	12
776.922	11.99
777.236	11.77
777.55	11.95
777.864	11.88
778.178	12.22
778.492	12.65
778.806	12.46
779.12	12.6
779.434	12.81
779.747	12.87
780.061	12.69
780.375	12.78
780.689	13.28
781.002	13.27
781.316	13.64
781.629	14
781.943	14.15
782.256	14.24
782.57	13.86
782.883	14.37
783.196	14.56
783.51	14.54
783.823	14.26
784.136	14.53
784.449	14.77
784.762	14.58
785.075	14.38
785.388	14.82
785.701	14.79
786.014	14.95
786.327	14.96
786.64	15.34
786.953	15.18
787.266	14.89
787.578	14.76
787.891	14.86
788.204	14.54
788.516	14.48
788.829	14.5
789.141	14.81
789.454	15.09
789.766	14.92
790.079	15.08
790.391	15.15
790.703	14.92
791.016	14.97
791.328	14.84
791.64	14.98
791.952	15.03
792.264	14.63
792.576	14.2
792.888	14.5
793.2	14.3
793.512	14.66
793.824	14.92
794.136	14.91
794.448	14.82
794.76	14.81
795.071	14.88
795.383	14.88
795.695	14.87
796.006	14.13
796.318	13.81
796.629	13.66
796.941	13.93
797.252	14.45
797.564	14.16
797.875	14.34
798.186	14.2
798.497	14.16
798.809	14.44
799.12	14.8
799.431	14.64
799.742	14.57
800.053	14.62
800.364	14.54
800.675	14.3
800.986	13.71
801.297	13.55
801.608	13.12
801.918	12.7
802.229	12.45
802.54	12.57
802.851	12.94
803.161	13.11
803.472	13.06
803.782	13.13
804.093	13
804.403	12.67
804.714	13.2
805.024	13.09
805.334	13.27
805.645	13.5
805.955	13.2
806.265	13.27
806.575	13.14
806.885	13.73
807.195	14.31
807.505	14.86
807.815	15.26
808.125	15.59
808.435	16
808.745	16.63
809.055	17.06
809.365	17.18
809.674	16.88
809.984	16.78
810.294	16.13
810.603	16.64
810.913	16.77
811.222	16.27
811.532	16.05
811.841	16.43
812.151	16.72
812.46	17.3
812.769	17.13
813.079	17.15
813.388	16.99
813.697	16.9
814.006	16.46
814.315	16.06
814.624	15.56
814.933	15.88
815.242	15.62
815.551	15.27
815.86	15.63
816.169	15.97
816.478	15.74
816.786	16.03
817.095	15.71
817.404	15.73
817.712	15.46
818.021	15.57
818.33	14.82
818.638	14.79
818.947	15.06
819.255	15.18
819.563	15.22
819.872	14.8
820.18	14.67
820.488	14.81
820.796	14.73
821.105	14.91
821.413	15.08
821.721	15.17
822.029	15.12
822.337	14.82
822.645	14.71
822.953	14.78
823.26	14.84
823.568	14.64
823.876	14.57
824.184	14.48
824.491	14.41
824.799	14.57
825.107	14.58
825.414	14.52
825.722	14.55
826.029	14.59
826.337	14.76
826.644	14.79
826.951	14.74
827.259	14.84
827.566	14.8
827.873	14.7
828.18	14.66
828.488	14.78
828.795	14.79
829.102	14.64
829.409	14.64
829.716	14.39
830.023	14.89
830.329	14.61
830.636	15.1
830.943	15.28
831.25	15.18
831.557	15.04
831.863	14.66
832.17	14.13
832.476	14.12
832.783	14.1
833.089	14.26
833.396	14.76
833.702	14.79
834.009	15.11
834.315	14.9
834.621	14.34
834.928	14.12
835.234	14.17
835.54	14.27
835.846	14.29
836.152	14.11
836.458	13.97
836.764	14.5
837.07	13.82
837.376	14.11
837.682	13.96
837.988	13.46
838.293	13.71
838.599	14.31
838.905	13.8
839.211	13.87
839.516	13.39
839.822	13.48
840.127	13.69
840.433	13.11
840.738	13.15
841.044	13.77
841.349	13.96
841.654	15.06
841.959	16.12
842.265	15.6
842.57	16.17
842.875	15.33
843.18	15.32
843.485	15.9
843.79	15.21
844.095	16.28
844.4	17.2
844.705	16.71
845.01	16.39
845.315	16.2
845.619	15.18
845.924	15.53
846.229	14.98
846.533	14.82
846.838	16.01
847.142	15.4
847.447	14.66
847.751	14.37
848.056	12.87
848.36	11.71
848.664	12.26
848.969	13.01
849.273	13.07
849.577	14.04
849.881	13.78
850.185	13.67
850.489	11.85
850.794	11.94
851.097	12.72
851.401	12.14
851.705	11.05
852.009	12.23
852.313	11.62
852.617	11.08
852.92	11.16
853.224	8.44
853.528	8.83
853.831	9.57
854.135	9.46
854.438	10.89
854.742	12.68
855.045	13.72
855.349	13.57
855.652	15.03
855.955	14.27
856.259	14.44
856.562	15.23
856.865	16.69
857.168	15.98
857.471	16.13
857.774	18.54
858.077	20.44
858.38	20.51
858.683	22.06
858.986	23.22
859.289	23.11
859.592	26.41
859.894	26.42
860.197	25.79
860.5	28.17
860.802	25.71
861.105	26.3
861.407	26.27
861.71	24.68
862.012	24.99
862.315	23.95
862.617	24.5
862.919	23.7
863.222	23.46
863.524	24.37
863.826	23.84
864.128	23.23
864.43	23.53
864.732	23.97
865.034	22.93
865.336	21.24
865.638	20.23
865.94	19.5
866.242	19.59
866.544	20.1
866.846	18.84
867.147	21.88
867.449	19.9
867.751	19.42
868.052	21.66
868.354	19.16
868.655	21.02
868.957	19.96
869.258	21.21
869.56	21.28
869.861	20.26
870.162	20.29
870.463	20.32
870.765	19.29
871.066	17.68
871.367	16.53
871.668	16.05
871.969	16.21
872.27	14.59
872.571	14.31
872.872	16.56
873.173	15.2
873.473	14.19
873.774	14.46
874.075	15.33
874.376	14.58
874.676	17.89
874.977	16.02
875.277	15.83
875.578	15.86
875.878	14.79
876.179	14.97
876.479	15.16
876.78	14.27
877.08	15.3
877.38	15.75
877.68	17.01
877.981	19.09
878.281	20.92
878.581	23.37
