Data from BA57715_Reflection_00014.txt Node
Date: Mon Nov 18 15:26:17 EST 2019
User: vgr7
Spectrometer: USB2G7710
Scans to average: 3
Trigger mode: 4
Integration Time (sec): 2.000000E-2
Electric dark correction enabled: true
Boxcar width: 10
XAxis mode: Wavelengths
Number of Pixels in Spectrum: 2048
>>>>>Begin Spectral Data<<<<<
177.721	1.55
178.105	-56.97
178.488	-30.49
178.871	-41.7
179.254	-93.15
179.636	45.43
180.019	203.79
180.402	33.33
180.785	10.69
181.168	159.52
181.55	166.01
181.933	79.03
182.316	23.68
182.698	13
183.081	-83.57
183.463	-95.21
183.846	-79.07
184.228	-518.47
184.611	-252.59
184.993	1927.16
185.376	265.78
185.758	288.79
186.14	107.98
186.522	194.72
186.904	-236.7
187.287	-24.89
187.669	164.26
188.051	-439.68
188.433	51.69
188.815	-302.12
189.197	234.37
189.579	156.74
189.961	217.91
190.342	28.15
190.724	29.89
191.106	-47.17
191.488	-41.15
191.869	-72.43
192.251	-104.11
192.633	-90.77
193.014	-134.65
193.396	-314.88
193.777	-299.25
194.159	1095.56
194.54	-439.07
194.922	-143.87
195.303	-89.74
195.684	-120.94
196.065	-87.45
196.447	-63.21
196.828	-115.56
197.209	-116.34
197.59	-228.39
197.971	-134.2
198.352	-101.26
198.733	-107.34
199.114	-95.39
199.495	-107.62
199.876	-42.81
200.257	-21.73
200.638	-27.65
201.018	-37.2
201.399	-37.43
201.78	-40.14
202.16	-37.27
202.541	-59.19
202.922	-101.21
203.302	-197.41
203.683	-126.65
204.063	-108.75
204.444	-133.14
204.824	-148.78
205.204	-107.89
205.585	-66.4
205.965	-38.85
206.345	-52.44
206.725	-88.13
207.106	-106.03
207.486	-141.96
207.866	-658.17
208.246	404.53
208.626	-424.82
209.006	-10.73
209.386	-12.82
209.766	18.95
210.145	27.68
210.525	98.24
210.905	57.41
211.285	59.93
211.664	103.91
212.044	112.2
212.424	87.11
212.803	65.18
213.183	57.82
213.562	66.41
213.942	43.23
214.321	47.64
214.701	39.19
215.08	12.72
215.459	17.77
215.838	18.02
216.218	8.88
216.597	4.32
216.976	1.46
217.355	1.22
217.734	-5.14
218.113	2.94
218.492	6.95
218.871	6.01
219.25	14.49
219.629	0.36
220.008	-7.14
220.387	-16.8
220.766	-7.85
221.144	-10.29
221.523	-22.99
221.902	-13.22
222.28	-23.27
222.659	-15.08
223.037	4.99
223.416	-16.15
223.794	-34.59
224.173	-31.24
224.551	-24.28
224.929	-27.04
225.308	-22.29
225.686	-15.49
226.064	-20.32
226.442	-23.25
226.821	-16.04
227.199	-17.05
227.577	-15.44
227.955	-13.72
228.333	-8.54
228.711	-7.52
229.089	-5.02
229.467	-4.89
229.845	-4.76
230.222	-4.55
230.6	-6.58
230.978	-8.51
231.356	-5.24
231.733	-5.05
232.111	-2.71
232.488	-2.12
232.866	0.99
233.243	2.15
233.621	1.7
233.998	2.73
234.376	2.18
234.753	1.03
235.13	0.55
235.508	1.97
235.885	3.21
236.262	1.95
236.639	2.58
237.016	1.28
237.393	2.43
237.77	3.12
238.147	4.41
238.524	5.39
238.901	5.97
239.278	5.21
239.655	6.12
240.032	5.37
240.409	4.92
240.785	4.32
241.162	3.78
241.539	4.21
241.915	4.32
242.292	4.13
242.668	4.31
243.045	4.79
243.421	4.16
243.798	3.43
244.174	3.72
244.551	3.59
244.927	3.83
245.303	4.02
245.679	3.95
246.056	3.82
246.432	3.64
246.808	3.65
247.184	3.47
247.56	3.24
247.936	3.41
248.312	3.5
248.688	3.41
249.064	3.36
249.44	3.37
249.815	3.31
250.191	3.57
250.567	3.56
250.943	3.34
251.318	3.59
251.694	4.06
252.069	3.94
252.445	3.6
252.82	3.46
253.196	3.04
253.571	2.64
253.947	2.56
254.322	2.39
254.697	2.37
255.073	2.13
255.448	1.93
255.823	2
256.198	2.19
256.573	2.19
256.948	2.48
257.323	2.44
257.698	2.36
258.073	2.22
258.448	2.16
258.823	2.07
259.198	2.06
259.573	1.88
259.948	1.76
260.322	1.88
260.697	1.88
261.072	1.96
261.446	2.09
261.821	2.18
262.195	2.41
262.57	2.35
262.944	2.3
263.319	2.39
263.693	2.29
264.067	2.29
264.442	2.36
264.816	2.23
265.19	2.27
265.564	2.44
265.938	2.41
266.313	2.48
266.687	2.42
267.061	2.52
267.435	2.45
267.809	2.52
268.183	2.41
268.556	2.47
268.93	2.42
269.304	2.5
269.678	2.47
270.051	2.46
270.425	2.42
270.799	2.58
271.172	2.5
271.546	2.54
271.919	2.41
272.293	2.39
272.666	2.44
273.04	2.53
273.413	2.28
273.787	2.32
274.16	2.21
274.533	2.43
274.906	2.35
275.279	2.46
275.653	2.49
276.026	2.69
276.399	2.62
276.772	2.75
277.145	2.71
277.518	2.71
277.891	2.63
278.263	2.7
278.636	2.65
279.009	2.72
279.382	2.74
279.755	2.84
280.127	2.98
280.5	3.01
280.872	2.96
281.245	3.12
281.617	3.18
281.99	3.26
282.362	3.08
282.735	2.92
283.107	2.93
283.479	2.98
283.852	2.88
284.224	3.02
284.596	2.95
284.968	2.83
285.34	2.86
285.713	2.9
286.085	2.9
286.457	3.07
286.829	3.17
287.201	3.17
287.572	3.06
287.944	2.99
288.316	3
288.688	2.87
289.06	2.84
289.431	2.83
289.803	2.9
290.175	3.01
290.546	3.14
290.918	3.09
291.289	3.09
291.661	3.28
292.032	3.27
292.403	3.27
292.775	3.42
293.146	3.39
293.517	3.45
293.889	3.53
294.26	3.52
294.631	3.56
295.002	3.45
295.373	3.55
295.744	3.58
296.115	3.56
296.486	3.57
296.857	3.53
297.228	3.56
297.599	3.4
297.97	3.37
298.34	3.52
298.711	3.64
299.082	3.65
299.452	3.65
299.823	3.64
300.194	3.62
300.564	3.5
300.935	3.61
301.305	3.54
301.676	3.6
302.046	3.6
302.416	3.69
302.787	3.86
303.157	3.87
303.527	3.91
303.897	3.91
304.267	4.06
304.637	4.19
305.008	4.24
305.378	4.69
305.748	4.79
306.117	4.68
306.487	4.72
306.857	4.88
307.227	4.86
307.597	4.93
307.967	4.97
308.336	5.2
308.706	5.21
309.076	5.35
309.445	5.3
309.815	5.3
310.184	5.22
310.554	5.23
310.923	5.26
311.293	5.24
311.662	5.43
312.031	5.5
312.401	5.52
312.77	5.73
313.139	5.55
313.508	5.46
313.877	5.52
314.246	5.6
314.616	5.59
314.985	5.6
315.353	5.63
315.722	5.79
316.091	5.72
316.46	5.74
316.829	5.77
317.198	5.94
317.567	6.03
317.935	5.98
318.304	6.01
318.672	5.99
319.041	6.05
319.41	5.88
319.778	5.8
320.147	5.9
320.515	5.7
320.883	5.74
321.252	5.92
321.62	6.08
321.988	5.97
322.357	6.08
322.725	6.23
323.093	6.43
323.461	6.4
323.829	6.62
324.197	6.68
324.565	6.76
324.933	6.85
325.301	6.97
325.669	7.18
326.037	7.05
326.405	7.32
326.772	7.54
327.14	7.71
327.508	7.94
327.875	7.94
328.243	8.03
328.61	8.16
328.978	8.3
329.346	8.18
329.713	8.18
330.08	8.2
330.448	8.21
330.815	8.11
331.182	8.14
331.55	8.01
331.917	8.08
332.284	8.13
332.651	8.11
333.018	8.15
333.385	8.18
333.752	8.32
334.119	8.26
334.486	8.17
334.853	8.18
335.22	8.02
335.587	8.16
335.954	8.15
336.32	7.93
336.687	7.95
337.054	8.05
337.42	8.29
337.787	8.33
338.153	8.32
338.52	8.34
338.886	8.38
339.253	8.38
339.619	8.39
339.986	8.35
340.352	8.38
340.718	8.38
341.084	8.34
341.451	8.46
341.817	8.51
342.183	8.5
342.549	8.49
342.915	8.68
343.281	8.7
343.647	8.67
344.013	8.78
344.379	8.73
344.745	8.79
345.11	8.63
345.476	8.63
345.842	8.66
346.208	8.68
346.573	8.72
346.939	8.9
347.304	8.97
347.67	8.83
348.035	8.81
348.401	8.73
348.766	8.8
349.132	8.84
349.497	8.68
349.862	8.73
350.228	8.73
350.593	8.68
350.958	8.57
351.323	8.72
351.688	8.73
352.053	8.72
352.418	8.72
352.783	8.81
353.148	8.81
353.513	8.82
353.878	8.84
354.243	8.93
354.608	8.86
354.972	8.77
355.337	8.94
355.702	8.95
356.066	9.01
356.431	8.95
356.795	8.88
357.16	8.97
357.524	8.87
357.889	8.83
358.253	8.81
358.618	8.75
358.982	8.65
359.346	8.61
359.71	8.58
360.075	8.6
360.439	8.61
360.803	8.6
361.167	8.54
361.531	8.49
361.895	8.39
362.259	8.31
362.623	8.31
362.987	8.31
363.351	8.26
363.714	8.21
364.078	8.15
364.442	8.12
364.806	8.02
365.169	8.05
365.533	8
365.896	7.92
366.26	7.96
366.623	7.9
366.987	7.88
367.35	7.88
367.714	7.8
368.077	7.67
368.44	7.54
368.803	7.43
369.167	7.35
369.53	7.34
369.893	7.4
370.256	7.37
370.619	7.24
370.982	7.14
371.345	7.09
371.708	7.02
372.071	6.98
372.434	6.92
372.797	6.87
373.159	6.83
373.522	6.78
373.885	6.78
374.247	6.75
374.61	6.69
374.973	6.64
375.335	6.52
375.698	6.52
376.06	6.54
376.423	6.49
376.785	6.47
377.147	6.44
377.51	6.35
377.872	6.32
378.234	6.27
378.596	6.29
378.958	6.25
379.321	6.28
379.683	6.23
380.045	6.24
380.407	6.23
380.769	6.21
381.13	6.15
381.492	6.07
381.854	5.99
382.216	5.98
382.578	5.95
382.939	5.88
383.301	5.81
383.663	5.73
384.024	5.72
384.386	5.71
384.747	5.68
385.109	5.65
385.47	5.55
385.832	5.55
386.193	5.49
386.554	5.41
386.916	5.35
387.277	5.31
387.638	5.29
387.999	5.2
388.36	5.16
388.721	5.13
389.082	5.09
389.443	5.05
389.804	5.01
390.165	4.92
390.526	4.93
390.887	4.9
391.248	4.9
391.609	4.9
391.969	4.82
392.33	4.78
392.691	4.72
393.051	4.68
393.412	4.62
393.772	4.59
394.133	4.6
394.493	4.58
394.854	4.54
395.214	4.47
395.574	4.46
395.935	4.43
396.295	4.45
396.655	4.41
397.015	4.41
397.376	4.38
397.736	4.41
398.096	4.4
398.456	4.36
398.816	4.32
399.176	4.25
399.535	4.26
399.895	4.19
400.255	4.18
400.615	4.14
400.975	4.1
401.334	4.04
401.694	3.99
402.054	3.94
402.413	3.93
402.773	3.9
403.132	3.86
403.492	3.81
403.851	3.77
404.211	3.76
404.57	3.72
404.929	3.69
405.288	3.64
405.648	3.59
406.007	3.59
406.366	3.58
406.725	3.59
407.084	3.58
407.443	3.56
407.802	3.56
408.161	3.56
408.52	3.56
408.879	3.55
409.238	3.56
409.596	3.56
409.955	3.51
410.314	3.53
410.673	3.53
411.031	3.54
411.39	3.5
411.748	3.47
412.107	3.46
412.465	3.45
412.824	3.45
413.182	3.41
413.54	3.4
413.899	3.37
414.257	3.35
414.615	3.33
414.974	3.32
415.332	3.28
415.69	3.23
416.048	3.2
416.406	3.2
416.764	3.17
417.122	3.16
417.48	3.15
417.838	3.12
418.195	3.09
418.553	3.08
418.911	3.05
419.269	3.04
419.626	3.03
419.984	3.01
420.342	3
420.699	3
421.057	2.99
421.414	2.96
421.772	2.94
422.129	2.91
422.486	2.9
422.844	2.88
423.201	2.88
423.558	2.89
423.915	2.88
424.273	2.87
424.63	2.85
424.987	2.82
425.344	2.83
425.701	2.81
426.058	2.8
426.415	2.79
426.772	2.77
427.128	2.76
427.485	2.75
427.842	2.74
428.199	2.75
428.555	2.72
428.912	2.73
429.269	2.74
429.625	2.74
429.982	2.75
430.338	2.75
430.695	2.77
431.051	2.76
431.407	2.74
431.764	2.73
432.12	2.72
432.476	2.74
432.832	2.72
433.189	2.73
433.545	2.72
433.901	2.7
434.257	2.7
434.613	2.71
434.969	2.72
435.325	2.71
435.681	2.7
436.036	2.73
436.392	2.75
436.748	2.74
437.104	2.74
437.459	2.72
437.815	2.73
438.171	2.72
438.526	2.73
438.882	2.74
439.237	2.74
439.593	2.75
439.948	2.74
440.304	2.73
440.659	2.74
441.014	2.77
441.369	2.8
441.725	2.79
442.08	2.78
442.435	2.76
442.79	2.76
443.145	2.74
443.5	2.71
443.855	2.68
444.21	2.66
444.565	2.66
444.92	2.67
445.275	2.65
445.629	2.65
445.984	2.64
446.339	2.63
446.693	2.62
447.048	2.61
447.403	2.61
447.757	2.59
448.112	2.57
448.466	2.54
448.82	2.51
449.175	2.52
449.529	2.51
449.883	2.5
450.238	2.51
450.592	2.52
450.946	2.52
451.3	2.54
451.654	2.56
452.008	2.55
452.362	2.52
452.716	2.53
453.07	2.52
453.424	2.51
453.778	2.5
454.132	2.49
454.486	2.5
454.839	2.5
455.193	2.51
455.547	2.51
455.9	2.53
456.254	2.55
456.607	2.53
456.961	2.54
457.314	2.54
457.668	2.55
458.021	2.53
458.375	2.54
458.728	2.54
459.081	2.53
459.434	2.53
459.787	2.54
460.141	2.54
460.494	2.55
460.847	2.55
461.2	2.57
461.553	2.59
461.906	2.59
462.259	2.59
462.611	2.6
462.964	2.62
463.317	2.62
463.67	2.61
464.022	2.63
464.375	2.64
464.728	2.64
465.08	2.64
465.433	2.66
465.785	2.66
466.138	2.67
466.49	2.67
466.843	2.66
467.195	2.69
467.547	2.71
467.899	2.71
468.252	2.72
468.604	2.73
468.956	2.71
469.308	2.71
469.66	2.72
470.012	2.73
470.364	2.72
470.716	2.73
471.068	2.74
471.42	2.74
471.772	2.76
472.123	2.77
472.475	2.76
472.827	2.77
473.178	2.78
473.53	2.78
473.882	2.78
474.233	2.79
474.585	2.76
474.936	2.75
475.288	2.75
475.639	2.75
475.99	2.72
476.342	2.73
476.693	2.74
477.044	2.75
477.395	2.74
477.746	2.73
478.097	2.72
478.448	2.74
478.8	2.74
479.15	2.73
479.501	2.7
479.852	2.7
480.203	2.7
480.554	2.68
480.905	2.69
481.255	2.7
481.606	2.7
481.957	2.69
482.307	2.69
482.658	2.69
483.009	2.69
483.359	2.7
483.709	2.7
484.06	2.7
484.41	2.7
484.761	2.7
485.111	2.69
485.461	2.71
485.811	2.71
486.162	2.71
486.512	2.72
486.862	2.73
487.212	2.73
487.562	2.74
487.912	2.74
488.262	2.75
488.612	2.75
488.961	2.75
489.311	2.78
489.661	2.78
490.011	2.79
490.36	2.78
490.71	2.79
491.06	2.8
491.409	2.8
491.759	2.8
492.108	2.82
492.458	2.83
492.807	2.82
493.157	2.84
493.506	2.85
493.855	2.86
494.204	2.86
494.554	2.89
494.903	2.9
495.252	2.91
495.601	2.93
495.95	2.96
496.299	2.98
496.648	2.98
496.997	3.02
497.346	3.06
497.695	3.11
498.043	3.13
498.392	3.15
498.741	3.18
499.09	3.2
499.438	3.24
499.787	3.29
500.135	3.34
500.484	3.37
500.832	3.39
501.181	3.43
501.529	3.47
501.878	3.5
502.226	3.54
502.574	3.61
502.923	3.63
503.271	3.66
503.619	3.69
503.967	3.75
504.315	3.78
504.663	3.81
505.011	3.84
505.359	3.89
505.707	3.95
506.055	4.01
506.403	4.08
506.751	4.13
507.098	4.19
507.446	4.25
507.794	4.3
508.141	4.37
508.489	4.43
508.837	4.51
509.184	4.56
509.531	4.61
509.879	4.67
510.226	4.73
510.574	4.79
510.921	4.85
511.268	4.93
511.616	4.99
511.963	5.06
512.31	5.13
512.657	5.2
513.004	5.29
513.351	5.36
513.698	5.45
514.045	5.52
514.392	5.61
514.739	5.68
515.086	5.76
515.432	5.82
515.779	5.89
516.126	5.96
516.473	6.04
516.819	6.13
517.166	6.19
517.512	6.27
517.859	6.36
518.205	6.44
518.552	6.52
518.898	6.62
519.245	6.68
519.591	6.75
519.937	6.82
520.283	6.89
520.629	6.99
520.976	7.08
521.322	7.19
521.668	7.27
522.014	7.4
522.36	7.53
522.706	7.69
523.052	7.84
523.398	8.01
523.743	8.19
524.089	8.37
524.435	8.55
524.781	8.7
525.126	8.86
525.472	9
525.817	9.11
526.163	9.22
526.509	9.36
526.854	9.49
527.199	9.58
527.545	9.71
527.89	9.81
528.235	9.92
528.581	10.02
528.926	10.13
529.271	10.25
529.616	10.37
529.961	10.48
530.306	10.61
530.651	10.74
530.996	10.87
531.341	11
531.686	11.14
532.031	11.32
532.376	11.46
532.721	11.63
533.065	11.8
533.41	11.99
533.755	12.16
534.099	12.35
534.444	12.56
534.788	12.74
535.133	12.94
535.477	13.14
535.822	13.34
536.166	13.58
536.51	13.83
536.855	14.07
537.199	14.33
537.543	14.6
537.887	14.88
538.231	15.16
538.576	15.45
538.92	15.73
539.264	15.97
539.608	16.23
539.951	16.52
540.295	16.74
540.639	16.96
540.983	17.16
541.327	17.38
541.671	17.61
542.014	17.83
542.358	18.06
542.701	18.27
543.045	18.51
543.389	18.76
543.732	18.99
544.075	19.22
544.419	19.48
544.762	19.72
545.105	19.96
545.449	20.22
545.792	20.49
546.135	20.79
546.478	21.12
546.821	21.48
547.165	21.73
547.508	22.09
547.851	22.4
548.194	22.75
548.536	23.05
548.879	23.44
549.222	23.75
549.565	24.11
549.908	24.49
550.25	24.84
550.593	25.16
550.936	25.46
551.278	25.81
551.621	26.16
551.963	26.5
552.306	26.8
552.648	27.14
552.991	27.49
553.333	27.8
553.675	28.06
554.017	28.32
554.36	28.66
554.702	28.93
555.044	29.29
555.386	29.65
555.728	30.03
556.07	30.27
556.412	30.6
556.754	30.88
557.096	31.14
557.438	31.36
557.78	31.67
558.121	32
558.463	32.34
558.805	32.63
559.147	32.92
559.488	33.2
559.83	33.51
560.171	33.83
560.513	34.14
560.854	34.41
561.196	34.67
561.537	34.94
561.878	35.21
562.22	35.46
562.561	35.69
562.902	35.94
563.243	36.21
563.584	36.44
563.925	36.69
564.266	36.98
564.607	37.26
564.948	37.46
565.289	37.69
565.63	37.91
565.971	38.13
566.312	38.35
566.653	38.6
566.993	38.77
567.334	38.89
567.675	39.08
568.015	39.29
568.356	39.48
568.696	39.72
569.037	39.89
569.377	40.11
569.718	40.29
570.058	40.45
570.398	40.61
570.739	40.84
571.079	41.04
571.419	41.18
571.759	41.35
572.099	41.51
572.439	41.64
572.779	41.77
573.119	41.93
573.459	42.11
573.799	42.22
574.139	42.38
574.479	42.57
574.819	42.67
575.158	42.78
575.498	42.96
575.838	43.06
576.177	43.21
576.517	43.37
576.856	43.55
577.196	43.72
577.535	43.99
577.875	44.1
578.214	44.2
578.553	44.4
578.893	44.58
579.232	44.78
579.571	45.01
579.91	45.23
580.25	45.34
580.589	45.48
580.928	45.73
581.267	45.86
581.606	46
581.945	46.17
582.283	46.41
582.622	46.5
582.961	46.67
583.3	46.81
583.639	46.87
583.977	46.97
584.316	47.09
584.654	47.14
584.993	47.22
585.332	47.41
585.67	47.59
586.008	47.7
586.347	47.77
586.685	47.82
587.024	47.95
587.362	48.07
587.7	48.11
588.038	48.12
588.376	48.22
588.715	48.3
589.053	48.47
589.391	48.56
589.729	48.64
590.067	48.67
590.404	48.77
590.742	48.91
591.08	48.97
591.418	49.04
591.756	49.06
592.093	49.19
592.431	49.2
592.769	49.22
593.106	49.27
593.444	49.37
593.781	49.48
594.119	49.5
594.456	49.58
594.793	49.67
595.131	49.75
595.468	49.81
595.805	49.88
596.143	49.87
596.48	49.95
596.817	50.05
597.154	50.12
597.491	50.21
597.828	50.27
598.165	50.39
598.502	50.42
598.839	50.52
599.176	50.54
599.512	50.64
599.849	50.72
600.186	50.74
600.523	50.78
600.859	50.76
601.196	50.76
601.532	50.8
601.869	50.82
602.205	50.95
602.542	51.02
602.878	51
603.215	51.03
603.551	51.01
603.887	51.01
604.223	51.02
604.56	51.03
604.896	50.98
605.232	51
605.568	51.02
605.904	51.04
606.24	51.1
606.576	51.12
606.912	51.11
607.248	51.18
607.583	51.18
607.919	51.31
608.255	51.41
608.591	51.43
608.926	51.55
609.262	51.55
609.597	51.59
609.933	51.7
610.268	51.81
610.604	51.84
610.939	51.95
611.275	52.05
611.61	52.11
611.945	52.26
612.281	52.38
612.616	52.42
612.951	52.54
613.286	52.65
613.621	52.77
613.956	52.86
614.291	52.95
614.626	53.01
614.961	53.03
615.296	53.06
615.631	53.26
615.966	53.28
616.3	53.38
616.635	53.45
616.97	53.47
617.304	53.52
617.639	53.58
617.973	53.56
618.308	53.6
618.642	53.6
618.977	53.61
619.311	53.58
619.646	53.61
619.98	53.63
620.314	53.72
620.648	53.71
620.983	53.77
621.317	53.77
621.651	53.86
621.985	53.82
622.319	53.94
622.653	53.88
622.987	53.95
623.321	53.96
623.655	53.96
623.988	53.92
624.322	53.92
624.656	54
624.99	54.04
625.323	54.13
625.657	54.14
625.99	54.16
626.324	54.17
626.657	54.26
626.991	54.35
627.324	54.31
627.658	54.34
627.991	54.4
628.324	54.49
628.657	54.53
628.991	54.61
629.324	54.65
629.657	54.72
629.99	54.76
630.323	54.76
630.656	54.76
630.989	54.93
631.322	54.95
631.655	54.95
631.987	54.94
632.32	54.86
632.653	54.82
632.986	54.8
633.318	54.78
633.651	54.78
633.984	54.7
634.316	54.69
634.649	54.69
634.981	54.63
635.313	54.55
635.646	54.66
635.978	54.68
636.31	54.71
636.643	54.63
636.975	54.64
637.307	54.71
637.639	54.8
637.971	54.78
638.303	54.76
638.635	54.79
638.967	54.85
639.299	54.94
639.631	55.04
639.963	55.16
640.295	55.34
640.626	55.38
640.958	55.46
641.29	55.48
641.621	55.61
641.953	55.68
642.285	55.83
642.616	55.74
642.948	55.8
643.279	55.77
643.61	55.93
643.942	55.88
644.273	55.81
644.604	55.81
644.936	55.72
645.267	55.83
645.598	55.85
645.929	55.78
646.26	55.78
646.591	55.78
646.922	55.75
647.253	55.76
647.584	55.73
647.915	55.68
648.245	55.67
648.576	55.61
648.907	55.62
649.238	55.54
649.568	55.48
649.899	55.42
650.229	55.44
650.56	55.42
650.89	55.44
651.221	55.53
651.551	55.45
651.882	55.54
652.212	55.51
652.542	55.46
652.872	55.52
653.203	55.5
653.533	55.55
653.863	55.59
654.193	55.54
654.523	55.68
654.853	55.68
655.183	55.66
655.513	55.62
655.843	55.58
656.172	55.64
656.502	55.75
656.832	55.69
657.162	55.71
657.491	55.78
657.821	55.8
658.15	55.78
658.48	55.92
658.809	56.03
659.139	56.02
659.468	56.03
659.798	56.16
660.127	56.17
660.456	56.18
660.785	56.15
661.115	56.17
661.444	56.09
661.773	56.16
662.102	56.29
662.431	56.35
662.76	56.38
663.089	56.42
663.418	56.43
663.747	56.58
664.076	56.52
664.404	56.35
664.733	56.38
665.062	56.27
665.39	56.3
665.719	56.21
666.048	56.15
666.376	56.15
666.705	56.18
667.033	56.19
667.362	56.21
667.69	56.25
668.018	56.11
668.347	56.17
668.675	56.18
669.003	56.23
669.331	56.27
669.659	56.3
669.987	56.27
670.315	56.31
670.643	56.19
670.971	56.24
671.299	56.39
671.627	56.5
671.955	56.68
672.283	56.62
672.61	56.69
672.938	56.68
673.266	56.67
673.593	56.58
673.921	56.54
674.249	56.52
674.576	56.36
674.904	56.33
675.231	56.17
675.558	56.01
675.886	55.84
676.213	55.88
676.54	55.9
676.867	55.89
677.195	55.8
677.522	55.88
677.849	55.87
678.176	55.87
678.503	55.8
678.83	55.64
679.157	55.57
679.484	55.54
679.81	55.63
680.137	55.76
680.464	55.78
680.791	55.88
681.117	55.74
681.444	55.85
681.771	55.84
682.097	55.91
682.424	55.99
682.75	56.03
683.077	55.83
683.403	55.8
683.729	55.8
684.056	55.84
684.382	55.87
684.708	55.78
685.034	55.69
685.36	55.59
685.686	55.45
686.012	55.42
686.339	55.39
686.664	55.34
686.99	55.19
687.316	55.16
687.642	55.14
687.968	55.4
688.294	55.39
688.619	55.51
688.945	55.53
689.271	55.4
689.596	55.48
689.922	55.57
690.247	55.49
690.573	55.56
690.898	55.49
691.224	55.59
691.549	55.58
691.874	55.58
692.2	55.57
692.525	55.95
692.85	56.08
693.175	56.06
693.5	55.96
693.825	55.97
694.15	55.66
694.475	55.67
694.8	55.54
695.125	55.57
695.45	55.55
695.775	55.63
696.099	55.69
696.424	55.5
696.749	55.48
697.073	55.63
697.398	55.57
697.723	55.64
698.047	55.58
698.372	55.55
698.696	55.58
699.02	55.61
699.345	55.46
699.669	55.36
699.993	55.44
700.318	55.64
700.642	55.49
700.966	55.67
701.29	55.73
701.614	55.87
701.938	55.79
702.262	55.96
702.586	55.96
702.91	56.03
703.234	56.16
703.557	56.35
703.881	56.32
704.205	56.43
704.529	56.43
704.852	56.46
705.176	56.57
705.499	56.59
705.823	56.52
706.146	56.61
706.47	56.69
706.793	56.65
707.117	56.59
707.44	56.85
707.763	56.99
708.086	56.82
708.409	56.73
708.733	56.86
709.056	56.67
709.379	56.61
709.702	56.59
710.025	56.61
710.348	56.44
710.671	56.39
710.993	56.35
711.316	56.19
711.639	55.99
711.962	56.13
712.284	55.89
712.607	56.04
712.93	56.02
713.252	56.09
713.575	55.94
713.897	55.78
714.22	55.77
714.542	55.83
714.864	55.79
715.187	55.73
715.509	55.73
715.831	55.82
716.153	55.87
716.475	56.04
716.798	56.22
717.12	56.14
717.442	56.08
717.764	56.12
718.085	56.24
718.407	56.41
718.729	56.18
719.051	56.59
719.373	56.52
719.695	56.53
720.016	56.64
720.338	56.72
720.659	56.99
720.981	56.97
721.302	56.84
721.624	57.03
721.945	56.86
722.267	56.93
722.588	56.59
722.909	56.47
723.231	56.38
723.552	56.03
723.873	56.11
724.194	56.33
724.515	56.26
724.836	56.14
725.157	56.01
725.478	56.2
725.799	56.11
726.12	56.04
726.441	56.08
726.762	55.91
727.083	55.93
727.403	55.69
727.724	55.76
728.045	55.71
728.365	55.84
728.686	55.97
729.006	55.94
729.327	56.01
729.647	56.11
729.967	55.94
730.288	56.11
730.608	56.19
730.928	56.16
731.249	56.19
731.569	56.21
731.889	56.37
732.209	56.46
732.529	56.41
732.849	56.47
733.169	56.36
733.489	56.36
733.809	56.25
734.129	56.3
734.448	56.37
734.768	56.31
735.088	56.14
735.408	56.24
735.727	56.36
736.047	56.57
736.366	56.42
736.686	56.63
737.005	56.54
737.325	56.5
737.644	56.48
737.963	56.33
738.283	56.47
738.602	56.36
738.921	56.33
739.24	56.22
739.56	56.15
739.879	56.26
740.198	56.31
740.517	56.24
740.836	56.3
741.155	56.12
741.473	56.11
741.792	56.13
742.111	56.01
742.43	55.69
742.748	55.6
743.067	55.71
743.386	55.71
743.704	55.56
744.023	55.79
744.341	55.73
744.66	56.03
744.978	55.97
745.297	56.26
745.615	56.03
745.933	56.13
746.252	56.41
746.57	56.46
746.888	56.4
747.206	56.53
747.524	56.42
747.842	56.6
748.16	56.71
748.478	56.88
748.796	56.77
749.114	56.96
749.432	56.76
749.749	56.74
750.067	56.7
750.385	56.79
750.703	56.46
751.02	56.29
751.338	56.27
751.655	56.38
751.973	56.03
752.29	55.97
752.608	55.84
752.925	55.91
753.242	55.68
753.56	55.76
753.877	55.88
754.194	55.99
754.511	55.74
754.828	55.61
755.145	55.35
755.462	55.36
755.779	55.38
756.096	56.09
756.413	55.95
756.73	55.74
757.047	55.7
757.364	56.01
757.68	56.05
757.997	55.69
758.314	55.33
758.63	55.3
758.947	55.57
759.264	55.38
759.58	55.02
759.896	55.11
760.213	54.81
760.529	54.86
760.846	54.42
761.162	54.41
761.478	54.68
761.794	54.58
762.11	54.68
762.426	54.61
762.743	54.19
763.059	54.21
763.375	54.45
763.69	54.64
764.006	54.46
764.322	54.46
764.638	54.6
764.954	54.79
765.27	54.88
765.585	54.54
765.901	54.7
766.216	54.87
766.532	54.88
766.848	54.95
767.163	54.76
767.478	55.39
767.794	55.62
768.109	55.41
768.424	55.54
768.74	55.55
769.055	55.69
769.37	56.09
769.685	56.44
770	56.51
770.315	56.24
770.63	56.49
770.945	56.49
771.26	56.41
771.575	56.52
771.89	56.21
772.205	56.4
772.52	56.54
772.834	56.44
773.149	56.39
773.464	56.65
773.778	56.92
774.093	56.38
774.407	56.14
774.722	56.5
775.036	56.31
775.351	56.46
775.665	56.05
775.979	55.75
776.293	55.05
776.608	54.65
776.922	54.59
777.236	54.53
777.55	54.37
777.864	54.3
778.178	54.35
778.492	54.9
778.806	55.26
779.12	55.1
779.434	54.86
779.747	54.8
780.061	55.04
780.375	55.07
780.689	55.2
781.002	55.67
781.316	55.42
781.629	55.85
781.943	55.39
782.256	55.58
782.57	55.2
782.883	56.09
783.196	56.02
783.51	56.03
783.823	55.9
784.136	56.07
784.449	56.27
784.762	55.9
785.075	55.61
785.388	55.25
785.701	55.27
786.014	55.34
786.327	55.73
786.64	55.51
786.953	55.55
787.266	55.49
787.578	55.04
787.891	55.29
788.204	54.85
788.516	55.31
788.829	55.37
789.141	55.88
789.454	55.44
789.766	55.61
790.079	56.01
790.391	56.05
790.703	56.41
791.016	56.39
791.328	56.8
791.64	56.87
791.952	56.7
792.264	56.82
792.576	56.89
792.888	56.77
793.2	56.2
793.512	56.11
793.824	56.16
794.136	56.53
794.448	56.52
794.76	56.69
795.071	57.31
795.383	57.14
795.695	56.59
796.006	56.05
796.318	56.26
796.629	56.12
796.941	56.18
797.252	55.95
797.564	55.79
797.875	55.71
798.186	55.72
798.497	55.66
798.809	55.62
799.12	55.78
799.431	55.43
799.742	55.91
800.053	55.86
800.364	55.98
800.675	55.12
800.986	54.65
801.297	54.42
801.608	53.33
801.918	54.05
802.229	54.45
802.54	54.68
802.851	54.49
803.161	54.31
803.472	54.17
803.782	53.79
804.093	54.64
804.403	54.13
804.714	54.49
805.024	55.17
805.334	54.83
805.645	54.84
805.955	54.9
806.265	55.16
806.575	55.4
806.885	55.21
807.195	55.77
807.505	55.48
807.815	55.65
808.125	56
808.435	55
808.745	54.9
809.055	55.42
809.365	55.6
809.674	55.55
809.984	55.89
810.294	56.35
810.603	55.46
810.913	56.16
811.222	55.52
811.532	54.73
811.841	55.14
812.151	54.96
812.46	55.04
812.769	54.45
813.079	54.64
813.388	55.13
813.697	55.14
814.006	55.59
814.315	55.5
814.624	55.76
814.933	56.13
815.242	56.41
815.551	55.83
815.86	55.54
816.169	55.57
816.478	55.41
816.786	55.82
817.095	55.82
817.404	55.28
817.712	54.97
818.021	55.75
818.33	55.29
818.638	55.3
818.947	55.08
819.255	54.96
819.563	54.31
819.872	53.99
820.18	54.15
820.488	53.94
820.796	54.01
821.105	54.22
821.413	54.51
821.721	54.41
822.029	54.78
822.337	54.62
822.645	54.59
822.953	54.73
823.26	54.7
823.568	54.52
823.876	54.57
824.184	54.64
824.491	54.66
824.799	54.87
825.107	54.96
825.414	55.1
825.722	55.26
826.029	55.45
826.337	55.56
826.644	55.51
826.951	55.63
827.259	55.65
827.566	55.52
827.873	55.06
828.18	55.05
828.488	54.75
828.795	55.06
829.102	55.32
829.409	54.99
829.716	54.72
830.023	55.51
830.329	55.66
830.636	55.67
830.943	55.4
831.25	55.39
831.557	55.17
831.863	55.18
832.17	55.15
832.476	55.22
832.783	55.69
833.089	55.83
833.396	56.11
833.702	55.92
834.009	56.41
834.315	56.84
834.621	57.16
834.928	57.29
835.234	57
835.54	56.81
835.846	56.84
836.152	56.94
836.458	56.04
836.764	55.46
837.07	55.48
837.376	56.04
837.682	55.64
837.988	55.68
838.293	54.86
838.599	54.32
838.905	54.41
839.211	53.58
839.516	53.84
839.822	53.23
840.127	53.84
840.433	52.51
840.738	52.64
841.044	51.12
841.349	51.28
841.654	51.63
841.959	51.99
842.265	51.87
842.57	51.52
842.875	52.16
843.18	52.79
843.485	52.61
843.79	52.92
844.095	52.26
844.4	52.19
844.705	53.42
845.01	53.05
845.315	52.63
845.619	51.64
845.924	51.49
846.229	52.12
846.533	52.62
846.838	53.88
847.142	53.43
847.447	53.49
847.751	53.2
848.056	51.64
848.36	50.59
848.664	51.14
848.969	51.17
849.273	50.55
849.577	51.09
849.881	53.23
850.185	51.32
850.489	53.45
850.794	51.54
851.097	53.03
851.401	52.8
851.705	52.56
852.009	54.52
852.313	52.43
852.617	50.83
852.92	51.5
853.224	50.79
853.528	52.82
853.831	53.62
854.135	52.26
854.438	52.07
854.742	52.04
855.045	51.09
855.349	52.08
855.652	52.85
855.955	52.06
856.259	51.43
856.562	50.7
856.865	49.89
857.168	52.38
857.471	50.02
857.774	50.15
858.077	50.95
858.38	52.38
858.683	51.85
858.986	55.02
859.289	54.45
859.592	52.79
859.894	52.32
860.197	52.16
860.5	53.51
860.802	55.73
861.105	55.08
861.407	54.85
861.71	53.65
862.012	51.37
862.315	52.67
862.617	50.53
862.919	51.17
863.222	51.09
863.524	50.72
863.826	49.97
864.128	51.05
864.43	51.14
864.732	49.21
865.034	51.66
865.336	50.41
865.638	52.4
865.94	54.55
866.242	53.78
866.544	56.03
866.846	55.95
867.147	54.55
867.449	55.63
867.751	56.11
868.052	59.1
868.354	58.75
868.655	58.39
868.957	60.13
869.258	58.95
869.56	59.11
869.861	59.09
870.162	60.69
870.463	61.89
870.765	61.66
871.066	61.94
871.367	60.2
871.668	59.74
871.969	55.56
872.27	53.86
872.571	52.95
872.872	50.74
873.173	52.45
873.473	56.35
873.774	56.07
874.075	54.98
874.376	53.64
874.676	56.64
874.977	55.18
875.277	55.27
875.578	55.49
875.878	55.29
876.179	55.34
876.479	54.9
876.78	54.58
877.08	53.65
877.38	53.36
877.68	54.66
877.981	54.9
878.281	56.33
878.581	58.46
