Data from BA57890_Reflection_00009.txt Node
Date: Mon Nov 18 15:06:13 EST 2019
User: vgr7
Spectrometer: USB2G7710
Scans to average: 3
Trigger mode: 4
Integration Time (sec): 2.000000E-2
Electric dark correction enabled: true
Boxcar width: 10
XAxis mode: Wavelengths
Number of Pixels in Spectrum: 2048
>>>>>Begin Spectral Data<<<<<
177.721	36.88
178.105	213.3
178.488	151.62
178.871	122.67
179.254	78.3
179.636	-55.08
180.019	108.35
180.402	85.71
180.785	-1855.22
181.168	42.16
181.55	38.37
181.933	62.16
182.316	140.75
182.698	110.9
183.081	127.03
183.463	278.08
183.846	121.78
184.228	99.22
184.611	103.69
184.993	190.4
185.376	95.49
185.758	93.4
186.14	225.7
186.522	121.79
186.904	104.32
187.287	73.74
187.669	60.81
188.051	108.03
188.433	201.05
188.815	-1416.13
189.197	-115.19
189.579	-376.92
189.961	-578.67
190.342	-3764.86
190.724	-1322.02
191.106	396.19
191.488	242.86
191.869	545.09
192.251	305.08
192.633	2114.08
193.014	222.9
193.396	155.61
193.777	123.99
194.159	107.03
194.54	193.39
194.922	168.54
195.303	251.97
195.684	92.26
196.065	107.08
196.447	69.22
196.828	57.44
197.209	32.94
197.59	43.69
197.971	1.63
198.352	-25.37
198.733	1.41
199.114	68.33
199.495	-314.01
199.876	-50.78
200.257	30.18
200.638	17.92
201.018	32.93
201.399	10.22
201.78	40.76
202.16	33.58
202.541	-86.81
202.922	-137.44
203.302	-139.29
203.683	-225.48
204.063	-142.22
204.444	-106.63
204.824	-61.53
205.204	-41.21
205.585	-56.94
205.965	-62.4
206.345	-88.28
206.725	-77.71
207.106	-126.24
207.486	-436.11
207.866	-1138.34
208.246	1603.5
208.626	-742.32
209.006	-688.68
209.386	417.43
209.766	427.7
210.145	-264.77
210.525	-151.76
210.905	-94.79
211.285	-73.7
211.664	-49.6
212.044	-63.81
212.424	-29.26
212.803	-16.57
213.183	-10.38
213.562	-12.08
213.942	-9.67
214.321	-19.39
214.701	-66.12
215.08	-48.53
215.459	-5.53
215.838	0.51
216.218	2.63
216.597	13.06
216.976	22.88
217.355	35.8
217.734	29.18
218.113	35.71
218.492	40.49
218.871	43.54
219.25	47.09
219.629	35.64
220.008	33.31
220.387	29.49
220.766	23.2
221.144	9.09
221.523	8.86
221.902	2.32
222.28	13.33
222.659	17.96
223.037	15.11
223.416	3.33
223.794	1.69
224.173	-7.41
224.551	-14.52
224.929	-22.8
225.308	-24.45
225.686	-20.25
226.064	-16.93
226.442	-21.91
226.821	-14.93
227.199	-13.96
227.577	-13.74
227.955	-15.56
228.333	-14.38
228.711	-10.91
229.089	-5.96
229.467	-5.37
229.845	-3.1
230.222	-2.33
230.6	-2.55
230.978	0.26
231.356	2.49
231.733	3.49
232.111	4.47
232.488	5.82
232.866	6.14
233.243	7.39
233.621	7.08
233.998	7.59
234.376	7.55
234.753	7.1
235.13	8.43
235.508	10.28
235.885	12.06
236.262	10.81
236.639	9.69
237.016	8.22
237.393	8.74
237.77	8.22
238.147	6.78
238.524	6.65
238.901	5.97
239.278	5.44
239.655	5.66
240.032	5.72
240.409	4.55
240.785	5.07
241.162	4.94
241.539	4.85
241.915	4.77
242.292	4.88
242.668	4.88
243.045	4.43
243.421	4.31
243.798	3.95
244.174	3.87
244.551	3.68
244.927	3.97
245.303	3.95
245.679	3.96
246.056	3.99
246.432	3.99
246.808	4.05
247.184	3.89
247.56	3.69
247.936	3.81
248.312	4.09
248.688	4
249.064	3.95
249.44	4
249.815	3.75
250.191	3.95
250.567	3.88
250.943	3.95
251.318	4.11
251.694	4.16
252.069	4.14
252.445	4.5
252.82	4.33
253.196	4.32
253.571	4.28
253.947	4.41
254.322	4.6
254.697	4.24
255.073	4.21
255.448	4
255.823	3.79
256.198	3.77
256.573	3.73
256.948	3.76
257.323	3.76
257.698	3.81
258.073	3.65
258.448	3.65
258.823	3.73
259.198	3.57
259.573	3.52
259.948	3.67
260.322	3.69
260.697	3.7
261.072	3.74
261.446	3.68
261.821	3.65
262.195	3.64
262.57	3.62
262.944	3.58
263.319	3.62
263.693	3.5
264.067	3.57
264.442	3.67
264.816	3.68
265.19	3.54
265.564	3.48
265.938	3.37
266.313	3.3
266.687	3.23
267.061	3.33
267.435	3.4
267.809	3.3
268.183	3.11
268.556	3.03
268.93	3.06
269.304	3.11
269.678	3.19
270.051	3.23
270.425	3.19
270.799	3.26
271.172	3.39
271.546	3.57
271.919	3.4
272.293	3.24
272.666	3.24
273.04	3.24
273.413	3.37
273.787	3.37
274.16	3.48
274.533	3.37
274.906	3.3
275.279	3.35
275.653	3.27
276.026	3.35
276.399	3.3
276.772	3.32
277.145	3.27
277.518	3.33
277.891	3.27
278.263	3.45
278.636	3.44
279.009	3.56
279.382	3.52
279.755	3.5
280.127	3.69
280.5	3.74
280.872	4.03
281.245	4.07
281.617	4.17
281.99	4.12
282.362	4.25
282.735	4.22
283.107	4.19
283.479	4.25
283.852	4.15
284.224	4.2
284.596	4.13
284.968	4.11
285.34	4.05
285.713	4
286.085	3.92
286.457	4.08
286.829	3.93
287.201	3.97
287.572	4.03
287.944	4.04
288.316	4.01
288.688	3.83
289.06	3.76
289.431	3.75
289.803	3.9
290.175	3.97
290.546	4.17
290.918	4.12
291.289	4.2
291.661	4.3
292.032	4.48
292.403	4.53
292.775	4.75
293.146	4.7
293.517	4.7
293.889	4.84
294.26	4.77
294.631	4.85
295.002	4.82
295.373	4.81
295.744	4.78
296.115	4.82
296.486	4.86
296.857	4.93
297.228	5.01
297.599	4.91
297.97	4.9
298.34	4.77
298.711	4.9
299.082	4.95
299.452	4.96
299.823	4.92
300.194	4.93
300.564	4.78
300.935	4.88
301.305	4.93
301.676	5
302.046	5.04
302.416	5.12
302.787	5.09
303.157	5.24
303.527	5.25
303.897	5.32
304.267	5.34
304.637	5.39
305.008	5.38
305.378	5.63
305.748	5.72
306.117	5.79
306.487	5.9
306.857	5.94
307.227	5.99
307.597	5.99
307.967	6.04
308.336	6.31
308.706	6.4
309.076	6.64
309.445	6.56
309.815	6.56
310.184	6.49
310.554	6.66
310.923	6.69
311.293	6.72
311.662	6.7
312.031	6.82
312.401	6.86
312.77	6.99
313.139	6.89
313.508	6.9
313.877	6.84
314.246	6.85
314.616	6.9
314.985	6.93
315.353	7
315.722	7.16
316.091	7.11
316.46	7.11
316.829	7.02
317.198	7.18
317.567	7.21
317.935	7.25
318.304	7.17
318.672	7.26
319.041	7.3
319.41	7.32
319.778	7.32
320.147	7.19
320.515	7.18
320.883	7.23
321.252	7.37
321.62	7.65
321.988	7.77
322.357	7.88
322.725	7.94
323.093	8.05
323.461	8.05
323.829	8.12
324.197	8.16
324.565	8.27
324.933	8.15
325.301	8.26
325.669	8.34
326.037	8.52
326.405	8.48
326.772	8.55
327.14	8.67
327.508	8.74
327.875	8.78
328.243	8.94
328.61	9
328.978	9.07
329.346	9.11
329.713	9.09
330.08	9.03
330.448	8.94
330.815	8.93
331.182	8.95
331.55	9.1
331.917	9.17
332.284	9.25
332.651	9.42
333.018	9.53
333.385	9.56
333.752	9.52
334.119	9.63
334.486	9.67
334.853	9.61
335.22	9.69
335.587	9.83
335.954	9.81
336.32	9.87
336.687	9.77
337.054	9.79
337.42	9.9
337.787	9.99
338.153	10.07
338.52	10.21
338.886	10.15
339.253	10.09
339.619	10.08
339.986	10.02
340.352	10.09
340.718	10.03
341.084	10.06
341.451	10.19
341.817	10.2
342.183	10.21
342.549	10.27
342.915	10.32
343.281	10.43
343.647	10.4
344.013	10.54
344.379	10.59
344.745	10.59
345.11	10.47
345.476	10.43
345.842	10.49
346.208	10.43
346.573	10.47
346.939	10.47
347.304	10.52
347.67	10.56
348.035	10.6
348.401	10.56
348.766	10.59
349.132	10.59
349.497	10.56
349.862	10.64
350.228	10.62
350.593	10.63
350.958	10.55
351.323	10.42
351.688	10.4
352.053	10.45
352.418	10.41
352.783	10.49
353.148	10.44
353.513	10.42
353.878	10.46
354.243	10.56
354.608	10.59
354.972	10.54
355.337	10.47
355.702	10.45
356.066	10.5
356.431	10.46
356.795	10.4
357.16	10.35
357.524	10.24
357.889	10.28
358.253	10.24
358.618	10.24
358.982	10.31
359.346	10.18
359.71	10.08
360.075	10.05
360.439	10.01
360.803	10.06
361.167	10.02
361.531	9.92
361.895	9.87
362.259	9.81
362.623	9.8
362.987	9.83
363.351	9.8
363.714	9.77
364.078	9.73
364.442	9.6
364.806	9.56
365.169	9.61
365.533	9.48
365.896	9.43
366.26	9.4
366.623	9.34
366.987	9.35
367.35	9.33
367.714	9.26
368.077	9.18
368.44	9.1
368.803	9.09
369.167	9.03
369.53	8.98
369.893	8.94
370.256	8.91
370.619	8.81
370.982	8.65
371.345	8.58
371.708	8.57
372.071	8.58
372.434	8.52
372.797	8.39
373.159	8.33
373.522	8.28
373.885	8.24
374.247	8.14
374.61	8.09
374.973	8
375.335	7.89
375.698	7.9
376.06	7.83
376.423	7.78
376.785	7.82
377.147	7.71
377.51	7.65
377.872	7.57
378.234	7.54
378.596	7.51
378.958	7.48
379.321	7.43
379.683	7.36
380.045	7.28
380.407	7.27
380.769	7.32
381.13	7.25
381.492	7.13
381.854	7.18
382.216	7.08
382.578	7.06
382.939	7.06
383.301	6.95
383.663	6.93
384.024	6.85
384.386	6.8
384.747	6.77
385.109	6.72
385.47	6.64
385.832	6.55
386.193	6.55
386.554	6.44
386.916	6.4
387.277	6.41
387.638	6.42
387.999	6.34
388.36	6.27
388.721	6.25
389.082	6.2
389.443	6.12
389.804	6.05
390.165	6.04
390.526	5.95
390.887	5.91
391.248	5.85
391.609	5.83
391.969	5.78
392.33	5.72
392.691	5.67
393.051	5.64
393.412	5.61
393.772	5.52
394.133	5.54
394.493	5.49
394.854	5.42
395.214	5.36
395.574	5.33
395.935	5.26
396.295	5.19
396.655	5.16
397.015	5.1
397.376	5.09
397.736	5.04
398.096	5.06
398.456	5
398.816	4.98
399.176	4.93
399.535	4.86
399.895	4.81
400.255	4.81
400.615	4.81
400.975	4.8
401.334	4.83
401.694	4.74
402.054	4.68
402.413	4.69
402.773	4.66
403.132	4.63
403.492	4.62
403.851	4.61
404.211	4.57
404.57	4.54
404.929	4.54
405.288	4.51
405.648	4.45
406.007	4.47
406.366	4.46
406.725	4.46
407.084	4.49
407.443	4.5
407.802	4.48
408.161	4.46
408.52	4.42
408.879	4.36
409.238	4.35
409.596	4.35
409.955	4.31
410.314	4.31
410.673	4.3
411.031	4.27
411.39	4.25
411.748	4.26
412.107	4.25
412.465	4.21
412.824	4.21
413.182	4.21
413.54	4.19
413.899	4.16
414.257	4.13
414.615	4.08
414.974	4.06
415.332	4.03
415.69	3.99
416.048	3.98
416.406	3.99
416.764	3.99
417.122	3.98
417.48	3.94
417.838	3.93
418.195	3.92
418.553	3.91
418.911	3.89
419.269	3.85
419.626	3.86
419.984	3.84
420.342	3.82
420.699	3.8
421.057	3.79
421.414	3.76
421.772	3.74
422.129	3.73
422.486	3.72
422.844	3.72
423.201	3.7
423.558	3.69
423.915	3.68
424.273	3.66
424.63	3.66
424.987	3.66
425.344	3.64
425.701	3.64
426.058	3.62
426.415	3.61
426.772	3.62
427.128	3.59
427.485	3.59
427.842	3.59
428.199	3.6
428.555	3.59
428.912	3.61
429.269	3.61
429.625	3.61
429.982	3.59
430.338	3.57
430.695	3.58
431.051	3.57
431.407	3.56
431.764	3.55
432.12	3.54
432.476	3.53
432.832	3.51
433.189	3.5
433.545	3.49
433.901	3.48
434.257	3.49
434.613	3.5
434.969	3.5
435.325	3.48
435.681	3.45
436.036	3.44
436.392	3.43
436.748	3.42
437.104	3.41
437.459	3.41
437.815	3.42
438.171	3.43
438.526	3.44
438.882	3.43
439.237	3.45
439.593	3.43
439.948	3.43
440.304	3.43
440.659	3.43
441.014	3.45
441.369	3.44
441.725	3.41
442.08	3.41
442.435	3.41
442.79	3.41
443.145	3.42
443.5	3.41
443.855	3.4
444.21	3.4
444.565	3.4
444.92	3.4
445.275	3.38
445.629	3.35
445.984	3.34
446.339	3.3
446.693	3.29
447.048	3.29
447.403	3.29
447.757	3.27
448.112	3.26
448.466	3.24
448.82	3.26
449.175	3.27
449.529	3.26
449.883	3.25
450.238	3.24
450.592	3.24
450.946	3.24
451.3	3.23
451.654	3.23
452.008	3.2
452.362	3.19
452.716	3.2
453.07	3.21
453.424	3.22
453.778	3.25
454.132	3.24
454.486	3.24
454.839	3.24
455.193	3.24
455.547	3.24
455.9	3.24
456.254	3.24
456.607	3.23
456.961	3.22
457.314	3.22
457.668	3.23
458.021	3.23
458.375	3.21
458.728	3.22
459.081	3.22
459.434	3.23
459.787	3.24
460.141	3.24
460.494	3.24
460.847	3.25
461.2	3.26
461.553	3.25
461.906	3.26
462.259	3.28
462.611	3.29
462.964	3.32
463.317	3.32
463.67	3.33
464.022	3.34
464.375	3.34
464.728	3.36
465.08	3.34
465.433	3.38
465.785	3.4
466.138	3.4
466.49	3.42
466.843	3.43
467.195	3.45
467.547	3.46
467.899	3.48
468.252	3.48
468.604	3.48
468.956	3.5
469.308	3.49
469.66	3.51
470.012	3.52
470.364	3.52
470.716	3.53
471.068	3.51
471.42	3.52
471.772	3.54
472.123	3.54
472.475	3.57
472.827	3.56
473.178	3.57
473.53	3.59
473.882	3.59
474.233	3.58
474.585	3.56
474.936	3.56
475.288	3.56
475.639	3.57
475.99	3.59
476.342	3.57
476.693	3.57
477.044	3.55
477.395	3.55
477.746	3.52
478.097	3.52
478.448	3.51
478.8	3.52
479.15	3.5
479.501	3.5
479.852	3.47
480.203	3.45
480.554	3.45
480.905	3.45
481.255	3.46
481.606	3.47
481.957	3.48
482.307	3.48
482.658	3.48
483.009	3.47
483.359	3.47
483.709	3.49
484.06	3.49
484.41	3.49
484.761	3.49
485.111	3.49
485.461	3.49
485.811	3.51
486.162	3.51
486.512	3.51
486.862	3.51
487.212	3.51
487.562	3.52
487.912	3.52
488.262	3.52
488.612	3.52
488.961	3.52
489.311	3.53
489.661	3.53
490.011	3.54
490.36	3.53
490.71	3.54
491.06	3.54
491.409	3.54
491.759	3.55
492.108	3.57
492.458	3.58
492.807	3.59
493.157	3.59
493.506	3.6
493.855	3.6
494.204	3.63
494.554	3.67
494.903	3.68
495.252	3.7
495.601	3.71
495.95	3.74
496.299	3.76
496.648	3.76
496.997	3.79
497.346	3.81
497.695	3.85
498.043	3.87
498.392	3.9
498.741	3.94
499.09	3.96
499.438	4
499.787	4.03
500.135	4.07
500.484	4.13
500.832	4.19
501.181	4.25
501.529	4.29
501.878	4.33
502.226	4.39
502.574	4.46
502.923	4.55
503.271	4.63
503.619	4.72
503.967	4.81
504.315	4.87
504.663	4.94
505.011	5.03
505.359	5.12
505.707	5.19
506.055	5.26
506.403	5.33
506.751	5.4
507.098	5.48
507.446	5.57
507.794	5.62
508.141	5.72
508.489	5.8
508.837	5.87
509.184	5.99
509.531	6.09
509.879	6.2
510.226	6.27
510.574	6.33
510.921	6.41
511.268	6.48
511.616	6.56
511.963	6.66
512.31	6.76
512.657	6.89
513.004	7.03
513.351	7.17
513.698	7.32
514.045	7.46
514.392	7.59
514.739	7.7
515.086	7.86
515.432	7.98
515.779	8.09
516.126	8.25
516.473	8.38
516.819	8.51
517.166	8.61
517.512	8.74
517.859	8.89
518.205	8.99
518.552	9.13
518.898	9.26
519.245	9.39
519.591	9.52
519.937	9.63
520.283	9.76
520.629	9.9
520.976	10.04
521.322	10.17
521.668	10.34
522.014	10.55
522.36	10.71
522.706	10.92
523.052	11.14
523.398	11.39
523.743	11.62
524.089	11.86
524.435	12.1
524.781	12.35
525.126	12.58
525.472	12.79
525.817	12.97
526.163	13.14
526.509	13.32
526.854	13.46
527.199	13.64
527.545	13.79
527.89	13.94
528.235	14.1
528.581	14.28
528.926	14.45
529.271	14.62
529.616	14.79
529.961	14.96
530.306	15.14
530.651	15.3
530.996	15.47
531.341	15.68
531.686	15.9
532.031	16.09
532.376	16.3
532.721	16.54
533.065	16.79
533.41	17.05
533.755	17.29
534.099	17.58
534.444	17.83
534.788	18.1
535.133	18.39
535.477	18.68
535.822	18.97
536.166	19.29
536.51	19.61
536.855	19.95
537.199	20.31
537.543	20.66
537.887	21.03
538.231	21.42
538.576	21.77
538.92	22.09
539.264	22.46
539.608	22.8
539.951	23.11
540.295	23.41
540.639	23.69
540.983	23.98
541.327	24.24
541.671	24.5
542.014	24.76
542.358	24.99
542.701	25.24
543.045	25.47
543.389	25.73
543.732	25.98
544.075	26.25
544.419	26.53
544.762	26.83
545.105	27.13
545.449	27.41
545.792	27.74
546.135	28.09
546.478	28.4
546.821	28.75
547.165	29.09
547.508	29.44
547.851	29.84
548.194	30.17
548.536	30.5
548.879	30.87
549.222	31.21
549.565	31.58
549.908	31.95
550.25	32.35
550.593	32.7
550.936	33.08
551.278	33.44
551.621	33.77
551.963	34.1
552.306	34.45
552.648	34.76
552.991	35.1
553.333	35.38
553.675	35.7
554.017	36.02
554.36	36.36
554.702	36.64
555.044	36.91
555.386	37.2
555.728	37.56
556.07	37.81
556.412	38.18
556.754	38.46
557.096	38.73
557.438	39.09
557.78	39.37
558.121	39.69
558.463	40
558.805	40.29
559.147	40.6
559.488	40.86
559.83	41.19
560.171	41.49
560.513	41.76
560.854	42.06
561.196	42.25
561.537	42.48
561.878	42.75
562.22	42.97
562.561	43.29
562.902	43.48
563.243	43.71
563.584	43.87
563.925	44.08
564.266	44.29
564.607	44.4
564.948	44.59
565.289	44.74
565.63	44.92
565.971	45.13
566.312	45.31
566.653	45.47
566.993	45.65
567.334	45.79
567.675	45.97
568.015	46.12
568.356	46.33
568.696	46.51
569.037	46.64
569.377	46.81
569.718	46.94
570.058	47.06
570.398	47.2
570.739	47.36
571.079	47.49
571.419	47.66
571.759	47.82
572.099	48.03
572.439	48.21
572.779	48.37
573.119	48.45
573.459	48.57
573.799	48.75
574.139	48.87
574.479	49
574.819	49.15
575.158	49.26
575.498	49.34
575.838	49.46
576.177	49.58
576.517	49.71
576.856	49.81
577.196	50.02
577.535	50.21
577.875	50.39
578.214	50.58
578.553	50.76
578.893	50.96
579.232	51.11
579.571	51.21
579.91	51.31
580.25	51.53
580.589	51.69
580.928	51.82
581.267	51.96
581.606	52.07
581.945	52.21
582.283	52.38
582.622	52.51
582.961	52.61
583.3	52.79
583.639	52.91
583.977	53.09
584.316	53.16
584.654	53.23
584.993	53.32
585.332	53.42
585.67	53.41
586.008	53.42
586.347	53.46
586.685	53.59
587.024	53.66
587.362	53.63
587.7	53.73
588.038	53.78
588.376	53.88
588.715	53.97
589.053	54.08
589.391	54.15
589.729	54.3
590.067	54.39
590.404	54.49
590.742	54.59
591.08	54.64
591.418	54.72
591.756	54.82
592.093	54.9
592.431	55
592.769	55.11
593.106	55.18
593.444	55.15
593.781	55.25
594.119	55.39
594.456	55.48
594.793	55.46
595.131	55.48
595.468	55.51
595.805	55.6
596.143	55.64
596.48	55.73
596.817	55.76
597.154	55.75
597.491	55.82
597.828	55.85
598.165	55.86
598.502	55.85
598.839	55.96
599.176	55.97
599.512	55.99
599.849	56.08
600.186	56.19
600.523	56.38
600.859	56.39
601.196	56.39
601.532	56.47
601.869	56.58
602.205	56.66
602.542	56.74
602.878	56.74
603.215	56.74
603.551	56.78
603.887	56.72
604.223	56.78
604.56	56.76
604.896	56.81
605.232	56.93
605.568	56.98
605.904	57.02
606.24	57.12
606.576	57.23
606.912	57.23
607.248	57.29
607.583	57.25
607.919	57.37
608.255	57.49
608.591	57.53
608.926	57.58
609.262	57.65
609.597	57.67
609.933	57.77
610.268	57.85
610.604	57.86
610.939	58.01
611.275	58.07
611.61	58.18
611.945	58.28
612.281	58.31
612.616	58.46
612.951	58.51
613.286	58.55
613.621	58.49
613.956	58.6
614.291	58.57
614.626	58.65
614.961	58.72
615.296	58.74
615.631	58.85
615.966	58.94
616.3	58.94
616.635	59.04
616.97	59.08
617.304	59.13
617.639	59.27
617.973	59.28
618.308	59.4
618.642	59.32
618.977	59.42
619.311	59.47
619.646	59.41
619.98	59.3
620.314	59.33
620.648	59.47
620.983	59.48
621.317	59.61
621.651	59.61
621.985	59.57
622.319	59.56
622.653	59.5
622.987	59.51
623.321	59.55
623.655	59.54
623.988	59.56
624.322	59.54
624.656	59.61
624.99	59.68
625.323	59.68
625.657	59.76
625.99	59.65
626.324	59.71
626.657	59.73
626.991	59.83
627.324	59.87
627.658	59.91
627.991	59.92
628.324	59.91
628.657	59.93
628.991	59.97
629.324	60.09
629.657	60.24
629.99	60.24
630.323	60.32
630.656	60.34
630.989	60.35
631.322	60.41
631.655	60.34
631.987	60.28
632.32	60.32
632.653	60.34
632.986	60.46
633.318	60.45
633.651	60.55
633.984	60.57
634.316	60.59
634.649	60.62
634.981	60.64
635.313	60.72
635.646	60.81
635.978	60.76
636.31	60.78
636.643	60.7
636.975	60.71
637.307	60.73
637.639	60.74
637.971	60.89
638.303	60.99
638.635	60.98
638.967	61.17
639.299	61.12
639.631	61.07
639.963	61.07
640.295	61.15
640.626	61.23
640.958	61.36
641.29	61.38
641.621	61.29
641.953	61.28
642.285	61.19
642.616	61.26
642.948	61.31
643.279	61.26
643.61	61.35
643.942	61.45
644.273	61.48
644.604	61.54
644.936	61.51
645.267	61.49
645.598	61.49
645.929	61.46
646.26	61.62
646.591	61.67
646.922	61.58
647.253	61.5
647.584	61.54
647.915	61.44
648.245	61.51
648.576	61.53
648.907	61.67
649.238	61.74
649.568	61.64
649.899	61.73
650.229	61.78
650.56	61.81
650.89	61.78
651.221	61.84
651.551	61.93
651.882	61.96
652.212	61.99
652.542	62.01
652.872	62.03
653.203	61.96
653.533	61.97
653.863	62.18
654.193	62.12
654.523	62.01
654.853	62.14
655.183	62.05
655.513	62.18
655.843	62.22
656.172	62.41
656.502	62.37
656.832	62.25
657.162	62.25
657.491	62.22
657.821	62.26
658.15	62.16
658.48	62.16
658.809	62.19
659.139	62.18
659.468	62.19
659.798	62.15
660.127	62.21
660.456	62.33
660.785	62.26
661.115	62.39
661.444	62.44
661.773	62.5
662.102	62.57
662.431	62.66
662.76	62.63
663.089	62.48
663.418	62.59
663.747	62.8
664.076	62.91
664.404	62.92
664.733	63
665.062	63
665.39	63
665.719	63.02
666.048	63.06
666.376	63.15
666.705	63.16
667.033	62.94
667.362	62.89
667.69	62.92
668.018	62.95
668.347	63.09
668.675	63.05
669.003	63.03
669.331	62.97
669.659	62.94
669.987	63.06
670.315	63.11
670.643	63
670.971	62.91
671.299	62.93
671.627	62.87
671.955	62.98
672.283	63.03
672.61	62.91
672.938	62.98
673.266	62.92
673.593	63.14
673.921	63.39
674.249	63.41
674.576	63.42
674.904	63.39
675.231	63.34
675.558	63.22
675.886	63.32
676.213	63.25
676.54	63.22
676.867	63.06
677.195	63.11
677.522	63.14
677.849	63.08
678.176	63.07
678.503	63.05
678.83	63.06
679.157	62.96
679.484	63.02
679.81	62.99
680.137	63.08
680.464	62.88
680.791	62.85
681.117	62.81
681.444	62.78
681.771	62.76
682.097	62.66
682.424	62.76
682.75	62.8
683.077	62.75
683.403	62.86
683.729	63.01
684.056	63.04
684.382	62.99
684.708	63.18
685.034	63.2
685.36	63.28
685.686	63.37
686.012	63.44
686.339	63.4
686.664	63.31
686.99	63.36
687.316	63.56
687.642	63.7
687.968	63.62
688.294	63.66
688.619	63.66
688.945	63.67
689.271	63.73
689.596	63.69
689.922	63.84
690.247	63.69
690.573	63.63
690.898	63.69
691.224	63.48
691.549	63.43
691.874	63.36
692.2	63.26
692.525	63.21
692.85	63.19
693.175	63.21
693.5	63.38
693.825	63.4
694.15	63.14
694.475	63.08
694.8	63.28
695.125	63.33
695.45	63.39
695.775	63.49
696.099	63.36
696.424	63.3
696.749	63.3
697.073	63.56
697.398	63.45
697.723	63.38
698.047	63.58
698.372	63.57
698.696	63.62
699.02	63.67
699.345	63.56
699.669	63.73
699.993	63.88
700.318	63.86
700.642	63.79
700.966	63.94
701.29	63.93
701.614	63.85
701.938	63.81
702.262	63.78
702.586	63.77
702.91	63.88
703.234	64.02
703.557	64.08
703.881	63.91
704.205	63.99
704.529	64.02
704.852	64.02
705.176	64.13
705.499	64.26
705.823	64.18
706.146	64.2
706.47	64.23
706.793	64.07
707.117	64.14
707.44	64.27
707.763	64.27
708.086	64.2
708.409	64.22
708.733	64.26
709.056	64.46
709.379	64.59
709.702	64.54
710.025	64.38
710.348	64.31
710.671	64.35
710.993	64.35
711.316	64.2
711.639	64.32
711.962	64.19
712.284	64.19
712.607	64.37
712.93	64.46
713.252	64.15
713.575	64.38
713.897	64.14
714.22	64.03
714.542	64.08
714.864	64.04
715.187	64.28
715.509	64.19
715.831	63.92
716.153	63.87
716.475	63.95
716.798	64.02
717.12	64.11
717.442	64.15
717.764	64.36
718.085	64.7
718.407	64.61
718.729	64.67
719.051	64.67
719.373	64.67
719.695	64.68
720.016	64.82
720.338	64.68
720.659	64.95
720.981	64.87
721.302	64.66
721.624	64.75
721.945	64.61
722.267	64.73
722.588	65.09
722.909	65.02
723.231	64.88
723.552	65.13
723.873	65.02
724.194	64.72
724.515	64.48
724.836	64.23
725.157	64.21
725.478	64.09
725.799	64.07
726.12	64.14
726.441	64.24
726.762	64.43
727.083	64.47
727.403	64.51
727.724	64.68
728.045	64.87
728.365	64.74
728.686	64.67
729.006	64.78
729.327	64.53
729.647	64.76
729.967	64.85
730.288	64.67
730.608	64.61
730.928	64.9
731.249	65.07
731.569	65.27
731.889	65.4
732.209	65.81
732.529	65.92
732.849	65.75
733.169	65.77
733.489	65.5
733.809	65.59
734.129	65.45
734.448	65.34
734.768	65.16
735.088	65.45
735.408	65.3
735.727	65.23
736.047	65.31
736.366	65.16
736.686	65.15
737.005	64.97
737.325	65.06
737.644	64.89
737.963	64.81
738.283	64.5
738.602	64.16
738.921	63.89
739.24	63.75
739.56	63.54
739.879	63.65
740.198	63.98
740.517	63.79
740.836	63.64
741.155	63.95
741.473	64.21
741.792	64.31
742.111	64.48
742.43	64.66
742.748	64.9
743.067	64.96
743.386	64.97
743.704	65.4
744.023	65.44
744.341	65.82
744.66	65.89
744.978	65.66
745.297	65.9
745.615	65.78
745.933	65.94
746.252	65.92
746.57	65.58
746.888	65.36
747.206	65.11
747.524	65.41
747.842	65.06
748.16	65.18
748.478	65.19
748.796	65.25
749.114	65.4
749.432	65.13
749.749	64.98
750.067	64.98
750.385	64.75
750.703	64.79
751.02	64.52
751.338	64.34
751.655	64.66
751.973	64.94
752.29	64.89
752.608	64.62
752.925	65.04
753.242	65.3
753.56	65.27
753.877	65.64
754.194	65.51
754.511	65.66
754.828	65.25
755.145	64.8
755.462	64.86
755.779	64.65
756.096	64.56
756.413	64.38
756.73	64.76
757.047	64.9
757.364	64.74
757.68	64.77
757.997	64.56
758.314	64.67
758.63	64.2
758.947	64.28
759.264	64.35
759.58	64.4
759.896	64.44
760.213	64.67
760.529	64.93
760.846	65
761.162	65.02
761.478	65.09
761.794	65.19
762.11	64.82
762.426	64.35
762.743	64.29
763.059	64.52
763.375	64.23
763.69	64.1
764.006	64.34
764.322	64.17
764.638	64.77
764.954	64.88
765.27	65.19
765.585	65.25
765.901	65.64
766.216	65.69
766.532	65.47
766.848	65.29
767.163	65.3
767.478	65.32
767.794	65.24
768.109	65.48
768.424	65.57
768.74	66.13
769.055	66.76
769.37	66.84
769.685	66.58
770	66.4
770.315	66.95
770.63	66.68
770.945	66.87
771.26	66.6
771.575	66.66
771.89	66.56
772.205	66.73
772.52	66.19
772.834	66.28
773.149	66.33
773.464	66.4
773.778	66.55
774.093	66.56
774.407	66.57
774.722	66.37
775.036	66.7
775.351	66.64
775.665	66.63
775.979	66.84
776.293	66.79
776.608	67.63
776.922	67.24
777.236	67.11
777.55	67.22
777.864	67.42
778.178	67.04
778.492	66.69
778.806	66.52
779.12	66.71
779.434	66.22
779.747	66.22
780.061	66.42
780.375	65.62
780.689	65.64
781.002	65.77
781.316	66.25
781.629	66.05
781.943	66.1
782.256	65.84
782.57	65.93
782.883	66.13
783.196	65.98
783.51	65.48
783.823	66.19
784.136	66.24
784.449	65.69
784.762	65.86
785.075	66.32
785.388	66.32
785.701	66.37
786.014	66.55
786.327	66.89
786.64	66.8
786.953	67.67
787.266	67.3
787.578	66.92
787.891	66.47
788.204	66.08
788.516	66.03
788.829	66
789.141	65.81
789.454	65.99
789.766	65.93
790.079	66.16
790.391	66
790.703	66.07
791.016	66.4
791.328	66.18
791.64	66.34
791.952	66.34
792.264	66.39
792.576	66.65
792.888	66.69
793.2	66.72
793.512	66.46
793.824	66.8
794.136	67.03
794.448	67.72
794.76	68.11
795.071	67.65
795.383	67.87
795.695	67.64
796.006	67.3
796.318	66.73
796.629	66.67
796.941	66.25
797.252	66.21
797.564	66.22
797.875	66.4
798.186	65.73
798.497	65.65
798.809	65.77
799.12	65.34
799.431	65.11
799.742	65.15
800.053	64.68
800.364	64.86
800.675	64.73
800.986	64.25
801.297	64.24
801.608	64.14
801.918	63.74
802.229	64.06
802.54	64.55
802.851	64.53
803.161	64.53
803.472	64.67
803.782	64.69
804.093	65.1
804.403	64.72
804.714	65.82
805.024	65.65
805.334	65.53
805.645	65.67
805.955	66.55
806.265	66.33
806.575	66.16
806.885	65.96
807.195	66.06
807.505	65.64
807.815	66.09
808.125	66.87
808.435	66.94
808.745	67.12
809.055	67.16
809.365	67.34
809.674	67.26
809.984	68.07
810.294	67.99
810.603	67.21
810.913	67.88
811.222	67.2
811.532	67.76
811.841	67.24
812.151	67.79
812.46	67.06
812.769	66.32
813.079	66.85
813.388	66.97
813.697	67.02
814.006	66.48
814.315	66.18
814.624	65.65
814.933	65.71
815.242	65.96
815.551	65.55
815.86	65.85
816.169	66.46
816.478	65.23
816.786	65.31
817.095	65.76
817.404	65.61
817.712	66.15
818.021	66.06
818.33	66.31
818.638	66
818.947	66.54
819.255	67.91
819.563	67.36
819.872	67
820.18	67
820.488	66.86
820.796	66.87
821.105	66.78
821.413	66.81
821.721	66.51
822.029	66.75
822.337	66.47
822.645	66.35
822.953	66.47
823.26	66.33
823.568	66.11
823.876	65.97
824.184	65.88
824.491	65.82
824.799	65.97
825.107	65.99
825.414	65.67
825.722	65.17
826.029	65.31
826.337	65.57
826.644	65.44
826.951	65.75
827.259	65.53
827.566	65.43
827.873	65.6
828.18	65.77
828.488	65.47
828.795	65.78
829.102	65.87
829.409	65.52
829.716	65.78
830.023	66.28
830.329	66.66
830.636	66.5
830.943	66.59
831.25	65.9
831.557	66.18
831.863	66.11
832.17	66.54
832.476	66.54
832.783	65.84
833.089	66.12
833.396	65.67
833.702	66.16
834.009	66.09
834.315	64.87
834.621	65.04
834.928	65.08
835.234	65.33
835.54	65
835.846	65.39
836.152	65.25
836.458	64.49
836.764	64.52
837.07	64.78
837.376	65.13
837.682	65.81
837.988	65.21
838.293	65.88
838.599	65.12
838.905	64.91
839.211	64.81
839.516	64.94
839.822	65.18
840.127	64.36
840.433	64.2
840.738	64.77
841.044	64.96
841.349	65.9
841.654	65.09
841.959	66.07
842.265	65.97
842.57	65.52
842.875	66.18
843.18	66.03
843.485	65.94
843.79	65.01
844.095	64.16
844.4	64.61
844.705	64.99
845.01	64.99
845.315	65
845.619	65.28
845.924	64.81
846.229	65.52
846.533	65.79
846.838	66.52
847.142	67.44
847.447	66.98
847.751	65.69
848.056	65.8
848.36	63.86
848.664	64.97
848.969	64.16
849.273	64.74
849.577	64.63
849.881	63.74
850.185	64.94
850.489	65.47
850.794	65.28
851.097	64.46
851.401	67.39
851.705	67.49
852.009	68.72
852.313	68.31
852.617	67.27
852.92	66.35
853.224	67.85
853.528	67.39
853.831	66.53
854.135	66.44
854.438	65.04
854.742	69.18
855.045	68.63
855.349	70.55
855.652	70.2
855.955	71.33
856.259	69.96
856.562	69.59
856.865	71.87
857.168	74.12
857.471	74.96
857.774	75.65
858.077	74.67
858.38	76.35
858.683	77.32
858.986	77.52
859.289	77.36
859.592	77.38
859.894	78.41
860.197	78.26
860.5	78.01
860.802	77.68
861.105	73.63
861.407	74.09
861.71	72.37
862.012	70.89
862.315	68.35
862.617	68.81
862.919	68.19
863.222	67.33
863.524	66.74
863.826	66.24
864.128	64.93
864.43	64.97
864.732	63.15
865.034	62.86
865.336	61.61
865.638	65.22
865.94	61.43
866.242	63.14
866.544	62.43
866.846	61.73
867.147	64.36
867.449	67.98
867.751	63.81
868.052	66.24
868.354	69.41
868.655	71.11
868.957	70.68
869.258	70.4
869.56	69.76
869.861	68.32
870.162	65.61
870.463	63.75
870.765	66.33
871.066	65.83
871.367	68.29
871.668	69.4
871.969	67.95
872.27	71.1
872.571	70.83
872.872	70.35
873.173	70.18
873.473	69.62
873.774	66.53
874.075	68.28
874.376	68.66
874.676	66.39
874.977	66.04
875.277	71.01
875.578	68.61
875.878	68.05
876.179	67.52
876.479	70.49
876.78	72.28
877.08	70.44
877.38	70.32
877.68	66.58
877.981	66.99
878.281	66.68
878.581	65.61
