Data from BA57710_Reflection_00014.txt Node
Date: Mon Nov 18 15:32:13 EST 2019
User: vgr7
Spectrometer: USB2G7710
Scans to average: 3
Trigger mode: 4
Integration Time (sec): 2.000000E-2
Electric dark correction enabled: true
Boxcar width: 10
XAxis mode: Wavelengths
Number of Pixels in Spectrum: 2048
>>>>>Begin Spectral Data<<<<<
177.721	-17.28
178.105	-52.6
178.488	-97.65
178.871	-168.6
179.254	-726.09
179.636	-90.72
180.019	-56.84
180.402	38.89
180.785	157.44
181.168	7.61
181.55	-75.74
181.933	23.83
182.316	17.82
182.698	60.76
183.081	-43.93
183.463	26.07
183.846	-26.28
184.228	59.39
184.611	89.47
184.993	24.5
185.376	21.49
185.758	-0.66
186.14	-2.34
186.522	-21.07
186.904	-76.6
187.287	-76.04
187.669	56.52
188.051	52.75
188.433	24.96
188.815	42.08
189.197	-15.23
189.579	-13.8
189.961	-23.37
190.342	-44.39
190.724	-26.95
191.106	-46.88
191.488	-48.22
191.869	-32.37
192.251	-57.74
192.633	-43.28
193.014	-58.36
193.396	-92
193.777	-50.74
194.159	-81.34
194.54	-87.19
194.922	-77.18
195.303	-91.58
195.684	-108.32
196.065	-86.18
196.447	-77.29
196.828	-97.63
197.209	-81
197.59	-126.22
197.971	-128.14
198.352	-84.54
198.733	-98.81
199.114	-82.39
199.495	-75.34
199.876	-67.52
200.257	-59.79
200.638	-56.31
201.018	-40.11
201.399	-25.55
201.78	-32.98
202.16	-19.14
202.541	-28.5
202.922	-41.34
203.302	-40.96
203.683	-39.26
204.063	-54.8
204.444	-44.91
204.824	-44.75
205.204	-43.09
205.585	-40.33
205.965	-40.76
206.345	-58.42
206.725	-62.63
207.106	-76.31
207.486	-119.17
207.866	-126.08
208.246	-120.61
208.626	-160.45
209.006	-134.56
209.386	-201.2
209.766	-185.1
210.145	-147.9
210.525	-163.55
210.905	-120.55
211.285	-147.52
211.664	-139.53
212.044	-111.21
212.424	-98.66
212.803	-109.29
213.183	-113.27
213.562	-115.7
213.942	-109.81
214.321	-100
214.701	-98.28
215.08	-129.86
215.459	-78.44
215.838	-55.15
216.218	-66.45
216.597	-45.06
216.976	-48.43
217.355	-34.4
217.734	-38.37
218.113	-38.47
218.492	-34.27
218.871	-36.83
219.25	-26.86
219.629	-34.31
220.008	-33.32
220.387	-39.21
220.766	-36.66
221.144	-45.32
221.523	-31.73
221.902	-22.14
222.28	-32.61
222.659	-47.84
223.037	-41.99
223.416	-54.96
223.794	-63.33
224.173	-53.8
224.551	-40.69
224.929	-33.44
225.308	-34.5
225.686	-24.86
226.064	-18.49
226.442	-17.75
226.821	-14.29
227.199	-11.8
227.577	-8.2
227.955	-9.51
228.333	-6.3
228.711	-2.3
229.089	1.8
229.467	-2.23
229.845	-3.76
230.222	-1.5
230.6	-1.75
230.978	0.11
231.356	2.33
231.733	1.94
232.111	3.96
232.488	2.2
232.866	1.75
233.243	2.12
233.621	-0.22
233.998	1.15
234.376	1.84
234.753	1.61
235.13	1.27
235.508	1.63
235.885	0.66
236.262	-0.01
236.639	-1.78
237.016	-1.98
237.393	0.55
237.77	2.23
238.147	1.81
238.524	2.36
238.901	3.07
239.278	2.68
239.655	3.36
240.032	3.35
240.409	3.45
240.785	3.5
241.162	3.52
241.539	4.21
241.915	3.91
242.292	3.58
242.668	3.54
243.045	3.39
243.421	3.47
243.798	3.66
244.174	3.72
244.551	4.15
244.927	4
245.303	3.83
245.679	3.57
246.056	3.68
246.432	3.71
246.808	3.68
247.184	3.6
247.56	3.39
247.936	3.24
248.312	3.07
248.688	3.12
249.064	2.99
249.44	2.77
249.815	2.8
250.191	3.09
250.567	3.19
250.943	3.18
251.318	3.17
251.694	3.04
252.069	2.96
252.445	2.78
252.82	2.66
253.196	2.5
253.571	2.38
253.947	2.37
254.322	2.24
254.697	1.99
255.073	2.02
255.448	2.04
255.823	1.92
256.198	2.2
256.573	2.16
256.948	2.24
257.323	2.4
257.698	2.53
258.073	2.35
258.448	2.01
258.823	1.86
259.198	1.8
259.573	1.91
259.948	1.95
260.322	1.83
260.697	1.85
261.072	1.78
261.446	1.92
261.821	1.98
262.195	2.03
262.57	1.99
262.944	2.05
263.319	2.03
263.693	2
264.067	1.94
264.442	2.02
264.816	2.01
265.19	1.93
265.564	1.88
265.938	1.84
266.313	2.14
266.687	2.49
267.061	2.42
267.435	2.45
267.809	2.43
268.183	2.57
268.556	2.58
268.93	2.71
269.304	2.84
269.678	2.78
270.051	2.72
270.425	2.84
270.799	2.72
271.172	2.8
271.546	3.03
271.919	2.91
272.293	2.77
272.666	2.79
273.04	2.74
273.413	2.66
273.787	2.72
274.16	2.72
274.533	2.79
274.906	2.83
275.279	2.82
275.653	2.86
276.026	2.82
276.399	2.79
276.772	2.79
277.145	2.45
277.518	2.34
277.891	2.49
278.263	2.51
278.636	2.7
279.009	2.77
279.382	2.72
279.755	2.68
280.127	2.81
280.5	2.85
280.872	2.9
281.245	2.8
281.617	2.89
281.99	3.06
282.362	2.93
282.735	3.03
283.107	3.1
283.479	3.02
283.852	3.03
284.224	3.14
284.596	3.1
284.968	3.19
285.34	3.3
285.713	3.23
286.085	3.2
286.457	3.28
286.829	3.26
287.201	3.14
287.572	3.06
287.944	2.98
288.316	2.96
288.688	2.94
289.06	3.03
289.431	2.97
289.803	2.89
290.175	2.94
290.546	3.02
290.918	2.99
291.289	3.06
291.661	3.17
292.032	3.2
292.403	3.15
292.775	3.26
293.146	3.13
293.517	3.11
293.889	3.24
294.26	3.09
294.631	3.04
295.002	3.06
295.373	3.2
295.744	3.26
296.115	3.21
296.486	3.13
296.857	3.12
297.228	3.18
297.599	3.11
297.97	3.07
298.34	2.91
298.711	2.92
299.082	2.91
299.452	2.81
299.823	2.8
300.194	2.99
300.564	3.02
300.935	3.15
301.305	3.2
301.676	3.1
302.046	3.2
302.416	3.34
302.787	3.41
303.157	3.47
303.527	3.51
303.897	3.6
304.267	3.67
304.637	3.65
305.008	3.63
305.378	3.78
305.748	3.92
306.117	3.88
306.487	3.98
306.857	4.08
307.227	4.16
307.597	4.11
307.967	4
308.336	4.02
308.706	3.95
309.076	4.09
309.445	4.23
309.815	4.19
310.184	4.12
310.554	4.17
310.923	4.16
311.293	4.11
311.662	4.08
312.031	4.2
312.401	4.2
312.77	4.3
313.139	4.33
313.508	4.3
313.877	4.43
314.246	4.42
314.616	4.53
314.985	4.66
315.353	4.68
315.722	4.77
316.091	4.74
316.46	4.81
316.829	4.87
317.198	4.85
317.567	4.82
317.935	4.86
318.304	5.02
318.672	5.07
319.041	5.32
319.41	5.56
319.778	5.59
320.147	5.86
320.515	5.77
320.883	5.7
321.252	5.94
321.62	6.08
321.988	6.06
322.357	6.04
322.725	6.06
323.093	6.33
323.461	6.29
323.829	6.48
324.197	6.67
324.565	6.54
324.933	6.59
325.301	6.73
325.669	6.89
326.037	6.86
326.405	6.83
326.772	6.94
327.14	6.95
327.508	6.87
327.875	6.85
328.243	7.12
328.61	7.18
328.978	7.09
329.346	7.2
329.713	7.23
330.08	7.23
330.448	7.12
330.815	7.05
331.182	7.16
331.55	7.23
331.917	7.14
332.284	7.28
332.651	7.21
333.018	7.26
333.385	7.22
333.752	7.26
334.119	7.39
334.486	7.31
334.853	7.35
335.22	7.58
335.587	7.68
335.954	7.6
336.32	7.58
336.687	7.57
337.054	7.48
337.42	7.63
337.787	7.83
338.153	7.88
338.52	7.91
338.886	7.91
339.253	7.73
339.619	7.88
339.986	7.92
340.352	8.16
340.718	8.16
341.084	8.13
341.451	8.28
341.817	8.35
342.183	8.25
342.549	8.17
342.915	8.17
343.281	8.08
343.647	8.04
344.013	8.23
344.379	8.23
344.745	8.3
345.11	8.29
345.476	8.17
345.842	8.21
346.208	8.12
346.573	8.21
346.939	8.39
347.304	8.19
347.67	8.16
348.035	8.02
348.401	7.97
348.766	8.11
349.132	8.02
349.497	7.97
349.862	8.15
350.228	8.22
350.593	8.12
350.958	8.18
351.323	8.2
351.688	8.11
352.053	8.11
352.418	8.15
352.783	8.1
353.148	8.13
353.513	8.07
353.878	8.19
354.243	8.24
354.608	8.16
354.972	8.33
355.337	8.35
355.702	8.45
356.066	8.61
356.431	8.56
356.795	8.62
357.16	8.6
357.524	8.48
357.889	8.45
358.253	8.53
358.618	8.61
358.982	8.59
359.346	8.51
359.71	8.53
360.075	8.57
360.439	8.59
360.803	8.6
361.167	8.63
361.531	8.57
361.895	8.51
362.259	8.47
362.623	8.44
362.987	8.4
363.351	8.31
363.714	8.19
364.078	8.09
364.442	8.06
364.806	8.06
365.169	8.14
365.533	8.17
365.896	8.14
366.26	8.05
366.623	8.01
366.987	8
367.35	7.94
367.714	7.88
368.077	7.86
368.44	7.83
368.803	7.79
369.167	7.8
369.53	7.68
369.893	7.69
370.256	7.69
370.619	7.63
370.982	7.6
371.345	7.58
371.708	7.63
372.071	7.53
372.434	7.43
372.797	7.34
373.159	7.14
373.522	7.08
373.885	7.08
374.247	7.1
374.61	7.12
374.973	7.1
375.335	6.99
375.698	6.94
376.06	6.86
376.423	6.79
376.785	6.74
377.147	6.8
377.51	6.75
377.872	6.69
378.234	6.68
378.596	6.66
378.958	6.64
379.321	6.56
379.683	6.54
380.045	6.58
380.407	6.49
380.769	6.56
381.13	6.5
381.492	6.43
381.854	6.39
382.216	6.35
382.578	6.32
382.939	6.32
383.301	6.3
383.663	6.22
384.024	6.22
384.386	6.18
384.747	6.16
385.109	6.16
385.47	6.1
385.832	6.07
386.193	6.05
386.554	6.01
386.916	6
387.277	5.96
387.638	5.93
387.999	5.88
388.36	5.83
388.721	5.81
389.082	5.79
389.443	5.69
389.804	5.62
390.165	5.57
390.526	5.48
390.887	5.42
391.248	5.41
391.609	5.37
391.969	5.34
392.33	5.27
392.691	5.22
393.051	5.18
393.412	5.14
393.772	5.1
394.133	5.09
394.493	5.04
394.854	4.99
395.214	4.92
395.574	4.96
395.935	4.93
396.295	4.92
396.655	4.85
397.015	4.83
397.376	4.8
397.736	4.77
398.096	4.76
398.456	4.74
398.816	4.7
399.176	4.68
399.535	4.64
399.895	4.58
400.255	4.59
400.615	4.55
400.975	4.54
401.334	4.5
401.694	4.43
402.054	4.4
402.413	4.4
402.773	4.37
403.132	4.3
403.492	4.26
403.851	4.21
404.211	4.2
404.57	4.18
404.929	4.18
405.288	4.15
405.648	4.12
406.007	4.11
406.366	4.09
406.725	4.07
407.084	4.08
407.443	4.09
407.802	4.05
408.161	4.05
408.52	4.01
408.879	3.96
409.238	3.98
409.596	3.97
409.955	3.93
410.314	3.94
410.673	3.92
411.031	3.9
411.39	3.87
411.748	3.88
412.107	3.9
412.465	3.84
412.824	3.82
413.182	3.82
413.54	3.79
413.899	3.81
414.257	3.8
414.615	3.73
414.974	3.72
415.332	3.69
415.69	3.66
416.048	3.64
416.406	3.65
416.764	3.6
417.122	3.62
417.48	3.58
417.838	3.56
418.195	3.57
418.553	3.55
418.911	3.54
419.269	3.51
419.626	3.48
419.984	3.47
420.342	3.46
420.699	3.46
421.057	3.45
421.414	3.41
421.772	3.4
422.129	3.39
422.486	3.37
422.844	3.36
423.201	3.34
423.558	3.31
423.915	3.3
424.273	3.31
424.63	3.27
424.987	3.28
425.344	3.26
425.701	3.25
426.058	3.24
426.415	3.23
426.772	3.22
427.128	3.22
427.485	3.22
427.842	3.21
428.199	3.21
428.555	3.2
428.912	3.2
429.269	3.21
429.625	3.2
429.982	3.19
430.338	3.19
430.695	3.2
431.051	3.21
431.407	3.19
431.764	3.17
432.12	3.17
432.476	3.16
432.832	3.14
433.189	3.13
433.545	3.12
433.901	3.11
434.257	3.09
434.613	3.07
434.969	3.06
435.325	3.06
435.681	3.05
436.036	3.04
436.392	3.05
436.748	3.03
437.104	3.03
437.459	3.02
437.815	3.02
438.171	3.01
438.526	3.01
438.882	3.02
439.237	3.01
439.593	3.03
439.948	3.02
440.304	3.02
440.659	3.03
441.014	3.04
441.369	3.04
441.725	3.04
442.08	3.03
442.435	3.04
442.79	3.03
443.145	3.01
443.5	3
443.855	2.99
444.21	2.99
444.565	2.99
444.92	3
445.275	2.98
445.629	2.98
445.984	2.98
446.339	2.97
446.693	2.96
447.048	2.92
447.403	2.92
447.757	2.91
448.112	2.89
448.466	2.88
448.82	2.87
449.175	2.88
449.529	2.88
449.883	2.87
450.238	2.86
450.592	2.87
450.946	2.86
451.3	2.84
451.654	2.82
452.008	2.82
452.362	2.8
452.716	2.79
453.07	2.78
453.424	2.77
453.778	2.77
454.132	2.74
454.486	2.77
454.839	2.75
455.193	2.74
455.547	2.76
455.9	2.77
456.254	2.77
456.607	2.77
456.961	2.75
457.314	2.75
457.668	2.75
458.021	2.73
458.375	2.76
458.728	2.78
459.081	2.81
459.434	2.78
459.787	2.81
460.141	2.82
460.494	2.83
460.847	2.84
461.2	2.83
461.553	2.85
461.906	2.86
462.259	2.89
462.611	2.91
462.964	2.93
463.317	2.94
463.67	2.95
464.022	2.96
464.375	2.98
464.728	2.99
465.08	2.99
465.433	3.01
465.785	3
466.138	2.99
466.49	2.99
466.843	3.02
467.195	3
467.547	3
467.899	3.02
468.252	3.01
468.604	3.02
468.956	3.02
469.308	3.02
469.66	3.01
470.012	3.03
470.364	2.99
470.716	2.99
471.068	3.01
471.42	3.02
471.772	3.04
472.123	3.06
472.475	3.08
472.827	3.1
473.178	3.12
473.53	3.12
473.882	3.12
474.233	3.13
474.585	3.13
474.936	3.14
475.288	3.13
475.639	3.14
475.99	3.15
476.342	3.14
476.693	3.13
477.044	3.14
477.395	3.12
477.746	3.12
478.097	3.12
478.448	3.11
478.8	3.09
479.15	3.08
479.501	3.05
479.852	3.05
480.203	3.05
480.554	3.05
480.905	3.04
481.255	3.03
481.606	3.02
481.957	3.03
482.307	3.02
482.658	3.02
483.009	3.02
483.359	3.01
483.709	3.03
484.06	3.03
484.41	3.04
484.761	3.04
485.111	3.05
485.461	3.04
485.811	3.04
486.162	3.04
486.512	3.05
486.862	3.05
487.212	3.04
487.562	3.05
487.912	3.04
488.262	3.05
488.612	3.05
488.961	3.06
489.311	3.05
489.661	3.05
490.011	3.07
490.36	3.07
490.71	3.07
491.06	3.07
491.409	3.08
491.759	3.08
492.108	3.07
492.458	3.07
492.807	3.07
493.157	3.1
493.506	3.1
493.855	3.1
494.204	3.11
494.554	3.14
494.903	3.13
495.252	3.18
495.601	3.19
495.95	3.2
496.299	3.21
496.648	3.23
496.997	3.25
497.346	3.27
497.695	3.31
498.043	3.35
498.392	3.35
498.741	3.39
499.09	3.41
499.438	3.46
499.787	3.49
500.135	3.54
500.484	3.57
500.832	3.61
501.181	3.63
501.529	3.69
501.878	3.73
502.226	3.79
502.574	3.8
502.923	3.85
503.271	3.92
503.619	3.99
503.967	4.06
504.315	4.13
504.663	4.2
505.011	4.26
505.359	4.29
505.707	4.35
506.055	4.4
506.403	4.47
506.751	4.51
507.098	4.56
507.446	4.62
507.794	4.66
508.141	4.73
508.489	4.83
508.837	4.89
509.184	4.96
509.531	5.03
509.879	5.13
510.226	5.2
510.574	5.26
510.921	5.33
511.268	5.39
511.616	5.48
511.963	5.54
512.31	5.59
512.657	5.7
513.004	5.84
513.351	5.92
513.698	6.01
514.045	6.14
514.392	6.25
514.739	6.35
515.086	6.46
515.432	6.56
515.779	6.62
516.126	6.73
516.473	6.81
516.819	6.88
517.166	6.96
517.512	7.05
517.859	7.15
518.205	7.23
518.552	7.32
518.898	7.4
519.245	7.51
519.591	7.6
519.937	7.67
520.283	7.74
520.629	7.85
520.976	7.99
521.322	8.1
521.668	8.21
522.014	8.33
522.36	8.48
522.706	8.62
523.052	8.78
523.398	8.95
523.743	9.11
524.089	9.3
524.435	9.46
524.781	9.63
525.126	9.78
525.472	9.94
525.817	10.06
526.163	10.21
526.509	10.34
526.854	10.46
527.199	10.59
527.545	10.71
527.89	10.82
528.235	10.94
528.581	11.06
528.926	11.19
529.271	11.33
529.616	11.45
529.961	11.59
530.306	11.74
530.651	11.88
530.996	12.05
531.341	12.22
531.686	12.38
532.031	12.55
532.376	12.73
532.721	12.92
533.065	13.13
533.41	13.32
533.755	13.51
534.099	13.73
534.444	13.95
534.788	14.16
535.133	14.39
535.477	14.62
535.822	14.83
536.166	15.08
536.51	15.33
536.855	15.62
537.199	15.89
537.543	16.17
537.887	16.46
538.231	16.72
538.576	17
538.92	17.32
539.264	17.57
539.608	17.82
539.951	18.06
540.295	18.3
540.639	18.54
540.983	18.78
541.327	19
541.671	19.22
542.014	19.44
542.358	19.63
542.701	19.83
543.045	20.06
543.389	20.28
543.732	20.49
544.075	20.72
544.419	20.95
544.762	21.2
545.105	21.44
545.449	21.72
545.792	22.01
546.135	22.28
546.478	22.58
546.821	22.91
547.165	23.23
547.508	23.56
547.851	23.84
548.194	24.12
548.536	24.43
548.879	24.78
549.222	25.1
549.565	25.4
549.908	25.74
550.25	26.07
550.593	26.36
550.936	26.72
551.278	26.98
551.621	27.27
551.963	27.55
552.306	27.82
552.648	28.11
552.991	28.37
553.333	28.62
553.675	28.89
554.017	29.17
554.36	29.39
554.702	29.57
555.044	29.82
555.386	30.07
555.728	30.26
556.07	30.5
556.412	30.73
556.754	30.97
557.096	31.21
557.438	31.39
557.78	31.62
558.121	31.8
558.463	32.09
558.805	32.35
559.147	32.59
559.488	32.85
559.83	33.05
560.171	33.29
560.513	33.54
560.854	33.72
561.196	33.88
561.537	34.05
561.878	34.29
562.22	34.46
562.561	34.69
562.902	34.95
563.243	35.11
563.584	35.35
563.925	35.55
564.266	35.7
564.607	35.89
564.948	36.04
565.289	36.25
565.63	36.38
565.971	36.53
566.312	36.66
566.653	36.81
566.993	36.95
567.334	37.07
567.675	37.18
568.015	37.32
568.356	37.47
568.696	37.64
569.037	37.77
569.377	37.94
569.718	38.02
570.058	38.12
570.398	38.26
570.739	38.36
571.079	38.45
571.419	38.63
571.759	38.79
572.099	38.86
572.439	38.95
572.779	39.03
573.119	39.12
573.459	39.25
573.799	39.37
574.139	39.45
574.479	39.59
574.819	39.74
575.158	39.87
575.498	39.98
575.838	40.11
576.177	40.2
576.517	40.33
576.856	40.48
577.196	40.58
577.535	40.64
577.875	40.69
578.214	40.78
578.553	40.84
578.893	40.92
579.232	41.1
579.571	41.18
579.91	41.29
580.25	41.44
580.589	41.53
580.928	41.59
581.267	41.76
581.606	41.74
581.945	41.81
582.283	41.84
582.622	41.88
582.961	41.99
583.3	42.04
583.639	42.07
583.977	42.09
584.316	42.18
584.654	42.22
584.993	42.36
585.332	42.48
585.67	42.61
586.008	42.7
586.347	42.79
586.685	42.89
587.024	42.97
587.362	43.03
587.7	43.07
588.038	43.15
588.376	43.17
588.715	43.34
589.053	43.4
589.391	43.5
589.729	43.6
590.067	43.62
590.404	43.68
590.742	43.7
591.08	43.76
591.418	43.82
591.756	44.01
592.093	44.03
592.431	44.1
592.769	44.08
593.106	44.14
593.444	44.18
593.781	44.23
594.119	44.33
594.456	44.31
594.793	44.39
595.131	44.4
595.468	44.43
595.805	44.42
596.143	44.43
596.48	44.44
596.817	44.46
597.154	44.46
597.491	44.51
597.828	44.61
598.165	44.74
598.502	44.81
598.839	44.77
599.176	44.79
599.512	44.85
599.849	44.86
600.186	44.87
600.523	44.96
600.859	44.95
601.196	45.01
601.532	45.1
601.869	45.19
602.205	45.22
602.542	45.34
602.878	45.33
603.215	45.34
603.551	45.39
603.887	45.46
604.223	45.52
604.56	45.54
604.896	45.58
605.232	45.59
605.568	45.53
605.904	45.52
606.24	45.6
606.576	45.57
606.912	45.67
607.248	45.68
607.583	45.71
607.919	45.8
608.255	45.74
608.591	45.76
608.926	45.72
609.262	45.77
609.597	45.75
609.933	45.82
610.268	45.86
610.604	45.88
610.939	45.9
611.275	45.94
611.61	45.96
611.945	45.97
612.281	45.98
612.616	46.1
612.951	46.19
613.286	46.23
613.621	46.22
613.956	46.25
614.291	46.31
614.626	46.3
614.961	46.3
615.296	46.41
615.631	46.43
615.966	46.5
616.3	46.52
616.635	46.5
616.97	46.52
617.304	46.54
617.639	46.61
617.973	46.65
618.308	46.67
618.642	46.75
618.977	46.74
619.311	46.67
619.646	46.76
619.98	46.86
620.314	46.88
620.648	46.96
620.983	47
621.317	46.93
621.651	46.9
621.985	46.95
622.319	46.91
622.653	46.95
622.987	46.94
623.321	46.95
623.655	46.95
623.988	47.07
624.322	47.08
624.656	47.08
624.99	47.1
625.323	47.12
625.657	47.08
625.99	47.16
626.324	47.22
626.657	47.16
626.991	47.1
627.324	47.08
627.658	47.05
627.991	47
628.324	47.03
628.657	47.02
628.991	47.03
629.324	47.11
629.657	47.1
629.99	47.12
630.323	47.19
630.656	47.34
630.989	47.31
631.322	47.3
631.655	47.28
631.987	47.36
632.32	47.42
632.653	47.51
632.986	47.47
633.318	47.47
633.651	47.59
633.984	47.6
634.316	47.62
634.649	47.68
634.981	47.72
635.313	47.78
635.646	47.77
635.978	47.78
636.31	47.8
636.643	47.85
636.975	47.88
637.307	47.88
637.639	47.84
637.971	47.81
638.303	47.9
638.635	47.96
638.967	47.8
639.299	47.74
639.631	47.66
639.963	47.66
640.295	47.76
640.626	47.71
640.958	47.69
641.29	47.73
641.621	47.78
641.953	47.83
642.285	47.96
642.616	48.03
642.948	47.97
643.279	47.97
643.61	47.94
643.942	48.03
644.273	48
644.604	48.01
644.936	48.03
645.267	47.97
645.598	48.06
645.929	48.13
646.26	48.18
646.591	48.3
646.922	48.27
647.253	48.22
647.584	48.18
647.915	48.27
648.245	48.15
648.576	48.24
648.907	48.26
649.238	48.05
649.568	48.08
649.899	48.12
650.229	48.1
650.56	48.09
650.89	47.99
651.221	47.97
651.551	47.83
651.882	47.9
652.212	47.92
652.542	47.81
652.872	47.82
653.203	47.84
653.533	47.66
653.863	47.76
654.193	47.76
654.523	47.84
654.853	47.89
655.183	48
655.513	47.96
655.843	47.87
656.172	48.05
656.502	48.09
656.832	48.17
657.162	48.22
657.491	48.35
657.821	48.41
658.15	48.48
658.48	48.6
658.809	48.57
659.139	48.66
659.468	48.66
659.798	48.66
660.127	48.7
660.456	48.78
660.785	48.73
661.115	48.63
661.444	48.54
661.773	48.5
662.102	48.51
662.431	48.4
662.76	48.44
663.089	48.38
663.418	48.43
663.747	48.38
664.076	48.3
664.404	48.18
664.733	48.13
665.062	48.09
665.39	48.05
665.719	48.04
666.048	48.11
666.376	48.12
666.705	48.08
667.033	48.03
667.362	48.16
667.69	48.19
668.018	48.3
668.347	48.36
668.675	48.35
669.003	48.43
669.331	48.56
669.659	48.62
669.987	48.55
670.315	48.56
670.643	48.55
670.971	48.66
671.299	48.78
671.627	48.73
671.955	48.68
672.283	48.67
672.61	48.71
672.938	48.5
673.266	48.51
673.593	48.73
673.921	48.69
674.249	48.65
674.576	48.6
674.904	48.74
675.231	48.82
675.558	48.76
675.886	48.84
676.213	48.91
676.54	48.88
676.867	49.18
677.195	49.2
677.522	49.22
677.849	49.16
678.176	49.13
678.503	49.23
678.83	49.27
679.157	49.34
679.484	49.3
679.81	49.32
680.137	49.26
680.464	49.16
680.791	49.36
681.117	49.41
681.444	49.52
681.771	49.46
682.097	49.29
682.424	49.4
682.75	49.37
683.077	49.19
683.403	49.25
683.729	49.02
684.056	48.93
684.382	48.88
684.708	48.85
685.034	48.79
685.36	48.82
685.686	48.81
686.012	48.82
686.339	48.93
686.664	49.05
686.99	49.17
687.316	49.2
687.642	49
687.968	48.99
688.294	49
688.619	49.01
688.945	49.12
689.271	49.06
689.596	49.02
689.922	49.11
690.247	48.93
690.573	49.01
690.898	49
691.224	49.12
691.549	49.08
691.874	49.07
692.2	48.99
692.525	49
692.85	49.05
693.175	48.83
693.5	48.78
693.825	48.79
694.15	48.55
694.475	48.58
694.8	48.5
695.125	48.38
695.45	48.32
695.775	48.34
696.099	48.34
696.424	48.33
696.749	48.42
697.073	48.59
697.398	48.64
697.723	48.65
698.047	48.62
698.372	48.71
698.696	48.85
699.02	48.89
699.345	48.85
699.669	48.86
699.993	48.93
700.318	48.92
700.642	48.85
700.966	49.08
701.29	49.03
701.614	49.08
701.938	49.17
702.262	49.25
702.586	49.32
702.91	49.31
703.234	49.36
703.557	49.28
703.881	49.17
704.205	49.13
704.529	49.22
704.852	49.31
705.176	49.27
705.499	49.11
705.823	49.08
706.146	49.22
706.47	49.26
706.793	49.31
707.117	49.35
707.44	49.32
707.763	49.12
708.086	49.17
708.409	49.07
708.733	49.07
709.056	49.06
709.379	49.01
709.702	49.04
710.025	48.83
710.348	48.9
710.671	48.94
710.993	48.89
711.316	48.87
711.639	48.84
711.962	48.9
712.284	49.13
712.607	49.07
712.93	49.04
713.252	48.89
713.575	48.91
713.897	49.06
714.22	49.11
714.542	49.18
714.864	49.25
715.187	49.25
715.509	49.18
715.831	49.23
716.153	49.19
716.475	49.07
716.798	49.18
717.12	49.16
717.442	49.13
717.764	49.19
718.085	49.1
718.407	48.93
718.729	49.05
719.051	48.84
719.373	48.89
719.695	48.85
720.016	49.02
720.338	48.95
720.659	48.77
720.981	48.97
721.302	49.03
721.624	48.81
721.945	48.93
722.267	48.86
722.588	48.82
722.909	49
723.231	49.08
723.552	49.06
723.873	49.21
724.194	49.29
724.515	49.28
724.836	49.34
725.157	49.44
725.478	49
725.799	48.89
726.12	48.99
726.441	49.11
726.762	49.01
727.083	49.1
727.403	49.15
727.724	49.14
728.045	49.15
728.365	49.32
728.686	49.13
729.006	49.29
729.327	49.3
729.647	49.09
729.967	49.17
730.288	49.22
730.608	49.08
730.928	49.07
731.249	48.97
731.569	49.12
731.889	49.2
732.209	49.28
732.529	49.49
732.849	49.49
733.169	49.32
733.489	49.26
733.809	49.37
734.129	49.24
734.448	48.95
734.768	49.01
735.088	48.94
735.408	49.22
735.727	49.18
736.047	49.29
736.366	49.38
736.686	49.22
737.005	49.31
737.325	49.27
737.644	49.18
737.963	49.5
738.283	49.11
738.602	49.13
738.921	49.24
739.24	49.15
739.56	49.01
739.879	49.12
740.198	49.38
740.517	49.37
740.836	49.35
741.155	49.51
741.473	49.6
741.792	49.63
742.111	49.47
742.43	49.63
742.748	49.48
743.067	49.45
743.386	49.73
743.704	49.78
744.023	49.9
744.341	49.79
744.66	49.73
744.978	50.02
745.297	50
745.615	50.08
745.933	49.98
746.252	49.95
746.57	50.03
746.888	49.74
747.206	49.43
747.524	49.53
747.842	49.66
748.16	49.54
748.478	49.53
748.796	49.65
749.114	49.71
749.432	49.64
749.749	49.91
750.067	49.71
750.385	49.65
750.703	49.56
751.02	49.82
751.338	49.53
751.655	49.51
751.973	49.26
752.29	49.1
752.608	49.03
752.925	49.11
753.242	48.92
753.56	48.62
753.877	48.87
754.194	48.85
754.511	48.89
754.828	48.44
755.145	48.2
755.462	48.03
755.779	47.65
756.096	47.63
756.413	47.56
756.73	47.65
757.047	47.6
757.364	47.73
757.68	47.42
757.997	47.82
758.314	47.67
758.63	47.99
758.947	48.42
759.264	48.54
759.58	48.43
759.896	48.81
760.213	48.99
760.529	48.77
760.846	48.77
761.162	48.71
761.478	48.98
761.794	49.33
762.11	49.34
762.426	49.39
762.743	49.54
763.059	49.59
763.375	49.52
763.69	49.46
764.006	49.35
764.322	49.43
764.638	49.3
764.954	49.64
765.27	49.52
765.585	49.19
765.901	49.16
766.216	49.4
766.532	49.45
766.848	49.43
767.163	49.45
767.478	49.65
767.794	49.42
768.109	49.46
768.424	49.51
768.74	49.43
769.055	49.66
769.37	49.44
769.685	49.39
770	49.69
770.315	49.75
770.63	49.75
770.945	49.62
771.26	49.21
771.575	48.83
771.89	49.29
772.205	49.48
772.52	49.62
772.834	49.39
773.149	48.95
773.464	49.06
773.778	49.94
774.093	49.55
774.407	49.99
774.722	50.21
775.036	50.09
775.351	50.55
775.665	50.55
775.979	50.75
776.293	50.97
776.608	50.57
776.922	50.32
777.236	50.05
777.55	50.65
777.864	51.4
778.178	51.64
778.492	51.53
778.806	51.75
779.12	51.53
779.434	51.66
779.747	51.7
780.061	51.73
780.375	50.98
780.689	51.05
781.002	50.76
781.316	50.47
781.629	50.71
781.943	50.68
782.256	50.43
782.57	50.49
782.883	50.09
783.196	50.05
783.51	50.32
783.823	51
784.136	50.48
784.449	50.23
784.762	50.09
785.075	49.89
785.388	50.11
785.701	50.08
786.014	50.02
786.327	50.17
786.64	50.31
786.953	50.28
787.266	50.67
787.578	50.94
787.891	51.24
788.204	50.85
788.516	50.65
788.829	50.64
789.141	50.59
789.454	50.46
789.766	50.59
790.079	50.21
790.391	49.79
790.703	49.62
791.016	49.36
791.328	49.35
791.64	49.03
791.952	48.81
792.264	49.12
792.576	48.76
792.888	48.86
793.2	48.67
793.512	48.92
793.824	48.27
794.136	48.05
794.448	47.89
794.76	47.97
795.071	47.64
795.383	47.43
795.695	47.17
796.006	47.45
796.318	48.45
796.629	48.93
796.941	49.46
797.252	50.57
797.564	50.58
797.875	50.35
798.186	50.53
798.497	50.24
798.809	50.25
799.12	50.34
799.431	49.92
799.742	49.81
800.053	50.08
800.364	50.47
800.675	50.22
800.986	49.97
801.297	49.4
801.608	49.7
801.918	49.91
802.229	50.54
802.54	50.35
802.851	49.56
803.161	49.62
803.472	49.2
803.782	48.21
804.093	48.55
804.403	48.52
804.714	48.66
805.024	49.05
805.334	49.37
805.645	49.97
805.955	50.44
806.265	50.69
806.575	50.45
806.885	50.4
807.195	50.77
807.505	51.13
807.815	51.58
808.125	51.5
808.435	51.72
808.745	51.07
809.055	51.7
809.365	52.09
809.674	52.13
809.984	51.71
810.294	52.42
810.603	52.13
810.913	52.41
811.222	52.14
811.532	52.01
811.841	51.5
812.151	51.17
812.46	50.7
812.769	50.67
813.079	50.69
813.388	51.05
813.697	51.57
814.006	50.83
814.315	50.65
814.624	51.05
814.933	50.8
815.242	51.13
815.551	50.35
815.86	49.6
816.169	49.61
816.478	49.82
816.786	49.4
817.095	49.5
817.404	49.81
817.712	49.93
818.021	49.79
818.33	49.94
818.638	49.76
818.947	50.02
819.255	50.42
819.563	50.21
819.872	49.75
820.18	49.78
820.488	49.58
820.796	50.04
821.105	50.14
821.413	49.98
821.721	50.1
822.029	50.17
822.337	50.27
822.645	50.39
822.953	50.49
823.26	50.33
823.568	50.29
823.876	50.14
824.184	50.09
824.491	50.24
824.799	50.23
825.107	50.23
825.414	50.34
825.722	50.14
826.029	50.13
826.337	50.42
826.644	50.44
826.951	50.67
827.259	50.53
827.566	50.43
827.873	50.53
828.18	50.38
828.488	50.65
828.795	50.64
829.102	50.6
829.409	50.69
829.716	51.02
830.023	51.2
830.329	51.35
830.636	51.5
830.943	51.37
831.25	51.62
831.557	51.72
831.863	51.42
832.17	51.58
832.476	51.48
832.783	51.32
833.089	51.37
833.396	51.33
833.702	51.38
834.009	51.31
834.315	52
834.621	52.09
834.928	52.07
835.234	51.92
835.54	51.86
835.846	51.66
836.152	51.87
836.458	51.68
836.764	51.77
837.07	51.63
837.376	51.33
837.682	50.78
837.988	50.66
838.293	50.71
838.599	50.28
838.905	50.18
839.211	49.95
839.516	48.96
839.822	49.35
840.127	48.97
840.433	48.76
840.738	47.76
841.044	47.81
841.349	46.62
841.654	46.58
841.959	45.93
842.265	46.77
842.57	46.86
842.875	47.09
843.18	47.12
843.485	48.22
843.79	49.1
844.095	48.46
844.4	49.71
844.705	49.84
845.01	50.87
845.315	52.07
845.619	51.41
845.924	51.62
846.229	51.67
846.533	51.04
846.838	51.12
847.142	49.96
847.447	49.42
847.751	51.16
848.056	49.85
848.36	50.89
848.664	50.77
848.969	49.51
849.273	50.28
849.577	50.19
849.881	49.69
850.185	48.18
850.489	50.31
850.794	48.42
851.097	47.55
851.401	47.05
851.705	45.24
852.009	45.73
852.313	46.56
852.617	45.23
852.92	46.06
853.224	45.31
853.528	47.95
853.831	46.93
854.135	45.26
854.438	49.53
854.742	48.08
855.045	45.66
855.349	47.63
855.652	46.93
855.955	47.26
856.259	46.1
856.562	46.18
856.865	44.87
857.168	45.43
857.471	45.57
857.774	46.15
858.077	46.19
858.38	46.59
858.683	47.31
858.986	48.52
859.289	49.02
859.592	48.76
859.894	47.85
860.197	52.02
860.5	51.9
860.802	47.92
861.105	48.95
861.407	47.93
861.71	46.38
862.012	46.22
862.315	47.29
862.617	46.9
862.919	47.29
863.222	48.07
863.524	49.91
863.826	50.96
864.128	52.68
864.43	55.1
864.732	56.41
865.034	55.18
865.336	55.12
865.638	55.14
865.94	57.16
866.242	57.25
866.544	53.73
866.846	54.09
867.147	57.4
867.449	58
867.751	60.85
868.052	61.47
868.354	61.53
868.655	60.7
868.957	60.44
869.258	59.59
869.56	59.36
869.861	56.74
870.162	56.62
870.463	56.29
870.765	55.33
871.066	52.92
871.367	52.66
871.668	53.92
871.969	52.23
872.27	53.57
872.571	51.62
872.872	51.03
873.173	49.26
873.473	45.79
873.774	45.08
874.075	43.81
874.376	42.1
874.676	42.4
874.977	43.31
875.277	44.56
875.578	47.12
875.878	47.92
876.179	48.24
876.479	48.06
876.78	46.09
877.08	45.05
877.38	46.66
877.68	47.7
877.981	45.59
878.281	48.67
878.581	45.86
