Data from BA57715_Reflection_00006.txt Node
Date: Mon Nov 18 15:25:55 EST 2019
User: vgr7
Spectrometer: USB2G7710
Scans to average: 3
Trigger mode: 4
Integration Time (sec): 2.000000E-2
Electric dark correction enabled: true
Boxcar width: 10
XAxis mode: Wavelengths
Number of Pixels in Spectrum: 2048
>>>>>Begin Spectral Data<<<<<
177.721	27.65
178.105	17.11
178.488	8.18
178.871	-13.07
179.254	-65.11
179.636	10.03
180.019	90.02
180.402	116.67
180.785	63.32
181.168	-45.83
181.55	-41.91
181.933	90.26
182.316	105.06
182.698	119.03
183.081	133.82
183.463	319.15
183.846	176.59
184.228	626.1
184.611	267.41
184.993	-2183.95
185.376	-342.68
185.758	-569.62
186.14	-353.09
186.522	-324.41
186.904	682.49
187.287	170.71
187.669	-594.78
188.051	2560.32
188.433	645.89
188.815	602.65
189.197	-300.52
189.579	-136.88
189.961	-88.21
190.342	95.82
190.724	77.69
191.106	65.42
191.488	74.17
191.869	56.89
192.251	76.81
192.633	69.41
193.014	77.47
193.396	170.1
193.777	169.68
194.159	-411.11
194.54	206.86
194.922	88.73
195.303	46.1
195.684	106.72
196.065	125.26
196.447	104.39
196.828	62.17
197.209	47.68
197.59	53.51
197.971	20.58
198.352	22.11
198.733	45.89
199.114	46.46
199.495	31.66
199.876	30.36
200.257	34.09
200.638	33.97
201.018	34.83
201.399	32.94
201.78	52.62
202.16	26.44
202.541	-8.1
202.922	-33.06
203.302	-94.65
203.683	-69.54
204.063	-92.88
204.444	-150.82
204.824	-121.52
205.204	-131.54
205.585	-90.25
205.965	-70.57
206.345	-105.58
206.725	-216.89
207.106	-243.05
207.486	-315.7
207.866	-1344.44
208.246	935.39
208.626	-2020.57
209.006	-278.53
209.386	-237.44
209.766	-233.33
210.145	-116.31
210.525	-94.37
210.905	-29.94
211.285	-26.41
211.664	-23.88
212.044	-14.6
212.424	-11.56
212.803	-9.84
213.183	-1.67
213.562	-0.49
213.942	-3.31
214.321	-6.61
214.701	-16.88
215.08	-25.03
215.459	-16.84
215.838	-25.02
216.218	-33.3
216.597	-18.59
216.976	-16.12
217.355	-13.89
217.734	-15.89
218.113	-19.43
218.492	-11.53
218.871	-7.92
219.25	3.32
219.629	9.43
220.008	13.97
220.387	11.85
220.766	6.59
221.144	2.96
221.523	-4
221.902	-3.44
222.28	-6.3
222.659	5.4
223.037	3.21
223.416	9.49
223.794	28.74
224.173	33.12
224.551	48.6
224.929	39.18
225.308	36.53
225.686	21.21
226.064	27.54
226.442	25.02
226.821	24.72
227.199	18.2
227.577	11.41
227.955	4.9
228.333	7.07
228.711	12.08
229.089	12
229.467	10.02
229.845	9.7
230.222	10.68
230.6	6.37
230.978	8.18
231.356	7.77
231.733	5.51
232.111	5.11
232.488	0.58
232.866	2.81
233.243	3.89
233.621	5.86
233.998	6.78
234.376	5.62
234.753	3.87
235.13	5.44
235.508	6.95
235.885	7.18
236.262	5.49
236.639	3.1
237.016	4.3
237.393	6.38
237.77	6.11
238.147	6.38
238.524	6.7
238.901	6.88
239.278	6.91
239.655	7.68
240.032	7.76
240.409	7.93
240.785	7.88
241.162	7.42
241.539	7.4
241.915	6.71
242.292	6
242.668	6
243.045	6.14
243.421	6.13
243.798	6.21
244.174	6.38
244.551	6.47
244.927	6.27
245.303	6.23
245.679	6.22
246.056	5.89
246.432	5.63
246.808	5.81
247.184	5.49
247.56	5.09
247.936	5.07
248.312	5.24
248.688	5.2
249.064	5.01
249.44	4.92
249.815	4.94
250.191	5.24
250.567	5.3
250.943	5.02
251.318	5.07
251.694	5.23
252.069	5.16
252.445	5.01
252.82	5.03
253.196	4.84
253.571	4.87
253.947	5.1
254.322	5.45
254.697	5.2
255.073	5.16
255.448	5.24
255.823	5.28
256.198	5.16
256.573	5.2
256.948	5.29
257.323	5.3
257.698	5.32
258.073	5.17
258.448	5.18
258.823	5.18
259.198	5.07
259.573	5.04
259.948	4.91
260.322	5.11
260.697	5.1
261.072	5.07
261.446	5.12
261.821	5
262.195	5.09
262.57	5
262.944	5.18
263.319	5.25
263.693	5.13
264.067	5.12
264.442	5.02
264.816	4.97
265.19	4.92
265.564	4.93
265.938	4.99
266.313	4.95
266.687	4.92
267.061	4.95
267.435	4.77
267.809	5.03
268.183	4.84
268.556	4.74
268.93	4.7
269.304	4.67
269.678	4.81
270.051	4.5
270.425	4.43
270.799	4.38
271.172	4.24
271.546	4.18
271.919	4.08
272.293	4.19
272.666	4.4
273.04	4.37
273.413	4.45
273.787	4.36
274.16	4.26
274.533	4.28
274.906	4.19
275.279	4.25
275.653	4.12
276.026	4.08
276.399	4.16
276.772	4.27
277.145	4.09
277.518	4.06
277.891	4.22
278.263	4.29
278.636	4.35
279.009	4.4
279.382	4.6
279.755	4.72
280.127	4.86
280.5	4.72
280.872	4.75
281.245	4.58
281.617	4.72
281.99	4.77
282.362	4.84
282.735	4.85
283.107	4.9
283.479	4.88
283.852	4.89
284.224	4.88
284.596	4.9
284.968	5.04
285.34	5.07
285.713	5.03
286.085	5.12
286.457	5.23
286.829	5.27
287.201	5.26
287.572	5.26
287.944	5.03
288.316	4.97
288.688	5.01
289.06	5.04
289.431	5.04
289.803	5.03
290.175	5.01
290.546	5.09
290.918	5.15
291.289	5.23
291.661	5.38
292.032	5.42
292.403	5.46
292.775	5.52
293.146	5.5
293.517	5.54
293.889	5.56
294.26	5.4
294.631	5.35
295.002	5.28
295.373	5.27
295.744	5.32
296.115	5.37
296.486	5.21
296.857	5.18
297.228	5.2
297.599	5.12
297.97	5.15
298.34	5.09
298.711	5.07
299.082	5.02
299.452	5.02
299.823	5.04
300.194	4.99
300.564	4.9
300.935	4.9
301.305	4.88
301.676	4.79
302.046	4.76
302.416	4.79
302.787	4.76
303.157	4.67
303.527	4.71
303.897	4.7
304.267	5.02
304.637	5.11
305.008	4.95
305.378	5.12
305.748	5.17
306.117	5.26
306.487	5.19
306.857	5.17
307.227	5.09
307.597	4.88
307.967	4.85
308.336	4.87
308.706	4.85
309.076	4.87
309.445	4.81
309.815	4.84
310.184	4.74
310.554	4.84
310.923	4.87
311.293	4.89
311.662	4.92
312.031	4.72
312.401	4.67
312.77	4.76
313.139	4.84
313.508	4.86
313.877	4.67
314.246	4.7
314.616	4.79
314.985	4.67
315.353	4.79
315.722	4.73
316.091	4.74
316.46	4.79
316.829	4.85
317.198	4.93
317.567	4.83
317.935	4.9
318.304	4.89
318.672	4.97
319.041	4.92
319.41	4.86
319.778	4.87
320.147	4.88
320.515	4.8
320.883	4.7
321.252	4.63
321.62	4.88
321.988	4.81
322.357	4.71
322.725	4.9
323.093	4.9
323.461	4.9
323.829	4.91
324.197	4.79
324.565	4.77
324.933	4.69
325.301	4.76
325.669	4.89
326.037	4.77
326.405	4.64
326.772	4.75
327.14	4.89
327.508	4.81
327.875	4.73
328.243	4.79
328.61	4.78
328.978	4.71
329.346	4.71
329.713	4.66
330.08	4.76
330.448	4.57
330.815	4.49
331.182	4.56
331.55	4.47
331.917	4.46
332.284	4.59
332.651	4.7
333.018	4.78
333.385	4.66
333.752	4.74
334.119	4.81
334.486	4.68
334.853	4.55
335.22	4.77
335.587	4.9
335.954	4.91
336.32	4.86
336.687	4.83
337.054	4.69
337.42	4.76
337.787	4.76
338.153	4.77
338.52	4.84
338.886	4.78
339.253	4.76
339.619	4.83
339.986	4.76
340.352	4.73
340.718	4.61
341.084	4.67
341.451	4.74
341.817	4.87
342.183	4.92
342.549	4.98
342.915	4.79
343.281	4.73
343.647	4.75
344.013	4.79
344.379	4.84
344.745	4.94
345.11	4.89
345.476	4.89
345.842	4.89
346.208	4.92
346.573	4.99
346.939	5.16
347.304	5.12
347.67	5.07
348.035	5.05
348.401	5.08
348.766	5.08
349.132	5.06
349.497	4.95
349.862	5
350.228	4.88
350.593	5.01
350.958	5.05
351.323	5.08
351.688	5.07
352.053	5.13
352.418	5.09
352.783	5.1
353.148	4.95
353.513	4.98
353.878	4.91
354.243	4.97
354.608	4.93
354.972	4.95
355.337	4.96
355.702	5.05
356.066	5.09
356.431	5.07
356.795	5.03
357.16	5
357.524	4.91
357.889	4.9
358.253	4.89
358.618	4.91
358.982	4.81
359.346	4.8
359.71	4.79
360.075	4.82
360.439	4.88
360.803	5
361.167	5
361.531	5.02
361.895	4.92
362.259	4.85
362.623	4.81
362.987	4.77
363.351	4.72
363.714	4.75
364.078	4.71
364.442	4.65
364.806	4.67
365.169	4.68
365.533	4.7
365.896	4.71
366.26	4.63
366.623	4.65
366.987	4.65
367.35	4.63
367.714	4.69
368.077	4.6
368.44	4.53
368.803	4.49
369.167	4.44
369.53	4.42
369.893	4.47
370.256	4.52
370.619	4.56
370.982	4.48
371.345	4.37
371.708	4.42
372.071	4.49
372.434	4.4
372.797	4.41
373.159	4.39
373.522	4.41
373.885	4.52
374.247	4.57
374.61	4.6
374.973	4.61
375.335	4.52
375.698	4.55
376.06	4.59
376.423	4.64
376.785	4.73
377.147	4.83
377.51	4.81
377.872	4.87
378.234	4.84
378.596	4.89
378.958	4.9
379.321	4.88
379.683	4.89
380.045	4.94
380.407	4.98
380.769	5.02
381.13	5.02
381.492	4.9
381.854	4.86
382.216	4.81
382.578	4.79
382.939	4.77
383.301	4.79
383.663	4.77
384.024	4.77
384.386	4.73
384.747	4.7
385.109	4.69
385.47	4.63
385.832	4.66
386.193	4.67
386.554	4.7
386.916	4.71
387.277	4.76
387.638	4.85
387.999	4.78
388.36	4.76
388.721	4.74
389.082	4.78
389.443	4.77
389.804	4.78
390.165	4.8
390.526	4.87
390.887	4.86
391.248	4.85
391.609	4.87
391.969	4.86
392.33	4.83
392.691	4.87
393.051	4.87
393.412	4.86
393.772	4.83
394.133	4.83
394.493	4.8
394.854	4.73
395.214	4.69
395.574	4.69
395.935	4.68
396.295	4.72
396.655	4.68
397.015	4.67
397.376	4.7
397.736	4.64
398.096	4.59
398.456	4.6
398.816	4.62
399.176	4.6
399.535	4.6
399.895	4.62
400.255	4.58
400.615	4.59
400.975	4.58
401.334	4.57
401.694	4.58
402.054	4.65
402.413	4.65
402.773	4.62
403.132	4.63
403.492	4.65
403.851	4.58
404.211	4.61
404.57	4.63
404.929	4.61
405.288	4.63
405.648	4.65
406.007	4.63
406.366	4.59
406.725	4.59
407.084	4.6
407.443	4.62
407.802	4.61
408.161	4.61
408.52	4.59
408.879	4.58
409.238	4.56
409.596	4.52
409.955	4.53
410.314	4.53
410.673	4.53
411.031	4.54
411.39	4.58
411.748	4.56
412.107	4.58
412.465	4.56
412.824	4.54
413.182	4.51
413.54	4.52
413.899	4.56
414.257	4.56
414.615	4.53
414.974	4.52
415.332	4.49
415.69	4.49
416.048	4.48
416.406	4.5
416.764	4.49
417.122	4.48
417.48	4.48
417.838	4.49
418.195	4.49
418.553	4.46
418.911	4.44
419.269	4.45
419.626	4.43
419.984	4.44
420.342	4.44
420.699	4.43
421.057	4.42
421.414	4.4
421.772	4.39
422.129	4.41
422.486	4.4
422.844	4.42
423.201	4.41
423.558	4.41
423.915	4.42
424.273	4.44
424.63	4.43
424.987	4.41
425.344	4.4
425.701	4.41
426.058	4.41
426.415	4.41
426.772	4.4
427.128	4.38
427.485	4.37
427.842	4.36
428.199	4.38
428.555	4.36
428.912	4.38
429.269	4.37
429.625	4.35
429.982	4.32
430.338	4.3
430.695	4.3
431.051	4.3
431.407	4.27
431.764	4.25
432.12	4.23
432.476	4.26
432.832	4.25
433.189	4.24
433.545	4.26
433.901	4.25
434.257	4.25
434.613	4.27
434.969	4.29
435.325	4.29
435.681	4.28
436.036	4.28
436.392	4.28
436.748	4.28
437.104	4.28
437.459	4.29
437.815	4.31
438.171	4.33
438.526	4.33
438.882	4.36
439.237	4.37
439.593	4.41
439.948	4.39
440.304	4.4
440.659	4.39
441.014	4.39
441.369	4.41
441.725	4.41
442.08	4.39
442.435	4.38
442.79	4.38
443.145	4.39
443.5	4.39
443.855	4.37
444.21	4.38
444.565	4.4
444.92	4.4
445.275	4.38
445.629	4.37
445.984	4.37
446.339	4.36
446.693	4.34
447.048	4.31
447.403	4.32
447.757	4.31
448.112	4.3
448.466	4.3
448.82	4.29
449.175	4.29
449.529	4.29
449.883	4.28
450.238	4.29
450.592	4.29
450.946	4.29
451.3	4.29
451.654	4.28
452.008	4.27
452.362	4.25
452.716	4.26
453.07	4.25
453.424	4.27
453.778	4.26
454.132	4.26
454.486	4.24
454.839	4.24
455.193	4.24
455.547	4.26
455.9	4.27
456.254	4.3
456.607	4.29
456.961	4.3
457.314	4.33
457.668	4.33
458.021	4.31
458.375	4.32
458.728	4.31
459.081	4.31
459.434	4.32
459.787	4.31
460.141	4.3
460.494	4.33
460.847	4.32
461.2	4.31
461.553	4.33
461.906	4.34
462.259	4.37
462.611	4.37
462.964	4.38
463.317	4.37
463.67	4.36
464.022	4.37
464.375	4.36
464.728	4.35
465.08	4.34
465.433	4.35
465.785	4.36
466.138	4.37
466.49	4.38
466.843	4.37
467.195	4.39
467.547	4.42
467.899	4.4
468.252	4.42
468.604	4.42
468.956	4.4
469.308	4.41
469.66	4.38
470.012	4.39
470.364	4.37
470.716	4.37
471.068	4.37
471.42	4.37
471.772	4.39
472.123	4.4
472.475	4.43
472.827	4.43
473.178	4.44
473.53	4.44
473.882	4.46
474.233	4.48
474.585	4.45
474.936	4.46
475.288	4.46
475.639	4.43
475.99	4.44
476.342	4.44
476.693	4.46
477.044	4.48
477.395	4.48
477.746	4.47
478.097	4.48
478.448	4.49
478.8	4.48
479.15	4.46
479.501	4.45
479.852	4.45
480.203	4.47
480.554	4.48
480.905	4.48
481.255	4.48
481.606	4.48
481.957	4.5
482.307	4.49
482.658	4.49
483.009	4.49
483.359	4.49
483.709	4.5
484.06	4.49
484.41	4.5
484.761	4.49
485.111	4.5
485.461	4.5
485.811	4.5
486.162	4.51
486.512	4.52
486.862	4.52
487.212	4.52
487.562	4.52
487.912	4.5
488.262	4.5
488.612	4.5
488.961	4.49
489.311	4.49
489.661	4.5
490.011	4.49
490.36	4.5
490.71	4.5
491.06	4.5
491.409	4.5
491.759	4.49
492.108	4.49
492.458	4.5
492.807	4.49
493.157	4.51
493.506	4.52
493.855	4.52
494.204	4.52
494.554	4.52
494.903	4.5
495.252	4.52
495.601	4.54
495.95	4.54
496.299	4.56
496.648	4.56
496.997	4.55
497.346	4.58
497.695	4.59
498.043	4.6
498.392	4.6
498.741	4.62
499.09	4.63
499.438	4.64
499.787	4.64
500.135	4.65
500.484	4.64
500.832	4.63
501.181	4.64
501.529	4.63
501.878	4.65
502.226	4.67
502.574	4.67
502.923	4.65
503.271	4.65
503.619	4.67
503.967	4.7
504.315	4.69
504.663	4.69
505.011	4.68
505.359	4.69
505.707	4.69
506.055	4.69
506.403	4.7
506.751	4.72
507.098	4.74
507.446	4.75
507.794	4.75
508.141	4.76
508.489	4.75
508.837	4.79
509.184	4.81
509.531	4.82
509.879	4.83
510.226	4.85
510.574	4.84
510.921	4.82
511.268	4.83
511.616	4.84
511.963	4.84
512.31	4.85
512.657	4.86
513.004	4.84
513.351	4.85
513.698	4.86
514.045	4.83
514.392	4.83
514.739	4.83
515.086	4.85
515.432	4.86
515.779	4.86
516.126	4.85
516.473	4.86
516.819	4.87
517.166	4.88
517.512	4.9
517.859	4.9
518.205	4.93
518.552	4.91
518.898	4.93
519.245	4.95
519.591	4.96
519.937	4.94
520.283	4.97
520.629	4.98
520.976	5
521.322	5.01
521.668	5
522.014	5
522.36	5.01
522.706	5.02
523.052	5.03
523.398	5.04
523.743	5.06
524.089	5.08
524.435	5.06
524.781	5.06
525.126	5.07
525.472	5.08
525.817	5.09
526.163	5.09
526.509	5.1
526.854	5.12
527.199	5.13
527.545	5.13
527.89	5.13
528.235	5.12
528.581	5.13
528.926	5.14
529.271	5.16
529.616	5.14
529.961	5.13
530.306	5.13
530.651	5.13
530.996	5.12
531.341	5.12
531.686	5.13
532.031	5.14
532.376	5.13
532.721	5.13
533.065	5.12
533.41	5.13
533.755	5.12
534.099	5.1
534.444	5.1
534.788	5.1
535.133	5.1
535.477	5.12
535.822	5.11
536.166	5.1
536.51	5.09
536.855	5.1
537.199	5.11
537.543	5.13
537.887	5.12
538.231	5.13
538.576	5.14
538.92	5.15
539.264	5.15
539.608	5.17
539.951	5.17
540.295	5.18
540.639	5.18
540.983	5.18
541.327	5.18
541.671	5.18
542.014	5.19
542.358	5.18
542.701	5.16
543.045	5.17
543.389	5.18
543.732	5.19
544.075	5.2
544.419	5.19
544.762	5.18
545.105	5.19
545.449	5.18
545.792	5.16
546.135	5.15
546.478	5.16
546.821	5.14
547.165	5.13
547.508	5.14
547.851	5.14
548.194	5.16
548.536	5.18
548.879	5.19
549.222	5.2
549.565	5.22
549.908	5.24
550.25	5.26
550.593	5.27
550.936	5.25
551.278	5.24
551.621	5.25
551.963	5.26
552.306	5.25
552.648	5.25
552.991	5.25
553.333	5.23
553.675	5.23
554.017	5.25
554.36	5.25
554.702	5.24
555.044	5.21
555.386	5.19
555.728	5.17
556.07	5.17
556.412	5.16
556.754	5.15
557.096	5.15
557.438	5.11
557.78	5.13
558.121	5.16
558.463	5.16
558.805	5.15
559.147	5.16
559.488	5.14
559.83	5.16
560.171	5.16
560.513	5.19
560.854	5.17
561.196	5.15
561.537	5.17
561.878	5.15
562.22	5.21
562.561	5.22
562.902	5.23
563.243	5.27
563.584	5.26
563.925	5.28
564.266	5.28
564.607	5.28
564.948	5.3
565.289	5.3
565.63	5.29
565.971	5.31
566.312	5.33
566.653	5.35
566.993	5.35
567.334	5.36
567.675	5.37
568.015	5.41
568.356	5.4
568.696	5.42
569.037	5.43
569.377	5.43
569.718	5.46
570.058	5.44
570.398	5.41
570.739	5.42
571.079	5.39
571.419	5.41
571.759	5.43
572.099	5.41
572.439	5.38
572.779	5.38
573.119	5.36
573.459	5.35
573.799	5.39
574.139	5.38
574.479	5.39
574.819	5.38
575.158	5.37
575.498	5.4
575.838	5.39
576.177	5.38
576.517	5.36
576.856	5.33
577.196	5.33
577.535	5.32
577.875	5.34
578.214	5.34
578.553	5.31
578.893	5.32
579.232	5.32
579.571	5.39
579.91	5.4
580.25	5.44
580.589	5.42
580.928	5.44
581.267	5.44
581.606	5.43
581.945	5.42
582.283	5.41
582.622	5.38
582.961	5.38
583.3	5.41
583.639	5.46
583.977	5.51
584.316	5.51
584.654	5.55
584.993	5.52
585.332	5.55
585.67	5.56
586.008	5.56
586.347	5.53
586.685	5.49
587.024	5.52
587.362	5.53
587.7	5.53
588.038	5.51
588.376	5.55
588.715	5.49
589.053	5.54
589.391	5.57
589.729	5.61
590.067	5.6
590.404	5.58
590.742	5.53
591.08	5.48
591.418	5.5
591.756	5.47
592.093	5.5
592.431	5.52
592.769	5.56
593.106	5.55
593.444	5.55
593.781	5.55
594.119	5.55
594.456	5.53
594.793	5.5
595.131	5.48
595.468	5.46
595.805	5.48
596.143	5.45
596.48	5.43
596.817	5.39
597.154	5.41
597.491	5.39
597.828	5.45
598.165	5.45
598.502	5.44
598.839	5.44
599.176	5.42
599.512	5.38
599.849	5.36
600.186	5.39
600.523	5.43
600.859	5.46
601.196	5.43
601.532	5.45
601.869	5.46
602.205	5.48
602.542	5.49
602.878	5.52
603.215	5.55
603.551	5.58
603.887	5.62
604.223	5.62
604.56	5.67
604.896	5.66
605.232	5.68
605.568	5.69
605.904	5.66
606.24	5.69
606.576	5.73
606.912	5.71
607.248	5.71
607.583	5.69
607.919	5.68
608.255	5.69
608.591	5.7
608.926	5.76
609.262	5.76
609.597	5.77
609.933	5.77
610.268	5.8
610.604	5.78
610.939	5.76
611.275	5.75
611.61	5.76
611.945	5.77
612.281	5.74
612.616	5.72
612.951	5.76
613.286	5.79
613.621	5.8
613.956	5.77
614.291	5.75
614.626	5.77
614.961	5.75
615.296	5.72
615.631	5.73
615.966	5.68
616.3	5.69
616.635	5.66
616.97	5.64
617.304	5.55
617.639	5.56
617.973	5.53
618.308	5.5
618.642	5.46
618.977	5.41
619.311	5.39
619.646	5.42
619.98	5.44
620.314	5.41
620.648	5.37
620.983	5.43
621.317	5.48
621.651	5.46
621.985	5.48
622.319	5.53
622.653	5.5
622.987	5.54
623.321	5.55
623.655	5.56
623.988	5.62
624.322	5.64
624.656	5.68
624.99	5.72
625.323	5.77
625.657	5.8
625.99	5.88
626.324	5.96
626.657	5.95
626.991	5.96
627.324	5.96
627.658	6
627.991	6
628.324	5.97
628.657	6.01
628.991	6.02
629.324	6.04
629.657	6.06
629.99	6.05
630.323	6.01
630.656	6.01
630.989	5.97
631.322	6.02
631.655	6
631.987	5.99
632.32	6
632.653	5.95
632.986	5.96
633.318	5.91
633.651	5.94
633.984	5.88
634.316	5.9
634.649	5.84
634.981	5.8
635.313	5.79
635.646	5.78
635.978	5.76
636.31	5.74
636.643	5.71
636.975	5.69
637.307	5.72
637.639	5.74
637.971	5.77
638.303	5.75
638.635	5.73
638.967	5.69
639.299	5.73
639.631	5.7
639.963	5.62
640.295	5.63
640.626	5.64
640.958	5.73
641.29	5.69
641.621	5.74
641.953	5.79
642.285	5.85
642.616	5.86
642.948	5.88
643.279	5.83
643.61	5.94
643.942	5.91
644.273	5.93
644.604	5.87
644.936	5.86
645.267	5.85
645.598	5.85
645.929	5.92
646.26	5.88
646.591	6
646.922	6
647.253	6
647.584	5.96
647.915	5.9
648.245	5.98
648.576	6.02
648.907	6.03
649.238	5.98
649.568	5.96
649.899	5.97
650.229	5.97
650.56	5.96
650.89	6.02
651.221	6.04
651.551	6.06
651.882	6.06
652.212	6.12
652.542	6.15
652.872	6.11
653.203	6.11
653.533	6.04
653.863	6.04
654.193	6.06
654.523	6.09
654.853	6.09
655.183	6.09
655.513	6.05
655.843	6.03
656.172	6.07
656.502	6.04
656.832	5.94
657.162	5.99
657.491	5.89
657.821	5.86
658.15	5.83
658.48	5.82
658.809	5.87
659.139	5.85
659.468	5.79
659.798	5.79
660.127	5.8
660.456	5.89
660.785	5.84
661.115	5.82
661.444	5.84
661.773	5.85
662.102	5.82
662.431	5.88
662.76	5.89
663.089	5.77
663.418	5.77
663.747	5.88
664.076	5.97
664.404	5.98
664.733	5.99
665.062	6
665.39	6.02
665.719	5.97
666.048	6.01
666.376	6.1
666.705	6.12
667.033	6.07
667.362	6.01
667.69	6.09
668.018	6.16
668.347	6.19
668.675	6.2
669.003	6.21
669.331	6.25
669.659	6.22
669.987	6.28
670.315	6.37
670.643	6.36
670.971	6.36
671.299	6.37
671.627	6.45
671.955	6.46
672.283	6.55
672.61	6.54
672.938	6.48
673.266	6.46
673.593	6.51
673.921	6.48
674.249	6.47
674.576	6.37
674.904	6.35
675.231	6.26
675.558	6.32
675.886	6.26
676.213	6.18
676.54	6.19
676.867	6.28
677.195	6.22
677.522	6.2
677.849	6.1
678.176	6.11
678.503	6.06
678.83	6.15
679.157	6.06
679.484	5.94
679.81	5.96
680.137	5.92
680.464	5.88
680.791	5.98
681.117	5.98
681.444	6.05
681.771	6
682.097	5.99
682.424	5.98
682.75	5.98
683.077	5.97
683.403	6.01
683.729	5.97
684.056	6
684.382	5.99
684.708	6.03
685.034	6.03
685.36	6.07
685.686	6
686.012	6.06
686.339	6.18
686.664	6.2
686.99	6.28
687.316	6.3
687.642	6.27
687.968	6.31
688.294	6.34
688.619	6.36
688.945	6.3
689.271	6.25
689.596	6.25
689.922	6.26
690.247	6.23
690.573	6.19
690.898	6.24
691.224	6.24
691.549	6.26
691.874	6.25
692.2	6.24
692.525	6.13
692.85	6.19
693.175	6.27
693.5	6.15
693.825	6.11
694.15	6
694.475	6.02
694.8	5.97
695.125	5.92
695.45	5.87
695.775	5.97
696.099	6.01
696.424	6.06
696.749	6.04
697.073	6.06
697.398	6.08
697.723	6.11
698.047	6.13
698.372	6.02
698.696	6.13
699.02	6.12
699.345	6.12
699.669	6.16
699.993	6.06
700.318	6.16
700.642	6.18
700.966	6.24
701.29	6.17
701.614	6.12
701.938	6.06
702.262	6.25
702.586	6.35
702.91	6.33
703.234	6.26
703.557	6.35
703.881	6.23
704.205	6.27
704.529	6.11
704.852	6.17
705.176	6.16
705.499	6.11
705.823	6.07
706.146	6.12
706.47	6.05
706.793	6.12
707.117	6.12
707.44	6.07
707.763	6.08
708.086	6.14
708.409	6.24
708.733	6.37
709.056	6.19
709.379	6.2
709.702	6.21
710.025	6.24
710.348	6.16
710.671	6.16
710.993	6.12
711.316	6.16
711.639	6.09
711.962	6.34
712.284	6.27
712.607	6.26
712.93	6.38
713.252	6.31
713.575	6.28
713.897	6.25
714.22	6.23
714.542	6.28
714.864	6.12
715.187	5.94
715.509	5.97
715.831	6.06
716.153	5.93
716.475	5.89
716.798	6.01
717.12	5.97
717.442	6.1
717.764	6.13
718.085	6.18
718.407	6.22
718.729	6.02
719.051	6.01
719.373	6.01
719.695	5.89
720.016	5.99
720.338	6.08
720.659	6.1
720.981	6.14
721.302	6.14
721.624	6.35
721.945	6.59
722.267	6.51
722.588	6.34
722.909	6.36
723.231	6.34
723.552	6.26
723.873	6.36
724.194	6.3
724.515	6.39
724.836	6.25
725.157	6.19
725.478	6.33
725.799	6.35
726.12	6.29
726.441	6.42
726.762	6.55
727.083	6.51
727.403	6.43
727.724	6.59
728.045	6.68
728.365	6.82
728.686	6.8
729.006	7
729.327	7.11
729.647	7.29
729.967	7.36
730.288	7.34
730.608	7.37
730.928	7.34
731.249	7.31
731.569	7.45
731.889	7.52
732.209	7.41
732.529	7.39
732.849	7.58
733.169	7.51
733.489	7.41
733.809	7.37
734.129	7.5
734.448	7.47
734.768	7.3
735.088	7.16
735.408	7.19
735.727	7.14
736.047	7.3
736.366	6.85
736.686	6.89
737.005	7.09
737.325	7.01
737.644	7.08
737.963	6.83
738.283	6.72
738.602	6.78
738.921	6.99
739.24	7.12
739.56	7.09
739.879	7.17
740.198	7.32
740.517	7.38
740.836	7.51
741.155	7.65
741.473	7.85
741.792	7.93
742.111	7.92
742.43	7.86
742.748	7.74
743.067	8.09
743.386	8.2
743.704	8.12
744.023	8.35
744.341	8.47
744.66	8.84
744.978	8.77
745.297	8.73
745.615	8.47
745.933	8.6
746.252	8.56
746.57	8.3
746.888	8.01
747.206	7.87
747.524	7.44
747.842	7.05
748.16	7.06
748.478	6.96
748.796	7.01
749.114	6.94
749.432	7.01
749.749	7.02
750.067	6.77
750.385	6.68
750.703	6.39
751.02	6.15
751.338	6.19
751.655	6.25
751.973	6.36
752.29	6.46
752.608	6.27
752.925	6.39
753.242	6.52
753.56	6.56
753.877	6.84
754.194	7.15
754.511	7.38
754.828	7.09
755.145	7.1
755.462	7.06
755.779	7.15
756.096	7.3
756.413	7.3
756.73	7.44
757.047	7.55
757.364	7.54
757.68	7.6
757.997	7.39
758.314	7.59
758.63	7.47
758.947	7.38
759.264	7.57
759.58	7.45
759.896	7.6
760.213	7.58
760.529	7.36
760.846	7.22
761.162	7.02
761.478	6.97
761.794	6.98
762.11	6.99
762.426	6.99
762.743	6.96
763.059	7
763.375	7
763.69	6.95
764.006	7
764.322	7.09
764.638	7.17
764.954	7.21
765.27	7.12
765.585	7.12
765.901	6.98
766.216	7.1
766.532	6.97
766.848	6.75
767.163	6.85
767.478	6.93
767.794	6.95
768.109	7.23
768.424	7.2
768.74	7.21
769.055	7.38
769.37	7.21
769.685	7.16
770	7.22
770.315	7.22
770.63	7.25
770.945	7.13
771.26	7.49
771.575	7.67
771.89	8.01
772.205	8.13
772.52	8.04
772.834	7.92
773.149	7.99
773.464	8.38
773.778	8.4
774.093	7.99
774.407	8.25
774.722	8.25
775.036	8.38
775.351	8.51
775.665	8.32
775.979	8.46
776.293	8.38
776.608	8.17
776.922	8.13
777.236	8.35
777.55	8.54
777.864	8.22
778.178	7.98
778.492	7.87
778.806	7.88
779.12	8.13
779.434	7.89
779.747	7.78
780.061	7.75
780.375	7.73
780.689	8.05
781.002	7.97
781.316	8.11
781.629	8.3
781.943	8.14
782.256	8.11
782.57	7.84
782.883	8.03
783.196	8.25
783.51	8.06
783.823	8.13
784.136	8.05
784.449	8.09
784.762	8.27
785.075	8.4
785.388	8.54
785.701	8.59
786.014	8.74
786.327	8.84
786.64	9.52
786.953	9.28
787.266	9.24
787.578	9.23
787.891	8.91
788.204	8.8
788.516	9.17
788.829	9.28
789.141	9.64
789.454	9.4
789.766	9.27
790.079	9.43
790.391	9.09
790.703	9.53
791.016	9.5
791.328	9.71
791.64	9.77
791.952	9.62
792.264	9.19
792.576	9.08
792.888	9.1
793.2	8.49
793.512	8.82
793.824	9.11
794.136	8.93
794.448	8.85
794.76	8.98
795.071	8.75
795.383	8.58
795.695	8.28
796.006	8.71
796.318	8.9
796.629	9.13
796.941	9.57
797.252	9.05
797.564	9.1
797.875	8.18
798.186	7.9
798.497	8.39
798.809	8.73
799.12	9.02
799.431	8.78
799.742	9.07
800.053	9.31
800.364	8.83
800.675	8.7
800.986	9.03
801.297	8.66
801.608	8.47
801.918	8.13
802.229	8.53
802.54	8.17
802.851	7.83
803.161	7.59
803.472	6.8
803.782	7.15
804.093	6.64
804.403	7.07
804.714	6.97
805.024	6.26
805.334	6.27
805.645	6.56
805.955	6.92
806.265	6.64
806.575	6
806.885	6.69
807.195	7.27
807.505	7.17
807.815	7.25
808.125	7.11
808.435	7.55
808.745	6.69
809.055	6.76
809.365	7.2
809.674	6.56
809.984	7.33
810.294	6.89
810.603	7.24
810.913	7.88
811.222	8.54
811.532	8.57
811.841	8.66
812.151	8.57
812.46	8.76
812.769	8.55
813.079	8.75
813.388	8.51
813.697	8.23
814.006	8.13
814.315	8.59
814.624	8.63
814.933	8.72
815.242	9.1
815.551	9.09
815.86	9.27
816.169	9.8
816.478	9.54
816.786	9.37
817.095	9.94
817.404	9.41
817.712	8.87
818.021	9.63
818.33	9.93
818.638	9.56
818.947	9.64
819.255	9.91
819.563	9.68
819.872	9.41
820.18	9.7
820.488	9.74
820.796	9.59
821.105	9.69
821.413	9.65
821.721	9.58
822.029	9.83
822.337	9.67
822.645	9.58
822.953	9.55
823.26	9.67
823.568	9.48
823.876	9.56
824.184	9.6
824.491	9.48
824.799	9.4
825.107	9.55
825.414	9.53
825.722	9.42
826.029	9.72
826.337	9.66
826.644	9.55
826.951	9.55
827.259	9.33
827.566	9.22
827.873	9.14
828.18	9.39
828.488	8.98
828.795	9.1
829.102	9.04
829.409	9.1
829.716	8.83
830.023	9.1
830.329	9.07
830.636	9.16
830.943	8.91
831.25	8.93
831.557	8.75
831.863	8.8
832.17	8.89
832.476	8.76
832.783	8.95
833.089	8.91
833.396	9.17
833.702	9.84
834.009	10.12
834.315	9.96
834.621	9.51
834.928	9.89
835.234	9.73
835.54	10.17
835.846	10.35
836.152	10.18
836.458	10.11
836.764	9.88
837.07	9.98
837.376	10.16
837.682	10.2
837.988	10
838.293	9.87
838.599	10.28
838.905	9.97
839.211	10.27
839.516	10.88
839.822	11.03
840.127	10.69
840.433	10.75
840.738	11.3
841.044	11.99
841.349	12.72
841.654	12.76
841.959	12.96
842.265	12.74
842.57	14.5
842.875	14.14
843.18	15.26
843.485	15.47
843.79	16.36
844.095	15.06
844.4	15.11
844.705	14.54
845.01	13.63
845.315	13.91
845.619	14.56
845.924	13.99
846.229	14.2
846.533	14.86
846.838	14.29
847.142	12.97
847.447	11.99
847.751	10.67
848.056	10.08
848.36	10.6
848.664	10.68
848.969	9.27
849.273	10.34
849.577	8.44
849.881	7.91
850.185	7.28
850.489	10.12
850.794	10.81
851.097	13.28
851.401	14.91
851.705	13.34
852.009	13.15
852.313	12.19
852.617	10.79
852.92	12.1
853.224	12.32
853.528	14.24
853.831	13.62
854.135	14.03
854.438	13.75
854.742	11.85
855.045	12.89
855.349	14.16
855.652	13.46
855.955	13.96
856.259	13.04
856.562	13.81
856.865	13.35
857.168	14.16
857.471	13.15
857.774	12.24
858.077	13.2
858.38	13.42
858.683	13.66
858.986	15.67
859.289	14.94
859.592	16.69
859.894	17.19
860.197	17.96
860.5	18
860.802	18.99
861.105	20.25
861.407	19.33
861.71	17.44
862.012	18.51
862.315	18.3
862.617	17.37
862.919	17.13
863.222	18.42
863.524	17.15
863.826	16.23
864.128	15.12
864.43	15.96
864.732	14.44
865.034	14.33
865.336	11.63
865.638	11.37
865.94	9.85
866.242	9.31
866.544	8.84
866.846	7.18
867.147	7.67
867.449	8.65
867.751	8.04
868.052	10.67
868.354	8.24
868.655	8.69
868.957	8.62
869.258	9.48
869.56	7.34
869.861	7.44
870.162	7.93
870.463	7.77
870.765	6.99
871.066	6.72
871.367	6.66
871.668	6.12
871.969	6.09
872.27	3.82
872.571	4.12
872.872	5.86
873.173	6.24
873.473	6.26
873.774	4.87
874.075	5.88
874.376	4.37
874.676	5.65
874.977	3.1
875.277	5.53
875.578	4.77
875.878	5.08
876.179	5.17
876.479	4.7
876.78	5.17
877.08	5.46
877.38	6.19
877.68	6.32
877.981	8.54
878.281	8.28
878.581	12.77
