Data from BA57715_Reflection_00007.txt Node
Date: Mon Nov 18 15:25:59 EST 2019
User: vgr7
Spectrometer: USB2G7710
Scans to average: 3
Trigger mode: 4
Integration Time (sec): 2.000000E-2
Electric dark correction enabled: true
Boxcar width: 10
XAxis mode: Wavelengths
Number of Pixels in Spectrum: 2048
>>>>>Begin Spectral Data<<<<<
177.721	49.71
178.105	36.51
178.488	25.02
178.871	69.16
179.254	165.42
179.636	84.51
180.019	94.01
180.402	41.67
180.785	123.92
181.168	-266.07
181.55	-226.73
181.933	39.33
182.316	57.24
182.698	101.63
183.081	68.12
183.463	-27.07
183.846	44.98
184.228	184.34
184.611	95.56
184.993	-233.33
185.376	-53.44
185.758	91.15
186.14	-13.77
186.522	7.1
186.904	-112.12
187.287	-51.52
187.669	256.63
188.051	52.38
188.433	-146.38
188.815	-42.86
189.197	-186.82
189.579	-125.53
189.961	-274.15
190.342	-103.01
190.724	-47.23
191.106	-65.56
191.488	-113.61
191.869	-109.47
192.251	-132.6
192.633	-100.62
193.014	-177.39
193.396	-299.14
193.777	-346.33
194.159	1206.67
194.54	-421.53
194.922	-132.6
195.303	-126.39
195.684	-260.23
196.065	-181.17
196.447	-180.6
196.828	-231.91
197.209	-191.01
197.59	-377.74
197.971	-193.91
198.352	-145.28
198.733	-123.61
199.114	-147.36
199.495	-158.22
199.876	-104.67
200.257	-78.81
200.638	-60.19
201.018	-86.16
201.399	-103.17
201.78	-110.21
202.16	-85.6
202.541	-103.34
202.922	-160.08
203.302	-208.27
203.683	-95.22
204.063	-112.12
204.444	-141.65
204.824	-124.32
205.204	-82.8
205.585	-28.78
205.965	-33.79
206.345	-56.2
206.725	-149.32
207.106	-136.15
207.486	-282.24
207.866	-1096.08
208.246	606.17
208.626	-1070.21
209.006	-52.54
209.386	-75.38
209.766	-73.25
210.145	-51.87
210.525	-29.29
210.905	-31.68
211.285	-36.61
211.664	-69.99
212.044	-81.7
212.424	-63.78
212.803	-71.89
213.183	-63.36
213.562	-55.52
213.942	-46.62
214.321	-33.6
214.701	-33.05
215.08	-30.92
215.459	-7.61
215.838	1.06
216.218	-5.18
216.597	-10.8
216.976	-19.42
217.355	-2.38
217.734	6.75
218.113	-6.14
218.492	-11.28
218.871	-11.02
219.25	-8.81
219.629	0.22
220.008	-2.11
220.387	-2.87
220.766	1.94
221.144	-12.42
221.523	-18.83
221.902	-20.32
222.28	-14.1
222.659	-10.59
223.037	-4.67
223.416	-15.06
223.794	-27.27
224.173	-17.36
224.551	-10.56
224.929	-5.29
225.308	-13.73
225.686	-8.06
226.064	2.72
226.442	2.62
226.821	1.31
227.199	-2.12
227.577	-5.1
227.955	-2.88
228.333	-3.79
228.711	-2.15
229.089	2.73
229.467	0.56
229.845	0.98
230.222	1.29
230.6	1.37
230.978	-0.73
231.356	0.62
231.733	2.38
232.111	2.68
232.488	3.05
232.866	3.06
233.243	2.3
233.621	-0.36
233.998	0.55
234.376	1.09
234.753	3.24
235.13	4.81
235.508	6.68
235.885	5.61
236.262	6.17
236.639	4.8
237.016	4.07
237.393	6.03
237.77	6.38
238.147	6.31
238.524	6.15
238.901	7.44
239.278	7.1
239.655	6.55
240.032	5.97
240.409	5.16
240.785	4.73
241.162	4.73
241.539	5.01
241.915	4.71
242.292	4.17
242.668	3.6
243.045	3.37
243.421	2.88
243.798	2.87
244.174	2.98
244.551	2.99
244.927	2.79
245.303	3.06
245.679	3.09
246.056	2.86
246.432	2.77
246.808	2.61
247.184	2.13
247.56	1.99
247.936	1.73
248.312	2.08
248.688	2.3
249.064	2.24
249.44	2.41
249.815	2.38
250.191	2.28
250.567	2.42
250.943	2.21
251.318	2.3
251.694	2.68
252.069	2.48
252.445	2.48
252.82	2.63
253.196	2.02
253.571	2.12
253.947	2.18
254.322	2.3
254.697	2.25
255.073	2.15
255.448	2.11
255.823	2.51
256.198	2.33
256.573	2.26
256.948	2.45
257.323	2.43
257.698	2.24
258.073	2.4
258.448	2.14
258.823	2.26
259.198	2.19
259.573	1.86
259.948	1.95
260.322	1.97
260.697	1.83
261.072	2.05
261.446	1.86
261.821	1.68
262.195	1.73
262.57	1.7
262.944	1.99
263.319	2.15
263.693	2.08
264.067	2.21
264.442	2.39
264.816	2.31
265.19	2.22
265.564	2.33
265.938	2.21
266.313	2.44
266.687	2.45
267.061	2.7
267.435	2.81
267.809	2.88
268.183	2.93
268.556	2.97
268.93	2.82
269.304	2.79
269.678	2.95
270.051	2.98
270.425	2.91
270.799	2.82
271.172	2.8
271.546	2.7
271.919	2.58
272.293	2.36
272.666	2.51
273.04	2.51
273.413	2.54
273.787	2.51
274.16	2.44
274.533	2.37
274.906	2.18
275.279	2.16
275.653	2.14
276.026	2.17
276.399	2.26
276.772	2.39
277.145	2.29
277.518	2.35
277.891	2.24
278.263	2.18
278.636	2.23
279.009	2.21
279.382	2.32
279.755	2.25
280.127	2.5
280.5	2.43
280.872	2.61
281.245	2.58
281.617	2.67
281.99	2.83
282.362	2.85
282.735	2.8
283.107	2.77
283.479	2.86
283.852	2.73
284.224	2.66
284.596	2.55
284.968	2.67
285.34	2.66
285.713	2.65
286.085	2.71
286.457	2.78
286.829	2.79
287.201	2.93
287.572	2.85
287.944	2.73
288.316	2.66
288.688	2.58
289.06	2.54
289.431	2.51
289.803	2.52
290.175	2.63
290.546	2.8
290.918	2.79
291.289	2.81
291.661	3
292.032	3.06
292.403	3.16
292.775	3.28
293.146	3.14
293.517	3.23
293.889	3.37
294.26	3.37
294.631	3.37
295.002	3.19
295.373	3.34
295.744	3.34
296.115	3.35
296.486	3.31
296.857	3.45
297.228	3.61
297.599	3.59
297.97	3.55
298.34	3.45
298.711	3.61
299.082	3.68
299.452	3.67
299.823	3.75
300.194	3.73
300.564	3.62
300.935	3.81
301.305	3.85
301.676	3.89
302.046	3.9
302.416	3.97
302.787	4
303.157	4.1
303.527	4.07
303.897	4.24
304.267	4.38
304.637	4.34
305.008	4.31
305.378	4.51
305.748	4.58
306.117	4.71
306.487	4.72
306.857	4.67
307.227	4.63
307.597	4.55
307.967	4.6
308.336	4.78
308.706	4.77
309.076	4.86
309.445	4.75
309.815	4.77
310.184	4.75
310.554	4.95
310.923	4.95
311.293	5.03
311.662	5.08
312.031	5.1
312.401	5.18
312.77	5.16
313.139	5.22
313.508	5.27
313.877	5.36
314.246	5.44
314.616	5.35
314.985	5.42
315.353	5.47
315.722	5.63
316.091	5.57
316.46	5.62
316.829	5.6
317.198	5.8
317.567	5.85
317.935	5.87
318.304	5.93
318.672	6.08
319.041	6.18
319.41	6.08
319.778	6.18
320.147	6.21
320.515	6.25
320.883	6.11
321.252	6.11
321.62	6.11
321.988	6.2
322.357	6.33
322.725	6.41
323.093	6.64
323.461	6.63
323.829	6.78
324.197	6.84
324.565	6.92
324.933	6.86
325.301	6.94
325.669	7.04
326.037	6.99
326.405	7.13
326.772	7.22
327.14	7.42
327.508	7.41
327.875	7.53
328.243	7.75
328.61	7.77
328.978	7.85
329.346	7.98
329.713	7.9
330.08	8.03
330.448	7.96
330.815	7.99
331.182	8.07
331.55	8.21
331.917	8.2
332.284	8.34
332.651	8.44
333.018	8.6
333.385	8.69
333.752	8.8
334.119	8.6
334.486	8.6
334.853	8.53
335.22	8.63
335.587	8.66
335.954	8.6
336.32	8.63
336.687	8.73
337.054	8.73
337.42	8.85
337.787	8.82
338.153	8.9
338.52	8.95
338.886	8.92
339.253	8.82
339.619	8.92
339.986	8.85
340.352	8.89
340.718	8.82
341.084	8.9
341.451	9.05
341.817	9.28
342.183	9.26
342.549	9.35
342.915	9.39
343.281	9.43
343.647	9.48
344.013	9.58
344.379	9.49
344.745	9.6
345.11	9.6
345.476	9.62
345.842	9.71
346.208	9.65
346.573	9.71
346.939	9.8
347.304	9.78
347.67	9.82
348.035	9.81
348.401	9.79
348.766	9.74
349.132	9.62
349.497	9.57
349.862	9.68
350.228	9.65
350.593	9.57
350.958	9.55
351.323	9.52
351.688	9.43
352.053	9.54
352.418	9.49
352.783	9.56
353.148	9.52
353.513	9.47
353.878	9.42
354.243	9.45
354.608	9.48
354.972	9.49
355.337	9.4
355.702	9.45
356.066	9.57
356.431	9.65
356.795	9.61
357.16	9.58
357.524	9.46
357.889	9.4
358.253	9.36
358.618	9.32
358.982	9.38
359.346	9.33
359.71	9.24
360.075	9.17
360.439	9.1
360.803	9.14
361.167	9.13
361.531	9.14
361.895	9.05
362.259	8.99
362.623	9.01
362.987	9.07
363.351	9.03
363.714	8.97
364.078	8.87
364.442	8.91
364.806	8.81
365.169	8.84
365.533	8.9
365.896	8.88
366.26	8.81
366.623	8.67
366.987	8.7
367.35	8.72
367.714	8.67
368.077	8.69
368.44	8.58
368.803	8.57
369.167	8.53
369.53	8.53
369.893	8.47
370.256	8.37
370.619	8.25
370.982	8.14
371.345	8.05
371.708	8.04
372.071	7.9
372.434	7.92
372.797	7.87
373.159	7.75
373.522	7.74
373.885	7.71
374.247	7.66
374.61	7.57
374.973	7.46
375.335	7.44
375.698	7.33
376.06	7.24
376.423	7.18
376.785	7.15
377.147	7.11
377.51	7.08
377.872	7.09
378.234	7.08
378.596	6.99
378.958	6.91
379.321	6.82
379.683	6.8
380.045	6.74
380.407	6.65
380.769	6.59
381.13	6.5
381.492	6.47
381.854	6.5
382.216	6.45
382.578	6.44
382.939	6.36
383.301	6.32
383.663	6.32
384.024	6.25
384.386	6.21
384.747	6.15
385.109	6.08
385.47	5.95
385.832	5.93
386.193	5.94
386.554	5.92
386.916	5.88
387.277	5.83
387.638	5.83
387.999	5.77
388.36	5.75
388.721	5.73
389.082	5.67
389.443	5.57
389.804	5.52
390.165	5.47
390.526	5.45
390.887	5.37
391.248	5.34
391.609	5.32
391.969	5.28
392.33	5.21
392.691	5.16
393.051	5.17
393.412	5.12
393.772	5.05
394.133	4.97
394.493	4.94
394.854	4.86
395.214	4.81
395.574	4.76
395.935	4.71
396.295	4.67
396.655	4.63
397.015	4.62
397.376	4.57
397.736	4.55
398.096	4.5
398.456	4.51
398.816	4.46
399.176	4.35
399.535	4.3
399.895	4.28
400.255	4.24
400.615	4.19
400.975	4.15
401.334	4.12
401.694	4.08
402.054	4.04
402.413	4.03
402.773	3.97
403.132	3.97
403.492	3.94
403.851	3.89
404.211	3.86
404.57	3.82
404.929	3.83
405.288	3.8
405.648	3.77
406.007	3.75
406.366	3.72
406.725	3.78
407.084	3.74
407.443	3.74
407.802	3.74
408.161	3.7
408.52	3.66
408.879	3.61
409.238	3.62
409.596	3.62
409.955	3.63
410.314	3.63
410.673	3.59
411.031	3.56
411.39	3.55
411.748	3.56
412.107	3.56
412.465	3.51
412.824	3.47
413.182	3.44
413.54	3.42
413.899	3.41
414.257	3.39
414.615	3.35
414.974	3.33
415.332	3.31
415.69	3.3
416.048	3.3
416.406	3.33
416.764	3.3
417.122	3.29
417.48	3.24
417.838	3.23
418.195	3.24
418.553	3.21
418.911	3.2
419.269	3.16
419.626	3.14
419.984	3.14
420.342	3.11
420.699	3.09
421.057	3.08
421.414	3.06
421.772	3.03
422.129	3.03
422.486	3.01
422.844	2.99
423.201	2.97
423.558	2.96
423.915	2.94
424.273	2.94
424.63	2.91
424.987	2.91
425.344	2.9
425.701	2.86
426.058	2.87
426.415	2.86
426.772	2.86
427.128	2.84
427.485	2.83
427.842	2.82
428.199	2.85
428.555	2.83
428.912	2.84
429.269	2.83
429.625	2.83
429.982	2.8
430.338	2.79
430.695	2.79
431.051	2.78
431.407	2.77
431.764	2.75
432.12	2.74
432.476	2.72
432.832	2.71
433.189	2.73
433.545	2.73
433.901	2.72
434.257	2.72
434.613	2.73
434.969	2.72
435.325	2.71
435.681	2.7
436.036	2.7
436.392	2.69
436.748	2.69
437.104	2.67
437.459	2.68
437.815	2.68
438.171	2.68
438.526	2.69
438.882	2.68
439.237	2.68
439.593	2.69
439.948	2.67
440.304	2.68
440.659	2.68
441.014	2.67
441.369	2.65
441.725	2.64
442.08	2.62
442.435	2.62
442.79	2.62
443.145	2.6
443.5	2.59
443.855	2.58
444.21	2.59
444.565	2.59
444.92	2.6
445.275	2.58
445.629	2.57
445.984	2.56
446.339	2.56
446.693	2.54
447.048	2.53
447.403	2.53
447.757	2.52
448.112	2.49
448.466	2.49
448.82	2.5
449.175	2.5
449.529	2.5
449.883	2.48
450.238	2.47
450.592	2.47
450.946	2.45
451.3	2.46
451.654	2.44
452.008	2.43
452.362	2.42
452.716	2.43
453.07	2.43
453.424	2.43
453.778	2.42
454.132	2.43
454.486	2.43
454.839	2.42
455.193	2.42
455.547	2.41
455.9	2.43
456.254	2.43
456.607	2.44
456.961	2.44
457.314	2.45
457.668	2.46
458.021	2.45
458.375	2.47
458.728	2.47
459.081	2.47
459.434	2.47
459.787	2.46
460.141	2.46
460.494	2.46
460.847	2.46
461.2	2.45
461.553	2.47
461.906	2.47
462.259	2.48
462.611	2.5
462.964	2.53
463.317	2.52
463.67	2.51
464.022	2.5
464.375	2.49
464.728	2.5
465.08	2.51
465.433	2.5
465.785	2.51
466.138	2.52
466.49	2.52
466.843	2.5
467.195	2.52
467.547	2.55
467.899	2.56
468.252	2.56
468.604	2.58
468.956	2.56
469.308	2.56
469.66	2.56
470.012	2.55
470.364	2.54
470.716	2.56
471.068	2.56
471.42	2.58
471.772	2.6
472.123	2.61
472.475	2.62
472.827	2.66
473.178	2.67
473.53	2.66
473.882	2.67
474.233	2.71
474.585	2.72
474.936	2.7
475.288	2.71
475.639	2.72
475.99	2.73
476.342	2.72
476.693	2.72
477.044	2.74
477.395	2.75
477.746	2.74
478.097	2.73
478.448	2.73
478.8	2.72
479.15	2.69
479.501	2.68
479.852	2.67
480.203	2.66
480.554	2.65
480.905	2.65
481.255	2.65
481.606	2.65
481.957	2.64
482.307	2.63
482.658	2.63
483.009	2.61
483.359	2.62
483.709	2.63
484.06	2.63
484.41	2.63
484.761	2.62
485.111	2.62
485.461	2.63
485.811	2.62
486.162	2.62
486.512	2.64
486.862	2.64
487.212	2.65
487.562	2.65
487.912	2.66
488.262	2.67
488.612	2.67
488.961	2.68
489.311	2.69
489.661	2.7
490.011	2.7
490.36	2.72
490.71	2.72
491.06	2.73
491.409	2.74
491.759	2.75
492.108	2.76
492.458	2.78
492.807	2.79
493.157	2.8
493.506	2.82
493.855	2.83
494.204	2.85
494.554	2.86
494.903	2.87
495.252	2.91
495.601	2.92
495.95	2.96
496.299	2.98
496.648	2.99
496.997	3.03
497.346	3.09
497.695	3.11
498.043	3.15
498.392	3.17
498.741	3.2
499.09	3.23
499.438	3.27
499.787	3.31
500.135	3.37
500.484	3.43
500.832	3.47
501.181	3.54
501.529	3.56
501.878	3.62
502.226	3.68
502.574	3.71
502.923	3.74
503.271	3.79
503.619	3.83
503.967	3.89
504.315	3.94
504.663	3.98
505.011	4.03
505.359	4.07
505.707	4.12
506.055	4.21
506.403	4.28
506.751	4.33
507.098	4.39
507.446	4.45
507.794	4.47
508.141	4.53
508.489	4.59
508.837	4.68
509.184	4.74
509.531	4.79
509.879	4.86
510.226	4.95
510.574	5.03
510.921	5.11
511.268	5.15
511.616	5.22
511.963	5.3
512.31	5.39
512.657	5.47
513.004	5.56
513.351	5.64
513.698	5.74
514.045	5.84
514.392	5.93
514.739	6.02
515.086	6.12
515.432	6.2
515.779	6.28
516.126	6.4
516.473	6.49
516.819	6.58
517.166	6.68
517.512	6.77
517.859	6.86
518.205	6.94
518.552	7.06
518.898	7.15
519.245	7.24
519.591	7.34
519.937	7.44
520.283	7.56
520.629	7.67
520.976	7.76
521.322	7.9
521.668	8.03
522.014	8.17
522.36	8.34
522.706	8.5
523.052	8.68
523.398	8.85
523.743	9.03
524.089	9.24
524.435	9.42
524.781	9.6
525.126	9.76
525.472	9.93
525.817	10.08
526.163	10.22
526.509	10.35
526.854	10.45
527.199	10.58
527.545	10.72
527.89	10.85
528.235	10.98
528.581	11.1
528.926	11.23
529.271	11.37
529.616	11.5
529.961	11.66
530.306	11.8
530.651	11.96
530.996	12.13
531.341	12.3
531.686	12.47
532.031	12.66
532.376	12.86
532.721	13.04
533.065	13.23
533.41	13.44
533.755	13.67
534.099	13.9
534.444	14.13
534.788	14.35
535.133	14.55
535.477	14.78
535.822	15.02
536.166	15.3
536.51	15.57
536.855	15.84
537.199	16.13
537.543	16.43
537.887	16.73
538.231	17
538.576	17.31
538.92	17.63
539.264	17.91
539.608	18.19
539.951	18.48
540.295	18.73
540.639	18.96
540.983	19.18
541.327	19.42
541.671	19.64
542.014	19.86
542.358	20.1
542.701	20.34
543.045	20.57
543.389	20.79
543.732	21.02
544.075	21.27
544.419	21.5
544.762	21.77
545.105	22.02
545.449	22.29
545.792	22.55
546.135	22.8
546.478	23.12
546.821	23.42
547.165	23.72
547.508	24.04
547.851	24.35
548.194	24.67
548.536	24.97
548.879	25.3
549.222	25.62
549.565	25.91
549.908	26.21
550.25	26.54
550.593	26.85
550.936	27.14
551.278	27.43
551.621	27.78
551.963	28.05
552.306	28.32
552.648	28.63
552.991	28.92
553.333	29.22
553.675	29.49
554.017	29.74
554.36	30.02
554.702	30.25
555.044	30.55
555.386	30.84
555.728	31.16
556.07	31.43
556.412	31.7
556.754	31.99
557.096	32.28
557.438	32.53
557.78	32.76
558.121	33.07
558.463	33.35
558.805	33.55
559.147	33.81
559.488	34.06
559.83	34.29
560.171	34.54
560.513	34.73
560.854	34.93
561.196	35.17
561.537	35.37
561.878	35.61
562.22	35.85
562.561	36.05
562.902	36.27
563.243	36.45
563.584	36.64
563.925	36.89
564.266	37.08
564.607	37.25
564.948	37.42
565.289	37.56
565.63	37.74
565.971	37.93
566.312	38.1
566.653	38.25
566.993	38.4
567.334	38.53
567.675	38.69
568.015	38.82
568.356	38.94
568.696	39.17
569.037	39.31
569.377	39.45
569.718	39.6
570.058	39.71
570.398	39.88
570.739	40.02
571.079	40.1
571.419	40.22
571.759	40.37
572.099	40.51
572.439	40.65
572.779	40.77
573.119	40.92
573.459	41.03
573.799	41.18
574.139	41.3
574.479	41.39
574.819	41.52
575.158	41.65
575.498	41.81
575.838	41.82
576.177	41.93
576.517	42.05
576.856	42.11
577.196	42.2
577.535	42.32
577.875	42.44
578.214	42.54
578.553	42.7
578.893	42.82
579.232	42.95
579.571	43.08
579.91	43.17
580.25	43.25
580.589	43.33
580.928	43.41
581.267	43.54
581.606	43.73
581.945	43.86
582.283	43.95
582.622	44.01
582.961	44.13
583.3	44.32
583.639	44.36
583.977	44.47
584.316	44.59
584.654	44.6
584.993	44.69
585.332	44.81
585.67	44.79
586.008	44.87
586.347	44.9
586.685	44.92
587.024	45.02
587.362	45.1
587.7	45.15
588.038	45.25
588.376	45.23
588.715	45.27
589.053	45.38
589.391	45.5
589.729	45.56
590.067	45.61
590.404	45.59
590.742	45.72
591.08	45.78
591.418	45.79
591.756	45.84
592.093	45.9
592.431	45.92
592.769	46.04
593.106	46.08
593.444	46.2
593.781	46.29
594.119	46.4
594.456	46.47
594.793	46.56
595.131	46.55
595.468	46.61
595.805	46.7
596.143	46.68
596.48	46.67
596.817	46.75
597.154	46.83
597.491	46.84
597.828	46.89
598.165	46.99
598.502	47.08
598.839	47.21
599.176	47.2
599.512	47.27
599.849	47.36
600.186	47.42
600.523	47.4
600.859	47.34
601.196	47.35
601.532	47.36
601.869	47.37
602.205	47.49
602.542	47.56
602.878	47.58
603.215	47.58
603.551	47.58
603.887	47.62
604.223	47.63
604.56	47.68
604.896	47.66
605.232	47.64
605.568	47.67
605.904	47.62
606.24	47.68
606.576	47.67
606.912	47.63
607.248	47.65
607.583	47.74
607.919	47.91
608.255	47.91
608.591	47.92
608.926	47.95
609.262	47.93
609.597	47.99
609.933	48.02
610.268	48.09
610.604	48.17
610.939	48.24
611.275	48.32
611.61	48.37
611.945	48.47
612.281	48.54
612.616	48.55
612.951	48.64
613.286	48.68
613.621	48.78
613.956	48.82
614.291	48.86
614.626	48.89
614.961	48.84
615.296	48.81
615.631	48.9
615.966	48.95
616.3	49.07
616.635	49.08
616.97	49.05
617.304	49.09
617.639	49.09
617.973	49.02
618.308	48.99
618.642	48.97
618.977	48.88
619.311	48.88
619.646	48.9
619.98	48.92
620.314	48.98
620.648	48.99
620.983	49.04
621.317	49.02
621.651	48.99
621.985	48.96
622.319	49.13
622.653	49.13
622.987	49.17
623.321	49.14
623.655	49.13
623.988	49.17
624.322	49.12
624.656	49.19
624.99	49.24
625.323	49.24
625.657	49.21
625.99	49.37
626.324	49.34
626.657	49.43
626.991	49.44
627.324	49.45
627.658	49.47
627.991	49.48
628.324	49.61
628.657	49.62
628.991	49.68
629.324	49.68
629.657	49.71
629.99	49.67
630.323	49.67
630.656	49.75
630.989	49.84
631.322	49.93
631.655	49.96
631.987	49.94
632.32	49.92
632.653	50.01
632.986	49.93
633.318	49.93
633.651	49.91
633.984	49.9
634.316	49.83
634.649	49.81
634.981	49.87
635.313	49.79
635.646	49.85
635.978	49.8
636.31	49.79
636.643	49.75
636.975	49.73
637.307	49.78
637.639	49.77
637.971	49.71
638.303	49.6
638.635	49.53
638.967	49.55
639.299	49.56
639.631	49.58
639.963	49.6
640.295	49.71
640.626	49.77
640.958	49.79
641.29	49.93
641.621	49.99
641.953	50
642.285	50.07
642.616	50.17
642.948	50.27
643.279	50.27
643.61	50.36
643.942	50.39
644.273	50.3
644.604	50.26
644.936	50.24
645.267	50.35
645.598	50.4
645.929	50.37
646.26	50.46
646.591	50.46
646.922	50.41
647.253	50.37
647.584	50.34
647.915	50.29
648.245	50.2
648.576	50.11
648.907	50.02
649.238	49.96
649.568	49.86
649.899	49.9
650.229	49.93
650.56	49.97
650.89	50.06
651.221	50.07
651.551	50.1
651.882	50.08
652.212	50.11
652.542	50.05
652.872	50.18
653.203	50.22
653.533	50.25
653.863	50.36
654.193	50.37
654.523	50.4
654.853	50.42
655.183	50.6
655.513	50.64
655.843	50.67
656.172	50.69
656.502	50.85
656.832	50.73
657.162	50.81
657.491	50.82
657.821	50.75
658.15	50.88
658.48	50.9
658.809	51.07
659.139	51.1
659.468	51.15
659.798	51.17
660.127	51.09
660.456	51.12
660.785	51.11
661.115	51.07
661.444	50.96
661.773	50.96
662.102	50.91
662.431	50.92
662.76	50.98
663.089	51.01
663.418	50.84
663.747	50.94
664.076	50.86
664.404	50.82
664.733	50.93
665.062	50.84
665.39	50.92
665.719	50.8
666.048	50.69
666.376	50.66
666.705	50.64
667.033	50.62
667.362	50.64
667.69	50.61
668.018	50.7
668.347	50.79
668.675	50.79
669.003	50.76
669.331	50.86
669.659	50.79
669.987	50.8
670.315	50.87
670.643	50.79
670.971	50.75
671.299	50.77
671.627	50.76
671.955	50.86
672.283	50.84
672.61	50.79
672.938	50.95
673.266	50.88
673.593	50.8
673.921	50.88
674.249	50.91
674.576	50.87
674.904	50.86
675.231	50.73
675.558	50.9
675.886	50.72
676.213	50.63
676.54	50.63
676.867	50.7
677.195	50.64
677.522	50.71
677.849	50.76
678.176	50.66
678.503	50.73
678.83	50.7
679.157	50.64
679.484	50.69
679.81	50.63
680.137	50.87
680.464	50.89
680.791	50.8
681.117	50.7
681.444	50.71
681.771	50.66
682.097	50.8
682.424	50.79
682.75	50.94
683.077	51
683.403	51.11
683.729	51.09
684.056	51.06
684.382	51.14
684.708	51.05
685.034	51.12
685.36	51.04
685.686	50.92
686.012	50.98
686.339	51.04
686.664	50.96
686.99	50.77
687.316	50.94
687.642	51.14
687.968	51.14
688.294	51.3
688.619	51.38
688.945	51.44
689.271	51.3
689.596	51.2
689.922	51.06
690.247	50.99
690.573	51
690.898	51.08
691.224	50.94
691.549	51.06
691.874	51.09
692.2	51.1
692.525	51.26
692.85	51.23
693.175	51.15
693.5	51.21
693.825	51.36
694.15	51.14
694.475	51.09
694.8	51.15
695.125	51.1
695.45	51.13
695.775	51.11
696.099	51.21
696.424	51.22
696.749	51.28
697.073	51.45
697.398	51.37
697.723	51.35
698.047	51.37
698.372	51.29
698.696	51.39
699.02	51.34
699.345	51.24
699.669	51.19
699.993	51.22
700.318	51.23
700.642	51.15
700.966	51.22
701.29	51.24
701.614	51.27
701.938	51.2
702.262	51.3
702.586	51.21
702.91	51.19
703.234	51.31
703.557	51.35
703.881	51.21
704.205	51.29
704.529	51.44
704.852	51.46
705.176	51.39
705.499	51.32
705.823	51.28
706.146	51.43
706.47	51.59
706.793	51.55
707.117	51.54
707.44	51.49
707.763	51.35
708.086	51.37
708.409	51.26
708.733	51.12
709.056	51.07
709.379	51.23
709.702	51.35
710.025	51.24
710.348	51.23
710.671	51.22
710.993	51.09
711.316	50.91
711.639	50.94
711.962	51.1
712.284	51
712.607	51.06
712.93	50.96
713.252	50.98
713.575	50.92
713.897	50.9
714.22	50.99
714.542	51.16
714.864	50.94
715.187	50.94
715.509	51.22
715.831	51.19
716.153	51.14
716.475	51.05
716.798	51.18
717.12	51.21
717.442	51.27
717.764	51.47
718.085	51.61
718.407	51.69
718.729	51.69
719.051	51.8
719.373	51.75
719.695	51.75
720.016	51.82
720.338	51.96
720.659	51.95
720.981	51.75
721.302	51.7
721.624	52
721.945	52.19
722.267	52.09
722.588	51.85
722.909	51.77
723.231	51.6
723.552	51.44
723.873	51.38
724.194	51.1
724.515	50.99
724.836	51.05
725.157	51.02
725.478	50.89
725.799	50.78
726.12	50.85
726.441	51.1
726.762	50.87
727.083	50.99
727.403	51.08
727.724	51.43
728.045	51.55
728.365	51.62
728.686	51.6
729.006	51.48
729.327	51.6
729.647	51.69
729.967	51.75
730.288	52.01
730.608	52.02
730.928	52.12
731.249	52.14
731.569	52.1
731.889	52.24
732.209	52.33
732.529	52.46
732.849	52.46
733.169	52.27
733.489	52.52
733.809	52.59
734.129	52.7
734.448	52.57
734.768	52.53
735.088	52.26
735.408	52.26
735.727	52.38
736.047	52.35
736.366	52.21
736.686	52.38
737.005	52.25
737.325	52.36
737.644	52.42
737.963	52.31
738.283	52.2
738.602	51.86
738.921	51.85
739.24	51.82
739.56	51.69
739.879	51.98
740.198	51.75
740.517	51.5
740.836	51.44
741.155	51.14
741.473	51.02
741.792	50.98
742.111	50.87
742.43	50.84
742.748	50.84
743.067	50.84
743.386	50.67
743.704	50.65
744.023	50.88
744.341	50.92
744.66	50.95
744.978	51.07
745.297	51.31
745.615	51.51
745.933	51.55
746.252	51.92
746.57	51.43
746.888	51.46
747.206	51.57
747.524	51.44
747.842	51.66
748.16	51.69
748.478	52.2
748.796	52.02
749.114	52.07
749.432	52.17
749.749	52.16
750.067	52.12
750.385	51.98
750.703	51.66
751.02	51.74
751.338	51.73
751.655	51.56
751.973	51.49
752.29	51.5
752.608	51.29
752.925	51.21
753.242	51.27
753.56	51.29
753.877	51.08
754.194	51.14
754.511	51.26
754.828	51.35
755.145	51.02
755.462	51.33
755.779	51.15
756.096	51.22
756.413	51.37
756.73	51.4
757.047	51.32
757.364	51.37
757.68	51.14
757.997	51.04
758.314	51.33
758.63	51.2
758.947	51.41
759.264	51.32
759.58	51.15
759.896	51.26
760.213	51.04
760.529	51.26
760.846	50.91
761.162	51.09
761.478	51.03
761.794	51.06
762.11	51.12
762.426	51.38
762.743	51.49
763.059	51.46
763.375	51.49
763.69	51.59
764.006	51.67
764.322	51.62
764.638	51.88
764.954	51.66
765.27	51.88
765.585	51.56
765.901	51.77
766.216	51.87
766.532	52.18
766.848	52.32
767.163	52.29
767.478	52.65
767.794	52.73
768.109	52.62
768.424	52.76
768.74	52.5
769.055	52.52
769.37	52.43
769.685	52.63
770	52.77
770.315	52.8
770.63	52.83
770.945	53.07
771.26	52.77
771.575	52.86
771.89	52.88
772.205	52.76
772.52	52.59
772.834	52.46
773.149	52.06
773.464	52.34
773.778	52.19
774.093	52.17
774.407	51.69
774.722	51.96
775.036	51.74
775.351	51.69
775.665	51.43
775.979	51.25
776.293	50.8
776.608	50.68
776.922	50.69
777.236	50.32
777.55	50.62
777.864	51.01
778.178	51.45
778.492	51.63
778.806	51.92
779.12	51.97
779.434	52.02
779.747	52.08
780.061	52.24
780.375	52.45
780.689	52.48
781.002	52.92
781.316	52.8
781.629	53
781.943	53.35
782.256	53.42
782.57	53.38
782.883	53.96
783.196	54.05
783.51	54.27
783.823	54.64
784.136	54.28
784.449	54.06
784.762	53.91
785.075	53.39
785.388	53.29
785.701	53.02
786.014	52.87
786.327	52.77
786.64	52.56
786.953	52.18
787.266	52.27
787.578	51.97
787.891	52.29
788.204	52.21
788.516	52.12
788.829	52.43
789.141	52.61
789.454	52.75
789.766	52.78
790.079	52.91
790.391	52.6
790.703	53.42
791.016	53.53
791.328	53.36
791.64	53.47
791.952	53.07
792.264	53.3
792.576	53.4
792.888	53.79
793.2	53.92
793.512	54
793.824	53.68
794.136	53.62
794.448	53.73
794.76	53.52
795.071	53.98
795.383	53.27
795.695	52.95
796.006	52.32
796.318	52.38
796.629	51.83
796.941	51.92
797.252	50.99
797.564	50.88
797.875	51.42
798.186	51.63
798.497	52.19
798.809	52.78
799.12	52.77
799.431	52.71
799.742	52.31
800.053	52.63
800.364	52.81
800.675	52.76
800.986	51.97
801.297	51.54
801.608	51.1
801.918	51.21
802.229	51.69
802.54	51.72
802.851	51.32
803.161	51.95
803.472	51.76
803.782	51.27
804.093	51.11
804.403	50.39
804.714	50.24
805.024	49.97
805.334	48.97
805.645	48.9
805.955	48.55
806.265	49.14
806.575	48.87
806.885	49.19
807.195	49.16
807.505	49.77
807.815	50.59
808.125	50.4
808.435	50.61
808.745	50.45
809.055	49.88
809.365	50.07
809.674	49.73
809.984	50.09
810.294	51.31
810.603	51.78
810.913	52.55
811.222	52.75
811.532	53.12
811.841	53.74
812.151	54.28
812.46	54.69
812.769	53.7
813.079	54
813.388	54.31
813.697	54.61
814.006	54.06
814.315	53.62
814.624	54.46
814.933	54.47
815.242	54.52
815.551	55.59
815.86	55.24
816.169	55.62
816.478	55.86
816.786	55.36
817.095	55.13
817.404	54.12
817.712	53.95
818.021	54.24
818.33	54.1
818.638	54.04
818.947	53.55
819.255	53.62
819.563	53.11
819.872	52.43
820.18	52.36
820.488	52.2
820.796	52.24
821.105	51.79
821.413	51.98
821.721	52.03
822.029	51.96
822.337	51.81
822.645	51.57
822.953	51.76
823.26	51.72
823.568	51.59
823.876	51.78
824.184	51.72
824.491	51.6
824.799	51.67
825.107	51.5
825.414	51.52
825.722	51.53
826.029	51.64
826.337	51.72
826.644	51.71
826.951	51.79
827.259	51.72
827.566	51.79
827.873	51.49
828.18	51.38
828.488	51.28
828.795	51.67
829.102	51.63
829.409	50.91
829.716	50.85
830.023	50.99
830.329	50.93
830.636	51.06
830.943	51.01
831.25	50.73
831.557	51.03
831.863	50.81
832.17	50.91
832.476	51.14
832.783	51.61
833.089	51.72
833.396	51.96
833.702	51.99
834.009	52.54
834.315	52.96
834.621	53.09
834.928	53.69
835.234	53.47
835.54	53.8
835.846	54.03
836.152	54
836.458	54.4
836.764	54.13
837.07	53.99
837.376	54.11
837.682	54.11
837.988	54.13
838.293	54.08
838.599	53.86
838.905	53.93
839.211	53.57
839.516	53.77
839.822	54.06
840.127	54.66
840.433	54.68
840.738	55.12
841.044	54.98
841.349	54.78
841.654	54.79
841.959	54.84
842.265	55.99
842.57	55.93
842.875	54.84
843.18	55.09
843.485	54.96
843.79	55.8
844.095	55.89
844.4	55.66
844.705	56.61
845.01	55.93
845.315	55.47
845.619	54.77
845.924	54.62
846.229	54.77
846.533	55.1
846.838	54.99
847.142	54.58
847.447	54.28
847.751	52.06
848.056	52.47
848.36	53.33
848.664	54.07
848.969	55.69
849.273	54.23
849.577	52.95
849.881	55.01
850.185	52.26
850.489	54.23
850.794	54.21
851.097	54.18
851.401	58.54
851.705	57.17
852.009	58.29
852.313	55.99
852.617	55.47
852.92	57.44
853.224	56.84
853.528	57.62
853.831	57.06
854.135	58.47
854.438	57.83
854.742	55.03
855.045	52.85
855.349	51.33
855.652	53.36
855.955	55.5
856.259	53.41
856.562	56.05
856.865	55.15
857.168	55.55
857.471	57.42
857.774	56.49
858.077	59.18
858.38	59.69
858.683	61.24
858.986	62.02
859.289	61.28
859.592	58.82
859.894	55.39
860.197	56.56
860.5	56.43
860.802	55.31
861.105	56.96
861.407	57.28
861.71	59.38
862.012	60.97
862.315	61.1
862.617	59.84
862.919	58.16
863.222	59.49
863.524	59.54
863.826	59.18
864.128	58.61
864.43	56.98
864.732	57.79
865.034	57.94
865.336	56.19
865.638	53.54
865.94	55.7
866.242	56.53
866.544	55
866.846	55.14
867.147	55.9
867.449	56.99
867.751	57.65
868.052	56.11
868.354	53.81
868.655	56.39
868.957	57.9
869.258	58.72
869.56	57.1
869.861	59.25
870.162	56.32
870.463	57.71
870.765	58.48
871.066	57.18
871.367	57.19
871.668	59.71
871.969	58.99
872.27	60.41
872.571	59.88
872.872	61.66
873.173	60.66
873.473	61.71
873.774	62.08
874.075	61.22
874.376	63.07
874.676	65.43
874.977	64.01
875.277	63.61
875.578	64.03
875.878	64.33
876.179	62.14
876.479	64.44
876.78	62.33
877.08	62.22
877.38	62.29
877.68	63.64
877.981	61.08
878.281	64.34
878.581	61.74
