Data from BA57712_Reflection_00003.txt Node
Date: Mon Nov 18 15:19:14 EST 2019
User: vgr7
Spectrometer: USB2G7710
Scans to average: 3
Trigger mode: 4
Integration Time (sec): 2.000000E-2
Electric dark correction enabled: true
Boxcar width: 10
XAxis mode: Wavelengths
Number of Pixels in Spectrum: 2048
>>>>>Begin Spectral Data<<<<<
177.721	57.88
178.105	41.39
178.488	14.44
178.871	95.04
179.254	24.47
179.636	-81.29
180.019	22.99
180.402	47.73
180.785	-149.75
181.168	1905.56
181.55	38.19
181.933	33.96
182.316	32.91
182.698	18.98
183.081	23.95
183.463	22.46
183.846	17.98
184.228	6.27
184.611	27.74
184.993	-21.36
185.376	-9.67
185.758	4.58
186.14	40.79
186.522	40.39
186.904	67.23
187.287	24.27
187.669	-44.02
188.051	50.94
188.433	33
188.815	-58.73
189.197	27.39
189.579	-129.33
189.961	-104.57
190.342	-95.45
190.724	-92.36
191.106	-100.21
191.488	-71.4
191.869	-67.83
192.251	-93.14
192.633	-41.66
193.014	-136.35
193.396	-163.36
193.777	-196.48
194.159	-206.1
194.54	-120.94
194.922	-109.29
195.303	-118.93
195.684	-189.22
196.065	-130.48
196.447	-115.18
196.828	-150.51
197.209	-124.8
197.59	-157.92
197.971	-134.89
198.352	-116.84
198.733	-131.68
199.114	-103.22
199.495	-97.01
199.876	-62.7
200.257	-62.38
200.638	-72.5
201.018	-61.57
201.399	-61.21
201.78	-47.58
202.16	-38.43
202.541	-42.46
202.922	-54.26
203.302	-50.29
203.683	-29.55
204.063	-55.54
204.444	-32.16
204.824	-2.17
205.204	-16.56
205.585	-0.77
205.965	26.88
206.345	8.13
206.725	19.59
207.106	-10.11
207.486	-75.71
207.866	1.67
208.246	-41.87
208.626	-33.94
209.006	-12.17
209.386	-38.01
209.766	25.93
210.145	18.56
210.525	5.03
210.905	63.88
211.285	0.61
211.664	-52.64
212.044	-274.6
212.424	-24.61
212.803	3.13
213.183	22.4
213.562	160.61
213.942	163.8
214.321	550.79
214.701	252.38
215.08	128.66
215.459	88.13
215.838	63.85
216.218	45.67
216.597	72.67
216.976	82.21
217.355	59.24
217.734	50.99
218.113	45.46
218.492	53
218.871	62.35
219.25	39.56
219.629	38.04
220.008	28.68
220.387	48.64
220.766	32.04
221.144	28
221.523	27.52
221.902	1.63
222.28	-0.58
222.659	7.92
223.037	14.47
223.416	14.73
223.794	14.32
224.173	24.45
224.551	15.62
224.929	4.99
225.308	14.04
225.686	16.2
226.064	12.65
226.442	10.14
226.821	11.49
227.199	13.68
227.577	11.76
227.955	12.19
228.333	8.74
228.711	11.08
229.089	11.49
229.467	8.6
229.845	9.34
230.222	7.91
230.6	6.16
230.978	4.83
231.356	5.54
231.733	6.11
232.111	4.99
232.488	7.38
232.866	8.71
233.243	9.3
233.621	8.97
233.998	8.82
234.376	7.95
234.753	7.64
235.13	7.85
235.508	8.61
235.885	8.86
236.262	8.32
236.639	6.16
237.016	6.59
237.393	8.8
237.77	8.08
238.147	7.93
238.524	7.18
238.901	6.89
239.278	7.19
239.655	7.04
240.032	7.18
240.409	6.04
240.785	6.47
241.162	5.84
241.539	5.7
241.915	6.07
242.292	5.9
242.668	5.66
243.045	5.9
243.421	5.55
243.798	5.41
244.174	5.6
244.551	5.87
244.927	5.84
245.303	5.74
245.679	5.87
246.056	5.99
246.432	6.02
246.808	6.24
247.184	5.82
247.56	5.57
247.936	5.3
248.312	5.28
248.688	5.13
249.064	5.12
249.44	5.12
249.815	5.13
250.191	5.1
250.567	5.02
250.943	4.86
251.318	4.9
251.694	4.9
252.069	4.65
252.445	4.63
252.82	4.51
253.196	4.29
253.571	4.37
253.947	4.26
254.322	4.32
254.697	4.05
255.073	4.32
255.448	4.39
255.823	4.49
256.198	4.46
256.573	4.48
256.948	4.69
257.323	4.92
257.698	4.92
258.073	5.1
258.448	5.08
258.823	4.98
259.198	4.84
259.573	4.97
259.948	5.1
260.322	5.25
260.697	5.24
261.072	5.19
261.446	5.12
261.821	5.15
262.195	5.2
262.57	5.12
262.944	5.02
263.319	5.09
263.693	5.13
264.067	5.3
264.442	5.3
264.816	5.23
265.19	4.91
265.564	4.66
265.938	4.51
266.313	4.75
266.687	4.8
267.061	5.06
267.435	5.05
267.809	4.98
268.183	4.71
268.556	4.73
268.93	4.89
269.304	4.97
269.678	4.97
270.051	4.8
270.425	4.91
270.799	4.89
271.172	5.05
271.546	5.07
271.919	4.8
272.293	4.71
272.666	4.74
273.04	4.93
273.413	5.01
273.787	5.11
274.16	4.91
274.533	4.95
274.906	4.83
275.279	4.76
275.653	4.71
276.026	4.77
276.399	4.74
276.772	4.79
277.145	4.64
277.518	4.69
277.891	4.81
278.263	4.71
278.636	4.78
279.009	4.73
279.382	4.84
279.755	5.07
280.127	5.34
280.5	5.43
280.872	5.58
281.245	5.5
281.617	5.43
281.99	5.57
282.362	5.61
282.735	5.54
283.107	5.47
283.479	5.55
283.852	5.56
284.224	5.71
284.596	5.66
284.968	5.72
285.34	5.8
285.713	5.74
286.085	5.87
286.457	6.07
286.829	6.04
287.201	6.05
287.572	6.05
287.944	5.98
288.316	5.92
288.688	5.77
289.06	5.9
289.431	5.94
289.803	6.01
290.175	6.09
290.546	6.22
290.918	6.27
291.289	6.28
291.661	6.42
292.032	6.33
292.403	6.31
292.775	6.31
293.146	6.21
293.517	6.3
293.889	6.29
294.26	6.22
294.631	6.29
295.002	6.28
295.373	6.25
295.744	6.24
296.115	6.21
296.486	6.21
296.857	6.19
297.228	6.27
297.599	6.19
297.97	6.14
298.34	6.07
298.711	6.14
299.082	6.05
299.452	5.92
299.823	6.06
300.194	6.03
300.564	6.01
300.935	6.09
301.305	6.02
301.676	6.03
302.046	5.82
302.416	5.83
302.787	5.64
303.157	5.68
303.527	5.58
303.897	5.68
304.267	5.74
304.637	5.86
305.008	5.8
305.378	5.83
305.748	5.77
306.117	5.9
306.487	5.89
306.857	5.9
307.227	5.98
307.597	5.88
307.967	5.95
308.336	5.92
308.706	5.91
309.076	5.99
309.445	5.91
309.815	5.94
310.184	5.91
310.554	6.15
310.923	6.2
311.293	6.31
311.662	6.2
312.031	6.14
312.401	6
312.77	6
313.139	6.02
313.508	5.98
313.877	5.85
314.246	5.7
314.616	5.75
314.985	5.71
315.353	5.71
315.722	5.74
316.091	5.81
316.46	5.67
316.829	5.75
317.198	5.86
317.567	5.94
317.935	5.85
318.304	5.69
318.672	5.64
319.041	5.71
319.41	5.76
319.778	5.76
320.147	5.89
320.515	5.91
320.883	5.82
321.252	5.89
321.62	5.84
321.988	5.96
322.357	5.99
322.725	6.08
323.093	6.04
323.461	6.02
323.829	6
324.197	6.13
324.565	6.03
324.933	6.09
325.301	6.08
325.669	6.21
326.037	6.31
326.405	6.24
326.772	6.27
327.14	6.36
327.508	6.46
327.875	6.32
328.243	6.38
328.61	6.53
328.978	6.63
329.346	6.78
329.713	6.83
330.08	6.82
330.448	6.79
330.815	6.8
331.182	6.76
331.55	6.89
331.917	6.92
332.284	7.01
332.651	6.87
333.018	6.97
333.385	6.87
333.752	6.81
334.119	6.86
334.486	6.68
334.853	6.58
335.22	6.49
335.587	6.67
335.954	6.47
336.32	6.41
336.687	6.37
337.054	6.36
337.42	6.3
337.787	6.31
338.153	6.23
338.52	6.28
338.886	6.18
339.253	6.02
339.619	6
339.986	6
340.352	6.16
340.718	6.09
341.084	6.16
341.451	6.19
341.817	6.24
342.183	6.27
342.549	6.3
342.915	6.36
343.281	6.29
343.647	6.39
344.013	6.33
344.379	6.24
344.745	6.28
345.11	6.36
345.476	6.44
345.842	6.53
346.208	6.43
346.573	6.55
346.939	6.71
347.304	6.57
347.67	6.55
348.035	6.53
348.401	6.56
348.766	6.47
349.132	6.45
349.497	6.48
349.862	6.53
350.228	6.54
350.593	6.45
350.958	6.52
351.323	6.49
351.688	6.53
352.053	6.57
352.418	6.56
352.783	6.58
353.148	6.5
353.513	6.45
353.878	6.52
354.243	6.47
354.608	6.5
354.972	6.6
355.337	6.57
355.702	6.5
356.066	6.56
356.431	6.58
356.795	6.63
357.16	6.59
357.524	6.58
357.889	6.51
358.253	6.54
358.618	6.47
358.982	6.45
359.346	6.43
359.71	6.43
360.075	6.37
360.439	6.38
360.803	6.43
361.167	6.45
361.531	6.4
361.895	6.43
362.259	6.36
362.623	6.33
362.987	6.34
363.351	6.38
363.714	6.34
364.078	6.34
364.442	6.3
364.806	6.3
365.169	6.32
365.533	6.3
365.896	6.31
366.26	6.3
366.623	6.3
366.987	6.35
367.35	6.34
367.714	6.44
368.077	6.38
368.44	6.35
368.803	6.32
369.167	6.31
369.53	6.34
369.893	6.36
370.256	6.38
370.619	6.38
370.982	6.34
371.345	6.34
371.708	6.34
372.071	6.38
372.434	6.31
372.797	6.26
373.159	6.33
373.522	6.4
373.885	6.48
374.247	6.46
374.61	6.44
374.973	6.47
375.335	6.44
375.698	6.48
376.06	6.44
376.423	6.43
376.785	6.51
377.147	6.51
377.51	6.5
377.872	6.48
378.234	6.53
378.596	6.56
378.958	6.5
379.321	6.49
379.683	6.49
380.045	6.52
380.407	6.52
380.769	6.48
381.13	6.44
381.492	6.43
381.854	6.46
382.216	6.41
382.578	6.39
382.939	6.39
383.301	6.36
383.663	6.39
384.024	6.41
384.386	6.41
384.747	6.39
385.109	6.36
385.47	6.37
385.832	6.34
386.193	6.3
386.554	6.33
386.916	6.3
387.277	6.3
387.638	6.34
387.999	6.37
388.36	6.41
388.721	6.4
389.082	6.35
389.443	6.35
389.804	6.42
390.165	6.46
390.526	6.46
390.887	6.49
391.248	6.48
391.609	6.49
391.969	6.52
392.33	6.52
392.691	6.55
393.051	6.57
393.412	6.6
393.772	6.6
394.133	6.62
394.493	6.64
394.854	6.61
395.214	6.56
395.574	6.56
395.935	6.54
396.295	6.62
396.655	6.64
397.015	6.66
397.376	6.64
397.736	6.62
398.096	6.6
398.456	6.58
398.816	6.6
399.176	6.61
399.535	6.55
399.895	6.54
400.255	6.53
400.615	6.57
400.975	6.56
401.334	6.56
401.694	6.59
402.054	6.58
402.413	6.65
402.773	6.68
403.132	6.67
403.492	6.66
403.851	6.63
404.211	6.64
404.57	6.65
404.929	6.64
405.288	6.64
405.648	6.66
406.007	6.67
406.366	6.67
406.725	6.68
407.084	6.68
407.443	6.69
407.802	6.74
408.161	6.7
408.52	6.68
408.879	6.66
409.238	6.64
409.596	6.65
409.955	6.62
410.314	6.62
410.673	6.63
411.031	6.68
411.39	6.68
411.748	6.66
412.107	6.63
412.465	6.67
412.824	6.69
413.182	6.69
413.54	6.68
413.899	6.68
414.257	6.67
414.615	6.67
414.974	6.66
415.332	6.63
415.69	6.6
416.048	6.62
416.406	6.65
416.764	6.64
417.122	6.67
417.48	6.64
417.838	6.64
418.195	6.64
418.553	6.6
418.911	6.59
419.269	6.62
419.626	6.61
419.984	6.59
420.342	6.59
420.699	6.58
421.057	6.58
421.414	6.57
421.772	6.57
422.129	6.58
422.486	6.58
422.844	6.59
423.201	6.59
423.558	6.58
423.915	6.58
424.273	6.59
424.63	6.57
424.987	6.59
425.344	6.6
425.701	6.61
426.058	6.62
426.415	6.63
426.772	6.62
427.128	6.63
427.485	6.65
427.842	6.64
428.199	6.65
428.555	6.66
428.912	6.67
429.269	6.69
429.625	6.68
429.982	6.68
430.338	6.7
430.695	6.7
431.051	6.7
431.407	6.69
431.764	6.69
432.12	6.67
432.476	6.66
432.832	6.64
433.189	6.64
433.545	6.63
433.901	6.63
434.257	6.62
434.613	6.61
434.969	6.59
435.325	6.58
435.681	6.57
436.036	6.56
436.392	6.58
436.748	6.57
437.104	6.56
437.459	6.57
437.815	6.56
438.171	6.57
438.526	6.59
438.882	6.6
439.237	6.6
439.593	6.61
439.948	6.61
440.304	6.61
440.659	6.61
441.014	6.62
441.369	6.59
441.725	6.58
442.08	6.58
442.435	6.59
442.79	6.58
443.145	6.6
443.5	6.59
443.855	6.59
444.21	6.59
444.565	6.59
444.92	6.58
445.275	6.56
445.629	6.55
445.984	6.52
446.339	6.52
446.693	6.51
447.048	6.51
447.403	6.49
447.757	6.49
448.112	6.47
448.466	6.44
448.82	6.46
449.175	6.47
449.529	6.48
449.883	6.48
450.238	6.49
450.592	6.5
450.946	6.51
451.3	6.5
451.654	6.49
452.008	6.52
452.362	6.5
452.716	6.51
453.07	6.52
453.424	6.52
453.778	6.51
454.132	6.53
454.486	6.53
454.839	6.53
455.193	6.52
455.547	6.54
455.9	6.58
456.254	6.59
456.607	6.56
456.961	6.54
457.314	6.54
457.668	6.54
458.021	6.51
458.375	6.5
458.728	6.52
459.081	6.52
459.434	6.49
459.787	6.51
460.141	6.51
460.494	6.51
460.847	6.54
461.2	6.54
461.553	6.54
461.906	6.54
462.259	6.55
462.611	6.57
462.964	6.56
463.317	6.54
463.67	6.53
464.022	6.55
464.375	6.57
464.728	6.56
465.08	6.57
465.433	6.57
465.785	6.58
466.138	6.55
466.49	6.56
466.843	6.54
467.195	6.55
467.547	6.55
467.899	6.55
468.252	6.54
468.604	6.55
468.956	6.53
469.308	6.53
469.66	6.52
470.012	6.53
470.364	6.53
470.716	6.57
471.068	6.58
471.42	6.57
471.772	6.58
472.123	6.57
472.475	6.57
472.827	6.58
473.178	6.58
473.53	6.59
473.882	6.6
474.233	6.61
474.585	6.59
474.936	6.58
475.288	6.59
475.639	6.6
475.99	6.61
476.342	6.61
476.693	6.62
477.044	6.62
477.395	6.63
477.746	6.61
478.097	6.59
478.448	6.58
478.8	6.56
479.15	6.57
479.501	6.59
479.852	6.59
480.203	6.61
480.554	6.62
480.905	6.62
481.255	6.63
481.606	6.64
481.957	6.67
482.307	6.69
482.658	6.7
483.009	6.7
483.359	6.7
483.709	6.71
484.06	6.72
484.41	6.74
484.761	6.75
485.111	6.77
485.461	6.78
485.811	6.79
486.162	6.79
486.512	6.8
486.862	6.8
487.212	6.81
487.562	6.8
487.912	6.8
488.262	6.8
488.612	6.81
488.961	6.81
489.311	6.81
489.661	6.81
490.011	6.82
490.36	6.82
490.71	6.82
491.06	6.83
491.409	6.82
491.759	6.8
492.108	6.8
492.458	6.78
492.807	6.76
493.157	6.76
493.506	6.77
493.855	6.76
494.204	6.75
494.554	6.75
494.903	6.75
495.252	6.74
495.601	6.75
495.95	6.76
496.299	6.75
496.648	6.74
496.997	6.73
497.346	6.72
497.695	6.71
498.043	6.71
498.392	6.69
498.741	6.69
499.09	6.71
499.438	6.73
499.787	6.74
500.135	6.76
500.484	6.77
500.832	6.77
501.181	6.78
501.529	6.77
501.878	6.81
502.226	6.84
502.574	6.86
502.923	6.86
503.271	6.84
503.619	6.87
503.967	6.89
504.315	6.9
504.663	6.89
505.011	6.87
505.359	6.88
505.707	6.91
506.055	6.91
506.403	6.9
506.751	6.9
507.098	6.92
507.446	6.94
507.794	6.94
508.141	6.96
508.489	6.98
508.837	7
509.184	6.97
509.531	6.98
509.879	6.98
510.226	7.01
510.574	7.02
510.921	7
511.268	6.99
511.616	6.99
511.963	7.02
512.31	7.05
512.657	7.07
513.004	7.07
513.351	7.09
513.698	7.1
514.045	7.09
514.392	7.09
514.739	7.09
515.086	7.1
515.432	7.1
515.779	7.1
516.126	7.1
516.473	7.13
516.819	7.14
517.166	7.13
517.512	7.11
517.859	7.11
518.205	7.11
518.552	7.12
518.898	7.14
519.245	7.13
519.591	7.11
519.937	7.07
520.283	7.08
520.629	7.08
520.976	7.07
521.322	7.07
521.668	7.05
522.014	7.06
522.36	7.06
522.706	7.04
523.052	7.04
523.398	7.06
523.743	7.05
524.089	7.04
524.435	7.07
524.781	7.08
525.126	7.11
525.472	7.13
525.817	7.14
526.163	7.14
526.509	7.16
526.854	7.17
527.199	7.21
527.545	7.21
527.89	7.22
528.235	7.23
528.581	7.24
528.926	7.24
529.271	7.25
529.616	7.25
529.961	7.26
530.306	7.28
530.651	7.26
530.996	7.26
531.341	7.26
531.686	7.27
532.031	7.28
532.376	7.29
532.721	7.29
533.065	7.3
533.41	7.31
533.755	7.31
534.099	7.3
534.444	7.3
534.788	7.31
535.133	7.31
535.477	7.32
535.822	7.32
536.166	7.33
536.51	7.31
536.855	7.33
537.199	7.34
537.543	7.34
537.887	7.35
538.231	7.38
538.576	7.4
538.92	7.39
539.264	7.38
539.608	7.36
539.951	7.36
540.295	7.35
540.639	7.36
540.983	7.36
541.327	7.36
541.671	7.35
542.014	7.34
542.358	7.34
542.701	7.33
543.045	7.33
543.389	7.32
543.732	7.34
544.075	7.35
544.419	7.35
544.762	7.32
545.105	7.33
545.449	7.33
545.792	7.32
546.135	7.33
546.478	7.34
546.821	7.33
547.165	7.33
547.508	7.34
547.851	7.33
548.194	7.34
548.536	7.35
548.879	7.37
549.222	7.36
549.565	7.37
549.908	7.38
550.25	7.38
550.593	7.39
550.936	7.37
551.278	7.37
551.621	7.36
551.963	7.41
552.306	7.42
552.648	7.41
552.991	7.4
553.333	7.38
553.675	7.4
554.017	7.45
554.36	7.45
554.702	7.44
555.044	7.43
555.386	7.42
555.728	7.4
556.07	7.41
556.412	7.42
556.754	7.4
557.096	7.42
557.438	7.43
557.78	7.46
558.121	7.48
558.463	7.45
558.805	7.45
559.147	7.4
559.488	7.37
559.83	7.37
560.171	7.36
560.513	7.39
560.854	7.33
561.196	7.34
561.537	7.36
561.878	7.33
562.22	7.34
562.561	7.34
562.902	7.37
563.243	7.35
563.584	7.38
563.925	7.42
564.266	7.4
564.607	7.4
564.948	7.4
565.289	7.39
565.63	7.39
565.971	7.38
566.312	7.4
566.653	7.41
566.993	7.42
567.334	7.44
567.675	7.43
568.015	7.46
568.356	7.42
568.696	7.43
569.037	7.45
569.377	7.45
569.718	7.48
570.058	7.47
570.398	7.47
570.739	7.46
571.079	7.47
571.419	7.47
571.759	7.47
572.099	7.47
572.439	7.47
572.779	7.49
573.119	7.52
573.459	7.53
573.799	7.53
574.139	7.54
574.479	7.55
574.819	7.55
575.158	7.56
575.498	7.6
575.838	7.59
576.177	7.6
576.517	7.6
576.856	7.58
577.196	7.58
577.535	7.57
577.875	7.57
578.214	7.57
578.553	7.57
578.893	7.6
579.232	7.59
579.571	7.61
579.91	7.62
580.25	7.62
580.589	7.61
580.928	7.67
581.267	7.65
581.606	7.65
581.945	7.64
582.283	7.63
582.622	7.58
582.961	7.6
583.3	7.62
583.639	7.64
583.977	7.62
584.316	7.61
584.654	7.62
584.993	7.6
585.332	7.59
585.67	7.63
586.008	7.6
586.347	7.56
586.685	7.56
587.024	7.58
587.362	7.56
587.7	7.6
588.038	7.57
588.376	7.56
588.715	7.55
589.053	7.58
589.391	7.62
589.729	7.67
590.067	7.63
590.404	7.62
590.742	7.62
591.08	7.63
591.418	7.68
591.756	7.7
592.093	7.71
592.431	7.73
592.769	7.71
593.106	7.74
593.444	7.75
593.781	7.75
594.119	7.77
594.456	7.77
594.793	7.75
595.131	7.72
595.468	7.72
595.805	7.71
596.143	7.68
596.48	7.66
596.817	7.66
597.154	7.68
597.491	7.68
597.828	7.67
598.165	7.69
598.502	7.65
598.839	7.65
599.176	7.64
599.512	7.64
599.849	7.66
600.186	7.67
600.523	7.72
600.859	7.76
601.196	7.74
601.532	7.7
601.869	7.71
602.205	7.76
602.542	7.79
602.878	7.81
603.215	7.82
603.551	7.81
603.887	7.79
604.223	7.78
604.56	7.76
604.896	7.77
605.232	7.79
605.568	7.8
605.904	7.78
606.24	7.79
606.576	7.79
606.912	7.77
607.248	7.75
607.583	7.71
607.919	7.67
608.255	7.62
608.591	7.69
608.926	7.68
609.262	7.67
609.597	7.67
609.933	7.64
610.268	7.65
610.604	7.68
610.939	7.71
611.275	7.7
611.61	7.75
611.945	7.76
612.281	7.73
612.616	7.76
612.951	7.77
613.286	7.8
613.621	7.79
613.956	7.81
614.291	7.81
614.626	7.9
614.961	7.94
615.296	8.01
615.631	7.96
615.966	8.01
616.3	7.99
616.635	8.01
616.97	8.05
617.304	8.08
617.639	8.04
617.973	8
618.308	8.04
618.642	8.02
618.977	8
619.311	7.98
619.646	7.99
619.98	7.96
620.314	7.9
620.648	7.93
620.983	7.89
621.317	7.91
621.651	7.87
621.985	7.85
622.319	7.82
622.653	7.84
622.987	7.82
623.321	7.83
623.655	7.81
623.988	7.85
624.322	7.85
624.656	7.89
624.99	7.96
625.323	7.96
625.657	7.98
625.99	7.98
626.324	7.99
626.657	7.95
626.991	7.99
627.324	8.07
627.658	8.06
627.991	8.12
628.324	8.11
628.657	8.05
628.991	8.07
629.324	8.14
629.657	8.17
629.99	8.21
630.323	8.23
630.656	8.29
630.989	8.27
631.322	8.22
631.655	8.18
631.987	8.14
632.32	8.1
632.653	8.1
632.986	8.16
633.318	8.15
633.651	8.22
633.984	8.23
634.316	8.21
634.649	8.21
634.981	8.2
635.313	8.22
635.646	8.28
635.978	8.25
636.31	8.15
636.643	8.11
636.975	8.08
637.307	8.04
637.639	8.01
637.971	8.04
638.303	8.12
638.635	8.14
638.967	8.19
639.299	8.24
639.631	8.25
639.963	8.17
640.295	8.18
640.626	8.16
640.958	8.18
641.29	8.17
641.621	8.19
641.953	8.11
642.285	8.12
642.616	8.11
642.948	8.11
643.279	8.12
643.61	8.13
643.942	8.12
644.273	8.17
644.604	8.15
644.936	8.15
645.267	8.18
645.598	8.17
645.929	8.12
646.26	8.11
646.591	8.11
646.922	8.13
647.253	8.16
647.584	8.09
647.915	8.05
648.245	8.09
648.576	8.07
648.907	8.15
649.238	8.12
649.568	8.13
649.899	8.1
650.229	8.15
650.56	8.19
650.89	8.22
651.221	8.23
651.551	8.2
651.882	8.15
652.212	8.16
652.542	8.18
652.872	8.2
653.203	8.17
653.533	8.18
653.863	8.23
654.193	8.25
654.523	8.33
654.853	8.38
655.183	8.35
655.513	8.34
655.843	8.32
656.172	8.3
656.502	8.31
656.832	8.39
657.162	8.43
657.491	8.39
657.821	8.35
658.15	8.33
658.48	8.38
658.809	8.31
659.139	8.29
659.468	8.24
659.798	8.28
660.127	8.35
660.456	8.35
660.785	8.3
661.115	8.34
661.444	8.34
661.773	8.4
662.102	8.37
662.431	8.41
662.76	8.4
663.089	8.48
663.418	8.46
663.747	8.41
664.076	8.39
664.404	8.43
664.733	8.45
665.062	8.45
665.39	8.35
665.719	8.44
666.048	8.43
666.376	8.38
666.705	8.36
667.033	8.23
667.362	8.3
667.69	8.3
668.018	8.27
668.347	8.15
668.675	8.05
669.003	8.09
669.331	8.09
669.659	8.11
669.987	8.08
670.315	8.13
670.643	8.14
670.971	8.12
671.299	8.15
671.627	8.17
671.955	8.17
672.283	8.27
672.61	8.31
672.938	8.32
673.266	8.39
673.593	8.39
673.921	8.46
674.249	8.35
674.576	8.43
674.904	8.37
675.231	8.44
675.558	8.46
675.886	8.48
676.213	8.41
676.54	8.41
676.867	8.43
677.195	8.35
677.522	8.36
677.849	8.44
678.176	8.49
678.503	8.45
678.83	8.37
679.157	8.29
679.484	8.25
679.81	8.25
680.137	8.24
680.464	8.19
680.791	8.22
681.117	8.26
681.444	8.26
681.771	8.25
682.097	8.31
682.424	8.36
682.75	8.33
683.077	8.3
683.403	8.34
683.729	8.3
684.056	8.38
684.382	8.36
684.708	8.21
685.034	8.19
685.36	8.24
685.686	8.37
686.012	8.36
686.339	8.47
686.664	8.48
686.99	8.47
687.316	8.56
687.642	8.52
687.968	8.51
688.294	8.51
688.619	8.57
688.945	8.47
689.271	8.41
689.596	8.4
689.922	8.56
690.247	8.54
690.573	8.53
690.898	8.54
691.224	8.69
691.549	8.85
691.874	8.79
692.2	8.78
692.525	8.71
692.85	8.86
693.175	8.78
693.5	8.67
693.825	8.65
694.15	8.54
694.475	8.66
694.8	8.66
695.125	8.53
695.45	8.51
695.775	8.49
696.099	8.52
696.424	8.53
696.749	8.5
697.073	8.54
697.398	8.66
697.723	8.67
698.047	8.53
698.372	8.49
698.696	8.6
699.02	8.63
699.345	8.66
699.669	8.68
699.993	8.75
700.318	8.83
700.642	8.9
700.966	8.94
701.29	8.93
701.614	8.95
701.938	9.12
702.262	9.16
702.586	9.4
702.91	9.34
703.234	9.28
703.557	9.34
703.881	9.37
704.205	9.33
704.529	9.28
704.852	9.41
705.176	9.39
705.499	9.33
705.823	9.35
706.146	9.38
706.47	9.35
706.793	9.14
707.117	9.22
707.44	9.31
707.763	9.42
708.086	9.34
708.409	9.34
708.733	9.24
709.056	9.35
709.379	9.16
709.702	9.21
710.025	9.45
710.348	9.43
710.671	9.41
710.993	9.49
711.316	9.6
711.639	9.61
711.962	9.72
712.284	9.72
712.607	9.75
712.93	9.75
713.252	9.63
713.575	9.83
713.897	9.78
714.22	9.74
714.542	9.82
714.864	9.84
715.187	9.85
715.509	9.91
715.831	9.82
716.153	9.76
716.475	9.71
716.798	9.69
717.12	9.58
717.442	9.59
717.764	9.39
718.085	9.35
718.407	9.34
718.729	9.2
719.051	9.25
719.373	9.22
719.695	9.22
720.016	9.39
720.338	9.36
720.659	9.51
720.981	9.5
721.302	9.41
721.624	9.42
721.945	9.46
722.267	9.47
722.588	9.47
722.909	9.76
723.231	9.97
723.552	9.93
723.873	9.99
724.194	9.98
724.515	10.13
724.836	10.05
725.157	10.16
725.478	10.26
725.799	10.19
726.12	10.05
726.441	10.05
726.762	10.02
727.083	9.93
727.403	9.75
727.724	9.74
728.045	9.69
728.365	9.54
728.686	9.53
729.006	9.62
729.327	9.52
729.647	9.3
729.967	9.31
730.288	9.27
730.608	9.16
730.928	9.12
731.249	9.05
731.569	9.21
731.889	9.21
732.209	9.19
732.529	9.12
732.849	9.3
733.169	9.35
733.489	9.28
733.809	9.23
734.129	9.27
734.448	9.41
734.768	9.15
735.088	9.35
735.408	9.42
735.727	9.53
736.047	9.69
736.366	9.78
736.686	9.71
737.005	9.85
737.325	9.96
737.644	10.1
737.963	10.43
738.283	10.33
738.602	10.18
738.921	10.04
739.24	10.05
739.56	9.98
739.879	9.85
740.198	9.9
740.517	10.03
740.836	10.06
741.155	9.92
741.473	10.27
741.792	10.39
742.111	10.28
742.43	10
742.748	9.82
743.067	9.82
743.386	9.81
743.704	9.87
744.023	9.98
744.341	9.74
744.66	9.6
744.978	9.49
745.297	9.42
745.615	9.56
745.933	9.66
746.252	9.63
746.57	9.86
746.888	9.67
747.206	9.56
747.524	9.58
747.842	9.7
748.16	9.71
748.478	9.78
748.796	9.91
749.114	9.94
749.432	9.89
749.749	9.9
750.067	9.88
750.385	9.61
750.703	9.71
751.02	9.74
751.338	9.56
751.655	9.73
751.973	10.07
752.29	10.28
752.608	10.24
752.925	10.24
753.242	10.06
753.56	10.17
753.877	10.08
754.194	10.06
754.511	10.16
754.828	9.8
755.145	9.57
755.462	9.46
755.779	9.59
756.096	9.83
756.413	10.06
756.73	10.1
757.047	10.24
757.364	10.15
757.68	10.31
757.997	10.19
758.314	10.11
758.63	9.71
758.947	9.51
759.264	9.49
759.58	9.53
759.896	9.67
760.213	9.61
760.529	9.87
760.846	9.71
761.162	9.47
761.478	9.58
761.794	9.52
762.11	9.53
762.426	9.69
762.743	9.61
763.059	9.47
763.375	9.42
763.69	9.37
764.006	9.31
764.322	9.37
764.638	9.5
764.954	9.66
765.27	9.61
765.585	9.61
765.901	9.87
766.216	9.9
766.532	9.75
766.848	9.84
767.163	9.79
767.478	10.01
767.794	10
768.109	9.97
768.424	10.15
768.74	10.25
769.055	9.88
769.37	9.86
769.685	9.84
770	10.13
770.315	10.06
770.63	10.3
770.945	10.11
771.26	9.87
771.575	9.57
771.89	9.98
772.205	9.97
772.52	9.78
772.834	9.7
773.149	9.88
773.464	9.82
773.778	10.2
774.093	10.07
774.407	10.05
774.722	10.39
775.036	10.37
775.351	10.46
775.665	10.13
775.979	10.23
776.293	10.28
776.608	9.7
776.922	9.95
777.236	9.72
777.55	9.89
777.864	10.14
778.178	10.57
778.492	10.59
778.806	10.27
779.12	10.18
779.434	10.32
779.747	10.58
780.061	10.68
780.375	9.96
780.689	9.9
781.002	10.33
781.316	10.4
781.629	10.64
781.943	10.36
782.256	10.85
782.57	10.85
782.883	10.89
783.196	11.51
783.51	11.19
783.823	11.23
784.136	11.26
784.449	11.19
784.762	10.92
785.075	10.81
785.388	11.19
785.701	11.42
786.014	11.07
786.327	10.94
786.64	11.12
786.953	11.54
787.266	11.36
787.578	10.97
787.891	11.06
788.204	10.54
788.516	10.54
788.829	11.09
789.141	11.62
789.454	11.39
789.766	10.86
790.079	11.16
790.391	11.44
790.703	11.3
791.016	11.36
791.328	11.35
791.64	11.14
791.952	11.15
792.264	10.93
792.576	10.75
792.888	10.56
793.2	10.8
793.512	10.7
793.824	11.09
794.136	11.58
794.448	11.18
794.76	11.21
795.071	11.43
795.383	10.56
795.695	10.47
796.006	10.71
796.318	11.23
796.629	11.3
796.941	10.82
797.252	11.07
797.564	11.34
797.875	11.71
798.186	11.45
798.497	11.29
798.809	11.13
799.12	11.45
799.431	11.31
799.742	10.98
800.053	11.72
800.364	11.89
800.675	11.59
800.986	12.26
801.297	12.33
801.608	12.15
801.918	12.85
802.229	12.29
802.54	12.2
802.851	12.32
803.161	12.53
803.472	12.35
803.782	12.1
804.093	11.76
804.403	11.04
804.714	11.35
805.024	11.48
805.334	11.65
805.645	11.18
805.955	11.42
806.265	12.14
806.575	11.47
806.885	10.83
807.195	10.99
807.505	10.4
807.815	10.6
808.125	10.14
808.435	9.47
808.745	10.01
809.055	10.25
809.365	10.19
809.674	9.13
809.984	9.26
810.294	9.4
810.603	9.45
810.913	10.02
811.222	10.26
811.532	10.58
811.841	10.73
812.151	11.93
812.46	12.25
812.769	11.41
813.079	10.83
813.388	11.24
813.697	11.25
814.006	11.17
814.315	11.14
814.624	12.02
814.933	12.55
815.242	11.98
815.551	11.81
815.86	11.4
816.169	12.21
816.478	12.56
816.786	12.33
817.095	12.76
817.404	13.16
817.712	12.91
818.021	12.79
818.33	13.14
818.638	12.83
818.947	12.82
819.255	12.8
819.563	12.97
819.872	13.02
820.18	12.68
820.488	12.56
820.796	12.71
821.105	12.81
821.413	12.75
821.721	12.84
822.029	12.81
822.337	12.84
822.645	12.81
822.953	12.73
823.26	12.72
823.568	12.47
823.876	12.22
824.184	12.14
824.491	12.17
824.799	11.93
825.107	11.9
825.414	11.84
825.722	11.95
826.029	11.9
826.337	11.93
826.644	12.08
826.951	12.06
827.259	11.9
827.566	11.62
827.873	11.71
828.18	11.57
828.488	11.5
828.795	11.43
829.102	11.51
829.409	11.82
829.716	11.83
830.023	11.94
830.329	11.98
830.636	12.31
830.943	12.25
831.25	12.52
831.557	12.58
831.863	12.62
832.17	12.21
832.476	12.16
832.783	12.38
833.089	12.17
833.396	12.7
833.702	12.99
834.009	13.37
834.315	13.28
834.621	13.25
834.928	13.35
835.234	13.33
835.54	13.15
835.846	12.71
836.152	12.81
836.458	13.2
836.764	13.37
837.07	13.49
837.376	13.28
837.682	13.34
837.988	13.49
838.293	13.35
838.599	13.36
838.905	13.54
839.211	12.4
839.516	12.73
839.822	12.59
840.127	12.66
840.433	12.34
840.738	12.65
841.044	12.29
841.349	13.05
841.654	12.57
841.959	12.2
842.265	12.4
842.57	12.79
842.875	12.1
843.18	12.94
843.485	12.85
843.79	13.65
844.095	12.75
844.4	12.82
844.705	11.62
845.01	11.77
845.315	11.79
845.619	13.02
845.924	12.94
846.229	11.98
846.533	12.1
846.838	12.22
847.142	10.45
847.447	12.41
847.751	11.54
848.056	11.46
848.36	12.64
848.664	13.45
848.969	12.26
849.273	13.04
849.577	11.91
849.881	9.62
850.185	9.5
850.489	10.1
850.794	9.87
851.097	12.13
851.401	13.5
851.705	14.36
852.009	14.51
852.313	14.08
852.617	15.52
852.92	15.9
853.224	16.27
853.528	17.11
853.831	15.04
854.135	15.4
854.438	16.02
854.742	14.01
855.045	13.09
855.349	12.56
855.652	11.32
855.955	11.88
856.259	14.3
856.562	13.93
856.865	14.71
857.168	14.28
857.471	15.24
857.774	15.17
858.077	14.95
858.38	15.53
858.683	17
858.986	17.11
859.289	15.62
859.592	14.1
859.894	14.55
860.197	13.63
860.5	12.71
860.802	13.57
861.105	14.83
861.407	14.53
861.71	15.39
862.012	17.57
862.315	16.45
862.617	15.43
862.919	15.32
863.222	15.32
863.524	16.61
863.826	15.76
864.128	14.38
864.43	15.1
864.732	13.91
865.034	13.02
865.336	11.84
865.638	10.94
865.94	10.39
866.242	10.73
866.544	10.81
866.846	11.46
867.147	8.75
867.449	7.88
867.751	9.9
868.052	11.51
868.354	11.61
868.655	12.12
868.957	11.26
869.258	12.19
869.56	12.09
869.861	11.59
870.162	11.23
870.463	11.61
870.765	10.58
871.066	11.82
871.367	11.31
871.668	13.66
871.969	12.22
872.27	13.47
872.571	11.12
872.872	13.28
873.173	14.54
873.473	15.71
873.774	17.2
874.075	15.52
874.376	14.38
874.676	15.44
874.977	13.65
875.277	17.51
875.578	14.14
875.878	14.43
876.179	13.74
876.479	13.71
876.78	14.06
877.08	14.71
877.38	12.48
877.68	11.8
877.981	8.49
878.281	12.7
878.581	13.3
