Data from BA57965_Reflection_00004.txt Node
Date: Mon Nov 18 15:15:59 EST 2019
User: vgr7
Spectrometer: USB2G7710
Scans to average: 3
Trigger mode: 4
Integration Time (sec): 2.000000E-2
Electric dark correction enabled: true
Boxcar width: 10
XAxis mode: Wavelengths
Number of Pixels in Spectrum: 2048
>>>>>Begin Spectral Data<<<<<
177.721	34.65
178.105	52.52
178.488	41.61
178.871	1.08
179.254	-107.9
179.636	18.96
180.019	35.86
180.402	65.79
180.785	31.61
181.168	101.46
181.55	178.82
181.933	134.36
182.316	176.82
182.698	568.62
183.081	629.03
183.463	-460.51
183.846	-69.98
184.228	-71.86
184.611	-136.02
184.993	-107.42
185.376	-66.1
185.758	-64.08
186.14	-20.11
186.522	-8.99
186.904	-13.18
187.287	-45.83
187.669	-14.52
188.051	-7.47
188.433	4.38
188.815	19.93
189.197	26.6
189.579	25.51
189.961	14.17
190.342	2.84
190.724	13.39
191.106	22.38
191.488	28.74
191.869	35.07
192.251	44.62
192.633	36.41
193.014	33.88
193.396	45.01
193.777	57.54
194.159	66.01
194.54	44.74
194.922	48
195.303	62.42
195.684	53.02
196.065	49.16
196.447	35.77
196.828	31.03
197.209	32.91
197.59	43.14
197.971	50.69
198.352	60.45
198.733	51.95
199.114	57.49
199.495	58.08
199.876	51.73
200.257	55.77
200.638	56.03
201.018	72.09
201.399	76.9
201.78	68.72
202.16	47.16
202.541	62.44
202.922	61.49
203.302	67.59
203.683	62.04
204.063	54.47
204.444	59.98
204.824	57.12
205.204	52.88
205.585	49.89
205.965	42.58
206.345	50.8
206.725	60.4
207.106	43.63
207.486	30.75
207.866	39.41
208.246	38.36
208.626	42.07
209.006	36.94
209.386	28.73
209.766	28.88
210.145	38
210.525	26.65
210.905	30.8
211.285	23.24
211.664	35.45
212.044	40.4
212.424	30
212.803	25.8
213.183	28.05
213.562	27.51
213.942	35.22
214.321	34.23
214.701	29.95
215.08	29.15
215.459	32.06
215.838	26.87
216.218	24.04
216.597	29.01
216.976	28.71
217.355	29.36
217.734	30.03
218.113	31.3
218.492	29.16
218.871	29.85
219.25	27.99
219.629	21.38
220.008	19.39
220.387	29.74
220.766	40.37
221.144	44.5
221.523	37.82
221.902	31.73
222.28	21.36
222.659	19.52
223.037	13.22
223.416	13.19
223.794	20.05
224.173	21.76
224.551	24.98
224.929	16.68
225.308	18.04
225.686	19.32
226.064	18.15
226.442	19.58
226.821	18.95
227.199	16.31
227.577	15.39
227.955	15.14
228.333	14.53
228.711	11.48
229.089	10.73
229.467	9.44
229.845	8.66
230.222	10.63
230.6	11.46
230.978	11.87
231.356	11.58
231.733	9.78
232.111	10.25
232.488	8.34
232.866	9.1
233.243	8.83
233.621	7.84
233.998	9.16
234.376	7.71
234.753	6.14
235.13	8.26
235.508	7.85
235.885	6.43
236.262	5.29
236.639	5.65
237.016	5.51
237.393	6.68
237.77	8.18
238.147	7.98
238.524	7.03
238.901	7.8
239.278	7.62
239.655	7.88
240.032	8.07
240.409	8.21
240.785	8.48
241.162	8.07
241.539	7.98
241.915	7.61
242.292	7.48
242.668	7.87
243.045	7.63
243.421	7.92
243.798	7.9
244.174	7.75
244.551	7.66
244.927	7.4
245.303	7.53
245.679	7.3
246.056	7.14
246.432	7.41
246.808	7.12
247.184	6.91
247.56	7.02
247.936	6.88
248.312	6.72
248.688	6.63
249.064	6.68
249.44	6.7
249.815	6.6
250.191	6.94
250.567	6.89
250.943	6.91
251.318	6.97
251.694	7.27
252.069	7.52
252.445	7.68
252.82	7.49
253.196	7.06
253.571	7.37
253.947	7.61
254.322	7.25
254.697	7.38
255.073	7.5
255.448	7.35
255.823	7.15
256.198	7.28
256.573	7.1
256.948	7
257.323	6.99
257.698	7.14
258.073	6.93
258.448	6.76
258.823	6.72
259.198	6.65
259.573	6.44
259.948	6.1
260.322	6.07
260.697	6.19
261.072	6.23
261.446	6.17
261.821	6.03
262.195	6.12
262.57	6.02
262.944	5.92
263.319	5.87
263.693	5.8
264.067	5.77
264.442	5.93
264.816	5.9
265.19	5.86
265.564	5.7
265.938	5.48
266.313	5.58
266.687	5.52
267.061	5.64
267.435	5.56
267.809	5.92
268.183	5.79
268.556	5.84
268.93	5.82
269.304	5.73
269.678	5.84
270.051	5.81
270.425	5.89
270.799	6.04
271.172	6.06
271.546	6.19
271.919	6.15
272.293	5.91
272.666	5.86
273.04	5.94
273.413	5.87
273.787	6.14
274.16	6.05
274.533	6.01
274.906	5.94
275.279	6.08
275.653	6.04
276.026	6.17
276.399	6.13
276.772	6.24
277.145	6.06
277.518	5.9
277.891	5.87
278.263	5.86
278.636	5.76
279.009	5.87
279.382	5.86
279.755	5.96
280.127	6.17
280.5	6.35
280.872	6.29
281.245	6.16
281.617	6.12
281.99	6.28
282.362	6.45
282.735	6.32
283.107	6.41
283.479	6.4
283.852	6.38
284.224	6.39
284.596	6.31
284.968	6.51
285.34	6.61
285.713	6.69
286.085	6.58
286.457	6.74
286.829	6.67
287.201	6.68
287.572	6.55
287.944	6.45
288.316	6.3
288.688	6.3
289.06	6.39
289.431	6.45
289.803	6.39
290.175	6.35
290.546	6.34
290.918	6.25
291.289	6.18
291.661	6.2
292.032	6.31
292.403	6.45
292.775	6.49
293.146	6.52
293.517	6.46
293.889	6.72
294.26	6.75
294.631	6.77
295.002	6.77
295.373	6.89
295.744	6.91
296.115	6.95
296.486	6.84
296.857	7.02
297.228	7.06
297.599	7
297.97	7.08
298.34	7.22
298.711	7.33
299.082	7.39
299.452	7.36
299.823	7.42
300.194	7.39
300.564	7.29
300.935	7.3
301.305	7.41
301.676	7.31
302.046	7.23
302.416	7.26
302.787	7.26
303.157	7.31
303.527	7.33
303.897	7.46
304.267	7.65
304.637	7.64
305.008	7.51
305.378	7.71
305.748	7.63
306.117	7.52
306.487	7.47
306.857	7.59
307.227	7.58
307.597	7.59
307.967	7.49
308.336	7.62
308.706	7.56
309.076	7.62
309.445	7.56
309.815	7.69
310.184	7.66
310.554	7.76
310.923	7.8
311.293	7.83
311.662	7.67
312.031	7.6
312.401	7.56
312.77	7.6
313.139	7.5
313.508	7.48
313.877	7.61
314.246	7.59
314.616	7.55
314.985	7.67
315.353	7.67
315.722	7.93
316.091	7.79
316.46	7.91
316.829	7.94
317.198	8.01
317.567	7.8
317.935	7.97
318.304	7.88
318.672	7.74
319.041	7.85
319.41	7.86
319.778	8.05
320.147	8.1
320.515	8.2
320.883	8.27
321.252	8.36
321.62	8.31
321.988	8.21
322.357	8.29
322.725	8.27
323.093	8.33
323.461	8.25
323.829	8.33
324.197	8.2
324.565	8.31
324.933	8.29
325.301	8.45
325.669	8.38
326.037	8.48
326.405	8.55
326.772	8.56
327.14	8.74
327.508	8.62
327.875	8.57
328.243	8.69
328.61	8.68
328.978	8.63
329.346	8.75
329.713	8.75
330.08	8.69
330.448	8.67
330.815	8.51
331.182	8.43
331.55	8.31
331.917	8.48
332.284	8.38
332.651	8.46
333.018	8.49
333.385	8.49
333.752	8.51
334.119	8.6
334.486	8.51
334.853	8.46
335.22	8.55
335.587	8.59
335.954	8.45
336.32	8.44
336.687	8.57
337.054	8.45
337.42	8.53
337.787	8.52
338.153	8.53
338.52	8.55
338.886	8.56
339.253	8.69
339.619	8.69
339.986	8.62
340.352	8.7
340.718	8.59
341.084	8.65
341.451	8.6
341.817	8.43
342.183	8.49
342.549	8.49
342.915	8.51
343.281	8.44
343.647	8.45
344.013	8.52
344.379	8.35
344.745	8.33
345.11	8.36
345.476	8.33
345.842	8.4
346.208	8.48
346.573	8.5
346.939	8.53
347.304	8.42
347.67	8.41
348.035	8.27
348.401	8.28
348.766	8.29
349.132	8.29
349.497	8.4
349.862	8.39
350.228	8.46
350.593	8.33
350.958	8.33
351.323	8.31
351.688	8.16
352.053	8.24
352.418	8.24
352.783	8.21
353.148	8.28
353.513	8.28
353.878	8.23
354.243	8.33
354.608	8.33
354.972	8.5
355.337	8.59
355.702	8.68
356.066	8.71
356.431	8.63
356.795	8.67
357.16	8.64
357.524	8.59
357.889	8.5
358.253	8.59
358.618	8.67
358.982	8.66
359.346	8.75
359.71	8.69
360.075	8.74
360.439	8.76
360.803	8.71
361.167	8.59
361.531	8.62
361.895	8.51
362.259	8.51
362.623	8.42
362.987	8.35
363.351	8.4
363.714	8.43
364.078	8.43
364.442	8.39
364.806	8.44
365.169	8.45
365.533	8.49
365.896	8.42
366.26	8.37
366.623	8.38
366.987	8.4
367.35	8.46
367.714	8.46
368.077	8.47
368.44	8.49
368.803	8.59
369.167	8.6
369.53	8.62
369.893	8.68
370.256	8.64
370.619	8.64
370.982	8.55
371.345	8.49
371.708	8.51
372.071	8.48
372.434	8.42
372.797	8.47
373.159	8.4
373.522	8.42
373.885	8.42
374.247	8.38
374.61	8.37
374.973	8.34
375.335	8.34
375.698	8.35
376.06	8.32
376.423	8.31
376.785	8.3
377.147	8.35
377.51	8.27
377.872	8.31
378.234	8.31
378.596	8.33
378.958	8.31
379.321	8.27
379.683	8.34
380.045	8.34
380.407	8.31
380.769	8.34
381.13	8.33
381.492	8.32
381.854	8.35
382.216	8.35
382.578	8.32
382.939	8.28
383.301	8.2
383.663	8.19
384.024	8.18
384.386	8.19
384.747	8.12
385.109	8.13
385.47	8.11
385.832	8.13
386.193	8.12
386.554	8.11
386.916	8.11
387.277	8.05
387.638	8.04
387.999	8
388.36	8.03
388.721	8.09
389.082	8.07
389.443	8.07
389.804	8.03
390.165	8.04
390.526	8.06
390.887	8.08
391.248	8.09
391.609	8.05
391.969	8.02
392.33	8.06
392.691	8.06
393.051	8.03
393.412	8
393.772	7.98
394.133	8.01
394.493	8.02
394.854	8.05
395.214	8
395.574	8.02
395.935	7.97
396.295	7.94
396.655	7.95
397.015	7.9
397.376	7.89
397.736	7.88
398.096	7.85
398.456	7.86
398.816	7.86
399.176	7.81
399.535	7.78
399.895	7.79
400.255	7.78
400.615	7.8
400.975	7.75
401.334	7.76
401.694	7.77
402.054	7.75
402.413	7.73
402.773	7.74
403.132	7.75
403.492	7.74
403.851	7.72
404.211	7.72
404.57	7.74
404.929	7.74
405.288	7.73
405.648	7.74
406.007	7.73
406.366	7.7
406.725	7.75
407.084	7.8
407.443	7.79
407.802	7.77
408.161	7.76
408.52	7.79
408.879	7.79
409.238	7.76
409.596	7.74
409.955	7.72
410.314	7.71
410.673	7.7
411.031	7.72
411.39	7.75
411.748	7.71
412.107	7.72
412.465	7.7
412.824	7.73
413.182	7.69
413.54	7.68
413.899	7.69
414.257	7.69
414.615	7.65
414.974	7.61
415.332	7.61
415.69	7.61
416.048	7.59
416.406	7.55
416.764	7.51
417.122	7.49
417.48	7.46
417.838	7.48
418.195	7.45
418.553	7.43
418.911	7.41
419.269	7.41
419.626	7.4
419.984	7.38
420.342	7.34
420.699	7.34
421.057	7.35
421.414	7.33
421.772	7.33
422.129	7.31
422.486	7.32
422.844	7.3
423.201	7.27
423.558	7.25
423.915	7.24
424.273	7.25
424.63	7.25
424.987	7.25
425.344	7.23
425.701	7.24
426.058	7.23
426.415	7.22
426.772	7.2
427.128	7.18
427.485	7.2
427.842	7.22
428.199	7.21
428.555	7.17
428.912	7.19
429.269	7.17
429.625	7.15
429.982	7.14
430.338	7.14
430.695	7.14
431.051	7.14
431.407	7.14
431.764	7.14
432.12	7.14
432.476	7.11
432.832	7.1
433.189	7.08
433.545	7.06
433.901	7.05
434.257	7.08
434.613	7.09
434.969	7.07
435.325	7.07
435.681	7.07
436.036	7.07
436.392	7.04
436.748	7.02
437.104	7.03
437.459	7.01
437.815	7.01
438.171	7.02
438.526	7.02
438.882	7.02
439.237	7.02
439.593	7.02
439.948	7.03
440.304	7.02
440.659	7.03
441.014	7.02
441.369	7
441.725	6.97
442.08	6.96
442.435	6.97
442.79	6.96
443.145	6.94
443.5	6.93
443.855	6.94
444.21	6.93
444.565	6.93
444.92	6.93
445.275	6.92
445.629	6.9
445.984	6.88
446.339	6.87
446.693	6.85
447.048	6.84
447.403	6.84
447.757	6.82
448.112	6.8
448.466	6.79
448.82	6.79
449.175	6.79
449.529	6.77
449.883	6.74
450.238	6.71
450.592	6.72
450.946	6.7
451.3	6.66
451.654	6.67
452.008	6.65
452.362	6.63
452.716	6.62
453.07	6.62
453.424	6.63
453.778	6.64
454.132	6.64
454.486	6.65
454.839	6.64
455.193	6.67
455.547	6.7
455.9	6.72
456.254	6.73
456.607	6.72
456.961	6.72
457.314	6.73
457.668	6.75
458.021	6.74
458.375	6.76
458.728	6.79
459.081	6.8
459.434	6.8
459.787	6.83
460.141	6.85
460.494	6.84
460.847	6.87
461.2	6.87
461.553	6.88
461.906	6.88
462.259	6.88
462.611	6.88
462.964	6.88
463.317	6.88
463.67	6.87
464.022	6.9
464.375	6.9
464.728	6.91
465.08	6.89
465.433	6.91
465.785	6.91
466.138	6.92
466.49	6.93
466.843	6.93
467.195	6.94
467.547	6.94
467.899	6.96
468.252	6.93
468.604	6.95
468.956	6.94
469.308	6.94
469.66	6.95
470.012	6.97
470.364	6.96
470.716	6.96
471.068	6.99
471.42	7
471.772	7.02
472.123	7.03
472.475	7.08
472.827	7.07
473.178	7.09
473.53	7.07
473.882	7.06
474.233	7.06
474.585	7.03
474.936	7.04
475.288	7.02
475.639	7.03
475.99	7.02
476.342	7.02
476.693	7.02
477.044	7.04
477.395	7.03
477.746	7.03
478.097	7.04
478.448	7.03
478.8	7.02
479.15	7.01
479.501	7.02
479.852	7.02
480.203	7.04
480.554	7.05
480.905	7.06
481.255	7.07
481.606	7.08
481.957	7.09
482.307	7.1
482.658	7.12
483.009	7.12
483.359	7.12
483.709	7.12
484.06	7.13
484.41	7.13
484.761	7.13
485.111	7.13
485.461	7.14
485.811	7.15
486.162	7.15
486.512	7.17
486.862	7.18
487.212	7.18
487.562	7.19
487.912	7.2
488.262	7.21
488.612	7.21
488.961	7.21
489.311	7.22
489.661	7.23
490.011	7.22
490.36	7.23
490.71	7.25
491.06	7.27
491.409	7.28
491.759	7.28
492.108	7.31
492.458	7.31
492.807	7.3
493.157	7.31
493.506	7.34
493.855	7.35
494.204	7.34
494.554	7.35
494.903	7.35
495.252	7.36
495.601	7.36
495.95	7.38
496.299	7.4
496.648	7.42
496.997	7.42
497.346	7.44
497.695	7.49
498.043	7.5
498.392	7.5
498.741	7.53
499.09	7.54
499.438	7.52
499.787	7.57
500.135	7.62
500.484	7.66
500.832	7.66
501.181	7.69
501.529	7.72
501.878	7.76
502.226	7.78
502.574	7.81
502.923	7.84
503.271	7.86
503.619	7.9
503.967	7.92
504.315	7.94
504.663	7.99
505.011	8.01
505.359	8.04
505.707	8.09
506.055	8.11
506.403	8.16
506.751	8.2
507.098	8.21
507.446	8.22
507.794	8.24
508.141	8.29
508.489	8.29
508.837	8.3
509.184	8.33
509.531	8.36
509.879	8.4
510.226	8.42
510.574	8.45
510.921	8.46
511.268	8.47
511.616	8.5
511.963	8.5
512.31	8.49
512.657	8.54
513.004	8.57
513.351	8.58
513.698	8.58
514.045	8.61
514.392	8.64
514.739	8.66
515.086	8.69
515.432	8.68
515.779	8.71
516.126	8.75
516.473	8.75
516.819	8.77
517.166	8.77
517.512	8.77
517.859	8.78
518.205	8.8
518.552	8.83
518.898	8.84
519.245	8.87
519.591	8.86
519.937	8.85
520.283	8.85
520.629	8.86
520.976	8.89
521.322	8.9
521.668	8.9
522.014	8.91
522.36	8.92
522.706	8.95
523.052	8.96
523.398	8.98
523.743	9
524.089	9.03
524.435	9.03
524.781	9.06
525.126	9.08
525.472	9.11
525.817	9.13
526.163	9.12
526.509	9.12
526.854	9.14
527.199	9.17
527.545	9.16
527.89	9.17
528.235	9.18
528.581	9.18
528.926	9.19
529.271	9.21
529.616	9.21
529.961	9.22
530.306	9.22
530.651	9.22
530.996	9.23
531.341	9.24
531.686	9.26
532.031	9.26
532.376	9.26
532.721	9.26
533.065	9.26
533.41	9.28
533.755	9.28
534.099	9.31
534.444	9.3
534.788	9.3
535.133	9.3
535.477	9.32
535.822	9.33
536.166	9.32
536.51	9.31
536.855	9.34
537.199	9.35
537.543	9.37
537.887	9.39
538.231	9.4
538.576	9.39
538.92	9.41
539.264	9.44
539.608	9.48
539.951	9.48
540.295	9.49
540.639	9.5
540.983	9.53
541.327	9.53
541.671	9.54
542.014	9.57
542.358	9.59
542.701	9.59
543.045	9.59
543.389	9.63
543.732	9.64
544.075	9.62
544.419	9.64
544.762	9.66
545.105	9.66
545.449	9.68
545.792	9.69
546.135	9.67
546.478	9.67
546.821	9.66
547.165	9.65
547.508	9.67
547.851	9.65
548.194	9.62
548.536	9.62
548.879	9.62
549.222	9.62
549.565	9.65
549.908	9.65
550.25	9.67
550.593	9.65
550.936	9.64
551.278	9.63
551.621	9.63
551.963	9.61
552.306	9.57
552.648	9.56
552.991	9.6
553.333	9.63
553.675	9.6
554.017	9.62
554.36	9.65
554.702	9.64
555.044	9.66
555.386	9.69
555.728	9.71
556.07	9.72
556.412	9.73
556.754	9.71
557.096	9.7
557.438	9.72
557.78	9.74
558.121	9.75
558.463	9.79
558.805	9.77
559.147	9.78
559.488	9.82
559.83	9.84
560.171	9.79
560.513	9.8
560.854	9.83
561.196	9.83
561.537	9.83
561.878	9.82
562.22	9.82
562.561	9.85
562.902	9.83
563.243	9.84
563.584	9.82
563.925	9.84
564.266	9.83
564.607	9.83
564.948	9.82
565.289	9.84
565.63	9.85
565.971	9.84
566.312	9.87
566.653	9.89
566.993	9.9
567.334	9.94
567.675	9.95
568.015	9.96
568.356	9.95
568.696	9.98
569.037	9.98
569.377	10
569.718	10
570.058	10.01
570.398	10.04
570.739	10.05
571.079	10.05
571.419	10.07
571.759	10.08
572.099	10.1
572.439	10.08
572.779	10.08
573.119	10.1
573.459	10.1
573.799	10.1
574.139	10.08
574.479	10.07
574.819	10.05
575.158	10.03
575.498	10.04
575.838	10.03
576.177	10.06
576.517	10.05
576.856	10.05
577.196	10.05
577.535	10.01
577.875	10.01
578.214	10.02
578.553	10
578.893	10.01
579.232	9.99
579.571	10.02
579.91	10.02
580.25	10.02
580.589	10.01
580.928	10.03
581.267	10.05
581.606	10.03
581.945	10.03
582.283	10.06
582.622	10.08
582.961	10.09
583.3	10.09
583.639	10.15
583.977	10.17
584.316	10.16
584.654	10.14
584.993	10.17
585.332	10.18
585.67	10.21
586.008	10.23
586.347	10.23
586.685	10.23
587.024	10.25
587.362	10.27
587.7	10.3
588.038	10.3
588.376	10.3
588.715	10.34
589.053	10.35
589.391	10.33
589.729	10.32
590.067	10.28
590.404	10.28
590.742	10.25
591.08	10.22
591.418	10.19
591.756	10.26
592.093	10.26
592.431	10.23
592.769	10.23
593.106	10.24
593.444	10.23
593.781	10.23
594.119	10.23
594.456	10.2
594.793	10.2
595.131	10.21
595.468	10.2
595.805	10.2
596.143	10.22
596.48	10.24
596.817	10.27
597.154	10.31
597.491	10.31
597.828	10.3
598.165	10.29
598.502	10.32
598.839	10.27
599.176	10.23
599.512	10.25
599.849	10.24
600.186	10.19
600.523	10.2
600.859	10.23
601.196	10.24
601.532	10.26
601.869	10.26
602.205	10.26
602.542	10.31
602.878	10.28
603.215	10.27
603.551	10.25
603.887	10.26
604.223	10.26
604.56	10.26
604.896	10.28
605.232	10.33
605.568	10.37
605.904	10.39
606.24	10.44
606.576	10.47
606.912	10.51
607.248	10.56
607.583	10.57
607.919	10.56
608.255	10.56
608.591	10.6
608.926	10.62
609.262	10.63
609.597	10.6
609.933	10.62
610.268	10.63
610.604	10.67
610.939	10.64
611.275	10.64
611.61	10.62
611.945	10.62
612.281	10.61
612.616	10.58
612.951	10.62
613.286	10.6
613.621	10.54
613.956	10.54
614.291	10.54
614.626	10.52
614.961	10.55
615.296	10.53
615.631	10.51
615.966	10.51
616.3	10.53
616.635	10.53
616.97	10.54
617.304	10.55
617.639	10.58
617.973	10.65
618.308	10.67
618.642	10.71
618.977	10.69
619.311	10.76
619.646	10.75
619.98	10.74
620.314	10.73
620.648	10.77
620.983	10.77
621.317	10.77
621.651	10.86
621.985	10.84
622.319	10.91
622.653	10.92
622.987	10.88
623.321	10.85
623.655	10.87
623.988	10.86
624.322	10.82
624.656	10.8
624.99	10.75
625.323	10.72
625.657	10.78
625.99	10.83
626.324	10.76
626.657	10.76
626.991	10.74
627.324	10.78
627.658	10.82
627.991	10.86
628.324	10.83
628.657	10.78
628.991	10.78
629.324	10.74
629.657	10.72
629.99	10.72
630.323	10.74
630.656	10.77
630.989	10.79
631.322	10.85
631.655	10.84
631.987	10.85
632.32	10.89
632.653	10.83
632.986	10.79
633.318	10.8
633.651	10.83
633.984	10.79
634.316	10.75
634.649	10.72
634.981	10.69
635.313	10.75
635.646	10.74
635.978	10.7
636.31	10.67
636.643	10.72
636.975	10.75
637.307	10.75
637.639	10.7
637.971	10.72
638.303	10.7
638.635	10.66
638.967	10.67
639.299	10.64
639.631	10.62
639.963	10.6
640.295	10.62
640.626	10.63
640.958	10.71
641.29	10.79
641.621	10.82
641.953	10.82
642.285	10.84
642.616	10.92
642.948	10.99
643.279	11.02
643.61	10.94
643.942	10.98
644.273	10.99
644.604	11.01
644.936	10.97
645.267	10.93
645.598	10.94
645.929	10.99
646.26	11.05
646.591	11.11
646.922	11.13
647.253	11.16
647.584	11.16
647.915	11.12
648.245	11.07
648.576	11.12
648.907	11.17
649.238	11.09
649.568	11.02
649.899	10.94
650.229	10.95
650.56	11.06
650.89	11.06
651.221	11.05
651.551	11.05
651.882	11.09
652.212	11.22
652.542	11.22
652.872	11.15
653.203	11.12
653.533	11.1
653.863	11.13
654.193	11.09
654.523	11.12
654.853	11.12
655.183	11.17
655.513	11.12
655.843	11.09
656.172	11.11
656.502	11.19
656.832	11.25
657.162	11.23
657.491	11.23
657.821	11.24
658.15	11.24
658.48	11.23
658.809	11.23
659.139	11.19
659.468	11.19
659.798	11.21
660.127	11.21
660.456	11.25
660.785	11.22
661.115	11.2
661.444	11.22
661.773	11.18
662.102	11.12
662.431	11.16
662.76	11.14
663.089	11.15
663.418	11.08
663.747	11.06
664.076	11.07
664.404	11.04
664.733	11.04
665.062	11.03
665.39	11.05
665.719	11.06
666.048	11.13
666.376	11.14
666.705	11.13
667.033	11.08
667.362	11.05
667.69	11.08
668.018	11.19
668.347	11.1
668.675	11.18
669.003	11.27
669.331	11.23
669.659	11.24
669.987	11.24
670.315	11.28
670.643	11.26
670.971	11.26
671.299	11.25
671.627	11.2
671.955	11.21
672.283	11.21
672.61	11.15
672.938	11.11
673.266	11.17
673.593	11.27
673.921	11.37
674.249	11.41
674.576	11.34
674.904	11.38
675.231	11.48
675.558	11.45
675.886	11.4
676.213	11.49
676.54	11.49
676.867	11.53
677.195	11.49
677.522	11.51
677.849	11.61
678.176	11.68
678.503	11.71
678.83	11.76
679.157	11.79
679.484	11.77
679.81	11.84
680.137	11.78
680.464	11.74
680.791	11.66
681.117	11.65
681.444	11.73
681.771	11.62
682.097	11.62
682.424	11.64
682.75	11.65
683.077	11.61
683.403	11.65
683.729	11.59
684.056	11.67
684.382	11.73
684.708	11.73
685.034	11.71
685.36	11.71
685.686	11.7
686.012	11.74
686.339	11.9
686.664	11.88
686.99	11.94
687.316	11.99
687.642	12.15
687.968	12.15
688.294	12.18
688.619	12.27
688.945	12.21
689.271	12.21
689.596	12.17
689.922	12.21
690.247	12.13
690.573	12.19
690.898	12.18
691.224	12.24
691.549	12.19
691.874	12.23
692.2	12.3
692.525	12.21
692.85	12.18
693.175	12.11
693.5	11.97
693.825	11.95
694.15	11.93
694.475	11.88
694.8	11.94
695.125	11.88
695.45	11.88
695.775	11.94
696.099	11.97
696.424	12.13
696.749	12.09
697.073	12.18
697.398	12.14
697.723	12.14
698.047	12.07
698.372	12.05
698.696	12.11
699.02	12.08
699.345	12.11
699.669	12.24
699.993	12.24
700.318	12.35
700.642	12.4
700.966	12.36
701.29	12.42
701.614	12.41
701.938	12.52
702.262	12.57
702.586	12.55
702.91	12.59
703.234	12.4
703.557	12.47
703.881	12.46
704.205	12.52
704.529	12.51
704.852	12.44
705.176	12.48
705.499	12.44
705.823	12.47
706.146	12.47
706.47	12.28
706.793	12.27
707.117	12.37
707.44	12.42
707.763	12.41
708.086	12.28
708.409	12.25
708.733	12.3
709.056	12.27
709.379	12.5
709.702	12.49
710.025	12.52
710.348	12.48
710.671	12.44
710.993	12.49
711.316	12.45
711.639	12.66
711.962	12.72
712.284	12.7
712.607	12.69
712.93	12.86
713.252	12.88
713.575	12.91
713.897	12.79
714.22	12.69
714.542	12.82
714.864	12.92
715.187	12.97
715.509	13
715.831	13.04
716.153	12.92
716.475	13.05
716.798	13.32
717.12	13.37
717.442	13.32
717.764	13.34
718.085	13.4
718.407	13.32
718.729	13.2
719.051	13.15
719.373	13.31
719.695	13.13
720.016	13.32
720.338	13.34
720.659	13.44
720.981	13.44
721.302	13.48
721.624	13.37
721.945	13.35
722.267	13.3
722.588	12.98
722.909	12.89
723.231	12.63
723.552	12.43
723.873	12.4
724.194	12.41
724.515	12.42
724.836	12.45
725.157	12.61
725.478	12.69
725.799	12.8
726.12	12.58
726.441	12.72
726.762	12.69
727.083	12.57
727.403	12.55
727.724	12.53
728.045	12.47
728.365	12.5
728.686	12.58
729.006	12.5
729.327	12.6
729.647	12.68
729.967	12.81
730.288	12.84
730.608	12.7
730.928	12.69
731.249	12.57
731.569	12.78
731.889	12.73
732.209	12.67
732.529	12.43
732.849	12.51
733.169	12.18
733.489	11.97
733.809	12.1
734.129	12.08
734.448	12.35
734.768	12.46
735.088	12.43
735.408	12.36
735.727	12.44
736.047	12.71
736.366	12.67
736.686	12.61
737.005	12.71
737.325	12.92
737.644	13.13
737.963	13.18
738.283	12.93
738.602	13.09
738.921	13.33
739.24	13.59
739.56	13.64
739.879	13.97
740.198	14.19
740.517	14.22
740.836	14.26
741.155	14.07
741.473	14.13
741.792	14.33
742.111	14.42
742.43	14.31
742.748	13.96
743.067	14.02
743.386	14.08
743.704	14.05
744.023	14.07
744.341	14.06
744.66	14.36
744.978	14.48
745.297	14.36
745.615	14.44
745.933	14.4
746.252	14.55
746.57	14.59
746.888	14.75
747.206	14.75
747.524	14.8
747.842	14.95
748.16	14.89
748.478	14.95
748.796	15.38
749.114	15.65
749.432	15.72
749.749	15.79
750.067	15.61
750.385	15.48
750.703	15.48
751.02	15.53
751.338	15.28
751.655	15.44
751.973	15.52
752.29	15.17
752.608	15.2
752.925	15.07
753.242	14.94
753.56	14.75
753.877	14.78
754.194	14.77
754.511	14.79
754.828	14.61
755.145	14.49
755.462	14.12
755.779	14.09
756.096	14.3
756.413	14.56
756.73	14.79
757.047	14.82
757.364	14.83
757.68	14.67
757.997	14.74
758.314	14.54
758.63	14.37
758.947	14.7
759.264	14.56
759.58	14.53
759.896	14.7
760.213	14.68
760.529	14.64
760.846	14.45
761.162	14.36
761.478	14.56
761.794	14.44
762.11	14.6
762.426	14.57
762.743	14.64
763.059	14.43
763.375	14.45
763.69	14.54
764.006	14.66
764.322	14.81
764.638	14.85
764.954	15.16
765.27	15.18
765.585	15.1
765.901	15.34
766.216	15.39
766.532	15.25
766.848	15.31
767.163	15.3
767.478	15.38
767.794	15.35
768.109	15.2
768.424	15.38
768.74	15.31
769.055	15.32
769.37	15.47
769.685	15.5
770	15.73
770.315	15.74
770.63	15.44
770.945	15.49
771.26	15.23
771.575	15.12
771.89	15.25
772.205	15.2
772.52	14.68
772.834	14.67
773.149	15.12
773.464	15.05
773.778	15.3
774.093	15.38
774.407	15.59
774.722	15.56
775.036	15.73
775.351	15.59
775.665	15.6
775.979	15.39
776.293	15.59
776.608	15.31
776.922	15.55
777.236	15.73
777.55	15.61
777.864	16.1
778.178	15.97
778.492	15.99
778.806	16.02
779.12	16.4
779.434	16.39
779.747	16.15
780.061	16.23
780.375	16.04
780.689	16.05
781.002	15.99
781.316	16.31
781.629	16.11
781.943	15.96
782.256	16.09
782.57	16.3
782.883	15.8
783.196	15.89
783.51	15.8
783.823	15.82
784.136	16.15
784.449	16.24
784.762	16.23
785.075	16.22
785.388	16.02
785.701	16.04
786.014	16.1
786.327	15.79
786.64	16.22
786.953	16.56
787.266	16.33
787.578	16.3
787.891	16.56
788.204	16.89
788.516	17.23
788.829	17.06
789.141	16.98
789.454	17.32
789.766	17.49
790.079	17.57
790.391	17.4
790.703	17.56
791.016	16.98
791.328	17.41
791.64	17.42
791.952	17.85
792.264	17.79
792.576	17.84
792.888	18.33
793.2	18.29
793.512	17.94
793.824	18.19
794.136	18.36
794.448	18.09
794.76	17.92
795.071	18.03
795.383	18
795.695	17.5
796.006	17.67
796.318	17.61
796.629	17.51
796.941	17.97
797.252	17.69
797.564	18.2
797.875	17.78
798.186	17.52
798.497	17.37
798.809	17.79
799.12	17.72
799.431	17.59
799.742	17.11
800.053	17.26
800.364	17.6
800.675	17.18
800.986	17.31
801.297	16.94
801.608	16.92
801.918	17.25
802.229	17.82
802.54	17.34
802.851	17.37
803.161	17.74
803.472	17.49
803.782	17.11
804.093	17.01
804.403	16.63
804.714	16.94
805.024	16.74
805.334	16.54
805.645	16.47
805.955	17.04
806.265	17.62
806.575	18.04
806.885	17.9
807.195	18.49
807.505	18.34
807.815	18.79
808.125	18.46
808.435	18.3
808.745	18.28
809.055	18.65
809.365	18.56
809.674	17.68
809.984	17.43
810.294	17.46
810.603	17.56
810.913	18.2
811.222	18.22
811.532	18.83
811.841	18.9
812.151	19.65
812.46	19.02
812.769	19.08
813.079	18.89
813.388	18.83
813.697	18.88
814.006	18.92
814.315	18.74
814.624	18.59
814.933	18.77
815.242	18.95
815.551	19.19
815.86	19.55
816.169	19.85
816.478	20.26
816.786	20.47
817.095	20.18
817.404	19.63
817.712	19.63
818.021	19.54
818.33	19.36
818.638	18.58
818.947	18.74
819.255	18.51
819.563	18.37
819.872	18.36
820.18	18.44
820.488	18.46
820.796	18.3
821.105	18.2
821.413	18.15
821.721	18.05
822.029	18.13
822.337	17.92
822.645	18.17
822.953	17.93
823.26	17.96
823.568	17.86
823.876	17.97
824.184	17.89
824.491	17.96
824.799	18.06
825.107	18.25
825.414	18.27
825.722	18.3
826.029	18.41
826.337	18.46
826.644	18.3
826.951	18.21
827.259	18.39
827.566	18.64
827.873	18.8
828.18	18.75
828.488	18.63
828.795	18.74
829.102	18.49
829.409	18.9
829.716	18.95
830.023	19.34
830.329	19.29
830.636	19.62
830.943	19.62
831.25	19.54
831.557	19.11
831.863	19.06
832.17	19.18
832.476	18.94
832.783	18.92
833.089	18.91
833.396	18.97
833.702	19.21
834.009	19.33
834.315	19.14
834.621	19.34
834.928	19.54
835.234	19.37
835.54	19.21
835.846	18.87
836.152	18.68
836.458	18.78
836.764	19.01
837.07	18.69
837.376	18.23
837.682	18.41
837.988	18.9
838.293	18.97
838.599	19.09
838.905	18.82
839.211	18.49
839.516	18.61
839.822	19.36
840.127	18.56
840.433	18.67
840.738	19.26
841.044	19.21
841.349	18.69
841.654	19.47
841.959	20.53
842.265	21.69
842.57	21.72
842.875	21.39
843.18	20.84
843.485	21.39
843.79	21.54
844.095	21.6
844.4	21.94
844.705	21.92
845.01	20.72
845.315	22.16
845.619	23.09
845.924	22.6
846.229	20.97
846.533	21.83
846.838	22.07
847.142	20.62
847.447	19.45
847.751	18.94
848.056	18.42
848.36	17.94
848.664	17.76
848.969	18.12
849.273	18.62
849.577	18.81
849.881	17.98
850.185	18.99
850.489	19
850.794	16.93
851.097	18.37
851.401	18.99
851.705	18.36
852.009	18.72
852.313	20.82
852.617	22.18
852.92	22.46
853.224	22.68
853.528	24.07
853.831	25.14
854.135	26.53
854.438	26.7
854.742	24.72
855.045	24.07
855.349	24.37
855.652	23.95
855.955	24.46
856.259	25.02
856.562	24.77
856.865	24.56
857.168	25.88
857.471	26.33
857.774	26.98
858.077	26.12
858.38	27.03
858.683	26.25
858.986	28.13
859.289	26.86
859.592	25.84
859.894	26.89
860.197	25.86
860.5	25.91
860.802	26.01
861.105	27.78
861.407	27.8
861.71	27.24
862.012	28.11
862.315	28.07
862.617	27.13
862.919	28.16
863.222	27.76
863.524	28.02
863.826	26.72
864.128	27.44
864.43	28.54
864.732	27.47
865.034	27.18
865.336	24.74
865.638	27.64
865.94	26.87
866.242	25.98
866.544	28.06
866.846	28.72
867.147	29.46
867.449	28.92
867.751	31
868.052	34.08
868.354	32.94
868.655	32.3
868.957	34.07
869.258	33.85
869.56	33.89
869.861	34.36
870.162	34.33
870.463	33.94
870.765	34.31
871.066	34.19
871.367	32.92
871.668	34.37
871.969	30.56
872.27	28.27
872.571	28.36
872.872	28.08
873.173	27.38
873.473	26.01
873.774	26.96
874.075	24.57
874.376	22.6
874.676	23.79
874.977	23.89
875.277	23.56
875.578	20.82
875.878	20.58
876.179	19.9
876.479	18.7
876.78	17.4
877.08	16.28
877.38	15.58
877.68	17.12
877.981	14.56
878.281	16.34
878.581	20.28
