Data from BA57730_Reflection_00006.txt Node
Date: Mon Nov 18 15:59:34 EST 2019
User: vgr7
Spectrometer: USB2G7710
Scans to average: 3
Trigger mode: 4
Integration Time (sec): 2.000000E-2
Electric dark correction enabled: true
Boxcar width: 10
XAxis mode: Wavelengths
Number of Pixels in Spectrum: 2048
>>>>>Begin Spectral Data<<<<<
177.721	2036.51
178.105	-89.54
178.488	-210.01
178.871	-139.32
179.254	6.72
179.636	-100.34
180.019	41.69
180.402	27.91
180.785	-31.05
181.168	-70.5
181.55	-22.26
181.933	264.85
182.316	134.83
182.698	102.46
183.081	38.61
183.463	17.91
183.846	32.11
184.228	37.94
184.611	68.99
184.993	25.41
185.376	83.44
185.758	4.76
186.14	14.71
186.522	-16.26
186.904	-12.84
187.287	33.66
187.669	-5.08
188.051	67.77
188.433	390.6
188.815	-31.62
189.197	-45.38
189.579	-35.45
189.961	-106.82
190.342	-58.13
190.724	-135.83
191.106	911.59
191.488	38.38
191.869	119.53
192.251	353.69
192.633	459.88
193.014	435.73
193.396	-753.8
193.777	221.21
194.159	229.52
194.54	156.63
194.922	112.51
195.303	151.07
195.684	184.12
196.065	173.19
196.447	190.99
196.828	125.72
197.209	129.18
197.59	102.04
197.971	67.25
198.352	58.26
198.733	106.82
199.114	72.79
199.495	207.71
199.876	109.1
200.257	117.48
200.638	61.35
201.018	-10.89
201.399	26.06
201.78	31.5
202.16	-30.98
202.541	-176.56
202.922	613.99
203.302	625.39
203.683	-3523.19
204.063	369.78
204.444	271.48
204.824	210.26
205.204	626.98
205.585	857.2
205.965	1012.82
206.345	457.94
206.725	354.81
207.106	265.23
207.486	258.96
207.866	293.13
208.246	270.71
208.626	247.23
209.006	324.84
209.386	306.76
209.766	904.41
210.145	-2422.52
210.525	-314.99
210.905	-111.05
211.285	-69.27
211.664	-81.92
212.044	-54.89
212.424	-19.39
212.803	-31.2
213.183	-31.79
213.562	-31.92
213.942	-12.37
214.321	-16.25
214.701	-14.97
215.08	-1.12
215.459	-3.62
215.838	10.27
216.218	4.46
216.597	13.03
216.976	24.25
217.355	44.34
217.734	48.43
218.113	65.92
218.492	75.92
218.871	77.07
219.25	86.94
219.629	97.14
220.008	113.95
220.387	91.19
220.766	87.82
221.144	84.05
221.523	82.12
221.902	65.6
222.28	67.99
222.659	63.06
223.037	59.56
223.416	55.91
223.794	51.38
224.173	45.92
224.551	36.26
224.929	20.86
225.308	15.95
225.686	19.77
226.064	20.01
226.442	19.44
226.821	18.93
227.199	16.31
227.577	11.21
227.955	9.5
228.333	9.96
228.711	14.12
229.089	19.5
229.467	15.99
229.845	19.11
230.222	20.11
230.6	17.49
230.978	16.41
231.356	15.94
231.733	14.81
232.111	16.41
232.488	16.13
232.866	14.54
233.243	13.39
233.621	15.49
233.998	16.67
234.376	15.69
234.753	14.61
235.13	14.06
235.508	16.19
235.885	15
236.262	14.5
236.639	11.91
237.016	10.98
237.393	11.11
237.77	9.5
238.147	9
238.524	9.18
238.901	8.6
239.278	8.11
239.655	7.8
240.032	7.64
240.409	7.16
240.785	7.91
241.162	7.39
241.539	6.69
241.915	5.56
242.292	5.61
242.668	6.06
243.045	5.72
243.421	5.5
243.798	5.85
244.174	5.94
244.551	6.26
244.927	6
245.303	5.92
245.679	6.22
246.056	6.09
246.432	6.15
246.808	6.15
247.184	6.07
247.56	6.04
247.936	5.83
248.312	5.74
248.688	5.64
249.064	5.9
249.44	5.75
249.815	5.72
250.191	5.75
250.567	5.7
250.943	5.83
251.318	5.95
251.694	5.89
252.069	6.02
252.445	5.69
252.82	5.89
253.196	5.95
253.571	5.55
253.947	5.68
254.322	5.55
254.697	5.58
255.073	5.37
255.448	5
255.823	5.13
256.198	5.26
256.573	5.04
256.948	4.85
257.323	4.86
257.698	5.21
258.073	5.19
258.448	5.04
258.823	4.88
259.198	4.75
259.573	4.66
259.948	4.41
260.322	4.62
260.697	4.36
261.072	4.32
261.446	4.5
261.821	4.47
262.195	4.46
262.57	4.46
262.944	4.44
263.319	4.73
263.693	4.75
264.067	4.83
264.442	5.08
264.816	5.18
265.19	5.06
265.564	5.04
265.938	5.1
266.313	5.14
266.687	5.27
267.061	5.48
267.435	5.63
267.809	5.8
268.183	5.66
268.556	5.92
268.93	6.05
269.304	5.92
269.678	5.99
270.051	5.98
270.425	5.98
270.799	6.06
271.172	5.91
271.546	5.8
271.919	5.66
272.293	5.58
272.666	5.58
273.04	5.67
273.413	5.56
273.787	5.55
274.16	5.48
274.533	5.38
274.906	5.13
275.279	4.91
275.653	4.89
276.026	4.9
276.399	4.68
276.772	4.77
277.145	4.68
277.518	4.54
277.891	4.54
278.263	4.45
278.636	4.5
279.009	4.51
279.382	4.75
279.755	4.76
280.127	4.79
280.5	4.86
280.872	5.04
281.245	5.02
281.617	5.16
281.99	5.27
282.362	5.5
282.735	5.6
283.107	5.78
283.479	5.8
283.852	5.76
284.224	5.75
284.596	5.53
284.968	5.62
285.34	5.62
285.713	5.64
286.085	5.65
286.457	5.77
286.829	5.81
287.201	5.69
287.572	5.65
287.944	5.64
288.316	5.53
288.688	5.34
289.06	5.35
289.431	5.28
289.803	5.26
290.175	5.05
290.546	5.15
290.918	5.07
291.289	5.01
291.661	5.09
292.032	5.35
292.403	5.43
292.775	5.57
293.146	5.41
293.517	5.66
293.889	5.68
294.26	5.52
294.631	5.47
295.002	5.44
295.373	5.55
295.744	5.45
296.115	5.52
296.486	5.42
296.857	5.45
297.228	5.43
297.599	5.49
297.97	5.58
298.34	5.47
298.711	5.54
299.082	5.58
299.452	5.71
299.823	5.66
300.194	5.79
300.564	5.64
300.935	5.83
301.305	5.55
301.676	5.56
302.046	5.5
302.416	5.71
302.787	5.84
303.157	5.82
303.527	5.81
303.897	5.73
304.267	6.09
304.637	6.03
305.008	6.02
305.378	6.06
305.748	6.18
306.117	6.15
306.487	6.27
306.857	6.35
307.227	6.17
307.597	6.09
307.967	6.05
308.336	6.08
308.706	6.13
309.076	6.13
309.445	6.11
309.815	6.14
310.184	5.93
310.554	5.89
310.923	5.84
311.293	5.82
311.662	5.75
312.031	5.52
312.401	5.52
312.77	5.56
313.139	5.56
313.508	5.33
313.877	5.35
314.246	5.23
314.616	5.17
314.985	5.22
315.353	5.18
315.722	5.02
316.091	5.12
316.46	5.1
316.829	5.09
317.198	5.17
317.567	5.13
317.935	5.17
318.304	5.21
318.672	5.22
319.041	5.5
319.41	5.67
319.778	5.79
320.147	5.84
320.515	5.73
320.883	5.57
321.252	5.79
321.62	5.9
321.988	5.9
322.357	5.79
322.725	5.67
323.093	5.61
323.461	5.53
323.829	5.4
324.197	5.41
324.565	5.4
324.933	5.39
325.301	5.44
325.669	5.36
326.037	5.26
326.405	5.36
326.772	5.22
327.14	5.22
327.508	5.27
327.875	5.23
328.243	5.28
328.61	5.31
328.978	5.27
329.346	5.17
329.713	5.03
330.08	5.01
330.448	5
330.815	4.92
331.182	5.09
331.55	5.11
331.917	5.14
332.284	5.32
332.651	5.32
333.018	5.28
333.385	5.35
333.752	5.4
334.119	5.37
334.486	5.37
334.853	5.31
335.22	5.2
335.587	5.28
335.954	5.26
336.32	5.22
336.687	5.18
337.054	5.18
337.42	5.25
337.787	5.37
338.153	5.4
338.52	5.53
338.886	5.4
339.253	5.33
339.619	5.21
339.986	5.05
340.352	5.14
340.718	5.17
341.084	5.2
341.451	5.27
341.817	5.25
342.183	5.28
342.549	5.31
342.915	5.35
343.281	5.33
343.647	5.24
344.013	5.36
344.379	5.27
344.745	5.28
345.11	5.23
345.476	5.19
345.842	5.11
346.208	5.09
346.573	5.15
346.939	5.28
347.304	5.26
347.67	5.19
348.035	5.03
348.401	5.04
348.766	4.98
349.132	4.77
349.497	4.78
349.862	4.77
350.228	4.86
350.593	4.86
350.958	4.8
351.323	4.89
351.688	4.83
352.053	4.9
352.418	4.97
352.783	4.99
353.148	4.95
353.513	5
353.878	5
354.243	5.1
354.608	5.08
354.972	5.12
355.337	5.23
355.702	5.35
356.066	5.3
356.431	5.22
356.795	5.41
357.16	5.43
357.524	5.37
357.889	5.29
358.253	5.26
358.618	5.24
358.982	5.19
359.346	5.13
359.71	5.09
360.075	5.03
360.439	5.04
360.803	5.03
361.167	5
361.531	4.95
361.895	4.79
362.259	4.72
362.623	4.75
362.987	4.7
363.351	4.66
363.714	4.74
364.078	4.8
364.442	4.7
364.806	4.6
365.169	4.57
365.533	4.58
365.896	4.62
366.26	4.64
366.623	4.67
366.987	4.66
367.35	4.71
367.714	4.72
368.077	4.64
368.44	4.67
368.803	4.68
369.167	4.65
369.53	4.7
369.893	4.73
370.256	4.73
370.619	4.75
370.982	4.75
371.345	4.77
371.708	4.88
372.071	4.87
372.434	4.91
372.797	4.91
373.159	4.83
373.522	4.79
373.885	4.81
374.247	4.76
374.61	4.8
374.973	4.71
375.335	4.68
375.698	4.77
376.06	4.75
376.423	4.73
376.785	4.81
377.147	4.84
377.51	4.83
377.872	4.82
378.234	4.83
378.596	4.8
378.958	4.68
379.321	4.59
379.683	4.6
380.045	4.56
380.407	4.59
380.769	4.61
381.13	4.6
381.492	4.58
381.854	4.62
382.216	4.58
382.578	4.65
382.939	4.66
383.301	4.63
383.663	4.62
384.024	4.62
384.386	4.67
384.747	4.67
385.109	4.63
385.47	4.64
385.832	4.63
386.193	4.66
386.554	4.7
386.916	4.7
387.277	4.72
387.638	4.76
387.999	4.76
388.36	4.8
388.721	4.79
389.082	4.77
389.443	4.74
389.804	4.76
390.165	4.73
390.526	4.74
390.887	4.74
391.248	4.79
391.609	4.75
391.969	4.67
392.33	4.67
392.691	4.71
393.051	4.7
393.412	4.72
393.772	4.66
394.133	4.65
394.493	4.65
394.854	4.57
395.214	4.57
395.574	4.58
395.935	4.56
396.295	4.57
396.655	4.56
397.015	4.57
397.376	4.57
397.736	4.57
398.096	4.59
398.456	4.56
398.816	4.56
399.176	4.6
399.535	4.59
399.895	4.54
400.255	4.51
400.615	4.51
400.975	4.44
401.334	4.46
401.694	4.44
402.054	4.47
402.413	4.53
402.773	4.51
403.132	4.46
403.492	4.47
403.851	4.48
404.211	4.5
404.57	4.52
404.929	4.53
405.288	4.52
405.648	4.49
406.007	4.5
406.366	4.47
406.725	4.47
407.084	4.49
407.443	4.54
407.802	4.56
408.161	4.56
408.52	4.56
408.879	4.56
409.238	4.57
409.596	4.54
409.955	4.54
410.314	4.56
410.673	4.56
411.031	4.56
411.39	4.52
411.748	4.54
412.107	4.53
412.465	4.53
412.824	4.54
413.182	4.51
413.54	4.51
413.899	4.5
414.257	4.48
414.615	4.47
414.974	4.48
415.332	4.44
415.69	4.46
416.048	4.46
416.406	4.46
416.764	4.47
417.122	4.48
417.48	4.46
417.838	4.49
418.195	4.49
418.553	4.48
418.911	4.5
419.269	4.47
419.626	4.46
419.984	4.46
420.342	4.46
420.699	4.47
421.057	4.46
421.414	4.48
421.772	4.48
422.129	4.5
422.486	4.49
422.844	4.5
423.201	4.47
423.558	4.47
423.915	4.48
424.273	4.48
424.63	4.47
424.987	4.48
425.344	4.45
425.701	4.44
426.058	4.45
426.415	4.44
426.772	4.45
427.128	4.45
427.485	4.43
427.842	4.43
428.199	4.45
428.555	4.45
428.912	4.44
429.269	4.44
429.625	4.42
429.982	4.4
430.338	4.4
430.695	4.41
431.051	4.41
431.407	4.4
431.764	4.41
432.12	4.39
432.476	4.39
432.832	4.38
433.189	4.39
433.545	4.37
433.901	4.37
434.257	4.36
434.613	4.36
434.969	4.37
435.325	4.37
435.681	4.36
436.036	4.37
436.392	4.39
436.748	4.38
437.104	4.36
437.459	4.37
437.815	4.37
438.171	4.38
438.526	4.39
438.882	4.39
439.237	4.38
439.593	4.39
439.948	4.39
440.304	4.41
440.659	4.4
441.014	4.41
441.369	4.41
441.725	4.4
442.08	4.4
442.435	4.4
442.79	4.38
443.145	4.39
443.5	4.36
443.855	4.34
444.21	4.34
444.565	4.36
444.92	4.35
445.275	4.35
445.629	4.35
445.984	4.34
446.339	4.33
446.693	4.32
447.048	4.31
447.403	4.32
447.757	4.31
448.112	4.31
448.466	4.3
448.82	4.3
449.175	4.31
449.529	4.3
449.883	4.27
450.238	4.28
450.592	4.26
450.946	4.27
451.3	4.26
451.654	4.26
452.008	4.26
452.362	4.24
452.716	4.24
453.07	4.24
453.424	4.24
453.778	4.25
454.132	4.25
454.486	4.25
454.839	4.24
455.193	4.21
455.547	4.21
455.9	4.21
456.254	4.22
456.607	4.24
456.961	4.25
457.314	4.27
457.668	4.29
458.021	4.27
458.375	4.29
458.728	4.31
459.081	4.3
459.434	4.3
459.787	4.32
460.141	4.31
460.494	4.3
460.847	4.3
461.2	4.3
461.553	4.3
461.906	4.3
462.259	4.31
462.611	4.34
462.964	4.34
463.317	4.35
463.67	4.34
464.022	4.34
464.375	4.32
464.728	4.31
465.08	4.3
465.433	4.33
465.785	4.35
466.138	4.34
466.49	4.34
466.843	4.34
467.195	4.34
467.547	4.33
467.899	4.35
468.252	4.34
468.604	4.35
468.956	4.35
469.308	4.34
469.66	4.31
470.012	4.31
470.364	4.32
470.716	4.32
471.068	4.31
471.42	4.3
471.772	4.32
472.123	4.33
472.475	4.34
472.827	4.36
473.178	4.35
473.53	4.36
473.882	4.37
474.233	4.37
474.585	4.37
474.936	4.37
475.288	4.37
475.639	4.38
475.99	4.37
476.342	4.36
476.693	4.37
477.044	4.38
477.395	4.39
477.746	4.39
478.097	4.36
478.448	4.36
478.8	4.37
479.15	4.37
479.501	4.39
479.852	4.39
480.203	4.38
480.554	4.38
480.905	4.38
481.255	4.4
481.606	4.4
481.957	4.4
482.307	4.41
482.658	4.41
483.009	4.41
483.359	4.42
483.709	4.43
484.06	4.42
484.41	4.43
484.761	4.43
485.111	4.45
485.461	4.46
485.811	4.47
486.162	4.47
486.512	4.47
486.862	4.45
487.212	4.45
487.562	4.45
487.912	4.44
488.262	4.45
488.612	4.45
488.961	4.44
489.311	4.44
489.661	4.44
490.011	4.44
490.36	4.44
490.71	4.44
491.06	4.44
491.409	4.45
491.759	4.45
492.108	4.44
492.458	4.42
492.807	4.41
493.157	4.41
493.506	4.41
493.855	4.4
494.204	4.42
494.554	4.41
494.903	4.39
495.252	4.41
495.601	4.39
495.95	4.38
496.299	4.4
496.648	4.41
496.997	4.42
497.346	4.42
497.695	4.42
498.043	4.43
498.392	4.41
498.741	4.41
499.09	4.42
499.438	4.43
499.787	4.44
500.135	4.46
500.484	4.45
500.832	4.45
501.181	4.47
501.529	4.46
501.878	4.48
502.226	4.51
502.574	4.5
502.923	4.5
503.271	4.48
503.619	4.5
503.967	4.5
504.315	4.5
504.663	4.49
505.011	4.5
505.359	4.52
505.707	4.53
506.055	4.51
506.403	4.51
506.751	4.53
507.098	4.54
507.446	4.56
507.794	4.56
508.141	4.57
508.489	4.59
508.837	4.61
509.184	4.61
509.531	4.61
509.879	4.62
510.226	4.67
510.574	4.68
510.921	4.66
511.268	4.67
511.616	4.66
511.963	4.67
512.31	4.65
512.657	4.64
513.004	4.66
513.351	4.67
513.698	4.67
514.045	4.65
514.392	4.66
514.739	4.65
515.086	4.68
515.432	4.69
515.779	4.65
516.126	4.65
516.473	4.66
516.819	4.66
517.166	4.64
517.512	4.62
517.859	4.62
518.205	4.62
518.552	4.62
518.898	4.63
519.245	4.63
519.591	4.64
519.937	4.65
520.283	4.65
520.629	4.67
520.976	4.69
521.322	4.7
521.668	4.69
522.014	4.69
522.36	4.69
522.706	4.68
523.052	4.72
523.398	4.71
523.743	4.71
524.089	4.72
524.435	4.71
524.781	4.73
525.126	4.74
525.472	4.74
525.817	4.73
526.163	4.72
526.509	4.73
526.854	4.74
527.199	4.75
527.545	4.75
527.89	4.75
528.235	4.75
528.581	4.76
528.926	4.76
529.271	4.77
529.616	4.76
529.961	4.76
530.306	4.75
530.651	4.75
530.996	4.75
531.341	4.74
531.686	4.76
532.031	4.76
532.376	4.75
532.721	4.76
533.065	4.78
533.41	4.79
533.755	4.78
534.099	4.79
534.444	4.79
534.788	4.78
535.133	4.77
535.477	4.78
535.822	4.76
536.166	4.76
536.51	4.75
536.855	4.78
537.199	4.79
537.543	4.79
537.887	4.81
538.231	4.82
538.576	4.82
538.92	4.8
539.264	4.8
539.608	4.81
539.951	4.82
540.295	4.81
540.639	4.82
540.983	4.83
541.327	4.83
541.671	4.82
542.014	4.82
542.358	4.82
542.701	4.81
543.045	4.82
543.389	4.83
543.732	4.82
544.075	4.83
544.419	4.83
544.762	4.82
545.105	4.82
545.449	4.8
545.792	4.81
546.135	4.83
546.478	4.85
546.821	4.83
547.165	4.83
547.508	4.84
547.851	4.84
548.194	4.82
548.536	4.82
548.879	4.85
549.222	4.87
549.565	4.9
549.908	4.93
550.25	4.94
550.593	4.95
550.936	4.96
551.278	4.95
551.621	4.93
551.963	4.97
552.306	4.96
552.648	4.98
552.991	4.98
553.333	4.96
553.675	4.94
554.017	4.97
554.36	4.99
554.702	4.98
555.044	4.97
555.386	4.99
555.728	4.99
556.07	4.95
556.412	4.91
556.754	4.9
557.096	4.87
557.438	4.86
557.78	4.84
558.121	4.84
558.463	4.85
558.805	4.84
559.147	4.81
559.488	4.83
559.83	4.87
560.171	4.88
560.513	4.9
560.854	4.91
561.196	4.91
561.537	4.91
561.878	4.91
562.22	4.9
562.561	4.89
562.902	4.91
563.243	4.92
563.584	4.96
563.925	4.94
564.266	4.93
564.607	4.93
564.948	4.94
565.289	4.95
565.63	4.95
565.971	4.96
566.312	4.96
566.653	4.95
566.993	4.92
567.334	4.9
567.675	4.92
568.015	4.95
568.356	4.94
568.696	4.93
569.037	4.94
569.377	4.95
569.718	4.97
570.058	4.97
570.398	4.98
570.739	4.95
571.079	4.94
571.419	4.96
571.759	4.95
572.099	4.95
572.439	4.95
572.779	4.93
573.119	4.96
573.459	4.96
573.799	4.99
574.139	4.99
574.479	4.98
574.819	4.96
575.158	4.92
575.498	4.92
575.838	4.9
576.177	4.87
576.517	4.85
576.856	4.85
577.196	4.81
577.535	4.78
577.875	4.81
578.214	4.83
578.553	4.86
578.893	4.87
579.232	4.85
579.571	4.87
579.91	4.84
580.25	4.84
580.589	4.86
580.928	4.87
581.267	4.86
581.606	4.9
581.945	4.88
582.283	4.91
582.622	4.9
582.961	4.94
583.3	4.96
583.639	5.02
583.977	5.03
584.316	5.06
584.654	5.08
584.993	5.06
585.332	5.07
585.67	5.02
586.008	5.04
586.347	5.02
586.685	4.98
587.024	5.01
587.362	4.99
587.7	4.97
588.038	4.95
588.376	4.96
588.715	4.93
589.053	4.96
589.391	4.96
589.729	4.99
590.067	4.98
590.404	4.97
590.742	4.96
591.08	4.95
591.418	4.97
591.756	4.95
592.093	4.95
592.431	4.96
592.769	4.98
593.106	4.96
593.444	4.97
593.781	4.99
594.119	5.03
594.456	5.01
594.793	5.01
595.131	5.03
595.468	5.02
595.805	5.02
596.143	5.01
596.48	5
596.817	4.99
597.154	4.98
597.491	4.99
597.828	5.02
598.165	4.97
598.502	4.93
598.839	4.93
599.176	4.96
599.512	4.93
599.849	4.92
600.186	4.93
600.523	4.97
600.859	4.99
601.196	4.99
601.532	4.98
601.869	4.93
602.205	4.93
602.542	4.94
602.878	4.96
603.215	4.96
603.551	4.99
603.887	5.01
604.223	5
604.56	5
604.896	4.97
605.232	5.04
605.568	5.05
605.904	5.07
606.24	5.09
606.576	5.09
606.912	5.12
607.248	5.09
607.583	5.09
607.919	5.06
608.255	5.04
608.591	5.08
608.926	5.1
609.262	5.12
609.597	5.11
609.933	5.12
610.268	5.15
610.604	5.11
610.939	5.1
611.275	5.12
611.61	5.13
611.945	5.16
612.281	5.13
612.616	5.17
612.951	5.18
613.286	5.13
613.621	5.13
613.956	5.13
614.291	5.2
614.626	5.2
614.961	5.21
615.296	5.21
615.631	5.22
615.966	5.25
616.3	5.22
616.635	5.2
616.97	5.19
617.304	5.18
617.639	5.21
617.973	5.21
618.308	5.19
618.642	5.2
618.977	5.13
619.311	5.12
619.646	5.07
619.98	5.04
620.314	5.09
620.648	5.13
620.983	5.14
621.317	5.13
621.651	5.16
621.985	5.17
622.319	5.19
622.653	5.2
622.987	5.18
623.321	5.19
623.655	5.26
623.988	5.27
624.322	5.23
624.656	5.24
624.99	5.23
625.323	5.23
625.657	5.25
625.99	5.29
626.324	5.28
626.657	5.31
626.991	5.35
627.324	5.29
627.658	5.29
627.991	5.28
628.324	5.27
628.657	5.28
628.991	5.27
629.324	5.27
629.657	5.3
629.99	5.34
630.323	5.34
630.656	5.27
630.989	5.31
631.322	5.31
631.655	5.24
631.987	5.24
632.32	5.26
632.653	5.21
632.986	5.19
633.318	5.21
633.651	5.22
633.984	5.2
634.316	5.19
634.649	5.14
634.981	5.13
635.313	5.12
635.646	5.13
635.978	5.15
636.31	5.18
636.643	5.15
636.975	5.17
637.307	5.18
637.639	5.22
637.971	5.17
638.303	5.21
638.635	5.24
638.967	5.27
639.299	5.24
639.631	5.27
639.963	5.27
640.295	5.23
640.626	5.28
640.958	5.38
641.29	5.44
641.621	5.46
641.953	5.49
642.285	5.5
642.616	5.5
642.948	5.49
643.279	5.49
643.61	5.47
643.942	5.41
644.273	5.4
644.604	5.36
644.936	5.33
645.267	5.28
645.598	5.29
645.929	5.28
646.26	5.31
646.591	5.32
646.922	5.32
647.253	5.41
647.584	5.37
647.915	5.25
648.245	5.18
648.576	5.27
648.907	5.28
649.238	5.27
649.568	5.19
649.899	5.19
650.229	5.18
650.56	5.22
650.89	5.27
651.221	5.3
651.551	5.34
651.882	5.47
652.212	5.49
652.542	5.52
652.872	5.48
653.203	5.48
653.533	5.5
653.863	5.57
654.193	5.56
654.523	5.53
654.853	5.56
655.183	5.6
655.513	5.53
655.843	5.5
656.172	5.49
656.502	5.49
656.832	5.49
657.162	5.47
657.491	5.46
657.821	5.46
658.15	5.43
658.48	5.39
658.809	5.34
659.139	5.39
659.468	5.37
659.798	5.41
660.127	5.4
660.456	5.42
660.785	5.4
661.115	5.39
661.444	5.43
661.773	5.41
662.102	5.4
662.431	5.4
662.76	5.43
663.089	5.48
663.418	5.55
663.747	5.52
664.076	5.6
664.404	5.57
664.733	5.59
665.062	5.59
665.39	5.61
665.719	5.61
666.048	5.58
666.376	5.58
666.705	5.54
667.033	5.6
667.362	5.58
667.69	5.48
668.018	5.42
668.347	5.35
668.675	5.36
669.003	5.39
669.331	5.52
669.659	5.52
669.987	5.46
670.315	5.39
670.643	5.41
670.971	5.33
671.299	5.35
671.627	5.3
671.955	5.3
672.283	5.34
672.61	5.29
672.938	5.23
673.266	5.27
673.593	5.46
673.921	5.36
674.249	5.42
674.576	5.49
674.904	5.52
675.231	5.53
675.558	5.54
675.886	5.47
676.213	5.31
676.54	5.33
676.867	5.38
677.195	5.43
677.522	5.43
677.849	5.48
678.176	5.52
678.503	5.57
678.83	5.56
679.157	5.52
679.484	5.56
679.81	5.61
680.137	5.5
680.464	5.38
680.791	5.49
681.117	5.4
681.444	5.45
681.771	5.43
682.097	5.43
682.424	5.46
682.75	5.49
683.077	5.54
683.403	5.56
683.729	5.54
684.056	5.58
684.382	5.64
684.708	5.62
685.034	5.54
685.36	5.45
685.686	5.45
686.012	5.48
686.339	5.52
686.664	5.52
686.99	5.7
687.316	5.72
687.642	5.77
687.968	5.89
688.294	5.9
688.619	5.87
688.945	5.87
689.271	5.86
689.596	5.86
689.922	5.86
690.247	5.74
690.573	5.72
690.898	5.62
691.224	5.58
691.549	5.6
691.874	5.61
692.2	5.68
692.525	5.67
692.85	5.73
693.175	5.67
693.5	5.62
693.825	5.51
694.15	5.59
694.475	5.49
694.8	5.45
695.125	5.36
695.45	5.47
695.775	5.55
696.099	5.56
696.424	5.56
696.749	5.59
697.073	5.65
697.398	5.63
697.723	5.69
698.047	5.63
698.372	5.62
698.696	5.57
699.02	5.56
699.345	5.59
699.669	5.57
699.993	5.54
700.318	5.57
700.642	5.59
700.966	5.51
701.29	5.54
701.614	5.48
701.938	5.6
702.262	5.68
702.586	5.76
702.91	5.74
703.234	5.83
703.557	5.84
703.881	5.9
704.205	5.98
704.529	5.99
704.852	6.02
705.176	6.11
705.499	6.29
705.823	6.32
706.146	6.36
706.47	6.37
706.793	6.43
707.117	6.47
707.44	6.51
707.763	6.43
708.086	6.27
708.409	6.24
708.733	6.18
709.056	6.11
709.379	6.1
709.702	5.96
710.025	5.86
710.348	5.83
710.671	5.81
710.993	5.85
711.316	5.8
711.639	5.91
711.962	5.8
712.284	5.79
712.607	5.76
712.93	5.82
713.252	5.78
713.575	5.78
713.897	5.72
714.22	5.74
714.542	5.9
714.864	6
715.187	5.98
715.509	5.97
715.831	5.97
716.153	6.03
716.475	6.2
716.798	6.38
717.12	6.4
717.442	6.4
717.764	6.34
718.085	6.48
718.407	6.48
718.729	6.54
719.051	6.5
719.373	6.43
719.695	6.34
720.016	6.33
720.338	6.3
720.659	6.36
720.981	6.21
721.302	6.15
721.624	6.19
721.945	6.29
722.267	6.26
722.588	6.16
722.909	6.11
723.231	6.12
723.552	6
723.873	6.04
724.194	5.96
724.515	5.98
724.836	5.93
725.157	5.86
725.478	5.71
725.799	5.71
726.12	5.86
726.441	5.94
726.762	5.89
727.083	5.99
727.403	6.04
727.724	6.13
728.045	6.17
728.365	6.19
728.686	6.18
729.006	6.29
729.327	6.5
729.647	6.43
729.967	6.34
730.288	6.42
730.608	6.33
730.928	6.3
731.249	6.24
731.569	6.43
731.889	6.54
732.209	6.56
732.529	6.57
732.849	6.57
733.169	6.43
733.489	6.55
733.809	6.44
734.129	6.45
734.448	6.43
734.768	6.31
735.088	6.42
735.408	6.47
735.727	6.49
736.047	6.4
736.366	6.28
736.686	6.43
737.005	6.39
737.325	6.34
737.644	6.41
737.963	6.54
738.283	6.05
738.602	5.87
738.921	6.01
739.24	6
739.56	5.77
739.879	5.84
740.198	5.94
740.517	5.92
740.836	5.87
741.155	6.07
741.473	6.14
741.792	5.85
742.111	5.86
742.43	5.86
742.748	5.91
743.067	6.01
743.386	5.84
743.704	5.91
744.023	6.09
744.341	6.06
744.66	6.04
744.978	6.25
745.297	6.46
745.615	6.55
745.933	6.57
746.252	6.79
746.57	6.85
746.888	6.75
747.206	6.78
747.524	6.88
747.842	6.69
748.16	6.7
748.478	6.89
748.796	6.83
749.114	6.9
749.432	6.68
749.749	6.81
750.067	6.86
750.385	6.73
750.703	6.58
751.02	6.59
751.338	6.44
751.655	6.49
751.973	6.28
752.29	6.27
752.608	6.23
752.925	6.26
753.242	6.16
753.56	6.24
753.877	6.26
754.194	6.21
754.511	6.34
754.828	6.17
755.145	5.96
755.462	6.07
755.779	5.87
756.096	6.08
756.413	5.94
756.73	5.98
757.047	6.08
757.364	6.22
757.68	6.12
757.997	6.38
758.314	6.56
758.63	6.62
758.947	6.61
759.264	6.8
759.58	6.63
759.896	6.81
760.213	6.86
760.529	6.99
760.846	6.84
761.162	6.68
761.478	6.8
761.794	6.89
762.11	6.95
762.426	6.92
762.743	6.96
763.059	7.11
763.375	7.23
763.69	7.29
764.006	7.45
764.322	7.62
764.638	7.63
764.954	7.63
765.27	7.63
765.585	7.67
765.901	7.54
766.216	7.62
766.532	7.4
766.848	7.38
767.163	7.33
767.478	7.32
767.794	7.52
768.109	7.44
768.424	7.47
768.74	7.41
769.055	7.51
769.37	7.34
769.685	7.35
770	7.13
770.315	7.16
770.63	6.85
770.945	6.61
771.26	6.5
771.575	6.52
771.89	6.51
772.205	6.29
772.52	6.41
772.834	6.25
773.149	6.49
773.464	6.59
773.778	6.56
774.093	6.72
774.407	6.62
774.722	6.61
775.036	6.76
775.351	6.98
775.665	6.72
775.979	6.67
776.293	6.66
776.608	6.47
776.922	6.36
777.236	6.6
777.55	6.7
777.864	6.95
778.178	6.97
778.492	7
778.806	7.11
779.12	6.85
779.434	6.98
779.747	7.16
780.061	7.22
780.375	7.52
780.689	7.56
781.002	7.76
781.316	8.17
781.629	8.04
781.943	7.82
782.256	8.23
782.57	8.36
782.883	8.18
783.196	8.47
783.51	8.08
783.823	8.19
784.136	8.39
784.449	8.16
784.762	8.01
785.075	8.27
785.388	8.32
785.701	8.66
786.014	9.14
786.327	9.1
786.64	9.08
786.953	8.58
787.266	8.5
787.578	8.37
787.891	8.36
788.204	8.57
788.516	8.65
788.829	8.29
789.141	8.31
789.454	8.59
789.766	9.17
790.079	9.97
790.391	9.39
790.703	9.67
791.016	10.1
791.328	10.17
791.64	10.35
791.952	10.38
792.264	10.17
792.576	9.67
792.888	9.47
793.2	9.44
793.512	9.69
793.824	10.14
794.136	10.28
794.448	10.14
794.76	10.06
795.071	9.93
795.383	9.68
795.695	9.58
796.006	9.4
796.318	9.36
796.629	8.96
796.941	9.62
797.252	9.73
797.564	9.61
797.875	9.57
798.186	8.73
798.497	8.73
798.809	8.86
799.12	9.11
799.431	9.25
799.742	9.07
800.053	9.34
800.364	8.84
800.675	8.84
800.986	8.8
801.297	8.38
801.608	8.41
801.918	9.04
802.229	9.29
802.54	9.26
802.851	9.12
803.161	9.13
803.472	8.74
803.782	8.57
804.093	8.43
804.403	8.09
804.714	8.55
805.024	8.14
805.334	8
805.645	8.19
805.955	8.13
806.265	8.51
806.575	8.39
806.885	9.14
807.195	9.29
807.505	9.35
807.815	10.07
808.125	10.25
808.435	10.08
808.745	9.87
809.055	10.24
809.365	9.92
809.674	9.74
809.984	10.11
810.294	9.82
810.603	9.9
810.913	10.88
811.222	11.38
811.532	11.78
811.841	12.45
812.151	13.02
812.46	13.15
812.769	13.2
813.079	12.82
813.388	12.41
813.697	12.59
814.006	12.67
814.315	12.72
814.624	13.14
814.933	13.53
815.242	13.03
815.551	12.74
815.86	12.89
816.169	12.92
816.478	11.85
816.786	11.68
817.095	11.17
817.404	10.72
817.712	10.56
818.021	10.55
818.33	10.12
818.638	9.49
818.947	9.42
819.255	9.05
819.563	9.33
819.872	9.35
820.18	8.92
820.488	8.86
820.796	8.95
821.105	8.81
821.413	8.65
821.721	8.95
822.029	8.85
822.337	8.91
822.645	8.91
822.953	9.11
823.26	9.09
823.568	8.97
823.876	8.94
824.184	8.92
824.491	8.82
824.799	8.92
825.107	8.9
825.414	8.92
825.722	9.01
826.029	9
826.337	9.01
826.644	9.24
826.951	9.24
827.259	9.15
827.566	9.06
827.873	9.21
828.18	9.23
828.488	9.36
828.795	9.34
829.102	9.55
829.409	9.5
829.716	9.46
830.023	9.75
830.329	9.79
830.636	10.04
830.943	10.21
831.25	10.07
831.557	10.37
831.863	10.47
832.17	10.5
832.476	10.72
832.783	10.78
833.089	10.63
833.396	10.68
833.702	10.86
834.009	11.04
834.315	10.83
834.621	10.63
834.928	10.77
835.234	10.75
835.54	10.41
835.846	10.63
836.152	11.19
836.458	11.39
836.764	11.09
837.07	10.78
837.376	10.67
837.682	10.59
837.988	10.22
838.293	10.25
838.599	10.58
838.905	10.29
839.211	10.35
839.516	10.33
839.822	10.66
840.127	10.48
840.433	10.59
840.738	11.2
841.044	10.89
841.349	10.88
841.654	11.19
841.959	10.99
842.265	10.22
842.57	10.63
842.875	10.55
843.18	11.36
843.485	11.7
843.79	12.19
844.095	12.28
844.4	13.62
844.705	13.91
845.01	12.57
845.315	12.69
845.619	11.66
845.924	11.47
846.229	11.02
846.533	10.58
846.838	10.16
847.142	9.89
847.447	9.66
847.751	9.45
848.056	8.37
848.36	9.38
848.664	10.6
848.969	9.59
849.273	8.54
849.577	8.69
849.881	9.67
850.185	12.13
850.489	12.91
850.794	11
851.097	10.75
851.401	12.83
851.705	12.62
852.009	14.26
852.313	14.91
852.617	14.99
852.92	17.66
853.224	18.55
853.528	19.55
853.831	21.21
854.135	19.88
854.438	20.48
854.742	21.1
855.045	21.89
855.349	21.19
855.652	23.31
855.955	22.72
856.259	19.52
856.562	17.61
856.865	17.87
857.168	19.4
857.471	17.92
857.774	16.22
858.077	14.82
858.38	14.18
858.683	13.64
858.986	15.55
859.289	13.19
859.592	12.71
859.894	12.73
860.197	11.76
860.5	14.11
860.802	12.75
861.105	11.21
861.407	9.26
861.71	9.22
862.012	9.18
862.315	8.88
862.617	9
862.919	8.13
863.222	7.62
863.524	6.46
863.826	7.69
864.128	9.66
864.43	12.05
864.732	13.83
865.034	14.5
865.336	11.84
865.638	10.67
865.94	10.21
866.242	10.43
866.544	13.23
866.846	11.49
867.147	12.57
867.449	12.71
867.751	14.66
868.052	15.02
868.354	13.99
868.655	16.38
868.957	17.22
869.258	15.65
869.56	15.85
869.861	16.09
870.162	15.21
870.463	15.39
870.765	14.6
871.066	12.21
871.367	11.29
871.668	14.77
871.969	16.23
872.27	15.96
872.571	14.51
872.872	12.7
873.173	10.56
873.473	10.61
873.774	10.85
874.075	7.72
874.376	7.17
874.676	8.27
874.977	5.43
875.277	7.94
875.578	9.69
875.878	9.04
876.179	8.91
876.479	9.39
876.78	7.25
877.08	6.91
877.38	7.92
877.68	8.4
877.981	4.46
878.281	4.15
878.581	5.59
