Data from BA57757_Reflection_00034.txt Node
Date: Mon Nov 18 15:02:06 EST 2019
User: vgr7
Spectrometer: USB2G7710
Scans to average: 3
Trigger mode: 4
Integration Time (sec): 2.000000E-2
Electric dark correction enabled: true
Boxcar width: 10
XAxis mode: Wavelengths
Number of Pixels in Spectrum: 2048
>>>>>Begin Spectral Data<<<<<
177.721	-56.32
178.105	-21.95
178.488	-360.25
178.871	406.03
179.254	-45.79
179.636	987.93
180.019	-281.91
180.402	53.66
180.785	-1208.41
181.168	520.35
181.55	2100
181.933	127.64
182.316	117.63
182.698	103.48
183.081	103.93
183.463	94.39
183.846	135.74
184.228	185.23
184.611	229.61
184.993	315.02
185.376	-363.37
185.758	-293.99
186.14	-171.73
186.522	-429.56
186.904	-261.83
187.287	1659.63
187.669	-114.41
188.051	-218.7
188.433	-123.55
188.815	-60.11
189.197	-38.03
189.579	-34.51
189.961	-27.9
190.342	-17.74
190.724	-13.51
191.106	-18.16
191.488	-27.05
191.869	-23.05
192.251	-11.36
192.633	0.32
193.014	8.27
193.396	-11.89
193.777	-3.63
194.159	-12.38
194.54	2.05
194.922	2.58
195.303	2.91
195.684	-5.97
196.065	3.42
196.447	1.55
196.828	-14.59
197.209	-25.83
197.59	-38.92
197.971	-36.41
198.352	-31.18
198.733	-43.11
199.114	-49.84
199.495	-48.13
199.876	-43.91
200.257	-45.33
200.638	-48.72
201.018	-61.36
201.399	-52.33
201.78	-48.58
202.16	-46.36
202.541	-57.81
202.922	-58.91
203.302	-64.68
203.683	-61.36
204.063	-68.08
204.444	-50.34
204.824	-35.34
205.204	-11.6
205.585	-4.57
205.965	-20.41
206.345	-18.64
206.725	-23.95
207.106	-8.44
207.486	-24.21
207.866	-27.32
208.246	-35.4
208.626	-17.84
209.006	1.09
209.386	-4.01
209.766	-6.71
210.145	-7.57
210.525	-1.18
210.905	0.38
211.285	4.89
211.664	8.32
212.044	6.98
212.424	-3.68
212.803	-4.59
213.183	-1.54
213.562	4.62
213.942	15.98
214.321	7.49
214.701	11.07
215.08	2.51
215.459	21.02
215.838	24.73
216.218	25.99
216.597	17.05
216.976	17.1
217.355	8.03
217.734	-6.75
218.113	1.2
218.492	-3.36
218.871	-8.84
219.25	-15.66
219.629	-29.63
220.008	-13.62
220.387	-2.61
220.766	-2.56
221.144	-5.09
221.523	-14.2
221.902	-22.92
222.28	-25.42
222.659	-18.03
223.037	-13.74
223.416	-18.33
223.794	-27.63
224.173	-27.87
224.551	-22.39
224.929	-21.27
225.308	-5.64
225.686	-1.22
226.064	-3.5
226.442	0.53
226.821	2.46
227.199	1.08
227.577	0.09
227.955	-2.27
228.333	-3.82
228.711	-1.73
229.089	1.37
229.467	0.86
229.845	-0.46
230.222	0.58
230.6	-0.85
230.978	-1.2
231.356	-0.13
231.733	2.86
232.111	2.28
232.488	3.06
232.866	3.17
233.243	2.17
233.621	3.16
233.998	4.49
234.376	2.11
234.753	1.76
235.13	2.55
235.508	5.5
235.885	4.62
236.262	3.25
236.639	4
237.016	3.91
237.393	6.22
237.77	7.02
238.147	7.1
238.524	8.54
238.901	8.46
239.278	7.93
239.655	8.05
240.032	8.32
240.409	7.44
240.785	7.02
241.162	6.77
241.539	6.11
241.915	5.81
242.292	5.89
242.668	5.77
243.045	5.79
243.421	5.26
243.798	5.29
244.174	5.55
244.551	5.44
244.927	5.18
245.303	5.34
245.679	5.19
246.056	5.2
246.432	4.91
246.808	5.03
247.184	4.93
247.56	4.96
247.936	4.94
248.312	5.1
248.688	5.36
249.064	5.3
249.44	5.42
249.815	5.33
250.191	5.52
250.567	5.52
250.943	5.47
251.318	5.76
251.694	5.89
252.069	5.77
252.445	5.81
252.82	5.74
253.196	5.4
253.571	5.59
253.947	5.76
254.322	5.76
254.697	5.46
255.073	5.26
255.448	5.23
255.823	5.15
256.198	5.01
256.573	4.85
256.948	4.82
257.323	4.82
257.698	4.71
258.073	4.46
258.448	4.46
258.823	4.2
259.198	4.02
259.573	4.05
259.948	4.19
260.322	4.21
260.697	4.24
261.072	4.28
261.446	4.36
261.821	4.26
262.195	4.4
262.57	4.34
262.944	4.31
263.319	4.22
263.693	4.14
264.067	4.18
264.442	4.31
264.816	4.24
265.19	4.17
265.564	4.25
265.938	4.22
266.313	4.15
266.687	4.61
267.061	4.69
267.435	4.63
267.809	4.68
268.183	4.62
268.556	4.57
268.93	4.67
269.304	4.57
269.678	4.6
270.051	4.26
270.425	4.5
270.799	4.58
271.172	4.68
271.546	4.74
271.919	4.65
272.293	4.5
272.666	4.65
273.04	4.67
273.413	4.59
273.787	4.69
274.16	4.63
274.533	4.29
274.906	4.28
275.279	4.17
275.653	4.07
276.026	3.98
276.399	4.07
276.772	4.08
277.145	4.16
277.518	4.24
277.891	4.61
278.263	4.49
278.636	4.44
279.009	4.31
279.382	4.45
279.755	4.44
280.127	4.51
280.5	4.51
280.872	4.56
281.245	4.54
281.617	4.63
281.99	4.85
282.362	4.99
282.735	4.89
283.107	4.99
283.479	5.14
283.852	5.17
284.224	5.16
284.596	5.02
284.968	4.88
285.34	4.79
285.713	4.69
286.085	4.79
286.457	4.89
286.829	4.92
287.201	4.89
287.572	4.92
287.944	4.8
288.316	4.79
288.688	4.82
289.06	4.86
289.431	4.81
289.803	4.73
290.175	4.71
290.546	4.81
290.918	4.82
291.289	4.7
291.661	4.71
292.032	4.73
292.403	4.92
292.775	5.09
293.146	5.08
293.517	5.08
293.889	4.97
294.26	4.89
294.631	4.82
295.002	4.77
295.373	4.77
295.744	4.88
296.115	4.78
296.486	4.57
296.857	4.51
297.228	4.5
297.599	4.42
297.97	4.45
298.34	4.4
298.711	4.38
299.082	4.47
299.452	4.53
299.823	4.59
300.194	4.41
300.564	4.33
300.935	4.41
301.305	4.34
301.676	4.45
302.046	4.56
302.416	4.66
302.787	4.71
303.157	4.76
303.527	4.73
303.897	4.85
304.267	5.18
304.637	5.34
305.008	5.34
305.378	5.45
305.748	5.53
306.117	5.45
306.487	5.52
306.857	5.43
307.227	5.37
307.597	5.26
307.967	5.29
308.336	5.25
308.706	5.29
309.076	5.3
309.445	5.14
309.815	5.07
310.184	4.99
310.554	5.03
310.923	4.96
311.293	5
311.662	4.87
312.031	4.69
312.401	4.67
312.77	4.81
313.139	4.79
313.508	4.64
313.877	4.69
314.246	4.69
314.616	4.66
314.985	4.67
315.353	4.63
315.722	4.84
316.091	4.86
316.46	4.79
316.829	4.8
317.198	4.88
317.567	4.82
317.935	4.83
318.304	4.71
318.672	4.56
319.041	4.54
319.41	4.62
319.778	4.72
320.147	4.75
320.515	4.52
320.883	4.51
321.252	4.62
321.62	4.6
321.988	4.52
322.357	4.46
322.725	4.49
323.093	4.44
323.461	4.25
323.829	4.19
324.197	4.15
324.565	4.2
324.933	4.24
325.301	4.29
325.669	4.32
326.037	4.38
326.405	4.4
326.772	4.27
327.14	4.37
327.508	4.3
327.875	4.16
328.243	4.26
328.61	4.3
328.978	4.33
329.346	4.32
329.713	4.36
330.08	4.4
330.448	4.24
330.815	4.34
331.182	4.19
331.55	4.17
331.917	4.26
332.284	4.23
332.651	4.21
333.018	4.18
333.385	4.07
333.752	4
334.119	4.15
334.486	4.13
334.853	3.98
335.22	4.05
335.587	4.16
335.954	4.08
336.32	3.99
336.687	3.97
337.054	4.04
337.42	3.9
337.787	3.93
338.153	3.99
338.52	3.92
338.886	4.01
339.253	4.1
339.619	4.02
339.986	3.94
340.352	3.98
340.718	3.97
341.084	4
341.451	4.04
341.817	4.04
342.183	4.12
342.549	4.23
342.915	4.28
343.281	4.24
343.647	4.29
344.013	4.22
344.379	4.24
344.745	4.21
345.11	4.3
345.476	4.27
345.842	4.3
346.208	4.32
346.573	4.33
346.939	4.4
347.304	4.4
347.67	4.47
348.035	4.37
348.401	4.31
348.766	4.29
349.132	4.32
349.497	4.28
349.862	4.34
350.228	4.27
350.593	4.17
350.958	4.23
351.323	4.22
351.688	4.22
352.053	4.18
352.418	4.12
352.783	4.14
353.148	4.17
353.513	4.12
353.878	4.13
354.243	4.12
354.608	4.04
354.972	4.04
355.337	4.03
355.702	4.11
356.066	4.19
356.431	4.25
356.795	4.21
357.16	4.21
357.524	4.09
357.889	4.08
358.253	4.1
358.618	4.07
358.982	4.03
359.346	4.06
359.71	4.06
360.075	4.09
360.439	4.08
360.803	4.07
361.167	4.08
361.531	4.06
361.895	4.04
362.259	4.01
362.623	4
362.987	3.97
363.351	4.01
363.714	4.05
364.078	3.99
364.442	3.95
364.806	3.97
365.169	4.04
365.533	4.07
365.896	4.1
366.26	4.06
366.623	4.07
366.987	4.02
367.35	4.03
367.714	4.02
368.077	3.99
368.44	3.93
368.803	3.92
369.167	3.83
369.53	3.85
369.893	3.92
370.256	3.96
370.619	3.92
370.982	3.88
371.345	3.79
371.708	3.83
372.071	3.84
372.434	3.77
372.797	3.75
373.159	3.69
373.522	3.63
373.885	3.67
374.247	3.69
374.61	3.76
374.973	3.74
375.335	3.73
375.698	3.78
376.06	3.75
376.423	3.76
376.785	3.85
377.147	3.86
377.51	3.78
377.872	3.78
378.234	3.84
378.596	3.85
378.958	3.85
379.321	3.82
379.683	3.86
380.045	3.93
380.407	3.93
380.769	3.93
381.13	3.96
381.492	3.88
381.854	3.93
382.216	3.88
382.578	3.88
382.939	3.85
383.301	3.85
383.663	3.86
384.024	3.85
384.386	3.83
384.747	3.81
385.109	3.83
385.47	3.79
385.832	3.8
386.193	3.8
386.554	3.79
386.916	3.77
387.277	3.77
387.638	3.75
387.999	3.75
388.36	3.78
388.721	3.76
389.082	3.79
389.443	3.77
389.804	3.78
390.165	3.76
390.526	3.8
390.887	3.78
391.248	3.86
391.609	3.87
391.969	3.9
392.33	3.89
392.691	3.88
393.051	3.88
393.412	3.84
393.772	3.8
394.133	3.84
394.493	3.84
394.854	3.82
395.214	3.77
395.574	3.79
395.935	3.8
396.295	3.84
396.655	3.86
397.015	3.84
397.376	3.86
397.736	3.89
398.096	3.89
398.456	3.87
398.816	3.84
399.176	3.84
399.535	3.81
399.895	3.79
400.255	3.82
400.615	3.81
400.975	3.83
401.334	3.84
401.694	3.81
402.054	3.8
402.413	3.8
402.773	3.82
403.132	3.79
403.492	3.78
403.851	3.76
404.211	3.72
404.57	3.7
404.929	3.7
405.288	3.68
405.648	3.67
406.007	3.69
406.366	3.66
406.725	3.68
407.084	3.68
407.443	3.69
407.802	3.71
408.161	3.7
408.52	3.66
408.879	3.68
409.238	3.7
409.596	3.72
409.955	3.74
410.314	3.74
410.673	3.76
411.031	3.74
411.39	3.72
411.748	3.76
412.107	3.79
412.465	3.77
412.824	3.76
413.182	3.73
413.54	3.73
413.899	3.75
414.257	3.73
414.615	3.71
414.974	3.7
415.332	3.66
415.69	3.66
416.048	3.68
416.406	3.66
416.764	3.62
417.122	3.63
417.48	3.61
417.838	3.62
418.195	3.61
418.553	3.61
418.911	3.61
419.269	3.6
419.626	3.58
419.984	3.58
420.342	3.59
420.699	3.58
421.057	3.57
421.414	3.56
421.772	3.56
422.129	3.56
422.486	3.56
422.844	3.56
423.201	3.55
423.558	3.57
423.915	3.56
424.273	3.56
424.63	3.55
424.987	3.56
425.344	3.54
425.701	3.53
426.058	3.53
426.415	3.53
426.772	3.52
427.128	3.52
427.485	3.53
427.842	3.51
428.199	3.52
428.555	3.51
428.912	3.51
429.269	3.5
429.625	3.5
429.982	3.49
430.338	3.48
430.695	3.49
431.051	3.46
431.407	3.45
431.764	3.46
432.12	3.46
432.476	3.45
432.832	3.46
433.189	3.47
433.545	3.45
433.901	3.43
434.257	3.43
434.613	3.44
434.969	3.44
435.325	3.45
435.681	3.45
436.036	3.44
436.392	3.45
436.748	3.44
437.104	3.45
437.459	3.45
437.815	3.46
438.171	3.48
438.526	3.47
438.882	3.48
439.237	3.48
439.593	3.48
439.948	3.47
440.304	3.48
440.659	3.47
441.014	3.49
441.369	3.5
441.725	3.47
442.08	3.48
442.435	3.46
442.79	3.46
443.145	3.45
443.5	3.45
443.855	3.43
444.21	3.44
444.565	3.45
444.92	3.46
445.275	3.44
445.629	3.43
445.984	3.43
446.339	3.42
446.693	3.4
447.048	3.39
447.403	3.38
447.757	3.37
448.112	3.38
448.466	3.36
448.82	3.35
449.175	3.38
449.529	3.36
449.883	3.35
450.238	3.33
450.592	3.34
450.946	3.35
451.3	3.36
451.654	3.35
452.008	3.34
452.362	3.33
452.716	3.34
453.07	3.35
453.424	3.35
453.778	3.37
454.132	3.38
454.486	3.39
454.839	3.4
455.193	3.39
455.547	3.37
455.9	3.4
456.254	3.41
456.607	3.4
456.961	3.4
457.314	3.42
457.668	3.43
458.021	3.42
458.375	3.42
458.728	3.43
459.081	3.43
459.434	3.4
459.787	3.41
460.141	3.4
460.494	3.38
460.847	3.38
461.2	3.37
461.553	3.37
461.906	3.37
462.259	3.38
462.611	3.39
462.964	3.4
463.317	3.38
463.67	3.39
464.022	3.41
464.375	3.41
464.728	3.42
465.08	3.43
465.433	3.44
465.785	3.42
466.138	3.41
466.49	3.42
466.843	3.44
467.195	3.44
467.547	3.46
467.899	3.46
468.252	3.47
468.604	3.48
468.956	3.47
469.308	3.49
469.66	3.48
470.012	3.49
470.364	3.49
470.716	3.5
471.068	3.5
471.42	3.51
471.772	3.5
472.123	3.5
472.475	3.48
472.827	3.49
473.178	3.5
473.53	3.48
473.882	3.47
474.233	3.47
474.585	3.46
474.936	3.45
475.288	3.45
475.639	3.46
475.99	3.48
476.342	3.48
476.693	3.48
477.044	3.49
477.395	3.48
477.746	3.46
478.097	3.45
478.448	3.45
478.8	3.45
479.15	3.45
479.501	3.45
479.852	3.46
480.203	3.45
480.554	3.45
480.905	3.47
481.255	3.47
481.606	3.48
481.957	3.47
482.307	3.48
482.658	3.48
483.009	3.48
483.359	3.46
483.709	3.47
484.06	3.47
484.41	3.47
484.761	3.47
485.111	3.47
485.461	3.48
485.811	3.48
486.162	3.48
486.512	3.5
486.862	3.51
487.212	3.51
487.562	3.52
487.912	3.53
488.262	3.52
488.612	3.53
488.961	3.53
489.311	3.54
489.661	3.55
490.011	3.55
490.36	3.56
490.71	3.58
491.06	3.57
491.409	3.57
491.759	3.57
492.108	3.58
492.458	3.58
492.807	3.57
493.157	3.57
493.506	3.57
493.855	3.55
494.204	3.55
494.554	3.55
494.903	3.54
495.252	3.52
495.601	3.53
495.95	3.54
496.299	3.55
496.648	3.56
496.997	3.56
497.346	3.57
497.695	3.56
498.043	3.56
498.392	3.56
498.741	3.56
499.09	3.56
499.438	3.58
499.787	3.6
500.135	3.61
500.484	3.62
500.832	3.63
501.181	3.62
501.529	3.62
501.878	3.64
502.226	3.63
502.574	3.63
502.923	3.62
503.271	3.6
503.619	3.6
503.967	3.6
504.315	3.61
504.663	3.6
505.011	3.61
505.359	3.61
505.707	3.62
506.055	3.63
506.403	3.63
506.751	3.62
507.098	3.64
507.446	3.66
507.794	3.66
508.141	3.69
508.489	3.7
508.837	3.71
509.184	3.7
509.531	3.72
509.879	3.75
510.226	3.79
510.574	3.79
510.921	3.81
511.268	3.83
511.616	3.84
511.963	3.86
512.31	3.87
512.657	3.9
513.004	3.91
513.351	3.93
513.698	3.92
514.045	3.93
514.392	3.93
514.739	3.92
515.086	3.93
515.432	3.93
515.779	3.92
516.126	3.94
516.473	3.93
516.819	3.93
517.166	3.91
517.512	3.89
517.859	3.9
518.205	3.89
518.552	3.88
518.898	3.88
519.245	3.87
519.591	3.86
519.937	3.83
520.283	3.82
520.629	3.82
520.976	3.83
521.322	3.84
521.668	3.83
522.014	3.85
522.36	3.85
522.706	3.85
523.052	3.87
523.398	3.88
523.743	3.92
524.089	3.93
524.435	3.94
524.781	3.94
525.126	3.95
525.472	3.94
525.817	3.94
526.163	3.95
526.509	3.97
526.854	3.97
527.199	4.01
527.545	4.01
527.89	4.01
528.235	4.01
528.581	4.01
528.926	4
529.271	4
529.616	4
529.961	4
530.306	3.99
530.651	3.98
530.996	3.98
531.341	3.97
531.686	3.97
532.031	3.98
532.376	3.98
532.721	3.99
533.065	3.99
533.41	4
533.755	4
534.099	4
534.444	3.98
534.788	3.98
535.133	3.98
535.477	3.99
535.822	3.99
536.166	4.01
536.51	4.01
536.855	4.02
537.199	4.04
537.543	4.05
537.887	4.06
538.231	4.06
538.576	4.07
538.92	4.08
539.264	4.09
539.608	4.09
539.951	4.1
540.295	4.1
540.639	4.09
540.983	4.09
541.327	4.11
541.671	4.11
542.014	4.11
542.358	4.12
542.701	4.11
543.045	4.14
543.389	4.14
543.732	4.14
544.075	4.15
544.419	4.14
544.762	4.14
545.105	4.15
545.449	4.16
545.792	4.17
546.135	4.19
546.478	4.18
546.821	4.18
547.165	4.17
547.508	4.15
547.851	4.16
548.194	4.15
548.536	4.11
548.879	4.13
549.222	4.13
549.565	4.12
549.908	4.14
550.25	4.12
550.593	4.15
550.936	4.16
551.278	4.14
551.621	4.16
551.963	4.19
552.306	4.18
552.648	4.19
552.991	4.2
553.333	4.18
553.675	4.19
554.017	4.22
554.36	4.22
554.702	4.25
555.044	4.23
555.386	4.25
555.728	4.29
556.07	4.32
556.412	4.31
556.754	4.3
557.096	4.31
557.438	4.28
557.78	4.26
558.121	4.25
558.463	4.22
558.805	4.19
559.147	4.18
559.488	4.17
559.83	4.17
560.171	4.16
560.513	4.19
560.854	4.18
561.196	4.15
561.537	4.17
561.878	4.17
562.22	4.17
562.561	4.15
562.902	4.18
563.243	4.13
563.584	4.14
563.925	4.19
564.266	4.18
564.607	4.2
564.948	4.2
565.289	4.22
565.63	4.25
565.971	4.26
566.312	4.27
566.653	4.26
566.993	4.25
567.334	4.24
567.675	4.24
568.015	4.24
568.356	4.26
568.696	4.28
569.037	4.26
569.377	4.28
569.718	4.31
570.058	4.27
570.398	4.3
570.739	4.32
571.079	4.29
571.419	4.27
571.759	4.3
572.099	4.3
572.439	4.27
572.779	4.27
573.119	4.28
573.459	4.27
573.799	4.3
574.139	4.3
574.479	4.31
574.819	4.3
575.158	4.32
575.498	4.33
575.838	4.3
576.177	4.31
576.517	4.33
576.856	4.34
577.196	4.36
577.535	4.35
577.875	4.35
578.214	4.38
578.553	4.42
578.893	4.39
579.232	4.4
579.571	4.4
579.91	4.41
580.25	4.38
580.589	4.38
580.928	4.36
581.267	4.38
581.606	4.4
581.945	4.41
582.283	4.4
582.622	4.4
582.961	4.41
583.3	4.4
583.639	4.44
583.977	4.41
584.316	4.4
584.654	4.36
584.993	4.33
585.332	4.33
585.67	4.34
586.008	4.34
586.347	4.32
586.685	4.33
587.024	4.35
587.362	4.38
587.7	4.36
588.038	4.37
588.376	4.39
588.715	4.36
589.053	4.36
589.391	4.37
589.729	4.34
590.067	4.32
590.404	4.32
590.742	4.29
591.08	4.3
591.418	4.34
591.756	4.37
592.093	4.37
592.431	4.38
592.769	4.32
593.106	4.34
593.444	4.32
593.781	4.32
594.119	4.29
594.456	4.27
594.793	4.28
595.131	4.29
595.468	4.28
595.805	4.25
596.143	4.24
596.48	4.23
596.817	4.27
597.154	4.29
597.491	4.31
597.828	4.33
598.165	4.34
598.502	4.3
598.839	4.3
599.176	4.34
599.512	4.31
599.849	4.36
600.186	4.35
600.523	4.42
600.859	4.46
601.196	4.49
601.532	4.49
601.869	4.48
602.205	4.47
602.542	4.48
602.878	4.53
603.215	4.54
603.551	4.59
603.887	4.57
604.223	4.59
604.56	4.62
604.896	4.58
605.232	4.58
605.568	4.6
605.904	4.6
606.24	4.61
606.576	4.63
606.912	4.61
607.248	4.61
607.583	4.59
607.919	4.55
608.255	4.51
608.591	4.56
608.926	4.54
609.262	4.54
609.597	4.52
609.933	4.51
610.268	4.5
610.604	4.45
610.939	4.45
611.275	4.44
611.61	4.42
611.945	4.46
612.281	4.45
612.616	4.43
612.951	4.5
613.286	4.48
613.621	4.53
613.956	4.54
614.291	4.53
614.626	4.55
614.961	4.54
615.296	4.58
615.631	4.57
615.966	4.64
616.3	4.67
616.635	4.7
616.97	4.71
617.304	4.69
617.639	4.72
617.973	4.75
618.308	4.76
618.642	4.78
618.977	4.75
619.311	4.74
619.646	4.75
619.98	4.73
620.314	4.7
620.648	4.62
620.983	4.69
621.317	4.68
621.651	4.65
621.985	4.68
622.319	4.67
622.653	4.64
622.987	4.62
623.321	4.6
623.655	4.58
623.988	4.59
624.322	4.61
624.656	4.63
624.99	4.65
625.323	4.65
625.657	4.65
625.99	4.63
626.324	4.65
626.657	4.68
626.991	4.7
627.324	4.71
627.658	4.72
627.991	4.7
628.324	4.71
628.657	4.75
628.991	4.74
629.324	4.78
629.657	4.77
629.99	4.79
630.323	4.8
630.656	4.81
630.989	4.84
631.322	4.86
631.655	4.81
631.987	4.77
632.32	4.78
632.653	4.73
632.986	4.77
633.318	4.79
633.651	4.73
633.984	4.68
634.316	4.68
634.649	4.69
634.981	4.64
635.313	4.65
635.646	4.62
635.978	4.61
636.31	4.59
636.643	4.61
636.975	4.62
637.307	4.64
637.639	4.68
637.971	4.67
638.303	4.61
638.635	4.63
638.967	4.69
639.299	4.73
639.631	4.76
639.963	4.7
640.295	4.68
640.626	4.74
640.958	4.8
641.29	4.78
641.621	4.74
641.953	4.73
642.285	4.72
642.616	4.74
642.948	4.74
643.279	4.7
643.61	4.66
643.942	4.68
644.273	4.65
644.604	4.6
644.936	4.59
645.267	4.64
645.598	4.67
645.929	4.59
646.26	4.57
646.591	4.63
646.922	4.64
647.253	4.61
647.584	4.63
647.915	4.55
648.245	4.56
648.576	4.64
648.907	4.68
649.238	4.71
649.568	4.68
649.899	4.73
650.229	4.8
650.56	4.86
650.89	4.83
651.221	4.82
651.551	4.82
651.882	4.82
652.212	4.81
652.542	4.77
652.872	4.78
653.203	4.75
653.533	4.75
653.863	4.75
654.193	4.8
654.523	4.77
654.853	4.79
655.183	4.8
655.513	4.76
655.843	4.77
656.172	4.82
656.502	4.87
656.832	4.86
657.162	4.85
657.491	4.83
657.821	4.85
658.15	4.85
658.48	4.84
658.809	4.82
659.139	4.79
659.468	4.76
659.798	4.81
660.127	4.8
660.456	4.79
660.785	4.82
661.115	4.82
661.444	4.85
661.773	4.8
662.102	4.79
662.431	4.8
662.76	4.81
663.089	4.77
663.418	4.69
663.747	4.66
664.076	4.67
664.404	4.7
664.733	4.68
665.062	4.67
665.39	4.7
665.719	4.72
666.048	4.74
666.376	4.78
666.705	4.76
667.033	4.78
667.362	4.81
667.69	4.77
668.018	4.81
668.347	4.76
668.675	4.87
669.003	4.9
669.331	4.87
669.659	4.84
669.987	4.81
670.315	4.82
670.643	4.8
670.971	4.82
671.299	4.82
671.627	4.77
671.955	4.76
672.283	4.8
672.61	4.8
672.938	4.85
673.266	4.83
673.593	4.94
673.921	4.88
674.249	4.82
674.576	4.81
674.904	4.89
675.231	4.89
675.558	4.87
675.886	4.82
676.213	4.86
676.54	4.92
676.867	4.95
677.195	5
677.522	5.03
677.849	5.03
678.176	4.96
678.503	4.99
678.83	5.01
679.157	4.92
679.484	4.86
679.81	4.84
680.137	4.8
680.464	4.7
680.791	4.76
681.117	4.76
681.444	4.82
681.771	4.72
682.097	4.74
682.424	4.71
682.75	4.76
683.077	4.74
683.403	4.73
683.729	4.73
684.056	4.71
684.382	4.7
684.708	4.63
685.034	4.69
685.36	4.74
685.686	4.65
686.012	4.77
686.339	4.88
686.664	4.88
686.99	4.95
687.316	5
687.642	5.02
687.968	4.99
688.294	5.02
688.619	5.07
688.945	5.04
689.271	4.99
689.596	5.03
689.922	5.09
690.247	5.02
690.573	5.04
690.898	5.05
691.224	5.09
691.549	5.17
691.874	5.14
692.2	5.15
692.525	5.25
692.85	5.25
693.175	5.34
693.5	5.29
693.825	5.2
694.15	5.11
694.475	5.11
694.8	5.14
695.125	5.04
695.45	5.05
695.775	5.14
696.099	5.26
696.424	5.17
696.749	5.12
697.073	5.16
697.398	5.14
697.723	5.21
698.047	5.23
698.372	5.19
698.696	5.23
699.02	5.22
699.345	5.17
699.669	5.22
699.993	5.14
700.318	5.21
700.642	5.34
700.966	5.38
701.29	5.41
701.614	5.41
701.938	5.48
702.262	5.56
702.586	5.47
702.91	5.39
703.234	5.48
703.557	5.54
703.881	5.54
704.205	5.52
704.529	5.41
704.852	5.33
705.176	5.34
705.499	5.36
705.823	5.36
706.146	5.47
706.47	5.52
706.793	5.44
707.117	5.3
707.44	5.22
707.763	5.09
708.086	5.02
708.409	5.12
708.733	5
709.056	4.86
709.379	5.02
709.702	5.2
710.025	5.12
710.348	5.12
710.671	5.1
710.993	5.27
711.316	5.2
711.639	5.27
711.962	5.35
712.284	5.27
712.607	5.4
712.93	5.38
713.252	5.25
713.575	5.28
713.897	5.49
714.22	5.56
714.542	5.73
714.864	5.73
715.187	5.65
715.509	5.79
715.831	5.81
716.153	5.79
716.475	5.74
716.798	5.86
717.12	5.76
717.442	5.74
717.764	5.72
718.085	5.75
718.407	5.73
718.729	5.63
719.051	5.67
719.373	5.57
719.695	5.67
720.016	5.82
720.338	5.89
720.659	5.79
720.981	5.72
721.302	5.7
721.624	5.81
721.945	5.91
722.267	5.92
722.588	5.83
722.909	5.51
723.231	5.31
723.552	5.2
723.873	5.39
724.194	5.41
724.515	5.33
724.836	5.36
725.157	5.58
725.478	5.53
725.799	5.56
726.12	5.61
726.441	5.41
726.762	5.34
727.083	5.18
727.403	5.21
727.724	5.23
728.045	5.26
728.365	5.24
728.686	5.14
729.006	5.06
729.327	5.12
729.647	5.49
729.967	5.52
730.288	5.64
730.608	5.45
730.928	5.4
731.249	5.41
731.569	5.55
731.889	5.38
732.209	5.36
732.529	5.31
732.849	5.23
733.169	5.33
733.489	5.37
733.809	5.56
734.129	5.52
734.448	5.58
734.768	5.46
735.088	5.61
735.408	5.68
735.727	5.9
736.047	6.03
736.366	5.92
736.686	6.06
737.005	5.92
737.325	6
737.644	6.2
737.963	6.25
738.283	5.9
738.602	6.02
738.921	6.23
739.24	6.34
739.56	6.2
739.879	6.16
740.198	6.16
740.517	5.97
740.836	6.04
741.155	5.98
741.473	6.22
741.792	6.21
742.111	6.27
742.43	5.95
742.748	5.85
743.067	5.85
743.386	5.73
743.704	5.84
744.023	6.03
744.341	6.01
744.66	6.29
744.978	6.67
745.297	6.71
745.615	6.81
745.933	6.84
746.252	7.02
746.57	7.03
746.888	6.89
747.206	6.94
747.524	7.05
747.842	7.15
748.16	6.95
748.478	6.9
748.796	6.96
749.114	7.31
749.432	7.41
749.749	7.33
750.067	7.48
750.385	7.34
750.703	7.32
751.02	7.15
751.338	6.88
751.655	6.72
751.973	6.44
752.29	6.19
752.608	6.13
752.925	6.12
753.242	6.01
753.56	6.02
753.877	6.14
754.194	5.93
754.511	6.11
754.828	6.17
755.145	6.07
755.462	5.99
755.779	5.93
756.096	5.94
756.413	6.28
756.73	6.31
757.047	6.31
757.364	6.1
757.68	6.37
757.997	6.3
758.314	6.2
758.63	6.33
758.947	6.49
759.264	6.53
759.58	6.67
759.896	6.75
760.213	6.99
760.529	7.03
760.846	7.26
761.162	7.08
761.478	7.17
761.794	7.07
762.11	7.04
762.426	6.94
762.743	6.97
763.059	6.79
763.375	6.77
763.69	6.83
764.006	7.05
764.322	6.97
764.638	6.97
764.954	7.26
765.27	7.28
765.585	7.41
765.901	7.35
766.216	7.44
766.532	7.46
766.848	7.21
767.163	7.13
767.478	7.14
767.794	7.16
768.109	7.15
768.424	7.36
768.74	7.4
769.055	7.43
769.37	7.36
769.685	6.93
770	6.96
770.315	6.93
770.63	6.88
770.945	6.94
771.26	7.04
771.575	7.01
771.89	7.1
772.205	6.84
772.52	7
772.834	6.88
773.149	6.97
773.464	7.23
773.778	7.18
774.093	6.75
774.407	6.95
774.722	6.8
775.036	6.62
775.351	6.72
775.665	6.47
775.979	6.3
776.293	7.11
776.608	7.04
776.922	6.99
777.236	6.95
777.55	6.97
777.864	7.33
778.178	7.22
778.492	7.22
778.806	7.19
779.12	7.06
779.434	7.04
779.747	7.03
780.061	7.06
780.375	7.2
780.689	7.11
781.002	6.92
781.316	7.13
781.629	7.17
781.943	6.94
782.256	7.17
782.57	7.34
782.883	6.92
783.196	6.83
783.51	7.15
783.823	7.21
784.136	6.96
784.449	6.79
784.762	7.04
785.075	6.84
785.388	6.57
785.701	6.84
786.014	6.57
786.327	6.73
786.64	7.06
786.953	7
787.266	7.26
787.578	7.13
787.891	6.96
788.204	6.72
788.516	6.95
788.829	7
789.141	6.89
789.454	7.01
789.766	7.09
790.079	6.79
790.391	6.53
790.703	6.96
791.016	6.87
791.328	6.82
791.64	6.98
791.952	7.42
792.264	7.38
792.576	7.97
792.888	8.1
793.2	7.92
793.512	7.84
793.824	8.08
794.136	8.14
794.448	8.36
794.76	8.68
795.071	8.42
795.383	8.64
795.695	8.83
796.006	8.78
796.318	8.94
796.629	9.73
796.941	9.43
797.252	9.51
797.564	9.55
797.875	9.29
798.186	9.27
798.497	8.72
798.809	8.62
799.12	8.34
799.431	8.39
799.742	8.17
800.053	8.78
800.364	8.52
800.675	8.73
800.986	8.82
801.297	8.55
801.608	8.63
801.918	8.3
802.229	8.5
802.54	8.24
802.851	8.03
803.161	7.36
803.472	8.06
803.782	7.72
804.093	7.66
804.403	7.37
804.714	7.12
805.024	7.67
805.334	7.59
805.645	7.35
805.955	7.27
806.265	7.47
806.575	7.05
806.885	7.75
807.195	7.97
807.505	7.53
807.815	8.06
808.125	8.12
808.435	8.15
808.745	7.55
809.055	8.4
809.365	8.64
809.674	8.41
809.984	8.39
810.294	8.38
810.603	8.52
810.913	8.92
811.222	9.21
811.532	8.92
811.841	9.58
812.151	9.85
812.46	9.29
812.769	8.81
813.079	8.5
813.388	7.77
813.697	7.32
814.006	7.99
814.315	7.95
814.624	8.26
814.933	8.36
815.242	8.93
815.551	8.7
815.86	8.97
816.169	9.24
816.478	9.18
816.786	8.76
817.095	8.99
817.404	9.44
817.712	9.61
818.021	9.94
818.33	9.61
818.638	9.25
818.947	9.54
819.255	9.65
819.563	9.36
819.872	9.4
820.18	9.53
820.488	9.17
820.796	9.05
821.105	8.87
821.413	8.72
821.721	8.5
822.029	8.56
822.337	8.41
822.645	8.27
822.953	8.29
823.26	8.47
823.568	8.34
823.876	8.29
824.184	8.07
824.491	8.02
824.799	8.07
825.107	8.21
825.414	8.2
825.722	8.16
826.029	8.25
826.337	8.35
826.644	8.32
826.951	8.36
827.259	8.29
827.566	8.26
827.873	8.37
828.18	8.41
828.488	8.42
828.795	8.42
829.102	8.56
829.409	8.6
829.716	8.44
830.023	8.65
830.329	8.51
830.636	8.94
830.943	8.78
831.25	8.73
831.557	8.47
831.863	8.6
832.17	8.75
832.476	8.81
832.783	8.84
833.089	8.63
833.396	8.82
833.702	9.17
834.009	9.35
834.315	9.35
834.621	9.81
834.928	9.71
835.234	9.87
835.54	9.91
835.846	9.81
836.152	10.14
836.458	9.9
836.764	9.9
837.07	9.86
837.376	9.94
837.682	9.84
837.988	9.64
838.293	9.59
838.599	9.51
838.905	9.33
839.211	8.4
839.516	8.63
839.822	8.96
840.127	8.88
840.433	8.74
840.738	8.57
841.044	7.88
841.349	8.02
841.654	8.15
841.959	8.4
842.265	8.23
842.57	8.78
842.875	8.46
843.18	9.09
843.485	9.48
843.79	9.76
844.095	9.64
844.4	10.88
844.705	10.16
845.01	9.86
845.315	10.29
845.619	11.09
845.924	12.19
846.229	11.13
846.533	10.86
846.838	10.71
847.142	10.71
847.447	9.87
847.751	8.67
848.056	6.06
848.36	6.59
848.664	5.95
848.969	3.48
849.273	4.29
849.577	3.24
849.881	2.72
850.185	3.82
850.489	4.74
850.794	3.72
851.097	4.62
851.401	6.64
851.705	7.59
852.009	7.9
852.313	6.88
852.617	6.99
852.92	8.47
853.224	8.68
853.528	10.11
853.831	12.32
854.135	12.41
854.438	14.12
854.742	13.2
855.045	13.54
855.349	13.87
855.652	12.81
855.955	13.57
856.259	12.76
856.562	11.36
856.865	10.29
857.168	11.73
857.471	11.48
857.774	9.57
858.077	8.16
858.38	9.78
858.683	8.99
858.986	9.8
859.289	8.8
859.592	8.4
859.894	9.23
860.197	9.27
860.5	10.28
860.802	11.06
861.105	11.64
861.407	12.03
861.71	13.29
862.012	13.89
862.315	12.59
862.617	12.4
862.919	14.04
863.222	13.87
863.524	10.89
863.826	12.14
864.128	11.71
864.43	12.95
864.732	12.56
865.034	12.89
865.336	9.5
865.638	10.14
865.94	12.32
866.242	11.03
866.544	9.69
866.846	10.05
867.147	10.13
867.449	8.34
867.751	10.99
868.052	10.15
868.354	11.28
868.655	11.03
868.957	11.37
869.258	10.59
869.56	9.91
869.861	10.09
870.162	9.44
870.463	10.69
870.765	10.12
871.066	9.42
871.367	9.74
871.668	13.25
871.969	10.68
872.27	8.5
872.571	7.18
872.872	8.67
873.173	6.86
873.473	6.81
873.774	8.51
874.075	7.53
874.376	7.43
874.676	5.56
874.977	4.65
875.277	6.29
875.578	3.98
875.878	4.17
876.179	5.75
876.479	5.33
876.78	4.57
877.08	4.64
877.38	4.05
877.68	3
877.981	1.95
878.281	3.54
878.581	3.86
