Data from BA57710_Reflection_00006.txt Node
Date: Mon Nov 18 15:31:49 EST 2019
User: vgr7
Spectrometer: USB2G7710
Scans to average: 3
Trigger mode: 4
Integration Time (sec): 2.000000E-2
Electric dark correction enabled: true
Boxcar width: 10
XAxis mode: Wavelengths
Number of Pixels in Spectrum: 2048
>>>>>Begin Spectral Data<<<<<
177.721	45.59
178.105	21.01
178.488	3.63
178.871	90.93
179.254	31.68
179.636	-10.82
180.019	-48.85
180.402	97.22
180.785	126.96
181.168	204.62
181.55	154.43
181.933	102.46
182.316	160.36
182.698	204.19
183.081	378.5
183.463	-829.96
183.846	-818.09
184.228	-313.83
184.611	-421.8
184.993	-111.3
185.376	-133.35
185.758	-178.14
186.14	-329.49
186.522	-408.1
186.904	-347.45
187.287	-791.11
187.669	-457.13
188.051	-471.84
188.433	-596.78
188.815	-208.72
189.197	-156.51
189.579	-101.51
189.961	-88.67
190.342	-130.45
190.724	-105.26
191.106	-96.32
191.488	-91.66
191.869	-75.81
192.251	-113.19
192.633	-104.1
193.014	-124.57
193.396	-139.64
193.777	-70.79
194.159	-56.45
194.54	-48.54
194.922	-51.83
195.303	-52.38
195.684	-47.07
196.065	-18.18
196.447	-50.01
196.828	-79.22
197.209	-65.48
197.59	-86.56
197.971	-50.53
198.352	-29.7
198.733	-46.54
199.114	-17.71
199.495	-34.9
199.876	-59.67
200.257	-22.68
200.638	-2.73
201.018	-13.76
201.399	-7.58
201.78	-6.01
202.16	-1.89
202.541	-6.21
202.922	-10.45
203.302	-8.16
203.683	-24.21
204.063	-38.77
204.444	-21.64
204.824	-11.06
205.204	-17.26
205.585	-21.8
205.965	-22.39
206.345	-30.81
206.725	-19.04
207.106	-38.97
207.486	-44.41
207.866	-31.73
208.246	-29.4
208.626	-40.18
209.006	-11.04
209.386	-67.23
209.766	-69.14
210.145	-58.67
210.525	-70.87
210.905	-71.62
211.285	-58.81
211.664	-45.99
212.044	-43.18
212.424	-35.89
212.803	-44.39
213.183	-39.37
213.562	-38.32
213.942	-40.95
214.321	-26.98
214.701	-56.38
215.08	-63.92
215.459	-50.99
215.838	-56.13
216.218	-59.78
216.597	-51.63
216.976	-59.23
217.355	-35.07
217.734	-34.96
218.113	-32.75
218.492	-26.4
218.871	-34.47
219.25	-39.98
219.629	-42.33
220.008	-41.39
220.387	-48.55
220.766	-50.17
221.144	-57.85
221.523	-66.24
221.902	-70.17
222.28	-78.96
222.659	-57.39
223.037	-48.06
223.416	-51.74
223.794	-40.15
224.173	-28.38
224.551	-30.67
224.929	-40.21
225.308	-40.94
225.686	-41.4
226.064	-38.01
226.442	-30.45
226.821	-22.57
227.199	-19.82
227.577	-18.65
227.955	-15.72
228.333	-13.8
228.711	-12.58
229.089	-13.85
229.467	-12.25
229.845	-11.05
230.222	-9.3
230.6	-9.41
230.978	-10.21
231.356	-7.32
231.733	-6.51
232.111	-6.78
232.488	-5.86
232.866	-2.34
233.243	-2.69
233.621	-2.24
233.998	-0.85
234.376	-2.53
234.753	-2.05
235.13	-0.49
235.508	-0.02
235.885	0.25
236.262	-0.56
236.639	-0.14
237.016	1.37
237.393	2.37
237.77	2.85
238.147	3.45
238.524	2.69
238.901	3.98
239.278	4.15
239.655	3.96
240.032	3.78
240.409	3.86
240.785	3.28
241.162	3.71
241.539	3.76
241.915	3.88
242.292	3.23
242.668	3.29
243.045	2.93
243.421	3.12
243.798	3.03
244.174	3.2
244.551	3.31
244.927	3.18
245.303	3.08
245.679	2.99
246.056	2.74
246.432	2.77
246.808	2.85
247.184	2.79
247.56	2.81
247.936	2.56
248.312	2.57
248.688	2.62
249.064	2.71
249.44	2.86
249.815	2.81
250.191	3.17
250.567	3.02
250.943	2.93
251.318	2.93
251.694	2.98
252.069	2.64
252.445	2.57
252.82	2.72
253.196	2.74
253.571	2.58
253.947	2.72
254.322	2.71
254.697	2.56
255.073	2.14
255.448	1.94
255.823	2.26
256.198	2.23
256.573	2.39
256.948	2.4
257.323	2.43
257.698	2.46
258.073	2.5
258.448	2.52
258.823	2.52
259.198	2.64
259.573	2.66
259.948	2.79
260.322	2.8
260.697	2.65
261.072	2.48
261.446	2.65
261.821	2.62
262.195	2.72
262.57	2.63
262.944	2.71
263.319	2.77
263.693	2.7
264.067	2.87
264.442	2.89
264.816	2.79
265.19	2.86
265.564	2.73
265.938	2.55
266.313	2.53
266.687	2.58
267.061	2.57
267.435	2.37
267.809	2.33
268.183	2.4
268.556	2.35
268.93	2.52
269.304	2.34
269.678	2.51
270.051	2.48
270.425	2.53
270.799	2.49
271.172	2.51
271.546	2.47
271.919	2.26
272.293	2.26
272.666	2.39
273.04	2.29
273.413	2.39
273.787	2.38
274.16	2.46
274.533	2.66
274.906	2.61
275.279	2.61
275.653	2.71
276.026	2.56
276.399	2.66
276.772	2.79
277.145	2.83
277.518	2.65
277.891	2.63
278.263	2.67
278.636	2.84
279.009	2.74
279.382	2.93
279.755	2.93
280.127	3
280.5	3
280.872	2.99
281.245	3.03
281.617	3.26
281.99	3.34
282.362	3.19
282.735	3.17
283.107	3.26
283.479	3.2
283.852	3.21
284.224	3.21
284.596	3.14
284.968	3.23
285.34	3.37
285.713	3.34
286.085	3.29
286.457	3.29
286.829	3.43
287.201	3.37
287.572	3.49
287.944	3.39
288.316	3.37
288.688	3.41
289.06	3.41
289.431	3.25
289.803	3.19
290.175	3.26
290.546	3.4
290.918	3.34
291.289	3.35
291.661	3.49
292.032	3.56
292.403	3.56
292.775	3.56
293.146	3.49
293.517	3.56
293.889	3.63
294.26	3.64
294.631	3.58
295.002	3.55
295.373	3.5
295.744	3.56
296.115	3.58
296.486	3.55
296.857	3.55
297.228	3.6
297.599	3.62
297.97	3.61
298.34	3.46
298.711	3.59
299.082	3.48
299.452	3.48
299.823	3.59
300.194	3.59
300.564	3.58
300.935	3.59
301.305	3.52
301.676	3.58
302.046	3.62
302.416	3.75
302.787	3.78
303.157	3.82
303.527	3.73
303.897	3.69
304.267	3.65
304.637	3.7
305.008	3.82
305.378	3.85
305.748	3.86
306.117	3.86
306.487	3.83
306.857	3.96
307.227	3.97
307.597	3.93
307.967	3.86
308.336	3.84
308.706	3.85
309.076	3.85
309.445	3.8
309.815	3.74
310.184	3.59
310.554	3.67
310.923	3.66
311.293	3.77
311.662	3.8
312.031	3.88
312.401	3.81
312.77	3.65
313.139	3.65
313.508	3.69
313.877	3.65
314.246	3.64
314.616	3.71
314.985	3.65
315.353	3.42
315.722	3.47
316.091	3.45
316.46	3.36
316.829	3.38
317.198	3.34
317.567	3.27
317.935	3.37
318.304	3.19
318.672	3.15
319.041	3.15
319.41	3.04
319.778	2.94
320.147	2.92
320.515	3.05
320.883	2.88
321.252	2.89
321.62	2.93
321.988	2.92
322.357	2.76
322.725	2.65
323.093	2.96
323.461	2.94
323.829	2.85
324.197	3.03
324.565	2.9
324.933	2.88
325.301	3
325.669	2.97
326.037	3.02
326.405	2.97
326.772	2.91
327.14	3.06
327.508	3.17
327.875	3.12
328.243	3.05
328.61	3.09
328.978	3.03
329.346	3.07
329.713	2.91
330.08	2.99
330.448	3.08
330.815	2.85
331.182	2.97
331.55	3.05
331.917	2.94
332.284	3.1
332.651	3.07
333.018	3.08
333.385	3.23
333.752	3.29
334.119	3.43
334.486	3.32
334.853	3.22
335.22	3.09
335.587	3.24
335.954	3.26
336.32	3.33
336.687	3.32
337.054	3.34
337.42	3.49
337.787	3.48
338.153	3.52
338.52	3.59
338.886	3.43
339.253	3.41
339.619	3.48
339.986	3.57
340.352	3.59
340.718	3.49
341.084	3.42
341.451	3.47
341.817	3.44
342.183	3.47
342.549	3.5
342.915	3.55
343.281	3.47
343.647	3.36
344.013	3.34
344.379	3.27
344.745	3.22
345.11	3.15
345.476	3.26
345.842	3.21
346.208	3.19
346.573	3.27
346.939	3.36
347.304	3.26
347.67	3.21
348.035	3.21
348.401	3.19
348.766	3.11
349.132	3.08
349.497	3.11
349.862	3.21
350.228	3.16
350.593	3.12
350.958	3.16
351.323	3.34
351.688	3.34
352.053	3.39
352.418	3.49
352.783	3.53
353.148	3.37
353.513	3.38
353.878	3.37
354.243	3.49
354.608	3.47
354.972	3.56
355.337	3.57
355.702	3.61
356.066	3.73
356.431	3.71
356.795	3.7
357.16	3.65
357.524	3.6
357.889	3.62
358.253	3.63
358.618	3.64
358.982	3.61
359.346	3.63
359.71	3.59
360.075	3.52
360.439	3.57
360.803	3.68
361.167	3.67
361.531	3.73
361.895	3.64
362.259	3.59
362.623	3.59
362.987	3.56
363.351	3.58
363.714	3.59
364.078	3.59
364.442	3.56
364.806	3.52
365.169	3.55
365.533	3.61
365.896	3.6
366.26	3.56
366.623	3.55
366.987	3.52
367.35	3.53
367.714	3.59
368.077	3.46
368.44	3.35
368.803	3.36
369.167	3.23
369.53	3.15
369.893	3.21
370.256	3.21
370.619	3.18
370.982	3.09
371.345	3.04
371.708	3.1
372.071	3.11
372.434	3.11
372.797	3.08
373.159	3.04
373.522	3.08
373.885	3.12
374.247	3.12
374.61	3.15
374.973	3.17
375.335	3.11
375.698	3.17
376.06	3.17
376.423	3.18
376.785	3.28
377.147	3.33
377.51	3.3
377.872	3.31
378.234	3.34
378.596	3.37
378.958	3.34
379.321	3.34
379.683	3.36
380.045	3.37
380.407	3.39
380.769	3.4
381.13	3.36
381.492	3.27
381.854	3.26
382.216	3.28
382.578	3.28
382.939	3.28
383.301	3.3
383.663	3.3
384.024	3.3
384.386	3.28
384.747	3.31
385.109	3.29
385.47	3.26
385.832	3.24
386.193	3.27
386.554	3.28
386.916	3.27
387.277	3.24
387.638	3.28
387.999	3.26
388.36	3.23
388.721	3.27
389.082	3.31
389.443	3.32
389.804	3.27
390.165	3.24
390.526	3.28
390.887	3.29
391.248	3.32
391.609	3.33
391.969	3.33
392.33	3.29
392.691	3.31
393.051	3.31
393.412	3.34
393.772	3.28
394.133	3.31
394.493	3.31
394.854	3.34
395.214	3.31
395.574	3.32
395.935	3.32
396.295	3.34
396.655	3.32
397.015	3.35
397.376	3.35
397.736	3.36
398.096	3.33
398.456	3.3
398.816	3.32
399.176	3.28
399.535	3.23
399.895	3.24
400.255	3.24
400.615	3.25
400.975	3.22
401.334	3.25
401.694	3.22
402.054	3.21
402.413	3.19
402.773	3.18
403.132	3.19
403.492	3.21
403.851	3.18
404.211	3.2
404.57	3.18
404.929	3.17
405.288	3.18
405.648	3.18
406.007	3.2
406.366	3.18
406.725	3.19
407.084	3.22
407.443	3.23
407.802	3.22
408.161	3.19
408.52	3.18
408.879	3.17
409.238	3.19
409.596	3.2
409.955	3.2
410.314	3.23
410.673	3.21
411.031	3.19
411.39	3.2
411.748	3.21
412.107	3.2
412.465	3.21
412.824	3.2
413.182	3.19
413.54	3.17
413.899	3.19
414.257	3.18
414.615	3.16
414.974	3.18
415.332	3.19
415.69	3.18
416.048	3.17
416.406	3.19
416.764	3.16
417.122	3.16
417.48	3.14
417.838	3.13
418.195	3.13
418.553	3.14
418.911	3.16
419.269	3.16
419.626	3.15
419.984	3.16
420.342	3.16
420.699	3.17
421.057	3.18
421.414	3.15
421.772	3.15
422.129	3.16
422.486	3.14
422.844	3.13
423.201	3.15
423.558	3.16
423.915	3.16
424.273	3.17
424.63	3.15
424.987	3.17
425.344	3.16
425.701	3.17
426.058	3.15
426.415	3.13
426.772	3.15
427.128	3.16
427.485	3.14
427.842	3.15
428.199	3.17
428.555	3.17
428.912	3.2
429.269	3.21
429.625	3.2
429.982	3.22
430.338	3.22
430.695	3.22
431.051	3.2
431.407	3.17
431.764	3.17
432.12	3.17
432.476	3.18
432.832	3.17
433.189	3.17
433.545	3.17
433.901	3.17
434.257	3.15
434.613	3.14
434.969	3.14
435.325	3.13
435.681	3.11
436.036	3.09
436.392	3.08
436.748	3.07
437.104	3.08
437.459	3.07
437.815	3.07
438.171	3.07
438.526	3.07
438.882	3.09
439.237	3.09
439.593	3.12
439.948	3.1
440.304	3.12
440.659	3.1
441.014	3.12
441.369	3.12
441.725	3.11
442.08	3.12
442.435	3.13
442.79	3.13
443.145	3.14
443.5	3.14
443.855	3.14
444.21	3.13
444.565	3.15
444.92	3.15
445.275	3.15
445.629	3.14
445.984	3.16
446.339	3.16
446.693	3.14
447.048	3.11
447.403	3.1
447.757	3.1
448.112	3.12
448.466	3.11
448.82	3.11
449.175	3.12
449.529	3.11
449.883	3.1
450.238	3.1
450.592	3.11
450.946	3.08
451.3	3.08
451.654	3.09
452.008	3.08
452.362	3.07
452.716	3.07
453.07	3.08
453.424	3.07
453.778	3.07
454.132	3.06
454.486	3.08
454.839	3.08
455.193	3.08
455.547	3.07
455.9	3.08
456.254	3.08
456.607	3.09
456.961	3.07
457.314	3.07
457.668	3.07
458.021	3.07
458.375	3.08
458.728	3.09
459.081	3.08
459.434	3.07
459.787	3.08
460.141	3.09
460.494	3.09
460.847	3.09
461.2	3.08
461.553	3.1
461.906	3.1
462.259	3.12
462.611	3.12
462.964	3.12
463.317	3.1
463.67	3.1
464.022	3.09
464.375	3.11
464.728	3.12
465.08	3.13
465.433	3.11
465.785	3.12
466.138	3.12
466.49	3.14
466.843	3.14
467.195	3.14
467.547	3.13
467.899	3.14
468.252	3.15
468.604	3.14
468.956	3.13
469.308	3.12
469.66	3.11
470.012	3.13
470.364	3.13
470.716	3.13
471.068	3.12
471.42	3.12
471.772	3.15
472.123	3.14
472.475	3.15
472.827	3.14
473.178	3.15
473.53	3.16
473.882	3.18
474.233	3.2
474.585	3.19
474.936	3.2
475.288	3.19
475.639	3.21
475.99	3.22
476.342	3.22
476.693	3.24
477.044	3.24
477.395	3.22
477.746	3.24
478.097	3.23
478.448	3.23
478.8	3.24
479.15	3.21
479.501	3.24
479.852	3.23
480.203	3.23
480.554	3.23
480.905	3.24
481.255	3.23
481.606	3.22
481.957	3.24
482.307	3.23
482.658	3.23
483.009	3.22
483.359	3.22
483.709	3.24
484.06	3.23
484.41	3.24
484.761	3.24
485.111	3.24
485.461	3.24
485.811	3.25
486.162	3.25
486.512	3.26
486.862	3.24
487.212	3.25
487.562	3.26
487.912	3.25
488.262	3.24
488.612	3.25
488.961	3.25
489.311	3.25
489.661	3.24
490.011	3.26
490.36	3.25
490.71	3.26
491.06	3.25
491.409	3.26
491.759	3.25
492.108	3.26
492.458	3.26
492.807	3.26
493.157	3.26
493.506	3.27
493.855	3.28
494.204	3.3
494.554	3.29
494.903	3.28
495.252	3.29
495.601	3.3
495.95	3.29
496.299	3.28
496.648	3.28
496.997	3.3
497.346	3.3
497.695	3.32
498.043	3.32
498.392	3.32
498.741	3.32
499.09	3.33
499.438	3.31
499.787	3.34
500.135	3.32
500.484	3.35
500.832	3.36
501.181	3.35
501.529	3.35
501.878	3.38
502.226	3.4
502.574	3.41
502.923	3.42
503.271	3.43
503.619	3.44
503.967	3.45
504.315	3.46
504.663	3.46
505.011	3.46
505.359	3.48
505.707	3.48
506.055	3.48
506.403	3.49
506.751	3.53
507.098	3.52
507.446	3.56
507.794	3.55
508.141	3.56
508.489	3.57
508.837	3.59
509.184	3.55
509.531	3.54
509.879	3.55
510.226	3.56
510.574	3.58
510.921	3.6
511.268	3.6
511.616	3.61
511.963	3.6
512.31	3.61
512.657	3.63
513.004	3.65
513.351	3.66
513.698	3.67
514.045	3.66
514.392	3.66
514.739	3.67
515.086	3.69
515.432	3.68
515.779	3.67
516.126	3.67
516.473	3.69
516.819	3.72
517.166	3.71
517.512	3.72
517.859	3.73
518.205	3.72
518.552	3.74
518.898	3.76
519.245	3.77
519.591	3.77
519.937	3.75
520.283	3.75
520.629	3.77
520.976	3.78
521.322	3.79
521.668	3.79
522.014	3.79
522.36	3.79
522.706	3.81
523.052	3.83
523.398	3.85
523.743	3.84
524.089	3.83
524.435	3.84
524.781	3.84
525.126	3.85
525.472	3.85
525.817	3.85
526.163	3.84
526.509	3.85
526.854	3.87
527.199	3.88
527.545	3.87
527.89	3.87
528.235	3.86
528.581	3.86
528.926	3.87
529.271	3.88
529.616	3.86
529.961	3.87
530.306	3.87
530.651	3.87
530.996	3.9
531.341	3.9
531.686	3.9
532.031	3.91
532.376	3.92
532.721	3.92
533.065	3.92
533.41	3.94
533.755	3.94
534.099	3.94
534.444	3.95
534.788	3.96
535.133	3.96
535.477	3.99
535.822	4
536.166	3.99
536.51	3.98
536.855	4.01
537.199	4.02
537.543	4.03
537.887	4.02
538.231	4.02
538.576	4.02
538.92	4.03
539.264	4.02
539.608	4.02
539.951	4.04
540.295	4.05
540.639	4.05
540.983	4.06
541.327	4.06
541.671	4.06
542.014	4.07
542.358	4.08
542.701	4.08
543.045	4.1
543.389	4.1
543.732	4.13
544.075	4.13
544.419	4.13
544.762	4.13
545.105	4.14
545.449	4.15
545.792	4.16
546.135	4.18
546.478	4.2
546.821	4.22
547.165	4.2
547.508	4.21
547.851	4.22
548.194	4.2
548.536	4.21
548.879	4.2
549.222	4.21
549.565	4.22
549.908	4.21
550.25	4.19
550.593	4.2
550.936	4.18
551.278	4.19
551.621	4.19
551.963	4.2
552.306	4.18
552.648	4.17
552.991	4.16
553.333	4.17
553.675	4.18
554.017	4.17
554.36	4.17
554.702	4.17
555.044	4.15
555.386	4.18
555.728	4.17
556.07	4.19
556.412	4.19
556.754	4.16
557.096	4.16
557.438	4.17
557.78	4.19
558.121	4.22
558.463	4.21
558.805	4.22
559.147	4.23
559.488	4.24
559.83	4.25
560.171	4.23
560.513	4.24
560.854	4.23
561.196	4.2
561.537	4.22
561.878	4.21
562.22	4.2
562.561	4.17
562.902	4.19
563.243	4.2
563.584	4.19
563.925	4.21
564.266	4.16
564.607	4.16
564.948	4.16
565.289	4.16
565.63	4.18
565.971	4.15
566.312	4.13
566.653	4.13
566.993	4.11
567.334	4.13
567.675	4.13
568.015	4.13
568.356	4.14
568.696	4.16
569.037	4.2
569.377	4.24
569.718	4.27
570.058	4.27
570.398	4.25
570.739	4.26
571.079	4.27
571.419	4.28
571.759	4.29
572.099	4.28
572.439	4.26
572.779	4.27
573.119	4.29
573.459	4.31
573.799	4.33
574.139	4.38
574.479	4.4
574.819	4.4
575.158	4.39
575.498	4.4
575.838	4.39
576.177	4.35
576.517	4.33
576.856	4.35
577.196	4.37
577.535	4.39
577.875	4.39
578.214	4.39
578.553	4.43
578.893	4.44
579.232	4.45
579.571	4.43
579.91	4.41
580.25	4.41
580.589	4.38
580.928	4.41
581.267	4.39
581.606	4.38
581.945	4.39
582.283	4.41
582.622	4.39
582.961	4.39
583.3	4.42
583.639	4.44
583.977	4.42
584.316	4.38
584.654	4.34
584.993	4.34
585.332	4.34
585.67	4.31
586.008	4.28
586.347	4.3
586.685	4.3
587.024	4.31
587.362	4.3
587.7	4.32
588.038	4.31
588.376	4.3
588.715	4.3
589.053	4.3
589.391	4.31
589.729	4.33
590.067	4.3
590.404	4.31
590.742	4.26
591.08	4.23
591.418	4.25
591.756	4.31
592.093	4.3
592.431	4.31
592.769	4.33
593.106	4.33
593.444	4.33
593.781	4.38
594.119	4.39
594.456	4.37
594.793	4.37
595.131	4.35
595.468	4.38
595.805	4.39
596.143	4.4
596.48	4.37
596.817	4.36
597.154	4.38
597.491	4.39
597.828	4.42
598.165	4.46
598.502	4.48
598.839	4.43
599.176	4.43
599.512	4.43
599.849	4.45
600.186	4.46
600.523	4.47
600.859	4.48
601.196	4.48
601.532	4.53
601.869	4.53
602.205	4.53
602.542	4.52
602.878	4.53
603.215	4.52
603.551	4.54
603.887	4.57
604.223	4.56
604.56	4.57
604.896	4.55
605.232	4.57
605.568	4.56
605.904	4.55
606.24	4.6
606.576	4.61
606.912	4.61
607.248	4.61
607.583	4.61
607.919	4.59
608.255	4.59
608.591	4.57
608.926	4.58
609.262	4.58
609.597	4.59
609.933	4.56
610.268	4.58
610.604	4.58
610.939	4.54
611.275	4.56
611.61	4.54
611.945	4.57
612.281	4.53
612.616	4.53
612.951	4.59
613.286	4.58
613.621	4.57
613.956	4.57
614.291	4.55
614.626	4.54
614.961	4.52
615.296	4.54
615.631	4.54
615.966	4.57
616.3	4.59
616.635	4.56
616.97	4.62
617.304	4.61
617.639	4.63
617.973	4.59
618.308	4.58
618.642	4.6
618.977	4.58
619.311	4.58
619.646	4.56
619.98	4.55
620.314	4.53
620.648	4.53
620.983	4.55
621.317	4.55
621.651	4.54
621.985	4.56
622.319	4.56
622.653	4.58
622.987	4.59
623.321	4.58
623.655	4.62
623.988	4.61
624.322	4.63
624.656	4.62
624.99	4.66
625.323	4.65
625.657	4.64
625.99	4.68
626.324	4.67
626.657	4.69
626.991	4.7
627.324	4.71
627.658	4.71
627.991	4.73
628.324	4.75
628.657	4.76
628.991	4.73
629.324	4.76
629.657	4.74
629.99	4.74
630.323	4.73
630.656	4.75
630.989	4.76
631.322	4.76
631.655	4.79
631.987	4.78
632.32	4.84
632.653	4.88
632.986	4.88
633.318	4.89
633.651	4.96
633.984	4.97
634.316	4.96
634.649	4.97
634.981	4.95
635.313	4.93
635.646	4.9
635.978	4.95
636.31	4.94
636.643	4.92
636.975	4.89
637.307	4.9
637.639	4.89
637.971	4.85
638.303	4.86
638.635	4.78
638.967	4.86
639.299	4.83
639.631	4.77
639.963	4.74
640.295	4.78
640.626	4.73
640.958	4.7
641.29	4.73
641.621	4.71
641.953	4.71
642.285	4.75
642.616	4.87
642.948	4.8
643.279	4.78
643.61	4.78
643.942	4.79
644.273	4.78
644.604	4.77
644.936	4.69
645.267	4.69
645.598	4.75
645.929	4.75
646.26	4.75
646.591	4.74
646.922	4.72
647.253	4.68
647.584	4.65
647.915	4.65
648.245	4.6
648.576	4.64
648.907	4.68
649.238	4.65
649.568	4.58
649.899	4.63
650.229	4.68
650.56	4.71
650.89	4.71
651.221	4.76
651.551	4.73
651.882	4.8
652.212	4.83
652.542	4.85
652.872	4.81
653.203	4.83
653.533	4.82
653.863	4.88
654.193	4.86
654.523	4.93
654.853	4.96
655.183	5.02
655.513	4.96
655.843	4.92
656.172	4.96
656.502	4.98
656.832	4.97
657.162	4.94
657.491	4.98
657.821	4.99
658.15	5
658.48	4.98
658.809	4.98
659.139	4.94
659.468	4.96
659.798	4.93
660.127	4.92
660.456	4.99
660.785	5.03
661.115	5.08
661.444	5.05
661.773	5
662.102	5
662.431	5.04
662.76	5.04
663.089	5.02
663.418	4.99
663.747	5.03
664.076	5.01
664.404	4.96
664.733	5.04
665.062	5.01
665.39	5.1
665.719	5.09
666.048	5.15
666.376	5.14
666.705	5.14
667.033	5.1
667.362	5.07
667.69	5.04
668.018	5.01
668.347	4.92
668.675	5.06
669.003	5.04
669.331	5.1
669.659	5.1
669.987	5.06
670.315	5.04
670.643	5.09
670.971	5.19
671.299	5.26
671.627	5.16
671.955	5.14
672.283	5.14
672.61	5.18
672.938	5.15
673.266	5.11
673.593	5.2
673.921	5.26
674.249	5.28
674.576	5.23
674.904	5.31
675.231	5.43
675.558	5.37
675.886	5.42
676.213	5.4
676.54	5.48
676.867	5.59
677.195	5.7
677.522	5.67
677.849	5.64
678.176	5.53
678.503	5.59
678.83	5.59
679.157	5.53
679.484	5.59
679.81	5.58
680.137	5.58
680.464	5.48
680.791	5.5
681.117	5.52
681.444	5.59
681.771	5.51
682.097	5.5
682.424	5.51
682.75	5.49
683.077	5.46
683.403	5.48
683.729	5.48
684.056	5.4
684.382	5.41
684.708	5.35
685.034	5.51
685.36	5.53
685.686	5.53
686.012	5.55
686.339	5.46
686.664	5.44
686.99	5.48
687.316	5.52
687.642	5.61
687.968	5.58
688.294	5.55
688.619	5.56
688.945	5.47
689.271	5.35
689.596	5.26
689.922	5.26
690.247	5.2
690.573	5.19
690.898	5.27
691.224	5.21
691.549	5.23
691.874	5.11
692.2	5.12
692.525	5.1
692.85	5.17
693.175	5.23
693.5	5.26
693.825	5.33
694.15	5.35
694.475	5.21
694.8	5.17
695.125	5.12
695.45	5.16
695.775	5.25
696.099	5.36
696.424	5.43
696.749	5.42
697.073	5.41
697.398	5.47
697.723	5.39
698.047	5.43
698.372	5.45
698.696	5.47
699.02	5.4
699.345	5.37
699.669	5.37
699.993	5.37
700.318	5.43
700.642	5.4
700.966	5.36
701.29	5.49
701.614	5.5
701.938	5.58
702.262	5.65
702.586	5.66
702.91	5.59
703.234	5.71
703.557	5.82
703.881	5.79
704.205	5.69
704.529	5.76
704.852	5.86
705.176	5.86
705.499	5.86
705.823	5.86
706.146	5.98
706.47	6
706.793	5.96
707.117	5.98
707.44	5.93
707.763	6.01
708.086	5.91
708.409	5.93
708.733	6
709.056	5.94
709.379	6.08
709.702	6.15
710.025	5.94
710.348	5.9
710.671	5.86
710.993	5.96
711.316	6.02
711.639	5.95
711.962	5.93
712.284	5.94
712.607	6.03
712.93	6.06
713.252	6.01
713.575	5.97
713.897	5.88
714.22	5.88
714.542	5.92
714.864	5.89
715.187	5.9
715.509	5.88
715.831	5.93
716.153	5.83
716.475	5.86
716.798	6.12
717.12	5.98
717.442	6.13
717.764	6.12
718.085	5.93
718.407	5.9
718.729	5.88
719.051	5.94
719.373	5.84
719.695	5.8
720.016	5.86
720.338	5.92
720.659	6.01
720.981	6.05
721.302	5.96
721.624	6.09
721.945	6.11
722.267	5.94
722.588	5.81
722.909	5.78
723.231	5.68
723.552	5.65
723.873	5.84
724.194	5.64
724.515	5.66
724.836	5.87
725.157	6.13
725.478	6.01
725.799	6
726.12	6.11
726.441	6.09
726.762	6.06
727.083	6.1
727.403	6.07
727.724	6
728.045	6.18
728.365	6
728.686	5.97
729.006	6.14
729.327	6.16
729.647	6.2
729.967	6.23
730.288	6.11
730.608	5.99
730.928	6.1
731.249	5.91
731.569	5.98
731.889	5.81
732.209	5.97
732.529	6.02
732.849	6.09
733.169	6.14
733.489	6.23
733.809	6.18
734.129	6.27
734.448	6.37
734.768	6.29
735.088	6.4
735.408	6.6
735.727	6.64
736.047	6.81
736.366	6.79
736.686	6.86
737.005	6.96
737.325	7.04
737.644	7.03
737.963	7.19
738.283	7.14
738.602	7.14
738.921	7.13
739.24	7.07
739.56	7
739.879	6.9
740.198	7.03
740.517	7.13
740.836	7.28
741.155	7.33
741.473	7.46
741.792	7.5
742.111	7.28
742.43	7.31
742.748	7.24
743.067	7.13
743.386	7.19
743.704	6.97
744.023	7.03
744.341	7.06
744.66	7.17
744.978	7.1
745.297	7.04
745.615	7.16
745.933	7.19
746.252	7.27
746.57	7.27
746.888	7.05
747.206	6.79
747.524	6.54
747.842	6.57
748.16	6.61
748.478	6.7
748.796	7
749.114	6.92
749.432	6.88
749.749	6.9
750.067	6.63
750.385	6.74
750.703	6.72
751.02	6.73
751.338	6.57
751.655	6.58
751.973	6.81
752.29	6.91
752.608	6.79
752.925	6.92
753.242	7.06
753.56	7.1
753.877	7.4
754.194	7.67
754.511	7.58
754.828	7.18
755.145	7.03
755.462	6.97
755.779	6.96
756.096	6.81
756.413	6.75
756.73	6.96
757.047	6.87
757.364	7.1
757.68	7.27
757.997	7.45
758.314	7.59
758.63	7.33
758.947	7.26
759.264	7.35
759.58	7.1
759.896	7.32
760.213	7.38
760.529	7.45
760.846	7.27
761.162	7.32
761.478	7.45
761.794	7.49
762.11	7.3
762.426	7.22
762.743	7.5
763.059	7.71
763.375	7.87
763.69	7.91
764.006	7.86
764.322	7.71
764.638	7.75
764.954	7.8
765.27	7.98
765.585	7.85
765.901	7.87
766.216	7.9
766.532	7.72
766.848	7.46
767.163	7.51
767.478	7.5
767.794	7.29
768.109	7.24
768.424	7.27
768.74	7.44
769.055	7.65
769.37	7.53
769.685	7.35
770	7.51
770.315	7.23
770.63	6.88
770.945	6.86
771.26	6.62
771.575	6.29
771.89	6.14
772.205	6.12
772.52	6.15
772.834	5.95
773.149	5.96
773.464	6.25
773.778	6.02
774.093	5.88
774.407	6.09
774.722	6.08
775.036	6.34
775.351	6.45
775.665	6.42
775.979	6.24
776.293	6.32
776.608	6.02
776.922	6.35
777.236	6.73
777.55	6.66
777.864	6.97
778.178	7.38
778.492	7.56
778.806	7.63
779.12	7.46
779.434	7.72
779.747	7.5
780.061	7.34
780.375	7.5
780.689	7.43
781.002	7.65
781.316	7.83
781.629	7.73
781.943	7.44
782.256	7.24
782.57	7.45
782.883	7.71
783.196	7.5
783.51	7.33
783.823	7.04
784.136	7.07
784.449	6.87
784.762	6.28
785.075	6.36
785.388	6.52
785.701	6.62
786.014	6.84
786.327	7.08
786.64	7.36
786.953	7.3
787.266	7.54
787.578	7.64
787.891	7.72
788.204	7.69
788.516	7.92
788.829	7.92
789.141	7.99
789.454	8.24
789.766	8.65
790.079	9.28
790.391	9.21
790.703	9.33
791.016	9.36
791.328	9.84
791.64	9.92
791.952	9.99
792.264	9.74
792.576	9.28
792.888	9.31
793.2	9.2
793.512	9.19
793.824	9.3
794.136	9.12
794.448	9.03
794.76	8.66
795.071	8.31
795.383	8.16
795.695	7.88
796.006	7.56
796.318	7.59
796.629	7.48
796.941	7.85
797.252	8.29
797.564	8.77
797.875	8.67
798.186	8
798.497	8.11
798.809	8.27
799.12	8.73
799.431	8.96
799.742	9.18
800.053	9.09
800.364	8.98
800.675	8.6
800.986	8.74
801.297	8.89
801.608	9.24
801.918	9.01
802.229	9.18
802.54	9.31
802.851	8.97
803.161	9.04
803.472	8.98
803.782	8.8
804.093	8.37
804.403	8.57
804.714	9.17
805.024	8.71
805.334	8.76
805.645	8.44
805.955	8.54
806.265	8.95
806.575	8.69
806.885	8.49
807.195	8.57
807.505	8.33
807.815	8.61
808.125	8.58
808.435	9.88
808.745	9.79
809.055	9.79
809.365	9.71
809.674	9.57
809.984	9.25
810.294	9.06
810.603	9.03
810.913	9.57
811.222	9.83
811.532	10.01
811.841	10.47
812.151	10.97
812.46	10.14
812.769	9.89
813.079	10.36
813.388	10.69
813.697	11.44
814.006	11.07
814.315	11.09
814.624	10.79
814.933	10.07
815.242	10.08
815.551	10.29
815.86	10.66
816.169	10.14
816.478	10.67
816.786	10.75
817.095	10.55
817.404	9.92
817.712	9.21
818.021	9.39
818.33	8.98
818.638	8.95
818.947	9.78
819.255	9.92
819.563	10.01
819.872	9.84
820.18	9.57
820.488	9.67
820.796	9.58
821.105	9.54
821.413	9.62
821.721	9.48
822.029	9.42
822.337	9.37
822.645	9.64
822.953	9.55
823.26	9.53
823.568	9.61
823.876	9.65
824.184	9.85
824.491	9.82
824.799	10.02
825.107	9.94
825.414	9.94
825.722	9.96
826.029	9.86
826.337	10.07
826.644	10.1
826.951	10.16
827.259	10.25
827.566	10.26
827.873	10.01
828.18	10.12
828.488	10.21
828.795	10.35
829.102	10.27
829.409	10.83
829.716	10.79
830.023	10.73
830.329	10.8
830.636	10.76
830.943	10.63
831.25	10.44
831.557	10.16
831.863	9.83
832.17	9.09
832.476	9.07
832.783	9.09
833.089	9.02
833.396	9.53
833.702	9.51
834.009	9.7
834.315	9.97
834.621	10.25
834.928	10.45
835.234	9.95
835.54	9.6
835.846	8.71
836.152	8.66
836.458	8.58
836.764	8.41
837.07	8.13
837.376	8.18
837.682	7.82
837.988	8.28
838.293	8.31
838.599	8.74
838.905	8.19
839.211	6.95
839.516	6.86
839.822	6.57
840.127	6.39
840.433	6.22
840.738	6.3
841.044	5.78
841.349	5.01
841.654	5.35
841.959	6.18
842.265	6.81
842.57	7.3
842.875	6.68
843.18	6.95
843.485	7.64
843.79	7.53
844.095	7.47
844.4	8.47
844.705	7.51
845.01	6.97
845.315	7.53
845.619	8.29
845.924	8.96
846.229	8.43
846.533	8.48
846.838	8.78
847.142	8.71
847.447	8.32
847.751	8.1
848.056	8.41
848.36	8.51
848.664	7.23
848.969	7.45
849.273	8.5
849.577	7.44
849.881	6.2
850.185	6.94
850.489	8.31
850.794	6.85
851.097	7.32
851.401	7.96
851.705	8.97
852.009	11.14
852.313	10.37
852.617	9.7
852.92	9.29
853.224	9.23
853.528	9.07
853.831	8.08
854.135	7.88
854.438	6.86
854.742	4.97
855.045	5.39
855.349	4.77
855.652	4.56
855.955	6.7
856.259	7.16
856.562	7.42
856.865	7.95
857.168	6.55
857.471	8.2
857.774	7.87
858.077	7.21
858.38	5.45
858.683	5.59
858.986	5.68
859.289	6.2
859.592	5.83
859.894	6.39
860.197	7.3
860.5	7.27
860.802	7.6
861.105	7.74
861.407	7.27
861.71	7.87
862.012	7.93
862.315	4.08
862.617	3.48
862.919	2.88
863.222	2.2
863.524	3.06
863.826	3.01
864.128	4.09
864.43	4.16
864.732	5.57
865.034	6.49
865.336	7.04
865.638	6.66
865.94	5.88
866.242	5.13
866.544	4.14
866.846	4.9
867.147	5.62
867.449	7.94
867.751	9.93
868.052	8.45
868.354	9.58
868.655	13.05
868.957	13.26
869.258	14.88
869.56	14.04
869.861	15.18
870.162	14.56
870.463	16.73
870.765	16.53
871.066	16.88
871.367	16.13
871.668	16.17
871.969	16.65
872.27	16.68
872.571	16.58
872.872	19.47
873.173	18.54
873.473	19.17
873.774	18.66
874.075	18.59
874.376	19.59
874.676	21.03
874.977	20.39
875.277	20.79
875.578	19.23
875.878	20
876.179	19.77
876.479	20.36
876.78	17.6
877.08	19.12
877.38	17.01
877.68	17.77
877.981	17.89
878.281	17.29
878.581	19.84
