Data from BA57748_Reflection_00011.txt Node
Date: Mon Nov 18 15:55:39 EST 2019
User: vgr7
Spectrometer: USB2G7710
Scans to average: 3
Trigger mode: 4
Integration Time (sec): 2.000000E-2
Electric dark correction enabled: true
Boxcar width: 10
XAxis mode: Wavelengths
Number of Pixels in Spectrum: 2048
>>>>>Begin Spectral Data<<<<<
177.721	-21.3
178.105	197.35
178.488	7.12
178.871	-20.64
179.254	-49.49
179.636	-577.17
180.019	-96.28
180.402	159.09
180.785	121.17
181.168	96.93
181.55	-236.03
181.933	153.04
182.316	158.7
182.698	186.52
183.081	212.89
183.463	209.87
183.846	482.69
184.228	332.62
184.611	298.25
184.993	822.37
185.376	951.39
185.758	-1704.73
186.14	451.13
186.522	558.73
186.904	263.67
187.287	117.27
187.669	109.81
188.051	126.66
188.433	277.75
188.815	227.53
189.197	214.95
189.579	135.81
189.961	104.77
190.342	116.78
190.724	109.6
191.106	53.8
191.488	-359.46
191.869	450.32
192.251	-70.73
192.633	79.47
193.014	7.91
193.396	29.19
193.777	62.25
194.159	63.4
194.54	42.13
194.922	312.67
195.303	-1432.11
195.684	497.77
196.065	-288.72
196.447	3570.59
196.828	-1609.68
197.209	-1222.58
197.59	896.61
197.971	710.81
198.352	-845.95
198.733	120.87
199.114	183.97
199.495	6.03
199.876	162.91
200.257	-39.66
200.638	12.15
201.018	-169.52
201.399	-69.9
201.78	-27.44
202.16	-78.06
202.541	-26328.57
202.922	514.63
203.302	250.05
203.683	1351.31
204.063	500.89
204.444	1137.15
204.824	1476.57
205.204	1686.05
205.585	1084.33
205.965	-1856.1
206.345	-2133.16
206.725	-2789.66
207.106	-27636.84
207.486	-3006.95
207.866	3333.58
208.246	-2878.61
208.626	-3310.6
209.006	-1054.22
209.386	1580
209.766	1174.3
210.145	1144.61
210.525	2480.53
210.905	-327.11
211.285	-225.87
211.664	-234.47
212.044	-143.8
212.424	-3.61
212.803	-93.23
213.183	-38.9
213.562	3.57
213.942	3.88
214.321	-36.46
214.701	-43.12
215.08	-47.21
215.459	-41.99
215.838	-79.22
216.218	-81.01
216.597	-65.09
216.976	-82.43
217.355	-105.27
217.734	-164.69
218.113	-104.2
218.492	-96.07
218.871	-152.35
219.25	-95.42
219.629	-115.71
220.008	-132.57
220.387	-162.43
220.766	-145.88
221.144	-299.2
221.523	-320.97
221.902	-375.02
222.28	-427.89
222.659	-403.32
223.037	-232.65
223.416	-322.36
223.794	-248.61
224.173	-173.95
224.551	-154.71
224.929	-115.47
225.308	-82.17
225.686	-74.69
226.064	-63.44
226.442	-51.21
226.821	-35.59
227.199	-29.75
227.577	-26.41
227.955	-26.82
228.333	-21.32
228.711	-17.36
229.089	-9.18
229.467	-6.99
229.845	-8.07
230.222	-4.38
230.6	-2.37
230.978	-4.38
231.356	-4.42
231.733	-5.68
232.111	-3.95
232.488	-2.47
232.866	-3.4
233.243	-0.61
233.621	-0.71
233.998	-3.61
234.376	-4.83
234.753	-6.39
235.13	-7.14
235.508	-5.45
235.885	-4.04
236.262	-4.93
236.639	-3.42
237.016	-2.05
237.393	-0.85
237.77	0.74
238.147	1.54
238.524	0.72
238.901	2.65
239.278	3.52
239.655	4.5
240.032	4.2
240.409	3.53
240.785	4.37
241.162	4.4
241.539	4.73
241.915	4.95
242.292	4.96
242.668	4.92
243.045	4.97
243.421	4.75
243.798	4.3
244.174	4.53
244.551	4.17
244.927	3.86
245.303	4.22
245.679	4.21
246.056	4.09
246.432	4.28
246.808	4.01
247.184	3.59
247.56	3.51
247.936	3.46
248.312	3.7
248.688	3.61
249.064	3.29
249.44	3.16
249.815	3.15
250.191	3.09
250.567	3.22
250.943	3.12
251.318	3.26
251.694	3.46
252.069	3.22
252.445	3.18
252.82	2.93
253.196	2.76
253.571	2.42
253.947	2.42
254.322	2.4
254.697	2.2
255.073	2.58
255.448	2.28
255.823	2.23
256.198	2.05
256.573	2.31
256.948	2.64
257.323	2.94
257.698	3.16
258.073	2.99
258.448	2.89
258.823	3.02
259.198	2.83
259.573	2.77
259.948	2.65
260.322	2.75
260.697	2.81
261.072	2.58
261.446	2.74
261.821	2.71
262.195	2.81
262.57	2.64
262.944	2.55
263.319	2.66
263.693	2.7
264.067	2.83
264.442	2.63
264.816	2.56
265.19	2.48
265.564	2.31
265.938	2.52
266.313	2.8
266.687	2.71
267.061	2.81
267.435	2.85
267.809	3.12
268.183	3.15
268.556	3.23
268.93	3.43
269.304	3.24
269.678	3.22
270.051	3.07
270.425	3.19
270.799	3.07
271.172	3.14
271.546	3.14
271.919	3.01
272.293	3.1
272.666	3.14
273.04	3.09
273.413	3.07
273.787	3.06
274.16	2.87
274.533	2.89
274.906	2.8
275.279	2.89
275.653	2.96
276.026	2.91
276.399	2.78
276.772	2.81
277.145	2.86
277.518	2.96
277.891	3.07
278.263	3.08
278.636	3.24
279.009	3.23
279.382	3.37
279.755	3.39
280.127	3.41
280.5	3.4
280.872	3.47
281.245	3.37
281.617	3.39
281.99	3.43
282.362	3.45
282.735	3.44
283.107	3.28
283.479	3.21
283.852	3.18
284.224	3.3
284.596	3.3
284.968	3.4
285.34	3.3
285.713	3.26
286.085	3.26
286.457	3.14
286.829	3.04
287.201	2.94
287.572	3
287.944	2.99
288.316	2.95
288.688	2.88
289.06	2.99
289.431	3.13
289.803	3.28
290.175	3.24
290.546	3.46
290.918	3.73
291.289	3.75
291.661	3.87
292.032	3.84
292.403	3.82
292.775	3.89
293.146	3.91
293.517	3.9
293.889	4.02
294.26	4.24
294.631	4.41
295.002	4.44
295.373	4.41
295.744	4.38
296.115	4.37
296.486	4.33
296.857	4.38
297.228	4.22
297.599	3.89
297.97	4.04
298.34	3.9
298.711	3.8
299.082	3.8
299.452	3.81
299.823	3.95
300.194	3.95
300.564	3.8
300.935	3.74
301.305	3.77
301.676	3.72
302.046	3.67
302.416	3.67
302.787	3.7
303.157	3.67
303.527	3.79
303.897	3.94
304.267	4.05
304.637	4.09
305.008	4.25
305.378	4.6
305.748	4.68
306.117	4.84
306.487	4.92
306.857	4.94
307.227	5
307.597	5
307.967	5.1
308.336	5.28
308.706	5.57
309.076	5.72
309.445	5.82
309.815	5.91
310.184	5.96
310.554	5.97
310.923	6.17
311.293	6.16
311.662	6.24
312.031	6.14
312.401	6.17
312.77	6.17
313.139	6.26
313.508	6.24
313.877	6.29
314.246	6.28
314.616	6.3
314.985	6.3
315.353	6.39
315.722	6.43
316.091	6.45
316.46	6.41
316.829	6.52
317.198	6.65
317.567	6.7
317.935	6.78
318.304	7.13
318.672	7.11
319.041	7.27
319.41	7.31
319.778	7.55
320.147	7.71
320.515	7.82
320.883	7.68
321.252	7.86
321.62	7.88
321.988	8.01
322.357	8.21
322.725	8.28
323.093	8.29
323.461	8.33
323.829	8.41
324.197	8.49
324.565	8.5
324.933	8.68
325.301	8.73
325.669	8.76
326.037	8.64
326.405	8.74
326.772	8.74
327.14	9
327.508	9.09
327.875	9
328.243	9.11
328.61	9.34
328.978	9.33
329.346	9.39
329.713	9.4
330.08	9.53
330.448	9.52
330.815	9.45
331.182	9.55
331.55	9.51
331.917	9.61
332.284	9.85
332.651	9.71
333.018	9.77
333.385	9.87
333.752	9.87
334.119	9.96
334.486	10.03
334.853	9.78
335.22	9.77
335.587	9.92
335.954	9.94
336.32	9.91
336.687	9.85
337.054	9.94
337.42	10.17
337.787	10.16
338.153	10.34
338.52	10.47
338.886	10.39
339.253	10.51
339.619	10.53
339.986	10.4
340.352	10.49
340.718	10.42
341.084	10.26
341.451	10.36
341.817	10.51
342.183	10.58
342.549	10.63
342.915	10.72
343.281	10.71
343.647	10.68
344.013	10.69
344.379	10.82
344.745	10.82
345.11	10.8
345.476	10.88
345.842	10.86
346.208	10.92
346.573	11.04
346.939	11.1
347.304	11.1
347.67	11.02
348.035	10.91
348.401	11.07
348.766	11.16
349.132	11.19
349.497	11.1
349.862	11.1
350.228	11.19
350.593	11.12
350.958	11.15
351.323	11.29
351.688	11.31
352.053	11.31
352.418	11.33
352.783	11.24
353.148	11.12
353.513	11.13
353.878	11.12
354.243	11.15
354.608	11.04
354.972	11.02
355.337	11.13
355.702	11.2
356.066	11.11
356.431	11.16
356.795	11.11
357.16	11.04
357.524	10.89
357.889	10.79
358.253	10.84
358.618	10.78
358.982	10.67
359.346	10.61
359.71	10.49
360.075	10.43
360.439	10.4
360.803	10.39
361.167	10.31
361.531	10.22
361.895	10.13
362.259	10.17
362.623	10.14
362.987	10.07
363.351	10.03
363.714	9.99
364.078	9.9
364.442	9.83
364.806	9.82
365.169	9.77
365.533	9.7
365.896	9.65
366.26	9.62
366.623	9.6
366.987	9.53
367.35	9.53
367.714	9.45
368.077	9.41
368.44	9.39
368.803	9.34
369.167	9.27
369.53	9.22
369.893	9.1
370.256	9
370.619	8.9
370.982	8.8
371.345	8.77
371.708	8.71
372.071	8.67
372.434	8.57
372.797	8.62
373.159	8.57
373.522	8.47
373.885	8.45
374.247	8.36
374.61	8.34
374.973	8.23
375.335	8.09
375.698	8.04
376.06	7.92
376.423	7.84
376.785	7.82
377.147	7.77
377.51	7.65
377.872	7.56
378.234	7.47
378.596	7.39
378.958	7.32
379.321	7.3
379.683	7.23
380.045	7.19
380.407	7.12
380.769	7.06
381.13	7.01
381.492	6.9
381.854	6.79
382.216	6.7
382.578	6.68
382.939	6.67
383.301	6.59
383.663	6.52
384.024	6.48
384.386	6.42
384.747	6.37
385.109	6.36
385.47	6.31
385.832	6.26
386.193	6.22
386.554	6.14
386.916	6.06
387.277	6
387.638	5.94
387.999	5.81
388.36	5.8
388.721	5.73
389.082	5.69
389.443	5.68
389.804	5.6
390.165	5.58
390.526	5.57
390.887	5.49
391.248	5.43
391.609	5.39
391.969	5.35
392.33	5.28
392.691	5.24
393.051	5.23
393.412	5.2
393.772	5.14
394.133	5.13
394.493	5.09
394.854	5.01
395.214	4.97
395.574	4.94
395.935	4.88
396.295	4.85
396.655	4.79
397.015	4.76
397.376	4.73
397.736	4.64
398.096	4.59
398.456	4.57
398.816	4.62
399.176	4.52
399.535	4.48
399.895	4.46
400.255	4.45
400.615	4.39
400.975	4.34
401.334	4.33
401.694	4.29
402.054	4.21
402.413	4.22
402.773	4.19
403.132	4.18
403.492	4.12
403.851	4.11
404.211	4.08
404.57	4.02
404.929	4.01
405.288	3.99
405.648	3.98
406.007	3.97
406.366	3.9
406.725	3.92
407.084	3.92
407.443	3.88
407.802	3.85
408.161	3.85
408.52	3.83
408.879	3.82
409.238	3.83
409.596	3.84
409.955	3.83
410.314	3.79
410.673	3.76
411.031	3.76
411.39	3.71
411.748	3.69
412.107	3.7
412.465	3.68
412.824	3.66
413.182	3.62
413.54	3.58
413.899	3.56
414.257	3.55
414.615	3.53
414.974	3.51
415.332	3.5
415.69	3.46
416.048	3.45
416.406	3.41
416.764	3.38
417.122	3.37
417.48	3.32
417.838	3.33
418.195	3.32
418.553	3.31
418.911	3.31
419.269	3.29
419.626	3.26
419.984	3.25
420.342	3.25
420.699	3.24
421.057	3.22
421.414	3.2
421.772	3.17
422.129	3.15
422.486	3.16
422.844	3.14
423.201	3.14
423.558	3.12
423.915	3.12
424.273	3.11
424.63	3.09
424.987	3.08
425.344	3.06
425.701	3.05
426.058	3.03
426.415	3.03
426.772	3.02
427.128	3.03
427.485	3.01
427.842	2.99
428.199	2.98
428.555	2.97
428.912	2.97
429.269	2.98
429.625	2.95
429.982	2.92
430.338	2.91
430.695	2.89
431.051	2.88
431.407	2.9
431.764	2.88
432.12	2.88
432.476	2.87
432.832	2.85
433.189	2.87
433.545	2.86
433.901	2.84
434.257	2.85
434.613	2.84
434.969	2.84
435.325	2.86
435.681	2.86
436.036	2.88
436.392	2.89
436.748	2.86
437.104	2.88
437.459	2.89
437.815	2.88
438.171	2.88
438.526	2.88
438.882	2.88
439.237	2.88
439.593	2.89
439.948	2.88
440.304	2.89
440.659	2.88
441.014	2.89
441.369	2.88
441.725	2.86
442.08	2.84
442.435	2.83
442.79	2.82
443.145	2.82
443.5	2.8
443.855	2.78
444.21	2.79
444.565	2.78
444.92	2.79
445.275	2.8
445.629	2.79
445.984	2.78
446.339	2.77
446.693	2.75
447.048	2.73
447.403	2.73
447.757	2.73
448.112	2.71
448.466	2.69
448.82	2.7
449.175	2.71
449.529	2.7
449.883	2.68
450.238	2.65
450.592	2.65
450.946	2.65
451.3	2.68
451.654	2.67
452.008	2.66
452.362	2.63
452.716	2.63
453.07	2.64
453.424	2.63
453.778	2.64
454.132	2.64
454.486	2.64
454.839	2.65
455.193	2.64
455.547	2.64
455.9	2.64
456.254	2.64
456.607	2.66
456.961	2.66
457.314	2.67
457.668	2.68
458.021	2.67
458.375	2.67
458.728	2.66
459.081	2.66
459.434	2.65
459.787	2.65
460.141	2.64
460.494	2.63
460.847	2.64
461.2	2.62
461.553	2.62
461.906	2.62
462.259	2.63
462.611	2.63
462.964	2.64
463.317	2.65
463.67	2.64
464.022	2.63
464.375	2.64
464.728	2.66
465.08	2.66
465.433	2.67
465.785	2.68
466.138	2.69
466.49	2.7
466.843	2.72
467.195	2.74
467.547	2.74
467.899	2.75
468.252	2.76
468.604	2.79
468.956	2.79
469.308	2.78
469.66	2.79
470.012	2.83
470.364	2.85
470.716	2.84
471.068	2.86
471.42	2.87
471.772	2.87
472.123	2.88
472.475	2.89
472.827	2.9
473.178	2.9
473.53	2.89
473.882	2.88
474.233	2.89
474.585	2.9
474.936	2.91
475.288	2.91
475.639	2.92
475.99	2.92
476.342	2.92
476.693	2.95
477.044	2.95
477.395	2.91
477.746	2.89
478.097	2.89
478.448	2.89
478.8	2.87
479.15	2.86
479.501	2.86
479.852	2.87
480.203	2.85
480.554	2.87
480.905	2.87
481.255	2.86
481.606	2.85
481.957	2.85
482.307	2.86
482.658	2.86
483.009	2.86
483.359	2.86
483.709	2.87
484.06	2.86
484.41	2.86
484.761	2.87
485.111	2.88
485.461	2.88
485.811	2.88
486.162	2.87
486.512	2.88
486.862	2.88
487.212	2.88
487.562	2.89
487.912	2.88
488.262	2.87
488.612	2.88
488.961	2.88
489.311	2.88
489.661	2.88
490.011	2.87
490.36	2.87
490.71	2.88
491.06	2.88
491.409	2.88
491.759	2.88
492.108	2.88
492.458	2.88
492.807	2.87
493.157	2.87
493.506	2.9
493.855	2.91
494.204	2.92
494.554	2.92
494.903	2.93
495.252	2.96
495.601	2.98
495.95	2.99
496.299	3.02
496.648	3.04
496.997	3.06
497.346	3.08
497.695	3.11
498.043	3.12
498.392	3.14
498.741	3.18
499.09	3.2
499.438	3.22
499.787	3.26
500.135	3.32
500.484	3.36
500.832	3.38
501.181	3.43
501.529	3.47
501.878	3.52
502.226	3.54
502.574	3.59
502.923	3.62
503.271	3.66
503.619	3.72
503.967	3.77
504.315	3.81
504.663	3.87
505.011	3.9
505.359	3.97
505.707	4.05
506.055	4.12
506.403	4.19
506.751	4.29
507.098	4.34
507.446	4.39
507.794	4.43
508.141	4.51
508.489	4.56
508.837	4.63
509.184	4.69
509.531	4.78
509.879	4.86
510.226	4.93
510.574	5
510.921	5.08
511.268	5.16
511.616	5.25
511.963	5.32
512.31	5.42
512.657	5.51
513.004	5.59
513.351	5.66
513.698	5.75
514.045	5.84
514.392	5.96
514.739	6.08
515.086	6.22
515.432	6.3
515.779	6.4
516.126	6.53
516.473	6.63
516.819	6.76
517.166	6.87
517.512	6.96
517.859	7.09
518.205	7.19
518.552	7.3
518.898	7.42
519.245	7.55
519.591	7.66
519.937	7.79
520.283	7.93
520.629	8.07
520.976	8.23
521.322	8.39
521.668	8.56
522.014	8.73
522.36	8.9
522.706	9.11
523.052	9.34
523.398	9.57
523.743	9.83
524.089	10.07
524.435	10.3
524.781	10.54
525.126	10.76
525.472	10.98
525.817	11.16
526.163	11.32
526.509	11.51
526.854	11.66
527.199	11.83
527.545	11.99
527.89	12.16
528.235	12.33
528.581	12.48
528.926	12.67
529.271	12.84
529.616	13.03
529.961	13.2
530.306	13.38
530.651	13.57
530.996	13.76
531.341	13.97
531.686	14.19
532.031	14.43
532.376	14.66
532.721	14.9
533.065	15.14
533.41	15.42
533.755	15.68
534.099	15.96
534.444	16.21
534.788	16.49
535.133	16.75
535.477	17.03
535.822	17.34
536.166	17.64
536.51	17.97
536.855	18.31
537.199	18.68
537.543	19.08
537.887	19.46
538.231	19.84
538.576	20.23
538.92	20.61
539.264	20.94
539.608	21.3
539.951	21.61
540.295	21.94
540.639	22.25
540.983	22.54
541.327	22.83
541.671	23.13
542.014	23.4
542.358	23.67
542.701	23.96
543.045	24.21
543.389	24.48
543.732	24.77
544.075	25.04
544.419	25.32
544.762	25.59
545.105	25.88
545.449	26.17
545.792	26.47
546.135	26.84
546.478	27.21
546.821	27.54
547.165	27.91
547.508	28.28
547.851	28.62
548.194	28.97
548.536	29.35
548.879	29.76
549.222	30.12
549.565	30.54
549.908	30.87
550.25	31.28
550.593	31.65
550.936	31.97
551.278	32.4
551.621	32.78
551.963	33.15
552.306	33.56
552.648	33.95
552.991	34.32
553.333	34.59
553.675	34.87
554.017	35.18
554.36	35.5
554.702	35.78
555.044	36.13
555.386	36.38
555.728	36.66
556.07	36.88
556.412	37.18
556.754	37.47
557.096	37.79
557.438	38.05
557.78	38.33
558.121	38.66
558.463	38.88
558.805	39.16
559.147	39.43
559.488	39.61
559.83	39.84
560.171	40.1
560.513	40.32
560.854	40.66
561.196	40.9
561.537	41.08
561.878	41.33
562.22	41.5
562.561	41.73
562.902	41.98
563.243	42.27
563.584	42.48
563.925	42.63
564.266	42.83
564.607	43.04
564.948	43.26
565.289	43.42
565.63	43.63
565.971	43.82
566.312	44.03
566.653	44.22
566.993	44.43
567.334	44.61
567.675	44.8
568.015	44.87
568.356	44.99
568.696	45.27
569.037	45.4
569.377	45.57
569.718	45.79
570.058	45.94
570.398	46.03
570.739	46.2
571.079	46.4
571.419	46.55
571.759	46.66
572.099	46.8
572.439	46.95
572.779	47.09
573.119	47.2
573.459	47.29
573.799	47.43
574.139	47.5
574.479	47.61
574.819	47.75
575.158	47.88
575.498	47.98
575.838	48.01
576.177	48.1
576.517	48.23
576.856	48.35
577.196	48.48
577.535	48.63
577.875	48.72
578.214	48.81
578.553	48.94
578.893	49.09
579.232	49.12
579.571	49.25
579.91	49.42
580.25	49.53
580.589	49.69
580.928	49.79
581.267	49.93
581.606	50
581.945	50.12
582.283	50.29
582.622	50.52
582.961	50.62
583.3	50.83
583.639	50.93
583.977	51.05
584.316	51.16
584.654	51.23
584.993	51.39
585.332	51.46
585.67	51.53
586.008	51.67
586.347	51.8
586.685	51.86
587.024	51.89
587.362	51.98
587.7	52.05
588.038	52.17
588.376	52.25
588.715	52.32
589.053	52.43
589.391	52.52
589.729	52.59
590.067	52.64
590.404	52.64
590.742	52.71
591.08	52.73
591.418	52.7
591.756	52.74
592.093	52.8
592.431	52.87
592.769	52.88
593.106	52.92
593.444	52.98
593.781	53.05
594.119	53.05
594.456	53.11
594.793	53.17
595.131	53.09
595.468	53.15
595.805	53.25
596.143	53.21
596.48	53.23
596.817	53.25
597.154	53.34
597.491	53.42
597.828	53.47
598.165	53.47
598.502	53.57
598.839	53.63
599.176	53.74
599.512	53.78
599.849	53.86
600.186	53.89
600.523	53.97
600.859	53.95
601.196	53.97
601.532	53.97
601.869	53.9
602.205	53.93
602.542	53.95
602.878	53.97
603.215	54.03
603.551	54.02
603.887	54.06
604.223	54.14
604.56	54.18
604.896	54.21
605.232	54.24
605.568	54.29
605.904	54.3
606.24	54.21
606.576	54.27
606.912	54.29
607.248	54.33
607.583	54.37
607.919	54.46
608.255	54.56
608.591	54.62
608.926	54.72
609.262	54.87
609.597	54.9
609.933	54.98
610.268	55.07
610.604	55.1
610.939	55.01
611.275	54.99
611.61	54.99
611.945	54.99
612.281	55.14
612.616	55.16
612.951	55.27
613.286	55.43
613.621	55.46
613.956	55.46
614.291	55.49
614.626	55.44
614.961	55.49
615.296	55.52
615.631	55.58
615.966	55.62
616.3	55.6
616.635	55.69
616.97	55.62
617.304	55.61
617.639	55.71
617.973	55.85
618.308	55.91
618.642	55.96
618.977	56.07
619.311	56.07
619.646	56.08
619.98	56.07
620.314	56.02
620.648	56.01
620.983	56.02
621.317	55.99
621.651	56.1
621.985	56.14
622.319	56.09
622.653	56.1
622.987	56.05
623.321	56.08
623.655	56.03
623.988	55.98
624.322	55.94
624.656	56.01
624.99	56.03
625.323	56.1
625.657	56.18
625.99	56.22
626.324	56.16
626.657	56.19
626.991	56.11
627.324	56.15
627.658	56.2
627.991	56.31
628.324	56.35
628.657	56.28
628.991	56.31
629.324	56.41
629.657	56.33
629.99	56.5
630.323	56.64
630.656	56.71
630.989	56.83
631.322	56.88
631.655	56.81
631.987	56.87
632.32	56.82
632.653	56.79
632.986	56.73
633.318	56.8
633.651	56.74
633.984	56.89
634.316	56.95
634.649	56.91
634.981	56.88
635.313	56.89
635.646	56.99
635.978	56.96
636.31	57
636.643	57.18
636.975	57.15
637.307	57.08
637.639	57.07
637.971	57.14
638.303	57.17
638.635	57.23
638.967	57.24
639.299	57.34
639.631	57.33
639.963	57.34
640.295	57.3
640.626	57.31
640.958	57.23
641.29	57.17
641.621	57.27
641.953	57.3
642.285	57.49
642.616	57.6
642.948	57.57
643.279	57.62
643.61	57.6
643.942	57.64
644.273	57.67
644.604	57.72
644.936	57.68
645.267	57.72
645.598	57.77
645.929	57.65
646.26	57.66
646.591	57.69
646.922	57.73
647.253	57.79
647.584	57.76
647.915	57.88
648.245	57.96
648.576	57.92
648.907	57.87
649.238	57.73
649.568	57.65
649.899	57.67
650.229	57.64
650.56	57.7
650.89	57.62
651.221	57.61
651.551	57.7
651.882	57.67
652.212	57.69
652.542	57.57
652.872	57.74
653.203	57.63
653.533	57.59
653.863	57.58
654.193	57.6
654.523	57.81
654.853	57.67
655.183	57.61
655.513	57.65
655.843	57.67
656.172	57.71
656.502	57.65
656.832	57.66
657.162	57.6
657.491	57.5
657.821	57.47
658.15	57.51
658.48	57.4
658.809	57.32
659.139	57.27
659.468	57.33
659.798	57.17
660.127	57.22
660.456	57.21
660.785	57.22
661.115	57.29
661.444	57.27
661.773	57.3
662.102	57.25
662.431	57.23
662.76	57.27
663.089	57.23
663.418	57.18
663.747	57.17
664.076	57.21
664.404	57.21
664.733	57.26
665.062	57.17
665.39	57.15
665.719	57.33
666.048	57.4
666.376	57.41
666.705	57.52
667.033	57.49
667.362	57.52
667.69	57.44
668.018	57.4
668.347	57.44
668.675	57.47
669.003	57.46
669.331	57.44
669.659	57.45
669.987	57.45
670.315	57.54
670.643	57.53
670.971	57.59
671.299	57.65
671.627	57.64
671.955	57.73
672.283	57.76
672.61	57.66
672.938	57.61
673.266	57.49
673.593	57.54
673.921	57.63
674.249	57.66
674.576	57.7
674.904	57.62
675.231	57.37
675.558	57.54
675.886	57.65
676.213	57.81
676.54	57.83
676.867	57.87
677.195	57.89
677.522	57.8
677.849	57.79
678.176	57.64
678.503	57.66
678.83	57.64
679.157	57.74
679.484	57.75
679.81	57.77
680.137	57.88
680.464	57.79
680.791	57.86
681.117	57.78
681.444	57.81
681.771	57.82
682.097	57.98
682.424	57.89
682.75	57.87
683.077	57.71
683.403	57.7
683.729	57.7
684.056	57.72
684.382	57.93
684.708	57.99
685.034	58.16
685.36	58.04
685.686	58
686.012	57.87
686.339	57.95
686.664	58.08
686.99	57.91
687.316	57.87
687.642	57.74
687.968	57.84
688.294	57.9
688.619	57.92
688.945	58
689.271	57.98
689.596	57.86
689.922	57.94
690.247	57.91
690.573	57.92
690.898	57.79
691.224	57.61
691.549	57.44
691.874	57.35
692.2	57.51
692.525	57.53
692.85	57.56
693.175	57.61
693.5	57.34
693.825	57.51
694.15	57.58
694.475	57.59
694.8	57.59
695.125	57.53
695.45	57.43
695.775	57.43
696.099	57.37
696.424	57.55
696.749	57.48
697.073	57.36
697.398	57.32
697.723	57.27
698.047	57.38
698.372	57.52
698.696	57.45
699.02	57.55
699.345	57.5
699.669	57.46
699.993	57.34
700.318	57.46
700.642	57.38
700.966	57.4
701.29	57.24
701.614	57.28
701.938	57.32
702.262	57.45
702.586	57.25
702.91	57.25
703.234	57.12
703.557	57.15
703.881	57.27
704.205	57.23
704.529	57.39
704.852	57.38
705.176	57.21
705.499	57.42
705.823	57.32
706.146	57.53
706.47	57.63
706.793	57.79
707.117	57.8
707.44	57.85
707.763	57.85
708.086	57.99
708.409	57.92
708.733	57.92
709.056	57.87
709.379	58.1
709.702	58.17
710.025	58.15
710.348	58.17
710.671	58.22
710.993	58.1
711.316	58.13
711.639	58.24
711.962	58.21
712.284	58.21
712.607	57.98
712.93	57.95
713.252	57.91
713.575	57.76
713.897	57.8
714.22	57.69
714.542	57.75
714.864	57.79
715.187	57.75
715.509	57.72
715.831	57.63
716.153	57.48
716.475	57.46
716.798	57.52
717.12	57.54
717.442	57.44
717.764	57.68
718.085	57.63
718.407	57.46
718.729	57.6
719.051	57.67
719.373	57.87
719.695	57.82
720.016	57.94
720.338	58.26
720.659	58.06
720.981	58.32
721.302	58.24
721.624	58.28
721.945	58.33
722.267	58.14
722.588	58.18
722.909	58.34
723.231	58.33
723.552	58.28
723.873	58.16
724.194	58.22
724.515	58.2
724.836	58.34
725.157	58.36
725.478	58.26
725.799	57.95
726.12	57.89
726.441	57.63
726.762	57.43
727.083	57.15
727.403	57.21
727.724	57.19
728.045	57.41
728.365	57.57
728.686	57.53
729.006	57.73
729.327	57.56
729.647	57.47
729.967	57.58
730.288	57.77
730.608	57.75
730.928	57.59
731.249	57.51
731.569	57.31
731.889	57.18
732.209	57.4
732.529	57.61
732.849	57.56
733.169	57.72
733.489	57.74
733.809	57.8
734.129	57.9
734.448	57.98
734.768	57.75
735.088	57.52
735.408	57.66
735.727	57.63
736.047	58
736.366	58.02
736.686	58.21
737.005	58.21
737.325	58.44
737.644	58.65
737.963	58.82
738.283	58.85
738.602	59.14
738.921	59.14
739.24	59.05
739.56	59.13
739.879	59.16
740.198	59.45
740.517	59.35
740.836	59.19
741.155	58.9
741.473	58.98
741.792	59.01
742.111	58.84
742.43	58.91
742.748	58.54
743.067	58.55
743.386	58.19
743.704	58.16
744.023	57.98
744.341	57.78
744.66	57.66
744.978	57.85
745.297	57.61
745.615	57.45
745.933	57.37
746.252	57.35
746.57	57.1
746.888	57.03
747.206	57.06
747.524	57.12
747.842	57.21
748.16	57.17
748.478	57.2
748.796	57.22
749.114	57.4
749.432	57.55
749.749	57.57
750.067	57.54
750.385	57.4
750.703	57.66
751.02	57.86
751.338	58.09
751.655	58.01
751.973	58.21
752.29	58.01
752.608	57.85
752.925	57.52
753.242	57.75
753.56	57.68
753.877	57.7
754.194	57.51
754.511	57.53
754.828	57.52
755.145	57.36
755.462	57.39
755.779	56.84
756.096	57.04
756.413	57.05
756.73	56.85
757.047	56.59
757.364	56.39
757.68	56.19
757.997	55.86
758.314	55.81
758.63	55.64
758.947	55.74
759.264	55.67
759.58	56.23
759.896	56.15
760.213	55.97
760.529	55.84
760.846	55.93
761.162	55.73
761.478	55.81
761.794	55.92
762.11	55.91
762.426	56.07
762.743	55.88
763.059	55.85
763.375	55.77
763.69	56.01
764.006	55.99
764.322	56.21
764.638	56.39
764.954	56.35
765.27	56.48
765.585	56.62
765.901	56.79
766.216	56.84
766.532	56.68
766.848	56.58
767.163	56.83
767.478	56.91
767.794	57.15
768.109	57.19
768.424	57.27
768.74	57.46
769.055	57.46
769.37	58.01
769.685	57.81
770	57.98
770.315	58.09
770.63	58.17
770.945	58.14
771.26	58.22
771.575	58.42
771.89	58.48
772.205	58.68
772.52	59.12
772.834	58.99
773.149	59.22
773.464	59.72
773.778	59.59
774.093	59.74
774.407	59.52
774.722	59.57
775.036	59.48
775.351	59.49
775.665	59.55
775.979	59.02
776.293	59.3
776.608	59.68
776.922	59.65
777.236	59.31
777.55	59.26
777.864	59.58
778.178	59.65
778.492	59.55
778.806	58.8
779.12	58.52
779.434	58.54
779.747	58.76
780.061	58.34
780.375	58.41
780.689	58.52
781.002	58.84
781.316	59
781.629	59
781.943	58.93
782.256	59.04
782.57	58.9
782.883	59.36
783.196	59.91
783.51	59.69
783.823	60.2
784.136	60.56
784.449	60.19
784.762	59.87
785.075	59.59
785.388	60.12
785.701	60.12
786.014	59.58
786.327	59.43
786.64	59.59
786.953	59.11
787.266	58.86
787.578	58.81
787.891	58.14
788.204	58.37
788.516	58.53
788.829	58.32
789.141	58.62
789.454	58.05
789.766	57.75
790.079	57.27
790.391	56.68
790.703	56.22
791.016	56.01
791.328	56.11
791.64	56.4
791.952	56.46
792.264	55.99
792.576	56.42
792.888	56.45
793.2	56.93
793.512	57.37
793.824	57.49
794.136	57.34
794.448	57.41
794.76	57.39
795.071	56.89
795.383	57.07
795.695	56.62
796.006	57
796.318	56.56
796.629	57
796.941	57.67
797.252	58.06
797.564	57.87
797.875	57.35
798.186	56.83
798.497	56.92
798.809	57.35
799.12	57.63
799.431	57.62
799.742	57.06
800.053	57.15
800.364	57.09
800.675	56.75
800.986	57.07
801.297	56.26
801.608	56.33
801.918	55.75
802.229	56.05
802.54	56.06
802.851	56.6
803.161	56.76
803.472	56.44
803.782	55.99
804.093	55.85
804.403	55.97
804.714	56.88
805.024	56.61
805.334	56.68
805.645	56.59
805.955	56.39
806.265	56.47
806.575	56.37
806.885	56.1
807.195	56.94
807.505	57.3
807.815	57.94
808.125	58.44
808.435	58.79
808.745	59.07
809.055	58.57
809.365	58.18
809.674	58.08
809.984	58.39
810.294	58.57
810.603	59.12
810.913	60.24
811.222	59.72
811.532	59.45
811.841	59.65
812.151	59.38
812.46	60.08
812.769	59.98
813.079	59.63
813.388	59.94
813.697	59.89
814.006	59.53
814.315	59.45
814.624	59.07
814.933	59.73
815.242	59.22
815.551	59.35
815.86	59.2
816.169	58.89
816.478	58.68
816.786	58.58
817.095	57.85
817.404	57.81
817.712	58.03
818.021	57.95
818.33	58.04
818.638	57.97
818.947	57.07
819.255	57.31
819.563	57.65
819.872	57.45
820.18	56.88
820.488	56.57
820.796	56.65
821.105	56.32
821.413	56.17
821.721	55.97
822.029	55.87
822.337	55.94
822.645	56.2
822.953	56.09
823.26	56.21
823.568	56.29
823.876	56.12
824.184	56.08
824.491	56.13
824.799	55.99
825.107	56.01
825.414	56.15
825.722	55.91
826.029	55.72
826.337	55.87
826.644	56
826.951	56.15
827.259	56.1
827.566	56.5
827.873	56.32
828.18	56.78
828.488	56.77
828.795	56.8
829.102	56.86
829.409	57.29
829.716	56.82
830.023	57.05
830.329	56.78
830.636	56.82
830.943	56.55
831.25	56.68
831.557	56.05
831.863	56.12
832.17	56.54
832.476	56.42
832.783	56.04
833.089	56.14
833.396	56.05
833.702	56.45
834.009	55.91
834.315	56.52
834.621	55.93
834.928	56.08
835.234	56.13
835.54	55.87
835.846	55.36
836.152	55.47
836.458	55.43
836.764	55.75
837.07	55.59
837.376	55.71
837.682	55.09
837.988	55.41
838.293	55.12
838.599	54.67
838.905	54.63
839.211	54.48
839.516	54.51
839.822	55.16
840.127	54.63
840.433	54.91
840.738	53.98
841.044	53.76
841.349	54.35
841.654	54.29
841.959	53.69
842.265	54.56
842.57	55.6
842.875	55.63
843.18	56.76
843.485	57.04
843.79	56.76
844.095	57.62
844.4	58.51
844.705	58.47
845.01	58.94
845.315	59.33
845.619	60.58
845.924	59.56
846.229	58.82
846.533	57.14
846.838	56.41
847.142	56.91
847.447	56.4
847.751	55.84
848.056	55.43
848.36	55.31
848.664	55.02
848.969	54
849.273	52.07
849.577	50.93
849.881	51.22
850.185	52.2
850.489	52.45
850.794	51.62
851.097	52.66
851.401	54.4
851.705	56.73
852.009	55.41
852.313	55.2
852.617	56.66
852.92	58.38
853.224	58.68
853.528	60.93
853.831	61.65
854.135	61.67
854.438	60.83
854.742	59.43
855.045	59.04
855.349	58.98
855.652	59.94
855.955	59.23
856.259	58.87
856.562	57.63
856.865	58.66
857.168	58.02
857.471	58.04
857.774	57.65
858.077	54.73
858.38	54.87
858.683	55.41
858.986	54.36
859.289	55.11
859.592	57.09
859.894	55.94
860.197	56.66
860.5	55.61
860.802	54.94
861.105	57.68
861.407	58.23
861.71	60.73
862.012	59.08
862.315	58.54
862.617	59.02
862.919	60.72
863.222	60.98
863.524	60.57
863.826	59.53
864.128	56.76
864.43	60.32
864.732	60.18
865.034	61.82
865.336	60.05
865.638	58.37
865.94	57.62
866.242	58.35
866.544	56.81
866.846	59.15
867.147	61.91
867.449	62.93
867.751	60.88
868.052	59.5
868.354	61.56
868.655	63.79
868.957	63.48
869.258	62.46
869.56	60.57
869.861	63.57
870.162	63.83
870.463	65.61
870.765	62.8
871.066	63.64
871.367	60.83
871.668	60.1
871.969	61.01
872.27	60.52
872.571	58.55
872.872	59.46
873.173	58.37
873.473	58.68
873.774	55.59
874.075	57.74
874.376	57.26
874.676	58.77
874.977	59.06
875.277	57.18
875.578	57.7
875.878	58.14
876.179	57.01
876.479	57.4
876.78	56.51
877.08	56.9
877.38	55.84
877.68	58.01
877.981	59.3
878.281	59.16
878.581	58.95
