Data from BA57712_Reflection_00002.txt Node
Date: Mon Nov 18 15:19:11 EST 2019
User: vgr7
Spectrometer: USB2G7710
Scans to average: 3
Trigger mode: 4
Integration Time (sec): 2.000000E-2
Electric dark correction enabled: true
Boxcar width: 10
XAxis mode: Wavelengths
Number of Pixels in Spectrum: 2048
>>>>>Begin Spectral Data<<<<<
177.721	-130.94
178.105	-86.81
178.488	3.97
178.871	-48.81
179.254	1.48
179.636	-128.07
180.019	-32.01
180.402	50
180.785	-82.89
181.168	2516.67
181.55	86.75
181.933	88.79
182.316	69.81
182.698	85.36
183.081	105.93
183.463	79.77
183.846	57.08
184.228	58.93
184.611	84.73
184.993	52.72
185.376	74.12
185.758	65.18
186.14	57.37
186.522	61.49
186.904	43.29
187.287	104.06
187.669	93.03
188.051	195.24
188.433	150.25
188.815	56.04
189.197	60.4
189.579	-124
189.961	-44.4
190.342	27.71
190.724	84.19
191.106	100
191.488	37.75
191.869	44.37
192.251	40.66
192.633	33.6
193.014	42.2
193.396	27.77
193.777	6.63
194.159	-23.94
194.54	-11.75
194.922	-22.51
195.303	-7.67
195.684	26.3
196.065	48.3
196.447	22.05
196.828	2.08
197.209	2.19
197.59	14.32
197.971	12.95
198.352	16.06
198.733	-5.99
199.114	-4.51
199.495	-14.39
199.876	-13.33
200.257	-7.28
200.638	0.3
201.018	-8.95
201.399	-3.63
201.78	5.04
202.16	5.31
202.541	7.04
202.922	-2.48
203.302	-0.99
203.683	-23.82
204.063	-44.26
204.444	-53.09
204.824	-38.92
205.204	-38.36
205.585	-30.13
205.965	-39.35
206.345	-61.82
206.725	-43.51
207.106	-98.2
207.486	-225.58
207.866	70.5
208.246	24.67
208.626	36.79
209.006	30.16
209.386	43.86
209.766	61.69
210.145	21.33
210.525	117.09
210.905	109.85
211.285	41.82
211.664	19.19
212.044	-14.29
212.424	-68.22
212.803	65.81
213.183	15.34
213.562	83.47
213.942	100
214.321	347.62
214.701	75.51
215.08	28.97
215.459	22.14
215.838	14.49
216.218	11.79
216.597	8.48
216.976	6.58
217.355	5.68
217.734	6.43
218.113	13.15
218.492	50.72
218.871	39.96
219.25	44.1
219.629	50.21
220.008	64.63
220.387	52.34
220.766	41.21
221.144	40.95
221.523	40.7
221.902	24.62
222.28	12.05
222.659	5.57
223.037	12.22
223.416	13.67
223.794	19.13
224.173	10.23
224.551	24.42
224.929	22.38
225.308	18.12
225.686	20.89
226.064	18.19
226.442	4.79
226.821	7.99
227.199	2.63
227.577	-0.45
227.955	-3.94
228.333	-0.33
228.711	3.08
229.089	3.38
229.467	0.75
229.845	1.64
230.222	1.42
230.6	3.08
230.978	2.11
231.356	4.2
231.733	2.91
232.111	3.6
232.488	1.45
232.866	1.66
233.243	3.34
233.621	1.81
233.998	1.91
234.376	1.43
234.753	2.5
235.13	3.65
235.508	5.13
235.885	6.91
236.262	3.99
236.639	3.57
237.016	2.12
237.393	4.51
237.77	5.18
238.147	6.15
238.524	5.9
238.901	5.89
239.278	6.12
239.655	6.66
240.032	6.64
240.409	6.47
240.785	6.05
241.162	5.76
241.539	5.57
241.915	5.63
242.292	5.82
242.668	5.55
243.045	5.62
243.421	5.46
243.798	4.89
244.174	4.86
244.551	4.91
244.927	4.94
245.303	4.72
245.679	4.83
246.056	4.75
246.432	4.79
246.808	5.02
247.184	4.85
247.56	4.61
247.936	4.55
248.312	4.59
248.688	4.8
249.064	4.59
249.44	4.65
249.815	4.49
250.191	4.55
250.567	4.61
250.943	4.23
251.318	4.36
251.694	4.52
252.069	4.82
252.445	4.76
252.82	4.97
253.196	4.94
253.571	4.76
253.947	4.71
254.322	4.84
254.697	4.64
255.073	4.56
255.448	4.42
255.823	4.38
256.198	4.37
256.573	4.3
256.948	4.56
257.323	4.67
257.698	4.74
258.073	4.82
258.448	4.71
258.823	4.9
259.198	4.8
259.573	4.8
259.948	4.61
260.322	4.67
260.697	4.82
261.072	4.81
261.446	4.72
261.821	4.63
262.195	4.56
262.57	4.51
262.944	4.43
263.319	4.5
263.693	4.48
264.067	4.5
264.442	4.64
264.816	4.67
265.19	4.59
265.564	4.59
265.938	4.37
266.313	4.39
266.687	4.24
267.061	4.36
267.435	4.55
267.809	4.69
268.183	4.54
268.556	4.33
268.93	4.41
269.304	4.48
269.678	4.56
270.051	4.51
270.425	4.45
270.799	4.43
271.172	4.66
271.546	4.79
271.919	4.9
272.293	4.73
272.666	4.7
273.04	4.66
273.413	4.64
273.787	4.85
274.16	4.86
274.533	4.99
274.906	4.98
275.279	4.77
275.653	4.83
276.026	4.71
276.399	4.71
276.772	4.64
277.145	4.56
277.518	4.46
277.891	4.43
278.263	4.57
278.636	4.78
279.009	4.6
279.382	4.66
279.755	4.49
280.127	4.64
280.5	4.58
280.872	4.79
281.245	4.69
281.617	4.62
281.99	4.74
282.362	4.84
282.735	4.64
283.107	4.83
283.479	4.86
283.852	4.91
284.224	4.92
284.596	4.79
284.968	4.86
285.34	4.99
285.713	4.98
286.085	5.12
286.457	4.96
286.829	5.03
287.201	4.99
287.572	5.02
287.944	4.94
288.316	4.95
288.688	4.73
289.06	4.68
289.431	4.68
289.803	4.48
290.175	4.45
290.546	4.63
290.918	4.52
291.289	4.33
291.661	4.48
292.032	4.55
292.403	4.72
292.775	4.84
293.146	4.73
293.517	4.82
293.889	4.78
294.26	4.83
294.631	4.76
295.002	4.73
295.373	4.68
295.744	4.74
296.115	4.81
296.486	4.86
296.857	4.99
297.228	4.91
297.599	4.98
297.97	4.91
298.34	4.86
298.711	4.93
299.082	5.07
299.452	5.04
299.823	5.21
300.194	5.15
300.564	4.9
300.935	4.91
301.305	4.84
301.676	4.79
302.046	4.86
302.416	4.91
302.787	4.89
303.157	4.95
303.527	4.88
303.897	4.81
304.267	4.82
304.637	4.86
305.008	5.09
305.378	5.17
305.748	5.36
306.117	5.24
306.487	5.29
306.857	5.31
307.227	5.28
307.597	5.25
307.967	5.21
308.336	5.49
308.706	5.54
309.076	5.53
309.445	5.48
309.815	5.49
310.184	5.43
310.554	5.48
310.923	5.46
311.293	5.48
311.662	5.44
312.031	5.45
312.401	5.49
312.77	5.51
313.139	5.62
313.508	5.46
313.877	5.57
314.246	5.51
314.616	5.45
314.985	5.49
315.353	5.15
315.722	5.3
316.091	5.13
316.46	5.11
316.829	5.12
317.198	5.1
317.567	5.07
317.935	5.15
318.304	4.97
318.672	5.02
319.041	5.04
319.41	5
319.778	5.1
320.147	4.88
320.515	4.7
320.883	4.33
321.252	4.38
321.62	4.36
321.988	4.32
322.357	4.34
322.725	4.41
323.093	4.68
323.461	4.59
323.829	4.75
324.197	4.83
324.565	4.94
324.933	4.97
325.301	5.01
325.669	4.96
326.037	5.12
326.405	5.09
326.772	5.14
327.14	5.27
327.508	5.26
327.875	5.33
328.243	5.37
328.61	5.52
328.978	5.58
329.346	5.68
329.713	5.64
330.08	5.69
330.448	5.53
330.815	5.4
331.182	5.37
331.55	5.31
331.917	5.28
332.284	5.21
332.651	5.23
333.018	5.19
333.385	5.21
333.752	5.31
334.119	5.34
334.486	5.18
334.853	5.12
335.22	4.97
335.587	5.06
335.954	4.97
336.32	4.91
336.687	4.93
337.054	4.89
337.42	4.88
337.787	4.81
338.153	4.88
338.52	4.98
338.886	4.96
339.253	4.79
339.619	4.75
339.986	4.83
340.352	4.86
340.718	4.86
341.084	4.87
341.451	4.73
341.817	4.74
342.183	4.79
342.549	4.81
342.915	5.05
343.281	4.88
343.647	4.97
344.013	5.01
344.379	4.93
344.745	4.97
345.11	4.95
345.476	5.08
345.842	5.03
346.208	4.98
346.573	5.02
346.939	5.13
347.304	5.1
347.67	4.97
348.035	4.94
348.401	4.86
348.766	4.91
349.132	4.93
349.497	4.85
349.862	4.98
350.228	4.95
350.593	4.84
350.958	4.95
351.323	4.94
351.688	4.96
352.053	4.94
352.418	4.95
352.783	5
353.148	4.93
353.513	4.96
353.878	4.99
354.243	5.08
354.608	5.12
354.972	5.11
355.337	5.22
355.702	5.26
356.066	5.4
356.431	5.34
356.795	5.4
357.16	5.44
357.524	5.31
357.889	5.32
358.253	5.29
358.618	5.29
358.982	5.23
359.346	5.19
359.71	5.15
360.075	5.09
360.439	5.13
360.803	5.11
361.167	5.12
361.531	5.05
361.895	4.99
362.259	4.95
362.623	5.02
362.987	4.99
363.351	4.97
363.714	4.96
364.078	4.95
364.442	4.93
364.806	4.87
365.169	4.92
365.533	4.91
365.896	4.89
366.26	4.91
366.623	4.95
366.987	4.98
367.35	5.02
367.714	4.99
368.077	4.96
368.44	4.91
368.803	4.87
369.167	4.86
369.53	4.85
369.893	4.89
370.256	4.89
370.619	4.88
370.982	4.8
371.345	4.76
371.708	4.82
372.071	4.78
372.434	4.82
372.797	4.84
373.159	4.81
373.522	4.87
373.885	4.83
374.247	4.85
374.61	4.82
374.973	4.79
375.335	4.81
375.698	4.82
376.06	4.85
376.423	4.89
376.785	4.97
377.147	4.99
377.51	4.96
377.872	4.95
378.234	5
378.596	5.06
378.958	5.06
379.321	5
379.683	5.02
380.045	5.05
380.407	4.99
380.769	5.03
381.13	5.01
381.492	5.04
381.854	5.08
382.216	5.09
382.578	5.12
382.939	5.07
383.301	5.09
383.663	5.07
384.024	5.06
384.386	5.04
384.747	5.05
385.109	5.07
385.47	5.06
385.832	5.04
386.193	5.04
386.554	5.01
386.916	5.03
387.277	5.04
387.638	5.06
387.999	5.08
388.36	5.09
388.721	5.08
389.082	5.05
389.443	4.99
389.804	4.99
390.165	4.99
390.526	4.99
390.887	5
391.248	5.05
391.609	5.06
391.969	5.07
392.33	5.04
392.691	5.05
393.051	5.08
393.412	5.07
393.772	5.01
394.133	5.03
394.493	5.01
394.854	5.02
395.214	5
395.574	5
395.935	4.99
396.295	4.99
396.655	4.96
397.015	4.98
397.376	4.99
397.736	4.98
398.096	5.04
398.456	5.03
398.816	5.04
399.176	5.03
399.535	4.97
399.895	4.99
400.255	4.96
400.615	4.93
400.975	4.92
401.334	4.95
401.694	4.95
402.054	4.97
402.413	4.94
402.773	4.9
403.132	4.89
403.492	4.89
403.851	4.86
404.211	4.87
404.57	4.86
404.929	4.87
405.288	4.85
405.648	4.82
406.007	4.82
406.366	4.81
406.725	4.81
407.084	4.84
407.443	4.83
407.802	4.85
408.161	4.84
408.52	4.85
408.879	4.84
409.238	4.87
409.596	4.87
409.955	4.84
410.314	4.85
410.673	4.84
411.031	4.84
411.39	4.87
411.748	4.88
412.107	4.89
412.465	4.85
412.824	4.88
413.182	4.86
413.54	4.83
413.899	4.84
414.257	4.86
414.615	4.87
414.974	4.89
415.332	4.87
415.69	4.88
416.048	4.86
416.406	4.89
416.764	4.88
417.122	4.89
417.48	4.92
417.838	4.95
418.195	4.94
418.553	4.94
418.911	4.94
419.269	4.94
419.626	4.94
419.984	4.95
420.342	4.95
420.699	4.96
421.057	5
421.414	4.98
421.772	4.96
422.129	4.96
422.486	4.97
422.844	4.98
423.201	4.98
423.558	5
423.915	4.99
424.273	4.99
424.63	4.98
424.987	4.97
425.344	4.96
425.701	4.97
426.058	4.98
426.415	4.98
426.772	4.99
427.128	4.98
427.485	4.99
427.842	4.97
428.199	4.99
428.555	4.97
428.912	4.98
429.269	5
429.625	4.98
429.982	4.95
430.338	4.95
430.695	4.94
431.051	4.91
431.407	4.93
431.764	4.91
432.12	4.92
432.476	4.93
432.832	4.94
433.189	4.95
433.545	4.96
433.901	4.95
434.257	4.94
434.613	4.95
434.969	4.94
435.325	4.96
435.681	4.97
436.036	4.96
436.392	4.95
436.748	4.94
437.104	4.95
437.459	4.96
437.815	4.96
438.171	4.99
438.526	5.01
438.882	5.02
439.237	5.02
439.593	5.04
439.948	5.02
440.304	5.01
440.659	5.02
441.014	5.02
441.369	5.02
441.725	5.01
442.08	5
442.435	5.02
442.79	5.01
443.145	5
443.5	5
443.855	5.01
444.21	5
444.565	5.01
444.92	5.03
445.275	5.02
445.629	5
445.984	4.99
446.339	4.98
446.693	4.96
447.048	4.94
447.403	4.94
447.757	4.94
448.112	4.93
448.466	4.93
448.82	4.94
449.175	4.94
449.529	4.95
449.883	4.93
450.238	4.94
450.592	4.94
450.946	4.95
451.3	4.94
451.654	4.94
452.008	4.95
452.362	4.92
452.716	4.92
453.07	4.92
453.424	4.94
453.778	4.93
454.132	4.94
454.486	4.95
454.839	4.96
455.193	4.96
455.547	4.97
455.9	4.97
456.254	4.96
456.607	4.95
456.961	4.94
457.314	4.95
457.668	4.95
458.021	4.94
458.375	4.94
458.728	4.94
459.081	4.93
459.434	4.92
459.787	4.94
460.141	4.95
460.494	4.95
460.847	4.93
461.2	4.93
461.553	4.94
461.906	4.95
462.259	4.95
462.611	4.95
462.964	4.95
463.317	4.92
463.67	4.91
464.022	4.94
464.375	4.93
464.728	4.92
465.08	4.92
465.433	4.92
465.785	4.92
466.138	4.93
466.49	4.94
466.843	4.95
467.195	4.97
467.547	4.97
467.899	4.96
468.252	4.97
468.604	4.98
468.956	4.98
469.308	4.98
469.66	4.97
470.012	4.96
470.364	4.95
470.716	4.97
471.068	4.98
471.42	4.97
471.772	5.01
472.123	5.01
472.475	5.01
472.827	5.02
473.178	5.03
473.53	5.03
473.882	5.02
474.233	5.01
474.585	4.99
474.936	4.97
475.288	4.95
475.639	4.97
475.99	4.95
476.342	4.95
476.693	4.95
477.044	4.98
477.395	4.98
477.746	4.97
478.097	4.96
478.448	4.98
478.8	4.98
479.15	4.98
479.501	5
479.852	5
480.203	5
480.554	4.99
480.905	5
481.255	5.01
481.606	5.03
481.957	5.05
482.307	5.06
482.658	5.07
483.009	5.07
483.359	5.09
483.709	5.09
484.06	5.1
484.41	5.11
484.761	5.12
485.111	5.12
485.461	5.14
485.811	5.14
486.162	5.14
486.512	5.15
486.862	5.14
487.212	5.14
487.562	5.15
487.912	5.15
488.262	5.15
488.612	5.15
488.961	5.15
489.311	5.14
489.661	5.14
490.011	5.14
490.36	5.14
490.71	5.14
491.06	5.14
491.409	5.13
491.759	5.11
492.108	5.1
492.458	5.11
492.807	5.1
493.157	5.11
493.506	5.11
493.855	5.09
494.204	5.09
494.554	5.07
494.903	5.08
495.252	5.08
495.601	5.09
495.95	5.09
496.299	5.09
496.648	5.1
496.997	5.09
497.346	5.11
497.695	5.12
498.043	5.11
498.392	5.11
498.741	5.11
499.09	5.12
499.438	5.15
499.787	5.17
500.135	5.16
500.484	5.15
500.832	5.16
501.181	5.2
501.529	5.21
501.878	5.24
502.226	5.25
502.574	5.26
502.923	5.24
503.271	5.25
503.619	5.24
503.967	5.26
504.315	5.26
504.663	5.24
505.011	5.23
505.359	5.23
505.707	5.25
506.055	5.26
506.403	5.25
506.751	5.23
507.098	5.22
507.446	5.22
507.794	5.24
508.141	5.23
508.489	5.21
508.837	5.22
509.184	5.22
509.531	5.25
509.879	5.24
510.226	5.27
510.574	5.28
510.921	5.3
511.268	5.27
511.616	5.28
511.963	5.29
512.31	5.3
512.657	5.3
513.004	5.32
513.351	5.33
513.698	5.34
514.045	5.35
514.392	5.37
514.739	5.37
515.086	5.36
515.432	5.35
515.779	5.36
516.126	5.37
516.473	5.37
516.819	5.37
517.166	5.38
517.512	5.38
517.859	5.38
518.205	5.39
518.552	5.43
518.898	5.44
519.245	5.44
519.591	5.42
519.937	5.42
520.283	5.4
520.629	5.4
520.976	5.39
521.322	5.39
521.668	5.38
522.014	5.38
522.36	5.4
522.706	5.41
523.052	5.42
523.398	5.43
523.743	5.42
524.089	5.42
524.435	5.43
524.781	5.44
525.126	5.45
525.472	5.44
525.817	5.44
526.163	5.46
526.509	5.48
526.854	5.5
527.199	5.53
527.545	5.55
527.89	5.55
528.235	5.55
528.581	5.56
528.926	5.56
529.271	5.58
529.616	5.57
529.961	5.57
530.306	5.58
530.651	5.58
530.996	5.59
531.341	5.58
531.686	5.58
532.031	5.58
532.376	5.58
532.721	5.57
533.065	5.56
533.41	5.55
533.755	5.55
534.099	5.55
534.444	5.53
534.788	5.52
535.133	5.51
535.477	5.53
535.822	5.51
536.166	5.53
536.51	5.51
536.855	5.51
537.199	5.5
537.543	5.5
537.887	5.5
538.231	5.51
538.576	5.54
538.92	5.56
539.264	5.56
539.608	5.56
539.951	5.56
540.295	5.57
540.639	5.6
540.983	5.59
541.327	5.58
541.671	5.57
542.014	5.58
542.358	5.59
542.701	5.59
543.045	5.6
543.389	5.61
543.732	5.62
544.075	5.64
544.419	5.66
544.762	5.66
545.105	5.66
545.449	5.67
545.792	5.67
546.135	5.65
546.478	5.66
546.821	5.68
547.165	5.7
547.508	5.71
547.851	5.68
548.194	5.67
548.536	5.68
548.879	5.71
549.222	5.71
549.565	5.71
549.908	5.73
550.25	5.73
550.593	5.7
550.936	5.7
551.278	5.68
551.621	5.7
551.963	5.72
552.306	5.72
552.648	5.74
552.991	5.72
553.333	5.69
553.675	5.68
554.017	5.69
554.36	5.69
554.702	5.68
555.044	5.65
555.386	5.66
555.728	5.69
556.07	5.69
556.412	5.66
556.754	5.64
557.096	5.65
557.438	5.66
557.78	5.69
558.121	5.7
558.463	5.71
558.805	5.69
559.147	5.65
559.488	5.65
559.83	5.63
560.171	5.64
560.513	5.69
560.854	5.7
561.196	5.66
561.537	5.67
561.878	5.68
562.22	5.7
562.561	5.7
562.902	5.7
563.243	5.71
563.584	5.73
563.925	5.74
564.266	5.7
564.607	5.69
564.948	5.68
565.289	5.67
565.63	5.69
565.971	5.69
566.312	5.67
566.653	5.66
566.993	5.66
567.334	5.67
567.675	5.65
568.015	5.65
568.356	5.65
568.696	5.67
569.037	5.68
569.377	5.69
569.718	5.68
570.058	5.67
570.398	5.65
570.739	5.65
571.079	5.67
571.419	5.66
571.759	5.68
572.099	5.67
572.439	5.67
572.779	5.65
573.119	5.65
573.459	5.66
573.799	5.69
574.139	5.7
574.479	5.71
574.819	5.69
575.158	5.7
575.498	5.7
575.838	5.67
576.177	5.65
576.517	5.63
576.856	5.67
577.196	5.69
577.535	5.69
577.875	5.7
578.214	5.72
578.553	5.74
578.893	5.74
579.232	5.72
579.571	5.76
579.91	5.77
580.25	5.8
580.589	5.82
580.928	5.83
581.267	5.84
581.606	5.85
581.945	5.89
582.283	5.88
582.622	5.89
582.961	5.94
583.3	5.96
583.639	6.01
583.977	6
584.316	6.02
584.654	5.98
584.993	5.97
585.332	5.96
585.67	5.94
586.008	5.91
586.347	5.95
586.685	5.9
587.024	5.89
587.362	5.85
587.7	5.86
588.038	5.84
588.376	5.84
588.715	5.82
589.053	5.83
589.391	5.87
589.729	5.92
590.067	5.9
590.404	5.89
590.742	5.85
591.08	5.87
591.418	5.88
591.756	5.91
592.093	5.94
592.431	5.9
592.769	5.92
593.106	5.88
593.444	5.85
593.781	5.87
594.119	5.9
594.456	5.88
594.793	5.85
595.131	5.84
595.468	5.85
595.805	5.89
596.143	5.87
596.48	5.87
596.817	5.84
597.154	5.84
597.491	5.85
597.828	5.86
598.165	5.84
598.502	5.83
598.839	5.85
599.176	5.82
599.512	5.86
599.849	5.85
600.186	5.88
600.523	5.92
600.859	5.95
601.196	5.94
601.532	5.96
601.869	5.97
602.205	5.98
602.542	5.96
602.878	5.93
603.215	5.93
603.551	5.94
603.887	5.94
604.223	5.93
604.56	5.93
604.896	5.98
605.232	5.99
605.568	5.99
605.904	5.97
606.24	6
606.576	6.01
606.912	6.04
607.248	6.04
607.583	6.03
607.919	6.02
608.255	6.01
608.591	6.06
608.926	6.05
609.262	6.07
609.597	6.05
609.933	6.07
610.268	6.08
610.604	6.04
610.939	6.05
611.275	6.07
611.61	6.04
611.945	6
612.281	5.99
612.616	5.97
612.951	6.01
613.286	6
613.621	6
613.956	5.99
614.291	6.04
614.626	6.01
614.961	6.01
615.296	5.99
615.631	5.97
615.966	6.03
616.3	6.05
616.635	6.07
616.97	6.07
617.304	6.06
617.639	6.08
617.973	6.06
618.308	6.09
618.642	6.09
618.977	6.09
619.311	6.11
619.646	6.14
619.98	6.08
620.314	6.09
620.648	6.09
620.983	6.06
621.317	6.04
621.651	6.07
621.985	6.12
622.319	6.15
622.653	6.14
622.987	6.11
623.321	6.08
623.655	6.08
623.988	6.11
624.322	6.09
624.656	6.1
624.99	6.06
625.323	6.02
625.657	6.06
625.99	6.02
626.324	6.02
626.657	6.02
626.991	6.05
627.324	6.07
627.658	6.05
627.991	6.01
628.324	6.01
628.657	6.03
628.991	6.01
629.324	6
629.657	6.02
629.99	6.05
630.323	6.08
630.656	6.06
630.989	6.08
631.322	6.16
631.655	6.14
631.987	6.2
632.32	6.24
632.653	6.23
632.986	6.25
633.318	6.26
633.651	6.25
633.984	6.3
634.316	6.28
634.649	6.3
634.981	6.38
635.313	6.33
635.646	6.28
635.978	6.27
636.31	6.26
636.643	6.26
636.975	6.29
637.307	6.32
637.639	6.31
637.971	6.29
638.303	6.21
638.635	6.22
638.967	6.19
639.299	6.24
639.631	6.21
639.963	6.22
640.295	6.25
640.626	6.26
640.958	6.25
641.29	6.25
641.621	6.23
641.953	6.18
642.285	6.26
642.616	6.34
642.948	6.33
643.279	6.36
643.61	6.32
643.942	6.25
644.273	6.2
644.604	6.27
644.936	6.17
645.267	6.21
645.598	6.24
645.929	6.29
646.26	6.25
646.591	6.27
646.922	6.32
647.253	6.31
647.584	6.29
647.915	6.27
648.245	6.34
648.576	6.41
648.907	6.49
649.238	6.48
649.568	6.52
649.899	6.54
650.229	6.57
650.56	6.64
650.89	6.66
651.221	6.66
651.551	6.62
651.882	6.73
652.212	6.68
652.542	6.69
652.872	6.63
653.203	6.62
653.533	6.63
653.863	6.55
654.193	6.5
654.523	6.48
654.853	6.5
655.183	6.38
655.513	6.35
655.843	6.33
656.172	6.28
656.502	6.21
656.832	6.19
657.162	6.2
657.491	6.13
657.821	6.12
658.15	6.1
658.48	6.06
658.809	6.05
659.139	6.09
659.468	6.05
659.798	6.09
660.127	6.13
660.456	6.17
660.785	6.2
661.115	6.22
661.444	6.2
661.773	6.15
662.102	6.21
662.431	6.25
662.76	6.27
663.089	6.3
663.418	6.32
663.747	6.29
664.076	6.28
664.404	6.29
664.733	6.26
665.062	6.31
665.39	6.35
665.719	6.33
666.048	6.37
666.376	6.38
666.705	6.41
667.033	6.32
667.362	6.28
667.69	6.32
668.018	6.34
668.347	6.35
668.675	6.39
669.003	6.4
669.331	6.31
669.659	6.27
669.987	6.26
670.315	6.22
670.643	6.32
670.971	6.35
671.299	6.39
671.627	6.41
671.955	6.46
672.283	6.46
672.61	6.51
672.938	6.49
673.266	6.53
673.593	6.54
673.921	6.59
674.249	6.56
674.576	6.57
674.904	6.58
675.231	6.65
675.558	6.66
675.886	6.66
676.213	6.72
676.54	6.76
676.867	6.84
677.195	6.83
677.522	6.75
677.849	6.69
678.176	6.72
678.503	6.78
678.83	6.76
679.157	6.79
679.484	6.75
679.81	6.75
680.137	6.73
680.464	6.7
680.791	6.7
681.117	6.77
681.444	6.79
681.771	6.79
682.097	6.75
682.424	6.71
682.75	6.65
683.077	6.65
683.403	6.6
683.729	6.57
684.056	6.64
684.382	6.82
684.708	6.81
685.034	6.76
685.36	6.71
685.686	6.76
686.012	6.7
686.339	6.76
686.664	6.81
686.99	6.75
687.316	6.82
687.642	6.84
687.968	6.82
688.294	6.75
688.619	6.77
688.945	6.79
689.271	6.86
689.596	6.89
689.922	6.91
690.247	6.93
690.573	6.95
690.898	6.92
691.224	6.77
691.549	6.76
691.874	6.79
692.2	6.85
692.525	6.81
692.85	6.93
693.175	6.89
693.5	6.73
693.825	6.82
694.15	6.75
694.475	6.67
694.8	6.61
695.125	6.63
695.45	6.61
695.775	6.7
696.099	6.72
696.424	6.7
696.749	6.62
697.073	6.61
697.398	6.72
697.723	6.74
698.047	6.7
698.372	6.76
698.696	6.73
699.02	6.67
699.345	6.61
699.669	6.6
699.993	6.67
700.318	6.79
700.642	6.76
700.966	6.77
701.29	6.83
701.614	6.83
701.938	6.94
702.262	7.05
702.586	6.99
702.91	6.97
703.234	7.03
703.557	7.15
703.881	7.16
704.205	7.03
704.529	6.92
704.852	7.02
705.176	6.92
705.499	6.96
705.823	6.95
706.146	6.95
706.47	7.04
706.793	7.01
707.117	6.97
707.44	6.94
707.763	7
708.086	7.03
708.409	7.15
708.733	7.06
709.056	6.94
709.379	7.02
709.702	7.06
710.025	6.99
710.348	6.92
710.671	6.96
710.993	7
711.316	7.04
711.639	7.11
711.962	7.26
712.284	7.28
712.607	7.29
712.93	7.45
713.252	7.32
713.575	7.28
713.897	7.27
714.22	7.34
714.542	7.28
714.864	7.23
715.187	7.2
715.509	7.26
715.831	7.37
716.153	7.19
716.475	7.12
716.798	7.3
717.12	7.32
717.442	7.35
717.764	7.33
718.085	7.39
718.407	7.4
718.729	7.38
719.051	7.42
719.373	7.48
719.695	7.4
720.016	7.44
720.338	7.38
720.659	7.59
720.981	7.5
721.302	7.52
721.624	7.43
721.945	7.61
722.267	7.52
722.588	7.37
722.909	7.41
723.231	7.51
723.552	7.43
723.873	7.4
724.194	7.41
724.515	7.57
724.836	7.57
725.157	7.48
725.478	7.32
725.799	7.46
726.12	7.36
726.441	7.36
726.762	7.35
727.083	7.56
727.403	7.34
727.724	7.51
728.045	7.75
728.365	7.84
728.686	7.6
729.006	7.63
729.327	7.68
729.647	7.85
729.967	7.84
730.288	8.01
730.608	8
730.928	7.93
731.249	7.74
731.569	7.86
731.889	7.94
732.209	8.06
732.529	7.95
732.849	8.16
733.169	8.15
733.489	8.13
733.809	8.08
734.129	8.17
734.448	8.24
734.768	7.99
735.088	8.1
735.408	8.11
735.727	8.16
736.047	8.23
736.366	8.35
736.686	8.39
737.005	8.23
737.325	8.29
737.644	8.3
737.963	8.47
738.283	8.36
738.602	8.27
738.921	8.26
739.24	8.31
739.56	8.14
739.879	8.02
740.198	8.26
740.517	8.21
740.836	8.23
741.155	8.12
741.473	8.19
741.792	8.11
742.111	8.2
742.43	8.2
742.748	7.97
743.067	7.83
743.386	7.78
743.704	7.78
744.023	7.83
744.341	8.1
744.66	8.13
744.978	8.05
745.297	8.25
745.615	8.38
745.933	8.48
746.252	8.64
746.57	8.62
746.888	8.41
747.206	8.21
747.524	8.15
747.842	8.12
748.16	8.22
748.478	8.45
748.796	8.66
749.114	8.7
749.432	8.83
749.749	8.86
750.067	8.77
750.385	8.79
750.703	8.85
751.02	8.63
751.338	8.22
751.655	8.14
751.973	7.99
752.29	7.87
752.608	7.7
752.925	7.69
753.242	7.99
753.56	7.91
753.877	8.06
754.194	8.06
754.511	8.24
754.828	8.11
755.145	7.69
755.462	7.47
755.779	7.62
756.096	7.55
756.413	7.66
756.73	7.7
757.047	7.82
757.364	7.64
757.68	7.63
757.997	7.74
758.314	8.27
758.63	8.34
758.947	8.21
759.264	8.14
759.58	8.17
759.896	8.21
760.213	8.32
760.529	8.51
760.846	8.5
761.162	8.34
761.478	8.34
761.794	8.57
762.11	8.53
762.426	8.43
762.743	8.36
763.059	8.34
763.375	8.51
763.69	8.35
764.006	8.46
764.322	8.5
764.638	8.79
764.954	8.62
765.27	8.64
765.585	8.8
765.901	8.96
766.216	8.81
766.532	8.78
766.848	8.69
767.163	8.7
767.478	8.71
767.794	8.63
768.109	8.64
768.424	8.57
768.74	8.73
769.055	8.65
769.37	8.96
769.685	8.91
770	8.99
770.315	9.01
770.63	9.23
770.945	9.24
771.26	8.99
771.575	8.93
771.89	8.81
772.205	8.8
772.52	8.79
772.834	8.97
773.149	9
773.464	9.24
773.778	9.14
774.093	9.11
774.407	9.06
774.722	9.32
775.036	9.38
775.351	9.17
775.665	8.95
775.979	8.46
776.293	8.26
776.608	7.64
776.922	7.94
777.236	7.73
777.55	7.74
777.864	8.01
778.178	8.11
778.492	8.25
778.806	8.13
779.12	8.2
779.434	8.1
779.747	7.91
780.061	7.74
780.375	7.76
780.689	7.76
781.002	8.24
781.316	7.88
781.629	8.25
781.943	8.36
782.256	8.46
782.57	8.89
782.883	9.17
783.196	9
783.51	8.74
783.823	8.69
784.136	8.43
784.449	8.49
784.762	8.18
785.075	8.3
785.388	8.46
785.701	8.57
786.014	8.59
786.327	8.65
786.64	8.98
786.953	9.16
787.266	9.22
787.578	8.99
787.891	9.26
788.204	8.67
788.516	8.85
788.829	8.9
789.141	8.9
789.454	8.84
789.766	9.74
790.079	9.88
790.391	9.88
790.703	10.06
791.016	9.97
791.328	10.6
791.64	10.39
791.952	10.69
792.264	10.27
792.576	10.05
792.888	10
793.2	9.76
793.512	9.64
793.824	9.94
794.136	10.11
794.448	10.37
794.76	10.47
795.071	10.22
795.383	10.54
795.695	10.37
796.006	10.49
796.318	10.21
796.629	10.2
796.941	10.35
797.252	10.89
797.564	11.2
797.875	11.16
798.186	11.3
798.497	11.3
798.809	11.55
799.12	11.66
799.431	11.94
799.742	12.35
800.053	12.39
800.364	12.27
800.675	12.18
800.986	11.44
801.297	11.66
801.608	12.04
801.918	11.83
802.229	11.91
802.54	11.78
802.851	11.5
803.161	11.52
803.472	11.33
803.782	11.21
804.093	10.86
804.403	10.37
804.714	10.41
805.024	9.83
805.334	10.36
805.645	10.54
805.955	10.59
806.265	10.42
806.575	10.26
806.885	9.75
807.195	9.62
807.505	10.08
807.815	10.28
808.125	9.53
808.435	9.44
808.745	9.58
809.055	9.47
809.365	9.4
809.674	8.79
809.984	8.56
810.294	7.96
810.603	7.8
810.913	8.21
811.222	8.4
811.532	8.44
811.841	8.01
812.151	8.6
812.46	8.75
812.769	8.17
813.079	8
813.388	8.56
813.697	8.4
814.006	8.73
814.315	8.58
814.624	9.23
814.933	9.75
815.242	9.71
815.551	9.71
815.86	10.53
816.169	10.74
816.478	11.05
816.786	10.62
817.095	10.76
817.404	10.83
817.712	10.29
818.021	10.65
818.33	10.44
818.638	9.84
818.947	9.59
819.255	9.94
819.563	9.82
819.872	9.61
820.18	9.71
820.488	9.36
820.796	9.45
821.105	9.24
821.413	9.2
821.721	9.08
822.029	9.17
822.337	9.01
822.645	9
822.953	9.09
823.26	9.23
823.568	9.24
823.876	9.27
824.184	9.28
824.491	9.17
824.799	9.16
825.107	9.16
825.414	9.16
825.722	9.17
826.029	9.15
826.337	9.35
826.644	9.41
826.951	9.43
827.259	9.23
827.566	9.29
827.873	9.36
828.18	9.5
828.488	9.53
828.795	9.55
829.102	9.71
829.409	9.79
829.716	9.93
830.023	9.95
830.329	9.52
830.636	9.65
830.943	9.63
831.25	9.52
831.557	9.57
831.863	9.53
832.17	9.09
832.476	9.39
832.783	8.94
833.089	9.08
833.396	9.48
833.702	9.53
834.009	9.62
834.315	9.35
834.621	9.53
834.928	9.84
835.234	10.14
835.54	9.81
835.846	9.42
836.152	9.02
836.458	9.28
836.764	9.32
837.07	9.38
837.376	9.16
837.682	9.49
837.988	9.46
838.293	9.1
838.599	9.28
838.905	9.32
839.211	9.2
839.516	8.9
839.822	8.35
840.127	8.61
840.433	8.86
840.738	9.31
841.044	8.99
841.349	7.77
841.654	7.54
841.959	8.08
842.265	8.38
842.57	9.36
842.875	8.67
843.18	9.88
843.485	10.52
843.79	10.91
844.095	10.86
844.4	11.91
844.705	11.75
845.01	12.6
845.315	13.02
845.619	12.53
845.924	12.44
846.229	14.14
846.533	14.67
846.838	13.59
847.142	13.25
847.447	12.45
847.751	14.24
848.056	12.73
848.36	14.37
848.664	14.78
848.969	14.52
849.273	14.59
849.577	13.47
849.881	11.84
850.185	13.66
850.489	14.25
850.794	11.83
851.097	13.31
851.401	13.23
851.705	11.76
852.009	14.73
852.313	14.81
852.617	13
852.92	13.22
853.224	13.42
853.528	13.53
853.831	12.6
854.135	10.82
854.438	13.42
854.742	12.04
855.045	12.3
855.349	12.11
855.652	11.38
855.955	10.59
856.259	11.79
856.562	11.42
856.865	10.95
857.168	10.68
857.471	10.97
857.774	12.31
858.077	14.32
858.38	14.73
858.683	15.19
858.986	17.68
859.289	16.54
859.592	18.32
859.894	18.88
860.197	20.22
860.5	19.62
860.802	16.32
861.105	16.67
861.407	15.12
861.71	13.45
862.012	14.23
862.315	16.71
862.617	15.68
862.919	14.23
863.222	13.63
863.524	14.92
863.826	13.28
864.128	12.52
864.43	10.09
864.732	6.4
865.034	6.65
865.336	4.7
865.638	5.7
865.94	3.7
866.242	3.08
866.544	5.53
866.846	7.08
867.147	8.82
867.449	7.95
867.751	7.94
868.052	9.76
868.354	9.31
868.655	9.21
868.957	9.74
869.258	9.68
869.56	10.97
869.861	12.45
870.162	14.09
870.463	14.1
870.765	15.57
871.066	18.18
871.367	18.18
871.668	17.53
871.969	14.7
872.27	14.97
872.571	12.41
872.872	10.35
873.173	9.88
873.473	10.43
873.774	10.4
874.075	11.56
874.376	10.92
874.676	11.79
874.977	10.2
875.277	11.72
875.578	13.35
875.878	11.84
876.179	10.6
876.479	10.43
876.78	8.65
877.08	7.76
877.38	6.07
877.68	4.4
877.981	3.13
878.281	7.45
878.581	9.93
