Data from BA57748_Reflection_00010.txt Node
Date: Mon Nov 18 15:55:37 EST 2019
User: vgr7
Spectrometer: USB2G7710
Scans to average: 3
Trigger mode: 4
Integration Time (sec): 2.000000E-2
Electric dark correction enabled: true
Boxcar width: 10
XAxis mode: Wavelengths
Number of Pixels in Spectrum: 2048
>>>>>Begin Spectral Data<<<<<
177.721	257.28
178.105	-572.57
178.488	-542.94
178.871	-264.83
179.254	-40.78
179.636	-411.81
180.019	-7.84
180.402	277.27
180.785	-50.68
181.168	-160.74
181.55	104.05
181.933	107.03
182.316	74.55
182.698	61.82
183.081	40.97
183.463	29.17
183.846	23.46
184.228	26.78
184.611	46.72
184.993	20.31
185.376	152.63
185.758	354.44
186.14	-53.54
186.522	-132.25
186.904	-91.13
187.287	27.93
187.669	13.47
188.051	58.11
188.433	114.93
188.815	77.35
189.197	98.98
189.579	114.85
189.961	110.49
190.342	33.86
190.724	-63.15
191.106	-8.79
191.488	-521.62
191.869	259.24
192.251	-2997.56
192.633	-413.2
193.014	-167.61
193.396	-162.85
193.777	-116.86
194.159	-105.11
194.54	-272.81
194.922	-854.75
195.303	2311.01
195.684	-1041.26
196.065	1028.78
196.447	-20429.41
196.828	10196.77
197.209	9616.13
197.59	-6018.64
197.971	-2078.38
198.352	9370.27
198.733	-516.7
199.114	-2609.92
199.495	-498.88
199.876	-696.1
200.257	-1548.04
200.638	483.18
201.018	465.24
201.399	224.29
201.78	218.14
202.16	199.13
202.541	16528.57
202.922	75.61
203.302	105.25
203.683	597.38
204.063	286.29
204.444	579.88
204.824	648.12
205.204	346.51
205.585	238.38
205.965	-421.95
206.345	-796.37
206.725	-927.59
207.106	-11847.37
207.486	-1338.5
207.866	1932.12
208.246	-1338.5
208.626	-1760.93
209.006	-548.19
209.386	816.36
209.766	784.21
210.145	1010.78
210.525	2215.04
210.905	-357.8
211.285	-200.7
211.664	-142.78
212.044	-64.96
212.424	-45.52
212.803	-144.01
213.183	-68.79
213.562	-81.39
213.942	-62.56
214.321	-48.68
214.701	-53.95
215.08	-75.37
215.459	-18.69
215.838	-28.69
216.218	-36.34
216.597	-22.02
216.976	-18.32
217.355	2.86
217.734	-1.15
218.113	8.61
218.492	4.63
218.871	-6.59
219.25	6.63
219.629	-3.76
220.008	-24.01
220.387	-16.23
220.766	-9.73
221.144	-57.96
221.523	-59.13
221.902	-71.22
222.28	-64.11
222.659	-31.91
223.037	8.81
223.416	10.73
223.794	4.02
224.173	-6.4
224.551	-10.04
224.929	-1.46
225.308	0.11
225.686	-7.96
226.064	-2.84
226.442	0.43
226.821	12.22
227.199	11.81
227.577	10.09
227.955	14.93
228.333	9.96
228.711	15.99
229.089	23.38
229.467	23.71
229.845	21.19
230.222	21.65
230.6	19.06
230.978	17.05
231.356	14.05
231.733	15.68
232.111	16.69
232.488	19.73
232.866	19.74
233.243	19.33
233.621	20.9
233.998	22.14
234.376	20.62
234.753	17.81
235.13	19.17
235.508	17.76
235.885	18.03
236.262	18.84
236.639	15.73
237.016	14.57
237.393	13.07
237.77	13.08
238.147	12.97
238.524	11.51
238.901	11.67
239.278	11.66
239.655	11.39
240.032	10.76
240.409	9.38
240.785	9.03
241.162	8.83
241.539	8.82
241.915	8.5
242.292	8.32
242.668	8.23
243.045	7.86
243.421	7.42
243.798	6.81
244.174	6.78
244.551	6.86
244.927	6.65
245.303	6.85
245.679	6.76
246.056	6.36
246.432	6.33
246.808	6.4
247.184	6.25
247.56	6.01
247.936	6.18
248.312	6.26
248.688	6.18
249.064	6.02
249.44	5.7
249.815	5.89
250.191	5.72
250.567	5.89
250.943	5.71
251.318	6.01
251.694	5.92
252.069	5.76
252.445	5.92
252.82	5.67
253.196	5.21
253.571	5.14
253.947	5.43
254.322	5.6
254.697	5.28
255.073	5.03
255.448	5.31
255.823	5.26
256.198	5.41
256.573	5.05
256.948	5.03
257.323	5.26
257.698	5.07
258.073	5
258.448	4.63
258.823	4.91
259.198	4.68
259.573	4.8
259.948	4.79
260.322	4.7
260.697	4.76
261.072	4.74
261.446	4.7
261.821	4.62
262.195	4.68
262.57	4.53
262.944	4.65
263.319	4.56
263.693	4.48
264.067	4.41
264.442	4.75
264.816	4.58
265.19	4.66
265.564	4.5
265.938	4.62
266.313	4.79
266.687	4.71
267.061	4.78
267.435	4.81
267.809	4.87
268.183	4.81
268.556	4.8
268.93	4.79
269.304	4.97
269.678	4.95
270.051	4.85
270.425	4.91
270.799	4.87
271.172	4.92
271.546	4.84
271.919	4.72
272.293	4.56
272.666	4.76
273.04	4.74
273.413	4.72
273.787	4.75
274.16	4.95
274.533	4.79
274.906	4.69
275.279	4.71
275.653	4.7
276.026	4.67
276.399	4.66
276.772	4.87
277.145	4.64
277.518	4.7
277.891	4.74
278.263	4.61
278.636	4.54
279.009	4.3
279.382	4.48
279.755	4.49
280.127	4.56
280.5	4.35
280.872	4.46
281.245	4.4
281.617	4.4
281.99	4.3
282.362	4.53
282.735	4.62
283.107	4.49
283.479	4.59
283.852	4.55
284.224	4.41
284.596	4.38
284.968	4.44
285.34	4.53
285.713	4.48
286.085	4.59
286.457	4.72
286.829	4.87
287.201	4.87
287.572	4.9
287.944	4.89
288.316	4.97
288.688	4.86
289.06	4.85
289.431	4.85
289.803	4.87
290.175	4.84
290.546	4.76
290.918	4.79
291.289	4.69
291.661	4.74
292.032	4.87
292.403	4.91
292.775	5.1
293.146	5
293.517	5.18
293.889	5.39
294.26	5.4
294.631	5.36
295.002	5.3
295.373	5.23
295.744	5.21
296.115	5.24
296.486	5.18
296.857	5.44
297.228	5.5
297.599	5.43
297.97	5.41
298.34	5.67
298.711	5.76
299.082	5.86
299.452	5.87
299.823	5.94
300.194	5.99
300.564	5.92
300.935	5.99
301.305	5.88
301.676	5.82
302.046	5.89
302.416	6.04
302.787	6.11
303.157	6.34
303.527	6.49
303.897	6.58
304.267	6.81
304.637	6.83
305.008	6.94
305.378	7.2
305.748	7.26
306.117	7.09
306.487	7
306.857	7.1
307.227	7.34
307.597	7.38
307.967	7.45
308.336	7.49
308.706	7.62
309.076	7.78
309.445	7.74
309.815	7.75
310.184	7.67
310.554	7.81
310.923	7.86
311.293	7.93
311.662	8.01
312.031	8.01
312.401	8.13
312.77	8.17
313.139	8.21
313.508	8.1
313.877	8.33
314.246	8.54
314.616	8.59
314.985	8.68
315.353	8.82
315.722	8.86
316.091	9.05
316.46	8.99
316.829	9.08
317.198	9.34
317.567	9.45
317.935	9.71
318.304	9.73
318.672	9.82
319.041	10.03
319.41	10.06
319.778	10.14
320.147	10.13
320.515	10.29
320.883	10.28
321.252	10.67
321.62	10.76
321.988	10.82
322.357	10.95
322.725	10.86
323.093	11.06
323.461	11.03
323.829	11.02
324.197	11.22
324.565	11.31
324.933	11.28
325.301	11.39
325.669	11.51
326.037	11.66
326.405	11.7
326.772	11.69
327.14	11.84
327.508	12
327.875	12.06
328.243	12.23
328.61	12.35
328.978	12.33
329.346	12.39
329.713	12.4
330.08	12.51
330.448	12.65
330.815	12.53
331.182	12.67
331.55	12.75
331.917	12.8
332.284	12.94
332.651	12.97
333.018	12.95
333.385	12.89
333.752	12.86
334.119	13.01
334.486	13.06
334.853	13.13
335.22	13.1
335.587	13.18
335.954	12.99
336.32	13.02
336.687	13.08
337.054	13.13
337.42	13.23
337.787	13.17
338.153	13.13
338.52	13.19
338.886	13.17
339.253	13.17
339.619	13.13
339.986	13.04
340.352	13.12
340.718	13.23
341.084	13.24
341.451	13.3
341.817	13.33
342.183	13.35
342.549	13.25
342.915	13.31
343.281	13.27
343.647	13.32
344.013	13.45
344.379	13.49
344.745	13.45
345.11	13.55
345.476	13.64
345.842	13.76
346.208	13.91
346.573	14.05
346.939	14.1
347.304	14.12
347.67	14.12
348.035	14.09
348.401	14.09
348.766	14.23
349.132	14.22
349.497	14.23
349.862	14.25
350.228	14.33
350.593	14.27
350.958	14.34
351.323	14.43
351.688	14.29
352.053	14.34
352.418	14.44
352.783	14.48
353.148	14.38
353.513	14.3
353.878	14.23
354.243	14.15
354.608	14.14
354.972	14.14
355.337	14.12
355.702	14.11
356.066	14.07
356.431	13.89
356.795	13.86
357.16	13.78
357.524	13.67
357.889	13.63
358.253	13.73
358.618	13.74
358.982	13.62
359.346	13.59
359.71	13.5
360.075	13.43
360.439	13.36
360.803	13.35
361.167	13.25
361.531	13.18
361.895	13.13
362.259	13.04
362.623	12.99
362.987	12.93
363.351	12.85
363.714	12.76
364.078	12.76
364.442	12.67
364.806	12.62
365.169	12.57
365.533	12.49
365.896	12.27
366.26	12.18
366.623	12.07
366.987	12.07
367.35	11.97
367.714	11.87
368.077	11.74
368.44	11.65
368.803	11.61
369.167	11.49
369.53	11.39
369.893	11.29
370.256	11.27
370.619	11.24
370.982	11.17
371.345	11.15
371.708	11.04
372.071	10.97
372.434	10.85
372.797	10.73
373.159	10.65
373.522	10.61
373.885	10.53
374.247	10.52
374.61	10.36
374.973	10.24
375.335	10.15
375.698	10.07
376.06	9.93
376.423	9.89
376.785	9.87
377.147	9.85
377.51	9.83
377.872	9.72
378.234	9.58
378.596	9.48
378.958	9.34
379.321	9.29
379.683	9.25
380.045	9.17
380.407	9.13
380.769	9.03
381.13	8.96
381.492	8.86
381.854	8.72
382.216	8.65
382.578	8.66
382.939	8.58
383.301	8.51
383.663	8.47
384.024	8.38
384.386	8.29
384.747	8.21
385.109	8.15
385.47	8.06
385.832	8.05
386.193	8.03
386.554	8
386.916	7.96
387.277	7.88
387.638	7.84
387.999	7.78
388.36	7.75
388.721	7.67
389.082	7.59
389.443	7.6
389.804	7.5
390.165	7.36
390.526	7.32
390.887	7.26
391.248	7.22
391.609	7.19
391.969	7.15
392.33	7.05
392.691	6.98
393.051	6.91
393.412	6.84
393.772	6.74
394.133	6.67
394.493	6.61
394.854	6.54
395.214	6.46
395.574	6.39
395.935	6.31
396.295	6.27
396.655	6.2
397.015	6.13
397.376	6.1
397.736	6.04
398.096	5.96
398.456	5.89
398.816	5.81
399.176	5.72
399.535	5.64
399.895	5.57
400.255	5.48
400.615	5.46
400.975	5.4
401.334	5.36
401.694	5.33
402.054	5.28
402.413	5.26
402.773	5.23
403.132	5.2
403.492	5.14
403.851	5.1
404.211	5.08
404.57	5.03
404.929	5.02
405.288	5.01
405.648	5.01
406.007	4.98
406.366	4.95
406.725	4.95
407.084	4.94
407.443	4.93
407.802	4.97
408.161	4.94
408.52	4.9
408.879	4.89
409.238	4.85
409.596	4.82
409.955	4.78
410.314	4.72
410.673	4.7
411.031	4.7
411.39	4.69
411.748	4.66
412.107	4.67
412.465	4.63
412.824	4.62
413.182	4.54
413.54	4.51
413.899	4.48
414.257	4.42
414.615	4.39
414.974	4.37
415.332	4.34
415.69	4.31
416.048	4.29
416.406	4.28
416.764	4.24
417.122	4.24
417.48	4.21
417.838	4.21
418.195	4.17
418.553	4.18
418.911	4.15
419.269	4.15
419.626	4.12
419.984	4.1
420.342	4.09
420.699	4.09
421.057	4.08
421.414	4.06
421.772	4.05
422.129	4.04
422.486	4.03
422.844	4
423.201	3.97
423.558	3.97
423.915	3.95
424.273	3.95
424.63	3.92
424.987	3.92
425.344	3.9
425.701	3.91
426.058	3.89
426.415	3.89
426.772	3.86
427.128	3.84
427.485	3.82
427.842	3.8
428.199	3.79
428.555	3.78
428.912	3.8
429.269	3.8
429.625	3.78
429.982	3.76
430.338	3.76
430.695	3.75
431.051	3.74
431.407	3.73
431.764	3.73
432.12	3.73
432.476	3.72
432.832	3.71
433.189	3.7
433.545	3.69
433.901	3.67
434.257	3.66
434.613	3.68
434.969	3.68
435.325	3.67
435.681	3.65
436.036	3.64
436.392	3.61
436.748	3.59
437.104	3.58
437.459	3.59
437.815	3.58
438.171	3.61
438.526	3.61
438.882	3.6
439.237	3.59
439.593	3.58
439.948	3.59
440.304	3.59
440.659	3.6
441.014	3.59
441.369	3.58
441.725	3.57
442.08	3.54
442.435	3.55
442.79	3.55
443.145	3.55
443.5	3.54
443.855	3.54
444.21	3.54
444.565	3.55
444.92	3.55
445.275	3.54
445.629	3.53
445.984	3.52
446.339	3.5
446.693	3.49
447.048	3.47
447.403	3.44
447.757	3.43
448.112	3.4
448.466	3.39
448.82	3.38
449.175	3.39
449.529	3.39
449.883	3.37
450.238	3.34
450.592	3.34
450.946	3.33
451.3	3.32
451.654	3.32
452.008	3.31
452.362	3.28
452.716	3.28
453.07	3.26
453.424	3.25
453.778	3.23
454.132	3.24
454.486	3.23
454.839	3.25
455.193	3.25
455.547	3.23
455.9	3.24
456.254	3.26
456.607	3.27
456.961	3.25
457.314	3.25
457.668	3.27
458.021	3.26
458.375	3.27
458.728	3.28
459.081	3.28
459.434	3.27
459.787	3.28
460.141	3.28
460.494	3.3
460.847	3.32
461.2	3.33
461.553	3.34
461.906	3.36
462.259	3.37
462.611	3.4
462.964	3.43
463.317	3.44
463.67	3.44
464.022	3.44
464.375	3.45
464.728	3.46
465.08	3.46
465.433	3.47
465.785	3.46
466.138	3.47
466.49	3.49
466.843	3.49
467.195	3.49
467.547	3.51
467.899	3.5
468.252	3.49
468.604	3.52
468.956	3.52
469.308	3.54
469.66	3.56
470.012	3.53
470.364	3.53
470.716	3.53
471.068	3.55
471.42	3.56
471.772	3.59
472.123	3.6
472.475	3.62
472.827	3.62
473.178	3.63
473.53	3.62
473.882	3.61
474.233	3.62
474.585	3.61
474.936	3.6
475.288	3.6
475.639	3.62
475.99	3.62
476.342	3.6
476.693	3.59
477.044	3.6
477.395	3.6
477.746	3.58
478.097	3.57
478.448	3.57
478.8	3.56
479.15	3.53
479.501	3.52
479.852	3.51
480.203	3.5
480.554	3.5
480.905	3.51
481.255	3.51
481.606	3.52
481.957	3.54
482.307	3.55
482.658	3.56
483.009	3.54
483.359	3.54
483.709	3.55
484.06	3.55
484.41	3.54
484.761	3.55
485.111	3.55
485.461	3.56
485.811	3.56
486.162	3.55
486.512	3.57
486.862	3.58
487.212	3.58
487.562	3.59
487.912	3.59
488.262	3.58
488.612	3.58
488.961	3.58
489.311	3.59
489.661	3.58
490.011	3.58
490.36	3.6
490.71	3.6
491.06	3.6
491.409	3.6
491.759	3.6
492.108	3.61
492.458	3.61
492.807	3.61
493.157	3.63
493.506	3.67
493.855	3.66
494.204	3.67
494.554	3.69
494.903	3.71
495.252	3.74
495.601	3.78
495.95	3.79
496.299	3.81
496.648	3.82
496.997	3.85
497.346	3.87
497.695	3.9
498.043	3.92
498.392	3.96
498.741	4
499.09	4.03
499.438	4.07
499.787	4.12
500.135	4.16
500.484	4.21
500.832	4.24
501.181	4.32
501.529	4.35
501.878	4.39
502.226	4.42
502.574	4.48
502.923	4.51
503.271	4.59
503.619	4.65
503.967	4.71
504.315	4.75
504.663	4.81
505.011	4.87
505.359	4.94
505.707	5.03
506.055	5.09
506.403	5.17
506.751	5.24
507.098	5.31
507.446	5.39
507.794	5.47
508.141	5.54
508.489	5.6
508.837	5.7
509.184	5.8
509.531	5.88
509.879	5.97
510.226	6.06
510.574	6.14
510.921	6.22
511.268	6.33
511.616	6.45
511.963	6.57
512.31	6.66
512.657	6.77
513.004	6.89
513.351	7.02
513.698	7.16
514.045	7.29
514.392	7.45
514.739	7.58
515.086	7.72
515.432	7.87
515.779	8.01
516.126	8.17
516.473	8.31
516.819	8.48
517.166	8.59
517.512	8.74
517.859	8.88
518.205	9.01
518.552	9.14
518.898	9.28
519.245	9.42
519.591	9.59
519.937	9.71
520.283	9.87
520.629	10.05
520.976	10.23
521.322	10.44
521.668	10.62
522.014	10.82
522.36	11.04
522.706	11.27
523.052	11.52
523.398	11.81
523.743	12.12
524.089	12.39
524.435	12.69
524.781	12.97
525.126	13.23
525.472	13.48
525.817	13.72
526.163	13.93
526.509	14.12
526.854	14.32
527.199	14.52
527.545	14.7
527.89	14.86
528.235	15.04
528.581	15.23
528.926	15.45
529.271	15.66
529.616	15.86
529.961	16.07
530.306	16.31
530.651	16.52
530.996	16.76
531.341	17.01
531.686	17.26
532.031	17.5
532.376	17.76
532.721	18.05
533.065	18.32
533.41	18.61
533.755	18.91
534.099	19.24
534.444	19.54
534.788	19.88
535.133	20.19
535.477	20.53
535.822	20.88
536.166	21.21
536.51	21.58
536.855	22
537.199	22.41
537.543	22.8
537.887	23.23
538.231	23.64
538.576	24.07
538.92	24.5
539.264	24.9
539.608	25.3
539.951	25.63
540.295	26.02
540.639	26.37
540.983	26.71
541.327	27.02
541.671	27.37
542.014	27.68
542.358	27.98
542.701	28.31
543.045	28.59
543.389	28.89
543.732	29.22
544.075	29.54
544.419	29.84
544.762	30.19
545.105	30.52
545.449	30.9
545.792	31.25
546.135	31.63
546.478	32.04
546.821	32.44
547.165	32.85
547.508	33.22
547.851	33.63
548.194	34.07
548.536	34.47
548.879	34.83
549.222	35.22
549.565	35.67
549.908	36.03
550.25	36.44
550.593	36.87
550.936	37.2
551.278	37.61
551.621	38.03
551.963	38.39
552.306	38.8
552.648	39.11
552.991	39.5
553.333	39.85
553.675	40.2
554.017	40.55
554.36	40.93
554.702	41.24
555.044	41.63
555.386	41.9
555.728	42.25
556.07	42.57
556.412	42.87
556.754	43.18
557.096	43.49
557.438	43.88
557.78	44.16
558.121	44.57
558.463	44.86
558.805	45.2
559.147	45.46
559.488	45.78
559.83	46.08
560.171	46.39
560.513	46.62
560.854	46.89
561.196	47.17
561.537	47.4
561.878	47.69
562.22	47.87
562.561	48.12
562.902	48.36
563.243	48.65
563.584	48.92
563.925	49.17
564.266	49.41
564.607	49.57
564.948	49.8
565.289	49.96
565.63	50.06
565.971	50.28
566.312	50.49
566.653	50.7
566.993	50.91
567.334	51.05
567.675	51.3
568.015	51.5
568.356	51.67
568.696	51.95
569.037	52.14
569.377	52.34
569.718	52.56
570.058	52.76
570.398	52.93
570.739	53.16
571.079	53.3
571.419	53.46
571.759	53.6
572.099	53.8
572.439	53.94
572.779	54.22
573.119	54.34
573.459	54.51
573.799	54.67
574.139	54.79
574.479	54.98
574.819	55.1
575.158	55.25
575.498	55.4
575.838	55.49
576.177	55.59
576.517	55.73
576.856	55.89
577.196	56.01
577.535	56.13
577.875	56.21
578.214	56.42
578.553	56.58
578.893	56.75
579.232	56.83
579.571	57.02
579.91	57.2
580.25	57.3
580.589	57.44
580.928	57.5
581.267	57.64
581.606	57.69
581.945	57.73
582.283	57.82
582.622	57.97
582.961	57.97
583.3	58.16
583.639	58.22
583.977	58.31
584.316	58.43
584.654	58.64
584.993	58.78
585.332	58.77
585.67	58.87
586.008	58.95
586.347	59.07
586.685	59.15
587.024	59.09
587.362	59.2
587.7	59.3
588.038	59.4
588.376	59.59
588.715	59.69
589.053	59.86
589.391	59.94
589.729	60.01
590.067	60.1
590.404	60.14
590.742	60.22
591.08	60.3
591.418	60.3
591.756	60.24
592.093	60.34
592.431	60.42
592.769	60.48
593.106	60.54
593.444	60.62
593.781	60.66
594.119	60.75
594.456	60.79
594.793	60.82
595.131	60.86
595.468	60.85
595.805	60.93
596.143	60.96
596.48	60.96
596.817	60.94
597.154	61.04
597.491	61.15
597.828	61.21
598.165	61.19
598.502	61.25
598.839	61.33
599.176	61.35
599.512	61.4
599.849	61.5
600.186	61.57
600.523	61.63
600.859	61.71
601.196	61.77
601.532	61.83
601.869	61.83
602.205	61.84
602.542	61.89
602.878	61.96
603.215	62.02
603.551	62.1
603.887	62.16
604.223	62.21
604.56	62.23
604.896	62.21
605.232	62.3
605.568	62.4
605.904	62.44
606.24	62.42
606.576	62.44
606.912	62.41
607.248	62.49
607.583	62.51
607.919	62.51
608.255	62.57
608.591	62.59
608.926	62.64
609.262	62.71
609.597	62.75
609.933	62.8
610.268	62.89
610.604	62.96
610.939	63
611.275	63.02
611.61	62.98
611.945	63.03
612.281	63.09
612.616	63.06
612.951	63.11
613.286	63.23
613.621	63.3
613.956	63.32
614.291	63.3
614.626	63.31
614.961	63.37
615.296	63.37
615.631	63.42
615.966	63.54
616.3	63.55
616.635	63.59
616.97	63.48
617.304	63.43
617.639	63.47
617.973	63.5
618.308	63.52
618.642	63.61
618.977	63.75
619.311	63.73
619.646	63.82
619.98	63.82
620.314	63.87
620.648	63.94
620.983	64.09
621.317	64.15
621.651	64.27
621.985	64.33
622.319	64.37
622.653	64.38
622.987	64.46
623.321	64.51
623.655	64.45
623.988	64.42
624.322	64.4
624.656	64.41
624.99	64.43
625.323	64.45
625.657	64.54
625.99	64.58
626.324	64.64
626.657	64.68
626.991	64.73
627.324	64.67
627.658	64.65
627.991	64.65
628.324	64.66
628.657	64.59
628.991	64.54
629.324	64.59
629.657	64.64
629.99	64.63
630.323	64.77
630.656	64.81
630.989	64.95
631.322	65
631.655	64.98
631.987	65.01
632.32	65.04
632.653	65.03
632.986	64.95
633.318	64.98
633.651	64.94
633.984	64.92
634.316	64.92
634.649	64.92
634.981	64.87
635.313	64.91
635.646	64.9
635.978	64.89
636.31	64.86
636.643	64.88
636.975	64.83
637.307	64.78
637.639	64.76
637.971	64.81
638.303	64.87
638.635	64.94
638.967	64.98
639.299	65.05
639.631	65.06
639.963	65.08
640.295	64.95
640.626	64.97
640.958	65.01
641.29	65.26
641.621	65.28
641.953	65.24
642.285	65.3
642.616	65.47
642.948	65.58
643.279	65.53
643.61	65.55
643.942	65.64
644.273	65.53
644.604	65.61
644.936	65.59
645.267	65.61
645.598	65.65
645.929	65.65
646.26	65.62
646.591	65.64
646.922	65.75
647.253	65.73
647.584	65.63
647.915	65.6
648.245	65.42
648.576	65.46
648.907	65.44
649.238	65.37
649.568	65.37
649.899	65.42
650.229	65.59
650.56	65.62
650.89	65.61
651.221	65.71
651.551	65.82
651.882	65.82
652.212	65.83
652.542	65.72
652.872	65.83
653.203	65.86
653.533	65.84
653.863	65.77
654.193	65.84
654.523	65.91
654.853	65.86
655.183	65.85
655.513	65.87
655.843	66.04
656.172	66
656.502	65.97
656.832	65.91
657.162	65.88
657.491	65.8
657.821	65.81
658.15	65.89
658.48	65.73
658.809	65.68
659.139	65.56
659.468	65.6
659.798	65.39
660.127	65.34
660.456	65.25
660.785	65.22
661.115	65.3
661.444	65.28
661.773	65.42
662.102	65.48
662.431	65.48
662.76	65.36
663.089	65.48
663.418	65.35
663.747	65.28
664.076	65.3
664.404	65.4
664.733	65.39
665.062	65.31
665.39	65.34
665.719	65.38
666.048	65.4
666.376	65.41
666.705	65.53
667.033	65.48
667.362	65.53
667.69	65.71
668.018	65.78
668.347	65.81
668.675	65.87
669.003	65.84
669.331	65.92
669.659	66.01
669.987	65.91
670.315	66.02
670.643	65.95
670.971	65.96
671.299	65.91
671.627	65.87
671.955	65.78
672.283	65.68
672.61	65.58
672.938	65.58
673.266	65.59
673.593	65.68
673.921	65.68
674.249	65.68
674.576	65.66
674.904	65.58
675.231	65.51
675.558	65.55
675.886	65.4
676.213	65.32
676.54	65.27
676.867	65.33
677.195	65.42
677.522	65.51
677.849	65.49
678.176	65.45
678.503	65.39
678.83	65.43
679.157	65.6
679.484	65.64
679.81	65.79
680.137	65.82
680.464	65.65
680.791	65.77
681.117	65.85
681.444	65.81
681.771	65.82
682.097	65.94
682.424	65.85
682.75	66.01
683.077	66.04
683.403	66.12
683.729	66.13
684.056	66.19
684.382	66.21
684.708	66.2
685.034	66.36
685.36	66.29
685.686	66.32
686.012	66.36
686.339	66.54
686.664	66.62
686.99	66.57
687.316	66.58
687.642	66.5
687.968	66.37
688.294	66.26
688.619	66.29
688.945	66.27
689.271	66.21
689.596	66.21
689.922	66.18
690.247	66.06
690.573	66
690.898	66.01
691.224	66.09
691.549	66.06
691.874	65.94
692.2	66.05
692.525	66.17
692.85	66.13
693.175	65.97
693.5	65.79
693.825	65.87
694.15	65.96
694.475	65.99
694.8	65.91
695.125	65.89
695.45	65.77
695.775	65.87
696.099	65.86
696.424	65.9
696.749	65.96
697.073	65.99
697.398	66.11
697.723	65.89
698.047	65.97
698.372	65.91
698.696	65.84
699.02	65.98
699.345	65.83
699.669	65.87
699.993	65.9
700.318	66.03
700.642	65.92
700.966	65.95
701.29	66.01
701.614	66.23
701.938	66.38
702.262	66.45
702.586	66.47
702.91	66.32
703.234	66.22
703.557	66.44
703.881	66.51
704.205	66.47
704.529	66.63
704.852	66.53
705.176	66.56
705.499	66.62
705.823	66.42
706.146	66.62
706.47	66.77
706.793	66.68
707.117	66.69
707.44	66.92
707.763	67.06
708.086	66.8
708.409	66.83
708.733	66.7
709.056	66.81
709.379	66.69
709.702	66.99
710.025	66.95
710.348	66.73
710.671	66.73
710.993	66.71
711.316	66.66
711.639	66.68
711.962	66.63
712.284	66.9
712.607	66.91
712.93	66.91
713.252	66.82
713.575	66.89
713.897	66.73
714.22	66.51
714.542	66.41
714.864	66.71
715.187	66.67
715.509	66.6
715.831	66.55
716.153	66.4
716.475	66.5
716.798	66.57
717.12	66.49
717.442	66.4
717.764	66.41
718.085	66.35
718.407	66.11
718.729	66.25
719.051	66.17
719.373	66.29
719.695	66.47
720.016	66.19
720.338	66.39
720.659	66.33
720.981	66.46
721.302	66.42
721.624	66.45
721.945	66.52
722.267	66.62
722.588	66.57
722.909	66.94
723.231	66.67
723.552	66.7
723.873	66.9
724.194	66.73
724.515	66.62
724.836	66.91
725.157	67.06
725.478	67.13
725.799	66.86
726.12	66.68
726.441	66.09
726.762	66.17
727.083	66.25
727.403	66.53
727.724	66.32
728.045	66.49
728.365	66.35
728.686	66.21
729.006	66.38
729.327	66.2
729.647	66.14
729.967	66.13
730.288	66.07
730.608	65.95
730.928	66.19
731.249	66.23
731.569	65.92
731.889	65.86
732.209	65.91
732.529	66.14
732.849	66.44
733.169	66.63
733.489	67.02
733.809	66.68
734.129	66.61
734.448	66.8
734.768	66.68
735.088	66.54
735.408	66.62
735.727	66.56
736.047	66.93
736.366	66.85
736.686	67.28
737.005	67.24
737.325	67.29
737.644	67.19
737.963	67.33
738.283	67.6
738.602	67.52
738.921	67.32
739.24	67.23
739.56	66.89
739.879	67.17
740.198	66.8
740.517	66.75
740.836	66.86
741.155	66.78
741.473	66.72
741.792	66.8
742.111	66.83
742.43	66.82
742.748	66.5
743.067	66.47
743.386	65.81
743.704	65.95
744.023	65.84
744.341	66
744.66	66.03
744.978	65.95
745.297	65.93
745.615	66.12
745.933	65.95
746.252	66.24
746.57	66.08
746.888	66.17
747.206	66.34
747.524	66.14
747.842	66.31
748.16	66.56
748.478	66.63
748.796	66.43
749.114	66.59
749.432	66.71
749.749	66.61
750.067	66.97
750.385	67.19
750.703	67.2
751.02	66.98
751.338	66.92
751.655	66.91
751.973	67.45
752.29	67.34
752.608	67.3
752.925	67.09
753.242	66.9
753.56	67.09
753.877	66.99
754.194	67.09
754.511	66.81
754.828	66.65
755.145	66.8
755.462	66.89
755.779	66.65
756.096	66.66
756.413	66.93
756.73	66.83
757.047	66.39
757.364	66.35
757.68	66.17
757.997	65.94
758.314	66.02
758.63	65.8
758.947	65.74
759.264	65.9
759.58	65.98
759.896	65.9
760.213	65.87
760.529	65.8
760.846	65.89
761.162	66.1
761.478	65.93
761.794	65.81
762.11	66
762.426	66.21
762.743	66.04
763.059	65.99
763.375	65.86
763.69	65.98
764.006	66.12
764.322	66.38
764.638	66.32
764.954	66.27
765.27	66.17
765.585	66.16
765.901	66.11
766.216	66.04
766.532	66.45
766.848	66.36
767.163	66.59
767.478	66.62
767.794	66.59
768.109	66.82
768.424	66.85
768.74	66.86
769.055	66.68
769.37	66.77
769.685	66.5
770	67.01
770.315	67.43
770.63	67.46
770.945	67.51
771.26	67.7
771.575	67.92
771.89	67.94
772.205	68.22
772.52	68.42
772.834	68.45
773.149	68.01
773.464	67.91
773.778	67.53
774.093	67.37
774.407	66.84
774.722	66.68
775.036	66.78
775.351	66.81
775.665	67.06
775.979	67.3
776.293	67.42
776.608	67.24
776.922	67.05
777.236	66.72
777.55	66.89
777.864	67.01
778.178	66.73
778.492	66.91
778.806	66.39
779.12	66.25
779.434	66.34
779.747	66.73
780.061	67.24
780.375	67.6
780.689	67.71
781.002	68.56
781.316	68.75
781.629	69.32
781.943	68.85
782.256	68.64
782.57	68.57
782.883	68.82
783.196	68.68
783.51	68.34
783.823	68.79
784.136	68.4
784.449	68.29
784.762	68.38
785.075	68.2
785.388	68.6
785.701	68.55
786.014	67.9
786.327	67.49
786.64	67.32
786.953	67.5
787.266	67.38
787.578	67.07
787.891	67.3
788.204	67.37
788.516	67.17
788.829	67.03
789.141	67.46
789.454	67.27
789.766	67.26
790.079	66.76
790.391	66.62
790.703	66.96
791.016	67.28
791.328	67.8
791.64	68.07
791.952	68.31
792.264	68.34
792.576	69.03
792.888	69.42
793.2	69.61
793.512	69.26
793.824	69.08
794.136	68.42
794.448	68.14
794.76	67.77
795.071	68.59
795.383	69.01
795.695	68.04
796.006	68.22
796.318	68.65
796.629	69.27
796.941	69.18
797.252	68.99
797.564	68.62
797.875	67.99
798.186	67.56
798.497	67.52
798.809	67.74
799.12	68.13
799.431	68.02
799.742	67.76
800.053	67.75
800.364	68.42
800.675	69.26
800.986	69.52
801.297	68.89
801.608	68.95
801.918	67.92
802.229	68.19
802.54	68.3
802.851	67.66
803.161	67.27
803.472	67.45
803.782	67.69
804.093	67.89
804.403	67.96
804.714	68.52
805.024	68.43
805.334	68.16
805.645	68.19
805.955	67.69
806.265	67.42
806.575	68.14
806.885	67.81
807.195	68.27
807.505	68.01
807.815	68.34
808.125	67.93
808.435	69.15
808.745	70.31
809.055	70.85
809.365	72.11
809.674	72.41
809.984	72.66
810.294	72.4
810.603	72.28
810.913	73.13
811.222	73.54
811.532	74.45
811.841	75.34
812.151	74.85
812.46	75.64
812.769	75.36
813.079	73.92
813.388	74.15
813.697	73.38
814.006	73.26
814.315	73.15
814.624	73.38
814.933	72.52
815.242	72.12
815.551	71.68
815.86	70.53
816.169	71.01
816.478	70.13
816.786	70.48
817.095	70.35
817.404	70.33
817.712	69.96
818.021	68.35
818.33	67.96
818.638	67.61
818.947	67.64
819.255	67.8
819.563	68.34
819.872	68.01
820.18	68.05
820.488	68.17
820.796	68.16
821.105	68
821.413	68.22
821.721	67.73
822.029	67.58
822.337	67.62
822.645	67.54
822.953	67.85
823.26	67.79
823.568	67.81
823.876	67.61
824.184	67.4
824.491	67.45
824.799	67.33
825.107	67.4
825.414	67.25
825.722	67.24
826.029	66.91
826.337	66.92
826.644	67
826.951	67
827.259	67.08
827.566	67.11
827.873	66.84
828.18	67.32
828.488	67.39
828.795	67.18
829.102	67.12
829.409	66.95
829.716	66.62
830.023	66.35
830.329	66.1
830.636	66.42
830.943	66.48
831.25	66.59
831.557	66.78
831.863	67.18
832.17	67.14
832.476	68.09
832.783	67.78
833.089	67.58
833.396	67.21
833.702	67.31
834.009	67.37
834.315	67.8
834.621	66.93
834.928	67.29
835.234	67.78
835.54	68.07
835.846	68.2
836.152	68.71
836.458	69.08
836.764	69.02
837.07	69.03
837.376	69.23
837.682	69.04
837.988	68.04
838.293	67.65
838.599	67.91
838.905	67.24
839.211	67.39
839.516	67.34
839.822	66.99
840.127	66.27
840.433	66.28
840.738	66.14
841.044	67.03
841.349	66.65
841.654	66.45
841.959	66
842.265	65.09
842.57	64.4
842.875	65.46
843.18	66.38
843.485	67.05
843.79	67.87
844.095	67.76
844.4	69.4
844.705	69.16
845.01	69.45
845.315	69.58
845.619	69.3
845.924	68.84
846.229	70.64
846.533	71.76
846.838	70.65
847.142	71.15
847.447	71.03
847.751	71.07
848.056	70.68
848.36	71.37
848.664	71.88
848.969	72.98
849.273	70.83
849.577	70.07
849.881	69.29
850.185	68.46
850.489	70.62
850.794	69.82
851.097	69.45
851.401	68.88
851.705	68.63
852.009	67.99
852.313	69.18
852.617	69
852.92	67.6
853.224	67.61
853.528	66.78
853.831	66.84
854.135	67.95
854.438	68.49
854.742	68.03
855.045	67.68
855.349	65.95
855.652	67.35
855.955	69.05
856.259	68.23
856.562	66.15
856.865	66.94
857.168	68.66
857.471	71.13
857.774	72.82
858.077	74.97
858.38	78.65
858.683	77.32
858.986	77
859.289	78.38
859.592	80.21
859.894	79.65
860.197	79.92
860.5	77.11
860.802	75.78
861.105	76.41
861.407	79.03
861.71	81.54
862.012	80.7
862.315	81.1
862.617	82.8
862.919	84.09
863.222	83.33
863.524	82.04
863.826	79.26
864.128	77.36
864.43	77.22
864.732	77.11
865.034	79.64
865.336	77.46
865.638	76.41
865.94	77.63
866.242	79.31
866.544	77.64
866.846	77.22
867.147	80.86
867.449	82.54
867.751	81.03
868.052	82.73
868.354	82.53
868.655	80.41
868.957	77.7
869.258	77.81
869.56	77.42
869.861	80.26
870.162	79.52
870.463	80.4
870.765	78.46
871.066	76.17
871.367	72.74
871.668	72.57
871.969	74.49
872.27	73.69
872.571	71.49
872.872	72.25
873.173	74.64
873.473	75.22
873.774	71.85
874.075	73.14
874.376	68.44
874.676	69.14
874.977	68.4
875.277	69.46
875.578	69.53
875.878	68.63
876.179	66.96
876.479	69.3
876.78	68.04
877.08	68.8
877.38	70.35
877.68	72.93
877.981	76.39
878.281	74.07
878.581	72.85
