Data from BA57965_Reflection_00015.txt Node
Date: Mon Nov 18 15:16:33 EST 2019
User: vgr7
Spectrometer: USB2G7710
Scans to average: 3
Trigger mode: 4
Integration Time (sec): 2.000000E-2
Electric dark correction enabled: true
Boxcar width: 10
XAxis mode: Wavelengths
Number of Pixels in Spectrum: 2048
>>>>>Begin Spectral Data<<<<<
177.721	32.81
178.105	-30.56
178.488	-84.17
178.871	-51.98
179.254	-66.32
179.636	38.87
180.019	-8.29
180.402	71.05
180.785	-7.47
181.168	-32.65
181.55	-215.27
181.933	80.37
182.316	126.49
182.698	259
183.081	500
183.463	-333.12
183.846	-77.22
184.228	-43.93
184.611	-133.54
184.993	-74.11
185.376	-68.05
185.758	-84.09
186.14	-84.42
186.522	-103.97
186.904	-86.53
187.287	-86.74
187.669	-36.15
188.051	-39.51
188.433	-34.55
188.815	-30.62
189.197	-26.28
189.579	-39.94
189.961	-37.41
190.342	-44.77
190.724	-33.66
191.106	-25.23
191.488	-32.28
191.869	-36.02
192.251	-45.14
192.633	-32.75
193.014	-20.26
193.396	-19.93
193.777	-8.62
194.159	-24.43
194.54	-5.44
194.922	0.77
195.303	-3.34
195.684	-20.19
196.065	-10.01
196.447	-23.06
196.828	-33.77
197.209	-43.26
197.59	-40.29
197.971	-27.95
198.352	-12
198.733	-13.4
199.114	-17.16
199.495	-8.16
199.876	-6.46
200.257	-2.67
200.638	-6.38
201.018	-10.31
201.399	-14.49
201.78	-16.2
202.16	-6.55
202.541	-29.08
202.922	-35.32
203.302	-34.58
203.683	-32.87
204.063	-38.09
204.444	-35.03
204.824	-27.85
205.204	-15.91
205.585	-14.34
205.965	-17.72
206.345	-38.77
206.725	-45.94
207.106	-62.14
207.486	-62.83
207.866	-71.86
208.246	-83.7
208.626	-57.4
209.006	-41.31
209.386	-26.47
209.766	-9.32
210.145	-18.62
210.525	2.1
210.905	8.21
211.285	6.77
211.664	4.97
212.044	8.68
212.424	9.33
212.803	10.41
213.183	13.87
213.562	16.16
213.942	18.24
214.321	25.34
214.701	15.84
215.08	14.89
215.459	10.44
215.838	20.81
216.218	22.91
216.597	25.78
216.976	20.91
217.355	18.43
217.734	13.03
218.113	21.78
218.492	26.38
218.871	13.74
219.25	17.82
219.629	21.66
220.008	18.8
220.387	24.55
220.766	21.6
221.144	8.54
221.523	3.2
221.902	-3.69
222.28	-6.87
222.659	8.14
223.037	9.49
223.416	6.07
223.794	-5.72
224.173	-9.53
224.551	-11.8
224.929	-14.67
225.308	-19.32
225.686	-20.43
226.064	-23.6
226.442	-23.88
226.821	-15.88
227.199	-17.63
227.577	-18.57
227.955	-19.8
228.333	-19.26
228.711	-16.09
229.089	-8.79
229.467	-8.4
229.845	-6.69
230.222	-6.73
230.6	-8.52
230.978	-8.35
231.356	-4.86
231.733	-2.05
232.111	-0.97
232.488	-0.16
232.866	1.37
233.243	2.73
233.621	4.43
233.998	7.11
234.376	6.49
234.753	6.97
235.13	6.8
235.508	7.75
235.885	6.62
236.262	5.34
236.639	3.75
237.016	1.58
237.393	2.99
237.77	3.24
238.147	3.58
238.524	3.06
238.901	3.55
239.278	3.7
239.655	4.2
240.032	4.5
240.409	3.3
240.785	3.33
241.162	3.31
241.539	3.32
241.915	3.5
242.292	3.2
242.668	3.23
243.045	4.18
243.421	3.86
243.798	4.46
244.174	4.62
244.551	4.98
244.927	5.09
245.303	4.95
245.679	4.73
246.056	4.65
246.432	4.71
246.808	4.63
247.184	4.33
247.56	4.07
247.936	3.95
248.312	4.27
248.688	4.21
249.064	4.3
249.44	4.19
249.815	3.83
250.191	4.12
250.567	4.07
250.943	3.7
251.318	3.87
251.694	3.58
252.069	3.51
252.445	3.47
252.82	3.46
253.196	3.35
253.571	3.71
253.947	3.99
254.322	4.18
254.697	4.04
255.073	4.07
255.448	3.94
255.823	4.1
256.198	3.98
256.573	4.11
256.948	3.92
257.323	4.17
257.698	4.31
258.073	4.12
258.448	4.1
258.823	4.17
259.198	4.13
259.573	4.17
259.948	4.25
260.322	4.28
260.697	4.12
261.072	4.03
261.446	4.06
261.821	3.94
262.195	3.95
262.57	3.89
262.944	3.96
263.319	3.92
263.693	3.77
264.067	3.85
264.442	3.78
264.816	3.77
265.19	3.41
265.564	3.42
265.938	3.35
266.313	3.33
266.687	3.29
267.061	3.27
267.435	3.19
267.809	3.13
268.183	2.9
268.556	3.02
268.93	3.09
269.304	2.78
269.678	2.88
270.051	2.88
270.425	3.03
270.799	2.98
271.172	3.07
271.546	3.08
271.919	2.99
272.293	3
272.666	3.17
273.04	3.35
273.413	3.36
273.787	3.39
274.16	3.34
274.533	3.35
274.906	3.39
275.279	3.41
275.653	3.39
276.026	3.5
276.399	3.38
276.772	3.35
277.145	3.49
277.518	3.38
277.891	3.45
278.263	3.32
278.636	3.22
279.009	3.12
279.382	3.3
279.755	3.51
280.127	3.59
280.5	3.5
280.872	3.46
281.245	3.46
281.617	3.54
281.99	3.64
282.362	3.64
282.735	3.43
283.107	3.4
283.479	3.39
283.852	3.17
284.224	3.16
284.596	3.18
284.968	3.18
285.34	3.2
285.713	3.21
286.085	3.21
286.457	3.3
286.829	3.45
287.201	3.41
287.572	3.24
287.944	3.19
288.316	3.24
288.688	3.34
289.06	3.39
289.431	3.39
289.803	3.26
290.175	3.24
290.546	3.45
290.918	3.66
291.289	3.66
291.661	4.01
292.032	4.2
292.403	4.23
292.775	4.44
293.146	4.38
293.517	4.29
293.889	4.46
294.26	4.5
294.631	4.39
295.002	4.48
295.373	4.62
295.744	4.62
296.115	4.5
296.486	4.28
296.857	4.25
297.228	4.39
297.599	4.49
297.97	4.57
298.34	4.5
298.711	4.44
299.082	4.47
299.452	4.44
299.823	4.56
300.194	4.62
300.564	4.52
300.935	4.67
301.305	4.75
301.676	4.74
302.046	4.83
302.416	4.97
302.787	4.96
303.157	4.85
303.527	4.91
303.897	5.03
304.267	5.36
304.637	5.44
305.008	5.39
305.378	5.53
305.748	5.65
306.117	5.81
306.487	5.86
306.857	5.96
307.227	6.02
307.597	5.96
307.967	6.04
308.336	6.14
308.706	6.27
309.076	6.38
309.445	6.41
309.815	6.43
310.184	6.44
310.554	6.56
310.923	6.66
311.293	6.74
311.662	6.84
312.031	6.85
312.401	6.79
312.77	6.85
313.139	6.95
313.508	6.82
313.877	6.98
314.246	7.12
314.616	7.3
314.985	7.24
315.353	7.22
315.722	7.45
316.091	7.46
316.46	7.46
316.829	7.62
317.198	7.75
317.567	7.72
317.935	7.75
318.304	7.88
318.672	8.05
319.041	8.18
319.41	8.22
319.778	8.25
320.147	8.51
320.515	8.53
320.883	8.51
321.252	8.73
321.62	8.7
321.988	8.77
322.357	8.52
322.725	8.65
323.093	8.98
323.461	8.85
323.829	8.93
324.197	8.91
324.565	8.9
324.933	9.06
325.301	9.25
325.669	9.41
326.037	9.22
326.405	9.14
326.772	9.21
327.14	9.44
327.508	9.49
327.875	9.44
328.243	9.59
328.61	9.66
328.978	9.69
329.346	9.8
329.713	9.67
330.08	9.86
330.448	9.89
330.815	9.64
331.182	9.76
331.55	9.7
331.917	9.87
332.284	9.83
332.651	9.76
333.018	9.68
333.385	9.67
333.752	9.82
334.119	10.06
334.486	10.02
334.853	9.95
335.22	9.91
335.587	10.06
335.954	10.19
336.32	10.2
336.687	10.26
337.054	10.13
337.42	10.25
337.787	10.28
338.153	10.26
338.52	10.45
338.886	10.36
339.253	10.42
339.619	10.44
339.986	10.6
340.352	10.62
340.718	10.65
341.084	10.71
341.451	10.74
341.817	10.75
342.183	10.73
342.549	10.62
342.915	10.74
343.281	10.62
343.647	10.47
344.013	10.49
344.379	10.38
344.745	10.44
345.11	10.52
345.476	10.6
345.842	10.65
346.208	10.56
346.573	10.59
346.939	10.67
347.304	10.65
347.67	10.57
348.035	10.52
348.401	10.53
348.766	10.5
349.132	10.57
349.497	10.46
349.862	10.54
350.228	10.6
350.593	10.52
350.958	10.61
351.323	10.67
351.688	10.6
352.053	10.6
352.418	10.63
352.783	10.52
353.148	10.45
353.513	10.46
353.878	10.52
354.243	10.53
354.608	10.46
354.972	10.4
355.337	10.46
355.702	10.47
356.066	10.48
356.431	10.47
356.795	10.39
357.16	10.34
357.524	10.2
357.889	10.13
358.253	10.12
358.618	10.02
358.982	10
359.346	9.94
359.71	9.93
360.075	9.81
360.439	9.8
360.803	9.75
361.167	9.72
361.531	9.57
361.895	9.52
362.259	9.5
362.623	9.49
362.987	9.37
363.351	9.33
363.714	9.28
364.078	9.16
364.442	9.12
364.806	9.13
365.169	9.11
365.533	9.11
365.896	9.05
366.26	9.02
366.623	8.91
366.987	8.86
367.35	8.83
367.714	8.8
368.077	8.64
368.44	8.56
368.803	8.49
369.167	8.48
369.53	8.39
369.893	8.33
370.256	8.2
370.619	8.15
370.982	8.1
371.345	8.03
371.708	8.07
372.071	8.02
372.434	7.92
372.797	7.89
373.159	7.76
373.522	7.74
373.885	7.66
374.247	7.66
374.61	7.61
374.973	7.5
375.335	7.46
375.698	7.48
376.06	7.39
376.423	7.31
376.785	7.28
377.147	7.28
377.51	7.2
377.872	7.18
378.234	7.09
378.596	7.02
378.958	6.93
379.321	6.83
379.683	6.78
380.045	6.66
380.407	6.61
380.769	6.59
381.13	6.52
381.492	6.47
381.854	6.38
382.216	6.32
382.578	6.31
382.939	6.23
383.301	6.18
383.663	6.11
384.024	6.06
384.386	6.05
384.747	6.02
385.109	5.96
385.47	5.88
385.832	5.82
386.193	5.78
386.554	5.73
386.916	5.69
387.277	5.62
387.638	5.65
387.999	5.59
388.36	5.56
388.721	5.5
389.082	5.49
389.443	5.41
389.804	5.38
390.165	5.3
390.526	5.28
390.887	5.19
391.248	5.21
391.609	5.17
391.969	5.12
392.33	5.03
392.691	5.01
393.051	4.99
393.412	4.99
393.772	4.95
394.133	4.94
394.493	4.93
394.854	4.9
395.214	4.81
395.574	4.78
395.935	4.71
396.295	4.69
396.655	4.6
397.015	4.57
397.376	4.51
397.736	4.46
398.096	4.42
398.456	4.4
398.816	4.34
399.176	4.3
399.535	4.26
399.895	4.21
400.255	4.19
400.615	4.15
400.975	4.08
401.334	4.04
401.694	3.99
402.054	3.9
402.413	3.87
402.773	3.87
403.132	3.87
403.492	3.87
403.851	3.81
404.211	3.81
404.57	3.8
404.929	3.79
405.288	3.79
405.648	3.75
406.007	3.76
406.366	3.76
406.725	3.77
407.084	3.74
407.443	3.72
407.802	3.66
408.161	3.63
408.52	3.63
408.879	3.61
409.238	3.63
409.596	3.65
409.955	3.63
410.314	3.64
410.673	3.58
411.031	3.52
411.39	3.54
411.748	3.5
412.107	3.49
412.465	3.47
412.824	3.46
413.182	3.44
413.54	3.39
413.899	3.38
414.257	3.37
414.615	3.33
414.974	3.33
415.332	3.31
415.69	3.32
416.048	3.29
416.406	3.29
416.764	3.24
417.122	3.22
417.48	3.2
417.838	3.19
418.195	3.17
418.553	3.17
418.911	3.14
419.269	3.13
419.626	3.13
419.984	3.13
420.342	3.12
420.699	3.1
421.057	3.1
421.414	3.06
421.772	3.03
422.129	3.03
422.486	3.02
422.844	3.04
423.201	3.02
423.558	3
423.915	2.99
424.273	2.99
424.63	2.98
424.987	2.99
425.344	2.97
425.701	2.97
426.058	2.95
426.415	2.95
426.772	2.95
427.128	2.94
427.485	2.92
427.842	2.92
428.199	2.94
428.555	2.94
428.912	2.95
429.269	2.97
429.625	2.95
429.982	2.92
430.338	2.89
430.695	2.89
431.051	2.88
431.407	2.87
431.764	2.86
432.12	2.86
432.476	2.82
432.832	2.84
433.189	2.85
433.545	2.85
433.901	2.85
434.257	2.83
434.613	2.85
434.969	2.85
435.325	2.82
435.681	2.79
436.036	2.8
436.392	2.8
436.748	2.79
437.104	2.79
437.459	2.8
437.815	2.8
438.171	2.81
438.526	2.83
438.882	2.83
439.237	2.84
439.593	2.84
439.948	2.86
440.304	2.87
440.659	2.84
441.014	2.84
441.369	2.85
441.725	2.86
442.08	2.83
442.435	2.82
442.79	2.83
443.145	2.83
443.5	2.81
443.855	2.81
444.21	2.8
444.565	2.79
444.92	2.79
445.275	2.77
445.629	2.75
445.984	2.74
446.339	2.71
446.693	2.7
447.048	2.69
447.403	2.67
447.757	2.65
448.112	2.65
448.466	2.64
448.82	2.61
449.175	2.59
449.529	2.59
449.883	2.58
450.238	2.57
450.592	2.58
450.946	2.57
451.3	2.56
451.654	2.56
452.008	2.57
452.362	2.56
452.716	2.56
453.07	2.58
453.424	2.56
453.778	2.58
454.132	2.58
454.486	2.59
454.839	2.59
455.193	2.59
455.547	2.61
455.9	2.63
456.254	2.63
456.607	2.66
456.961	2.66
457.314	2.67
457.668	2.66
458.021	2.65
458.375	2.65
458.728	2.65
459.081	2.66
459.434	2.66
459.787	2.66
460.141	2.69
460.494	2.67
460.847	2.7
461.2	2.68
461.553	2.69
461.906	2.71
462.259	2.71
462.611	2.72
462.964	2.72
463.317	2.73
463.67	2.75
464.022	2.72
464.375	2.74
464.728	2.76
465.08	2.76
465.433	2.78
465.785	2.79
466.138	2.79
466.49	2.81
466.843	2.81
467.195	2.83
467.547	2.82
467.899	2.83
468.252	2.82
468.604	2.86
468.956	2.84
469.308	2.85
469.66	2.85
470.012	2.85
470.364	2.86
470.716	2.85
471.068	2.86
471.42	2.9
471.772	2.9
472.123	2.9
472.475	2.92
472.827	2.93
473.178	2.94
473.53	2.93
473.882	2.92
474.233	2.92
474.585	2.9
474.936	2.88
475.288	2.89
475.639	2.92
475.99	2.89
476.342	2.9
476.693	2.88
477.044	2.9
477.395	2.89
477.746	2.89
478.097	2.89
478.448	2.87
478.8	2.85
479.15	2.82
479.501	2.81
479.852	2.8
480.203	2.79
480.554	2.79
480.905	2.8
481.255	2.79
481.606	2.79
481.957	2.79
482.307	2.79
482.658	2.78
483.009	2.77
483.359	2.78
483.709	2.77
484.06	2.78
484.41	2.79
484.761	2.79
485.111	2.78
485.461	2.78
485.811	2.79
486.162	2.79
486.512	2.81
486.862	2.82
487.212	2.82
487.562	2.82
487.912	2.83
488.262	2.84
488.612	2.86
488.961	2.87
489.311	2.88
489.661	2.9
490.011	2.92
490.36	2.92
490.71	2.94
491.06	2.96
491.409	2.96
491.759	2.97
492.108	2.98
492.458	3
492.807	3.02
493.157	3.03
493.506	3.05
493.855	3.06
494.204	3.06
494.554	3.1
494.903	3.11
495.252	3.12
495.601	3.13
495.95	3.14
496.299	3.17
496.648	3.18
496.997	3.2
497.346	3.22
497.695	3.28
498.043	3.3
498.392	3.31
498.741	3.33
499.09	3.35
499.438	3.39
499.787	3.42
500.135	3.47
500.484	3.49
500.832	3.52
501.181	3.57
501.529	3.62
501.878	3.66
502.226	3.72
502.574	3.76
502.923	3.81
503.271	3.87
503.619	3.92
503.967	3.98
504.315	4.05
504.663	4.11
505.011	4.13
505.359	4.17
505.707	4.25
506.055	4.32
506.403	4.38
506.751	4.44
507.098	4.5
507.446	4.55
507.794	4.61
508.141	4.69
508.489	4.76
508.837	4.84
509.184	4.9
509.531	4.96
509.879	5.06
510.226	5.14
510.574	5.19
510.921	5.25
511.268	5.34
511.616	5.42
511.963	5.49
512.31	5.6
512.657	5.71
513.004	5.8
513.351	5.91
513.698	6
514.045	6.13
514.392	6.23
514.739	6.34
515.086	6.45
515.432	6.55
515.779	6.64
516.126	6.74
516.473	6.85
516.819	6.96
517.166	7.04
517.512	7.13
517.859	7.25
518.205	7.34
518.552	7.44
518.898	7.54
519.245	7.63
519.591	7.72
519.937	7.82
520.283	7.94
520.629	8.06
520.976	8.21
521.322	8.33
521.668	8.48
522.014	8.62
522.36	8.8
522.706	9
523.052	9.2
523.398	9.38
523.743	9.61
524.089	9.84
524.435	10.05
524.781	10.28
525.126	10.49
525.472	10.7
525.817	10.86
526.163	11.02
526.509	11.19
526.854	11.32
527.199	11.47
527.545	11.6
527.89	11.73
528.235	11.87
528.581	12.04
528.926	12.18
529.271	12.34
529.616	12.49
529.961	12.65
530.306	12.81
530.651	12.99
530.996	13.17
531.341	13.34
531.686	13.54
532.031	13.74
532.376	13.94
532.721	14.14
533.065	14.38
533.41	14.61
533.755	14.85
534.099	15.13
534.444	15.38
534.788	15.65
535.133	15.91
535.477	16.18
535.822	16.43
536.166	16.73
536.51	17.04
536.855	17.36
537.199	17.7
537.543	18.04
537.887	18.42
538.231	18.79
538.576	19.16
538.92	19.51
539.264	19.83
539.608	20.17
539.951	20.46
540.295	20.73
540.639	21.02
540.983	21.29
541.327	21.56
541.671	21.82
542.014	22.08
542.358	22.33
542.701	22.61
543.045	22.88
543.389	23.17
543.732	23.46
544.075	23.75
544.419	24.02
544.762	24.32
545.105	24.61
545.449	24.92
545.792	25.25
546.135	25.6
546.478	25.95
546.821	26.25
547.165	26.62
547.508	26.97
547.851	27.36
548.194	27.72
548.536	28.08
548.879	28.45
549.222	28.79
549.565	29.16
549.908	29.52
550.25	29.83
550.593	30.14
550.936	30.46
551.278	30.83
551.621	31.18
551.963	31.47
552.306	31.78
552.648	32.06
552.991	32.38
553.333	32.65
553.675	32.95
554.017	33.28
554.36	33.57
554.702	33.94
555.044	34.21
555.386	34.47
555.728	34.76
556.07	35.05
556.412	35.33
556.754	35.63
557.096	35.86
557.438	36.18
557.78	36.55
558.121	36.84
558.463	37.07
558.805	37.32
559.147	37.65
559.488	37.92
559.83	38.18
560.171	38.38
560.513	38.57
560.854	38.81
561.196	39.07
561.537	39.29
561.878	39.47
562.22	39.66
562.561	39.93
562.902	40.13
563.243	40.33
563.584	40.54
563.925	40.77
564.266	40.94
564.607	41.1
564.948	41.25
565.289	41.38
565.63	41.58
565.971	41.79
566.312	41.95
566.653	42.11
566.993	42.28
567.334	42.51
567.675	42.71
568.015	42.93
568.356	43.06
568.696	43.23
569.037	43.34
569.377	43.53
569.718	43.67
570.058	43.87
570.398	44.04
570.739	44.23
571.079	44.35
571.419	44.52
571.759	44.69
572.099	44.77
572.439	44.93
572.779	45.07
573.119	45.23
573.459	45.36
573.799	45.47
574.139	45.6
574.479	45.69
574.819	45.85
575.158	45.97
575.498	46.13
575.838	46.27
576.177	46.37
576.517	46.5
576.856	46.59
577.196	46.65
577.535	46.74
577.875	46.87
578.214	47.02
578.553	47.18
578.893	47.27
579.232	47.41
579.571	47.53
579.91	47.62
580.25	47.72
580.589	47.83
580.928	48
581.267	48.14
581.606	48.28
581.945	48.4
582.283	48.46
582.622	48.52
582.961	48.64
583.3	48.85
583.639	48.94
583.977	49.06
584.316	49.18
584.654	49.31
584.993	49.44
585.332	49.49
585.67	49.48
586.008	49.56
586.347	49.62
586.685	49.7
587.024	49.85
587.362	49.91
587.7	49.99
588.038	50.04
588.376	50.07
588.715	50.09
589.053	50.13
589.391	50.2
589.729	50.22
590.067	50.27
590.404	50.28
590.742	50.31
591.08	50.42
591.418	50.51
591.756	50.61
592.093	50.58
592.431	50.61
592.769	50.7
593.106	50.88
593.444	50.98
593.781	51.02
594.119	50.98
594.456	50.97
594.793	51.03
595.131	51.03
595.468	51.06
595.805	51.18
596.143	51.24
596.48	51.27
596.817	51.32
597.154	51.33
597.491	51.47
597.828	51.54
598.165	51.58
598.502	51.61
598.839	51.62
599.176	51.7
599.512	51.76
599.849	51.8
600.186	51.75
600.523	51.84
600.859	51.95
601.196	52.07
601.532	52.15
601.869	52.11
602.205	52.16
602.542	52.2
602.878	52.21
603.215	52.26
603.551	52.26
603.887	52.35
604.223	52.47
604.56	52.49
604.896	52.53
605.232	52.57
605.568	52.64
605.904	52.63
606.24	52.66
606.576	52.66
606.912	52.77
607.248	52.78
607.583	52.76
607.919	52.79
608.255	52.82
608.591	52.9
608.926	52.99
609.262	53.06
609.597	53.16
609.933	53.17
610.268	53.22
610.604	53.25
610.939	53.25
611.275	53.21
611.61	53.26
611.945	53.3
612.281	53.2
612.616	53.26
612.951	53.36
613.286	53.4
613.621	53.53
613.956	53.53
614.291	53.59
614.626	53.69
614.961	53.78
615.296	53.83
615.631	53.8
615.966	53.85
616.3	53.87
616.635	53.82
616.97	53.86
617.304	53.85
617.639	53.95
617.973	54
618.308	54.04
618.642	54.01
618.977	53.98
619.311	54.06
619.646	54.05
619.98	54.08
620.314	54.17
620.648	54.23
620.983	54.28
621.317	54.3
621.651	54.3
621.985	54.28
622.319	54.27
622.653	54.36
622.987	54.4
623.321	54.45
623.655	54.46
623.988	54.41
624.322	54.42
624.656	54.41
624.99	54.37
625.323	54.4
625.657	54.41
625.99	54.5
626.324	54.61
626.657	54.61
626.991	54.58
627.324	54.6
627.658	54.62
627.991	54.71
628.324	54.78
628.657	54.78
628.991	54.78
629.324	54.88
629.657	54.84
629.99	54.87
630.323	54.9
630.656	54.97
630.989	55.06
631.322	55.09
631.655	55.06
631.987	55.12
632.32	55.16
632.653	55.2
632.986	55.16
633.318	55.1
633.651	55.15
633.984	55.17
634.316	55.15
634.649	55.16
634.981	55.09
635.313	55.15
635.646	55.2
635.978	55.25
636.31	55.25
636.643	55.31
636.975	55.36
637.307	55.37
637.639	55.44
637.971	55.52
638.303	55.54
638.635	55.67
638.967	55.79
639.299	55.9
639.631	55.95
639.963	56.11
640.295	56.17
640.626	56.21
640.958	56.32
641.29	56.37
641.621	56.41
641.953	56.38
642.285	56.33
642.616	56.38
642.948	56.34
643.279	56.3
643.61	56.31
643.942	56.3
644.273	56.34
644.604	56.37
644.936	56.32
645.267	56.38
645.598	56.35
645.929	56.3
646.26	56.28
646.591	56.25
646.922	56.26
647.253	56.31
647.584	56.36
647.915	56.34
648.245	56.36
648.576	56.35
648.907	56.32
649.238	56.34
649.568	56.37
649.899	56.38
650.229	56.45
650.56	56.46
650.89	56.52
651.221	56.57
651.551	56.57
651.882	56.64
652.212	56.53
652.542	56.59
652.872	56.48
653.203	56.48
653.533	56.47
653.863	56.42
654.193	56.31
654.523	56.16
654.853	56.17
655.183	56.17
655.513	56.18
655.843	56.23
656.172	56.14
656.502	56.1
656.832	56.04
657.162	56.03
657.491	56
657.821	55.84
658.15	55.81
658.48	55.84
658.809	55.71
659.139	55.75
659.468	55.76
659.798	55.92
660.127	55.92
660.456	55.98
660.785	55.99
661.115	56.06
661.444	56.13
661.773	56.14
662.102	56.07
662.431	56.07
662.76	56.18
663.089	56.27
663.418	56.25
663.747	56.36
664.076	56.23
664.404	56.29
664.733	56.48
665.062	56.51
665.39	56.46
665.719	56.58
666.048	56.68
666.376	56.74
666.705	56.74
667.033	56.67
667.362	56.58
667.69	56.56
668.018	56.57
668.347	56.62
668.675	56.64
669.003	56.63
669.331	56.6
669.659	56.49
669.987	56.5
670.315	56.47
670.643	56.34
670.971	56.44
671.299	56.48
671.627	56.46
671.955	56.44
672.283	56.44
672.61	56.43
672.938	56.55
673.266	56.5
673.593	56.36
673.921	56.44
674.249	56.52
674.576	56.46
674.904	56.47
675.231	56.52
675.558	56.42
675.886	56.53
676.213	56.61
676.54	56.66
676.867	56.71
677.195	56.87
677.522	56.99
677.849	57.09
678.176	57.06
678.503	56.96
678.83	56.97
679.157	56.98
679.484	56.97
679.81	56.86
680.137	56.82
680.464	56.93
680.791	56.89
681.117	56.87
681.444	56.93
681.771	56.94
682.097	56.87
682.424	56.97
682.75	56.93
683.077	56.99
683.403	57.1
683.729	56.99
684.056	56.87
684.382	56.74
684.708	56.63
685.034	56.6
685.36	56.63
685.686	56.59
686.012	56.62
686.339	56.74
686.664	56.73
686.99	56.84
687.316	56.75
687.642	56.8
687.968	56.81
688.294	56.78
688.619	56.87
688.945	56.96
689.271	57
689.596	56.87
689.922	56.85
690.247	56.74
690.573	56.94
690.898	57.04
691.224	57.2
691.549	57.32
691.874	57.46
692.2	57.6
692.525	57.63
692.85	57.59
693.175	57.48
693.5	57.3
693.825	57.24
694.15	57.27
694.475	57.2
694.8	57.28
695.125	57.18
695.45	56.97
695.775	56.9
696.099	56.88
696.424	57.16
696.749	57.07
697.073	57.05
697.398	56.9
697.723	56.91
698.047	56.92
698.372	56.84
698.696	56.76
699.02	56.85
699.345	56.89
699.669	57.06
699.993	57.1
700.318	57.27
700.642	57.21
700.966	57.28
701.29	57.33
701.614	57.24
701.938	57.38
702.262	57.62
702.586	57.71
702.91	57.62
703.234	57.48
703.557	57.51
703.881	57.44
704.205	57.61
704.529	57.59
704.852	57.47
705.176	57.54
705.499	57.51
705.823	57.33
706.146	57.17
706.47	56.89
706.793	56.98
707.117	56.96
707.44	57.01
707.763	57.01
708.086	57.03
708.409	57.07
708.733	57.06
709.056	56.77
709.379	56.87
709.702	56.94
710.025	56.97
710.348	57.04
710.671	57.24
710.993	57.15
711.316	57.09
711.639	57.26
711.962	57.27
712.284	57.24
712.607	57.23
712.93	57.37
713.252	57.33
713.575	57.17
713.897	57.17
714.22	57.29
714.542	57.38
714.864	57.44
715.187	57.38
715.509	57.18
715.831	57.43
716.153	57.39
716.475	57.38
716.798	57.42
717.12	57.44
717.442	57.26
717.764	57.37
718.085	57.41
718.407	57.36
718.729	57.33
719.051	57.42
719.373	57.44
719.695	57.28
720.016	57.39
720.338	57.59
720.659	57.53
720.981	57.35
721.302	57.11
721.624	56.87
721.945	56.95
722.267	57.25
722.588	57.21
722.909	56.99
723.231	57.05
723.552	56.99
723.873	57
724.194	57.14
724.515	57.22
724.836	57.17
725.157	57.29
725.478	57.45
725.799	57.34
726.12	57.35
726.441	57.23
726.762	57.12
727.083	57.1
727.403	57.15
727.724	57.16
728.045	57.29
728.365	57.65
728.686	57.65
729.006	57.7
729.327	57.79
729.647	57.92
729.967	57.88
730.288	57.88
730.608	57.59
730.928	57.68
731.249	57.5
731.569	57.55
731.889	57.45
732.209	57.51
732.529	57.59
732.849	57.45
733.169	57.76
733.489	57.65
733.809	57.46
734.129	57.46
734.448	57.65
734.768	57.55
735.088	57.41
735.408	57.44
735.727	57.4
736.047	57.61
736.366	57.51
736.686	57.48
737.005	57.58
737.325	57.81
737.644	57.58
737.963	57.77
738.283	57.93
738.602	58.13
738.921	58.11
739.24	58.37
739.56	58.61
739.879	58.43
740.198	58.76
740.517	58.89
740.836	58.94
741.155	58.67
741.473	58.99
741.792	59.14
742.111	58.95
742.43	59.17
742.748	58.82
743.067	59.08
743.386	59.32
743.704	59.37
744.023	59.39
744.341	59.64
744.66	59.46
744.978	59.6
745.297	59.44
745.615	59.01
745.933	58.8
746.252	58.53
746.57	58.66
746.888	58.54
747.206	58.59
747.524	58.52
747.842	58.76
748.16	58.52
748.478	58.5
748.796	58.74
749.114	58.66
749.432	58.41
749.749	58.18
750.067	58.03
750.385	57.7
750.703	57.71
751.02	57.6
751.338	57.45
751.655	57.02
751.973	57.05
752.29	57.37
752.608	57.37
752.925	57.5
753.242	57.55
753.56	57.65
753.877	57.51
754.194	57.47
754.511	57.18
754.828	57.2
755.145	57.1
755.462	57.14
755.779	56.92
756.096	56.95
756.413	56.96
756.73	56.89
757.047	57.16
757.364	57.18
757.68	57.08
757.997	57.52
758.314	57.61
758.63	57.67
758.947	57.51
759.264	57.27
759.58	57.39
759.896	57.44
760.213	57.36
760.529	57.64
760.846	57.54
761.162	57.75
761.478	57.7
761.794	57.8
762.11	57.88
762.426	57.71
762.743	57.93
763.059	58.14
763.375	58.03
763.69	58.06
764.006	57.91
764.322	57.74
764.638	57.62
764.954	57.72
765.27	57.68
765.585	57.71
765.901	57.96
766.216	57.83
766.532	57.85
766.848	57.94
767.163	57.92
767.478	57.99
767.794	57.79
768.109	57.7
768.424	57.49
768.74	57.05
769.055	57.35
769.37	57.39
769.685	57.05
770	57.3
770.315	57.27
770.63	57.57
770.945	58.21
771.26	58.26
771.575	58.18
771.89	58.08
772.205	58.19
772.52	57.79
772.834	58.08
773.149	57.98
773.464	57.99
773.778	57.61
774.093	57.4
774.407	57.48
774.722	57.84
775.036	57.67
775.351	58.37
775.665	58.1
775.979	57.85
776.293	57.9
776.608	57.47
776.922	57.14
777.236	56.81
777.55	56.29
777.864	56.51
778.178	56.64
778.492	56.46
778.806	56.66
779.12	56.96
779.434	56.78
779.747	56.7
780.061	56.7
780.375	57.19
780.689	57.73
781.002	57.74
781.316	57.46
781.629	57.7
781.943	57.52
782.256	57.77
782.57	58.04
782.883	58.31
783.196	59
783.51	59.07
783.823	59.59
784.136	59.56
784.449	59.09
784.762	58.97
785.075	59.68
785.388	59.18
785.701	59.4
786.014	58.87
786.327	59.01
786.64	58.98
786.953	58.59
787.266	58.04
787.578	58.44
787.891	58.75
788.204	58.52
788.516	58.56
788.829	58.73
789.141	58.47
789.454	58.23
789.766	57.95
790.079	57.92
790.391	57.75
790.703	57.84
791.016	57.9
791.328	58.17
791.64	57.59
791.952	57.73
792.264	57.33
792.576	57.83
792.888	57.84
793.2	57.69
793.512	57.97
793.824	58.42
794.136	57.78
794.448	57.41
794.76	57.36
795.071	57.34
795.383	57.19
795.695	57.36
796.006	57.72
796.318	57.69
796.629	57.9
796.941	57.85
797.252	58.37
797.564	58.16
797.875	57.79
798.186	58.02
798.497	58.01
798.809	58.4
799.12	58.28
799.431	58.59
799.742	58.74
800.053	58.78
800.364	58.65
800.675	59.4
800.986	59.76
801.297	60.57
801.608	60.36
801.918	59.89
802.229	59.73
802.54	59.5
802.851	59.29
803.161	59.19
803.472	59.57
803.782	59.34
804.093	59.53
804.403	59.73
804.714	60.01
805.024	60.23
805.334	59.78
805.645	60.3
805.955	59.69
806.265	59.84
806.575	59.59
806.885	59.6
807.195	59.24
807.505	58.99
807.815	58.04
808.125	58.3
808.435	58.85
808.745	58.24
809.055	57.91
809.365	58.76
809.674	58.89
809.984	58.37
810.294	58.81
810.603	59.05
810.913	58.83
811.222	58.73
811.532	59.11
811.841	59.56
812.151	59.17
812.46	58.99
812.769	59.04
813.079	59.44
813.388	59.7
813.697	59.72
814.006	60
814.315	60.25
814.624	59.69
814.933	59.19
815.242	60.32
815.551	60.16
815.86	60.08
816.169	59.7
816.478	60.13
816.786	59.13
817.095	58.89
817.404	58.73
817.712	58.38
818.021	57.25
818.33	56.84
818.638	56.9
818.947	57.57
819.255	58.01
819.563	57.76
819.872	57.76
820.18	57.82
820.488	57.78
820.796	58.25
821.105	58.28
821.413	58.5
821.721	58.43
822.029	58.72
822.337	58.42
822.645	58.57
822.953	58.38
823.26	58.57
823.568	58.47
823.876	58.49
824.184	58.57
824.491	58.72
824.799	58.79
825.107	58.72
825.414	58.64
825.722	58.4
826.029	58.39
826.337	58.4
826.644	58.53
826.951	58.56
827.259	58.32
827.566	58.2
827.873	57.96
828.18	57.79
828.488	57.58
828.795	57.72
829.102	57.52
829.409	57.43
829.716	57.12
830.023	57.04
830.329	56.82
830.636	56.42
830.943	56.51
831.25	56.4
831.557	56.42
831.863	56.29
832.17	56.47
832.476	56.47
832.783	56.71
833.089	56.34
833.396	56.12
833.702	56.19
834.009	56.56
834.315	56.9
834.621	56.64
834.928	56.62
835.234	56.47
835.54	56.16
835.846	56.43
836.152	56.84
836.458	56.94
836.764	57.08
837.07	57.59
837.376	57.68
837.682	57.61
837.988	57.82
838.293	57.75
838.599	57.48
838.905	57.36
839.211	56.7
839.516	56.52
839.822	56.72
840.127	56.73
840.433	56.5
840.738	56.12
841.044	56.13
841.349	56.69
841.654	56.86
841.959	57.54
842.265	57.07
842.57	57.27
842.875	58.01
843.18	58.83
843.485	58.84
843.79	57.71
844.095	57.68
844.4	56.86
844.705	56.27
845.01	56.53
845.315	56.57
845.619	57.44
845.924	57.48
846.229	56.01
846.533	55.68
846.838	56.38
847.142	56.5
847.447	57.63
847.751	55.61
848.056	55.51
848.36	55.32
848.664	54.3
848.969	52.81
849.273	50.72
849.577	49.82
849.881	49.1
850.185	50.83
850.489	51.95
850.794	52.38
851.097	53.45
851.401	52.61
851.705	52.93
852.009	53.74
852.313	55.17
852.617	56.48
852.92	56.75
853.224	57.31
853.528	57.35
853.831	57.54
854.135	59
854.438	58.05
854.742	58.81
855.045	61.19
855.349	61.35
855.652	62.81
855.955	63.24
856.259	64.14
856.562	62.39
856.865	61.93
857.168	61.79
857.471	62.19
857.774	62.95
858.077	63.15
858.38	62.88
858.683	61.6
858.986	62.08
859.289	60.39
859.592	58.47
859.894	56.75
860.197	55.67
860.5	57.57
860.802	57.17
861.105	55.62
861.407	53.2
861.71	53.54
862.012	54.17
862.315	53.56
862.617	51.8
862.919	52.31
863.222	54.73
863.524	56.12
863.826	56.39
864.128	54.86
864.43	55.69
864.732	54.2
865.034	56.11
865.336	56.64
865.638	57.49
865.94	57.26
866.242	60.96
866.544	61.91
866.846	59.11
867.147	62.33
867.449	64.85
867.751	66.09
868.052	67.44
868.354	66.17
868.655	65.86
868.957	67.03
869.258	66.33
869.56	64.06
869.861	62.77
870.162	61.48
870.463	64.8
870.765	63.86
871.066	62.16
871.367	58.35
871.668	55.46
871.969	57.07
872.27	55.91
872.571	55.97
872.872	55.77
873.173	57.08
873.473	54.38
873.774	53.79
874.075	54.56
874.376	52.47
874.676	53.05
874.977	54.96
875.277	56.88
875.578	57.25
875.878	56.92
876.179	57.11
876.479	58.02
876.78	56.02
877.08	55.59
877.38	57.39
877.68	60.02
877.981	64.06
878.281	63.69
878.581	67.57
