Data from BA57890_Reflection_00004.txt Node
Date: Mon Nov 18 15:05:56 EST 2019
User: vgr7
Spectrometer: USB2G7710
Scans to average: 3
Trigger mode: 4
Integration Time (sec): 2.000000E-2
Electric dark correction enabled: true
Boxcar width: 10
XAxis mode: Wavelengths
Number of Pixels in Spectrum: 2048
>>>>>Begin Spectral Data<<<<<
177.721	-221.37
178.105	-269.46
178.488	-54.87
178.871	-86.16
179.254	-75.29
179.636	-228.88
180.019	-15.19
180.402	164.29
180.785	1398.51
181.168	-112.69
181.55	-25.25
181.933	18.92
182.316	0.31
182.698	1.86
183.081	28.19
183.463	-30.76
183.846	1.06
184.228	-0.08
184.611	31.37
184.993	-46.04
185.376	1.48
185.758	40.62
186.14	83.31
186.522	84.22
186.904	71.48
187.287	97.87
187.669	179.65
188.051	297.43
188.433	633.1
188.815	-5416.13
189.197	-224.25
189.579	-684.62
189.961	-822.44
190.342	-7278.38
190.724	-2184.4
191.106	689.44
191.488	717.43
191.869	1435.26
192.251	519.24
192.633	4114.08
193.014	429.88
193.396	334.68
193.777	189.53
194.159	186.26
194.54	392.76
194.922	305.62
195.303	383.74
195.684	173.26
196.065	163.75
196.447	148.68
196.828	132.91
197.209	94.44
197.59	131.16
197.971	156.68
198.352	209.58
198.733	516.5
199.114	982.35
199.495	-1027.39
199.876	-178.65
200.257	-148.12
200.638	-69.94
201.018	-65.03
201.399	11.26
201.78	27.86
202.16	7.39
202.541	104.71
202.922	167.59
203.302	319.14
203.683	104.42
204.063	-25.85
204.444	-34.76
204.824	-48.96
205.204	-60.81
205.585	-62.29
205.965	-45.69
206.345	-74.17
206.725	-57.89
207.106	-74.1
207.486	-287.31
207.866	-723.83
208.246	792.31
208.626	-659.34
209.006	-228.3
209.386	259.63
209.766	321.99
210.145	-153.81
210.525	-185.86
210.905	-162.85
211.285	-131.78
211.664	-113.78
212.044	-96.29
212.424	-102.81
212.803	-79.31
213.183	-53.88
213.562	-68.77
213.942	-31.83
214.321	-34.74
214.701	-31.29
215.08	-50.34
215.459	-45.57
215.838	-18.84
216.218	-23.41
216.597	-11.55
216.976	-21.49
217.355	-23.51
217.734	-15.48
218.113	-21.01
218.492	-4.19
218.871	-14.81
219.25	-9.02
219.629	-2.28
220.008	-4.08
220.387	5.18
220.766	1.95
221.144	-6.78
221.523	1.67
221.902	-1.36
222.28	-10.87
222.659	-19.25
223.037	-20.25
223.416	-17.05
223.794	-17.22
224.173	-7.09
224.551	-7.57
224.929	-7.13
225.308	1.54
225.686	-1.54
226.064	-4.67
226.442	-10.44
226.821	-4.85
227.199	-3.02
227.577	-3.88
227.955	-1.88
228.333	-1.48
228.711	1.88
229.089	2.4
229.467	0.99
229.845	-1.74
230.222	0.66
230.6	3.08
230.978	4.74
231.356	3.78
231.733	3.35
232.111	2.6
232.488	2.57
232.866	1.56
233.243	1.98
233.621	0.98
233.998	3.13
234.376	3.12
234.753	4.46
235.13	3.24
235.508	3.03
235.885	3.1
236.262	3.12
236.639	2.05
237.016	2.32
237.393	3.15
237.77	2.65
238.147	3.91
238.524	3.57
238.901	3.94
239.278	4.56
239.655	4.38
240.032	4.02
240.409	3.68
240.785	3.75
241.162	3.97
241.539	4.43
241.915	4.27
242.292	4.51
242.668	4.25
243.045	4.59
243.421	4.59
243.798	4.49
244.174	4.44
244.551	4.65
244.927	4.71
245.303	4.84
245.679	5.23
246.056	4.87
246.432	4.65
246.808	4.55
247.184	4.39
247.56	4.48
247.936	4.57
248.312	4.55
248.688	4.67
249.064	4.48
249.44	4.55
249.815	4.48
250.191	4.57
250.567	4.54
250.943	4.49
251.318	4.37
251.694	4.41
252.069	4.15
252.445	4.23
252.82	4
253.196	4
253.571	3.54
253.947	3.8
254.322	4.28
254.697	4.2
255.073	4.24
255.448	4
255.823	3.87
256.198	4.09
256.573	4.18
256.948	4.44
257.323	4.57
257.698	4.75
258.073	4.44
258.448	4.47
258.823	4.42
259.198	4.46
259.573	4.45
259.948	4.51
260.322	4.45
260.697	4.56
261.072	4.46
261.446	4.61
261.821	4.53
262.195	4.58
262.57	4.57
262.944	4.43
263.319	4.43
263.693	4.33
264.067	4.34
264.442	4.22
264.816	3.93
265.19	3.87
265.564	3.8
265.938	3.93
266.313	3.83
266.687	3.79
267.061	3.81
267.435	3.78
267.809	3.84
268.183	3.83
268.556	3.69
268.93	3.89
269.304	3.88
269.678	3.91
270.051	3.61
270.425	3.6
270.799	3.81
271.172	3.92
271.546	3.98
271.919	3.97
272.293	4.03
272.666	4.16
273.04	4.05
273.413	4
273.787	3.99
274.16	4.11
274.533	4.18
274.906	4.07
275.279	3.99
275.653	4.07
276.026	4.08
276.399	4.09
276.772	4.06
277.145	3.97
277.518	3.91
277.891	4.01
278.263	4.15
278.636	4.12
279.009	4.21
279.382	4.3
279.755	4.25
280.127	4.29
280.5	4.31
280.872	4.52
281.245	4.44
281.617	4.62
281.99	4.75
282.362	4.75
282.735	4.68
283.107	4.67
283.479	4.62
283.852	4.64
284.224	4.63
284.596	4.49
284.968	4.52
285.34	4.56
285.713	4.72
286.085	4.67
286.457	4.8
286.829	4.82
287.201	4.88
287.572	4.88
287.944	4.9
288.316	4.93
288.688	4.76
289.06	4.79
289.431	4.72
289.803	4.61
290.175	4.61
290.546	4.71
290.918	4.84
291.289	4.89
291.661	4.83
292.032	5.03
292.403	5.13
292.775	5.25
293.146	5.29
293.517	5.14
293.889	5.25
294.26	5.13
294.631	5.04
295.002	5.09
295.373	5.17
295.744	5.25
296.115	5.32
296.486	5.35
296.857	5.35
297.228	5.36
297.599	5.3
297.97	5.32
298.34	5.53
298.711	5.67
299.082	5.64
299.452	5.73
299.823	5.69
300.194	5.74
300.564	5.69
300.935	5.83
301.305	5.86
301.676	5.81
302.046	5.86
302.416	5.96
302.787	5.99
303.157	6.06
303.527	6.08
303.897	5.97
304.267	6.09
304.637	6.2
305.008	6.26
305.378	6.53
305.748	6.64
306.117	6.51
306.487	6.43
306.857	6.46
307.227	6.41
307.597	6.51
307.967	6.48
308.336	6.51
308.706	6.51
309.076	6.6
309.445	6.57
309.815	6.5
310.184	6.38
310.554	6.35
310.923	6.3
311.293	6.26
311.662	6.33
312.031	6.25
312.401	6.21
312.77	6.3
313.139	6.25
313.508	6.18
313.877	6.19
314.246	6.24
314.616	6.27
314.985	6.41
315.353	6.32
315.722	6.43
316.091	6.51
316.46	6.36
316.829	6.37
317.198	6.47
317.567	6.49
317.935	6.68
318.304	6.81
318.672	6.66
319.041	6.6
319.41	6.54
319.778	6.57
320.147	6.48
320.515	6.29
320.883	6.23
321.252	6.18
321.62	6.11
321.988	6.11
322.357	6.09
322.725	5.91
323.093	6.04
323.461	5.99
323.829	5.92
324.197	5.94
324.565	5.88
324.933	5.89
325.301	5.99
325.669	6.03
326.037	5.95
326.405	6.06
326.772	6.13
327.14	6.35
327.508	6.39
327.875	6.44
328.243	6.48
328.61	6.48
328.978	6.51
329.346	6.63
329.713	6.58
330.08	6.68
330.448	6.71
330.815	6.54
331.182	6.61
331.55	6.59
331.917	6.73
332.284	6.8
332.651	6.7
333.018	6.66
333.385	6.64
333.752	6.55
334.119	6.57
334.486	6.46
334.853	6.26
335.22	6.29
335.587	6.37
335.954	6.45
336.32	6.37
336.687	6.43
337.054	6.48
337.42	6.54
337.787	6.48
338.153	6.54
338.52	6.67
338.886	6.61
339.253	6.55
339.619	6.45
339.986	6.47
340.352	6.49
340.718	6.54
341.084	6.49
341.451	6.62
341.817	6.72
342.183	6.79
342.549	6.92
342.915	6.95
343.281	6.94
343.647	6.87
344.013	7
344.379	6.96
344.745	6.93
345.11	6.93
345.476	6.96
345.842	6.96
346.208	6.89
346.573	6.95
346.939	7.14
347.304	7.08
347.67	7.06
348.035	7.09
348.401	7.09
348.766	7.07
349.132	6.96
349.497	6.97
349.862	7.08
350.228	7.05
350.593	6.99
350.958	6.98
351.323	7.03
351.688	6.98
352.053	7.06
352.418	7
352.783	7.07
353.148	6.98
353.513	7.03
353.878	7
354.243	7
354.608	7
354.972	7.02
355.337	7.08
355.702	7.17
356.066	7.24
356.431	7.2
356.795	7.3
357.16	7.21
357.524	7.14
357.889	7.16
358.253	7.26
358.618	7.25
358.982	7.22
359.346	7.21
359.71	7.15
360.075	7.23
360.439	7.25
360.803	7.26
361.167	7.23
361.531	7.26
361.895	7.21
362.259	7.18
362.623	7.27
362.987	7.22
363.351	7.18
363.714	7.2
364.078	7.19
364.442	7.19
364.806	7.21
365.169	7.22
365.533	7.21
365.896	7.14
366.26	7.14
366.623	7.13
366.987	7.15
367.35	7.17
367.714	7.17
368.077	7.1
368.44	7.11
368.803	7.11
369.167	7.1
369.53	7.06
369.893	7.14
370.256	7.14
370.619	7.17
370.982	7.18
371.345	7.08
371.708	7.19
372.071	7.18
372.434	7.19
372.797	7.18
373.159	7.18
373.522	7.15
373.885	7.18
374.247	7.23
374.61	7.24
374.973	7.31
375.335	7.28
375.698	7.27
376.06	7.28
376.423	7.28
376.785	7.29
377.147	7.39
377.51	7.33
377.872	7.33
378.234	7.34
378.596	7.34
378.958	7.33
379.321	7.28
379.683	7.27
380.045	7.28
380.407	7.32
380.769	7.3
381.13	7.34
381.492	7.34
381.854	7.42
382.216	7.4
382.578	7.42
382.939	7.37
383.301	7.4
383.663	7.43
384.024	7.5
384.386	7.55
384.747	7.53
385.109	7.56
385.47	7.5
385.832	7.51
386.193	7.57
386.554	7.67
386.916	7.7
387.277	7.76
387.638	7.8
387.999	7.78
388.36	7.79
388.721	7.81
389.082	7.79
389.443	7.71
389.804	7.72
390.165	7.71
390.526	7.75
390.887	7.74
391.248	7.75
391.609	7.75
391.969	7.74
392.33	7.73
392.691	7.75
393.051	7.78
393.412	7.75
393.772	7.72
394.133	7.72
394.493	7.69
394.854	7.65
395.214	7.65
395.574	7.65
395.935	7.67
396.295	7.67
396.655	7.68
397.015	7.74
397.376	7.77
397.736	7.7
398.096	7.72
398.456	7.73
398.816	7.7
399.176	7.66
399.535	7.66
399.895	7.63
400.255	7.61
400.615	7.59
400.975	7.55
401.334	7.55
401.694	7.52
402.054	7.52
402.413	7.51
402.773	7.49
403.132	7.49
403.492	7.52
403.851	7.5
404.211	7.52
404.57	7.48
404.929	7.49
405.288	7.55
405.648	7.53
406.007	7.54
406.366	7.55
406.725	7.57
407.084	7.59
407.443	7.6
407.802	7.62
408.161	7.62
408.52	7.63
408.879	7.65
409.238	7.65
409.596	7.68
409.955	7.69
410.314	7.69
410.673	7.68
411.031	7.65
411.39	7.67
411.748	7.65
412.107	7.65
412.465	7.67
412.824	7.64
413.182	7.63
413.54	7.65
413.899	7.67
414.257	7.7
414.615	7.71
414.974	7.72
415.332	7.71
415.69	7.72
416.048	7.73
416.406	7.72
416.764	7.72
417.122	7.73
417.48	7.7
417.838	7.72
418.195	7.72
418.553	7.72
418.911	7.73
419.269	7.75
419.626	7.74
419.984	7.73
420.342	7.74
420.699	7.75
421.057	7.73
421.414	7.71
421.772	7.69
422.129	7.67
422.486	7.68
422.844	7.66
423.201	7.65
423.558	7.65
423.915	7.65
424.273	7.65
424.63	7.63
424.987	7.66
425.344	7.66
425.701	7.66
426.058	7.67
426.415	7.64
426.772	7.63
427.128	7.62
427.485	7.62
427.842	7.59
428.199	7.58
428.555	7.58
428.912	7.6
429.269	7.61
429.625	7.61
429.982	7.6
430.338	7.61
430.695	7.65
431.051	7.66
431.407	7.67
431.764	7.67
432.12	7.68
432.476	7.7
432.832	7.69
433.189	7.69
433.545	7.66
433.901	7.69
434.257	7.69
434.613	7.71
434.969	7.74
435.325	7.75
435.681	7.76
436.036	7.75
436.392	7.74
436.748	7.72
437.104	7.71
437.459	7.7
437.815	7.71
438.171	7.69
438.526	7.71
438.882	7.73
439.237	7.72
439.593	7.74
439.948	7.73
440.304	7.72
440.659	7.71
441.014	7.75
441.369	7.75
441.725	7.75
442.08	7.75
442.435	7.73
442.79	7.75
443.145	7.74
443.5	7.74
443.855	7.73
444.21	7.74
444.565	7.78
444.92	7.79
445.275	7.78
445.629	7.78
445.984	7.76
446.339	7.74
446.693	7.74
447.048	7.71
447.403	7.7
447.757	7.7
448.112	7.7
448.466	7.68
448.82	7.67
449.175	7.69
449.529	7.68
449.883	7.67
450.238	7.66
450.592	7.66
450.946	7.66
451.3	7.67
451.654	7.68
452.008	7.65
452.362	7.62
452.716	7.63
453.07	7.65
453.424	7.65
453.778	7.64
454.132	7.63
454.486	7.63
454.839	7.64
455.193	7.64
455.547	7.65
455.9	7.65
456.254	7.66
456.607	7.67
456.961	7.65
457.314	7.66
457.668	7.65
458.021	7.62
458.375	7.65
458.728	7.64
459.081	7.63
459.434	7.65
459.787	7.68
460.141	7.66
460.494	7.66
460.847	7.68
461.2	7.69
461.553	7.7
461.906	7.72
462.259	7.73
462.611	7.74
462.964	7.76
463.317	7.78
463.67	7.77
464.022	7.74
464.375	7.77
464.728	7.79
465.08	7.8
465.433	7.82
465.785	7.81
466.138	7.82
466.49	7.84
466.843	7.82
467.195	7.82
467.547	7.87
467.899	7.88
468.252	7.86
468.604	7.86
468.956	7.86
469.308	7.87
469.66	7.86
470.012	7.87
470.364	7.88
470.716	7.86
471.068	7.84
471.42	7.86
471.772	7.85
472.123	7.87
472.475	7.89
472.827	7.91
473.178	7.92
473.53	7.92
473.882	7.92
474.233	7.91
474.585	7.9
474.936	7.87
475.288	7.87
475.639	7.91
475.99	7.92
476.342	7.93
476.693	7.94
477.044	7.95
477.395	7.93
477.746	7.9
478.097	7.92
478.448	7.92
478.8	7.91
479.15	7.93
479.501	7.93
479.852	7.95
480.203	7.96
480.554	7.98
480.905	8.01
481.255	8.01
481.606	8.04
481.957	8.06
482.307	8.07
482.658	8.07
483.009	8.07
483.359	8.08
483.709	8.08
484.06	8.09
484.41	8.09
484.761	8.1
485.111	8.11
485.461	8.12
485.811	8.12
486.162	8.14
486.512	8.15
486.862	8.16
487.212	8.15
487.562	8.15
487.912	8.14
488.262	8.13
488.612	8.13
488.961	8.13
489.311	8.12
489.661	8.12
490.011	8.11
490.36	8.09
490.71	8.09
491.06	8.08
491.409	8.09
491.759	8.08
492.108	8.09
492.458	8.08
492.807	8.06
493.157	8.06
493.506	8.05
493.855	8.04
494.204	8.03
494.554	8.01
494.903	8.01
495.252	8
495.601	8.01
495.95	8.03
496.299	8.01
496.648	8.02
496.997	8.03
497.346	8.06
497.695	8.07
498.043	8.09
498.392	8.11
498.741	8.1
499.09	8.1
499.438	8.09
499.787	8.1
500.135	8.12
500.484	8.14
500.832	8.16
501.181	8.18
501.529	8.2
501.878	8.23
502.226	8.23
502.574	8.25
502.923	8.25
503.271	8.24
503.619	8.27
503.967	8.3
504.315	8.29
504.663	8.31
505.011	8.31
505.359	8.28
505.707	8.27
506.055	8.29
506.403	8.3
506.751	8.31
507.098	8.33
507.446	8.34
507.794	8.33
508.141	8.34
508.489	8.34
508.837	8.34
509.184	8.35
509.531	8.37
509.879	8.38
510.226	8.42
510.574	8.45
510.921	8.43
511.268	8.41
511.616	8.42
511.963	8.42
512.31	8.43
512.657	8.45
513.004	8.48
513.351	8.47
513.698	8.48
514.045	8.49
514.392	8.49
514.739	8.49
515.086	8.53
515.432	8.51
515.779	8.53
516.126	8.57
516.473	8.59
516.819	8.6
517.166	8.58
517.512	8.57
517.859	8.57
518.205	8.59
518.552	8.6
518.898	8.61
519.245	8.6
519.591	8.61
519.937	8.61
520.283	8.6
520.629	8.63
520.976	8.63
521.322	8.64
521.668	8.63
522.014	8.66
522.36	8.66
522.706	8.69
523.052	8.68
523.398	8.68
523.743	8.69
524.089	8.71
524.435	8.73
524.781	8.76
525.126	8.78
525.472	8.79
525.817	8.8
526.163	8.81
526.509	8.83
526.854	8.83
527.199	8.85
527.545	8.84
527.89	8.84
528.235	8.84
528.581	8.84
528.926	8.85
529.271	8.85
529.616	8.84
529.961	8.84
530.306	8.85
530.651	8.85
530.996	8.84
531.341	8.84
531.686	8.84
532.031	8.83
532.376	8.83
532.721	8.82
533.065	8.83
533.41	8.83
533.755	8.82
534.099	8.82
534.444	8.82
534.788	8.83
535.133	8.83
535.477	8.85
535.822	8.85
536.166	8.86
536.51	8.86
536.855	8.86
537.199	8.85
537.543	8.85
537.887	8.86
538.231	8.86
538.576	8.86
538.92	8.88
539.264	8.87
539.608	8.88
539.951	8.89
540.295	8.89
540.639	8.9
540.983	8.9
541.327	8.9
541.671	8.88
542.014	8.89
542.358	8.9
542.701	8.89
543.045	8.9
543.389	8.89
543.732	8.9
544.075	8.92
544.419	8.93
544.762	8.92
545.105	8.91
545.449	8.93
545.792	8.93
546.135	8.92
546.478	8.92
546.821	8.9
547.165	8.89
547.508	8.9
547.851	8.9
548.194	8.89
548.536	8.9
548.879	8.92
549.222	8.93
549.565	8.92
549.908	8.94
550.25	8.95
550.593	8.99
550.936	8.98
551.278	8.98
551.621	8.99
551.963	9.01
552.306	8.98
552.648	8.97
552.991	9.01
553.333	9.03
553.675	9
554.017	9.02
554.36	9.03
554.702	9.04
555.044	9.03
555.386	9.03
555.728	9.05
556.07	9.05
556.412	9.04
556.754	9.04
557.096	9.04
557.438	9
557.78	8.98
558.121	9
558.463	8.98
558.805	8.98
559.147	8.95
559.488	8.99
559.83	9
560.171	9
560.513	9.02
560.854	9.02
561.196	9.04
561.537	9.05
561.878	9.06
562.22	9.06
562.561	9.06
562.902	9.06
563.243	9.08
563.584	9.08
563.925	9.1
564.266	9.09
564.607	9.1
564.948	9.09
565.289	9.06
565.63	9.06
565.971	9.06
566.312	9.09
566.653	9.09
566.993	9.11
567.334	9.08
567.675	9.06
568.015	9.08
568.356	9.07
568.696	9.06
569.037	9.04
569.377	9.04
569.718	9.08
570.058	9.07
570.398	9.07
570.739	9.06
571.079	9.05
571.419	9.06
571.759	9.06
572.099	9.08
572.439	9.1
572.779	9.12
573.119	9.14
573.459	9.15
573.799	9.17
574.139	9.13
574.479	9.15
574.819	9.16
575.158	9.17
575.498	9.17
575.838	9.21
576.177	9.2
576.517	9.2
576.856	9.19
577.196	9.21
577.535	9.21
577.875	9.23
578.214	9.23
578.553	9.25
578.893	9.25
579.232	9.27
579.571	9.3
579.91	9.28
580.25	9.28
580.589	9.29
580.928	9.26
581.267	9.31
581.606	9.32
581.945	9.3
582.283	9.32
582.622	9.31
582.961	9.26
583.3	9.29
583.639	9.37
583.977	9.35
584.316	9.33
584.654	9.36
584.993	9.38
585.332	9.38
585.67	9.34
586.008	9.36
586.347	9.34
586.685	9.32
587.024	9.32
587.362	9.28
587.7	9.3
588.038	9.33
588.376	9.33
588.715	9.32
589.053	9.32
589.391	9.3
589.729	9.33
590.067	9.37
590.404	9.32
590.742	9.29
591.08	9.29
591.418	9.31
591.756	9.29
592.093	9.32
592.431	9.36
592.769	9.4
593.106	9.42
593.444	9.4
593.781	9.4
594.119	9.43
594.456	9.48
594.793	9.45
595.131	9.44
595.468	9.46
595.805	9.46
596.143	9.47
596.48	9.5
596.817	9.5
597.154	9.49
597.491	9.54
597.828	9.52
598.165	9.55
598.502	9.53
598.839	9.52
599.176	9.49
599.512	9.46
599.849	9.45
600.186	9.48
600.523	9.5
600.859	9.54
601.196	9.57
601.532	9.58
601.869	9.58
602.205	9.54
602.542	9.55
602.878	9.55
603.215	9.53
603.551	9.55
603.887	9.54
604.223	9.54
604.56	9.53
604.896	9.51
605.232	9.51
605.568	9.48
605.904	9.51
606.24	9.53
606.576	9.57
606.912	9.57
607.248	9.52
607.583	9.56
607.919	9.54
608.255	9.5
608.591	9.48
608.926	9.51
609.262	9.55
609.597	9.51
609.933	9.52
610.268	9.56
610.604	9.57
610.939	9.57
611.275	9.58
611.61	9.56
611.945	9.63
612.281	9.63
612.616	9.68
612.951	9.69
613.286	9.66
613.621	9.66
613.956	9.63
614.291	9.64
614.626	9.63
614.961	9.64
615.296	9.61
615.631	9.65
615.966	9.64
616.3	9.6
616.635	9.64
616.97	9.69
617.304	9.65
617.639	9.62
617.973	9.61
618.308	9.61
618.642	9.63
618.977	9.62
619.311	9.62
619.646	9.6
619.98	9.54
620.314	9.59
620.648	9.58
620.983	9.65
621.317	9.68
621.651	9.68
621.985	9.69
622.319	9.7
622.653	9.69
622.987	9.69
623.321	9.76
623.655	9.81
623.988	9.8
624.322	9.78
624.656	9.8
624.99	9.85
625.323	9.89
625.657	9.93
625.99	9.94
626.324	9.96
626.657	10
626.991	10.04
627.324	10.01
627.658	10.02
627.991	10.03
628.324	10.04
628.657	10.06
628.991	10.03
629.324	10.06
629.657	10.05
629.99	10.05
630.323	10.03
630.656	9.98
630.989	9.93
631.322	9.96
631.655	10
631.987	10.03
632.32	9.97
632.653	9.93
632.986	9.88
633.318	9.91
633.651	9.89
633.984	9.87
634.316	9.87
634.649	9.87
634.981	9.83
635.313	9.81
635.646	9.8
635.978	9.84
636.31	9.83
636.643	9.79
636.975	9.83
637.307	9.85
637.639	9.84
637.971	9.91
638.303	9.89
638.635	9.79
638.967	9.72
639.299	9.81
639.631	9.84
639.963	9.89
640.295	9.85
640.626	9.89
640.958	9.9
641.29	9.95
641.621	9.96
641.953	9.91
642.285	9.93
642.616	9.94
642.948	9.89
643.279	9.87
643.61	9.86
643.942	9.77
644.273	9.75
644.604	9.81
644.936	9.68
645.267	9.71
645.598	9.67
645.929	9.79
646.26	9.69
646.591	9.71
646.922	9.7
647.253	9.68
647.584	9.67
647.915	9.62
648.245	9.62
648.576	9.59
648.907	9.68
649.238	9.61
649.568	9.58
649.899	9.57
650.229	9.67
650.56	9.67
650.89	9.76
651.221	9.77
651.551	9.71
651.882	9.81
652.212	9.86
652.542	9.97
652.872	9.83
653.203	9.87
653.533	9.87
653.863	9.85
654.193	9.87
654.523	9.87
654.853	9.99
655.183	9.96
655.513	10.01
655.843	10.02
656.172	10.1
656.502	10.15
656.832	10.15
657.162	10.1
657.491	10.13
657.821	10.16
658.15	10.16
658.48	10.2
658.809	10.19
659.139	10.14
659.468	10.07
659.798	10.12
660.127	10.18
660.456	10.22
660.785	10.21
661.115	10.23
661.444	10.25
661.773	10.27
662.102	10.27
662.431	10.28
662.76	10.26
663.089	10.27
663.418	10.19
663.747	10.24
664.076	10.32
664.404	10.25
664.733	10.23
665.062	10.21
665.39	10.21
665.719	10.17
666.048	10.24
666.376	10.25
666.705	10.19
667.033	10.09
667.362	10.06
667.69	10.1
668.018	10.09
668.347	10.07
668.675	9.97
669.003	9.99
669.331	9.99
669.659	10.02
669.987	9.99
670.315	10.08
670.643	10.11
670.971	10.1
671.299	10.21
671.627	10.15
671.955	10.17
672.283	10.14
672.61	10.17
672.938	10.1
673.266	10.21
673.593	10.42
673.921	10.47
674.249	10.46
674.576	10.46
674.904	10.48
675.231	10.5
675.558	10.54
675.886	10.53
676.213	10.54
676.54	10.53
676.867	10.56
677.195	10.5
677.522	10.43
677.849	10.32
678.176	10.29
678.503	10.3
678.83	10.3
679.157	10.28
679.484	10.32
679.81	10.37
680.137	10.23
680.464	10.11
680.791	10.17
681.117	10.14
681.444	10.15
681.771	10.12
682.097	10.18
682.424	10.29
682.75	10.25
683.077	10.18
683.403	10.26
683.729	10.21
684.056	10.32
684.382	10.37
684.708	10.43
685.034	10.45
685.36	10.4
685.686	10.44
686.012	10.52
686.339	10.53
686.664	10.45
686.99	10.53
687.316	10.54
687.642	10.53
687.968	10.62
688.294	10.67
688.619	10.71
688.945	10.67
689.271	10.48
689.596	10.49
689.922	10.6
690.247	10.53
690.573	10.59
690.898	10.56
691.224	10.53
691.549	10.55
691.874	10.55
692.2	10.67
692.525	10.8
692.85	10.84
693.175	10.78
693.5	10.87
693.825	11.03
694.15	11.01
694.475	11.06
694.8	11.14
695.125	11.08
695.45	11.06
695.775	11.04
696.099	11.2
696.424	11.33
696.749	11.26
697.073	11.29
697.398	11.36
697.723	11.39
698.047	11.42
698.372	11.42
698.696	11.5
699.02	11.47
699.345	11.38
699.669	11.32
699.993	11.34
700.318	11.34
700.642	11.34
700.966	11.36
701.29	11.3
701.614	11.21
701.938	11.18
702.262	11.34
702.586	11.34
702.91	11.23
703.234	11.09
703.557	11.18
703.881	11.07
704.205	11.03
704.529	10.99
704.852	11.13
705.176	11.14
705.499	11.06
705.823	11.06
706.146	11.01
706.47	11.15
706.793	11.22
707.117	11.29
707.44	11.17
707.763	11.27
708.086	11.11
708.409	11.01
708.733	11.26
709.056	11.15
709.379	11.3
709.702	11.28
710.025	11.4
710.348	11.26
710.671	11.31
710.993	11.24
711.316	11.25
711.639	11.2
711.962	11.27
712.284	11.36
712.607	11.45
712.93	11.42
713.252	11.26
713.575	11.22
713.897	11.17
714.22	11.21
714.542	11.26
714.864	11.48
715.187	11.59
715.509	11.51
715.831	11.54
716.153	11.55
716.475	11.62
716.798	11.62
717.12	11.78
717.442	11.79
717.764	11.76
718.085	11.79
718.407	11.68
718.729	11.57
719.051	11.6
719.373	11.51
719.695	11.54
720.016	11.71
720.338	11.82
720.659	11.88
720.981	11.8
721.302	11.71
721.624	11.65
721.945	11.64
722.267	11.55
722.588	11.54
722.909	11.27
723.231	11.25
723.552	11.21
723.873	11.06
724.194	11.03
724.515	11.09
724.836	10.99
725.157	11.21
725.478	11.15
725.799	11.08
726.12	11.13
726.441	11.19
726.762	11.15
727.083	11.09
727.403	11.09
727.724	11.31
728.045	11.36
728.365	11.3
728.686	11.24
729.006	11.33
729.327	11.4
729.647	11.49
729.967	11.44
730.288	11.46
730.608	11.44
730.928	11.48
731.249	11.44
731.569	11.67
731.889	11.56
732.209	11.62
732.529	11.62
732.849	11.52
733.169	11.55
733.489	11.56
733.809	11.56
734.129	11.61
734.448	11.54
734.768	11.37
735.088	11.46
735.408	11.51
735.727	11.58
736.047	11.5
736.366	11.5
736.686	11.75
737.005	11.59
737.325	11.51
737.644	11.61
737.963	11.58
738.283	11.34
738.602	11.3
738.921	11.58
739.24	11.53
739.56	11.48
739.879	11.46
740.198	11.42
740.517	11.51
740.836	11.41
741.155	11.32
741.473	11.52
741.792	11.45
742.111	11.41
742.43	11.26
742.748	11.34
743.067	11.38
743.386	11.19
743.704	11.44
744.023	11.77
744.341	11.67
744.66	11.94
744.978	11.74
745.297	11.6
745.615	11.52
745.933	11.63
746.252	11.72
746.57	11.81
746.888	11.89
747.206	11.81
747.524	11.87
747.842	11.99
748.16	12.14
748.478	12.2
748.796	12.14
749.114	12.34
749.432	12.14
749.749	12.16
750.067	12.23
750.385	12.22
750.703	12.1
751.02	12.1
751.338	11.92
751.655	12.15
751.973	12.41
752.29	12.33
752.608	12.19
752.925	12.5
753.242	12.36
753.56	12.4
753.877	12.38
754.194	12.48
754.511	12.3
754.828	11.85
755.145	11.88
755.462	11.9
755.779	11.82
756.096	11.95
756.413	11.88
756.73	11.9
757.047	11.89
757.364	12.01
757.68	12.09
757.997	12.32
758.314	12.5
758.63	12.27
758.947	11.97
759.264	12.3
759.58	12.03
759.896	12.36
760.213	12.5
760.529	12.66
760.846	12.56
761.162	12.58
761.478	12.75
761.794	12.7
762.11	12.62
762.426	12.61
762.743	12.67
763.059	12.72
763.375	12.81
763.69	13.07
764.006	13.3
764.322	13.29
764.638	13.39
764.954	13.27
765.27	13.37
765.585	13.55
765.901	13.64
766.216	13.76
766.532	13.67
766.848	13.3
767.163	13.4
767.478	13.51
767.794	13.75
768.109	13.75
768.424	13.93
768.74	14.23
769.055	14.22
769.37	14.2
769.685	14.05
770	13.9
770.315	13.69
770.63	13.43
770.945	13.29
771.26	13.11
771.575	13.19
771.89	13.3
772.205	13.54
772.52	13.02
772.834	12.88
773.149	12.91
773.464	13.24
773.778	13.15
774.093	12.67
774.407	12.65
774.722	12.7
775.036	12.77
775.351	12.56
775.665	12.1
775.979	12.17
776.293	12.19
776.608	12.11
776.922	11.64
777.236	11.7
777.55	11.96
777.864	11.54
778.178	11.53
778.492	11.49
778.806	11.22
779.12	11.18
779.434	11.36
779.747	11.22
780.061	11.26
780.375	11.13
780.689	11.69
781.002	11.75
781.316	12.34
781.629	12.34
781.943	12.97
782.256	13.45
782.57	13.32
782.883	13.72
783.196	14.04
783.51	13.92
783.823	13.55
784.136	13.69
784.449	14.16
784.762	14.32
785.075	13.9
785.388	13.95
785.701	13.95
786.014	13.82
786.327	13.75
786.64	14.15
786.953	14.14
787.266	13.75
787.578	13.96
787.891	13.48
788.204	13.23
788.516	12.84
788.829	13.25
789.141	13.76
789.454	13.66
789.766	13.92
790.079	14.32
790.391	14.09
790.703	14.26
791.016	14.07
791.328	13.81
791.64	14.47
791.952	14.38
792.264	14.33
792.576	14.48
792.888	14.84
793.2	14.39
793.512	14.06
793.824	14.04
794.136	13.47
794.448	13.38
794.76	13.35
795.071	13.05
795.383	12.95
795.695	12.2
796.006	11.91
796.318	11.42
796.629	11.74
796.941	12.26
797.252	11.96
797.564	12.68
797.875	12.57
798.186	12.25
798.497	12.37
798.809	12.62
799.12	12.8
799.431	12.81
799.742	13.07
800.053	13.72
800.364	14.11
800.675	14.02
800.986	13.94
801.297	13.84
801.608	13.6
801.918	13.01
802.229	13.72
802.54	14.03
802.851	14.28
803.161	14.2
803.472	14.4
803.782	14.37
804.093	13.81
804.403	13.95
804.714	13.4
805.024	13.01
805.334	13.2
805.645	12.78
805.955	12.65
806.265	12.55
806.575	12.37
806.885	12.35
807.195	12.64
807.505	12.4
807.815	13.19
808.125	13.71
808.435	14.05
808.745	13.62
809.055	13.76
809.365	13.37
809.674	12.97
809.984	12.98
810.294	12.42
810.603	11.98
810.913	12.32
811.222	13.36
811.532	13.78
811.841	13.98
812.151	14.23
812.46	14.22
812.769	13.61
813.079	12.98
813.388	13.38
813.697	13.58
814.006	13.85
814.315	12.93
814.624	12.75
814.933	13.15
815.242	13.59
815.551	13.62
815.86	13.73
816.169	13.86
816.478	13.5
816.786	14.05
817.095	14.78
817.404	14.84
817.712	15.03
818.021	15.58
818.33	15.36
818.638	15.34
818.947	15.49
819.255	16.2
819.563	16.34
819.872	15.47
820.18	15.56
820.488	15.63
820.796	15.7
821.105	15.53
821.413	15.38
821.721	15.18
822.029	15.06
822.337	14.96
822.645	14.91
822.953	15.1
823.26	15.04
823.568	14.79
823.876	14.8
824.184	14.83
824.491	14.77
824.799	14.82
825.107	14.8
825.414	14.75
825.722	14.64
826.029	14.73
826.337	15.02
826.644	14.91
826.951	14.81
827.259	14.8
827.566	14.86
827.873	14.85
828.18	14.84
828.488	14.95
828.795	14.96
829.102	15.08
829.409	14.92
829.716	15.09
830.023	15.38
830.329	15.26
830.636	15.04
830.943	14.65
831.25	14.66
831.557	14.97
831.863	14.84
832.17	14.77
832.476	14.99
832.783	15.04
833.089	15.26
833.396	15.52
833.702	15.55
834.009	15.76
834.315	15.45
834.621	16
834.928	15.96
835.234	15.98
835.54	16.01
835.846	15.57
836.152	15.36
836.458	15.32
836.764	15.71
837.07	15.06
837.376	15.49
837.682	15.22
837.988	15.04
838.293	15.13
838.599	15.45
838.905	14.37
839.211	14.04
839.516	14.02
839.822	14.19
840.127	13.92
840.433	13.65
840.738	14.24
841.044	13.48
841.349	13.56
841.654	14.47
841.959	13.99
842.265	14.97
842.57	14.96
842.875	15.99
843.18	15.76
843.485	17.1
843.79	16.68
844.095	16.07
844.4	15.98
844.705	14.84
845.01	13.72
845.315	13.71
845.619	13.1
845.924	13.1
846.229	13.05
846.533	14.2
846.838	13.73
847.142	13.65
847.447	12.99
847.751	13.06
848.056	10.85
848.36	11.97
848.664	11.53
848.969	12.13
849.273	9.26
849.577	8.99
849.881	9.43
850.185	10.63
850.489	12.1
850.794	11.14
851.097	11.56
851.401	11.39
851.705	11.96
852.009	14.18
852.313	14.03
852.617	12.04
852.92	12.46
853.224	14.05
853.528	15.11
853.831	15.13
854.135	15.88
854.438	17.07
854.742	16.17
855.045	15.27
855.349	15.01
855.652	15.95
855.955	14.87
856.259	13.79
856.562	12.74
856.865	12.83
857.168	14.54
857.471	17.86
857.774	19.66
858.077	20.62
858.38	18.64
858.683	16.56
858.986	16.69
859.289	14.31
859.592	13.5
859.894	11.46
860.197	11.42
860.5	10.43
860.802	11.26
861.105	12.84
861.407	12.39
861.71	11.85
862.012	11.51
862.315	11.26
862.617	12.19
862.919	11.98
863.222	13.23
863.524	12.98
863.826	12.75
864.128	11.16
864.43	10.84
864.732	11.03
865.034	11.12
865.336	12.27
865.638	12.87
865.94	10.66
866.242	12.26
866.544	10.98
866.846	10.51
867.147	10.8
867.449	10.43
867.751	11.07
868.052	12.02
868.354	13.72
868.655	14.95
868.957	14.36
869.258	15.61
869.56	15.07
869.861	13.45
870.162	11.3
870.463	16.2
870.765	14.36
871.066	14.26
871.367	15.05
871.668	13.7
871.969	13.4
872.27	15.98
872.571	14.2
872.872	16.27
873.173	14.16
873.473	12.67
873.774	13.6
874.075	14.55
874.376	14.14
874.676	14.47
874.977	13.46
875.277	14.92
875.578	14.52
875.878	13.1
876.179	13.87
876.479	14.53
876.78	8.58
877.08	10.91
877.38	10.97
877.68	11.01
877.981	12.99
878.281	14.14
878.581	13.94
