Data from BA57710_Reflection_00004.txt Node
Date: Mon Nov 18 15:31:44 EST 2019
User: vgr7
Spectrometer: USB2G7710
Scans to average: 3
Trigger mode: 4
Integration Time (sec): 2.000000E-2
Electric dark correction enabled: true
Boxcar width: 10
XAxis mode: Wavelengths
Number of Pixels in Spectrum: 2048
>>>>>Begin Spectral Data<<<<<
177.721	-43.94
178.105	-84.92
178.488	-51.58
178.871	-114.16
179.254	-670.19
179.636	-98.45
180.019	-215.68
180.402	97.22
180.785	153.93
181.168	162.5
181.55	143.55
181.933	113.76
182.316	181.45
182.698	357.1
183.081	623.36
183.463	-1129.57
183.846	-855.63
184.228	-253.46
184.611	-321.05
184.993	-97.72
185.376	-97.08
185.758	-81.06
186.14	-96.62
186.522	-86.84
186.904	-125.35
187.287	-266.61
187.669	-13.25
188.051	-48.51
188.433	103.06
188.815	101.27
189.197	149.8
189.579	107.56
189.961	79.77
190.342	128.13
190.724	100.61
191.106	91.95
191.488	100.59
191.869	90.02
192.251	96.25
192.633	94.14
193.014	91.22
193.396	106.67
193.777	72.42
194.159	50.23
194.54	48.66
194.922	49.3
195.303	61.98
195.684	57.24
196.065	70.94
196.447	73.84
196.828	63.17
197.209	37.29
197.59	40.11
197.971	67.59
198.352	38.03
198.733	37.15
199.114	56.65
199.495	60.89
199.876	74.89
200.257	60.68
200.638	55.27
201.018	53.38
201.399	44.02
201.78	46.05
202.16	50.1
202.541	51.33
202.922	53.42
203.302	35.64
203.683	24.78
204.063	10.8
204.444	7.76
204.824	8.34
205.204	18.06
205.585	18.26
205.965	17.8
206.345	13.13
206.725	12.81
207.106	-9.9
207.486	-18.78
207.866	-15.56
208.246	-11.34
208.626	-14.02
209.006	-14.56
209.386	-6.02
209.766	-11.16
210.145	-16.07
210.525	-3.43
210.905	-4.16
211.285	20
211.664	17.85
212.044	35.7
212.424	31.63
212.803	34.5
213.183	32.5
213.562	42.11
213.942	45.5
214.321	47.38
214.701	45.48
215.08	67.03
215.459	49.59
215.838	50.33
216.218	52.81
216.597	40.12
216.976	55.57
217.355	43.82
217.734	46.08
218.113	56.41
218.492	47.43
218.871	47.7
219.25	44.65
219.629	46.65
220.008	36.05
220.387	42.16
220.766	42.78
221.144	33.06
221.523	30.52
221.902	17.34
222.28	28.24
222.659	34.56
223.037	34.1
223.416	42.44
223.794	38.46
224.173	37.17
224.551	30.54
224.929	27.03
225.308	32.26
225.686	27.29
226.064	23.13
226.442	19.51
226.821	17.74
227.199	12.95
227.577	12.76
227.955	15.67
228.333	14.55
228.711	17.34
229.089	17.13
229.467	13.6
229.845	14.42
230.222	15.81
230.6	14.07
230.978	13.65
231.356	12.97
231.733	12.74
232.111	11.19
232.488	11.51
232.866	11.77
233.243	11.42
233.621	10.94
233.998	11.51
234.376	11.13
234.753	11.64
235.13	11.39
235.508	9.77
235.885	10.82
236.262	9.14
236.639	8.72
237.016	9.1
237.393	9.74
237.77	9.51
238.147	8.16
238.524	7.49
238.901	7.35
239.278	6.81
239.655	7.18
240.032	7.12
240.409	6.68
240.785	6.21
241.162	5.29
241.539	4.87
241.915	5.17
242.292	4.94
242.668	5.01
243.045	5.51
243.421	5.32
243.798	5.24
244.174	5.52
244.551	5.27
244.927	4.95
245.303	5.19
245.679	5.04
246.056	4.95
246.432	5
246.808	5.18
247.184	4.91
247.56	4.77
247.936	4.96
248.312	5.11
248.688	5.25
249.064	5.35
249.44	5.66
249.815	5.82
250.191	5.93
250.567	5.69
250.943	5.46
251.318	5.73
251.694	5.45
252.069	5.14
252.445	5.11
252.82	5.28
253.196	5.11
253.571	5.32
253.947	5.38
254.322	5.85
254.697	5.32
255.073	5.35
255.448	5.07
255.823	4.69
256.198	4.56
256.573	4.33
256.948	4.39
257.323	4.37
257.698	4.08
258.073	4.1
258.448	4.28
258.823	4.31
259.198	3.96
259.573	4.12
259.948	4.15
260.322	4.18
260.697	4.09
261.072	4.11
261.446	4.1
261.821	3.98
262.195	3.92
262.57	4
262.944	4.15
263.319	4.25
263.693	4.37
264.067	4.42
264.442	4.54
264.816	4.52
265.19	4.48
265.564	4.44
265.938	4.3
266.313	4.2
266.687	4.28
267.061	4.62
267.435	4.75
267.809	4.84
268.183	4.92
268.556	5
268.93	4.9
269.304	4.91
269.678	5.1
270.051	4.93
270.425	4.94
270.799	4.82
271.172	4.86
271.546	4.78
271.919	4.67
272.293	4.58
272.666	4.62
273.04	4.69
273.413	4.83
273.787	4.89
274.16	4.83
274.533	4.66
274.906	4.66
275.279	4.5
275.653	4.46
276.026	4.37
276.399	4.43
276.772	4.59
277.145	4.48
277.518	4.39
277.891	4.55
278.263	4.5
278.636	4.58
279.009	4.46
279.382	4.67
279.755	4.69
280.127	4.73
280.5	4.78
280.872	4.69
281.245	4.55
281.617	4.85
281.99	4.96
282.362	5.01
282.735	5.05
283.107	5.07
283.479	5.13
283.852	5.01
284.224	4.9
284.596	4.87
284.968	4.85
285.34	4.88
285.713	4.84
286.085	4.89
286.457	4.81
286.829	4.85
287.201	4.76
287.572	4.72
287.944	4.82
288.316	4.73
288.688	4.79
289.06	4.77
289.431	4.62
289.803	4.72
290.175	4.9
290.546	4.94
290.918	4.93
291.289	4.9
291.661	5.1
292.032	5.3
292.403	5.22
292.775	5.36
293.146	5.26
293.517	5.11
293.889	5.04
294.26	5.07
294.631	5.21
295.002	5.07
295.373	5.17
295.744	5.1
296.115	5.23
296.486	5.13
296.857	5.24
297.228	5.08
297.599	4.91
297.97	4.79
298.34	4.78
298.711	4.79
299.082	4.76
299.452	4.67
299.823	4.66
300.194	4.63
300.564	4.67
300.935	4.86
301.305	4.92
301.676	5.1
302.046	5.2
302.416	5.19
302.787	5.23
303.157	5.18
303.527	5.15
303.897	5.14
304.267	5.25
304.637	5.31
305.008	5.47
305.378	5.78
305.748	5.73
306.117	5.58
306.487	5.58
306.857	5.6
307.227	5.66
307.597	5.62
307.967	5.7
308.336	5.64
308.706	5.57
309.076	5.62
309.445	5.51
309.815	5.42
310.184	5.31
310.554	5.42
310.923	5.45
311.293	5.42
311.662	5.3
312.031	5.25
312.401	5.15
312.77	5.13
313.139	4.98
313.508	5.01
313.877	5.08
314.246	5.16
314.616	5.17
314.985	5.2
315.353	5.12
315.722	4.97
316.091	4.93
316.46	4.89
316.829	4.87
317.198	4.88
317.567	4.97
317.935	4.89
318.304	4.93
318.672	4.89
319.041	4.97
319.41	5.1
319.778	5.04
320.147	5.09
320.515	5.04
320.883	4.99
321.252	5.11
321.62	5.14
321.988	5.09
322.357	4.95
322.725	4.87
323.093	4.85
323.461	5
323.829	4.92
324.197	4.83
324.565	4.96
324.933	4.93
325.301	4.95
325.669	5.06
326.037	5.15
326.405	5.16
326.772	5.23
327.14	5.24
327.508	5.26
327.875	5.11
328.243	5.22
328.61	5.09
328.978	5.05
329.346	5.04
329.713	5.05
330.08	5.25
330.448	5.21
330.815	5.16
331.182	5.24
331.55	5.21
331.917	5.26
332.284	5.21
332.651	5.29
333.018	5.21
333.385	5.17
333.752	5.03
334.119	5.01
334.486	4.85
334.853	4.77
335.22	4.74
335.587	4.8
335.954	4.69
336.32	4.78
336.687	4.79
337.054	4.72
337.42	4.74
337.787	4.75
338.153	4.71
338.52	4.85
338.886	4.66
339.253	4.64
339.619	4.67
339.986	4.61
340.352	4.59
340.718	4.6
341.084	4.57
341.451	4.59
341.817	4.56
342.183	4.59
342.549	4.63
342.915	4.63
343.281	4.62
343.647	4.62
344.013	4.68
344.379	4.66
344.745	4.69
345.11	4.64
345.476	4.52
345.842	4.64
346.208	4.6
346.573	4.69
346.939	4.76
347.304	4.82
347.67	4.8
348.035	4.9
348.401	4.8
348.766	4.82
349.132	4.78
349.497	4.83
349.862	4.85
350.228	4.87
350.593	4.76
350.958	4.78
351.323	4.83
351.688	4.83
352.053	4.79
352.418	4.84
352.783	4.94
353.148	5.02
353.513	4.92
353.878	5
354.243	5.03
354.608	5.03
354.972	4.98
355.337	5.03
355.702	4.99
356.066	5.04
356.431	5.11
356.795	5.14
357.16	5.13
357.524	5.07
357.889	5.02
358.253	5.11
358.618	5.16
358.982	5.07
359.346	5
359.71	4.99
360.075	4.97
360.439	4.93
360.803	4.91
361.167	4.92
361.531	4.94
361.895	4.94
362.259	4.97
362.623	4.96
362.987	4.91
363.351	4.9
363.714	4.95
364.078	4.85
364.442	4.8
364.806	4.77
365.169	4.78
365.533	4.8
365.896	4.83
366.26	4.83
366.623	4.89
366.987	4.92
367.35	4.96
367.714	4.9
368.077	4.85
368.44	4.82
368.803	4.81
369.167	4.68
369.53	4.62
369.893	4.58
370.256	4.6
370.619	4.63
370.982	4.61
371.345	4.6
371.708	4.66
372.071	4.7
372.434	4.73
372.797	4.71
373.159	4.65
373.522	4.58
373.885	4.57
374.247	4.56
374.61	4.58
374.973	4.53
375.335	4.56
375.698	4.6
376.06	4.57
376.423	4.58
376.785	4.61
377.147	4.66
377.51	4.65
377.872	4.64
378.234	4.63
378.596	4.61
378.958	4.59
379.321	4.56
379.683	4.61
380.045	4.61
380.407	4.66
380.769	4.7
381.13	4.71
381.492	4.68
381.854	4.74
382.216	4.67
382.578	4.7
382.939	4.71
383.301	4.68
383.663	4.69
384.024	4.72
384.386	4.77
384.747	4.78
385.109	4.78
385.47	4.73
385.832	4.75
386.193	4.76
386.554	4.73
386.916	4.76
387.277	4.69
387.638	4.7
387.999	4.67
388.36	4.66
388.721	4.71
389.082	4.72
389.443	4.65
389.804	4.68
390.165	4.66
390.526	4.67
390.887	4.66
391.248	4.73
391.609	4.68
391.969	4.65
392.33	4.63
392.691	4.61
393.051	4.64
393.412	4.65
393.772	4.61
394.133	4.6
394.493	4.59
394.854	4.61
395.214	4.62
395.574	4.62
395.935	4.63
396.295	4.6
396.655	4.56
397.015	4.56
397.376	4.53
397.736	4.55
398.096	4.5
398.456	4.53
398.816	4.44
399.176	4.43
399.535	4.41
399.895	4.4
400.255	4.42
400.615	4.42
400.975	4.41
401.334	4.39
401.694	4.41
402.054	4.41
402.413	4.4
402.773	4.34
403.132	4.33
403.492	4.32
403.851	4.32
404.211	4.35
404.57	4.38
404.929	4.42
405.288	4.4
405.648	4.39
406.007	4.36
406.366	4.39
406.725	4.44
407.084	4.46
407.443	4.46
407.802	4.47
408.161	4.42
408.52	4.41
408.879	4.43
409.238	4.43
409.596	4.4
409.955	4.42
410.314	4.44
410.673	4.44
411.031	4.42
411.39	4.41
411.748	4.41
412.107	4.44
412.465	4.41
412.824	4.43
413.182	4.45
413.54	4.44
413.899	4.45
414.257	4.44
414.615	4.42
414.974	4.41
415.332	4.4
415.69	4.42
416.048	4.38
416.406	4.4
416.764	4.37
417.122	4.4
417.48	4.37
417.838	4.37
418.195	4.34
418.553	4.34
418.911	4.36
419.269	4.36
419.626	4.33
419.984	4.32
420.342	4.3
420.699	4.29
421.057	4.28
421.414	4.26
421.772	4.22
422.129	4.23
422.486	4.23
422.844	4.22
423.201	4.21
423.558	4.22
423.915	4.21
424.273	4.2
424.63	4.19
424.987	4.18
425.344	4.17
425.701	4.19
426.058	4.18
426.415	4.16
426.772	4.13
427.128	4.13
427.485	4.13
427.842	4.13
428.199	4.14
428.555	4.15
428.912	4.16
429.269	4.2
429.625	4.18
429.982	4.18
430.338	4.17
430.695	4.18
431.051	4.17
431.407	4.16
431.764	4.18
432.12	4.17
432.476	4.17
432.832	4.16
433.189	4.17
433.545	4.18
433.901	4.18
434.257	4.17
434.613	4.19
434.969	4.19
435.325	4.18
435.681	4.17
436.036	4.17
436.392	4.19
436.748	4.18
437.104	4.18
437.459	4.18
437.815	4.18
438.171	4.18
438.526	4.2
438.882	4.21
439.237	4.22
439.593	4.24
439.948	4.24
440.304	4.23
440.659	4.23
441.014	4.24
441.369	4.23
441.725	4.25
442.08	4.25
442.435	4.25
442.79	4.25
443.145	4.26
443.5	4.26
443.855	4.24
444.21	4.24
444.565	4.24
444.92	4.23
445.275	4.22
445.629	4.2
445.984	4.2
446.339	4.17
446.693	4.14
447.048	4.12
447.403	4.11
447.757	4.12
448.112	4.1
448.466	4.08
448.82	4.09
449.175	4.08
449.529	4.07
449.883	4.06
450.238	4.06
450.592	4.04
450.946	4.03
451.3	4.02
451.654	4.01
452.008	4.01
452.362	4
452.716	4.01
453.07	4.03
453.424	4.01
453.778	4.04
454.132	4.06
454.486	4.06
454.839	4.08
455.193	4.07
455.547	4.08
455.9	4.1
456.254	4.12
456.607	4.11
456.961	4.11
457.314	4.14
457.668	4.13
458.021	4.12
458.375	4.12
458.728	4.15
459.081	4.17
459.434	4.16
459.787	4.17
460.141	4.17
460.494	4.18
460.847	4.21
461.2	4.18
461.553	4.19
461.906	4.19
462.259	4.18
462.611	4.19
462.964	4.2
463.317	4.18
463.67	4.17
464.022	4.16
464.375	4.17
464.728	4.14
465.08	4.14
465.433	4.16
465.785	4.17
466.138	4.14
466.49	4.12
466.843	4.15
467.195	4.12
467.547	4.12
467.899	4.1
468.252	4.08
468.604	4.12
468.956	4.12
469.308	4.14
469.66	4.14
470.012	4.14
470.364	4.15
470.716	4.15
471.068	4.16
471.42	4.18
471.772	4.17
472.123	4.2
472.475	4.21
472.827	4.2
473.178	4.2
473.53	4.22
473.882	4.23
474.233	4.23
474.585	4.24
474.936	4.24
475.288	4.25
475.639	4.25
475.99	4.23
476.342	4.22
476.693	4.19
477.044	4.21
477.395	4.24
477.746	4.23
478.097	4.23
478.448	4.25
478.8	4.26
479.15	4.24
479.501	4.24
479.852	4.24
480.203	4.25
480.554	4.25
480.905	4.25
481.255	4.25
481.606	4.24
481.957	4.24
482.307	4.25
482.658	4.26
483.009	4.25
483.359	4.27
483.709	4.28
484.06	4.27
484.41	4.28
484.761	4.28
485.111	4.28
485.461	4.28
485.811	4.28
486.162	4.28
486.512	4.29
486.862	4.29
487.212	4.29
487.562	4.29
487.912	4.29
488.262	4.29
488.612	4.29
488.961	4.29
489.311	4.3
489.661	4.3
490.011	4.29
490.36	4.3
490.71	4.3
491.06	4.29
491.409	4.3
491.759	4.31
492.108	4.3
492.458	4.3
492.807	4.3
493.157	4.3
493.506	4.31
493.855	4.3
494.204	4.29
494.554	4.3
494.903	4.3
495.252	4.31
495.601	4.33
495.95	4.34
496.299	4.36
496.648	4.35
496.997	4.35
497.346	4.38
497.695	4.38
498.043	4.38
498.392	4.39
498.741	4.39
499.09	4.37
499.438	4.41
499.787	4.41
500.135	4.43
500.484	4.42
500.832	4.43
501.181	4.45
501.529	4.47
501.878	4.46
502.226	4.48
502.574	4.48
502.923	4.48
503.271	4.49
503.619	4.53
503.967	4.56
504.315	4.55
504.663	4.56
505.011	4.57
505.359	4.58
505.707	4.59
506.055	4.6
506.403	4.62
506.751	4.6
507.098	4.62
507.446	4.64
507.794	4.65
508.141	4.66
508.489	4.66
508.837	4.69
509.184	4.69
509.531	4.69
509.879	4.73
510.226	4.74
510.574	4.73
510.921	4.71
511.268	4.71
511.616	4.73
511.963	4.74
512.31	4.75
512.657	4.77
513.004	4.79
513.351	4.8
513.698	4.81
514.045	4.81
514.392	4.82
514.739	4.81
515.086	4.83
515.432	4.82
515.779	4.82
516.126	4.81
516.473	4.83
516.819	4.84
517.166	4.83
517.512	4.81
517.859	4.84
518.205	4.86
518.552	4.88
518.898	4.88
519.245	4.88
519.591	4.88
519.937	4.88
520.283	4.89
520.629	4.89
520.976	4.88
521.322	4.9
521.668	4.9
522.014	4.92
522.36	4.94
522.706	4.95
523.052	4.97
523.398	4.99
523.743	5.01
524.089	5.02
524.435	5.03
524.781	5.05
525.126	5.05
525.472	5.06
525.817	5.08
526.163	5.1
526.509	5.11
526.854	5.11
527.199	5.12
527.545	5.11
527.89	5.12
528.235	5.14
528.581	5.14
528.926	5.15
529.271	5.16
529.616	5.16
529.961	5.16
530.306	5.17
530.651	5.17
530.996	5.17
531.341	5.16
531.686	5.15
532.031	5.15
532.376	5.15
532.721	5.16
533.065	5.16
533.41	5.14
533.755	5.15
534.099	5.16
534.444	5.16
534.788	5.18
535.133	5.19
535.477	5.19
535.822	5.19
536.166	5.19
536.51	5.18
536.855	5.19
537.199	5.2
537.543	5.2
537.887	5.21
538.231	5.2
538.576	5.24
538.92	5.27
539.264	5.29
539.608	5.28
539.951	5.28
540.295	5.28
540.639	5.29
540.983	5.28
541.327	5.29
541.671	5.3
542.014	5.28
542.358	5.26
542.701	5.26
543.045	5.26
543.389	5.26
543.732	5.28
544.075	5.28
544.419	5.28
544.762	5.3
545.105	5.3
545.449	5.3
545.792	5.3
546.135	5.28
546.478	5.28
546.821	5.32
547.165	5.31
547.508	5.31
547.851	5.32
548.194	5.33
548.536	5.33
548.879	5.34
549.222	5.34
549.565	5.37
549.908	5.39
550.25	5.43
550.593	5.46
550.936	5.45
551.278	5.46
551.621	5.46
551.963	5.45
552.306	5.46
552.648	5.48
552.991	5.5
553.333	5.51
553.675	5.51
554.017	5.49
554.36	5.51
554.702	5.51
555.044	5.52
555.386	5.52
555.728	5.53
556.07	5.53
556.412	5.53
556.754	5.54
557.096	5.5
557.438	5.49
557.78	5.46
558.121	5.49
558.463	5.49
558.805	5.49
559.147	5.48
559.488	5.48
559.83	5.48
560.171	5.47
560.513	5.48
560.854	5.46
561.196	5.48
561.537	5.5
561.878	5.5
562.22	5.49
562.561	5.51
562.902	5.5
563.243	5.53
563.584	5.55
563.925	5.55
564.266	5.54
564.607	5.53
564.948	5.56
565.289	5.55
565.63	5.55
565.971	5.52
566.312	5.54
566.653	5.56
566.993	5.54
567.334	5.54
567.675	5.53
568.015	5.56
568.356	5.56
568.696	5.59
569.037	5.57
569.377	5.59
569.718	5.61
570.058	5.59
570.398	5.6
570.739	5.62
571.079	5.64
571.419	5.69
571.759	5.72
572.099	5.71
572.439	5.7
572.779	5.7
573.119	5.75
573.459	5.75
573.799	5.77
574.139	5.78
574.479	5.8
574.819	5.83
575.158	5.83
575.498	5.82
575.838	5.8
576.177	5.8
576.517	5.79
576.856	5.78
577.196	5.79
577.535	5.78
577.875	5.8
578.214	5.78
578.553	5.75
578.893	5.71
579.232	5.72
579.571	5.72
579.91	5.74
580.25	5.73
580.589	5.75
580.928	5.75
581.267	5.77
581.606	5.74
581.945	5.69
582.283	5.66
582.622	5.69
582.961	5.71
583.3	5.74
583.639	5.77
583.977	5.75
584.316	5.76
584.654	5.71
584.993	5.64
585.332	5.68
585.67	5.67
586.008	5.69
586.347	5.67
586.685	5.68
587.024	5.69
587.362	5.66
587.7	5.65
588.038	5.67
588.376	5.67
588.715	5.68
589.053	5.7
589.391	5.75
589.729	5.73
590.067	5.69
590.404	5.71
590.742	5.7
591.08	5.71
591.418	5.71
591.756	5.77
592.093	5.83
592.431	5.83
592.769	5.85
593.106	5.85
593.444	5.82
593.781	5.83
594.119	5.85
594.456	5.86
594.793	5.86
595.131	5.84
595.468	5.87
595.805	5.86
596.143	5.84
596.48	5.81
596.817	5.81
597.154	5.87
597.491	5.86
597.828	5.87
598.165	5.91
598.502	5.92
598.839	5.93
599.176	5.91
599.512	5.88
599.849	5.9
600.186	5.91
600.523	5.96
600.859	6
601.196	5.96
601.532	5.92
601.869	5.89
602.205	5.87
602.542	5.88
602.878	5.88
603.215	5.87
603.551	5.92
603.887	5.95
604.223	5.93
604.56	5.92
604.896	5.91
605.232	5.87
605.568	5.87
605.904	5.86
606.24	5.88
606.576	5.88
606.912	5.87
607.248	5.86
607.583	5.86
607.919	5.83
608.255	5.81
608.591	5.87
608.926	5.91
609.262	5.96
609.597	5.97
609.933	5.96
610.268	5.96
610.604	5.95
610.939	5.92
611.275	5.91
611.61	5.88
611.945	5.88
612.281	5.9
612.616	5.94
612.951	5.99
613.286	5.96
613.621	5.97
613.956	5.98
614.291	5.98
614.626	5.97
614.961	5.98
615.296	6.01
615.631	6.02
615.966	6
616.3	6
616.635	5.94
616.97	5.96
617.304	5.98
617.639	5.98
617.973	5.96
618.308	5.98
618.642	6.01
618.977	5.97
619.311	6
619.646	5.95
619.98	5.93
620.314	5.94
620.648	5.98
620.983	5.96
621.317	5.99
621.651	6.03
621.985	6.06
622.319	6.09
622.653	6.09
622.987	6.12
623.321	6.07
623.655	6.12
623.988	6.17
624.322	6.14
624.656	6.15
624.99	6.19
625.323	6.18
625.657	6.22
625.99	6.25
626.324	6.27
626.657	6.25
626.991	6.25
627.324	6.26
627.658	6.27
627.991	6.27
628.324	6.27
628.657	6.25
628.991	6.23
629.324	6.23
629.657	6.25
629.99	6.2
630.323	6.21
630.656	6.22
630.989	6.2
631.322	6.26
631.655	6.29
631.987	6.26
632.32	6.34
632.653	6.32
632.986	6.33
633.318	6.31
633.651	6.37
633.984	6.36
634.316	6.37
634.649	6.32
634.981	6.37
635.313	6.39
635.646	6.36
635.978	6.36
636.31	6.37
636.643	6.34
636.975	6.4
637.307	6.45
637.639	6.45
637.971	6.52
638.303	6.54
638.635	6.46
638.967	6.5
639.299	6.46
639.631	6.46
639.963	6.41
640.295	6.39
640.626	6.4
640.958	6.44
641.29	6.4
641.621	6.4
641.953	6.3
642.285	6.28
642.616	6.35
642.948	6.4
643.279	6.39
643.61	6.39
643.942	6.35
644.273	6.3
644.604	6.25
644.936	6.22
645.267	6.15
645.598	6.21
645.929	6.22
646.26	6.17
646.591	6.22
646.922	6.25
647.253	6.24
647.584	6.22
647.915	6.14
648.245	6.19
648.576	6.22
648.907	6.27
649.238	6.3
649.568	6.27
649.899	6.27
650.229	6.26
650.56	6.26
650.89	6.33
651.221	6.38
651.551	6.37
651.882	6.37
652.212	6.38
652.542	6.4
652.872	6.36
653.203	6.35
653.533	6.31
653.863	6.29
654.193	6.3
654.523	6.3
654.853	6.35
655.183	6.39
655.513	6.37
655.843	6.39
656.172	6.4
656.502	6.37
656.832	6.33
657.162	6.42
657.491	6.45
657.821	6.42
658.15	6.44
658.48	6.41
658.809	6.45
659.139	6.48
659.468	6.46
659.798	6.43
660.127	6.48
660.456	6.5
660.785	6.56
661.115	6.62
661.444	6.66
661.773	6.7
662.102	6.6
662.431	6.67
662.76	6.73
663.089	6.7
663.418	6.67
663.747	6.75
664.076	6.67
664.404	6.6
664.733	6.65
665.062	6.58
665.39	6.63
665.719	6.53
666.048	6.52
666.376	6.5
666.705	6.55
667.033	6.51
667.362	6.52
667.69	6.53
668.018	6.43
668.347	6.49
668.675	6.55
669.003	6.72
669.331	6.7
669.659	6.66
669.987	6.66
670.315	6.78
670.643	6.69
670.971	6.75
671.299	6.87
671.627	6.84
671.955	6.86
672.283	6.99
672.61	6.96
672.938	6.98
673.266	7.11
673.593	7.14
673.921	7.06
674.249	7.1
674.576	7.12
674.904	7.3
675.231	7.19
675.558	7.15
675.886	7.12
676.213	7.1
676.54	7.12
676.867	7.15
677.195	7.1
677.522	7.16
677.849	7.1
678.176	7.03
678.503	6.94
678.83	7
679.157	6.9
679.484	7
679.81	7.05
680.137	6.98
680.464	6.98
680.791	7.09
681.117	6.99
681.444	7
681.771	6.88
682.097	6.82
682.424	6.78
682.75	6.75
683.077	6.77
683.403	6.77
683.729	6.79
684.056	6.83
684.382	6.85
684.708	6.86
685.034	6.87
685.36	6.95
685.686	6.86
686.012	6.89
686.339	6.92
686.664	6.96
686.99	6.99
687.316	6.86
687.642	6.86
687.968	7.02
688.294	6.99
688.619	7.13
688.945	7.17
689.271	7.21
689.596	7.1
689.922	7.03
690.247	6.94
690.573	6.89
690.898	6.82
691.224	6.82
691.549	6.84
691.874	6.78
692.2	6.78
692.525	6.8
692.85	6.93
693.175	6.79
693.5	6.67
693.825	6.71
694.15	6.84
694.475	6.75
694.8	6.72
695.125	6.64
695.45	6.51
695.775	6.58
696.099	6.58
696.424	6.65
696.749	6.61
697.073	6.75
697.398	6.77
697.723	6.87
698.047	6.82
698.372	6.75
698.696	6.82
699.02	6.86
699.345	6.89
699.669	6.85
699.993	6.91
700.318	6.94
700.642	6.9
700.966	6.91
701.29	6.92
701.614	6.86
701.938	6.96
702.262	7.04
702.586	7.11
702.91	7.08
703.234	7.04
703.557	7.2
703.881	7.16
704.205	7.21
704.529	7.19
704.852	7.27
705.176	7.4
705.499	7.46
705.823	7.5
706.146	7.54
706.47	7.53
706.793	7.55
707.117	7.54
707.44	7.47
707.763	7.5
708.086	7.46
708.409	7.43
708.733	7.46
709.056	7.44
709.379	7.55
709.702	7.59
710.025	7.59
710.348	7.53
710.671	7.49
710.993	7.5
711.316	7.47
711.639	7.5
711.962	7.52
712.284	7.42
712.607	7.33
712.93	7.44
713.252	7.38
713.575	7.39
713.897	7.5
714.22	7.55
714.542	7.5
714.864	7.57
715.187	7.64
715.509	7.55
715.831	7.66
716.153	7.62
716.475	7.64
716.798	7.81
717.12	7.9
717.442	7.96
717.764	7.93
718.085	8.03
718.407	8.03
718.729	8.07
719.051	8.1
719.373	7.96
719.695	7.77
720.016	7.99
720.338	8.07
720.659	8.04
720.981	8.1
721.302	8.15
721.624	8.32
721.945	8.3
722.267	8.37
722.588	8.28
722.909	8.03
723.231	7.93
723.552	7.86
723.873	7.78
724.194	7.74
724.515	7.83
724.836	7.6
725.157	7.63
725.478	7.52
725.799	7.64
726.12	7.93
726.441	8.19
726.762	7.98
727.083	7.75
727.403	7.84
727.724	7.9
728.045	7.81
728.365	7.75
728.686	7.71
729.006	7.68
729.327	7.58
729.647	7.75
729.967	7.77
730.288	7.87
730.608	7.9
730.928	7.77
731.249	7.77
731.569	7.95
731.889	7.88
732.209	7.98
732.529	8.02
732.849	7.97
733.169	7.77
733.489	7.85
733.809	8.03
734.129	7.89
734.448	7.88
734.768	8
735.088	8.12
735.408	8.18
735.727	8.21
736.047	8.35
736.366	8.26
736.686	8.32
737.005	8.33
737.325	8.26
737.644	8.35
737.963	8.33
738.283	8.12
738.602	8.19
738.921	8.02
739.24	7.95
739.56	7.79
739.879	7.94
740.198	8.11
740.517	8.13
740.836	8.32
741.155	8.38
741.473	8.56
741.792	8.46
742.111	8.58
742.43	8.89
742.748	8.79
743.067	8.83
743.386	8.83
743.704	8.57
744.023	8.8
744.341	8.86
744.66	8.96
744.978	9.04
745.297	9.06
745.615	9.46
745.933	9.62
746.252	9.81
746.57	9.58
746.888	9.42
747.206	9.26
747.524	9.1
747.842	8.94
748.16	8.8
748.478	8.98
748.796	9.05
749.114	8.99
749.432	8.86
749.749	9.09
750.067	9.23
750.385	9.54
750.703	9.36
751.02	9.34
751.338	9.39
751.655	9.34
751.973	9.26
752.29	9.35
752.608	9.19
752.925	9.16
753.242	9.27
753.56	9.25
753.877	9.38
754.194	9.62
754.511	9.75
754.828	9.8
755.145	9.63
755.462	9.61
755.779	9.53
756.096	9.8
756.413	9.9
756.73	9.8
757.047	9.81
757.364	9.69
757.68	9.93
757.997	9.85
758.314	9.87
758.63	9.87
758.947	9.43
759.264	9.27
759.58	9.41
759.896	9.75
760.213	9.65
760.529	9.8
760.846	9.48
761.162	9.41
761.478	9.3
761.794	9.38
762.11	9.5
762.426	9.41
762.743	9.29
763.059	9.09
763.375	9.11
763.69	9.19
764.006	9.43
764.322	9.32
764.638	9.36
764.954	9.7
765.27	9.83
765.585	9.88
765.901	10.17
766.216	10.35
766.532	9.93
766.848	9.89
767.163	9.94
767.478	10.23
767.794	10.37
768.109	10.38
768.424	10.47
768.74	10.32
769.055	10.47
769.37	10.73
769.685	10.66
770	11.02
770.315	10.89
770.63	10.98
770.945	10.71
771.26	10.56
771.575	10.37
771.89	10.54
772.205	10.69
772.52	10.4
772.834	10.05
773.149	10.55
773.464	10.61
773.778	10.63
774.093	10.4
774.407	10.49
774.722	10.27
775.036	10.04
775.351	10.01
775.665	9.77
775.979	9.44
776.293	9.7
776.608	9.34
776.922	9.27
777.236	9.17
777.55	9.64
777.864	10.16
778.178	10.47
778.492	10.4
778.806	10.28
779.12	10.44
779.434	10.51
779.747	10.08
780.061	10.44
780.375	10.3
780.689	10.46
781.002	10.42
781.316	10.99
781.629	11.12
781.943	11.36
782.256	11.21
782.57	11.49
782.883	11.46
783.196	11.54
783.51	11.56
783.823	11.73
784.136	11.93
784.449	11.34
784.762	10.75
785.075	10.54
785.388	10.87
785.701	10.64
786.014	10.41
786.327	10.59
786.64	10.42
786.953	10.54
787.266	10.49
787.578	10.34
787.891	10.22
788.204	10.17
788.516	10.45
788.829	10.79
789.141	10.92
789.454	11.1
789.766	11.18
790.079	11.42
790.391	10.87
790.703	10.89
791.016	11.1
791.328	11.38
791.64	11.39
791.952	11.44
792.264	11.79
792.576	11.82
792.888	11.97
793.2	12.08
793.512	11.82
793.824	11.96
794.136	11.8
794.448	11.6
794.76	11.76
795.071	11.38
795.383	11.29
795.695	10.82
796.006	10.95
796.318	11
796.629	11.04
796.941	11.4
797.252	11.39
797.564	11.69
797.875	11.65
798.186	11.24
798.497	11.18
798.809	11.08
799.12	11.04
799.431	11.07
799.742	11.05
800.053	11.65
800.364	11.43
800.675	11.49
800.986	11.89
801.297	11.53
801.608	11.43
801.918	11.52
802.229	11.49
802.54	10.95
802.851	10.66
803.161	10.19
803.472	10.18
803.782	10.15
804.093	9.77
804.403	9.56
804.714	10.4
805.024	9.57
805.334	9.44
805.645	10.18
805.955	10.51
806.265	10.7
806.575	9.76
806.885	9.96
807.195	10.05
807.505	9.95
807.815	10.39
808.125	10.87
808.435	10.93
808.745	11.3
809.055	11.87
809.365	12.27
809.674	12.31
809.984	12.7
810.294	12.31
810.603	12.62
810.913	13.33
811.222	12.82
811.532	13.29
811.841	13.99
812.151	13.87
812.46	13.66
812.769	13.3
813.079	14.08
813.388	13.65
813.697	13.96
814.006	13.71
814.315	13.17
814.624	12.41
814.933	12.49
815.242	12.26
815.551	11.55
815.86	11.63
816.169	11.94
816.478	11.57
816.786	11.86
817.095	11.97
817.404	11.53
817.712	11.82
818.021	12.56
818.33	11.77
818.638	11.28
818.947	11.25
819.255	11.7
819.563	11.56
819.872	11.3
820.18	11.64
820.488	11.63
820.796	11.93
821.105	11.87
821.413	11.91
821.721	11.92
822.029	11.93
822.337	11.88
822.645	11.8
822.953	11.75
823.26	11.77
823.568	11.58
823.876	11.52
824.184	11.42
824.491	11.47
824.799	11.57
825.107	11.55
825.414	11.61
825.722	11.62
826.029	11.6
826.337	11.87
826.644	11.76
826.951	11.84
827.259	11.61
827.566	11.71
827.873	11.66
828.18	11.74
828.488	11.91
828.795	11.76
829.102	12.12
829.409	12.31
829.716	12.57
830.023	12.99
830.329	13.1
830.636	13.13
830.943	13
831.25	13.11
831.557	13.44
831.863	13.07
832.17	12.84
832.476	13.13
832.783	13.02
833.089	12.95
833.396	12.76
833.702	13.27
834.009	13.82
834.315	13.93
834.621	13.95
834.928	13.9
835.234	13.71
835.54	13.27
835.846	13.49
836.152	13.33
836.458	13.16
836.764	13.27
837.07	13.51
837.376	12.91
837.682	12.7
837.988	12.44
838.293	13.2
838.599	13.6
838.905	13.2
839.211	13.46
839.516	13.12
839.822	13.67
840.127	13.29
840.433	12.97
840.738	12.52
841.044	11.76
841.349	12.13
841.654	13.03
841.959	12.75
842.265	11.9
842.57	12.33
842.875	11.86
843.18	13.91
843.485	13.72
843.79	15.07
844.095	15.59
844.4	16.99
844.705	16.22
845.01	14.86
845.315	14.22
845.619	14.27
845.924	14.52
846.229	14.75
846.533	15.78
846.838	15.88
847.142	16.72
847.447	18.66
847.751	18.54
848.056	17.49
848.36	18.24
848.664	20.43
848.969	19.1
849.273	18.73
849.577	15.49
849.881	17.42
850.185	18.7
850.489	20.75
850.794	18.23
851.097	19.48
851.401	20.82
851.705	23.24
852.009	22.4
852.313	22.43
852.617	21.37
852.92	23.1
853.224	20.16
853.528	20.59
853.831	19.22
854.135	19.58
854.438	21.84
854.742	23.45
855.045	21.41
855.349	22.42
855.652	22.38
855.955	24.36
856.259	22.75
856.562	20.68
856.865	18.69
857.168	20.43
857.471	19.84
857.774	20.28
858.077	18.63
858.38	20.24
858.683	20.81
858.986	20.53
859.289	18.79
859.592	20.49
859.894	19.67
860.197	19.8
860.5	18.16
860.802	17.25
861.105	17.17
861.407	16.06
861.71	15.25
862.012	17.5
862.315	14.88
862.617	14.97
862.919	14.15
863.222	12.84
863.524	12.7
863.826	12.64
864.128	13.68
864.43	15.76
864.732	15.1
865.034	16.41
865.336	17.32
865.638	17.07
865.94	17.85
866.242	18.21
866.544	19.71
866.846	21.1
867.147	23.26
867.449	21.38
867.751	23.59
868.052	25.01
868.354	24.17
868.655	24.16
868.957	23.27
869.258	24.1
869.56	25.42
869.861	24.42
870.162	24.16
870.463	23.44
870.765	23.14
871.066	21.59
871.367	21.22
871.668	21.3
871.969	19.26
872.27	19.12
872.571	18.42
872.872	17.51
873.173	15.36
873.473	14.49
873.774	15.99
874.075	14.38
874.376	13.26
874.676	12.95
874.977	13.04
875.277	13.69
875.578	14.37
875.878	14.82
876.179	15.95
876.479	16.2
876.78	14.73
877.08	13.24
877.38	14.09
877.68	12.86
877.981	12.43
878.281	15.07
878.581	15.43
