Data from BA57890_Reflection_00010.txt Node
Date: Mon Nov 18 15:06:16 EST 2019
User: vgr7
Spectrometer: USB2G7710
Scans to average: 3
Trigger mode: 4
Integration Time (sec): 2.000000E-2
Electric dark correction enabled: true
Boxcar width: 10
XAxis mode: Wavelengths
Number of Pixels in Spectrum: 2048
>>>>>Begin Spectral Data<<<<<
177.721	-88.77
178.105	-116.75
178.488	-55.4
178.871	-47.97
179.254	-53.59
179.636	-186.1
180.019	-213.86
180.402	200
180.785	-317.91
181.168	68.28
181.55	155.67
181.933	126.25
182.316	117.55
182.698	106.41
183.081	89.19
183.463	217.06
183.846	76.35
184.228	126.38
184.611	85.24
184.993	97.22
185.376	67.8
185.758	35.91
186.14	44.38
186.522	12.85
186.904	10.11
187.287	-12.14
187.669	-84.58
188.051	-57.3
188.433	-220.56
188.815	2874.19
189.197	31.84
189.579	198.46
189.961	122.16
190.342	802.7
190.724	63.3
191.106	41.35
191.488	22.52
191.869	19.08
192.251	-45.19
192.633	-773.24
193.014	-81.11
193.396	-43.26
193.777	-13.52
194.159	-4.79
194.54	-9.13
194.922	4.21
195.303	-16.9
195.684	2.32
196.065	-44.24
196.447	-15.28
196.828	28.04
197.209	5.89
197.59	-2.79
197.971	12.7
198.352	-38.2
198.733	-121.33
199.114	-180.54
199.495	533.12
199.876	44.51
200.257	11.92
200.638	-15.61
201.018	-47.7
201.399	-23.51
201.78	-11.44
202.16	6.45
202.541	-66.41
202.922	-156.5
203.302	-378.59
203.683	-259.35
204.063	-270.77
204.444	-151.55
204.824	-91.07
205.204	-51.01
205.585	-17.84
205.965	-2.35
206.345	-42.16
206.725	-36.22
207.106	-4.29
207.486	-131.95
207.866	-387.05
208.246	589.51
208.626	-414.52
209.006	-209.43
209.386	217.43
209.766	247.99
210.145	-188.49
210.525	-102.61
210.905	-50.62
211.285	-50.14
211.664	-17.98
212.044	-7.66
212.424	23.2
212.803	4.2
213.183	-7.51
213.562	-27.34
213.942	-20.75
214.321	20.15
214.701	2.12
215.08	-12.87
215.459	-3.16
215.838	4.45
216.218	1.15
216.597	4.95
216.976	3.02
217.355	14.93
217.734	11.35
218.113	5.23
218.492	-5.33
218.871	-8.8
219.25	-5.82
219.629	-10.12
220.008	-19.36
220.387	-26.43
220.766	-23.52
221.144	-38.29
221.523	-36.6
221.902	-42.96
222.28	-49.99
222.659	-39.42
223.037	-43.53
223.416	-46.07
223.794	-54.86
224.173	-49.51
224.551	-45.63
224.929	-45.25
225.308	-42
225.686	-40.06
226.064	-30.87
226.442	-23.68
226.821	-16.33
227.199	-15.18
227.577	-16.91
227.955	-15.87
228.333	-16.34
228.711	-14.35
229.089	-8.48
229.467	-10.5
229.845	-9.71
230.222	-7.39
230.6	-9.67
230.978	-8.07
231.356	-5.85
231.733	-2.66
232.111	-1.47
232.488	-0.05
232.866	1.53
233.243	3.01
233.621	2.83
233.998	3.77
234.376	1.27
234.753	0.9
235.13	1.08
235.508	2.23
235.885	2.47
236.262	1.9
236.639	1.89
237.016	2.17
237.393	3.73
237.77	5.6
238.147	5.7
238.524	6.57
238.901	7.3
239.278	6.88
239.655	6.97
240.032	7.25
240.409	6.46
240.785	6.3
241.162	6.25
241.539	6.33
241.915	6.21
242.292	6.48
242.668	6.92
243.045	7.02
243.421	6.7
243.798	6.72
244.174	6.97
244.551	7
244.927	6.69
245.303	6.61
245.679	6.41
246.056	6.1
246.432	6.04
246.808	5.75
247.184	5.8
247.56	5.68
247.936	5.4
248.312	5.54
248.688	5.5
249.064	5.4
249.44	5.26
249.815	5.1
250.191	5.35
250.567	5.11
250.943	4.82
251.318	5.02
251.694	4.97
252.069	4.8
252.445	4.53
252.82	4.62
253.196	4.55
253.571	4.24
253.947	4.52
254.322	4.68
254.697	4.7
255.073	4.37
255.448	4.35
255.823	4.49
256.198	4.4
256.573	4.43
256.948	4.52
257.323	4.79
257.698	4.87
258.073	4.64
258.448	4.71
258.823	4.78
259.198	4.59
259.573	4.57
259.948	4.49
260.322	4.56
260.697	4.64
261.072	4.67
261.446	4.78
261.821	4.71
262.195	4.68
262.57	4.61
262.944	4.65
263.319	4.6
263.693	4.6
264.067	4.6
264.442	4.65
264.816	4.53
265.19	4.56
265.564	4.58
265.938	4.66
266.313	4.76
266.687	4.84
267.061	5.01
267.435	5.08
267.809	5.16
268.183	5.21
268.556	5.11
268.93	5.04
269.304	5.11
269.678	5.09
270.051	5.01
270.425	5.19
270.799	5.22
271.172	5.3
271.546	5.22
271.919	5.26
272.293	5.19
272.666	5.16
273.04	5.1
273.413	5.08
273.787	5.03
274.16	4.91
274.533	4.95
274.906	4.89
275.279	4.92
275.653	4.96
276.026	4.86
276.399	4.69
276.772	4.74
277.145	4.73
277.518	4.7
277.891	4.75
278.263	4.57
278.636	4.41
279.009	4.44
279.382	4.53
279.755	4.49
280.127	4.48
280.5	4.6
280.872	4.47
281.245	4.39
281.617	4.42
281.99	4.47
282.362	4.52
282.735	4.45
283.107	4.44
283.479	4.43
283.852	4.46
284.224	4.55
284.596	4.59
284.968	4.65
285.34	4.57
285.713	4.47
286.085	4.66
286.457	4.85
286.829	4.83
287.201	4.89
287.572	4.88
287.944	4.89
288.316	4.84
288.688	4.8
289.06	4.89
289.431	4.98
289.803	4.93
290.175	4.98
290.546	5.11
290.918	5.04
291.289	5.05
291.661	5.16
292.032	5.19
292.403	5.08
292.775	5
293.146	4.99
293.517	5.16
293.889	5.12
294.26	5.15
294.631	5.12
295.002	5.14
295.373	5.22
295.744	5.25
296.115	5.31
296.486	5.39
296.857	5.43
297.228	5.37
297.599	5.39
297.97	5.38
298.34	5.32
298.711	5.51
299.082	5.68
299.452	5.71
299.823	5.75
300.194	5.88
300.564	5.94
300.935	6.13
301.305	6.08
301.676	6.18
302.046	6.26
302.416	6.54
302.787	6.6
303.157	6.73
303.527	6.82
303.897	7.01
304.267	7.21
304.637	7.21
305.008	7.5
305.378	7.69
305.748	7.82
306.117	7.93
306.487	7.95
306.857	7.86
307.227	7.99
307.597	8.19
307.967	8.25
308.336	8.43
308.706	8.58
309.076	8.7
309.445	8.73
309.815	8.81
310.184	8.65
310.554	8.81
310.923	8.85
311.293	8.88
311.662	8.89
312.031	8.95
312.401	9.1
312.77	9.17
313.139	9.27
313.508	9.34
313.877	9.44
314.246	9.45
314.616	9.58
314.985	9.6
315.353	9.63
315.722	9.78
316.091	9.83
316.46	9.84
316.829	9.89
317.198	10.23
317.567	10.23
317.935	10.47
318.304	10.64
318.672	10.66
319.041	10.85
319.41	10.92
319.778	10.99
320.147	11.13
320.515	11.1
320.883	11.21
321.252	11.42
321.62	11.59
321.988	11.81
322.357	12.06
322.725	12.22
323.093	12.46
323.461	12.65
323.829	12.76
324.197	12.89
324.565	13.07
324.933	12.83
325.301	12.93
325.669	13.05
326.037	12.97
326.405	13.08
326.772	13.25
327.14	13.36
327.508	13.21
327.875	13.12
328.243	13.24
328.61	13.27
328.978	13.31
329.346	13.56
329.713	13.56
330.08	13.61
330.448	13.7
330.815	13.49
331.182	13.44
331.55	13.49
331.917	13.49
332.284	13.58
332.651	13.73
333.018	13.89
333.385	13.94
333.752	13.96
334.119	13.92
334.486	13.78
334.853	13.75
335.22	13.86
335.587	14
335.954	14.06
336.32	14.1
336.687	14.09
337.054	13.98
337.42	14
337.787	14.1
338.153	14
338.52	14.2
338.886	14.2
339.253	14.19
339.619	14.19
339.986	14.14
340.352	14.23
340.718	14.23
341.084	14.22
341.451	14.39
341.817	14.59
342.183	14.69
342.549	14.75
342.915	14.94
343.281	15.03
343.647	15.01
344.013	15.1
344.379	15.15
344.745	15.28
345.11	15.36
345.476	15.3
345.842	15.44
346.208	15.4
346.573	15.49
346.939	15.51
347.304	15.62
347.67	15.61
348.035	15.65
348.401	15.7
348.766	15.81
349.132	15.75
349.497	15.73
349.862	15.81
350.228	15.81
350.593	15.66
350.958	15.64
351.323	15.72
351.688	15.78
352.053	15.77
352.418	15.69
352.783	15.64
353.148	15.57
353.513	15.52
353.878	15.63
354.243	15.6
354.608	15.62
354.972	15.61
355.337	15.7
355.702	15.71
356.066	15.63
356.431	15.47
356.795	15.44
357.16	15.41
357.524	15.42
357.889	15.46
358.253	15.69
358.618	15.75
358.982	15.69
359.346	15.53
359.71	15.48
360.075	15.4
360.439	15.44
360.803	15.41
361.167	15.39
361.531	15.29
361.895	15.26
362.259	15.2
362.623	15.12
362.987	15.05
363.351	15.02
363.714	15.02
364.078	15.03
364.442	15.05
364.806	14.98
365.169	14.87
365.533	14.8
365.896	14.65
366.26	14.61
366.623	14.55
366.987	14.57
367.35	14.59
367.714	14.64
368.077	14.59
368.44	14.6
368.803	14.48
369.167	14.46
369.53	14.35
369.893	14.37
370.256	14.45
370.619	14.44
370.982	14.28
371.345	14.23
371.708	14.13
372.071	14.07
372.434	13.98
372.797	13.89
373.159	13.83
373.522	13.72
373.885	13.63
374.247	13.53
374.61	13.48
374.973	13.29
375.335	13.19
375.698	13.11
376.06	13.01
376.423	13.03
376.785	12.95
377.147	12.88
377.51	12.77
377.872	12.62
378.234	12.55
378.596	12.55
378.958	12.43
379.321	12.4
379.683	12.31
380.045	12.23
380.407	12.23
380.769	12.1
381.13	12.03
381.492	11.93
381.854	11.88
382.216	11.77
382.578	11.77
382.939	11.67
383.301	11.59
383.663	11.54
384.024	11.42
384.386	11.36
384.747	11.33
385.109	11.29
385.47	11.23
385.832	11.16
386.193	11.15
386.554	11.07
386.916	10.99
387.277	10.94
387.638	10.94
387.999	10.82
388.36	10.81
388.721	10.8
389.082	10.73
389.443	10.62
389.804	10.54
390.165	10.44
390.526	10.37
390.887	10.27
391.248	10.19
391.609	10.13
391.969	10.08
392.33	10.02
392.691	9.97
393.051	9.86
393.412	9.79
393.772	9.63
394.133	9.59
394.493	9.55
394.854	9.48
395.214	9.4
395.574	9.33
395.935	9.21
396.295	9.09
396.655	8.98
397.015	8.92
397.376	8.87
397.736	8.77
398.096	8.69
398.456	8.65
398.816	8.57
399.176	8.51
399.535	8.41
399.895	8.34
400.255	8.25
400.615	8.2
400.975	8.14
401.334	8.08
401.694	8.03
402.054	7.94
402.413	7.85
402.773	7.83
403.132	7.81
403.492	7.77
403.851	7.74
404.211	7.74
404.57	7.74
404.929	7.72
405.288	7.72
405.648	7.71
406.007	7.72
406.366	7.72
406.725	7.72
407.084	7.7
407.443	7.69
407.802	7.66
408.161	7.6
408.52	7.57
408.879	7.57
409.238	7.53
409.596	7.52
409.955	7.51
410.314	7.46
410.673	7.44
411.031	7.41
411.39	7.39
411.748	7.34
412.107	7.29
412.465	7.25
412.824	7.2
413.182	7.14
413.54	7.05
413.899	7.01
414.257	6.95
414.615	6.91
414.974	6.87
415.332	6.84
415.69	6.85
416.048	6.81
416.406	6.77
416.764	6.7
417.122	6.68
417.48	6.64
417.838	6.6
418.195	6.56
418.553	6.55
418.911	6.51
419.269	6.48
419.626	6.45
419.984	6.4
420.342	6.37
420.699	6.37
421.057	6.34
421.414	6.31
421.772	6.27
422.129	6.25
422.486	6.21
422.844	6.19
423.201	6.15
423.558	6.13
423.915	6.11
424.273	6.09
424.63	6.06
424.987	6.05
425.344	6.01
425.701	5.99
426.058	5.96
426.415	5.94
426.772	5.9
427.128	5.9
427.485	5.89
427.842	5.88
428.199	5.83
428.555	5.82
428.912	5.8
429.269	5.8
429.625	5.79
429.982	5.78
430.338	5.77
430.695	5.8
431.051	5.77
431.407	5.77
431.764	5.76
432.12	5.74
432.476	5.73
432.832	5.75
433.189	5.75
433.545	5.74
433.901	5.74
434.257	5.75
434.613	5.74
434.969	5.75
435.325	5.76
435.681	5.75
436.036	5.73
436.392	5.72
436.748	5.71
437.104	5.7
437.459	5.69
437.815	5.68
438.171	5.67
438.526	5.66
438.882	5.65
439.237	5.66
439.593	5.66
439.948	5.66
440.304	5.64
440.659	5.63
441.014	5.61
441.369	5.58
441.725	5.57
442.08	5.57
442.435	5.57
442.79	5.54
443.145	5.54
443.5	5.53
443.855	5.5
444.21	5.5
444.565	5.48
444.92	5.49
445.275	5.45
445.629	5.43
445.984	5.43
446.339	5.41
446.693	5.4
447.048	5.37
447.403	5.36
447.757	5.35
448.112	5.33
448.466	5.32
448.82	5.29
449.175	5.29
449.529	5.25
449.883	5.21
450.238	5.2
450.592	5.19
450.946	5.17
451.3	5.18
451.654	5.16
452.008	5.16
452.362	5.11
452.716	5.11
453.07	5.09
453.424	5.08
453.778	5.08
454.132	5.04
454.486	5.05
454.839	5.02
455.193	5.02
455.547	5.04
455.9	5.05
456.254	5.08
456.607	5.07
456.961	5.09
457.314	5.11
457.668	5.12
458.021	5.12
458.375	5.13
458.728	5.13
459.081	5.11
459.434	5.11
459.787	5.14
460.141	5.16
460.494	5.19
460.847	5.19
461.2	5.2
461.553	5.21
461.906	5.24
462.259	5.28
462.611	5.32
462.964	5.32
463.317	5.34
463.67	5.35
464.022	5.38
464.375	5.43
464.728	5.44
465.08	5.46
465.433	5.49
465.785	5.52
466.138	5.55
466.49	5.61
466.843	5.64
467.195	5.66
467.547	5.69
467.899	5.7
468.252	5.75
468.604	5.78
468.956	5.83
469.308	5.84
469.66	5.84
470.012	5.83
470.364	5.86
470.716	5.87
471.068	5.88
471.42	5.88
471.772	5.88
472.123	5.9
472.475	5.94
472.827	5.96
473.178	5.97
473.53	5.97
473.882	5.98
474.233	5.97
474.585	5.96
474.936	5.94
475.288	5.95
475.639	5.93
475.99	5.93
476.342	5.9
476.693	5.9
477.044	5.92
477.395	5.92
477.746	5.9
478.097	5.87
478.448	5.85
478.8	5.83
479.15	5.8
479.501	5.79
479.852	5.76
480.203	5.72
480.554	5.73
480.905	5.72
481.255	5.72
481.606	5.72
481.957	5.71
482.307	5.72
482.658	5.7
483.009	5.69
483.359	5.69
483.709	5.68
484.06	5.68
484.41	5.67
484.761	5.66
485.111	5.66
485.461	5.67
485.811	5.68
486.162	5.68
486.512	5.68
486.862	5.68
487.212	5.68
487.562	5.69
487.912	5.69
488.262	5.69
488.612	5.69
488.961	5.7
489.311	5.71
489.661	5.7
490.011	5.71
490.36	5.73
490.71	5.74
491.06	5.75
491.409	5.76
491.759	5.79
492.108	5.81
492.458	5.84
492.807	5.87
493.157	5.9
493.506	5.94
493.855	5.99
494.204	6.02
494.554	6.05
494.903	6.11
495.252	6.15
495.601	6.21
495.95	6.27
496.299	6.32
496.648	6.38
496.997	6.45
497.346	6.52
497.695	6.61
498.043	6.68
498.392	6.76
498.741	6.86
499.09	6.93
499.438	7.03
499.787	7.11
500.135	7.21
500.484	7.3
500.832	7.39
501.181	7.5
501.529	7.61
501.878	7.72
502.226	7.83
502.574	7.96
502.923	8.08
503.271	8.21
503.619	8.34
503.967	8.5
504.315	8.65
504.663	8.81
505.011	8.96
505.359	9.11
505.707	9.26
506.055	9.41
506.403	9.55
506.751	9.71
507.098	9.87
507.446	10.01
507.794	10.17
508.141	10.35
508.489	10.5
508.837	10.68
509.184	10.86
509.531	11.02
509.879	11.23
510.226	11.4
510.574	11.59
510.921	11.75
511.268	11.95
511.616	12.14
511.963	12.34
512.31	12.51
512.657	12.72
513.004	12.91
513.351	13.14
513.698	13.38
514.045	13.6
514.392	13.84
514.739	14.08
515.086	14.33
515.432	14.56
515.779	14.81
516.126	15.04
516.473	15.29
516.819	15.51
517.166	15.68
517.512	15.88
517.859	16.04
518.205	16.23
518.552	16.42
518.898	16.61
519.245	16.79
519.591	16.99
519.937	17.2
520.283	17.41
520.629	17.65
520.976	17.87
521.322	18.14
521.668	18.38
522.014	18.65
522.36	18.91
522.706	19.2
523.052	19.51
523.398	19.84
523.743	20.18
524.089	20.53
524.435	20.89
524.781	21.24
525.126	21.54
525.472	21.87
525.817	22.12
526.163	22.36
526.509	22.56
526.854	22.77
527.199	22.98
527.545	23.17
527.89	23.35
528.235	23.55
528.581	23.72
528.926	23.92
529.271	24.13
529.616	24.34
529.961	24.53
530.306	24.75
530.651	24.97
530.996	25.21
531.341	25.43
531.686	25.69
532.031	25.92
532.376	26.2
532.721	26.43
533.065	26.72
533.41	27.02
533.755	27.35
534.099	27.65
534.444	27.95
534.788	28.26
535.133	28.57
535.477	28.88
535.822	29.21
536.166	29.55
536.51	29.92
536.855	30.31
537.199	30.7
537.543	31.07
537.887	31.45
538.231	31.8
538.576	32.2
538.92	32.56
539.264	32.94
539.608	33.23
539.951	33.57
540.295	33.84
540.639	34.12
540.983	34.37
541.327	34.68
541.671	34.94
542.014	35.21
542.358	35.42
542.701	35.68
543.045	35.95
543.389	36.23
543.732	36.45
544.075	36.7
544.419	36.96
544.762	37.24
545.105	37.48
545.449	37.76
545.792	38.01
546.135	38.31
546.478	38.6
546.821	38.95
547.165	39.24
547.508	39.6
547.851	39.95
548.194	40.28
548.536	40.55
548.879	40.9
549.222	41.18
549.565	41.57
549.908	41.89
550.25	42.19
550.593	42.47
550.936	42.83
551.278	43.11
551.621	43.4
551.963	43.71
552.306	44.06
552.648	44.38
552.991	44.72
553.333	44.98
553.675	45.23
554.017	45.5
554.36	45.8
554.702	46.06
555.044	46.25
555.386	46.5
555.728	46.77
556.07	46.96
556.412	47.17
556.754	47.37
557.096	47.63
557.438	47.86
557.78	48.05
558.121	48.31
558.463	48.54
558.805	48.78
559.147	49
559.488	49.19
559.83	49.39
560.171	49.56
560.513	49.7
560.854	49.92
561.196	50.09
561.537	50.23
561.878	50.4
562.22	50.64
562.561	50.83
562.902	50.99
563.243	51.15
563.584	51.36
563.925	51.52
564.266	51.66
564.607	51.79
564.948	51.97
565.289	52.04
565.63	52.24
565.971	52.35
566.312	52.48
566.653	52.64
566.993	52.81
567.334	53.01
567.675	53.19
568.015	53.31
568.356	53.42
568.696	53.57
569.037	53.67
569.377	53.79
569.718	53.85
570.058	54.01
570.398	54.12
570.739	54.23
571.079	54.27
571.419	54.37
571.759	54.5
572.099	54.64
572.439	54.77
572.779	54.82
573.119	54.91
573.459	54.97
573.799	55.04
574.139	55.12
574.479	55.15
574.819	55.26
575.158	55.4
575.498	55.53
575.838	55.62
576.177	55.72
576.517	55.77
576.856	55.93
577.196	55.99
577.535	56.12
577.875	56.22
578.214	56.45
578.553	56.65
578.893	56.77
579.232	56.9
579.571	57.08
579.91	57.28
580.25	57.45
580.589	57.62
580.928	57.81
581.267	57.84
581.606	57.96
581.945	58.06
582.283	58.09
582.622	58.18
582.961	58.31
583.3	58.43
583.639	58.62
583.977	58.72
584.316	58.76
584.654	58.79
584.993	58.91
585.332	58.97
585.67	58.9
586.008	58.97
586.347	58.93
586.685	58.91
587.024	58.89
587.362	58.9
587.7	58.97
588.038	59.01
588.376	59.19
588.715	59.27
589.053	59.33
589.391	59.41
589.729	59.51
590.067	59.52
590.404	59.62
590.742	59.61
591.08	59.62
591.418	59.71
591.756	59.84
592.093	59.94
592.431	59.91
592.769	60.05
593.106	60.12
593.444	60.18
593.781	60.24
594.119	60.3
594.456	60.37
594.793	60.35
595.131	60.38
595.468	60.37
595.805	60.39
596.143	60.4
596.48	60.46
596.817	60.46
597.154	60.48
597.491	60.41
597.828	60.48
598.165	60.56
598.502	60.6
598.839	60.68
599.176	60.68
599.512	60.79
599.849	60.82
600.186	60.81
600.523	60.92
600.859	61.06
601.196	61.14
601.532	61.09
601.869	61.14
602.205	61.18
602.542	61.29
602.878	61.3
603.215	61.4
603.551	61.38
603.887	61.39
604.223	61.44
604.56	61.52
604.896	61.53
605.232	61.51
605.568	61.57
605.904	61.55
606.24	61.59
606.576	61.61
606.912	61.62
607.248	61.71
607.583	61.7
607.919	61.69
608.255	61.72
608.591	61.85
608.926	61.89
609.262	61.96
609.597	61.91
609.933	61.99
610.268	61.99
610.604	61.98
610.939	61.99
611.275	62.01
611.61	62.03
611.945	62.07
612.281	62.15
612.616	62.23
612.951	62.27
613.286	62.3
613.621	62.35
613.956	62.37
614.291	62.37
614.626	62.42
614.961	62.44
615.296	62.42
615.631	62.51
615.966	62.58
616.3	62.46
616.635	62.54
616.97	62.57
617.304	62.56
617.639	62.78
617.973	62.84
618.308	62.87
618.642	62.86
618.977	62.93
619.311	62.95
619.646	62.9
619.98	62.84
620.314	62.91
620.648	62.91
620.983	62.93
621.317	62.98
621.651	63.05
621.985	63.03
622.319	63.04
622.653	62.98
622.987	63.04
623.321	63.08
623.655	63.03
623.988	63.04
624.322	63.02
624.656	62.96
624.99	63.11
625.323	63.23
625.657	63.33
625.99	63.18
626.324	63.27
626.657	63.21
626.991	63.34
627.324	63.22
627.658	63.32
627.991	63.31
628.324	63.31
628.657	63.2
628.991	63.23
629.324	63.32
629.657	63.4
629.99	63.4
630.323	63.5
630.656	63.55
630.989	63.6
631.322	63.64
631.655	63.65
631.987	63.52
632.32	63.55
632.653	63.54
632.986	63.59
633.318	63.55
633.651	63.62
633.984	63.62
634.316	63.72
634.649	63.69
634.981	63.79
635.313	63.83
635.646	63.91
635.978	63.91
636.31	63.97
636.643	63.89
636.975	63.92
637.307	63.91
637.639	63.91
637.971	63.9
638.303	63.97
638.635	63.93
638.967	63.94
639.299	63.92
639.631	63.84
639.963	64.03
640.295	64.06
640.626	64.1
640.958	64.08
641.29	64.07
641.621	64.03
641.953	63.94
642.285	63.98
642.616	64.05
642.948	64.04
643.279	63.94
643.61	63.92
643.942	63.95
644.273	64.08
644.604	64.15
644.936	64.24
645.267	64.22
645.598	64.28
645.929	64.4
646.26	64.43
646.591	64.48
646.922	64.41
647.253	64.38
647.584	64.48
647.915	64.49
648.245	64.53
648.576	64.7
648.907	64.76
649.238	64.73
649.568	64.65
649.899	64.75
650.229	64.85
650.56	64.89
650.89	64.87
651.221	64.82
651.551	64.79
651.882	64.76
652.212	64.9
652.542	64.92
652.872	64.96
653.203	64.92
653.533	64.97
653.863	65.02
654.193	65.06
654.523	65
654.853	65.06
655.183	64.96
655.513	64.94
655.843	65.03
656.172	65.11
656.502	65.15
656.832	65.09
657.162	65.1
657.491	65.1
657.821	65.2
658.15	65.12
658.48	65.14
658.809	65.14
659.139	65.07
659.468	65.05
659.798	64.98
660.127	64.94
660.456	64.91
660.785	64.88
661.115	64.89
661.444	64.92
661.773	64.93
662.102	64.97
662.431	64.95
662.76	64.95
663.089	64.86
663.418	64.95
663.747	65.01
664.076	65
664.404	65.05
664.733	65.02
665.062	65.03
665.39	65.07
665.719	65.21
666.048	65.21
666.376	65.24
666.705	65.23
667.033	65.18
667.362	65.19
667.69	65.24
668.018	65.3
668.347	65.45
668.675	65.41
669.003	65.54
669.331	65.59
669.659	65.61
669.987	65.83
670.315	65.86
670.643	65.84
670.971	65.83
671.299	65.87
671.627	65.71
671.955	65.82
672.283	65.78
672.61	65.64
672.938	65.75
673.266	65.87
673.593	66.13
673.921	66.29
674.249	66.28
674.576	66.34
674.904	66.19
675.231	66.18
675.558	66.2
675.886	66.27
676.213	66.25
676.54	66.19
676.867	65.99
677.195	66.01
677.522	66.15
677.849	66.12
678.176	66.1
678.503	66.26
678.83	66.28
679.157	66.22
679.484	66.18
679.81	66.09
680.137	66.13
680.464	65.94
680.791	65.84
681.117	65.99
681.444	66
681.771	66.06
682.097	65.95
682.424	66.05
682.75	65.92
683.077	65.84
683.403	65.81
683.729	65.85
684.056	65.76
684.382	65.55
684.708	65.59
685.034	65.59
685.36	65.6
685.686	65.68
686.012	65.84
686.339	65.87
686.664	65.85
686.99	65.84
687.316	65.88
687.642	66.09
687.968	65.9
688.294	65.9
688.619	65.92
688.945	65.87
689.271	65.92
689.596	66.06
689.922	66.17
690.247	66.24
690.573	66.21
690.898	66.42
691.224	66.51
691.549	66.65
691.874	66.61
692.2	66.51
692.525	66.52
692.85	66.41
693.175	66.46
693.5	66.54
693.825	66.4
694.15	66.41
694.475	66.32
694.8	66.44
695.125	66.29
695.45	66.27
695.775	66.3
696.099	66.15
696.424	66.04
696.749	65.96
697.073	65.98
697.398	66
697.723	65.84
698.047	65.93
698.372	65.85
698.696	65.97
699.02	66.05
699.345	65.96
699.669	66.12
699.993	66.24
700.318	66.26
700.642	66.33
700.966	66.41
701.29	66.28
701.614	66.39
701.938	66.54
702.262	66.78
702.586	66.85
702.91	66.84
703.234	66.98
703.557	67.13
703.881	67.1
704.205	67.15
704.529	67.43
704.852	67.39
705.176	67.52
705.499	67.24
705.823	67.23
706.146	67.31
706.47	67.3
706.793	67.12
707.117	67.04
707.44	67.09
707.763	67.02
708.086	67.08
708.409	66.96
708.733	66.74
709.056	66.61
709.379	66.71
709.702	66.77
710.025	66.67
710.348	66.62
710.671	66.72
710.993	66.88
711.316	66.65
711.639	66.65
711.962	66.61
712.284	66.73
712.607	66.73
712.93	66.86
713.252	66.51
713.575	66.57
713.897	66.6
714.22	66.52
714.542	66.44
714.864	66.38
715.187	66.7
715.509	66.74
715.831	66.55
716.153	66.49
716.475	66.47
716.798	66.54
717.12	66.48
717.442	66.6
717.764	66.54
718.085	66.78
718.407	66.72
718.729	66.52
719.051	66.59
719.373	66.65
719.695	66.15
720.016	66.46
720.338	66.51
720.659	66.67
720.981	66.66
721.302	66.81
721.624	67.05
721.945	66.67
722.267	66.79
722.588	67.01
722.909	66.91
723.231	67.01
723.552	67.15
723.873	67.05
724.194	67.06
724.515	66.9
724.836	66.69
725.157	66.79
725.478	66.92
725.799	66.89
726.12	66.83
726.441	67.2
726.762	67.2
727.083	67.25
727.403	66.97
727.724	67.05
728.045	66.8
728.365	66.75
728.686	66.62
729.006	66.82
729.327	66.6
729.647	66.8
729.967	67
730.288	67.05
730.608	67.24
730.928	67.16
731.249	67.35
731.569	67.49
731.889	67.22
732.209	67.2
732.529	67.38
732.849	67.43
733.169	67.62
733.489	67.74
733.809	67.86
734.129	68.11
734.448	67.99
734.768	68.06
735.088	68.11
735.408	68.08
735.727	67.97
736.047	68.2
736.366	68.08
736.686	67.86
737.005	67.3
737.325	67.18
737.644	67.06
737.963	66.98
738.283	66.85
738.602	67.13
738.921	67.17
739.24	67.24
739.56	67.1
739.879	66.99
740.198	67.13
740.517	66.87
740.836	66.8
741.155	66.99
741.473	67.35
741.792	67.37
742.111	67.65
742.43	67.71
742.748	67.79
743.067	67.71
743.386	67.77
743.704	68.43
744.023	68.72
744.341	68.84
744.66	68.92
744.978	69.01
745.297	69.05
745.615	69.05
745.933	68.6
746.252	68.78
746.57	68.69
746.888	68.18
747.206	67.96
747.524	68.03
747.842	67.99
748.16	67.65
748.478	67.45
748.796	67.28
749.114	67.53
749.432	67.31
749.749	67.29
750.067	67.26
750.385	66.92
750.703	66.99
751.02	66.94
751.338	67.01
751.655	66.86
751.973	67.23
752.29	67.29
752.608	67.43
752.925	67.74
753.242	67.72
753.56	67.84
753.877	67.9
754.194	67.79
754.511	67.37
754.828	67.47
755.145	67.68
755.462	67.77
755.779	67.65
756.096	67.63
756.413	67.53
756.73	67.56
757.047	68.14
757.364	67.81
757.68	67.77
757.997	67.52
758.314	67.41
758.63	66.9
758.947	67.35
759.264	67.56
759.58	67.26
759.896	67.47
760.213	67.56
760.529	67.97
760.846	67.81
761.162	68.19
761.478	68.07
761.794	67.95
762.11	67.84
762.426	67.47
762.743	67.41
763.059	67.65
763.375	67.5
763.69	67.12
764.006	67.4
764.322	67.37
764.638	67.65
764.954	67.62
765.27	67.7
765.585	67.05
765.901	67.23
766.216	67.35
766.532	67.1
766.848	67.03
767.163	66.73
767.478	66.63
767.794	66.34
768.109	66.26
768.424	66.25
768.74	66.18
769.055	66.31
769.37	66.5
769.685	66.2
770	66.38
770.315	66.33
770.63	65.71
770.945	65.75
771.26	65.38
771.575	65.5
771.89	65.44
772.205	65.64
772.52	64.97
772.834	65.05
773.149	64.77
773.464	64.57
773.778	64.9
774.093	65.34
774.407	65.41
774.722	65.58
775.036	65.61
775.351	65.6
775.665	65.64
775.979	65.32
776.293	65.41
776.608	65.34
776.922	65
777.236	65.44
777.55	65.67
777.864	65.95
778.178	65.7
778.492	66.27
778.806	66.32
779.12	66.48
779.434	66.03
779.747	66.43
780.061	66.86
780.375	66.68
780.689	66.19
781.002	66.36
781.316	66.43
781.629	66.54
781.943	67.12
782.256	67.3
782.57	67.68
782.883	67.72
783.196	67.69
783.51	67.77
783.823	67.67
784.136	67.69
784.449	67.39
784.762	67.47
785.075	67.04
785.388	66.73
785.701	67.2
786.014	66.89
786.327	67.09
786.64	66.77
786.953	67
787.266	67
787.578	67.41
787.891	67.44
788.204	67.17
788.516	66.89
788.829	66.82
789.141	67.16
789.454	67.41
789.766	67.68
790.079	68.07
790.391	67.96
790.703	67.8
791.016	67.91
791.328	68.4
791.64	68.85
791.952	69.13
792.264	68.58
792.576	69.75
792.888	69.62
793.2	69.71
793.512	69.55
793.824	69.83
794.136	69.37
794.448	69.42
794.76	69.61
795.071	69.36
795.383	69.09
795.695	68.57
796.006	69
796.318	68.93
796.629	68.83
796.941	69.04
797.252	68.45
797.564	67.99
797.875	67.92
798.186	67.55
798.497	67.52
798.809	67.63
799.12	67.15
799.431	66.93
799.742	66.82
800.053	67.09
800.364	67.25
800.675	66.69
800.986	66.41
801.297	66.45
801.608	66.41
801.918	66.54
802.229	66.37
802.54	65.34
802.851	65.28
803.161	65.37
803.472	64.86
803.782	65.63
804.093	65.73
804.403	65.49
804.714	65.44
805.024	65.41
805.334	65.89
805.645	65.58
805.955	65.77
806.265	65.95
806.575	65.17
806.885	65.03
807.195	65.56
807.505	65.4
807.815	65.14
808.125	65.55
808.435	65.22
808.745	65.44
809.055	65.98
809.365	65.95
809.674	65.17
809.984	65.7
810.294	65.91
810.603	65.98
810.913	66.59
811.222	66.39
811.532	66.9
811.841	66.76
812.151	67.31
812.46	67.24
812.769	66.94
813.079	67.75
813.388	68.23
813.697	68.69
814.006	68.63
814.315	69.39
814.624	69.39
814.933	69.23
815.242	69.65
815.551	69.28
815.86	69.3
816.169	70.13
816.478	70.39
816.786	69.82
817.095	69.89
817.404	69.5
817.712	70.74
818.021	70.82
818.33	69.62
818.638	69.23
818.947	69.32
819.255	69.35
819.563	69.29
819.872	68.9
820.18	68.49
820.488	68.75
820.796	68.49
821.105	68.47
821.413	68.53
821.721	68.29
822.029	68.1
822.337	68.24
822.645	68.29
822.953	68.18
823.26	68.2
823.568	68.17
823.876	68.21
824.184	68.07
824.491	68.05
824.799	68.28
825.107	68.59
825.414	68.52
825.722	68.6
826.029	68.53
826.337	68.58
826.644	68.86
826.951	68.87
827.259	68.76
827.566	68.64
827.873	68.79
828.18	68.99
828.488	69.32
828.795	69.17
829.102	69.13
829.409	69.06
829.716	69.37
830.023	69.6
830.329	69.52
830.636	69.13
830.943	69.19
831.25	69.11
831.557	68.22
831.863	67.68
832.17	67.48
832.476	67.33
832.783	67.07
833.089	66.73
833.396	66.72
833.702	67.27
834.009	67.25
834.315	66.9
834.621	67.06
834.928	67.04
835.234	67.55
835.54	67.04
835.846	67.14
836.152	66.97
836.458	66.91
836.764	67.07
837.07	67.45
837.376	67.44
837.682	67.75
837.988	68.06
838.293	69.09
838.599	69.54
838.905	69.16
839.211	69.29
839.516	69.06
839.822	69.45
840.127	69.56
840.433	69.22
840.738	70.41
841.044	70.98
841.349	70.99
841.654	69.98
841.959	70.56
842.265	71.11
842.57	69.88
842.875	70.14
843.18	69.44
843.485	69.34
843.79	68.47
844.095	67.98
844.4	68.69
844.705	69.22
845.01	67.88
845.315	68.72
845.619	69.8
845.924	68.99
846.229	67.63
846.533	67.12
846.838	68.15
847.142	65.7
847.447	62.72
847.751	62.55
848.056	62.43
848.36	63.2
848.664	64.16
848.969	64.47
849.273	63.17
849.577	64.06
849.881	63.61
850.185	64.81
850.489	66.1
850.794	64.54
851.097	62.96
851.401	63.2
851.705	64.2
852.009	63.71
852.313	62.68
852.617	63.83
852.92	64.66
853.224	65.77
853.528	67.58
853.831	68.5
854.135	69.58
854.438	68.86
854.742	69.73
855.045	68.49
855.349	68.64
855.652	68.8
855.955	69.57
856.259	68.21
856.562	65.45
856.865	64.72
857.168	66.7
857.471	67.78
857.774	70.69
858.077	69.06
858.38	69.94
858.683	71.77
858.986	70.94
859.289	69.77
859.592	69.73
859.894	69.48
860.197	71.81
860.5	68.49
860.802	69.16
861.105	68.87
861.407	68.89
861.71	70.84
862.012	70.15
862.315	68.57
862.617	70.23
862.919	72.83
863.222	72.78
863.524	72.16
863.826	73.19
864.128	72.26
864.43	72.17
864.732	69.64
865.034	73.05
865.336	71.99
865.638	69.93
865.94	67.9
866.242	67.57
866.544	65.51
866.846	67.93
867.147	66.39
867.449	66
867.751	65.81
868.052	65.4
868.354	69.45
868.655	69.55
868.957	70.95
869.258	71.14
869.56	69.57
869.861	67.89
870.162	65.88
870.463	64.92
870.765	66.83
871.066	70.69
871.367	70.7
871.668	74.46
871.969	79.99
872.27	81.36
872.571	83.77
872.872	82.74
873.173	81.06
873.473	81.07
873.774	83.2
874.075	84.32
874.376	85.01
874.676	81.96
874.977	80.01
875.277	79.61
875.578	79.44
875.878	80.73
876.179	82.22
876.479	83.85
876.78	84.32
877.08	83.9
877.38	81.37
877.68	79.51
877.981	77.08
878.281	72.27
878.581	71.38
