Data from BA57715_Reflection_00010.txt Node
Date: Mon Nov 18 15:26:06 EST 2019
User: vgr7
Spectrometer: USB2G7710
Scans to average: 3
Trigger mode: 4
Integration Time (sec): 2.000000E-2
Electric dark correction enabled: true
Boxcar width: 10
XAxis mode: Wavelengths
Number of Pixels in Spectrum: 2048
>>>>>Begin Spectral Data<<<<<
177.721	62.02
178.105	91.18
178.488	79.22
178.871	53.01
179.254	159.19
179.636	109.59
180.019	161.88
180.402	-4.17
180.785	-137.64
181.168	382.74
181.55	215.51
181.933	117.23
182.316	91.26
182.698	119.03
183.081	203.38
183.463	385.45
183.846	293.1
184.228	987.55
184.611	338.52
184.993	-1665.43
185.376	-120.46
185.758	-144.84
186.14	-89.62
186.522	-62.11
186.904	318.86
187.287	104.59
187.669	-329.72
188.051	3607.94
188.433	1457.49
188.815	1523.28
189.197	-688.11
189.579	-392.2
189.961	-673.24
190.342	-250.04
190.724	-159.4
191.106	-234.81
191.488	-171.58
191.869	-107.04
192.251	-133.93
192.633	-110.99
193.014	-216.24
193.396	-533.76
193.777	-700.38
194.159	1882.22
194.54	-692.66
194.922	-292.98
195.303	-189.35
195.684	-371.66
196.065	-231.7
196.447	-166.79
196.828	-194.79
197.209	-149.85
197.59	-278.83
197.971	-132.46
198.352	-102.71
198.733	-94.85
199.114	-66.08
199.495	-87.27
199.876	-73.56
200.257	-87.01
200.638	-70.3
201.018	-64.33
201.399	-48.33
201.78	-25.67
202.16	-16.04
202.541	-47.72
202.922	-66.43
203.302	-149.79
203.683	-98.76
204.063	-121.74
204.444	-158.68
204.824	-129.91
205.204	-101.43
205.585	-83.89
205.965	-70.57
206.345	-63.71
206.725	-173.06
207.106	-208.07
207.486	-230.76
207.866	-1109.15
208.246	490.95
208.626	-956.74
209.006	-109.04
209.386	-114.36
209.766	-190.78
210.145	-139.97
210.525	-94.37
210.905	-45.59
211.285	-13.3
211.664	-0.43
212.044	3.7
212.424	8.78
212.803	-13.64
213.183	-22.44
213.562	-3.97
213.942	3.72
214.321	-17.95
214.701	-0.14
215.08	3.88
215.459	-5.52
215.838	0.69
216.218	-5.53
216.597	-2.7
216.976	2.81
217.355	-4.39
217.734	0.44
218.113	5.79
218.492	0.54
218.871	1.36
219.25	-0.81
219.629	-6.12
220.008	-3.26
220.387	-8.81
220.766	-2.37
221.144	-13.73
221.523	-22.45
221.902	-39.13
222.28	-36.73
222.659	-32.05
223.037	-32.27
223.416	-43.11
223.794	-52.77
224.173	-38.27
224.551	-29.73
224.929	-38
225.308	-27.09
225.686	-22.01
226.064	-19.38
226.442	-16.19
226.821	-10.66
227.199	-10.91
227.577	-11.9
227.955	-13.91
228.333	-13.17
228.711	-12.46
229.089	-6.43
229.467	-7.64
229.845	-7.65
230.222	-4.68
230.6	-7.43
230.978	-10.24
231.356	-8.41
231.733	-7.72
232.111	-6.99
232.488	-8.22
232.866	-5.39
233.243	-5.64
233.621	-5.22
233.998	-5.62
234.376	-6.22
234.753	-7.65
235.13	-6.05
235.508	-4
235.885	-4.16
236.262	-3.16
236.639	-3.04
237.016	-2.87
237.393	-1.12
237.77	1.07
238.147	0.63
238.524	1.76
238.901	3.21
239.278	4.15
239.655	4.71
240.032	4.53
240.409	4.63
240.785	4.29
241.162	4.37
241.539	4.4
241.915	4.8
242.292	4.77
242.668	4.64
243.045	4.85
243.421	4.56
243.798	4.48
244.174	4.21
244.551	4.38
244.927	4.15
245.303	4.43
245.679	4.3
246.056	4.42
246.432	4.48
246.808	4.42
247.184	4.23
247.56	3.98
247.936	3.97
248.312	3.99
248.688	4
249.064	4
249.44	3.96
249.815	4.01
250.191	4.13
250.567	4.15
250.943	3.94
251.318	4.02
251.694	4.04
252.069	4.2
252.445	4.4
252.82	4.77
253.196	4.51
253.571	4.38
253.947	4.58
254.322	4.36
254.697	4.24
255.073	4.06
255.448	4.02
255.823	4.23
256.198	4.48
256.573	4.17
256.948	4.28
257.323	4.2
257.698	4.12
258.073	4.08
258.448	3.96
258.823	3.82
259.198	3.68
259.573	3.76
259.948	3.77
260.322	3.52
260.697	3.36
261.072	3.29
261.446	3.26
261.821	3.02
262.195	3.32
262.57	3.37
262.944	3.42
263.319	3.49
263.693	3.29
264.067	3.11
264.442	3.43
264.816	3.36
265.19	3.28
265.564	3.12
265.938	3.15
266.313	3.29
266.687	3.28
267.061	3.43
267.435	3.34
267.809	3.43
268.183	3.44
268.556	3.48
268.93	3.57
269.304	3.72
269.678	3.76
270.051	3.5
270.425	3.5
270.799	3.49
271.172	3.57
271.546	3.6
271.919	3.46
272.293	3.26
272.666	3.25
273.04	3.48
273.413	3.53
273.787	3.5
274.16	3.41
274.533	3.46
274.906	3.39
275.279	3.48
275.653	3.32
276.026	3.37
276.399	3.32
276.772	3.31
277.145	3.24
277.518	3.3
277.891	3.37
278.263	3.27
278.636	3.26
279.009	3.24
279.382	3.4
279.755	3.59
280.127	3.71
280.5	3.89
280.872	3.79
281.245	3.8
281.617	3.89
281.99	4.11
282.362	4.11
282.735	4.14
283.107	4.12
283.479	4.29
283.852	4.25
284.224	4.3
284.596	4.31
284.968	4.24
285.34	4.35
285.713	4.38
286.085	4.44
286.457	4.57
286.829	4.59
287.201	4.52
287.572	4.43
287.944	4.4
288.316	4.32
288.688	4.22
289.06	4.26
289.431	4.21
289.803	4.2
290.175	4.29
290.546	4.44
290.918	4.37
291.289	4.36
291.661	4.44
292.032	4.46
292.403	4.53
292.775	4.76
293.146	4.76
293.517	4.75
293.889	4.83
294.26	4.7
294.631	4.74
295.002	4.76
295.373	4.8
295.744	4.85
296.115	4.89
296.486	5.01
296.857	5.11
297.228	5.2
297.599	5.19
297.97	5.26
298.34	5.19
298.711	5.3
299.082	5.21
299.452	5.23
299.823	5.2
300.194	5.27
300.564	5.07
300.935	5.13
301.305	5.11
301.676	5.17
302.046	5.17
302.416	5.23
302.787	5.25
303.157	5.29
303.527	5.35
303.897	5.32
304.267	5.47
304.637	5.43
305.008	5.49
305.378	5.59
305.748	5.54
306.117	5.52
306.487	5.66
306.857	5.92
307.227	5.94
307.597	6.17
307.967	6.17
308.336	6.3
308.706	6.27
309.076	6.34
309.445	6.29
309.815	6.52
310.184	6.58
310.554	6.76
310.923	6.88
311.293	7.03
311.662	7.09
312.031	7.1
312.401	7.03
312.77	7.09
313.139	7.16
313.508	7.22
313.877	7.29
314.246	7.37
314.616	7.28
314.985	7.44
315.353	7.31
315.722	7.28
316.091	7.41
316.46	7.38
316.829	7.53
317.198	7.65
317.567	7.59
317.935	7.7
318.304	7.68
318.672	7.72
319.041	7.77
319.41	7.86
319.778	7.76
320.147	8.03
320.515	8.08
320.883	8.08
321.252	8.21
321.62	8.47
321.988	8.63
322.357	8.78
322.725	8.91
323.093	9.2
323.461	9.39
323.829	9.51
324.197	9.81
324.565	9.79
324.933	9.91
325.301	10.01
325.669	9.97
326.037	10.04
326.405	10.08
326.772	10.11
327.14	10.27
327.508	10.47
327.875	10.53
328.243	10.51
328.61	10.67
328.978	10.7
329.346	10.65
329.713	10.48
330.08	10.68
330.448	10.62
330.815	10.59
331.182	10.62
331.55	10.6
331.917	10.59
332.284	10.66
332.651	10.58
333.018	10.75
333.385	10.84
333.752	10.92
334.119	11.04
334.486	11.07
334.853	11.08
335.22	11.05
335.587	11.02
335.954	11.1
336.32	11.1
336.687	11.28
337.054	11.24
337.42	11.36
337.787	11.37
338.153	11.36
338.52	11.27
338.886	11.3
339.253	11.32
339.619	11.38
339.986	11.52
340.352	11.62
340.718	11.45
341.084	11.43
341.451	11.46
341.817	11.5
342.183	11.54
342.549	11.57
342.915	11.62
343.281	11.67
343.647	11.62
344.013	11.72
344.379	11.65
344.745	11.79
345.11	11.9
345.476	11.87
345.842	11.92
346.208	12.1
346.573	12.14
346.939	12.25
347.304	12.13
347.67	12.07
348.035	12.11
348.401	12.27
348.766	12.28
349.132	12.2
349.497	12.06
349.862	12.12
350.228	12.05
350.593	11.95
350.958	12
351.323	12.15
351.688	12.06
352.053	12.04
352.418	12.09
352.783	12.04
353.148	12.03
353.513	12.01
353.878	11.92
354.243	11.94
354.608	11.89
354.972	11.92
355.337	11.93
355.702	11.97
356.066	12.01
356.431	11.97
356.795	12.16
357.16	12.15
357.524	12.12
357.889	12.02
358.253	12.1
358.618	12.13
358.982	12.02
359.346	11.9
359.71	11.79
360.075	11.7
360.439	11.67
360.803	11.6
361.167	11.64
361.531	11.61
361.895	11.52
362.259	11.47
362.623	11.51
362.987	11.48
363.351	11.44
363.714	11.3
364.078	11.24
364.442	11.06
364.806	11.08
365.169	10.95
365.533	11
365.896	10.98
366.26	10.88
366.623	10.84
366.987	10.94
367.35	11.03
367.714	10.99
368.077	10.92
368.44	10.94
368.803	10.79
369.167	10.77
369.53	10.69
369.893	10.67
370.256	10.6
370.619	10.47
370.982	10.3
371.345	10.22
371.708	10.14
372.071	10.12
372.434	10.03
372.797	10.01
373.159	9.93
373.522	9.82
373.885	9.78
374.247	9.73
374.61	9.59
374.973	9.45
375.335	9.43
375.698	9.41
376.06	9.34
376.423	9.27
376.785	9.21
377.147	9.21
377.51	9.13
377.872	9.04
378.234	9.06
378.596	9.04
378.958	8.98
379.321	9
379.683	8.92
380.045	8.88
380.407	8.82
380.769	8.8
381.13	8.77
381.492	8.7
381.854	8.69
382.216	8.61
382.578	8.59
382.939	8.51
383.301	8.44
383.663	8.37
384.024	8.32
384.386	8.3
384.747	8.23
385.109	8.21
385.47	8.12
385.832	8.05
386.193	8.06
386.554	7.99
386.916	7.92
387.277	7.91
387.638	7.84
387.999	7.75
388.36	7.66
388.721	7.57
389.082	7.51
389.443	7.38
389.804	7.3
390.165	7.2
390.526	7.1
390.887	7.04
391.248	6.98
391.609	6.96
391.969	6.89
392.33	6.88
392.691	6.8
393.051	6.77
393.412	6.71
393.772	6.64
394.133	6.62
394.493	6.54
394.854	6.48
395.214	6.42
395.574	6.42
395.935	6.39
396.295	6.35
396.655	6.32
397.015	6.27
397.376	6.24
397.736	6.23
398.096	6.23
398.456	6.15
398.816	6.1
399.176	6.02
399.535	5.97
399.895	5.86
400.255	5.82
400.615	5.76
400.975	5.71
401.334	5.61
401.694	5.55
402.054	5.5
402.413	5.46
402.773	5.44
403.132	5.38
403.492	5.34
403.851	5.32
404.211	5.28
404.57	5.27
404.929	5.26
405.288	5.22
405.648	5.18
406.007	5.15
406.366	5.13
406.725	5.12
407.084	5.08
407.443	5.09
407.802	5.09
408.161	5.05
408.52	5.05
408.879	5.04
409.238	5.04
409.596	5.03
409.955	4.96
410.314	4.95
410.673	4.89
411.031	4.84
411.39	4.82
411.748	4.77
412.107	4.72
412.465	4.71
412.824	4.65
413.182	4.62
413.54	4.59
413.899	4.58
414.257	4.57
414.615	4.52
414.974	4.48
415.332	4.42
415.69	4.4
416.048	4.36
416.406	4.36
416.764	4.33
417.122	4.3
417.48	4.27
417.838	4.24
418.195	4.24
418.553	4.22
418.911	4.19
419.269	4.19
419.626	4.18
419.984	4.15
420.342	4.13
420.699	4.1
421.057	4.09
421.414	4.06
421.772	4.01
422.129	4.01
422.486	3.98
422.844	3.96
423.201	3.96
423.558	3.93
423.915	3.91
424.273	3.9
424.63	3.88
424.987	3.87
425.344	3.86
425.701	3.83
426.058	3.82
426.415	3.79
426.772	3.76
427.128	3.74
427.485	3.73
427.842	3.73
428.199	3.74
428.555	3.73
428.912	3.72
429.269	3.74
429.625	3.72
429.982	3.72
430.338	3.69
430.695	3.68
431.051	3.68
431.407	3.67
431.764	3.67
432.12	3.66
432.476	3.66
432.832	3.64
433.189	3.65
433.545	3.64
433.901	3.64
434.257	3.64
434.613	3.64
434.969	3.64
435.325	3.62
435.681	3.61
436.036	3.6
436.392	3.61
436.748	3.61
437.104	3.6
437.459	3.59
437.815	3.6
438.171	3.6
438.526	3.6
438.882	3.61
439.237	3.59
439.593	3.6
439.948	3.59
440.304	3.59
440.659	3.61
441.014	3.6
441.369	3.59
441.725	3.58
442.08	3.56
442.435	3.55
442.79	3.55
443.145	3.54
443.5	3.54
443.855	3.53
444.21	3.5
444.565	3.49
444.92	3.49
445.275	3.46
445.629	3.45
445.984	3.44
446.339	3.41
446.693	3.41
447.048	3.4
447.403	3.38
447.757	3.36
448.112	3.31
448.466	3.29
448.82	3.28
449.175	3.27
449.529	3.27
449.883	3.25
450.238	3.24
450.592	3.23
450.946	3.2
451.3	3.21
451.654	3.19
452.008	3.2
452.362	3.2
452.716	3.2
453.07	3.19
453.424	3.2
453.778	3.2
454.132	3.19
454.486	3.17
454.839	3.17
455.193	3.17
455.547	3.19
455.9	3.2
456.254	3.21
456.607	3.22
456.961	3.21
457.314	3.21
457.668	3.21
458.021	3.22
458.375	3.25
458.728	3.23
459.081	3.24
459.434	3.24
459.787	3.25
460.141	3.26
460.494	3.27
460.847	3.28
461.2	3.28
461.553	3.29
461.906	3.3
462.259	3.32
462.611	3.34
462.964	3.35
463.317	3.36
463.67	3.36
464.022	3.38
464.375	3.39
464.728	3.42
465.08	3.42
465.433	3.43
465.785	3.4
466.138	3.43
466.49	3.43
466.843	3.43
467.195	3.44
467.547	3.46
467.899	3.47
468.252	3.45
468.604	3.49
468.956	3.51
469.308	3.52
469.66	3.49
470.012	3.52
470.364	3.52
470.716	3.53
471.068	3.56
471.42	3.55
471.772	3.57
472.123	3.59
472.475	3.6
472.827	3.6
473.178	3.63
473.53	3.62
473.882	3.64
474.233	3.65
474.585	3.64
474.936	3.65
475.288	3.64
475.639	3.66
475.99	3.65
476.342	3.62
476.693	3.62
477.044	3.65
477.395	3.61
477.746	3.61
478.097	3.62
478.448	3.6
478.8	3.6
479.15	3.57
479.501	3.56
479.852	3.56
480.203	3.56
480.554	3.56
480.905	3.56
481.255	3.55
481.606	3.54
481.957	3.55
482.307	3.54
482.658	3.54
483.009	3.54
483.359	3.53
483.709	3.54
484.06	3.54
484.41	3.55
484.761	3.55
485.111	3.56
485.461	3.57
485.811	3.57
486.162	3.57
486.512	3.58
486.862	3.58
487.212	3.59
487.562	3.6
487.912	3.6
488.262	3.6
488.612	3.62
488.961	3.63
489.311	3.63
489.661	3.64
490.011	3.64
490.36	3.65
490.71	3.65
491.06	3.66
491.409	3.67
491.759	3.67
492.108	3.68
492.458	3.68
492.807	3.68
493.157	3.7
493.506	3.72
493.855	3.75
494.204	3.77
494.554	3.78
494.903	3.8
495.252	3.81
495.601	3.85
495.95	3.88
496.299	3.91
496.648	3.94
496.997	3.97
497.346	4.03
497.695	4.07
498.043	4.11
498.392	4.15
498.741	4.2
499.09	4.24
499.438	4.31
499.787	4.35
500.135	4.42
500.484	4.46
500.832	4.51
501.181	4.57
501.529	4.62
501.878	4.72
502.226	4.78
502.574	4.85
502.923	4.9
503.271	4.96
503.619	5.05
503.967	5.13
504.315	5.2
504.663	5.28
505.011	5.36
505.359	5.44
505.707	5.52
506.055	5.6
506.403	5.7
506.751	5.79
507.098	5.89
507.446	5.97
507.794	6.04
508.141	6.14
508.489	6.21
508.837	6.3
509.184	6.38
509.531	6.47
509.879	6.59
510.226	6.7
510.574	6.78
510.921	6.85
511.268	6.95
511.616	7.04
511.963	7.13
512.31	7.23
512.657	7.36
513.004	7.48
513.351	7.58
513.698	7.69
514.045	7.78
514.392	7.89
514.739	8.02
515.086	8.15
515.432	8.26
515.779	8.38
516.126	8.52
516.473	8.66
516.819	8.77
517.166	8.87
517.512	8.98
517.859	9.09
518.205	9.2
518.552	9.31
518.898	9.41
519.245	9.52
519.591	9.64
519.937	9.72
520.283	9.84
520.629	9.99
520.976	10.12
521.322	10.3
521.668	10.46
522.014	10.63
522.36	10.81
522.706	11.01
523.052	11.21
523.398	11.43
523.743	11.63
524.089	11.83
524.435	12.04
524.781	12.25
525.126	12.48
525.472	12.67
525.817	12.84
526.163	13
526.509	13.16
526.854	13.3
527.199	13.45
527.545	13.59
527.89	13.74
528.235	13.88
528.581	14.03
528.926	14.18
529.271	14.33
529.616	14.47
529.961	14.62
530.306	14.79
530.651	14.96
530.996	15.14
531.341	15.33
531.686	15.52
532.031	15.74
532.376	15.92
532.721	16.13
533.065	16.36
533.41	16.6
533.755	16.83
534.099	17.08
534.444	17.34
534.788	17.6
535.133	17.83
535.477	18.07
535.822	18.32
536.166	18.59
536.51	18.89
536.855	19.23
537.199	19.55
537.543	19.88
537.887	20.22
538.231	20.53
538.576	20.87
538.92	21.24
539.264	21.55
539.608	21.89
539.951	22.2
540.295	22.48
540.639	22.75
540.983	23.02
541.327	23.28
541.671	23.54
542.014	23.79
542.358	24.05
542.701	24.34
543.045	24.6
543.389	24.88
543.732	25.12
544.075	25.39
544.419	25.67
544.762	25.97
545.105	26.24
545.449	26.58
545.792	26.9
546.135	27.18
546.478	27.51
546.821	27.82
547.165	28.17
547.508	28.52
547.851	28.86
548.194	29.2
548.536	29.56
548.879	29.93
549.222	30.24
549.565	30.6
549.908	30.94
550.25	31.29
550.593	31.63
550.936	32
551.278	32.34
551.621	32.69
551.963	33
552.306	33.35
552.648	33.63
552.991	33.96
553.333	34.3
553.675	34.59
554.017	34.92
554.36	35.26
554.702	35.54
555.044	35.88
555.386	36.27
555.728	36.62
556.07	36.94
556.412	37.3
556.754	37.59
557.096	37.89
557.438	38.18
557.78	38.5
558.121	38.8
558.463	39.11
558.805	39.38
559.147	39.68
559.488	39.94
559.83	40.2
560.171	40.54
560.513	40.86
560.854	41.12
561.196	41.41
561.537	41.58
561.878	41.88
562.22	42.12
562.561	42.35
562.902	42.64
563.243	42.89
563.584	43.13
563.925	43.39
564.266	43.6
564.607	43.88
564.948	44.06
565.289	44.31
565.63	44.55
565.971	44.78
566.312	45.01
566.653	45.23
566.993	45.49
567.334	45.65
567.675	45.83
568.015	46.05
568.356	46.2
568.696	46.48
569.037	46.67
569.377	46.92
569.718	47.08
570.058	47.19
570.398	47.34
570.739	47.55
571.079	47.72
571.419	47.9
571.759	48.07
572.099	48.18
572.439	48.24
572.779	48.35
573.119	48.5
573.459	48.66
573.799	48.78
574.139	48.89
574.479	48.98
574.819	49.05
575.158	49.2
575.498	49.36
575.838	49.48
576.177	49.56
576.517	49.58
576.856	49.71
577.196	49.84
577.535	50.02
577.875	50.13
578.214	50.18
578.553	50.33
578.893	50.47
579.232	50.65
579.571	50.86
579.91	51.03
580.25	51.13
580.589	51.19
580.928	51.36
581.267	51.49
581.606	51.67
581.945	51.83
582.283	51.88
582.622	51.93
582.961	52.03
583.3	52.14
583.639	52.36
583.977	52.43
584.316	52.54
584.654	52.62
584.993	52.7
585.332	52.84
585.67	52.88
586.008	52.95
586.347	53.03
586.685	53.11
587.024	53.13
587.362	53.24
587.7	53.33
588.038	53.37
588.376	53.44
588.715	53.49
589.053	53.66
589.391	53.76
589.729	53.91
590.067	53.95
590.404	54.06
590.742	54.14
591.08	54.26
591.418	54.26
591.756	54.31
592.093	54.31
592.431	54.45
592.769	54.6
593.106	54.69
593.444	54.78
593.781	54.93
594.119	55.07
594.456	55.15
594.793	55.21
595.131	55.23
595.468	55.33
595.805	55.4
596.143	55.36
596.48	55.48
596.817	55.52
597.154	55.61
597.491	55.6
597.828	55.64
598.165	55.67
598.502	55.78
598.839	55.87
599.176	55.99
599.512	56.02
599.849	56.06
600.186	56.18
600.523	56.19
600.859	56.09
601.196	56.16
601.532	56.18
601.869	56.24
602.205	56.4
602.542	56.46
602.878	56.5
603.215	56.58
603.551	56.56
603.887	56.63
604.223	56.63
604.56	56.68
604.896	56.68
605.232	56.72
605.568	56.75
605.904	56.79
606.24	56.83
606.576	56.85
606.912	56.86
607.248	56.83
607.583	56.93
607.919	57.06
608.255	57.1
608.591	57.08
608.926	57.13
609.262	57.14
609.597	57.2
609.933	57.31
610.268	57.32
610.604	57.32
610.939	57.35
611.275	57.38
611.61	57.43
611.945	57.54
612.281	57.61
612.616	57.68
612.951	57.69
613.286	57.82
613.621	57.93
613.956	58
614.291	58.07
614.626	58.14
614.961	58.13
615.296	58.07
615.631	58.27
615.966	58.29
616.3	58.36
616.635	58.38
616.97	58.32
617.304	58.37
617.639	58.4
617.973	58.41
618.308	58.49
618.642	58.56
618.977	58.49
619.311	58.43
619.646	58.51
619.98	58.63
620.314	58.66
620.648	58.65
620.983	58.67
621.317	58.61
621.651	58.67
621.985	58.65
622.319	58.74
622.653	58.77
622.987	58.8
623.321	58.77
623.655	58.77
623.988	58.81
624.322	58.88
624.656	59
624.99	59.06
625.323	59.09
625.657	59.01
625.99	59.02
626.324	59.07
626.657	59.07
626.991	59.06
627.324	59.01
627.658	59.1
627.991	59.14
628.324	59.26
628.657	59.24
628.991	59.35
629.324	59.37
629.657	59.4
629.99	59.38
630.323	59.42
630.656	59.48
630.989	59.53
631.322	59.58
631.655	59.57
631.987	59.52
632.32	59.49
632.653	59.6
632.986	59.65
633.318	59.69
633.651	59.75
633.984	59.71
634.316	59.72
634.649	59.67
634.981	59.71
635.313	59.75
635.646	59.79
635.978	59.78
636.31	59.84
636.643	59.76
636.975	59.78
637.307	59.84
637.639	59.8
637.971	59.81
638.303	59.79
638.635	59.78
638.967	59.85
639.299	59.87
639.631	59.82
639.963	59.87
640.295	59.9
640.626	59.87
640.958	59.89
641.29	59.93
641.621	59.98
641.953	59.96
642.285	59.88
642.616	60
642.948	60.06
643.279	59.96
643.61	60.1
643.942	60.13
644.273	60.09
644.604	60.25
644.936	60.22
645.267	60.21
645.598	60.23
645.929	60.13
646.26	60.09
646.591	60.15
646.922	60.23
647.253	60.27
647.584	60.24
647.915	60.26
648.245	60.19
648.576	60.2
648.907	60.12
649.238	60.16
649.568	60.05
649.899	60.07
650.229	60.24
650.56	60.21
650.89	60.25
651.221	60.27
651.551	60.18
651.882	60.21
652.212	60.08
652.542	60.05
652.872	60.09
653.203	60.26
653.533	60.32
653.863	60.31
654.193	60.37
654.523	60.43
654.853	60.33
655.183	60.43
655.513	60.33
655.843	60.5
656.172	60.51
656.502	60.54
656.832	60.45
657.162	60.48
657.491	60.51
657.821	60.51
658.15	60.53
658.48	60.42
658.809	60.55
659.139	60.77
659.468	60.81
659.798	60.88
660.127	60.85
660.456	60.89
660.785	60.8
661.115	60.72
661.444	60.78
661.773	60.82
662.102	60.83
662.431	60.92
662.76	60.84
663.089	60.77
663.418	60.69
663.747	60.77
664.076	60.72
664.404	60.64
664.733	60.66
665.062	60.56
665.39	60.62
665.719	60.51
666.048	60.38
666.376	60.28
666.705	60.29
667.033	60.36
667.362	60.42
667.69	60.46
668.018	60.41
668.347	60.45
668.675	60.58
669.003	60.69
669.331	60.65
669.659	60.67
669.987	60.89
670.315	61
670.643	60.94
670.971	60.83
671.299	60.89
671.627	60.93
671.955	61.11
672.283	61.1
672.61	61.07
672.938	61.13
673.266	61.15
673.593	61.12
673.921	60.98
674.249	60.93
674.576	60.96
674.904	61.04
675.231	60.91
675.558	60.88
675.886	60.67
676.213	60.68
676.54	60.65
676.867	60.68
677.195	60.67
677.522	60.74
677.849	60.9
678.176	60.89
678.503	60.86
678.83	60.66
679.157	60.72
679.484	60.78
679.81	60.68
680.137	60.92
680.464	61.01
680.791	61.04
681.117	60.96
681.444	61.05
681.771	61.08
682.097	61.01
682.424	61.12
682.75	61.21
683.077	61.22
683.403	61.27
683.729	61.16
684.056	61.19
684.382	61.2
684.708	61.1
685.034	61.09
685.36	61.13
685.686	61.25
686.012	61.31
686.339	61.4
686.664	61.5
686.99	61.36
687.316	61.37
687.642	61.42
687.968	61.43
688.294	61.45
688.619	61.43
688.945	61.45
689.271	61.27
689.596	61.21
689.922	61.15
690.247	61.16
690.573	61.14
690.898	61.08
691.224	61.05
691.549	61.03
691.874	60.95
692.2	61.06
692.525	61.14
692.85	61.18
693.175	61.05
693.5	61.05
693.825	61.11
694.15	61.02
694.475	61.01
694.8	61.09
695.125	61.07
695.45	61.14
695.775	61.25
696.099	61.35
696.424	61.36
696.749	61.52
697.073	61.69
697.398	61.62
697.723	61.59
698.047	61.51
698.372	61.42
698.696	61.57
699.02	61.5
699.345	61.46
699.669	61.35
699.993	61.48
700.318	61.51
700.642	61.36
700.966	61.54
701.29	61.51
701.614	61.69
701.938	61.5
702.262	61.51
702.586	61.64
702.91	61.69
703.234	61.66
703.557	61.63
703.881	61.41
704.205	61.49
704.529	61.56
704.852	61.67
705.176	61.8
705.499	61.77
705.823	61.7
706.146	61.75
706.47	61.81
706.793	61.77
707.117	61.73
707.44	61.75
707.763	61.66
708.086	61.62
708.409	61.52
708.733	61.65
709.056	61.63
709.379	61.51
709.702	61.49
710.025	61.56
710.348	61.48
710.671	61.48
710.993	61.49
711.316	61.46
711.639	61.61
711.962	61.74
712.284	61.7
712.607	61.76
712.93	61.67
713.252	61.69
713.575	61.7
713.897	61.66
714.22	61.83
714.542	61.73
714.864	61.76
715.187	61.7
715.509	61.91
715.831	62.05
716.153	62.12
716.475	62.28
716.798	62.46
717.12	62.64
717.442	62.71
717.764	62.74
718.085	62.79
718.407	62.71
718.729	62.58
719.051	62.64
719.373	62.72
719.695	62.73
720.016	62.75
720.338	62.83
720.659	62.96
720.981	62.94
721.302	62.95
721.624	63.13
721.945	63.12
722.267	63.11
722.588	62.56
722.909	62.39
723.231	62.15
723.552	61.81
723.873	61.7
724.194	61.73
724.515	61.87
724.836	61.79
725.157	61.6
725.478	61.69
725.799	61.72
726.12	61.88
726.441	61.88
726.762	61.91
727.083	61.65
727.403	61.53
727.724	61.58
728.045	61.63
728.365	61.65
728.686	61.71
729.006	61.61
729.327	61.96
729.647	61.99
729.967	61.99
730.288	62.17
730.608	62.26
730.928	62.33
731.249	62.4
731.569	62.23
731.889	62.54
732.209	62.64
732.529	62.59
732.849	62.42
733.169	62.33
733.489	62.23
733.809	62.32
734.129	62.2
734.448	62.03
734.768	62.09
735.088	62.13
735.408	61.92
735.727	62.02
736.047	62.11
736.366	62.08
736.686	62.31
737.005	62.25
737.325	62.07
737.644	61.91
737.963	61.58
738.283	61.82
738.602	61.53
738.921	61.4
739.24	61.27
739.56	61.17
739.879	61.5
740.198	61.78
740.517	61.93
740.836	62.24
741.155	62.18
741.473	62.2
741.792	62.15
742.111	61.9
742.43	61.58
742.748	61.4
743.067	61.43
743.386	61.31
743.704	61.32
744.023	61.7
744.341	61.64
744.66	62.12
744.978	61.88
745.297	62.13
745.615	62.24
745.933	62.59
746.252	62.9
746.57	62.77
746.888	62.7
747.206	62.68
747.524	62.75
747.842	63.06
748.16	62.97
748.478	62.95
748.796	63.43
749.114	63.92
749.432	63.86
749.749	63.91
750.067	63.79
750.385	63.72
750.703	63.4
751.02	63.48
751.338	63.05
751.655	63.39
751.973	63.07
752.29	62.93
752.608	62.69
752.925	62.45
753.242	62.3
753.56	61.94
753.877	61.84
754.194	61.66
754.511	61.45
754.828	61.07
755.145	61.03
755.462	61
755.779	60.66
756.096	60.97
756.413	60.79
756.73	60.61
757.047	60.29
757.364	60.45
757.68	60.34
757.997	60.38
758.314	60.43
758.63	60.63
758.947	60.87
759.264	60.75
759.58	60.74
759.896	60.71
760.213	60.43
760.529	60.36
760.846	60.16
761.162	60.17
761.478	60.83
761.794	60.71
762.11	60.79
762.426	61.03
762.743	60.91
763.059	60.84
763.375	60.95
763.69	61.24
764.006	61.4
764.322	61.61
764.638	61.5
764.954	61.45
765.27	61.53
765.585	61.31
765.901	61.51
766.216	61.66
766.532	61.8
766.848	62.27
767.163	62.3
767.478	62.46
767.794	62.7
768.109	62.35
768.424	62.55
768.74	62.51
769.055	62.39
769.37	62.44
769.685	62.77
770	62.94
770.315	62.74
770.63	62.48
770.945	62.46
771.26	62.69
771.575	62.83
771.89	62.92
772.205	62.75
772.52	62.67
772.834	62.66
773.149	62.39
773.464	62.5
773.778	62.83
774.093	63.08
774.407	63.35
774.722	63.23
775.036	62.98
775.351	62.59
775.665	62.38
775.979	62.29
776.293	62.16
776.608	61.85
776.922	62.29
777.236	61.96
777.55	61.93
777.864	61.92
778.178	62.03
778.492	62.03
778.806	62.35
779.12	62.22
779.434	61.78
779.747	61.65
780.061	61.63
780.375	61.51
780.689	61.1
781.002	61.06
781.316	61.14
781.629	61.37
781.943	61.57
782.256	61.52
782.57	61.68
782.883	62.43
783.196	62.61
783.51	62.61
783.823	62.42
784.136	62.09
784.449	62.19
784.762	61.97
785.075	61.29
785.388	61.49
785.701	61.69
786.014	61.28
786.327	61.44
786.64	61.36
786.953	61.37
787.266	61.58
787.578	61.31
787.891	61.41
788.204	61.65
788.516	61.92
788.829	62.54
789.141	62.34
789.454	61.46
789.766	61.14
790.079	61.14
790.391	61.54
790.703	61.91
791.016	62.18
791.328	62.15
791.64	62.57
791.952	62.1
792.264	61.52
792.576	62.44
792.888	63.31
793.2	63.33
793.512	63.23
793.824	63.46
794.136	63.08
794.448	63.26
794.76	63.13
795.071	62.97
795.383	62.19
795.695	62.25
796.006	61.93
796.318	62.18
796.629	61.74
796.941	61.84
797.252	61.43
797.564	61.31
797.875	61.02
798.186	60.67
798.497	60.79
798.809	61.36
799.12	60.63
799.431	59.77
799.742	60.12
800.053	60
800.364	59.9
800.675	59.66
800.986	59.59
801.297	59.53
801.608	59.08
801.918	59.5
802.229	59.94
802.54	60.21
802.851	60.01
803.161	59.91
803.472	59.54
803.782	60
804.093	59.68
804.403	59.91
804.714	60.19
805.024	60.35
805.334	60.13
805.645	60.41
805.955	60.15
806.265	59.53
806.575	59.13
806.885	59.31
807.195	59.49
807.505	58.88
807.815	58.6
808.125	58.77
808.435	58.14
808.745	57.86
809.055	58.15
809.365	58.31
809.674	58.35
809.984	59.59
810.294	59.12
810.603	58.5
810.913	58.95
811.222	59.03
811.532	59.39
811.841	59.34
812.151	59.86
812.46	60.45
812.769	61.02
813.079	61.65
813.388	61.51
813.697	62.34
814.006	63.03
814.315	62.96
814.624	63.56
814.933	63.63
815.242	63.92
815.551	63.7
815.86	63.27
816.169	64.04
816.478	63.73
816.786	63.78
817.095	64.78
817.404	64.34
817.712	63.68
818.021	63.5
818.33	63.29
818.638	63.66
818.947	63.78
819.255	63.83
819.563	63.72
819.872	63.85
820.18	63.95
820.488	63.97
820.796	63.92
821.105	63.6
821.413	63.62
821.721	63.52
822.029	63.49
822.337	63.57
822.645	63.37
822.953	63.36
823.26	63.39
823.568	63.05
823.876	63.09
824.184	63.37
824.491	63.36
824.799	63.49
825.107	63.43
825.414	63.47
825.722	63.32
826.029	63.11
826.337	62.91
826.644	62.81
826.951	62.61
827.259	62.57
827.566	62.73
827.873	62.78
828.18	62.82
828.488	62.83
828.795	62.97
829.102	63.16
829.409	62.64
829.716	62.74
830.023	63.23
830.329	63.23
830.636	62.98
830.943	62.95
831.25	62.87
831.557	62.8
831.863	62.54
832.17	62.91
832.476	63.45
832.783	63.96
833.089	63.83
833.396	64.04
833.702	64.23
834.009	64.64
834.315	65
834.621	64.78
834.928	64.86
835.234	64.76
835.54	64.3
835.846	64.25
836.152	63.92
836.458	64.01
836.764	63.92
837.07	63.69
837.376	63.79
837.682	63.65
837.988	63.45
838.293	63.44
838.599	62.74
838.905	62.38
839.211	61.5
839.516	61.84
839.822	62
840.127	62.1
840.433	61
840.738	60.37
841.044	59.13
841.349	59.54
841.654	59.71
841.959	60.86
842.265	61.83
842.57	61.93
842.875	61.96
843.18	61.72
843.485	62.11
843.79	61.17
844.095	60.47
844.4	60.56
844.705	59.99
845.01	59.72
845.315	59.76
845.619	60.49
845.924	59.42
846.229	59.14
846.533	58.51
846.838	60.49
847.142	60.14
847.447	61.17
847.751	60.06
848.056	58.82
848.36	57.05
848.664	57.57
848.969	57.76
849.273	56.19
849.577	56.2
849.881	57.43
850.185	58.81
850.489	59.71
850.794	61.58
851.097	62.73
851.401	62.89
851.705	63.47
852.009	63.41
852.313	63.8
852.617	62.85
852.92	64.75
853.224	60.78
853.528	62.23
853.831	61.86
854.135	61.88
854.438	62.5
854.742	63.13
855.045	61.74
855.349	60.41
855.652	61.09
855.955	60.38
856.259	59.73
856.562	58.96
856.865	57.73
857.168	54.74
857.471	56.59
857.774	56.81
858.077	57.58
858.38	57.31
858.683	56.94
858.986	60.78
859.289	60.43
859.592	62.86
859.894	60.93
860.197	60.54
860.5	61.28
860.802	60.09
861.105	60.14
861.407	59.3
861.71	61.43
862.012	63.03
862.315	64.39
862.617	63.27
862.919	63.95
863.222	68.25
863.524	68.73
863.826	67.38
864.128	67.31
864.43	68.28
864.732	69.09
865.034	69.3
865.336	64.83
865.638	62.98
865.94	64.16
866.242	64.22
866.544	64.67
866.846	64.26
867.147	66.34
867.449	65.66
867.751	66.87
868.052	67.09
868.354	65.12
868.655	65.58
868.957	66.23
869.258	65.05
869.56	63.15
869.861	61.77
870.162	58.22
870.463	58.63
870.765	57.44
871.066	56.33
871.367	55.53
871.668	55.72
871.969	53.73
872.27	51.25
872.571	53.62
872.872	56.6
873.173	56.47
873.473	55.85
873.774	55.17
874.075	54.68
874.376	54.57
874.676	56.53
874.977	56.72
875.277	53.98
875.578	56.19
875.878	55.85
876.179	57.06
876.479	59.79
876.78	59.61
877.08	59.07
877.38	59.52
877.68	60.71
877.981	61.94
878.281	66.47
878.581	68.3
