Data from BA57757_Reflection_00036.txt Node
Date: Mon Nov 18 15:02:14 EST 2019
User: vgr7
Spectrometer: USB2G7710
Scans to average: 3
Trigger mode: 4
Integration Time (sec): 2.000000E-2
Electric dark correction enabled: true
Boxcar width: 10
XAxis mode: Wavelengths
Number of Pixels in Spectrum: 2048
>>>>>Begin Spectral Data<<<<<
177.721	5.09
178.105	-18.47
178.488	259
178.871	-50.86
179.254	40.77
179.636	453.45
180.019	-422.61
180.402	17.07
180.785	-1787.85
181.168	515.93
181.55	1867.44
181.933	120.36
182.316	82.37
182.698	91.3
183.081	54.79
183.463	18.12
183.846	10.66
184.228	-3.07
184.611	-2.79
184.993	-115.02
185.376	205.62
185.758	243.57
186.14	66.03
186.522	120.57
186.904	139.76
187.287	-633.94
187.669	219.51
188.051	140.15
188.433	65.33
188.815	123.69
189.197	82.23
189.579	92.21
189.961	77.1
190.342	62
190.724	65.39
191.106	49.69
191.488	46.7
191.869	27.42
192.251	32.66
192.633	22.78
193.014	-12.8
193.396	-30.42
193.777	-37.99
194.159	-12.92
194.54	2.99
194.922	-0.22
195.303	-0.75
195.684	0.02
196.065	-1.87
196.447	4.22
196.828	-9.21
197.209	-4.54
197.59	-13.48
197.971	-23.57
198.352	-6.21
198.733	-15.93
199.114	1.48
199.495	-3.97
199.876	3.18
200.257	0.54
200.638	5.36
201.018	13.99
201.399	17.37
201.78	21.32
202.16	13.61
202.541	2.33
202.922	-5.1
203.302	-12.89
203.683	-35.16
204.063	-27.93
204.444	-51.05
204.824	-71.02
205.204	-56.64
205.585	-48.19
205.965	-38.35
206.345	-69.84
206.725	-61.84
207.106	-89.04
207.486	-88.08
207.866	-93.58
208.246	-95.34
208.626	-113.91
209.006	-81.91
209.386	-112.39
209.766	-97.2
210.145	-92.37
210.525	-82.19
210.905	-79.82
211.285	-70.64
211.664	-46.4
212.044	-49.21
212.424	-51.86
212.803	-37.93
213.183	-45.96
213.562	-30.93
213.942	-16.48
214.321	-3.98
214.701	6.15
215.08	14.42
215.459	30.89
215.838	41.99
216.218	35.52
216.597	46.18
216.976	51.05
217.355	80.18
217.734	77.69
218.113	100.42
218.492	111.43
218.871	141.94
219.25	115.92
219.629	89.79
220.008	80.51
220.387	67.62
220.766	59.25
221.144	49.93
221.523	37.37
221.902	30.96
222.28	23.73
222.659	25.19
223.037	22.7
223.416	20.04
223.794	9.21
224.173	11.23
224.551	5.01
224.929	-3.1
225.308	-4.01
225.686	-10.64
226.064	-12.97
226.442	-7.48
226.821	-9.45
227.199	-8.51
227.577	-7.92
227.955	-7.13
228.333	-6.66
228.711	-1.82
229.089	0.76
229.467	1.27
229.845	1.36
230.222	2.11
230.6	0.18
230.978	-0.42
231.356	0.61
231.733	2.41
232.111	2.96
232.488	4.46
232.866	6.86
233.243	6.6
233.621	8.76
233.998	10.41
234.376	9.8
234.753	10.83
235.13	10.2
235.508	10.9
235.885	11.39
236.262	10.49
236.639	10.26
237.016	9.05
237.393	12.01
237.77	12.33
238.147	11.54
238.524	11.29
238.901	11.21
239.278	9.44
239.655	8.38
240.032	8.23
240.409	7.42
240.785	7.35
241.162	7.19
241.539	7.08
241.915	6.57
242.292	6.06
242.668	5.8
243.045	6.12
243.421	5.75
243.798	5.21
244.174	5.17
244.551	4.8
244.927	4.95
245.303	4.82
245.679	4.74
246.056	4.49
246.432	4.51
246.808	4.39
247.184	4.3
247.56	4.08
247.936	3.98
248.312	3.8
248.688	3.54
249.064	3.47
249.44	3.35
249.815	3.59
250.191	3.86
250.567	3.98
250.943	3.95
251.318	4.21
251.694	4.3
252.069	4.25
252.445	4.39
252.82	4.32
253.196	4
253.571	4.03
253.947	4.19
254.322	4.56
254.697	4.54
255.073	4.82
255.448	4.73
255.823	4.58
256.198	5.03
256.573	4.8
256.948	4.73
257.323	4.76
257.698	4.44
258.073	4.2
258.448	4.01
258.823	3.85
259.198	3.75
259.573	4.01
259.948	4.01
260.322	3.88
260.697	3.89
261.072	3.91
261.446	3.82
261.821	3.81
262.195	3.8
262.57	3.74
262.944	3.66
263.319	3.79
263.693	3.86
264.067	3.71
264.442	3.91
264.816	4
265.19	3.95
265.564	4.02
265.938	4.04
266.313	3.98
266.687	4
267.061	3.9
267.435	3.88
267.809	3.85
268.183	3.94
268.556	3.69
268.93	3.75
269.304	3.7
269.678	3.77
270.051	3.47
270.425	3.57
270.799	3.5
271.172	3.49
271.546	3.42
271.919	3.33
272.293	3.38
272.666	3.35
273.04	3.47
273.413	3.51
273.787	3.56
274.16	3.71
274.533	3.84
274.906	3.96
275.279	3.77
275.653	3.72
276.026	3.8
276.399	4
276.772	4
277.145	3.83
277.518	3.86
277.891	3.96
278.263	3.82
278.636	3.9
279.009	4.01
279.382	4.25
279.755	4.25
280.127	4.1
280.5	4.12
280.872	3.97
281.245	3.9
281.617	3.99
281.99	3.94
282.362	3.9
282.735	3.79
283.107	3.78
283.479	3.8
283.852	3.8
284.224	3.89
284.596	3.88
284.968	4.1
285.34	4.02
285.713	4.03
286.085	4.15
286.457	4.27
286.829	4.17
287.201	4.19
287.572	4.06
287.944	4.07
288.316	4.17
288.688	4.23
289.06	4.17
289.431	4.1
289.803	4.23
290.175	4.23
290.546	4.32
290.918	4.41
291.289	4.44
291.661	4.53
292.032	4.4
292.403	4.34
292.775	4.4
293.146	4.32
293.517	4.36
293.889	4.38
294.26	4.26
294.631	4.39
295.002	4.3
295.373	4.42
295.744	4.58
296.115	4.43
296.486	4.34
296.857	4.39
297.228	4.56
297.599	4.48
297.97	4.46
298.34	4.47
298.711	4.48
299.082	4.53
299.452	4.55
299.823	4.64
300.194	4.79
300.564	4.73
300.935	4.85
301.305	4.79
301.676	4.83
302.046	4.98
302.416	5.02
302.787	5.03
303.157	5.14
303.527	5.1
303.897	5.22
304.267	5.37
304.637	5.51
305.008	5.4
305.378	5.65
305.748	5.71
306.117	5.6
306.487	5.75
306.857	5.77
307.227	5.9
307.597	5.94
307.967	5.83
308.336	5.86
308.706	5.96
309.076	6.16
309.445	6.16
309.815	6.14
310.184	6.16
310.554	6.34
310.923	6.35
311.293	6.28
311.662	6.39
312.031	6.48
312.401	6.44
312.77	6.55
313.139	6.59
313.508	6.73
313.877	6.86
314.246	6.77
314.616	6.87
314.985	6.72
315.353	6.8
315.722	6.99
316.091	7.13
316.46	7.08
316.829	7.17
317.198	7.28
317.567	7.42
317.935	7.42
318.304	7.38
318.672	7.58
319.041	7.73
319.41	7.78
319.778	7.81
320.147	7.97
320.515	8
320.883	7.83
321.252	7.92
321.62	8.16
321.988	8.4
322.357	8.49
322.725	8.72
323.093	8.74
323.461	8.74
323.829	8.66
324.197	8.83
324.565	8.85
324.933	8.9
325.301	8.82
325.669	8.93
326.037	8.99
326.405	8.89
326.772	8.95
327.14	9.12
327.508	9.1
327.875	9.13
328.243	9.21
328.61	9.28
328.978	9.31
329.346	9.24
329.713	9.24
330.08	9.2
330.448	9.04
330.815	8.98
331.182	8.95
331.55	9.16
331.917	9.18
332.284	9.34
332.651	9.3
333.018	9.44
333.385	9.47
333.752	9.55
334.119	9.67
334.486	9.75
334.853	9.61
335.22	9.73
335.587	9.75
335.954	9.8
336.32	9.95
336.687	10.04
337.054	10.2
337.42	10.12
337.787	10.17
338.153	10.28
338.52	10.4
338.886	10.46
339.253	10.42
339.619	10.39
339.986	10.37
340.352	10.52
340.718	10.52
341.084	10.51
341.451	10.53
341.817	10.62
342.183	10.6
342.549	10.66
342.915	10.74
343.281	10.76
343.647	10.7
344.013	10.75
344.379	10.75
344.745	10.7
345.11	10.82
345.476	10.91
345.842	11.07
346.208	11.11
346.573	11.18
346.939	11.26
347.304	11.33
347.67	11.22
348.035	11.15
348.401	11.19
348.766	11.26
349.132	11.31
349.497	11.26
349.862	11.33
350.228	11.38
350.593	11.36
350.958	11.47
351.323	11.44
351.688	11.33
352.053	11.28
352.418	11.28
352.783	11.27
353.148	11.26
353.513	11.07
353.878	11.13
354.243	11.25
354.608	11.26
354.972	11.19
355.337	11.25
355.702	11.3
356.066	11.3
356.431	11.24
356.795	11.19
357.16	11.1
357.524	11.03
357.889	10.93
358.253	10.95
358.618	10.81
358.982	10.82
359.346	10.78
359.71	10.65
360.075	10.62
360.439	10.62
360.803	10.55
361.167	10.59
361.531	10.5
361.895	10.31
362.259	10.21
362.623	10.24
362.987	10.19
363.351	10.13
363.714	10.08
364.078	10.1
364.442	9.99
364.806	9.99
365.169	9.95
365.533	9.94
365.896	9.83
366.26	9.82
366.623	9.79
366.987	9.75
367.35	9.8
367.714	9.76
368.077	9.64
368.44	9.61
368.803	9.53
369.167	9.45
369.53	9.44
369.893	9.45
370.256	9.42
370.619	9.35
370.982	9.23
371.345	9.13
371.708	9.05
372.071	9.03
372.434	8.94
372.797	8.94
373.159	8.89
373.522	8.87
373.885	8.77
374.247	8.66
374.61	8.58
374.973	8.49
375.335	8.39
375.698	8.39
376.06	8.34
376.423	8.27
376.785	8.22
377.147	8.18
377.51	8.09
377.872	7.99
378.234	7.88
378.596	7.83
378.958	7.83
379.321	7.79
379.683	7.75
380.045	7.75
380.407	7.62
380.769	7.52
381.13	7.45
381.492	7.43
381.854	7.43
382.216	7.39
382.578	7.33
382.939	7.25
383.301	7.17
383.663	7.08
384.024	7.02
384.386	7
384.747	6.96
385.109	6.9
385.47	6.8
385.832	6.79
386.193	6.78
386.554	6.69
386.916	6.62
387.277	6.56
387.638	6.45
387.999	6.48
388.36	6.41
388.721	6.37
389.082	6.33
389.443	6.25
389.804	6.23
390.165	6.14
390.526	6.14
390.887	6.06
391.248	6.03
391.609	6
391.969	5.95
392.33	5.89
392.691	5.86
393.051	5.84
393.412	5.8
393.772	5.71
394.133	5.66
394.493	5.61
394.854	5.57
395.214	5.55
395.574	5.45
395.935	5.45
396.295	5.39
396.655	5.29
397.015	5.26
397.376	5.2
397.736	5.19
398.096	5.13
398.456	5.13
398.816	5.09
399.176	5.03
399.535	4.96
399.895	4.9
400.255	4.86
400.615	4.85
400.975	4.81
401.334	4.8
401.694	4.75
402.054	4.72
402.413	4.67
402.773	4.61
403.132	4.55
403.492	4.49
403.851	4.47
404.211	4.46
404.57	4.42
404.929	4.4
405.288	4.37
405.648	4.31
406.007	4.24
406.366	4.23
406.725	4.22
407.084	4.22
407.443	4.2
407.802	4.15
408.161	4.1
408.52	4.06
408.879	4.02
409.238	4.03
409.596	4
409.955	3.98
410.314	4
410.673	4.02
411.031	4.02
411.39	3.99
411.748	3.97
412.107	3.95
412.465	3.9
412.824	3.88
413.182	3.85
413.54	3.86
413.899	3.84
414.257	3.8
414.615	3.77
414.974	3.76
415.332	3.75
415.69	3.76
416.048	3.73
416.406	3.71
416.764	3.67
417.122	3.67
417.48	3.65
417.838	3.63
418.195	3.6
418.553	3.57
418.911	3.55
419.269	3.53
419.626	3.52
419.984	3.5
420.342	3.49
420.699	3.49
421.057	3.47
421.414	3.45
421.772	3.45
422.129	3.43
422.486	3.41
422.844	3.39
423.201	3.35
423.558	3.34
423.915	3.32
424.273	3.32
424.63	3.3
424.987	3.28
425.344	3.26
425.701	3.25
426.058	3.23
426.415	3.22
426.772	3.2
427.128	3.18
427.485	3.18
427.842	3.14
428.199	3.14
428.555	3.12
428.912	3.1
429.269	3.07
429.625	3.06
429.982	3.04
430.338	3.03
430.695	3.04
431.051	3.03
431.407	3.04
431.764	3.05
432.12	3.03
432.476	3.03
432.832	3.02
433.189	3.01
433.545	3.02
433.901	3.03
434.257	3.04
434.613	3.06
434.969	3.06
435.325	3.09
435.681	3.1
436.036	3.09
436.392	3.08
436.748	3.08
437.104	3.09
437.459	3.09
437.815	3.1
438.171	3.09
438.526	3.1
438.882	3.1
439.237	3.09
439.593	3.1
439.948	3.09
440.304	3.09
440.659	3.08
441.014	3.08
441.369	3.04
441.725	3.03
442.08	3.01
442.435	3
442.79	3
443.145	2.99
443.5	2.98
443.855	2.97
444.21	2.98
444.565	2.98
444.92	2.97
445.275	2.97
445.629	2.98
445.984	2.98
446.339	2.95
446.693	2.93
447.048	2.9
447.403	2.88
447.757	2.87
448.112	2.86
448.466	2.85
448.82	2.87
449.175	2.87
449.529	2.87
449.883	2.86
450.238	2.83
450.592	2.83
450.946	2.83
451.3	2.83
451.654	2.83
452.008	2.81
452.362	2.8
452.716	2.79
453.07	2.78
453.424	2.76
453.778	2.78
454.132	2.77
454.486	2.77
454.839	2.79
455.193	2.8
455.547	2.8
455.9	2.81
456.254	2.79
456.607	2.79
456.961	2.8
457.314	2.8
457.668	2.8
458.021	2.78
458.375	2.79
458.728	2.8
459.081	2.8
459.434	2.8
459.787	2.81
460.141	2.8
460.494	2.8
460.847	2.8
461.2	2.8
461.553	2.8
461.906	2.83
462.259	2.84
462.611	2.85
462.964	2.86
463.317	2.86
463.67	2.88
464.022	2.9
464.375	2.9
464.728	2.91
465.08	2.92
465.433	2.93
465.785	2.93
466.138	2.94
466.49	2.95
466.843	2.95
467.195	2.97
467.547	3.01
467.899	3.01
468.252	3.01
468.604	3.05
468.956	3.07
469.308	3.07
469.66	3.08
470.012	3.09
470.364	3.11
470.716	3.11
471.068	3.11
471.42	3.09
471.772	3.1
472.123	3.12
472.475	3.14
472.827	3.15
473.178	3.16
473.53	3.15
473.882	3.16
474.233	3.17
474.585	3.16
474.936	3.13
475.288	3.15
475.639	3.15
475.99	3.14
476.342	3.13
476.693	3.14
477.044	3.14
477.395	3.11
477.746	3.08
478.097	3.07
478.448	3.07
478.8	3.05
479.15	3.03
479.501	3.04
479.852	3.02
480.203	3.02
480.554	3.03
480.905	3.04
481.255	3.03
481.606	3.03
481.957	3.04
482.307	3.04
482.658	3.03
483.009	3.03
483.359	3.03
483.709	3.04
484.06	3.03
484.41	3.04
484.761	3.05
485.111	3.05
485.461	3.06
485.811	3.06
486.162	3.07
486.512	3.08
486.862	3.08
487.212	3.08
487.562	3.08
487.912	3.08
488.262	3.08
488.612	3.08
488.961	3.09
489.311	3.08
489.661	3.08
490.011	3.1
490.36	3.1
490.71	3.1
491.06	3.11
491.409	3.1
491.759	3.12
492.108	3.12
492.458	3.14
492.807	3.15
493.157	3.17
493.506	3.18
493.855	3.18
494.204	3.21
494.554	3.23
494.903	3.25
495.252	3.26
495.601	3.3
495.95	3.35
496.299	3.36
496.648	3.41
496.997	3.44
497.346	3.47
497.695	3.52
498.043	3.55
498.392	3.58
498.741	3.64
499.09	3.65
499.438	3.7
499.787	3.73
500.135	3.78
500.484	3.82
500.832	3.85
501.181	3.93
501.529	3.96
501.878	4.02
502.226	4.08
502.574	4.14
502.923	4.17
503.271	4.19
503.619	4.27
503.967	4.31
504.315	4.37
504.663	4.43
505.011	4.5
505.359	4.54
505.707	4.6
506.055	4.65
506.403	4.72
506.751	4.77
507.098	4.85
507.446	4.93
507.794	5
508.141	5.09
508.489	5.13
508.837	5.21
509.184	5.28
509.531	5.36
509.879	5.44
510.226	5.54
510.574	5.62
510.921	5.7
511.268	5.78
511.616	5.87
511.963	5.95
512.31	6.03
512.657	6.14
513.004	6.25
513.351	6.38
513.698	6.5
514.045	6.62
514.392	6.74
514.739	6.85
515.086	6.97
515.432	7.08
515.779	7.19
516.126	7.33
516.473	7.44
516.819	7.56
517.166	7.64
517.512	7.74
517.859	7.86
518.205	7.95
518.552	8.06
518.898	8.16
519.245	8.26
519.591	8.37
519.937	8.48
520.283	8.6
520.629	8.73
520.976	8.88
521.322	9
521.668	9.12
522.014	9.28
522.36	9.43
522.706	9.61
523.052	9.81
523.398	10.01
523.743	10.19
524.089	10.39
524.435	10.6
524.781	10.79
525.126	10.97
525.472	11.13
525.817	11.29
526.163	11.46
526.509	11.61
526.854	11.75
527.199	11.88
527.545	12.03
527.89	12.14
528.235	12.28
528.581	12.43
528.926	12.58
529.271	12.71
529.616	12.84
529.961	12.99
530.306	13.13
530.651	13.28
530.996	13.45
531.341	13.62
531.686	13.8
532.031	14
532.376	14.19
532.721	14.4
533.065	14.62
533.41	14.82
533.755	15.05
534.099	15.28
534.444	15.49
534.788	15.7
535.133	15.95
535.477	16.18
535.822	16.44
536.166	16.7
536.51	16.99
536.855	17.31
537.199	17.63
537.543	17.97
537.887	18.28
538.231	18.62
538.576	18.98
538.92	19.3
539.264	19.59
539.608	19.9
539.951	20.18
540.295	20.42
540.639	20.69
540.983	20.93
541.327	21.17
541.671	21.44
542.014	21.71
542.358	21.94
542.701	22.16
543.045	22.4
543.389	22.64
543.732	22.92
544.075	23.15
544.419	23.4
544.762	23.67
545.105	23.94
545.449	24.23
545.792	24.53
546.135	24.87
546.478	25.22
546.821	25.55
547.165	25.89
547.508	26.31
547.851	26.63
548.194	27
548.536	27.4
548.879	27.79
549.222	28.14
549.565	28.51
549.908	28.91
550.25	29.3
550.593	29.68
550.936	29.98
551.278	30.35
551.621	30.72
551.963	31.09
552.306	31.45
552.648	31.8
552.991	32.11
553.333	32.43
553.675	32.75
554.017	33.05
554.36	33.4
554.702	33.67
555.044	34.02
555.386	34.36
555.728	34.63
556.07	34.98
556.412	35.28
556.754	35.58
557.096	35.88
557.438	36.18
557.78	36.51
558.121	36.91
558.463	37.25
558.805	37.56
559.147	37.8
559.488	38.1
559.83	38.44
560.171	38.72
560.513	38.98
560.854	39.19
561.196	39.52
561.537	39.78
561.878	40.08
562.22	40.27
562.561	40.5
562.902	40.73
563.243	40.97
563.584	41.27
563.925	41.51
564.266	41.75
564.607	41.99
564.948	42.23
565.289	42.41
565.63	42.6
565.971	42.8
566.312	43.08
566.653	43.26
566.993	43.44
567.334	43.62
567.675	43.89
568.015	44.14
568.356	44.31
568.696	44.47
569.037	44.59
569.377	44.88
569.718	45.12
570.058	45.33
570.398	45.48
570.739	45.7
571.079	45.88
571.419	46.06
571.759	46.26
572.099	46.39
572.439	46.55
572.779	46.69
573.119	46.83
573.459	46.93
573.799	47.14
574.139	47.25
574.479	47.43
574.819	47.5
575.158	47.65
575.498	47.79
575.838	47.98
576.177	48.13
576.517	48.25
576.856	48.36
577.196	48.55
577.535	48.67
577.875	48.81
578.214	48.92
578.553	49.04
578.893	49.15
579.232	49.32
579.571	49.44
579.91	49.6
580.25	49.81
580.589	49.94
580.928	50.09
581.267	50.23
581.606	50.35
581.945	50.5
582.283	50.57
582.622	50.74
582.961	50.88
583.3	51.03
583.639	51.18
583.977	51.34
584.316	51.4
584.654	51.52
584.993	51.6
585.332	51.82
585.67	51.97
586.008	52.02
586.347	52.13
586.685	52.19
587.024	52.36
587.362	52.34
587.7	52.53
588.038	52.55
588.376	52.68
588.715	52.78
589.053	52.92
589.391	53.06
589.729	53.13
590.067	53.12
590.404	53.23
590.742	53.27
591.08	53.23
591.418	53.32
591.756	53.35
592.093	53.44
592.431	53.48
592.769	53.54
593.106	53.61
593.444	53.63
593.781	53.71
594.119	53.72
594.456	53.85
594.793	53.84
595.131	53.94
595.468	53.98
595.805	54.09
596.143	54.05
596.48	54.06
596.817	54.11
597.154	54.26
597.491	54.34
597.828	54.42
598.165	54.48
598.502	54.6
598.839	54.67
599.176	54.73
599.512	54.8
599.849	54.88
600.186	54.91
600.523	54.98
600.859	55.04
601.196	55.09
601.532	55.13
601.869	55.12
602.205	55.15
602.542	55.17
602.878	55.11
603.215	55.19
603.551	55.27
603.887	55.25
604.223	55.26
604.56	55.23
604.896	55.26
605.232	55.37
605.568	55.29
605.904	55.31
606.24	55.33
606.576	55.36
606.912	55.39
607.248	55.44
607.583	55.48
607.919	55.57
608.255	55.68
608.591	55.81
608.926	55.94
609.262	55.99
609.597	56.05
609.933	56.11
610.268	56.16
610.604	56.26
610.939	56.29
611.275	56.32
611.61	56.36
611.945	56.39
612.281	56.41
612.616	56.54
612.951	56.67
613.286	56.72
613.621	56.79
613.956	56.87
614.291	56.95
614.626	57.06
614.961	57.14
615.296	57.11
615.631	57.07
615.966	57.06
616.3	57.09
616.635	57.12
616.97	57.21
617.304	57.19
617.639	57.15
617.973	57.36
618.308	57.37
618.642	57.43
618.977	57.55
619.311	57.58
619.646	57.66
619.98	57.59
620.314	57.54
620.648	57.52
620.983	57.49
621.317	57.53
621.651	57.52
621.985	57.52
622.319	57.57
622.653	57.62
622.987	57.72
623.321	57.81
623.655	57.83
623.988	57.79
624.322	57.8
624.656	57.78
624.99	57.73
625.323	57.72
625.657	57.77
625.99	57.71
626.324	57.71
626.657	57.69
626.991	57.76
627.324	57.9
627.658	57.91
627.991	58.03
628.324	57.97
628.657	57.97
628.991	57.93
629.324	57.95
629.657	57.93
629.99	57.92
630.323	57.86
630.656	57.93
630.989	58.02
631.322	58.16
631.655	58.21
631.987	58.21
632.32	58.28
632.653	58.23
632.986	58.32
633.318	58.35
633.651	58.34
633.984	58.35
634.316	58.34
634.649	58.4
634.981	58.36
635.313	58.41
635.646	58.51
635.978	58.61
636.31	58.61
636.643	58.64
636.975	58.64
637.307	58.78
637.639	58.78
637.971	58.76
638.303	58.71
638.635	58.68
638.967	58.64
639.299	58.69
639.631	58.75
639.963	58.68
640.295	58.68
640.626	58.84
640.958	58.86
641.29	58.85
641.621	58.9
641.953	58.9
642.285	58.94
642.616	58.78
642.948	58.74
643.279	58.81
643.61	58.87
643.942	58.96
644.273	58.83
644.604	58.77
644.936	58.83
645.267	58.88
645.598	59
645.929	59.11
646.26	59.01
646.591	58.92
646.922	58.97
647.253	59.03
647.584	58.88
647.915	58.83
648.245	58.82
648.576	58.7
648.907	58.76
649.238	58.72
649.568	58.82
649.899	58.92
650.229	58.93
650.56	58.8
650.89	58.83
651.221	58.93
651.551	59.11
651.882	59.1
652.212	59.19
652.542	59.05
652.872	59.05
653.203	59.17
653.533	59.28
653.863	59.24
654.193	59.21
654.523	59.22
654.853	59.17
655.183	59.25
655.513	59.3
655.843	59.37
656.172	59.46
656.502	59.55
656.832	59.44
657.162	59.42
657.491	59.47
657.821	59.36
658.15	59.25
658.48	59.18
658.809	59.12
659.139	59.05
659.468	59
659.798	59.13
660.127	59.1
660.456	59.14
660.785	59.24
661.115	59.27
661.444	59.32
661.773	59.36
662.102	59.33
662.431	59.37
662.76	59.24
663.089	59.19
663.418	59.12
663.747	59.09
664.076	59.05
664.404	59.04
664.733	59.2
665.062	59.32
665.39	59.32
665.719	59.39
666.048	59.43
666.376	59.52
666.705	59.37
667.033	59.26
667.362	59.33
667.69	59.29
668.018	59.23
668.347	59.23
668.675	59.42
669.003	59.39
669.331	59.37
669.659	59.38
669.987	59.3
670.315	59.22
670.643	59.38
670.971	59.4
671.299	59.39
671.627	59.34
671.955	59.42
672.283	59.37
672.61	59.45
672.938	59.44
673.266	59.56
673.593	59.56
673.921	59.65
674.249	59.49
674.576	59.45
674.904	59.58
675.231	59.58
675.558	59.51
675.886	59.52
676.213	59.54
676.54	59.6
676.867	59.77
677.195	59.89
677.522	59.8
677.849	59.69
678.176	59.76
678.503	59.71
678.83	59.62
679.157	59.58
679.484	59.53
679.81	59.5
680.137	59.41
680.464	59.51
680.791	59.58
681.117	59.7
681.444	59.64
681.771	59.52
682.097	59.37
682.424	59.48
682.75	59.39
683.077	59.39
683.403	59.47
683.729	59.36
684.056	59.43
684.382	59.43
684.708	59.52
685.034	59.52
685.36	59.4
685.686	59.38
686.012	59.43
686.339	59.28
686.664	59.29
686.99	59.18
687.316	59
687.642	58.97
687.968	58.98
688.294	59
688.619	59.05
688.945	59.1
689.271	58.92
689.596	58.92
689.922	59.07
690.247	58.99
690.573	59.15
690.898	59
691.224	59.02
691.549	59
691.874	59
692.2	59.04
692.525	58.94
692.85	58.89
693.175	58.97
693.5	58.97
693.825	59.11
694.15	59.19
694.475	59.18
694.8	59.17
695.125	59.27
695.45	59.16
695.775	59.26
696.099	59.29
696.424	59.45
696.749	59.2
697.073	59.22
697.398	59.16
697.723	59.16
698.047	59.13
698.372	59.18
698.696	59.14
699.02	59.32
699.345	59.33
699.669	59.42
699.993	59.52
700.318	59.46
700.642	59.48
700.966	59.43
701.29	59.37
701.614	59.17
701.938	59.05
702.262	59.26
702.586	59.16
702.91	59.33
703.234	59.34
703.557	59.41
703.881	59.49
704.205	59.48
704.529	59.58
704.852	59.72
705.176	59.62
705.499	59.69
705.823	59.48
706.146	59.62
706.47	59.68
706.793	59.57
707.117	59.67
707.44	59.78
707.763	59.78
708.086	59.69
708.409	59.78
708.733	59.92
709.056	59.8
709.379	60
709.702	59.75
710.025	59.65
710.348	59.82
710.671	59.54
710.993	59.64
711.316	59.52
711.639	59.53
711.962	59.63
712.284	59.59
712.607	59.62
712.93	59.62
713.252	59.65
713.575	59.78
713.897	59.64
714.22	59.53
714.542	59.64
714.864	59.77
715.187	59.72
715.509	59.6
715.831	59.46
716.153	59.35
716.475	59.48
716.798	59.49
717.12	59.45
717.442	59.68
717.764	59.67
718.085	59.63
718.407	59.48
718.729	59.46
719.051	59.52
719.373	59.5
719.695	59.54
720.016	59.34
720.338	59.33
720.659	59.34
720.981	59.22
721.302	59.17
721.624	58.9
721.945	59.05
722.267	59.26
722.588	59.29
722.909	59.35
723.231	59.15
723.552	59.02
723.873	58.8
724.194	58.4
724.515	58.19
724.836	58.19
725.157	58.27
725.478	58.36
725.799	58.45
726.12	58.6
726.441	58.56
726.762	58.76
727.083	58.63
727.403	58.7
727.724	58.81
728.045	58.81
728.365	58.95
728.686	58.91
729.006	58.72
729.327	58.94
729.647	58.86
729.967	58.84
730.288	58.78
730.608	58.8
730.928	58.96
731.249	58.89
731.569	59.08
731.889	59.08
732.209	58.95
732.529	58.78
732.849	58.66
733.169	58.55
733.489	58.27
733.809	58.37
734.129	58.46
734.448	58.59
734.768	58.81
735.088	59.01
735.408	59.15
735.727	59.35
736.047	59
736.366	59.21
736.686	59.33
737.005	59.32
737.325	59.23
737.644	59.27
737.963	59.47
738.283	59.24
738.602	59.15
738.921	59.22
739.24	59.43
739.56	59.59
739.879	59.6
740.198	59.89
740.517	59.79
740.836	59.83
741.155	59.79
741.473	59.55
741.792	59.43
742.111	59.53
742.43	59.52
742.748	59.89
743.067	59.85
743.386	60.11
743.704	60.34
744.023	60.77
744.341	60.88
744.66	61.06
744.978	61.23
745.297	61.58
745.615	61.85
745.933	61.9
746.252	61.7
746.57	61.68
746.888	61.47
747.206	61.61
747.524	61.59
747.842	61.47
748.16	61.57
748.478	61.54
748.796	61.49
749.114	61.38
749.432	61.26
749.749	60.95
750.067	60.6
750.385	60.49
750.703	60.13
751.02	59.84
751.338	59.58
751.655	59.55
751.973	59.37
752.29	59.04
752.608	59.07
752.925	59.14
753.242	59.19
753.56	59.27
753.877	59.13
754.194	59.27
754.511	59.51
754.828	59.02
755.145	59.05
755.462	59.04
755.779	59.34
756.096	59.34
756.413	59.4
756.73	59.41
757.047	59.17
757.364	59.37
757.68	59.45
757.997	59.42
758.314	59.23
758.63	59.48
758.947	59.54
759.264	59.1
759.58	59.05
759.896	59.16
760.213	59.42
760.529	59.47
760.846	59.19
761.162	58.95
761.478	59.56
761.794	59.59
762.11	59.38
762.426	59.14
762.743	59.01
763.059	59.01
763.375	59.03
763.69	59.37
764.006	59.49
764.322	59.83
764.638	59.96
764.954	60.1
765.27	59.75
765.585	59.85
765.901	59.96
766.216	60.13
766.532	60.14
766.848	59.86
767.163	59.91
767.478	60.07
767.794	60.09
768.109	59.81
768.424	59.94
768.74	59.9
769.055	59.7
769.37	60.16
769.685	60.31
770	60.64
770.315	60.41
770.63	60.3
770.945	59.71
771.26	59.71
771.575	60.05
771.89	60.17
772.205	59.93
772.52	59.96
772.834	59.13
773.149	58.89
773.464	59.04
773.778	59
774.093	58.69
774.407	59.03
774.722	59.17
775.036	59.16
775.351	59.61
775.665	59.83
775.979	59.63
776.293	59.62
776.608	59.69
776.922	59.46
777.236	59.25
777.55	59.55
777.864	59.66
778.178	59.11
778.492	58.9
778.806	59.04
779.12	59.24
779.434	60.23
779.747	60.41
780.061	60.75
780.375	60.55
780.689	60.53
781.002	59.93
781.316	59.66
781.629	59.61
781.943	59.03
782.256	59.3
782.57	59.21
782.883	59.04
783.196	58.79
783.51	59.26
783.823	59.27
784.136	59.63
784.449	59.51
784.762	59.55
785.075	60.08
785.388	59.88
785.701	59.61
786.014	59.81
786.327	60.06
786.64	59.55
786.953	59.69
787.266	60.12
787.578	60.43
787.891	60.59
788.204	60.07
788.516	60.36
788.829	59.91
789.141	60.05
789.454	60.64
789.766	60.69
790.079	60.75
790.391	60.94
790.703	60.28
791.016	60.42
791.328	60.56
791.64	60.22
791.952	60.28
792.264	60.54
792.576	59.87
792.888	59.67
793.2	59.86
793.512	59.46
793.824	59.45
794.136	59.36
794.448	59.75
794.76	59.56
795.071	59.74
795.383	59.78
795.695	59.35
796.006	58.86
796.318	58.42
796.629	58.26
796.941	57.83
797.252	58.46
797.564	58.49
797.875	58.41
798.186	58.45
798.497	58.32
798.809	58.49
799.12	58.96
799.431	58.71
799.742	58.81
800.053	59.37
800.364	58.86
800.675	58.83
800.986	58.68
801.297	59.61
801.608	59.76
801.918	60.63
802.229	61.33
802.54	61.28
802.851	61.58
803.161	61.5
803.472	61.88
803.782	60.82
804.093	60.17
804.403	60.7
804.714	61.16
805.024	61.09
805.334	60.77
805.645	60.61
805.955	60.64
806.265	60.41
806.575	60.72
806.885	61.06
807.195	61.23
807.505	61
807.815	60.26
808.125	59.99
808.435	59.52
808.745	59.32
809.055	59.66
809.365	59.29
809.674	59.04
809.984	58.69
810.294	59.99
810.603	60.74
810.913	60.48
811.222	59.59
811.532	59.66
811.841	59.64
812.151	60.22
812.46	60.38
812.769	60.29
813.079	59.66
813.388	58.99
813.697	58.98
814.006	59.89
814.315	59.77
814.624	59.38
814.933	59.15
815.242	59.2
815.551	59.09
815.86	59.11
816.169	59.65
816.478	60.14
816.786	60.56
817.095	60.02
817.404	60.01
817.712	59.78
818.021	59.6
818.33	59.75
818.638	58.6
818.947	58.65
819.255	58.55
819.563	58.81
819.872	58.8
820.18	58.67
820.488	58.29
820.796	58.61
821.105	58.88
821.413	58.87
821.721	59.05
822.029	59.1
822.337	59.41
822.645	59.51
822.953	59.51
823.26	59.4
823.568	59.43
823.876	59.36
824.184	59.6
824.491	59.76
824.799	59.73
825.107	59.91
825.414	60.09
825.722	60.39
826.029	60.23
826.337	60.52
826.644	60.65
826.951	60.64
827.259	60.77
827.566	60.7
827.873	60.9
828.18	60.63
828.488	60.86
828.795	60.72
829.102	60.49
829.409	60.55
829.716	60.24
830.023	60.2
830.329	60.31
830.636	60.34
830.943	60.43
831.25	60.57
831.557	60.34
831.863	59.99
832.17	59.65
832.476	60.2
832.783	59.92
833.089	60.12
833.396	60.17
833.702	60.22
834.009	60.29
834.315	59.98
834.621	60.39
834.928	59.84
835.234	59.51
835.54	59.69
835.846	59.66
836.152	59.93
836.458	60.23
836.764	60.31
837.07	59.94
837.376	59.66
837.682	59.96
837.988	60.47
838.293	60.68
838.599	60.26
838.905	60.18
839.211	60.33
839.516	59.77
839.822	59.81
840.127	59.46
840.433	58.66
840.738	59.45
841.044	58.87
841.349	59.08
841.654	60.14
841.959	60.64
842.265	60.57
842.57	60.09
842.875	59.76
843.18	59.28
843.485	59.74
843.79	60.33
844.095	59.47
844.4	60.6
844.705	60.55
845.01	61.97
845.315	60.48
845.619	60.67
845.924	62.23
846.229	61.76
846.533	62.15
846.838	64.03
847.142	63.35
847.447	64.33
847.751	64.4
848.056	63.35
848.36	62.08
848.664	61.82
848.969	63.26
849.273	63.9
849.577	63.56
849.881	61.58
850.185	61.66
850.489	63.9
850.794	62.08
851.097	62.51
851.401	62.44
851.705	65.72
852.009	65.8
852.313	64.46
852.617	67.14
852.92	67.17
853.224	67.34
853.528	66.43
853.831	66.1
854.135	67.57
854.438	68.79
854.742	68.99
855.045	70.96
855.349	71.37
855.652	71.44
855.955	71.93
856.259	72.99
856.562	74
856.865	72.51
857.168	72.94
857.471	71.96
857.774	70.94
858.077	68.55
858.38	70.68
858.683	70.94
858.986	70.14
859.289	69.68
859.592	67.52
859.894	69.06
860.197	68.52
860.5	65.64
860.802	64.55
861.105	65.11
861.407	63.69
861.71	62.95
862.012	61.74
862.315	62.15
862.617	62.94
862.919	59.99
863.222	58.13
863.524	58.45
863.826	57.26
864.128	57.98
864.43	58.72
864.732	54.81
865.034	55.91
865.336	56.43
865.638	55.72
865.94	57.38
866.242	54.77
866.544	56.19
866.846	57.03
867.147	54.58
867.449	54.84
867.751	56.54
868.052	55.27
868.354	58.41
868.655	57.84
868.957	60.51
869.258	60.76
869.56	59.52
869.861	58.19
870.162	59.54
870.463	58.31
870.765	58.54
871.066	59.84
871.367	59.71
871.668	58.9
871.969	59.27
872.27	58.14
872.571	59.82
872.872	59.22
873.173	58.28
873.473	60.58
873.774	61.43
874.075	62.66
874.376	63.4
874.676	58.47
874.977	58.54
875.277	55.83
875.578	56.12
875.878	58.08
876.179	58.31
876.479	58.41
876.78	58.84
877.08	58.71
877.38	59.3
877.68	58.55
877.981	57.63
878.281	57.56
878.581	59.68
