Data from BA57710_Reflection_00005.txt Node
Date: Mon Nov 18 15:31:46 EST 2019
User: vgr7
Spectrometer: USB2G7710
Scans to average: 3
Trigger mode: 4
Integration Time (sec): 2.000000E-2
Electric dark correction enabled: true
Boxcar width: 10
XAxis mode: Wavelengths
Number of Pixels in Spectrum: 2048
>>>>>Begin Spectral Data<<<<<
177.721	7.65
178.105	-7.72
178.488	-48.97
178.871	-93.28
179.254	-272.67
179.636	3.35
180.019	-109.79
180.402	77.78
180.785	114.07
181.168	140.76
181.55	146.66
181.933	97.05
182.316	174.18
182.698	270.5
183.081	346.73
183.463	-413.62
183.846	-473.38
184.228	-242.48
184.611	-414.29
184.993	-167.25
185.376	-153.38
185.758	-189.46
186.14	-238.44
186.522	-357.58
186.904	-407.04
187.287	-705.81
187.669	-367.14
188.051	-386.02
188.433	-552.37
188.815	-186.44
189.197	-143.2
189.579	-99.62
189.961	-75.09
190.342	-103.56
190.724	-74.37
191.106	-79.36
191.488	-100.76
191.869	-90.2
192.251	-115.81
192.633	-106.67
193.014	-115.4
193.396	-160.12
193.777	-118.11
194.159	-112.75
194.54	-99.02
194.922	-103.36
195.303	-105.32
195.684	-99.36
196.065	-84.26
196.447	-83.69
196.828	-117.03
197.209	-117.94
197.59	-157.39
197.971	-186.57
198.352	-115.52
198.733	-160.01
199.114	-146.08
199.495	-132.68
199.876	-158.93
200.257	-92.74
200.638	-79.45
201.018	-67.22
201.399	-50.41
201.78	-45.42
202.16	-77.66
202.541	-78.76
202.922	-88.15
203.302	-81.86
203.683	-76.87
204.063	-100.04
204.444	-99.28
204.824	-93.14
205.204	-85.27
205.585	-87.24
205.965	-85.99
206.345	-100.35
206.725	-88.26
207.106	-120.86
207.486	-151.43
207.866	-132.18
208.246	-166.51
208.626	-213.94
209.006	-176.48
209.386	-296.14
209.766	-311.12
210.145	-205.94
210.525	-252.5
210.905	-212.48
211.285	-239.8
211.664	-244.04
212.044	-216.26
212.424	-153.85
212.803	-164.36
213.183	-151.38
213.562	-115.42
213.942	-94.7
214.321	-90.07
214.701	-96.27
215.08	-105.29
215.459	-82.68
215.838	-75.56
216.218	-69.27
216.597	-49.51
216.976	-42
217.355	-30.19
217.734	-24.89
218.113	-27.57
218.492	-14.28
218.871	-8.32
219.25	-3.66
219.629	-4.55
220.008	-0.57
220.387	4.08
220.766	-7.7
221.144	-21.79
221.523	-30.1
221.902	-30.22
222.28	-31.05
222.659	-26.1
223.037	-7.96
223.416	-2.23
223.794	-8.75
224.173	-13.31
224.551	-8.54
224.929	-19.17
225.308	-14.21
225.686	-9.42
226.064	-8.52
226.442	-15.42
226.821	-14.21
227.199	-11.73
227.577	-13.42
227.955	-11.03
228.333	-13.13
228.711	-8.09
229.089	-6.02
229.467	-9.37
229.845	-8.8
230.222	-7.91
230.6	-8.54
230.978	-8.73
231.356	-7.76
231.733	-7.13
232.111	-4.69
232.488	-4.6
232.866	-3.81
233.243	-2.54
233.621	-1.58
233.998	-0.19
234.376	-0.34
234.753	-0.05
235.13	-1.17
235.508	0.26
235.885	-0.38
236.262	-0.58
236.639	0.71
237.016	1.76
237.393	3.61
237.77	3.64
238.147	3.53
238.524	3.45
238.901	4.14
239.278	4.22
239.655	4.17
240.032	4.04
240.409	3.27
240.785	3.63
241.162	3.87
241.539	3.65
241.915	3.62
242.292	3.91
242.668	4.27
243.045	4.86
243.421	4.47
243.798	4.31
244.174	4.48
244.551	4.04
244.927	3.98
245.303	4.19
245.679	4
246.056	4.02
246.432	4.27
246.808	4.19
247.184	4.08
247.56	4.11
247.936	3.98
248.312	4.17
248.688	4.26
249.064	4.08
249.44	4.16
249.815	4.24
250.191	4.54
250.567	4.45
250.943	4.22
251.318	4.21
251.694	4.36
252.069	4.23
252.445	4.56
252.82	4.58
253.196	4.25
253.571	4.23
253.947	4.01
254.322	3.87
254.697	3.81
255.073	3.96
255.448	3.95
255.823	3.85
256.198	4.03
256.573	3.94
256.948	4.19
257.323	4.1
257.698	4.08
258.073	3.82
258.448	3.84
258.823	3.79
259.198	3.71
259.573	3.72
259.948	3.68
260.322	3.52
260.697	3.29
261.072	3.3
261.446	3.25
261.821	3.41
262.195	3.49
262.57	3.58
262.944	3.49
263.319	3.45
263.693	3.62
264.067	3.56
264.442	3.7
264.816	3.51
265.19	3.41
265.564	3.3
265.938	3.3
266.313	3.04
266.687	3.11
267.061	3.35
267.435	3.31
267.809	3.52
268.183	3.78
268.556	3.98
268.93	3.91
269.304	3.92
269.678	3.85
270.051	3.77
270.425	3.75
270.799	3.74
271.172	3.8
271.546	3.72
271.919	3.5
272.293	3.3
272.666	3.47
273.04	3.64
273.413	3.61
273.787	3.62
274.16	3.84
274.533	3.86
274.906	3.82
275.279	3.83
275.653	3.77
276.026	3.63
276.399	3.57
276.772	3.69
277.145	3.77
277.518	3.81
277.891	4.01
278.263	3.8
278.636	3.81
279.009	3.69
279.382	3.79
279.755	3.85
280.127	4.03
280.5	3.95
280.872	4.05
281.245	4.05
281.617	4.13
281.99	3.99
282.362	3.94
282.735	3.73
283.107	3.74
283.479	3.72
283.852	3.63
284.224	3.6
284.596	3.61
284.968	3.67
285.34	3.74
285.713	3.54
286.085	3.68
286.457	3.75
286.829	3.87
287.201	3.77
287.572	3.8
287.944	3.65
288.316	3.53
288.688	3.38
289.06	3.53
289.431	3.56
289.803	3.57
290.175	3.66
290.546	3.89
290.918	3.92
291.289	3.86
291.661	3.91
292.032	4.1
292.403	3.98
292.775	4.03
293.146	3.94
293.517	3.97
293.889	4
294.26	4.05
294.631	4.04
295.002	4.07
295.373	4.15
295.744	4.25
296.115	4.32
296.486	4.26
296.857	4.21
297.228	4.23
297.599	4.31
297.97	4.22
298.34	4.25
298.711	4.25
299.082	4.25
299.452	4.24
299.823	4.22
300.194	4.32
300.564	4.28
300.935	4.23
301.305	4.22
301.676	4.24
302.046	4.27
302.416	4.28
302.787	4.28
303.157	4.31
303.527	4.26
303.897	4.3
304.267	4.46
304.637	4.45
305.008	4.4
305.378	4.44
305.748	4.64
306.117	4.46
306.487	4.59
306.857	4.69
307.227	4.8
307.597	4.75
307.967	4.8
308.336	4.76
308.706	4.8
309.076	4.89
309.445	4.79
309.815	4.7
310.184	4.66
310.554	4.69
310.923	4.61
311.293	4.51
311.662	4.44
312.031	4.37
312.401	4.47
312.77	4.54
313.139	4.56
313.508	4.48
313.877	4.4
314.246	4.27
314.616	4.16
314.985	4.1
315.353	4.01
315.722	4.07
316.091	3.9
316.46	3.91
316.829	3.94
317.198	3.9
317.567	3.86
317.935	3.69
318.304	3.62
318.672	3.77
319.041	4.04
319.41	4.09
319.778	4.11
320.147	3.95
320.515	3.92
320.883	3.9
321.252	3.94
321.62	4.13
321.988	4.09
322.357	4.22
322.725	4.16
323.093	4.21
323.461	4.13
323.829	4.34
324.197	4.33
324.565	4.26
324.933	4.26
325.301	4.36
325.669	4.52
326.037	4.55
326.405	4.48
326.772	4.36
327.14	4.39
327.508	4.35
327.875	4.26
328.243	4.28
328.61	4.21
328.978	4.29
329.346	4.4
329.713	4.34
330.08	4.34
330.448	4.38
330.815	4.27
331.182	4.29
331.55	4.33
331.917	4.4
332.284	4.42
332.651	4.48
333.018	4.36
333.385	4.31
333.752	4.45
334.119	4.44
334.486	4.46
334.853	4.47
335.22	4.53
335.587	4.68
335.954	4.58
336.32	4.61
336.687	4.54
337.054	4.37
337.42	4.4
337.787	4.36
338.153	4.31
338.52	4.5
338.886	4.37
339.253	4.36
339.619	4.23
339.986	4.23
340.352	4.32
340.718	4.34
341.084	4.42
341.451	4.46
341.817	4.62
342.183	4.59
342.549	4.6
342.915	4.63
343.281	4.61
343.647	4.62
344.013	4.67
344.379	4.6
344.745	4.67
345.11	4.71
345.476	4.82
345.842	4.91
346.208	4.93
346.573	5.02
346.939	5.12
347.304	5.21
347.67	5.14
348.035	5.11
348.401	5.18
348.766	5.06
349.132	5.01
349.497	4.87
349.862	4.99
350.228	4.95
350.593	4.95
350.958	4.93
351.323	4.95
351.688	4.99
352.053	5.03
352.418	5.14
352.783	5.27
353.148	5.12
353.513	5.05
353.878	5
354.243	4.96
354.608	4.89
354.972	4.91
355.337	4.99
355.702	5.02
356.066	5
356.431	5.02
356.795	5.07
357.16	5.08
357.524	4.94
357.889	4.97
358.253	5
358.618	5.04
358.982	5.04
359.346	4.99
359.71	4.96
360.075	4.83
360.439	4.79
360.803	4.85
361.167	4.89
361.531	4.92
361.895	4.94
362.259	4.92
362.623	4.89
362.987	4.85
363.351	4.83
363.714	4.84
364.078	4.86
364.442	4.75
364.806	4.66
365.169	4.75
365.533	4.76
365.896	4.74
366.26	4.7
366.623	4.59
366.987	4.64
367.35	4.67
367.714	4.72
368.077	4.61
368.44	4.63
368.803	4.6
369.167	4.52
369.53	4.53
369.893	4.58
370.256	4.61
370.619	4.65
370.982	4.62
371.345	4.61
371.708	4.67
372.071	4.7
372.434	4.78
372.797	4.73
373.159	4.72
373.522	4.74
373.885	4.8
374.247	4.89
374.61	4.81
374.973	4.79
375.335	4.79
375.698	4.89
376.06	4.86
376.423	4.87
376.785	4.94
377.147	4.96
377.51	4.96
377.872	4.99
378.234	4.99
378.596	5.02
378.958	4.99
379.321	5.01
379.683	5.01
380.045	5.02
380.407	5.01
380.769	4.99
381.13	4.99
381.492	4.96
381.854	4.97
382.216	4.97
382.578	5
382.939	4.98
383.301	4.94
383.663	4.89
384.024	4.88
384.386	4.82
384.747	4.81
385.109	4.81
385.47	4.73
385.832	4.72
386.193	4.78
386.554	4.8
386.916	4.73
387.277	4.73
387.638	4.77
387.999	4.77
388.36	4.8
388.721	4.76
389.082	4.74
389.443	4.71
389.804	4.73
390.165	4.76
390.526	4.79
390.887	4.78
391.248	4.82
391.609	4.81
391.969	4.82
392.33	4.8
392.691	4.77
393.051	4.79
393.412	4.76
393.772	4.69
394.133	4.71
394.493	4.76
394.854	4.74
395.214	4.68
395.574	4.72
395.935	4.7
396.295	4.71
396.655	4.73
397.015	4.74
397.376	4.73
397.736	4.65
398.096	4.65
398.456	4.65
398.816	4.67
399.176	4.67
399.535	4.64
399.895	4.64
400.255	4.65
400.615	4.66
400.975	4.66
401.334	4.64
401.694	4.58
402.054	4.54
402.413	4.55
402.773	4.55
403.132	4.55
403.492	4.55
403.851	4.54
404.211	4.54
404.57	4.55
404.929	4.55
405.288	4.59
405.648	4.58
406.007	4.6
406.366	4.57
406.725	4.59
407.084	4.59
407.443	4.61
407.802	4.62
408.161	4.6
408.52	4.61
408.879	4.64
409.238	4.67
409.596	4.67
409.955	4.66
410.314	4.68
410.673	4.64
411.031	4.66
411.39	4.66
411.748	4.65
412.107	4.62
412.465	4.62
412.824	4.62
413.182	4.62
413.54	4.63
413.899	4.65
414.257	4.65
414.615	4.68
414.974	4.67
415.332	4.66
415.69	4.67
416.048	4.65
416.406	4.66
416.764	4.67
417.122	4.67
417.48	4.7
417.838	4.71
418.195	4.72
418.553	4.7
418.911	4.7
419.269	4.71
419.626	4.72
419.984	4.72
420.342	4.71
420.699	4.71
421.057	4.69
421.414	4.69
421.772	4.69
422.129	4.67
422.486	4.67
422.844	4.68
423.201	4.66
423.558	4.66
423.915	4.65
424.273	4.64
424.63	4.64
424.987	4.62
425.344	4.6
425.701	4.6
426.058	4.59
426.415	4.59
426.772	4.58
427.128	4.58
427.485	4.56
427.842	4.54
428.199	4.53
428.555	4.53
428.912	4.52
429.269	4.53
429.625	4.51
429.982	4.51
430.338	4.5
430.695	4.52
431.051	4.51
431.407	4.54
431.764	4.54
432.12	4.55
432.476	4.56
432.832	4.56
433.189	4.56
433.545	4.55
433.901	4.58
434.257	4.59
434.613	4.59
434.969	4.61
435.325	4.64
435.681	4.64
436.036	4.65
436.392	4.64
436.748	4.64
437.104	4.62
437.459	4.6
437.815	4.6
438.171	4.61
438.526	4.63
438.882	4.61
439.237	4.62
439.593	4.61
439.948	4.6
440.304	4.6
440.659	4.6
441.014	4.6
441.369	4.56
441.725	4.54
442.08	4.53
442.435	4.53
442.79	4.52
443.145	4.52
443.5	4.51
443.855	4.51
444.21	4.48
444.565	4.51
444.92	4.53
445.275	4.53
445.629	4.51
445.984	4.5
446.339	4.49
446.693	4.47
447.048	4.45
447.403	4.45
447.757	4.44
448.112	4.44
448.466	4.43
448.82	4.45
449.175	4.45
449.529	4.46
449.883	4.45
450.238	4.44
450.592	4.44
450.946	4.43
451.3	4.42
451.654	4.42
452.008	4.4
452.362	4.38
452.716	4.37
453.07	4.37
453.424	4.35
453.778	4.36
454.132	4.36
454.486	4.36
454.839	4.35
455.193	4.37
455.547	4.38
455.9	4.39
456.254	4.37
456.607	4.37
456.961	4.37
457.314	4.38
457.668	4.39
458.021	4.37
458.375	4.39
458.728	4.39
459.081	4.39
459.434	4.4
459.787	4.41
460.141	4.43
460.494	4.44
460.847	4.43
461.2	4.43
461.553	4.44
461.906	4.44
462.259	4.45
462.611	4.46
462.964	4.46
463.317	4.47
463.67	4.51
464.022	4.51
464.375	4.5
464.728	4.5
465.08	4.5
465.433	4.5
465.785	4.5
466.138	4.52
466.49	4.54
466.843	4.53
467.195	4.53
467.547	4.52
467.899	4.52
468.252	4.53
468.604	4.54
468.956	4.54
469.308	4.57
469.66	4.55
470.012	4.57
470.364	4.55
470.716	4.57
471.068	4.58
471.42	4.6
471.772	4.61
472.123	4.62
472.475	4.62
472.827	4.63
473.178	4.63
473.53	4.63
473.882	4.61
474.233	4.62
474.585	4.62
474.936	4.62
475.288	4.61
475.639	4.63
475.99	4.63
476.342	4.62
476.693	4.62
477.044	4.64
477.395	4.62
477.746	4.62
478.097	4.6
478.448	4.59
478.8	4.59
479.15	4.59
479.501	4.58
479.852	4.57
480.203	4.6
480.554	4.62
480.905	4.63
481.255	4.64
481.606	4.67
481.957	4.68
482.307	4.69
482.658	4.7
483.009	4.7
483.359	4.7
483.709	4.7
484.06	4.7
484.41	4.7
484.761	4.69
485.111	4.69
485.461	4.7
485.811	4.7
486.162	4.69
486.512	4.69
486.862	4.7
487.212	4.7
487.562	4.7
487.912	4.69
488.262	4.7
488.612	4.7
488.961	4.69
489.311	4.68
489.661	4.68
490.011	4.67
490.36	4.67
490.71	4.67
491.06	4.67
491.409	4.68
491.759	4.68
492.108	4.68
492.458	4.69
492.807	4.7
493.157	4.7
493.506	4.72
493.855	4.73
494.204	4.75
494.554	4.76
494.903	4.76
495.252	4.79
495.601	4.78
495.95	4.78
496.299	4.78
496.648	4.79
496.997	4.78
497.346	4.8
497.695	4.81
498.043	4.82
498.392	4.84
498.741	4.86
499.09	4.86
499.438	4.88
499.787	4.88
500.135	4.88
500.484	4.9
500.832	4.91
501.181	4.92
501.529	4.93
501.878	4.94
502.226	4.93
502.574	4.92
502.923	4.94
503.271	4.95
503.619	4.95
503.967	4.98
504.315	5.02
504.663	5.02
505.011	5.03
505.359	5.05
505.707	5.07
506.055	5.08
506.403	5.14
506.751	5.15
507.098	5.16
507.446	5.17
507.794	5.17
508.141	5.18
508.489	5.18
508.837	5.17
509.184	5.19
509.531	5.22
509.879	5.26
510.226	5.26
510.574	5.28
510.921	5.29
511.268	5.28
511.616	5.29
511.963	5.32
512.31	5.33
512.657	5.34
513.004	5.36
513.351	5.38
513.698	5.37
514.045	5.37
514.392	5.4
514.739	5.41
515.086	5.43
515.432	5.45
515.779	5.46
516.126	5.46
516.473	5.47
516.819	5.47
517.166	5.48
517.512	5.51
517.859	5.52
518.205	5.54
518.552	5.56
518.898	5.56
519.245	5.56
519.591	5.56
519.937	5.56
520.283	5.55
520.629	5.55
520.976	5.56
521.322	5.57
521.668	5.57
522.014	5.6
522.36	5.6
522.706	5.59
523.052	5.61
523.398	5.62
523.743	5.61
524.089	5.61
524.435	5.61
524.781	5.62
525.126	5.64
525.472	5.65
525.817	5.65
526.163	5.66
526.509	5.66
526.854	5.66
527.199	5.67
527.545	5.67
527.89	5.68
528.235	5.69
528.581	5.7
528.926	5.71
529.271	5.71
529.616	5.71
529.961	5.73
530.306	5.73
530.651	5.73
530.996	5.75
531.341	5.76
531.686	5.77
532.031	5.77
532.376	5.76
532.721	5.77
533.065	5.77
533.41	5.78
533.755	5.78
534.099	5.79
534.444	5.79
534.788	5.81
535.133	5.81
535.477	5.82
535.822	5.81
536.166	5.8
536.51	5.78
536.855	5.78
537.199	5.78
537.543	5.79
537.887	5.8
538.231	5.81
538.576	5.8
538.92	5.82
539.264	5.84
539.608	5.85
539.951	5.83
540.295	5.84
540.639	5.84
540.983	5.86
541.327	5.86
541.671	5.87
542.014	5.87
542.358	5.87
542.701	5.86
543.045	5.88
543.389	5.9
543.732	5.92
544.075	5.95
544.419	5.96
544.762	5.96
545.105	5.97
545.449	5.97
545.792	5.98
546.135	5.98
546.478	5.97
546.821	5.97
547.165	5.98
547.508	6
547.851	6
548.194	5.99
548.536	5.98
548.879	5.98
549.222	5.97
549.565	5.99
549.908	5.98
550.25	5.97
550.593	5.95
550.936	5.93
551.278	5.91
551.621	5.91
551.963	5.9
552.306	5.91
552.648	5.92
552.991	5.94
553.333	5.92
553.675	5.92
554.017	5.93
554.36	5.92
554.702	5.93
555.044	5.92
555.386	5.91
555.728	5.92
556.07	5.94
556.412	5.95
556.754	5.96
557.096	5.99
557.438	6
557.78	6
558.121	6.03
558.463	6.03
558.805	6
559.147	6.01
559.488	6.03
559.83	6.05
560.171	6.04
560.513	6.07
560.854	6.07
561.196	6.06
561.537	6.06
561.878	6.05
562.22	6.08
562.561	6.09
562.902	6.1
563.243	6.07
563.584	6.09
563.925	6.09
564.266	6.08
564.607	6.08
564.948	6.09
565.289	6.12
565.63	6.13
565.971	6.15
566.312	6.14
566.653	6.14
566.993	6.11
567.334	6.13
567.675	6.14
568.015	6.16
568.356	6.18
568.696	6.16
569.037	6.18
569.377	6.17
569.718	6.19
570.058	6.2
570.398	6.22
570.739	6.22
571.079	6.24
571.419	6.24
571.759	6.26
572.099	6.23
572.439	6.22
572.779	6.23
573.119	6.25
573.459	6.27
573.799	6.3
574.139	6.31
574.479	6.28
574.819	6.28
575.158	6.27
575.498	6.26
575.838	6.3
576.177	6.27
576.517	6.27
576.856	6.28
577.196	6.29
577.535	6.31
577.875	6.3
578.214	6.3
578.553	6.32
578.893	6.32
579.232	6.38
579.571	6.38
579.91	6.37
580.25	6.32
580.589	6.32
580.928	6.28
581.267	6.26
581.606	6.26
581.945	6.27
582.283	6.3
582.622	6.3
582.961	6.27
583.3	6.3
583.639	6.36
583.977	6.35
584.316	6.31
584.654	6.25
584.993	6.25
585.332	6.23
585.67	6.26
586.008	6.27
586.347	6.24
586.685	6.22
587.024	6.22
587.362	6.23
587.7	6.26
588.038	6.28
588.376	6.3
588.715	6.33
589.053	6.33
589.391	6.36
589.729	6.4
590.067	6.4
590.404	6.4
590.742	6.38
591.08	6.35
591.418	6.39
591.756	6.42
592.093	6.45
592.431	6.48
592.769	6.42
593.106	6.39
593.444	6.4
593.781	6.4
594.119	6.45
594.456	6.47
594.793	6.45
595.131	6.4
595.468	6.38
595.805	6.37
596.143	6.37
596.48	6.38
596.817	6.38
597.154	6.41
597.491	6.36
597.828	6.37
598.165	6.4
598.502	6.39
598.839	6.42
599.176	6.44
599.512	6.41
599.849	6.42
600.186	6.47
600.523	6.49
600.859	6.54
601.196	6.49
601.532	6.52
601.869	6.53
602.205	6.6
602.542	6.65
602.878	6.65
603.215	6.65
603.551	6.62
603.887	6.61
604.223	6.57
604.56	6.62
604.896	6.64
605.232	6.65
605.568	6.66
605.904	6.65
606.24	6.63
606.576	6.62
606.912	6.66
607.248	6.63
607.583	6.62
607.919	6.62
608.255	6.61
608.591	6.63
608.926	6.66
609.262	6.69
609.597	6.64
609.933	6.65
610.268	6.66
610.604	6.67
610.939	6.66
611.275	6.75
611.61	6.75
611.945	6.78
612.281	6.8
612.616	6.78
612.951	6.76
613.286	6.76
613.621	6.78
613.956	6.77
614.291	6.79
614.626	6.79
614.961	6.77
615.296	6.73
615.631	6.69
615.966	6.68
616.3	6.62
616.635	6.69
616.97	6.66
617.304	6.65
617.639	6.68
617.973	6.71
618.308	6.67
618.642	6.67
618.977	6.58
619.311	6.55
619.646	6.64
619.98	6.66
620.314	6.69
620.648	6.71
620.983	6.71
621.317	6.7
621.651	6.73
621.985	6.72
622.319	6.74
622.653	6.78
622.987	6.75
623.321	6.73
623.655	6.74
623.988	6.8
624.322	6.83
624.656	6.82
624.99	6.83
625.323	6.82
625.657	6.84
625.99	6.91
626.324	6.97
626.657	6.93
626.991	6.94
627.324	6.92
627.658	6.93
627.991	6.98
628.324	7.01
628.657	6.97
628.991	6.94
629.324	7.03
629.657	7.05
629.99	7.08
630.323	7.1
630.656	7.1
630.989	7.08
631.322	7.1
631.655	7.1
631.987	7.04
632.32	7.03
632.653	7.02
632.986	6.99
633.318	6.92
633.651	6.98
633.984	6.95
634.316	6.91
634.649	6.89
634.981	6.84
635.313	6.8
635.646	6.81
635.978	6.9
636.31	6.89
636.643	6.84
636.975	6.82
637.307	6.83
637.639	6.74
637.971	6.73
638.303	6.75
638.635	6.73
638.967	6.75
639.299	6.8
639.631	6.79
639.963	6.76
640.295	6.82
640.626	6.74
640.958	6.78
641.29	6.84
641.621	6.84
641.953	6.87
642.285	6.93
642.616	6.98
642.948	6.99
643.279	7.04
643.61	7.11
643.942	7.12
644.273	7.17
644.604	7.31
644.936	7.34
645.267	7.34
645.598	7.34
645.929	7.36
646.26	7.29
646.591	7.32
646.922	7.36
647.253	7.37
647.584	7.35
647.915	7.36
648.245	7.36
648.576	7.41
648.907	7.39
649.238	7.33
649.568	7.31
649.899	7.28
650.229	7.21
650.56	7.14
650.89	7.18
651.221	7.19
651.551	7.12
651.882	7.1
652.212	7.11
652.542	7.14
652.872	7.15
653.203	7.18
653.533	7.19
653.863	7.2
654.193	7.23
654.523	7.29
654.853	7.34
655.183	7.41
655.513	7.41
655.843	7.42
656.172	7.46
656.502	7.48
656.832	7.43
657.162	7.45
657.491	7.46
657.821	7.47
658.15	7.43
658.48	7.48
658.809	7.53
659.139	7.47
659.468	7.47
659.798	7.44
660.127	7.44
660.456	7.5
660.785	7.51
661.115	7.4
661.444	7.37
661.773	7.3
662.102	7.21
662.431	7.18
662.76	7.22
663.089	7.23
663.418	7.23
663.747	7.27
664.076	7.26
664.404	7.24
664.733	7.23
665.062	7.2
665.39	7.09
665.719	7.04
666.048	7.15
666.376	7.15
666.705	7.17
667.033	7.18
667.362	7.19
667.69	7.13
668.018	7.25
668.347	7.24
668.675	7.3
669.003	7.37
669.331	7.43
669.659	7.4
669.987	7.43
670.315	7.42
670.643	7.48
670.971	7.45
671.299	7.5
671.627	7.53
671.955	7.59
672.283	7.72
672.61	7.78
672.938	7.72
673.266	7.75
673.593	7.77
673.921	7.76
674.249	7.72
674.576	7.72
674.904	7.76
675.231	7.75
675.558	7.75
675.886	7.71
676.213	7.67
676.54	7.66
676.867	7.65
677.195	7.64
677.522	7.62
677.849	7.73
678.176	7.73
678.503	7.67
678.83	7.68
679.157	7.62
679.484	7.59
679.81	7.57
680.137	7.54
680.464	7.56
680.791	7.6
681.117	7.62
681.444	7.64
681.771	7.6
682.097	7.63
682.424	7.59
682.75	7.6
683.077	7.6
683.403	7.68
683.729	7.63
684.056	7.64
684.382	7.79
684.708	7.69
685.034	7.65
685.36	7.76
685.686	7.7
686.012	7.74
686.339	7.8
686.664	7.87
686.99	7.85
687.316	7.84
687.642	7.91
687.968	7.8
688.294	7.92
688.619	7.99
688.945	7.99
689.271	7.95
689.596	7.9
689.922	8.02
690.247	7.94
690.573	7.95
690.898	7.96
691.224	7.84
691.549	7.84
691.874	7.89
692.2	7.83
692.525	7.89
692.85	7.89
693.175	7.9
693.5	7.83
693.825	7.96
694.15	7.97
694.475	7.84
694.8	7.87
695.125	7.81
695.45	7.75
695.775	7.81
696.099	7.91
696.424	8.01
696.749	7.94
697.073	7.95
697.398	8.11
697.723	8.14
698.047	8.09
698.372	8.09
698.696	8.16
699.02	8.17
699.345	8.18
699.669	8.31
699.993	8.22
700.318	8.23
700.642	8.15
700.966	8.19
701.29	8.28
701.614	8.3
701.938	8.35
702.262	8.38
702.586	8.46
702.91	8.44
703.234	8.41
703.557	8.46
703.881	8.45
704.205	8.35
704.529	8.31
704.852	8.44
705.176	8.49
705.499	8.39
705.823	8.42
706.146	8.44
706.47	8.34
706.793	8.42
707.117	8.49
707.44	8.51
707.763	8.46
708.086	8.35
708.409	8.39
708.733	8.41
709.056	8.3
709.379	8.24
709.702	8.31
710.025	8.33
710.348	8.35
710.671	8.33
710.993	8.35
711.316	8.37
711.639	8.42
711.962	8.47
712.284	8.54
712.607	8.49
712.93	8.46
713.252	8.4
713.575	8.46
713.897	8.47
714.22	8.46
714.542	8.52
714.864	8.6
715.187	8.66
715.509	8.61
715.831	8.69
716.153	8.74
716.475	8.72
716.798	8.77
717.12	8.64
717.442	8.69
717.764	8.68
718.085	8.63
718.407	8.37
718.729	8.33
719.051	8.36
719.373	8.2
719.695	8.13
720.016	8.21
720.338	8.2
720.659	8.11
720.981	8.23
721.302	8.16
721.624	8.19
721.945	8.21
722.267	8.32
722.588	8.26
722.909	8.21
723.231	8.09
723.552	8.02
723.873	8.31
724.194	8.39
724.515	8.32
724.836	8.41
725.157	8.72
725.478	8.75
725.799	8.83
726.12	8.98
726.441	8.99
726.762	9.07
727.083	8.97
727.403	9.05
727.724	9.22
728.045	9.38
728.365	9.33
728.686	9.24
729.006	9.19
729.327	9.22
729.647	9.42
729.967	9.38
730.288	9.37
730.608	9.25
730.928	9.25
731.249	9.32
731.569	9.44
731.889	9.31
732.209	9.36
732.529	9.22
732.849	9.41
733.169	9.4
733.489	9.27
733.809	9.19
734.129	9.1
734.448	9
734.768	8.91
735.088	9.02
735.408	9.2
735.727	9.33
736.047	9.49
736.366	9.22
736.686	9.31
737.005	9.44
737.325	9.53
737.644	9.47
737.963	9.58
738.283	9.38
738.602	9.35
738.921	9.34
739.24	9.34
739.56	9.16
739.879	9.31
740.198	9.37
740.517	9.5
740.836	9.66
741.155	9.47
741.473	9.45
741.792	9.47
742.111	9.47
742.43	9.22
742.748	9.01
743.067	9.2
743.386	9.51
743.704	9.43
744.023	9.28
744.341	9.1
744.66	9.07
744.978	9.04
745.297	8.99
745.615	8.97
745.933	9.05
746.252	9.11
746.57	9.1
746.888	9.15
747.206	9.02
747.524	8.95
747.842	9.04
748.16	9.07
748.478	9.02
748.796	9
749.114	9.26
749.432	9.53
749.749	9.51
750.067	9.37
750.385	9.32
750.703	9.4
751.02	9.55
751.338	9.49
751.655	9.77
751.973	10
752.29	9.95
752.608	9.87
752.925	9.86
753.242	9.73
753.56	9.48
753.877	9.7
754.194	9.63
754.511	9.61
754.828	9.44
755.145	9.29
755.462	9.04
755.779	8.85
756.096	8.58
756.413	8.77
756.73	8.79
757.047	8.97
757.364	8.97
757.68	8.99
757.997	9.06
758.314	8.84
758.63	8.75
758.947	8.87
759.264	8.91
759.58	8.95
759.896	9.12
760.213	9.16
760.529	9.2
760.846	9.23
761.162	9.46
761.478	9.64
761.794	9.62
762.11	9.77
762.426	9.87
762.743	10.14
763.059	9.94
763.375	9.88
763.69	10.01
764.006	10.09
764.322	10.3
764.638	10.47
764.954	10.63
765.27	10.7
765.585	10.57
765.901	10.71
766.216	10.73
766.532	10.65
766.848	10.8
767.163	10.72
767.478	10.88
767.794	10.76
768.109	10.58
768.424	10.88
768.74	10.76
769.055	10.82
769.37	10.29
769.685	10.35
770	10.49
770.315	10.26
770.63	10.27
770.945	9.78
771.26	9.32
771.575	9.06
771.89	8.74
772.205	9.02
772.52	8.99
772.834	8.74
773.149	8.85
773.464	8.71
773.778	9.17
774.093	9.02
774.407	8.89
774.722	9.2
775.036	9.23
775.351	9.3
775.665	9.3
775.979	9.65
776.293	9.63
776.608	9.55
776.922	9.54
777.236	9.13
777.55	9.18
777.864	9.63
778.178	10.04
778.492	10.43
778.806	10.04
779.12	10.1
779.434	10.27
779.747	10.07
780.061	10.27
780.375	10.06
780.689	10.24
781.002	10.28
781.316	10.03
781.629	9.88
781.943	10.1
782.256	9.91
782.57	10.29
782.883	10.28
783.196	9.99
783.51	9.79
783.823	9.83
784.136	10.42
784.449	10.16
784.762	10.19
785.075	10.2
785.388	10.53
785.701	10.18
786.014	9.88
786.327	10.21
786.64	10.33
786.953	10.24
787.266	9.86
787.578	9.92
787.891	10.32
788.204	10.15
788.516	10.11
788.829	10.34
789.141	10.17
789.454	10.5
789.766	11.1
790.079	11.33
790.391	11.66
790.703	11.24
791.016	11.31
791.328	11.29
791.64	10.97
791.952	11.2
792.264	11.12
792.576	11.42
792.888	11.06
793.2	11.28
793.512	11.33
793.824	11.71
794.136	12.11
794.448	11.91
794.76	12.06
795.071	11.93
795.383	11.64
795.695	11.22
796.006	11.3
796.318	11.03
796.629	11.52
796.941	11.63
797.252	12.25
797.564	11.97
797.875	11.72
798.186	11.52
798.497	11.59
798.809	11.69
799.12	12.03
799.431	12.36
799.742	12.04
800.053	12.06
800.364	12.15
800.675	11.82
800.986	11.83
801.297	11.7
801.608	11.41
801.918	11.64
802.229	12.15
802.54	11.48
802.851	11.28
803.161	10.59
803.472	10.58
803.782	10.46
804.093	10.46
804.403	10.53
804.714	11
805.024	10.31
805.334	10.42
805.645	10.5
805.955	10.49
806.265	10.25
806.575	9.99
806.885	9.89
807.195	10.96
807.505	10.92
807.815	11.16
808.125	11.69
808.435	11.67
808.745	11.43
809.055	12.41
809.365	12.2
809.674	12.39
809.984	12.02
810.294	11.19
810.603	11.5
810.913	12.1
811.222	12.58
811.532	12.79
811.841	13.11
812.151	13.36
812.46	13.53
812.769	13.67
813.079	14.06
813.388	14.31
813.697	13.71
814.006	14.15
814.315	13.66
814.624	13.43
814.933	14.02
815.242	14.37
815.551	13.92
815.86	14.65
816.169	14.73
816.478	14.68
816.786	15.54
817.095	15.58
817.404	15.08
817.712	14.45
818.021	14.7
818.33	13.81
818.638	13.54
818.947	13.61
819.255	13.61
819.563	13.39
819.872	13.07
820.18	13.08
820.488	12.91
820.796	13.1
821.105	13.39
821.413	13.35
821.721	13.08
822.029	13.11
822.337	12.98
822.645	13.09
822.953	13.14
823.26	13.03
823.568	12.82
823.876	12.83
824.184	12.99
824.491	12.98
824.799	13.24
825.107	13.19
825.414	13.24
825.722	13.46
826.029	13.56
826.337	13.57
826.644	13.42
826.951	13.44
827.259	13.45
827.566	13.22
827.873	13.01
828.18	13.3
828.488	13.35
828.795	13.53
829.102	13.38
829.409	13.54
829.716	13.57
830.023	13.91
830.329	13.66
830.636	13.49
830.943	13.69
831.25	13.67
831.557	13.71
831.863	13.48
832.17	12.76
832.476	13.08
832.783	13.15
833.089	13.21
833.396	13.6
833.702	13.72
834.009	13.77
834.315	13.84
834.621	13.38
834.928	13.07
835.234	12.38
835.54	12.24
835.846	11.95
836.152	11.74
836.458	11.86
836.764	11.95
837.07	11.66
837.376	10.97
837.682	10.51
837.988	10.4
838.293	10.2
838.599	10.56
838.905	9.34
839.211	9.11
839.516	9.18
839.822	8.71
840.127	7.54
840.433	7.37
840.738	7.03
841.044	7.17
841.349	7.05
841.654	7.69
841.959	8.74
842.265	9.05
842.57	9.92
842.875	8.95
843.18	9.89
843.485	10.57
843.79	11.37
844.095	11.08
844.4	11.19
844.705	10.93
845.01	10.78
845.315	11.71
845.619	11.96
845.924	12.15
846.229	12.88
846.533	14.21
846.838	14.5
847.142	14.55
847.447	13.33
847.751	12.12
848.056	10.96
848.36	10.42
848.664	11.41
848.969	10.97
849.273	11.1
849.577	10.68
849.881	9.86
850.185	8.29
850.489	8.91
850.794	8.72
851.097	8.54
851.401	8.89
851.705	8.94
852.009	10.01
852.313	9.22
852.617	7.27
852.92	6.91
853.224	5.31
853.528	5.22
853.831	5.67
854.135	6.25
854.438	6.18
854.742	4.45
855.045	2.7
855.349	3.35
855.652	3.33
855.955	3.38
856.259	4.05
856.562	4.09
856.865	4.99
857.168	3.36
857.471	3.67
857.774	3.71
858.077	3.16
858.38	2.67
858.683	1.59
858.986	3.21
859.289	3.66
859.592	4.19
859.894	5.12
860.197	5.51
860.5	5.64
860.802	6.2
861.105	6.84
861.407	7.42
861.71	6.68
862.012	8.57
862.315	8.94
862.617	8.34
862.919	8.89
863.222	7.64
863.524	10.16
863.826	10.39
864.128	10.72
864.43	11.84
864.732	13.96
865.034	14.37
865.336	12.68
865.638	12
865.94	14
866.242	13.42
866.544	13.58
866.846	16.34
867.147	20.1
867.449	20.92
867.751	20.6
868.052	19.31
868.354	18.48
868.655	16.96
868.957	16.05
869.258	15.99
869.56	18.79
869.861	18.15
870.162	17.58
870.463	16.29
870.765	16.5
871.066	12.74
871.367	13.37
871.668	13.79
871.969	15.43
872.27	14.64
872.571	14.54
872.872	16.65
873.173	13.08
873.473	9.91
873.774	9.54
874.075	9.49
874.376	9.53
874.676	13.65
874.977	12.97
875.277	15.25
875.578	17.36
875.878	15.61
876.179	15.04
876.479	16.2
876.78	16.72
877.08	15.92
877.38	17.34
877.68	17.63
877.981	18.53
878.281	17.76
878.581	18.27
