Data from BA57748_Reflection_00013.txt Node
Date: Mon Nov 18 15:55:45 EST 2019
User: vgr7
Spectrometer: USB2G7710
Scans to average: 3
Trigger mode: 4
Integration Time (sec): 2.000000E-2
Electric dark correction enabled: true
Boxcar width: 10
XAxis mode: Wavelengths
Number of Pixels in Spectrum: 2048
>>>>>Begin Spectral Data<<<<<
177.721	-106.62
178.105	489.38
178.488	372.62
178.871	118.9
179.254	102.9
179.636	-33.86
180.019	17.77
180.402	100
180.785	102.49
181.168	271.78
181.55	-321.05
181.933	177.96
182.316	182.08
182.698	211.16
183.081	207.74
183.463	164.7
183.846	396.11
184.228	268.67
184.611	285.15
184.993	737.53
185.376	1053.56
185.758	-2432.54
186.14	599.33
186.522	875.43
186.904	501.27
187.287	322.75
187.669	444.34
188.051	412.26
188.433	705.16
188.815	545.77
189.197	437.74
189.579	421.4
189.961	462.25
190.342	380.36
190.724	599.04
191.106	567.96
191.488	-12440.54
191.869	-3008.28
192.251	13319.51
192.633	1601.47
193.014	570.21
193.396	503.49
193.777	386.22
194.159	362.13
194.54	546.84
194.922	1520.81
195.303	-3166.06
195.684	1267.29
196.065	-831.75
196.447	18923.53
196.828	-12351.61
197.209	-12351.61
197.59	5116.95
197.971	1343.24
198.352	-6764.86
198.733	502.28
199.114	2038.93
199.495	346.84
199.876	403.69
200.257	546.93
200.638	-116.82
201.018	-403.78
201.399	-148.57
201.78	-186.51
202.16	-311.93
202.541	-59328.57
202.922	801.69
203.302	435.78
203.683	2120.94
204.063	576.9
204.444	1220.74
204.824	1514.23
205.204	1867.44
205.585	1139.16
205.965	-2426.83
206.345	-2708.29
206.725	-3472.41
207.106	-27163.16
207.486	-3022.99
207.866	4100
208.246	-3536.36
208.626	-4760.93
209.006	-1581.93
209.386	2660
209.766	2075.23
210.145	2092.57
210.525	3887.61
210.905	-1178.77
211.285	-641.26
211.664	-738.71
212.044	-735.04
212.424	-503.03
212.803	-622.14
213.183	-206.59
213.562	-257.38
213.942	-139.56
214.321	-118.33
214.701	-131.15
215.08	-161.58
215.459	-87.31
215.838	-100.28
216.218	-93.58
216.597	-36.76
216.976	-48
217.355	-51.21
217.734	-93.82
218.113	-97.64
218.492	-112.03
218.871	-130.04
219.25	-88.13
219.629	-102.95
220.008	-111.08
220.387	-108.1
220.766	-96.46
221.144	-207.87
221.523	-156.52
221.902	-273.08
222.28	-323.61
222.659	-317.1
223.037	-228.07
223.416	-401.13
223.794	-358.2
224.173	-273.62
224.551	-253.35
224.929	-210.15
225.308	-134.97
225.686	-102.88
226.064	-82.12
226.442	-73.91
226.821	-54.93
227.199	-49.55
227.577	-49.21
227.955	-46.32
228.333	-43.85
228.711	-41.28
229.089	-32.95
229.467	-37.49
229.845	-33.59
230.222	-31.24
230.6	-29.94
230.978	-28.12
231.356	-19.28
231.733	-18.8
232.111	-15.18
232.488	-15.32
232.866	-13.17
233.243	-14.1
233.621	-15.83
233.998	-14.24
234.376	-14.59
234.753	-16.32
235.13	-15.66
235.508	-12.4
235.885	-10.06
236.262	-11.3
236.639	-11.39
237.016	-9.86
237.393	-5.88
237.77	-2.98
238.147	-0.94
238.524	-0.6
238.901	0.45
239.278	-0.27
239.655	2.39
240.032	2
240.409	1.62
240.785	1.82
241.162	2.16
241.539	3.29
241.915	3.03
242.292	3.65
242.668	4.11
243.045	4.5
243.421	4.73
243.798	4.63
244.174	4.84
244.551	5.25
244.927	5.13
245.303	5.27
245.679	5.05
246.056	4.57
246.432	4.72
246.808	4.63
247.184	4.54
247.56	3.99
247.936	3.93
248.312	4.04
248.688	4.34
249.064	4.25
249.44	3.91
249.815	4.02
250.191	4.04
250.567	4
250.943	3.71
251.318	3.58
251.694	3.69
252.069	3.67
252.445	3.42
252.82	3.21
253.196	2.78
253.571	2.82
253.947	3.42
254.322	3.76
254.697	3.5
255.073	3.68
255.448	3.66
255.823	3.66
256.198	3.74
256.573	3.51
256.948	4.04
257.323	4.26
257.698	4.24
258.073	4.14
258.448	4.23
258.823	4.25
259.198	4.14
259.573	4
259.948	3.91
260.322	4.12
260.697	4.18
261.072	4.1
261.446	4.16
261.821	3.88
262.195	3.76
262.57	3.81
262.944	3.56
263.319	3.65
263.693	3.65
264.067	3.7
264.442	3.94
264.816	3.59
265.19	3.44
265.564	3.54
265.938	3.22
266.313	3.02
266.687	3.08
267.061	3.26
267.435	3.46
267.809	3.56
268.183	3.39
268.556	3.2
268.93	3.4
269.304	3.41
269.678	3.63
270.051	3.69
270.425	3.68
270.799	3.79
271.172	3.82
271.546	3.83
271.919	3.74
272.293	3.67
272.666	3.73
273.04	3.81
273.413	3.66
273.787	3.9
274.16	3.92
274.533	3.98
274.906	3.8
275.279	3.76
275.653	3.57
276.026	3.61
276.399	3.72
276.772	3.69
277.145	3.56
277.518	3.55
277.891	3.54
278.263	3.49
278.636	3.59
279.009	3.41
279.382	3.5
279.755	3.45
280.127	3.49
280.5	3.51
280.872	3.49
281.245	3.38
281.617	3.46
281.99	3.69
282.362	3.76
282.735	3.91
283.107	3.74
283.479	3.8
283.852	3.83
284.224	3.72
284.596	3.75
284.968	3.83
285.34	3.76
285.713	3.72
286.085	3.85
286.457	3.96
286.829	4.1
287.201	4.12
287.572	4.24
287.944	4.14
288.316	4.27
288.688	4.23
289.06	4.38
289.431	4.3
289.803	4.16
290.175	4.17
290.546	4.14
290.918	4.21
291.289	4.38
291.661	4.31
292.032	4.45
292.403	4.46
292.775	4.57
293.146	4.63
293.517	4.63
293.889	4.72
294.26	4.7
294.631	4.75
295.002	4.7
295.373	4.63
295.744	4.69
296.115	4.64
296.486	4.76
296.857	4.76
297.228	4.9
297.599	4.87
297.97	4.76
298.34	4.93
298.711	4.94
299.082	4.91
299.452	5
299.823	5.03
300.194	5.15
300.564	4.99
300.935	5
301.305	4.88
301.676	4.94
302.046	4.96
302.416	5.06
302.787	5.09
303.157	5.28
303.527	5.26
303.897	5.16
304.267	5.16
304.637	5.17
305.008	5.12
305.378	5.25
305.748	5.36
306.117	5.23
306.487	5.43
306.857	5.53
307.227	5.59
307.597	5.84
307.967	5.78
308.336	5.95
308.706	6
309.076	6.27
309.445	6.16
309.815	6.31
310.184	6.28
310.554	6.35
310.923	6.22
311.293	6.38
311.662	6.59
312.031	6.71
312.401	7
312.77	7.23
313.139	7.36
313.508	7.38
313.877	7.49
314.246	7.52
314.616	7.46
314.985	7.45
315.353	7.23
315.722	7.42
316.091	7.43
316.46	7.45
316.829	7.4
317.198	7.53
317.567	7.39
317.935	7.43
318.304	7.67
318.672	7.88
319.041	8.02
319.41	8
319.778	7.95
320.147	7.84
320.515	7.79
320.883	7.74
321.252	8.01
321.62	8.27
321.988	8.26
322.357	8.39
322.725	8.52
323.093	8.81
323.461	8.84
323.829	8.82
324.197	8.99
324.565	9.13
324.933	9.23
325.301	9.36
325.669	9.52
326.037	9.44
326.405	9.54
326.772	9.6
327.14	9.71
327.508	9.86
327.875	9.84
328.243	9.96
328.61	9.98
328.978	10.03
329.346	10.02
329.713	10.03
330.08	10.29
330.448	10.28
330.815	10.25
331.182	10.18
331.55	10.3
331.917	10.32
332.284	10.28
332.651	10.18
333.018	10.38
333.385	10.38
333.752	10.48
334.119	10.5
334.486	10.44
334.853	10.46
335.22	10.42
335.587	10.51
335.954	10.42
336.32	10.45
336.687	10.42
337.054	10.33
337.42	10.51
337.787	10.52
338.153	10.57
338.52	10.72
338.886	10.67
339.253	10.76
339.619	10.8
339.986	10.87
340.352	11.12
340.718	11.03
341.084	11.03
341.451	11.03
341.817	11.1
342.183	11.08
342.549	11.08
342.915	11.18
343.281	11.24
343.647	11.25
344.013	11.32
344.379	11.32
344.745	11.42
345.11	11.44
345.476	11.43
345.842	11.4
346.208	11.28
346.573	11.41
346.939	11.52
347.304	11.47
347.67	11.42
348.035	11.32
348.401	11.31
348.766	11.31
349.132	11.37
349.497	11.32
349.862	11.41
350.228	11.42
350.593	11.4
350.958	11.46
351.323	11.5
351.688	11.4
352.053	11.4
352.418	11.47
352.783	11.36
353.148	11.26
353.513	11.33
353.878	11.36
354.243	11.39
354.608	11.34
354.972	11.54
355.337	11.66
355.702	11.66
356.066	11.72
356.431	11.66
356.795	11.64
357.16	11.58
357.524	11.49
357.889	11.53
358.253	11.54
358.618	11.5
358.982	11.45
359.346	11.46
359.71	11.4
360.075	11.3
360.439	11.37
360.803	11.35
361.167	11.29
361.531	11.27
361.895	11.15
362.259	11.06
362.623	10.92
362.987	10.76
363.351	10.7
363.714	10.65
364.078	10.6
364.442	10.5
364.806	10.41
365.169	10.4
365.533	10.29
365.896	10.18
366.26	10.1
366.623	10.05
366.987	10.05
367.35	10.1
367.714	10.02
368.077	9.95
368.44	9.89
368.803	9.77
369.167	9.78
369.53	9.81
369.893	9.79
370.256	9.72
370.619	9.72
370.982	9.64
371.345	9.54
371.708	9.49
372.071	9.43
372.434	9.46
372.797	9.37
373.159	9.36
373.522	9.27
373.885	9.26
374.247	9.18
374.61	9.09
374.973	8.97
375.335	8.9
375.698	8.8
376.06	8.76
376.423	8.77
376.785	8.65
377.147	8.54
377.51	8.47
377.872	8.45
378.234	8.42
378.596	8.41
378.958	8.36
379.321	8.28
379.683	8.22
380.045	8.05
380.407	7.99
380.769	7.94
381.13	7.87
381.492	7.77
381.854	7.75
382.216	7.67
382.578	7.59
382.939	7.52
383.301	7.41
383.663	7.32
384.024	7.28
384.386	7.28
384.747	7.25
385.109	7.17
385.47	7.08
385.832	7.05
386.193	7.04
386.554	6.98
386.916	6.97
387.277	6.95
387.638	6.94
387.999	6.91
388.36	6.82
388.721	6.81
389.082	6.78
389.443	6.65
389.804	6.59
390.165	6.55
390.526	6.57
390.887	6.55
391.248	6.52
391.609	6.46
391.969	6.38
392.33	6.34
392.691	6.31
393.051	6.28
393.412	6.23
393.772	6.13
394.133	6.07
394.493	6.05
394.854	6
395.214	5.99
395.574	5.9
395.935	5.84
396.295	5.82
396.655	5.73
397.015	5.69
397.376	5.66
397.736	5.6
398.096	5.51
398.456	5.47
398.816	5.42
399.176	5.34
399.535	5.29
399.895	5.22
400.255	5.16
400.615	5.09
400.975	5.05
401.334	5.04
401.694	5
402.054	4.92
402.413	4.84
402.773	4.78
403.132	4.8
403.492	4.81
403.851	4.72
404.211	4.73
404.57	4.73
404.929	4.72
405.288	4.71
405.648	4.66
406.007	4.62
406.366	4.59
406.725	4.62
407.084	4.61
407.443	4.6
407.802	4.62
408.161	4.58
408.52	4.53
408.879	4.48
409.238	4.49
409.596	4.48
409.955	4.49
410.314	4.49
410.673	4.44
411.031	4.42
411.39	4.42
411.748	4.37
412.107	4.38
412.465	4.33
412.824	4.3
413.182	4.3
413.54	4.28
413.899	4.27
414.257	4.25
414.615	4.21
414.974	4.2
415.332	4.19
415.69	4.19
416.048	4.18
416.406	4.18
416.764	4.15
417.122	4.14
417.48	4.12
417.838	4.1
418.195	4.09
418.553	4.06
418.911	4.02
419.269	4
419.626	3.99
419.984	3.98
420.342	3.97
420.699	3.97
421.057	3.97
421.414	3.95
421.772	3.93
422.129	3.95
422.486	3.91
422.844	3.89
423.201	3.86
423.558	3.85
423.915	3.83
424.273	3.82
424.63	3.8
424.987	3.8
425.344	3.77
425.701	3.75
426.058	3.75
426.415	3.76
426.772	3.78
427.128	3.74
427.485	3.73
427.842	3.71
428.199	3.69
428.555	3.67
428.912	3.67
429.269	3.66
429.625	3.62
429.982	3.64
430.338	3.63
430.695	3.64
431.051	3.62
431.407	3.62
431.764	3.63
432.12	3.63
432.476	3.62
432.832	3.62
433.189	3.64
433.545	3.63
433.901	3.61
434.257	3.59
434.613	3.6
434.969	3.6
435.325	3.59
435.681	3.59
436.036	3.58
436.392	3.56
436.748	3.55
437.104	3.54
437.459	3.53
437.815	3.54
438.171	3.55
438.526	3.54
438.882	3.54
439.237	3.54
439.593	3.54
439.948	3.54
440.304	3.54
440.659	3.53
441.014	3.52
441.369	3.5
441.725	3.49
442.08	3.48
442.435	3.48
442.79	3.5
443.145	3.49
443.5	3.48
443.855	3.49
444.21	3.48
444.565	3.48
444.92	3.49
445.275	3.48
445.629	3.48
445.984	3.48
446.339	3.45
446.693	3.42
447.048	3.42
447.403	3.41
447.757	3.4
448.112	3.39
448.466	3.38
448.82	3.37
449.175	3.38
449.529	3.37
449.883	3.36
450.238	3.33
450.592	3.32
450.946	3.32
451.3	3.31
451.654	3.31
452.008	3.29
452.362	3.26
452.716	3.24
453.07	3.23
453.424	3.22
453.778	3.23
454.132	3.21
454.486	3.19
454.839	3.18
455.193	3.17
455.547	3.17
455.9	3.18
456.254	3.21
456.607	3.2
456.961	3.21
457.314	3.21
457.668	3.22
458.021	3.22
458.375	3.22
458.728	3.22
459.081	3.24
459.434	3.24
459.787	3.25
460.141	3.25
460.494	3.26
460.847	3.26
461.2	3.27
461.553	3.29
461.906	3.32
462.259	3.32
462.611	3.34
462.964	3.37
463.317	3.37
463.67	3.37
464.022	3.37
464.375	3.37
464.728	3.38
465.08	3.39
465.433	3.4
465.785	3.41
466.138	3.43
466.49	3.4
466.843	3.42
467.195	3.43
467.547	3.46
467.899	3.48
468.252	3.49
468.604	3.47
468.956	3.48
469.308	3.48
469.66	3.48
470.012	3.51
470.364	3.52
470.716	3.52
471.068	3.52
471.42	3.53
471.772	3.57
472.123	3.58
472.475	3.57
472.827	3.6
473.178	3.59
473.53	3.59
473.882	3.58
474.233	3.56
474.585	3.55
474.936	3.56
475.288	3.53
475.639	3.56
475.99	3.58
476.342	3.57
476.693	3.58
477.044	3.6
477.395	3.58
477.746	3.56
478.097	3.56
478.448	3.56
478.8	3.55
479.15	3.52
479.501	3.5
479.852	3.51
480.203	3.51
480.554	3.52
480.905	3.53
481.255	3.55
481.606	3.56
481.957	3.57
482.307	3.56
482.658	3.58
483.009	3.57
483.359	3.56
483.709	3.56
484.06	3.56
484.41	3.56
484.761	3.56
485.111	3.57
485.461	3.57
485.811	3.57
486.162	3.57
486.512	3.59
486.862	3.59
487.212	3.6
487.562	3.6
487.912	3.6
488.262	3.6
488.612	3.59
488.961	3.59
489.311	3.6
489.661	3.6
490.011	3.6
490.36	3.6
490.71	3.6
491.06	3.62
491.409	3.61
491.759	3.61
492.108	3.61
492.458	3.63
492.807	3.62
493.157	3.63
493.506	3.64
493.855	3.63
494.204	3.65
494.554	3.64
494.903	3.65
495.252	3.65
495.601	3.68
495.95	3.7
496.299	3.72
496.648	3.71
496.997	3.74
497.346	3.75
497.695	3.78
498.043	3.82
498.392	3.83
498.741	3.86
499.09	3.9
499.438	3.92
499.787	3.95
500.135	4.03
500.484	4.05
500.832	4.09
501.181	4.13
501.529	4.17
501.878	4.25
502.226	4.3
502.574	4.35
502.923	4.39
503.271	4.44
503.619	4.49
503.967	4.57
504.315	4.61
504.663	4.68
505.011	4.76
505.359	4.82
505.707	4.91
506.055	4.99
506.403	5.06
506.751	5.15
507.098	5.22
507.446	5.28
507.794	5.36
508.141	5.43
508.489	5.55
508.837	5.64
509.184	5.71
509.531	5.81
509.879	5.9
510.226	6.01
510.574	6.1
510.921	6.19
511.268	6.28
511.616	6.4
511.963	6.51
512.31	6.59
512.657	6.71
513.004	6.82
513.351	6.95
513.698	7.08
514.045	7.2
514.392	7.33
514.739	7.47
515.086	7.62
515.432	7.75
515.779	7.87
516.126	8.02
516.473	8.15
516.819	8.29
517.166	8.45
517.512	8.58
517.859	8.71
518.205	8.85
518.552	9.01
518.898	9.13
519.245	9.28
519.591	9.44
519.937	9.56
520.283	9.7
520.629	9.88
520.976	10.06
521.322	10.26
521.668	10.46
522.014	10.66
522.36	10.88
522.706	11.12
523.052	11.41
523.398	11.7
523.743	11.98
524.089	12.23
524.435	12.49
524.781	12.76
525.126	13.02
525.472	13.26
525.817	13.46
526.163	13.68
526.509	13.85
526.854	14.03
527.199	14.22
527.545	14.39
527.89	14.56
528.235	14.76
528.581	14.95
528.926	15.14
529.271	15.32
529.616	15.53
529.961	15.72
530.306	15.91
530.651	16.1
530.996	16.32
531.341	16.57
531.686	16.81
532.031	17.04
532.376	17.29
532.721	17.55
533.065	17.83
533.41	18.1
533.755	18.41
534.099	18.73
534.444	19.03
534.788	19.35
535.133	19.63
535.477	19.94
535.822	20.24
536.166	20.59
536.51	20.96
536.855	21.34
537.199	21.72
537.543	22.14
537.887	22.55
538.231	22.93
538.576	23.34
538.92	23.73
539.264	24.1
539.608	24.46
539.951	24.79
540.295	25.1
540.639	25.45
540.983	25.74
541.327	26
541.671	26.28
542.014	26.57
542.358	26.86
542.701	27.11
543.045	27.39
543.389	27.67
543.732	27.97
544.075	28.23
544.419	28.51
544.762	28.77
545.105	29.08
545.449	29.4
545.792	29.72
546.135	30.05
546.478	30.42
546.821	30.77
547.165	31.11
547.508	31.49
547.851	31.8
548.194	32.17
548.536	32.56
548.879	32.98
549.222	33.31
549.565	33.68
549.908	34.08
550.25	34.47
550.593	34.8
550.936	35.12
551.278	35.53
551.621	35.89
551.963	36.29
552.306	36.67
552.648	37
552.991	37.33
553.333	37.72
553.675	37.99
554.017	38.31
554.36	38.66
554.702	38.94
555.044	39.29
555.386	39.58
555.728	39.88
556.07	40.16
556.412	40.51
556.754	40.75
557.096	41.02
557.438	41.32
557.78	41.61
558.121	41.94
558.463	42.15
558.805	42.43
559.147	42.67
559.488	42.89
559.83	43.19
560.171	43.44
560.513	43.6
560.854	43.89
561.196	44.14
561.537	44.3
561.878	44.59
562.22	44.74
562.561	44.97
562.902	45.18
563.243	45.38
563.584	45.58
563.925	45.87
564.266	46.07
564.607	46.23
564.948	46.4
565.289	46.57
565.63	46.74
565.971	46.92
566.312	47.13
566.653	47.33
566.993	47.48
567.334	47.66
567.675	47.92
568.015	48.08
568.356	48.26
568.696	48.51
569.037	48.62
569.377	48.88
569.718	49.07
570.058	49.21
570.398	49.45
570.739	49.65
571.079	49.75
571.419	49.91
571.759	50.09
572.099	50.28
572.439	50.37
572.779	50.57
573.119	50.75
573.459	50.88
573.799	51.02
574.139	51.14
574.479	51.26
574.819	51.31
575.158	51.43
575.498	51.51
575.838	51.65
576.177	51.81
576.517	51.86
576.856	51.99
577.196	52.11
577.535	52.16
577.875	52.25
578.214	52.4
578.553	52.48
578.893	52.54
579.232	52.61
579.571	52.86
579.91	52.98
580.25	53.03
580.589	53.15
580.928	53.21
581.267	53.39
581.606	53.5
581.945	53.63
582.283	53.78
582.622	53.96
582.961	54.02
583.3	54.2
583.639	54.33
583.977	54.45
584.316	54.53
584.654	54.64
584.993	54.75
585.332	54.88
585.67	55.02
586.008	55.13
586.347	55.23
586.685	55.24
587.024	55.3
587.362	55.45
587.7	55.56
588.038	55.77
588.376	55.83
588.715	55.85
589.053	55.99
589.391	56.05
589.729	56.14
590.067	56.21
590.404	56.19
590.742	56.25
591.08	56.34
591.418	56.43
591.756	56.47
592.093	56.55
592.431	56.59
592.769	56.6
593.106	56.61
593.444	56.7
593.781	56.86
594.119	56.9
594.456	56.9
594.793	56.91
595.131	56.86
595.468	56.9
595.805	57.01
596.143	57.01
596.48	57.04
596.817	57.07
597.154	57.07
597.491	57.16
597.828	57.22
598.165	57.19
598.502	57.19
598.839	57.31
599.176	57.39
599.512	57.5
599.849	57.61
600.186	57.78
600.523	57.91
600.859	57.89
601.196	57.95
601.532	58.03
601.869	58.04
602.205	58.11
602.542	58.13
602.878	58.21
603.215	58.24
603.551	58.33
603.887	58.38
604.223	58.47
604.56	58.51
604.896	58.54
605.232	58.57
605.568	58.69
605.904	58.69
606.24	58.7
606.576	58.7
606.912	58.78
607.248	58.78
607.583	58.77
607.919	58.85
608.255	58.89
608.591	58.98
608.926	59
609.262	59.07
609.597	59.14
609.933	59.18
610.268	59.24
610.604	59.26
610.939	59.22
611.275	59.23
611.61	59.18
611.945	59.2
612.281	59.31
612.616	59.33
612.951	59.36
613.286	59.43
613.621	59.5
613.956	59.47
614.291	59.59
614.626	59.55
614.961	59.59
615.296	59.64
615.631	59.62
615.966	59.69
616.3	59.68
616.635	59.67
616.97	59.65
617.304	59.65
617.639	59.68
617.973	59.79
618.308	59.84
618.642	60.01
618.977	60.07
619.311	60.07
619.646	60.17
619.98	60.22
620.314	60.3
620.648	60.25
620.983	60.32
621.317	60.15
621.651	60.23
621.985	60.25
622.319	60.29
622.653	60.32
622.987	60.42
623.321	60.51
623.655	60.56
623.988	60.48
624.322	60.47
624.656	60.51
624.99	60.59
625.323	60.69
625.657	60.75
625.99	60.84
626.324	60.79
626.657	60.77
626.991	60.75
627.324	60.67
627.658	60.71
627.991	60.7
628.324	60.85
628.657	60.89
628.991	60.92
629.324	60.94
629.657	60.96
629.99	60.96
630.323	60.91
630.656	60.96
630.989	61.06
631.322	61.11
631.655	61.1
631.987	61.02
632.32	60.87
632.653	60.85
632.986	60.81
633.318	60.88
633.651	60.89
633.984	60.89
634.316	60.83
634.649	60.85
634.981	60.85
635.313	60.79
635.646	60.81
635.978	60.78
636.31	60.81
636.643	60.85
636.975	60.91
637.307	60.96
637.639	60.91
637.971	61.04
638.303	61.13
638.635	61.09
638.967	61.16
639.299	61.28
639.631	61.31
639.963	61.35
640.295	61.35
640.626	61.38
640.958	61.4
641.29	61.64
641.621	61.59
641.953	61.61
642.285	61.72
642.616	61.69
642.948	61.77
643.279	61.79
643.61	61.75
643.942	61.76
644.273	61.75
644.604	61.77
644.936	61.63
645.267	61.65
645.598	61.71
645.929	61.72
646.26	61.72
646.591	61.76
646.922	61.72
647.253	61.69
647.584	61.75
647.915	61.73
648.245	61.61
648.576	61.66
648.907	61.7
649.238	61.68
649.568	61.68
649.899	61.63
650.229	61.65
650.56	61.75
650.89	61.73
651.221	61.92
651.551	62.04
651.882	62.02
652.212	62.07
652.542	62.07
652.872	62.11
653.203	62.05
653.533	62.04
653.863	62.05
654.193	62.06
654.523	62.02
654.853	61.98
655.183	62.07
655.513	62.14
655.843	62.22
656.172	62.26
656.502	62.41
656.832	62.33
657.162	62.46
657.491	62.37
657.821	62.32
658.15	62.31
658.48	62.37
658.809	62.47
659.139	62.42
659.468	62.45
659.798	62.27
660.127	62.37
660.456	62.34
660.785	62.36
661.115	62.54
661.444	62.58
661.773	62.68
662.102	62.61
662.431	62.73
662.76	62.65
663.089	62.57
663.418	62.47
663.747	62.63
664.076	62.54
664.404	62.6
664.733	62.57
665.062	62.42
665.39	62.35
665.719	62.28
666.048	62.28
666.376	62.35
666.705	62.55
667.033	62.54
667.362	62.6
667.69	62.58
668.018	62.48
668.347	62.45
668.675	62.53
669.003	62.57
669.331	62.5
669.659	62.58
669.987	62.65
670.315	62.73
670.643	62.61
670.971	62.5
671.299	62.47
671.627	62.51
671.955	62.57
672.283	62.63
672.61	62.53
672.938	62.59
673.266	62.57
673.593	62.53
673.921	62.6
674.249	62.55
674.576	62.7
674.904	62.77
675.231	62.73
675.558	62.81
675.886	62.77
676.213	62.78
676.54	62.77
676.867	62.78
677.195	62.78
677.522	62.88
677.849	63.02
678.176	63.06
678.503	63.18
678.83	63.14
679.157	63.12
679.484	63.26
679.81	63.31
680.137	63.34
680.464	63.3
680.791	63.31
681.117	63.33
681.444	63.22
681.771	63.3
682.097	63.38
682.424	63.27
682.75	63.35
683.077	63.24
683.403	63.19
683.729	63.22
684.056	63.29
684.382	63.34
684.708	63.25
685.034	63.24
685.36	63.15
685.686	63.2
686.012	63.11
686.339	63.2
686.664	63.2
686.99	63.12
687.316	63.22
687.642	63.13
687.968	63.15
688.294	63.09
688.619	62.94
688.945	62.93
689.271	62.95
689.596	62.85
689.922	63
690.247	62.99
690.573	62.94
690.898	62.95
691.224	62.88
691.549	62.99
691.874	62.94
692.2	62.96
692.525	62.98
692.85	63.06
693.175	63.06
693.5	62.95
693.825	62.92
694.15	62.99
694.475	63.06
694.8	63.13
695.125	63.37
695.45	63.46
695.775	63.65
696.099	63.66
696.424	63.81
696.749	63.84
697.073	63.75
697.398	63.86
697.723	63.97
698.047	64
698.372	64.04
698.696	64
699.02	64.18
699.345	64.1
699.669	64.17
699.993	64.04
700.318	64.21
700.642	64.2
700.966	64.17
701.29	64.13
701.614	64.2
701.938	64.16
702.262	64.14
702.586	63.98
702.91	64.03
703.234	64
703.557	63.91
703.881	63.97
704.205	63.81
704.529	63.59
704.852	63.46
705.176	63.31
705.499	63.43
705.823	63.18
706.146	63.4
706.47	63.25
706.793	63.24
707.117	63.16
707.44	63.28
707.763	63.33
708.086	63.33
708.409	63.26
708.733	63.15
709.056	63.08
709.379	63.08
709.702	62.99
710.025	62.96
710.348	63.04
710.671	63.13
710.993	63.08
711.316	63.18
711.639	63.55
711.962	63.62
712.284	63.91
712.607	63.77
712.93	63.76
713.252	63.85
713.575	63.95
713.897	63.83
714.22	63.73
714.542	63.82
714.864	64
715.187	63.85
715.509	63.94
715.831	63.96
716.153	63.86
716.475	63.85
716.798	63.85
717.12	63.93
717.442	64.08
717.764	64.06
718.085	63.95
718.407	63.81
718.729	63.61
719.051	63.52
719.373	63.94
719.695	63.99
720.016	63.96
720.338	64.09
720.659	64.24
720.981	64.36
721.302	64.3
721.624	64.44
721.945	64.67
722.267	64.52
722.588	64.56
722.909	64.93
723.231	65.07
723.552	65.1
723.873	65.14
724.194	65.08
724.515	65.21
724.836	65.44
725.157	65.21
725.478	65.56
725.799	65.31
726.12	65.05
726.441	64.79
726.762	64.66
727.083	64.48
727.403	64.39
727.724	64.47
728.045	64.61
728.365	64.23
728.686	64.1
729.006	64.19
729.327	64.16
729.647	64.17
729.967	64.23
730.288	63.96
730.608	63.66
730.928	63.63
731.249	63.78
731.569	63.6
731.889	63.7
732.209	63.6
732.529	63.68
732.849	63.76
733.169	63.84
733.489	64.02
733.809	63.92
734.129	63.92
734.448	63.83
734.768	63.58
735.088	63.75
735.408	63.77
735.727	63.77
736.047	63.8
736.366	63.67
736.686	63.59
737.005	63.82
737.325	64.21
737.644	64.24
737.963	64.24
738.283	64.1
738.602	64.06
738.921	63.82
739.24	64
739.56	63.72
739.879	63.89
740.198	63.82
740.517	63.97
740.836	63.77
741.155	63.55
741.473	63.72
741.792	63.6
742.111	63.62
742.43	63.55
742.748	63.22
743.067	63.06
743.386	63.02
743.704	62.96
744.023	62.66
744.341	62.61
744.66	62.5
744.978	62.74
745.297	62.43
745.615	62.83
745.933	62.53
746.252	62.85
746.57	62.65
746.888	62.65
747.206	62.78
747.524	63.03
747.842	63.33
748.16	63.24
748.478	63.14
748.796	63.15
749.114	63.4
749.432	63.66
749.749	63.64
750.067	63.58
750.385	63.73
750.703	63.73
751.02	63.67
751.338	63.87
751.655	63.71
751.973	64.17
752.29	64.05
752.608	63.86
752.925	63.73
753.242	63.65
753.56	63.6
753.877	63.37
754.194	63.42
754.511	63.45
754.828	63.49
755.145	63.48
755.462	63.52
755.779	63.31
756.096	63.5
756.413	63.57
756.73	63.26
757.047	63.25
757.364	63.26
757.68	63.19
757.997	63.02
758.314	63.29
758.63	63.39
758.947	63.37
759.264	63.57
759.58	63.69
759.896	63.62
760.213	63.89
760.529	63.83
760.846	63.94
761.162	63.95
761.478	63.98
761.794	63.91
762.11	64
762.426	63.89
762.743	63.66
763.059	63.85
763.375	64.07
763.69	64.13
764.006	64.15
764.322	64.28
764.638	64.26
764.954	64.09
765.27	63.96
765.585	63.91
765.901	64.03
766.216	63.89
766.532	63.86
766.848	63.61
767.163	63.69
767.478	63.33
767.794	63.34
768.109	63.29
768.424	63.23
768.74	63.21
769.055	63.49
769.37	63.77
769.685	63.26
770	63.1
770.315	62.93
770.63	63.17
770.945	63
771.26	62.97
771.575	62.91
771.89	63.09
772.205	63.26
772.52	63.41
772.834	63.49
773.149	63.44
773.464	63.76
773.778	63.83
774.093	64.46
774.407	64.18
774.722	64.24
775.036	64.5
775.351	64.69
775.665	64.32
775.979	63.9
776.293	63.88
776.608	64.24
776.922	64.72
777.236	64.19
777.55	64.22
777.864	64.6
778.178	64.51
778.492	64.26
778.806	64.11
779.12	63.68
779.434	63.6
779.747	64.09
780.061	63.83
780.375	63.92
780.689	64.01
781.002	64.22
781.316	64.03
781.629	64.1
781.943	63.55
782.256	63.49
782.57	63.47
782.883	63.85
783.196	64.05
783.51	63.82
783.823	64.3
784.136	64.12
784.449	63.65
784.762	63.65
785.075	63.64
785.388	64.14
785.701	64.26
786.014	64.07
786.327	64.31
786.64	64.52
786.953	64.47
787.266	63.61
787.578	63.66
787.891	63.97
788.204	63.99
788.516	64.2
788.829	64.13
789.141	64.77
789.454	64.9
789.766	64.76
790.079	64.41
790.391	64.23
790.703	64.49
791.016	64.71
791.328	64.98
791.64	65.09
791.952	64.93
792.264	64.75
792.576	65.01
792.888	64.92
793.2	65.3
793.512	65.6
793.824	65.73
794.136	65.95
794.448	65.88
794.76	66.19
795.071	66.5
795.383	66.78
795.695	66.38
796.006	66.31
796.318	66.07
796.629	66.43
796.941	66.19
797.252	66.12
797.564	65.6
797.875	65.68
798.186	65.61
798.497	64.99
798.809	65.53
799.12	65.99
799.431	65.7
799.742	65.28
800.053	64.75
800.364	65.1
800.675	65.03
800.986	64.77
801.297	64.47
801.608	64.21
801.918	63.74
802.229	64.02
802.54	63.83
802.851	63.7
803.161	63.19
803.472	63.24
803.782	63.26
804.093	63.83
804.403	63.98
804.714	63.86
805.024	64.29
805.334	63.95
805.645	63.9
805.955	64.16
806.265	63.46
806.575	63.98
806.885	63.73
807.195	64.02
807.505	64.58
807.815	64.14
808.125	64.14
808.435	64.5
808.745	64.41
809.055	65.18
809.365	66.04
809.674	67.02
809.984	67.27
810.294	67.13
810.603	66.82
810.913	66.6
811.222	66.55
811.532	66.56
811.841	66.66
812.151	66.47
812.46	66.19
812.769	66.57
813.079	65.79
813.388	65.5
813.697	64.35
814.006	63.3
814.315	63.87
814.624	63.69
814.933	63.64
815.242	63.11
815.551	62.95
815.86	62.36
816.169	61.37
816.478	61.08
816.786	61.76
817.095	61.33
817.404	61.77
817.712	62.14
818.021	61.95
818.33	61.79
818.638	62.18
818.947	62.8
819.255	63.29
819.563	63.6
819.872	63.7
820.18	64.01
820.488	64.5
820.796	64.27
821.105	64.07
821.413	64.28
821.721	64.24
822.029	63.99
822.337	63.96
822.645	63.96
822.953	63.96
823.26	63.9
823.568	64
823.876	63.87
824.184	63.87
824.491	63.98
824.799	64.08
825.107	63.95
825.414	63.85
825.722	63.8
826.029	63.7
826.337	63.73
826.644	63.89
826.951	63.72
827.259	63.74
827.566	63.97
827.873	63.98
828.18	64.08
828.488	64.24
828.795	64.32
829.102	64.22
829.409	64.26
829.716	63.99
830.023	64.22
830.329	63.98
830.636	64.05
830.943	64.16
831.25	63.82
831.557	63.78
831.863	63.96
832.17	64.2
832.476	64.47
832.783	64.92
833.089	64.8
833.396	64.56
833.702	65.08
834.009	64.84
834.315	64.8
834.621	64.53
834.928	64.29
835.234	64.43
835.54	65.05
835.846	65.59
836.152	65.6
836.458	65.14
836.764	65.52
837.07	65.56
837.376	65.22
837.682	65.42
837.988	65.33
838.293	64.66
838.599	64.18
838.905	63.78
839.211	62.79
839.516	62.83
839.822	62.84
840.127	62.34
840.433	62.28
840.738	62.16
841.044	62.29
841.349	62.54
841.654	61.44
841.959	60.71
842.265	60.59
842.57	60.79
842.875	61.36
843.18	61.39
843.485	61.36
843.79	60.97
844.095	61.11
844.4	62.39
844.705	62.39
845.01	62.46
845.315	62.73
845.619	62.98
845.924	62.82
846.229	64.97
846.533	64.82
846.838	64.87
847.142	64.36
847.447	63.52
847.751	62.83
848.056	61.91
848.36	62.33
848.664	61.69
848.969	62.74
849.273	63.04
849.577	62.9
849.881	64.61
850.185	64.87
850.489	66.2
850.794	65.39
851.097	67.04
851.401	67.11
851.705	68.03
852.009	66.56
852.313	65.22
852.617	64.46
852.92	65.47
853.224	64.26
853.528	65.49
853.831	65.89
854.135	68.22
854.438	70.58
854.742	69.58
855.045	67.95
855.349	69.81
855.652	71.25
855.955	71.42
856.259	68.69
856.562	69.65
856.865	69.34
857.168	67.81
857.471	67.51
857.774	67.47
858.077	66.97
858.38	70.56
858.683	71.94
858.986	69.89
859.289	69.38
859.592	72.06
859.894	71.65
860.197	72.9
860.5	71.68
860.802	70.67
861.105	72.44
861.407	76.19
861.71	76.18
862.012	73.11
862.315	71.63
862.617	72.87
862.919	71.31
863.222	68.9
863.524	70.43
863.826	68.87
864.128	66.02
864.43	67.61
864.732	68.22
865.034	66.22
865.336	65.96
865.638	62.34
865.94	60.99
866.242	62.52
866.544	61.63
866.846	60.62
867.147	63.18
867.449	62.58
867.751	60.54
868.052	57.79
868.354	57.07
868.655	60.21
868.957	56.6
869.258	56.62
869.56	56.76
869.861	57.01
870.162	57.43
870.463	60.64
870.765	58.41
871.066	57.62
871.367	57.68
871.668	57.91
871.969	62.07
872.27	62.25
872.571	59.55
872.872	60.9
873.173	61.38
873.473	61.47
873.774	60.47
874.075	60.23
874.376	60.81
874.676	64.16
874.977	60.65
875.277	64.57
875.578	66.32
875.878	68.05
876.179	67.45
876.479	67.87
876.78	67.74
877.08	69.53
877.38	69.33
877.68	70.83
877.981	71.97
878.281	70.43
878.581	71.6
