Data from BA57750_Reflection_00010.txt Node
Date: Mon Nov 18 15:47:23 EST 2019
User: vgr7
Spectrometer: USB2G7710
Scans to average: 3
Trigger mode: 4
Integration Time (sec): 2.000000E-2
Electric dark correction enabled: true
Boxcar width: 10
XAxis mode: Wavelengths
Number of Pixels in Spectrum: 2048
>>>>>Begin Spectral Data<<<<<
177.721	-5.29
178.105	27.44
178.488	870.49
178.871	64.29
179.254	84.87
179.636	-6.62
180.019	-19.91
180.402	168.75
180.785	26.62
181.168	56.59
181.55	81.51
181.933	108.35
182.316	102.79
182.698	90.77
183.081	109.8
183.463	134.9
183.846	215.44
184.228	192.88
184.611	190.91
184.993	224.56
185.376	254.98
185.758	162.03
186.14	119.68
186.522	23.08
186.904	46.2
187.287	43.32
187.669	-9.42
188.051	-48.41
188.433	-152.48
188.815	-389.6
189.197	-15207.69
189.579	-1734.78
189.961	-9426.32
190.342	-3132.56
190.724	266.91
191.106	214.57
191.488	295.45
191.869	526.12
192.251	460.28
192.633	179.91
193.014	158.19
193.396	171.64
193.777	115.69
194.159	95.95
194.54	160.58
194.922	110.09
195.303	49.21
195.684	42.06
196.065	26.8
196.447	4.11
196.828	-15.32
197.209	8.26
197.59	3.5
197.971	2.12
198.352	16.15
198.733	7.18
199.114	14.53
199.495	22.45
199.876	-11.76
200.257	-2.06
200.638	17.23
201.018	18.3
201.399	32.46
201.78	42.95
202.16	39.23
202.541	7.98
202.922	3.75
203.302	-9.23
203.683	8.47
204.063	-24.25
204.444	-18.89
204.824	-17.6
205.204	-24.27
205.585	-21.34
205.965	-17.42
206.345	-44.77
206.725	-28.47
207.106	-41.64
207.486	-79.35
207.866	-47.51
208.246	-69.67
208.626	-87.36
209.006	-75.35
209.386	-113.72
209.766	-103.03
210.145	-123.73
210.525	-87.95
210.905	-71.01
211.285	-93.53
211.664	-87.47
212.044	-71.34
212.424	-4.43
212.803	-12.13
213.183	-1.21
213.562	10.15
213.942	28.45
214.321	24.56
214.701	14.43
215.08	29.6
215.459	31.78
215.838	42.92
216.218	48.21
216.597	40.65
216.976	36.81
217.355	38.88
217.734	17.99
218.113	17.23
218.492	11.99
218.871	27.63
219.25	24.84
219.629	17.33
220.008	11.6
220.387	-0.98
220.766	-4.23
221.144	-19.79
221.523	-26.05
221.902	-32.39
222.28	-25.56
222.659	-20.17
223.037	-29.48
223.416	-22.8
223.794	-46.97
224.173	-45.81
224.551	-22.58
224.929	-16.49
225.308	-17.51
225.686	-4.49
226.064	-5.23
226.442	-3.38
226.821	-6.86
227.199	-11.57
227.577	-4.84
227.955	-6.31
228.333	-4.52
228.711	0.44
229.089	8.26
229.467	8.11
229.845	8.44
230.222	6.78
230.6	5.32
230.978	5.07
231.356	5.17
231.733	8.18
232.111	9.93
232.488	7.32
232.866	7.72
233.243	9.01
233.621	7.18
233.998	10.01
234.376	8.9
234.753	7.53
235.13	11.3
235.508	10.88
235.885	10.24
236.262	10.14
236.639	8.06
237.016	6.28
237.393	7.79
237.77	7.58
238.147	7.19
238.524	6.59
238.901	7.57
239.278	7.63
239.655	7.45
240.032	6.92
240.409	6.76
240.785	6.82
241.162	6.4
241.539	6.05
241.915	6.19
242.292	5.95
242.668	5.91
243.045	5.75
243.421	5.53
243.798	5.84
244.174	5.74
244.551	5.88
244.927	5.88
245.303	5.72
245.679	5.53
246.056	5.44
246.432	5.4
246.808	5.24
247.184	5.01
247.56	4.73
247.936	4.33
248.312	4.46
248.688	4.73
249.064	4.76
249.44	4.89
249.815	4.69
250.191	4.78
250.567	4.75
250.943	4.49
251.318	4.52
251.694	4.38
252.069	4.35
252.445	4.34
252.82	4.41
253.196	4.47
253.571	4.54
253.947	4.93
254.322	4.98
254.697	4.73
255.073	4.58
255.448	4.37
255.823	4.91
256.198	4.92
256.573	4.6
256.948	4.86
257.323	4.9
257.698	4.78
258.073	4.8
258.448	4.89
258.823	4.98
259.198	4.95
259.573	4.9
259.948	4.89
260.322	4.89
260.697	4.63
261.072	4.46
261.446	4.38
261.821	4.29
262.195	4.37
262.57	4.4
262.944	4.52
263.319	4.57
263.693	4.41
264.067	4.5
264.442	4.43
264.816	4.38
265.19	4.19
265.564	4.36
265.938	4.42
266.313	4.4
266.687	4.39
267.061	4.5
267.435	4.55
267.809	4.6
268.183	4.61
268.556	4.69
268.93	4.83
269.304	4.88
269.678	4.72
270.051	4.52
270.425	4.54
270.799	4.4
271.172	4.63
271.546	4.61
271.919	4.5
272.293	4.66
272.666	4.58
273.04	4.63
273.413	4.5
273.787	4.45
274.16	4.41
274.533	4.49
274.906	4.33
275.279	4.3
275.653	4.22
276.026	4.12
276.399	4.26
276.772	4.07
277.145	4.05
277.518	4.07
277.891	4.23
278.263	4.04
278.636	4.16
279.009	4.16
279.382	4.34
279.755	4.41
280.127	4.45
280.5	4.42
280.872	4.48
281.245	4.55
281.617	4.72
281.99	4.79
282.362	4.79
282.735	4.82
283.107	4.76
283.479	4.76
283.852	4.73
284.224	4.66
284.596	4.7
284.968	4.79
285.34	4.75
285.713	4.92
286.085	5.13
286.457	5.14
286.829	5.08
287.201	5.02
287.572	5.01
287.944	4.88
288.316	4.87
288.688	4.85
289.06	4.76
289.431	4.67
289.803	4.69
290.175	4.66
290.546	4.77
290.918	4.8
291.289	4.84
291.661	4.93
292.032	4.92
292.403	4.95
292.775	4.9
293.146	4.98
293.517	4.74
293.889	4.75
294.26	4.75
294.631	4.67
295.002	4.79
295.373	4.74
295.744	4.89
296.115	4.9
296.486	4.83
296.857	4.93
297.228	4.93
297.599	4.89
297.97	4.95
298.34	4.89
298.711	5
299.082	4.99
299.452	4.99
299.823	5.2
300.194	5.28
300.564	5.36
300.935	5.35
301.305	5.45
301.676	5.48
302.046	5.48
302.416	5.65
302.787	5.65
303.157	5.71
303.527	5.69
303.897	5.84
304.267	6.1
304.637	6.15
305.008	6.25
305.378	6.41
305.748	6.42
306.117	6.42
306.487	6.37
306.857	6.47
307.227	6.4
307.597	6.36
307.967	6.36
308.336	6.21
308.706	6.34
309.076	6.4
309.445	6.37
309.815	6.39
310.184	6.4
310.554	6.33
310.923	6.26
311.293	6.14
311.662	6.12
312.031	6.02
312.401	5.98
312.77	5.98
313.139	5.86
313.508	5.78
313.877	5.87
314.246	5.89
314.616	5.85
314.985	6.05
315.353	5.95
315.722	6
316.091	6.11
316.46	5.88
316.829	5.91
317.198	5.99
317.567	6.12
317.935	6.14
318.304	6.28
318.672	6.36
319.041	6.53
319.41	6.51
319.778	6.52
320.147	6.61
320.515	6.7
320.883	6.66
321.252	6.78
321.62	6.77
321.988	6.75
322.357	6.92
322.725	6.8
323.093	6.71
323.461	6.56
323.829	6.54
324.197	6.87
324.565	6.81
324.933	6.78
325.301	6.76
325.669	6.69
326.037	6.67
326.405	6.75
326.772	6.8
327.14	6.86
327.508	6.95
327.875	6.96
328.243	6.98
328.61	7.11
328.978	7.17
329.346	7.16
329.713	7.18
330.08	7.11
330.448	6.99
330.815	6.98
331.182	7.17
331.55	7.33
331.917	7.43
332.284	7.48
332.651	7.46
333.018	7.56
333.385	7.6
333.752	7.62
334.119	7.69
334.486	7.68
334.853	7.62
335.22	7.59
335.587	7.61
335.954	7.59
336.32	7.58
336.687	7.5
337.054	7.53
337.42	7.58
337.787	7.62
338.153	7.73
338.52	7.87
338.886	7.85
339.253	7.87
339.619	7.66
339.986	7.67
340.352	7.81
340.718	7.71
341.084	7.74
341.451	7.87
341.817	7.93
342.183	7.92
342.549	8.02
342.915	8.07
343.281	8.15
343.647	8.15
344.013	8.16
344.379	8.17
344.745	8.18
345.11	8.28
345.476	8.3
345.842	8.38
346.208	8.33
346.573	8.35
346.939	8.39
347.304	8.38
347.67	8.46
348.035	8.31
348.401	8.39
348.766	8.36
349.132	8.23
349.497	8.15
349.862	8.19
350.228	8.16
350.593	8.11
350.958	8.05
351.323	7.97
351.688	7.9
352.053	7.89
352.418	7.89
352.783	7.84
353.148	7.74
353.513	7.67
353.878	7.7
354.243	7.69
354.608	7.65
354.972	7.77
355.337	7.73
355.702	7.85
356.066	7.85
356.431	7.8
356.795	7.85
357.16	7.82
357.524	7.77
357.889	7.72
358.253	7.74
358.618	7.79
358.982	7.81
359.346	7.89
359.71	7.91
360.075	7.91
360.439	7.93
360.803	8.04
361.167	8.04
361.531	7.99
361.895	7.92
362.259	7.91
362.623	7.88
362.987	7.85
363.351	7.86
363.714	7.85
364.078	7.91
364.442	7.9
364.806	7.9
365.169	7.87
365.533	7.96
365.896	7.96
366.26	7.88
366.623	7.88
366.987	7.91
367.35	7.9
367.714	7.9
368.077	7.82
368.44	7.74
368.803	7.75
369.167	7.75
369.53	7.8
369.893	7.84
370.256	7.82
370.619	7.85
370.982	7.71
371.345	7.69
371.708	7.66
372.071	7.62
372.434	7.63
372.797	7.65
373.159	7.6
373.522	7.58
373.885	7.56
374.247	7.5
374.61	7.46
374.973	7.4
375.335	7.35
375.698	7.34
376.06	7.3
376.423	7.29
376.785	7.35
377.147	7.34
377.51	7.22
377.872	7.2
378.234	7.19
378.596	7.23
378.958	7.22
379.321	7.2
379.683	7.16
380.045	7.12
380.407	7.07
380.769	7.02
381.13	7.01
381.492	7.02
381.854	7.06
382.216	7.01
382.578	6.99
382.939	6.92
383.301	6.87
383.663	6.89
384.024	6.83
384.386	6.78
384.747	6.77
385.109	6.76
385.47	6.71
385.832	6.69
386.193	6.66
386.554	6.59
386.916	6.53
387.277	6.54
387.638	6.55
387.999	6.52
388.36	6.52
388.721	6.49
389.082	6.44
389.443	6.4
389.804	6.36
390.165	6.31
390.526	6.34
390.887	6.34
391.248	6.31
391.609	6.32
391.969	6.25
392.33	6.19
392.691	6.19
393.051	6.18
393.412	6.16
393.772	6.13
394.133	6.13
394.493	6.14
394.854	6.07
395.214	5.98
395.574	5.97
395.935	5.92
396.295	5.89
396.655	5.87
397.015	5.83
397.376	5.83
397.736	5.84
398.096	5.85
398.456	5.8
398.816	5.77
399.176	5.68
399.535	5.65
399.895	5.61
400.255	5.58
400.615	5.56
400.975	5.49
401.334	5.47
401.694	5.43
402.054	5.38
402.413	5.37
402.773	5.34
403.132	5.32
403.492	5.3
403.851	5.27
404.211	5.26
404.57	5.21
404.929	5.19
405.288	5.16
405.648	5.1
406.007	5.1
406.366	5.06
406.725	5.08
407.084	5.08
407.443	5.07
407.802	5.03
408.161	4.97
408.52	4.93
408.879	4.91
409.238	4.9
409.596	4.87
409.955	4.86
410.314	4.89
410.673	4.86
411.031	4.84
411.39	4.84
411.748	4.83
412.107	4.83
412.465	4.78
412.824	4.75
413.182	4.74
413.54	4.72
413.899	4.72
414.257	4.69
414.615	4.65
414.974	4.66
415.332	4.65
415.69	4.67
416.048	4.67
416.406	4.65
416.764	4.6
417.122	4.59
417.48	4.53
417.838	4.54
418.195	4.51
418.553	4.49
418.911	4.48
419.269	4.46
419.626	4.42
419.984	4.41
420.342	4.4
420.699	4.36
421.057	4.34
421.414	4.31
421.772	4.29
422.129	4.28
422.486	4.25
422.844	4.23
423.201	4.2
423.558	4.19
423.915	4.18
424.273	4.18
424.63	4.16
424.987	4.17
425.344	4.13
425.701	4.11
426.058	4.11
426.415	4.07
426.772	4.05
427.128	4.05
427.485	4.04
427.842	4.01
428.199	4
428.555	3.99
428.912	4
429.269	3.99
429.625	3.97
429.982	3.95
430.338	3.96
430.695	3.96
431.051	3.94
431.407	3.92
431.764	3.9
432.12	3.89
432.476	3.88
432.832	3.87
433.189	3.86
433.545	3.84
433.901	3.84
434.257	3.82
434.613	3.84
434.969	3.83
435.325	3.83
435.681	3.84
436.036	3.83
436.392	3.83
436.748	3.83
437.104	3.83
437.459	3.83
437.815	3.8
438.171	3.8
438.526	3.81
438.882	3.81
439.237	3.81
439.593	3.8
439.948	3.8
440.304	3.79
440.659	3.79
441.014	3.79
441.369	3.79
441.725	3.79
442.08	3.78
442.435	3.76
442.79	3.75
443.145	3.75
443.5	3.74
443.855	3.73
444.21	3.73
444.565	3.72
444.92	3.73
445.275	3.74
445.629	3.73
445.984	3.71
446.339	3.7
446.693	3.7
447.048	3.69
447.403	3.68
447.757	3.68
448.112	3.66
448.466	3.65
448.82	3.64
449.175	3.64
449.529	3.63
449.883	3.62
450.238	3.61
450.592	3.61
450.946	3.6
451.3	3.58
451.654	3.58
452.008	3.58
452.362	3.58
452.716	3.57
453.07	3.56
453.424	3.55
453.778	3.54
454.132	3.53
454.486	3.53
454.839	3.53
455.193	3.51
455.547	3.51
455.9	3.53
456.254	3.55
456.607	3.55
456.961	3.55
457.314	3.54
457.668	3.56
458.021	3.55
458.375	3.56
458.728	3.57
459.081	3.56
459.434	3.56
459.787	3.56
460.141	3.55
460.494	3.55
460.847	3.56
461.2	3.56
461.553	3.57
461.906	3.58
462.259	3.59
462.611	3.6
462.964	3.62
463.317	3.62
463.67	3.61
464.022	3.62
464.375	3.61
464.728	3.64
465.08	3.63
465.433	3.62
465.785	3.61
466.138	3.62
466.49	3.62
466.843	3.64
467.195	3.64
467.547	3.66
467.899	3.68
468.252	3.67
468.604	3.68
468.956	3.67
469.308	3.7
469.66	3.7
470.012	3.71
470.364	3.7
470.716	3.7
471.068	3.72
471.42	3.72
471.772	3.73
472.123	3.74
472.475	3.75
472.827	3.76
473.178	3.79
473.53	3.79
473.882	3.79
474.233	3.79
474.585	3.77
474.936	3.78
475.288	3.77
475.639	3.78
475.99	3.81
476.342	3.8
476.693	3.78
477.044	3.8
477.395	3.81
477.746	3.81
478.097	3.81
478.448	3.81
478.8	3.79
479.15	3.77
479.501	3.76
479.852	3.75
480.203	3.75
480.554	3.76
480.905	3.77
481.255	3.77
481.606	3.77
481.957	3.78
482.307	3.78
482.658	3.78
483.009	3.78
483.359	3.77
483.709	3.77
484.06	3.77
484.41	3.77
484.761	3.77
485.111	3.77
485.461	3.79
485.811	3.78
486.162	3.79
486.512	3.8
486.862	3.81
487.212	3.81
487.562	3.81
487.912	3.81
488.262	3.8
488.612	3.81
488.961	3.8
489.311	3.8
489.661	3.79
490.011	3.79
490.36	3.79
490.71	3.8
491.06	3.81
491.409	3.81
491.759	3.81
492.108	3.81
492.458	3.82
492.807	3.81
493.157	3.83
493.506	3.83
493.855	3.83
494.204	3.85
494.554	3.86
494.903	3.87
495.252	3.87
495.601	3.9
495.95	3.91
496.299	3.94
496.648	3.96
496.997	3.98
497.346	4.02
497.695	4.06
498.043	4.08
498.392	4.08
498.741	4.12
499.09	4.15
499.438	4.18
499.787	4.21
500.135	4.25
500.484	4.26
500.832	4.3
501.181	4.34
501.529	4.39
501.878	4.44
502.226	4.49
502.574	4.54
502.923	4.57
503.271	4.61
503.619	4.68
503.967	4.74
504.315	4.78
504.663	4.82
505.011	4.88
505.359	4.94
505.707	5.04
506.055	5.08
506.403	5.14
506.751	5.2
507.098	5.26
507.446	5.32
507.794	5.41
508.141	5.46
508.489	5.53
508.837	5.57
509.184	5.64
509.531	5.72
509.879	5.79
510.226	5.87
510.574	5.93
510.921	6
511.268	6.05
511.616	6.13
511.963	6.22
512.31	6.29
512.657	6.37
513.004	6.45
513.351	6.54
513.698	6.64
514.045	6.72
514.392	6.82
514.739	6.92
515.086	7.04
515.432	7.15
515.779	7.25
516.126	7.38
516.473	7.49
516.819	7.6
517.166	7.71
517.512	7.83
517.859	7.93
518.205	8.03
518.552	8.15
518.898	8.26
519.245	8.37
519.591	8.47
519.937	8.56
520.283	8.67
520.629	8.8
520.976	8.93
521.322	9.09
521.668	9.24
522.014	9.4
522.36	9.53
522.706	9.73
523.052	9.93
523.398	10.14
523.743	10.36
524.089	10.59
524.435	10.78
524.781	10.97
525.126	11.17
525.472	11.36
525.817	11.54
526.163	11.71
526.509	11.86
526.854	12.02
527.199	12.17
527.545	12.32
527.89	12.47
528.235	12.62
528.581	12.78
528.926	12.94
529.271	13.1
529.616	13.27
529.961	13.42
530.306	13.6
530.651	13.78
530.996	13.95
531.341	14.15
531.686	14.36
532.031	14.58
532.376	14.8
532.721	15.03
533.065	15.26
533.41	15.49
533.755	15.74
534.099	15.99
534.444	16.28
534.788	16.53
535.133	16.78
535.477	17.03
535.822	17.28
536.166	17.59
536.51	17.94
536.855	18.25
537.199	18.59
537.543	18.95
537.887	19.29
538.231	19.66
538.576	19.99
538.92	20.33
539.264	20.64
539.608	20.96
539.951	21.27
540.295	21.54
540.639	21.81
540.983	22.09
541.327	22.37
541.671	22.62
542.014	22.9
542.358	23.17
542.701	23.45
543.045	23.73
543.389	23.97
543.732	24.19
544.075	24.49
544.419	24.77
544.762	25.03
545.105	25.31
545.449	25.62
545.792	25.96
546.135	26.3
546.478	26.67
546.821	27.05
547.165	27.4
547.508	27.79
547.851	28.16
548.194	28.53
548.536	28.9
548.879	29.29
549.222	29.62
549.565	29.97
549.908	30.34
550.25	30.71
550.593	31.09
550.936	31.46
551.278	31.8
551.621	32.2
551.963	32.59
552.306	32.96
552.648	33.29
552.991	33.62
553.333	33.94
553.675	34.3
554.017	34.59
554.36	34.85
554.702	35.14
555.044	35.46
555.386	35.76
555.728	36.07
556.07	36.39
556.412	36.72
556.754	37.02
557.096	37.32
557.438	37.64
557.78	37.95
558.121	38.3
558.463	38.56
558.805	38.78
559.147	39.05
559.488	39.33
559.83	39.59
560.171	39.88
560.513	40.2
560.854	40.44
561.196	40.69
561.537	40.99
561.878	41.29
562.22	41.59
562.561	41.78
562.902	42.02
563.243	42.23
563.584	42.45
563.925	42.7
564.266	42.97
564.607	43.23
564.948	43.43
565.289	43.64
565.63	43.88
565.971	44.14
566.312	44.33
566.653	44.6
566.993	44.81
567.334	45.01
567.675	45.21
568.015	45.35
568.356	45.6
568.696	45.81
569.037	45.97
569.377	46.19
569.718	46.45
570.058	46.67
570.398	46.85
570.739	47.07
571.079	47.26
571.419	47.43
571.759	47.56
572.099	47.77
572.439	47.97
572.779	48.13
573.119	48.3
573.459	48.49
573.799	48.59
574.139	48.71
574.479	48.89
574.819	48.99
575.158	49.18
575.498	49.29
575.838	49.39
576.177	49.55
576.517	49.66
576.856	49.77
577.196	49.89
577.535	50.04
577.875	50.22
578.214	50.34
578.553	50.45
578.893	50.62
579.232	50.71
579.571	50.85
579.91	50.98
580.25	51.13
580.589	51.2
580.928	51.39
581.267	51.57
581.606	51.64
581.945	51.78
582.283	51.91
582.622	52.08
582.961	52.24
583.3	52.37
583.639	52.53
583.977	52.73
584.316	52.82
584.654	52.97
584.993	53.05
585.332	53.24
585.67	53.37
586.008	53.49
586.347	53.62
586.685	53.62
587.024	53.71
587.362	53.81
587.7	54
588.038	54.07
588.376	54.19
588.715	54.31
589.053	54.45
589.391	54.61
589.729	54.72
590.067	54.86
590.404	54.94
590.742	55.06
591.08	55.11
591.418	55.21
591.756	55.32
592.093	55.44
592.431	55.54
592.769	55.62
593.106	55.72
593.444	55.76
593.781	55.93
594.119	56.03
594.456	56.07
594.793	56.13
595.131	56.16
595.468	56.3
595.805	56.37
596.143	56.41
596.48	56.45
596.817	56.47
597.154	56.55
597.491	56.67
597.828	56.65
598.165	56.64
598.502	56.82
598.839	56.87
599.176	56.92
599.512	56.96
599.849	57.12
600.186	57.15
600.523	57.27
600.859	57.31
601.196	57.41
601.532	57.44
601.869	57.5
602.205	57.52
602.542	57.53
602.878	57.55
603.215	57.66
603.551	57.67
603.887	57.76
604.223	57.76
604.56	57.83
604.896	57.88
605.232	58.04
605.568	57.99
605.904	58.01
606.24	58.01
606.576	58.02
606.912	57.95
607.248	58
607.583	58.04
607.919	58.14
608.255	58.17
608.591	58.32
608.926	58.36
609.262	58.44
609.597	58.42
609.933	58.47
610.268	58.45
610.604	58.53
610.939	58.56
611.275	58.66
611.61	58.58
611.945	58.65
612.281	58.58
612.616	58.71
612.951	58.76
613.286	58.84
613.621	58.9
613.956	58.97
614.291	58.99
614.626	59.06
614.961	59.11
615.296	59.1
615.631	59.07
615.966	59.13
616.3	59.28
616.635	59.47
616.97	59.6
617.304	59.65
617.639	59.78
617.973	59.87
618.308	59.89
618.642	60.12
618.977	60.17
619.311	60.35
619.646	60.33
619.98	60.37
620.314	60.51
620.648	60.58
620.983	60.61
621.317	60.6
621.651	60.64
621.985	60.64
622.319	60.72
622.653	60.74
622.987	60.78
623.321	60.81
623.655	60.81
623.988	60.84
624.322	60.9
624.656	60.81
624.99	60.76
625.323	60.75
625.657	60.73
625.99	60.78
626.324	60.7
626.657	60.77
626.991	60.92
627.324	60.86
627.658	60.91
627.991	61.01
628.324	61.13
628.657	61.16
628.991	61.3
629.324	61.34
629.657	61.38
629.99	61.39
630.323	61.4
630.656	61.4
630.989	61.34
631.322	61.51
631.655	61.55
631.987	61.6
632.32	61.72
632.653	61.77
632.986	61.75
633.318	61.83
633.651	61.77
633.984	61.78
634.316	61.8
634.649	61.8
634.981	61.8
635.313	61.8
635.646	61.78
635.978	61.75
636.31	61.75
636.643	61.75
636.975	61.74
637.307	61.78
637.639	61.83
637.971	61.91
638.303	61.74
638.635	61.75
638.967	61.79
639.299	61.81
639.631	61.73
639.963	61.83
640.295	61.9
640.626	61.97
640.958	61.8
641.29	61.83
641.621	61.85
641.953	61.88
642.285	61.86
642.616	61.91
642.948	61.84
643.279	61.92
643.61	61.93
643.942	61.97
644.273	61.95
644.604	61.95
644.936	62.02
645.267	62.03
645.598	62.07
645.929	62.03
646.26	62.06
646.591	62.18
646.922	62.17
647.253	62.13
647.584	62.18
647.915	62.37
648.245	62.5
648.576	62.54
648.907	62.56
649.238	62.69
649.568	62.73
649.899	62.68
650.229	62.74
650.56	62.84
650.89	63.01
651.221	63.03
651.551	63
651.882	62.89
652.212	62.91
652.542	62.99
652.872	63.11
653.203	63.07
653.533	63.03
653.863	63.06
654.193	63.19
654.523	63.28
654.853	63.24
655.183	63.2
655.513	63.29
655.843	63.32
656.172	63.43
656.502	63.45
656.832	63.54
657.162	63.46
657.491	63.42
657.821	63.25
658.15	63.33
658.48	63.41
658.809	63.6
659.139	63.65
659.468	63.62
659.798	63.55
660.127	63.52
660.456	63.53
660.785	63.49
661.115	63.43
661.444	63.48
661.773	63.48
662.102	63.42
662.431	63.37
662.76	63.32
663.089	63.17
663.418	63.2
663.747	63.28
664.076	63.39
664.404	63.49
664.733	63.6
665.062	63.51
665.39	63.5
665.719	63.53
666.048	63.56
666.376	63.69
666.705	63.78
667.033	63.82
667.362	63.93
667.69	63.97
668.018	63.91
668.347	63.76
668.675	63.63
669.003	63.65
669.331	63.65
669.659	63.76
669.987	63.78
670.315	63.74
670.643	63.56
670.971	63.52
671.299	63.53
671.627	63.44
671.955	63.37
672.283	63.35
672.61	63.21
672.938	63.27
673.266	63.18
673.593	63.22
673.921	63.16
674.249	63.14
674.576	63.24
674.904	63.3
675.231	63.38
675.558	63.53
675.886	63.71
676.213	63.7
676.54	63.71
676.867	63.77
677.195	63.88
677.522	63.9
677.849	63.99
678.176	64
678.503	64.11
678.83	64.17
679.157	64.19
679.484	64.25
679.81	64.26
680.137	64.26
680.464	64.27
680.791	64.35
681.117	64.43
681.444	64.34
681.771	64.34
682.097	64.36
682.424	64.47
682.75	64.46
683.077	64.57
683.403	64.57
683.729	64.55
684.056	64.47
684.382	64.57
684.708	64.5
685.034	64.46
685.36	64.45
685.686	64.63
686.012	64.72
686.339	64.67
686.664	64.67
686.99	64.81
687.316	64.84
687.642	64.96
687.968	65.01
688.294	65.21
688.619	65.23
688.945	65.11
689.271	65.05
689.596	64.94
689.922	64.87
690.247	64.93
690.573	64.94
690.898	64.97
691.224	65.13
691.549	65.1
691.874	65.11
692.2	65.09
692.525	65.08
692.85	65.11
693.175	65.14
693.5	65.02
693.825	65.06
694.15	65.13
694.475	65.06
694.8	64.84
695.125	64.74
695.45	64.7
695.775	64.86
696.099	64.93
696.424	64.88
696.749	64.87
697.073	64.96
697.398	64.99
697.723	65.09
698.047	65.02
698.372	65.07
698.696	65.04
699.02	65.02
699.345	65.03
699.669	65.02
699.993	65.07
700.318	65.1
700.642	65.07
700.966	64.98
701.29	64.99
701.614	65.1
701.938	65.11
702.262	65.19
702.586	65.25
702.91	65.26
703.234	65.38
703.557	65.45
703.881	65.34
704.205	65.21
704.529	65.18
704.852	65.27
705.176	65.28
705.499	65.43
705.823	65.47
706.146	65.24
706.47	65.1
706.793	65.09
707.117	65.21
707.44	65.31
707.763	65.44
708.086	65.49
708.409	65.26
708.733	65.34
709.056	65.46
709.379	65.43
709.702	65.55
710.025	65.55
710.348	65.65
710.671	65.59
710.993	65.92
711.316	65.86
711.639	65.69
711.962	65.74
712.284	65.71
712.607	65.71
712.93	65.8
713.252	65.82
713.575	65.68
713.897	65.87
714.22	65.78
714.542	65.63
714.864	65.4
715.187	65.59
715.509	65.49
715.831	65.3
716.153	65.08
716.475	64.81
716.798	64.81
717.12	64.58
717.442	64.59
717.764	64.42
718.085	64.59
718.407	64.71
718.729	64.74
719.051	64.82
719.373	64.81
719.695	64.96
720.016	65.13
720.338	65.38
720.659	65.31
720.981	65.37
721.302	65.75
721.624	66.02
721.945	66.02
722.267	66.09
722.588	66
722.909	66.25
723.231	66.47
723.552	66.18
723.873	66.4
724.194	66.34
724.515	66.46
724.836	66.38
725.157	66.29
725.478	66.12
725.799	66.14
726.12	66.34
726.441	66.41
726.762	66.4
727.083	66.36
727.403	65.83
727.724	65.5
728.045	65.22
728.365	65.51
728.686	65.33
729.006	65.28
729.327	65.3
729.647	65.14
729.967	65.07
730.288	65.27
730.608	65.33
730.928	65.46
731.249	65.32
731.569	65.29
731.889	65.09
732.209	65.27
732.529	65.31
732.849	65.39
733.169	65.15
733.489	65.1
733.809	64.85
734.129	65.23
734.448	65.41
734.768	65.46
735.088	65.14
735.408	65.34
735.727	65.34
736.047	65.35
736.366	65.46
736.686	65.47
737.005	65.55
737.325	65.48
737.644	65.47
737.963	65.52
738.283	65.65
738.602	65.87
738.921	65.73
739.24	65.61
739.56	65.33
739.879	65.16
740.198	65.25
740.517	65.63
740.836	65.58
741.155	65.59
741.473	65.45
741.792	65.45
742.111	65.39
742.43	65.52
742.748	65.76
743.067	65.54
743.386	65.54
743.704	65.71
744.023	65.76
744.341	65.62
744.66	65.6
744.978	65.23
745.297	65.46
745.615	65.55
745.933	65.71
746.252	65.76
746.57	66.19
746.888	65.85
747.206	65.7
747.524	65.67
747.842	65.52
748.16	65.51
748.478	65.57
748.796	65.54
749.114	65.38
749.432	65.56
749.749	65.64
750.067	65.33
750.385	65.22
750.703	65.39
751.02	65.6
751.338	65.6
751.655	65.82
751.973	65.51
752.29	65.61
752.608	65.61
752.925	65.81
753.242	65.82
753.56	66.02
753.877	66.25
754.194	66.32
754.511	66.65
754.828	66.96
755.145	66.7
755.462	66.72
755.779	66.86
756.096	67.06
756.413	67.08
756.73	67.38
757.047	67.29
757.364	67.16
757.68	66.89
757.997	67.2
758.314	67.01
758.63	67.24
758.947	67.15
759.264	67.1
759.58	66.92
759.896	66.84
760.213	66.59
760.529	66.68
760.846	66.57
761.162	66.53
761.478	66.19
761.794	66.38
762.11	66.47
762.426	66.43
762.743	66.41
763.059	66.62
763.375	66.56
763.69	66.77
764.006	66.44
764.322	66.86
764.638	66.49
764.954	66.49
765.27	66.5
765.585	66.67
765.901	66.66
766.216	66.82
766.532	67
766.848	66.93
767.163	66.56
767.478	67.01
767.794	66.98
768.109	67.19
768.424	67.12
768.74	67
769.055	67.15
769.37	66.83
769.685	66.77
770	67.07
770.315	67.07
770.63	67.46
770.945	67.03
771.26	67.25
771.575	67.49
771.89	67.63
772.205	67.06
772.52	66.84
772.834	66.84
773.149	66.63
773.464	67.37
773.778	67.68
774.093	66.9
774.407	66.53
774.722	66.3
775.036	66.13
775.351	66.4
775.665	66.04
775.979	66.25
776.293	66.45
776.608	66.27
776.922	66.41
777.236	66.59
777.55	66.78
777.864	66.61
778.178	66.95
778.492	66.92
778.806	67.3
779.12	67.34
779.434	67.3
779.747	67.65
780.061	67.3
780.375	67.28
780.689	67.4
781.002	67.89
781.316	68.21
781.629	68.71
781.943	68.77
782.256	69.07
782.57	68.99
782.883	68.97
783.196	68.64
783.51	68.67
783.823	68.99
784.136	69
784.449	69.13
784.762	69.02
785.075	68.89
785.388	69.01
785.701	69.12
786.014	69.03
786.327	68.74
786.64	68.91
786.953	68.71
787.266	68.63
787.578	68.76
787.891	68.96
788.204	69.22
788.516	69.12
788.829	69.63
789.141	69.64
789.454	69.61
789.766	69.78
790.079	69.14
790.391	68.63
790.703	68.74
791.016	69.16
791.328	69.23
791.64	68.96
791.952	69.15
792.264	68.91
792.576	69.01
792.888	69.21
793.2	69.45
793.512	69.58
793.824	70.53
794.136	70.07
794.448	69.45
794.76	68.78
795.071	68.34
795.383	67.9
795.695	68.08
796.006	68.24
796.318	68.86
796.629	69.25
796.941	69.51
797.252	69.19
797.564	68.95
797.875	68.65
798.186	69.57
798.497	69.1
798.809	69.59
799.12	69.48
799.431	69.57
799.742	69.92
800.053	70.75
800.364	70.12
800.675	70.4
800.986	70.97
801.297	70.93
801.608	71.87
801.918	71.67
802.229	71.96
802.54	71.95
802.851	71.16
803.161	70.74
803.472	70.32
803.782	70.42
804.093	70.56
804.403	70.58
804.714	70.42
805.024	71.02
805.334	71.91
805.645	72.17
805.955	71.55
806.265	70.39
806.575	68.76
806.885	68.79
807.195	68.94
807.505	68.48
807.815	68.87
808.125	68.47
808.435	68.78
808.745	68.36
809.055	68.61
809.365	68.77
809.674	69.68
809.984	70.32
810.294	70.17
810.603	70.38
810.913	70.73
811.222	70.65
811.532	70.16
811.841	69.42
812.151	69.24
812.46	69.99
812.769	71.23
813.079	73.05
813.388	72.43
813.697	72.92
814.006	73.16
814.315	73.19
814.624	73.47
814.933	73
815.242	73.58
815.551	72.68
815.86	73.05
816.169	72.78
816.478	72.39
816.786	72.91
817.095	72.84
817.404	73.13
817.712	73.1
818.021	72.88
818.33	72.62
818.638	71.7
818.947	70.93
819.255	70.34
819.563	69.37
819.872	69.72
820.18	69.45
820.488	69.24
820.796	69.32
821.105	69.06
821.413	69.09
821.721	68.72
822.029	68.85
822.337	68.6
822.645	68.47
822.953	68.74
823.26	68.67
823.568	68.52
823.876	68.28
824.184	68.23
824.491	68.41
824.799	68.44
825.107	68.48
825.414	68.46
825.722	68.53
826.029	68.79
826.337	68.89
826.644	68.78
826.951	68.88
827.259	68.73
827.566	68.74
827.873	68.81
828.18	68.89
828.488	69.08
828.795	69.46
829.102	69.61
829.409	69.15
829.716	69.28
830.023	69.24
830.329	69.46
830.636	69.29
830.943	69.37
831.25	69.14
831.557	69.47
831.863	70.14
832.17	70.05
832.476	69.8
832.783	69.55
833.089	69.68
833.396	69.75
833.702	69.83
834.009	69.79
834.315	69.13
834.621	69.48
834.928	68.76
835.234	68.95
835.54	68.85
835.846	68.72
836.152	68.62
836.458	68.9
836.764	68.89
837.07	69.28
837.376	68.82
837.682	69.38
837.988	69.1
838.293	68.02
838.599	67.77
838.905	67.79
839.211	68.35
839.516	68.94
839.822	69.33
840.127	69.75
840.433	69.7
840.738	70.85
841.044	70.72
841.349	71.54
841.654	70.68
841.959	70.73
842.265	72.46
842.57	72.31
842.875	72.59
843.18	73.61
843.485	73.17
843.79	73.86
844.095	73.37
844.4	73.83
844.705	73.96
845.01	74.71
845.315	74.25
845.619	72.95
845.924	72.45
846.229	71.69
846.533	69.57
846.838	70.76
847.142	71.51
847.447	70.8
847.751	72.35
848.056	71.88
848.36	74.23
848.664	73.04
848.969	73.72
849.273	75.27
849.577	73.33
849.881	70.53
850.185	73.63
850.489	73.24
850.794	73.91
851.097	76.08
851.401	75.82
851.705	79.58
852.009	80.04
852.313	79.36
852.617	79.95
852.92	84.07
853.224	81.38
853.528	82.94
853.831	83.41
854.135	82.14
854.438	85.58
854.742	83.76
855.045	81.49
855.349	79.68
855.652	74.96
855.955	75.92
856.259	79.94
856.562	77.58
856.865	79.01
857.168	80.67
857.471	78.58
857.774	77.38
858.077	74.83
858.38	77.61
858.683	80.16
858.986	80.17
859.289	78.76
859.592	82.31
859.894	79.36
860.197	79.69
860.5	79.46
860.802	79.21
861.105	79.34
861.407	80.39
861.71	82.41
862.012	85.35
862.315	83.07
862.617	82.05
862.919	81.87
863.222	80.15
863.524	78.82
863.826	79.64
864.128	78.71
864.43	77.94
864.732	76.38
865.034	72.42
865.336	73.09
865.638	74.42
865.94	71.4
866.242	74
866.544	74.91
866.846	74
867.147	71.72
867.449	69.15
867.751	73.15
868.052	74.48
868.354	72.12
868.655	75.46
868.957	77.12
869.258	76.81
869.56	75.67
869.861	74.6
870.162	74.43
870.463	76.92
870.765	79.69
871.066	76.5
871.367	76.81
871.668	76.52
871.969	74.3
872.27	74.09
872.571	72.68
872.872	72.11
873.173	71.98
873.473	72.97
873.774	73.51
874.075	69.63
874.376	66.79
874.676	69.06
874.977	68.53
875.277	68.25
875.578	68.78
875.878	69.98
876.179	70.49
876.479	70.76
876.78	70.06
877.08	66.9
877.38	69.32
877.68	70.73
877.981	69.87
878.281	70.96
878.581	74.85
