Data from BA57965_Reflection_00003.txt Node
Date: Mon Nov 18 15:15:56 EST 2019
User: vgr7
Spectrometer: USB2G7710
Scans to average: 3
Trigger mode: 4
Integration Time (sec): 2.000000E-2
Electric dark correction enabled: true
Boxcar width: 10
XAxis mode: Wavelengths
Number of Pixels in Spectrum: 2048
>>>>>Begin Spectral Data<<<<<
177.721	-92.36
178.105	-107.72
178.488	-177.37
178.871	-163.49
179.254	-220.17
179.636	-28.43
180.019	-26.61
180.402	63.16
180.785	-1.88
181.168	-60.35
181.55	-323.65
181.933	82.82
182.316	145.03
182.698	443.1
183.081	977.42
183.463	-957.32
183.846	-200.18
184.228	-200.75
184.611	-270.19
184.993	-180.09
185.376	-104.2
185.758	-100.1
186.14	-89.85
186.522	-95.41
186.904	-77.68
187.287	-81.46
187.669	-51.39
188.051	-60.71
188.433	-64.33
188.815	-36.43
189.197	-44.52
189.579	-41.66
189.961	-22.8
190.342	-14.65
190.724	-2.44
191.106	-8.82
191.488	-13.51
191.869	-6.84
192.251	3.08
192.633	4.39
193.014	16.57
193.396	-1.92
193.777	-6.15
194.159	-1.37
194.54	10.91
194.922	6.61
195.303	4.39
195.684	10.41
196.065	33.9
196.447	33.08
196.828	6.04
197.209	9.54
197.59	-0.21
197.971	-2.87
198.352	-0.65
198.733	-14.93
199.114	-14.31
199.495	4.17
199.876	-6.79
200.257	-4.88
200.638	1.61
201.018	-4.59
201.399	10.65
201.78	11.25
202.16	2.74
202.541	-10.46
202.922	-16.25
203.302	-20.13
203.683	-14.62
204.063	-30.62
204.444	-23.06
204.824	-16.55
205.204	-15.22
205.585	-12.66
205.965	-19.01
206.345	-23.01
206.725	-21.02
207.106	-13.25
207.486	-39.03
207.866	-30.5
208.246	-38.54
208.626	-45.6
209.006	-30.72
209.386	-39.24
209.766	-22.19
210.145	-12.52
210.525	-2.81
210.905	2.84
211.285	9.84
211.664	11.35
212.044	14.97
212.424	9.08
212.803	9.42
213.183	6.38
213.562	5.84
213.942	12.5
214.321	7.55
214.701	6.99
215.08	-0.52
215.459	6.25
215.838	3.81
216.218	4.48
216.597	12.41
216.976	12.67
217.355	12.3
217.734	-0.43
218.113	-1.43
218.492	-9.42
218.871	-14.37
219.25	-14.58
219.629	-15.99
220.008	-13.15
220.387	-14.25
220.766	-18.66
221.144	-19.67
221.523	-17.32
221.902	-15.6
222.28	-16.7
222.659	-9.62
223.037	-6.75
223.416	-17.21
223.794	-11.02
224.173	-9.09
224.551	-13.26
224.929	-19.83
225.308	-15.4
225.686	-14.97
226.064	-13.73
226.442	-8.66
226.821	-5.08
227.199	-5.06
227.577	-5.24
227.955	-8.22
228.333	-6.37
228.711	-1.95
229.089	-0.19
229.467	-0.63
229.845	-2.79
230.222	-2.78
230.6	-4.5
230.978	-1.79
231.356	0.83
231.733	1.24
232.111	1.15
232.488	3.35
232.866	6.51
233.243	6.33
233.621	6.85
233.998	8.03
234.376	6.12
234.753	5.83
235.13	6.44
235.508	6.96
235.885	8.29
236.262	6.52
236.639	5.91
237.016	5.51
237.393	5.66
237.77	5.9
238.147	6.85
238.524	6.25
238.901	5.66
239.278	5.72
239.655	6.27
240.032	6.24
240.409	5.28
240.785	4.63
241.162	4.28
241.539	4.93
241.915	5.38
242.292	5.31
242.668	5.16
243.045	4.92
243.421	4.89
243.798	4.87
244.174	4.87
244.551	4.64
244.927	4.82
245.303	4.92
245.679	4.93
246.056	4.76
246.432	4.95
246.808	4.63
247.184	4.25
247.56	3.82
247.936	3.83
248.312	4.12
248.688	4.32
249.064	4.29
249.44	4.27
249.815	3.97
250.191	4.24
250.567	4.15
250.943	4.3
251.318	4.23
251.694	4.08
252.069	4.14
252.445	4.19
252.82	4.19
253.196	3.93
253.571	3.92
253.947	3.92
254.322	3.59
254.697	3.67
255.073	3.68
255.448	3.57
255.823	3.33
256.198	3.39
256.573	3.06
256.948	3.28
257.323	3.34
257.698	3.5
258.073	3.19
258.448	3.44
258.823	3.31
259.198	3.18
259.573	3.34
259.948	3.34
260.322	3.18
260.697	3.04
261.072	2.99
261.446	3.1
261.821	3.1
262.195	3.26
262.57	3.39
262.944	3.44
263.319	3.64
263.693	3.77
264.067	3.67
264.442	3.78
264.816	3.77
265.19	3.69
265.564	3.75
265.938	3.93
266.313	3.59
266.687	3.54
267.061	3.66
267.435	3.43
267.809	3.2
268.183	3.58
268.556	3.49
268.93	3.77
269.304	3.58
269.678	3.7
270.051	3.65
270.425	3.67
270.799	3.65
271.172	3.59
271.546	3.62
271.919	3.56
272.293	3.57
272.666	3.58
273.04	3.48
273.413	3.4
273.787	3.33
274.16	3.49
274.533	3.51
274.906	3.38
275.279	3.54
275.653	3.76
276.026	3.71
276.399	3.73
276.772	3.57
277.145	3.65
277.518	3.65
277.891	3.69
278.263	3.71
278.636	3.83
279.009	3.87
279.382	3.87
279.755	4.04
280.127	4.08
280.5	4.14
280.872	4.38
281.245	4.22
281.617	4.35
281.99	4.43
282.362	4.61
282.735	4.63
283.107	4.55
283.479	4.66
283.852	4.45
284.224	4.42
284.596	4.48
284.968	4.45
285.34	4.46
285.713	4.4
286.085	4.48
286.457	4.48
286.829	4.54
287.201	4.55
287.572	4.47
287.944	4.44
288.316	4.42
288.688	4.28
289.06	4.37
289.431	4.39
289.803	4.26
290.175	4.18
290.546	4.26
290.918	4.33
291.289	4.31
291.661	4.41
292.032	4.5
292.403	4.59
292.775	4.63
293.146	4.43
293.517	4.5
293.889	4.38
294.26	4.34
294.631	4.38
295.002	4.43
295.373	4.44
295.744	4.45
296.115	4.44
296.486	4.44
296.857	4.49
297.228	4.56
297.599	4.73
297.97	4.81
298.34	4.95
298.711	5.01
299.082	4.97
299.452	5.06
299.823	5.14
300.194	5.04
300.564	5.04
300.935	5.11
301.305	5.16
301.676	5.3
302.046	5.36
302.416	5.38
302.787	5.39
303.157	5.45
303.527	5.55
303.897	5.54
304.267	5.71
304.637	5.66
305.008	5.68
305.378	5.73
305.748	5.71
306.117	5.52
306.487	5.36
306.857	5.39
307.227	5.32
307.597	5.3
307.967	5.37
308.336	5.39
308.706	5.4
309.076	5.35
309.445	5.38
309.815	5.38
310.184	5.24
310.554	5.26
310.923	5.26
311.293	5.22
311.662	5.3
312.031	5.22
312.401	5.33
312.77	5.25
313.139	5.24
313.508	5.29
313.877	5.29
314.246	5.38
314.616	5.4
314.985	5.36
315.353	5.3
315.722	5.26
316.091	5.24
316.46	5.2
316.829	5.22
317.198	5.13
317.567	5.07
317.935	5.06
318.304	4.97
318.672	4.94
319.041	4.98
319.41	4.95
319.778	4.84
320.147	4.75
320.515	4.76
320.883	4.45
321.252	4.37
321.62	4.34
321.988	4.29
322.357	4.17
322.725	4.29
323.093	4.36
323.461	4.39
323.829	4.44
324.197	4.48
324.565	4.47
324.933	4.46
325.301	4.56
325.669	4.71
326.037	4.71
326.405	4.68
326.772	4.73
327.14	4.69
327.508	4.79
327.875	4.7
328.243	4.68
328.61	4.8
328.978	4.71
329.346	4.92
329.713	4.82
330.08	4.9
330.448	4.78
330.815	4.65
331.182	4.72
331.55	4.74
331.917	4.79
332.284	4.91
332.651	4.93
333.018	4.9
333.385	4.81
333.752	4.88
334.119	4.91
334.486	4.76
334.853	4.77
335.22	4.71
335.587	4.82
335.954	4.79
336.32	4.8
336.687	4.97
337.054	4.83
337.42	4.94
337.787	5.02
338.153	5.07
338.52	5.16
338.886	5
339.253	4.92
339.619	4.84
339.986	4.74
340.352	4.81
340.718	4.71
341.084	4.7
341.451	4.76
341.817	4.81
342.183	4.85
342.549	4.77
342.915	4.91
343.281	4.81
343.647	4.81
344.013	4.74
344.379	4.6
344.745	4.65
345.11	4.7
345.476	4.64
345.842	4.73
346.208	4.75
346.573	4.94
346.939	5
347.304	5.03
347.67	5
348.035	5.01
348.401	5.03
348.766	5.02
349.132	5.01
349.497	5
349.862	5.03
350.228	5.11
350.593	5.12
350.958	5.21
351.323	5.28
351.688	5.39
352.053	5.45
352.418	5.54
352.783	5.55
353.148	5.51
353.513	5.49
353.878	5.47
354.243	5.41
354.608	5.38
354.972	5.49
355.337	5.55
355.702	5.49
356.066	5.51
356.431	5.44
356.795	5.38
357.16	5.29
357.524	5.21
357.889	5.15
358.253	5.07
358.618	5.1
358.982	5.07
359.346	5.07
359.71	5.07
360.075	5.06
360.439	5.07
360.803	5.04
361.167	5.01
361.531	4.98
361.895	4.87
362.259	4.84
362.623	4.78
362.987	4.73
363.351	4.81
363.714	4.8
364.078	4.87
364.442	4.8
364.806	4.85
365.169	4.93
365.533	4.99
365.896	4.98
366.26	4.92
366.623	4.94
366.987	4.94
367.35	4.9
367.714	4.83
368.077	4.74
368.44	4.78
368.803	4.82
369.167	4.86
369.53	4.92
369.893	4.96
370.256	4.96
370.619	5.01
370.982	4.89
371.345	4.96
371.708	4.94
372.071	4.96
372.434	4.9
372.797	4.91
373.159	4.81
373.522	4.89
373.885	4.92
374.247	4.99
374.61	4.97
374.973	4.96
375.335	4.93
375.698	4.97
376.06	4.94
376.423	4.92
376.785	4.98
377.147	4.96
377.51	4.94
377.872	4.97
378.234	4.91
378.596	4.95
378.958	4.93
379.321	4.96
379.683	5.01
380.045	5.02
380.407	5.01
380.769	5.1
381.13	5.05
381.492	4.99
381.854	4.93
382.216	4.9
382.578	4.94
382.939	4.93
383.301	4.94
383.663	4.94
384.024	4.92
384.386	4.89
384.747	4.93
385.109	4.91
385.47	4.88
385.832	4.9
386.193	4.87
386.554	4.84
386.916	4.85
387.277	4.83
387.638	4.86
387.999	4.82
388.36	4.76
388.721	4.79
389.082	4.79
389.443	4.76
389.804	4.79
390.165	4.81
390.526	4.85
390.887	4.8
391.248	4.84
391.609	4.81
391.969	4.81
392.33	4.8
392.691	4.82
393.051	4.82
393.412	4.82
393.772	4.8
394.133	4.84
394.493	4.86
394.854	4.86
395.214	4.86
395.574	4.86
395.935	4.87
396.295	4.86
396.655	4.88
397.015	4.91
397.376	4.92
397.736	4.9
398.096	4.91
398.456	4.95
398.816	4.93
399.176	4.94
399.535	4.96
399.895	4.94
400.255	4.95
400.615	4.96
400.975	4.96
401.334	4.99
401.694	4.99
402.054	4.94
402.413	4.94
402.773	4.92
403.132	4.92
403.492	4.94
403.851	4.94
404.211	4.99
404.57	4.97
404.929	4.97
405.288	4.96
405.648	4.95
406.007	4.91
406.366	4.92
406.725	4.96
407.084	4.91
407.443	4.9
407.802	4.89
408.161	4.9
408.52	4.91
408.879	4.91
409.238	4.91
409.596	4.91
409.955	4.93
410.314	4.92
410.673	4.92
411.031	4.95
411.39	4.95
411.748	4.91
412.107	4.93
412.465	4.92
412.824	4.93
413.182	4.9
413.54	4.92
413.899	4.94
414.257	4.92
414.615	4.93
414.974	4.94
415.332	4.91
415.69	4.89
416.048	4.88
416.406	4.87
416.764	4.83
417.122	4.84
417.48	4.82
417.838	4.84
418.195	4.85
418.553	4.83
418.911	4.83
419.269	4.84
419.626	4.84
419.984	4.82
420.342	4.84
420.699	4.84
421.057	4.83
421.414	4.82
421.772	4.82
422.129	4.83
422.486	4.83
422.844	4.84
423.201	4.83
423.558	4.84
423.915	4.84
424.273	4.85
424.63	4.84
424.987	4.85
425.344	4.85
425.701	4.84
426.058	4.84
426.415	4.82
426.772	4.81
427.128	4.79
427.485	4.8
427.842	4.78
428.199	4.8
428.555	4.81
428.912	4.81
429.269	4.81
429.625	4.8
429.982	4.77
430.338	4.77
430.695	4.79
431.051	4.78
431.407	4.78
431.764	4.78
432.12	4.79
432.476	4.79
432.832	4.77
433.189	4.79
433.545	4.79
433.901	4.8
434.257	4.8
434.613	4.8
434.969	4.81
435.325	4.82
435.681	4.83
436.036	4.83
436.392	4.83
436.748	4.8
437.104	4.79
437.459	4.78
437.815	4.79
438.171	4.77
438.526	4.8
438.882	4.81
439.237	4.81
439.593	4.82
439.948	4.82
440.304	4.84
440.659	4.82
441.014	4.81
441.369	4.8
441.725	4.79
442.08	4.79
442.435	4.78
442.79	4.77
443.145	4.75
443.5	4.74
443.855	4.75
444.21	4.77
444.565	4.8
444.92	4.81
445.275	4.8
445.629	4.81
445.984	4.79
446.339	4.79
446.693	4.78
447.048	4.77
447.403	4.75
447.757	4.76
448.112	4.75
448.466	4.76
448.82	4.77
449.175	4.78
449.529	4.78
449.883	4.77
450.238	4.78
450.592	4.8
450.946	4.77
451.3	4.74
451.654	4.73
452.008	4.72
452.362	4.71
452.716	4.71
453.07	4.73
453.424	4.74
453.778	4.74
454.132	4.72
454.486	4.72
454.839	4.71
455.193	4.69
455.547	4.69
455.9	4.71
456.254	4.7
456.607	4.69
456.961	4.7
457.314	4.7
457.668	4.7
458.021	4.68
458.375	4.71
458.728	4.74
459.081	4.75
459.434	4.76
459.787	4.77
460.141	4.77
460.494	4.74
460.847	4.75
461.2	4.74
461.553	4.75
461.906	4.75
462.259	4.77
462.611	4.77
462.964	4.8
463.317	4.79
463.67	4.8
464.022	4.82
464.375	4.8
464.728	4.8
465.08	4.79
465.433	4.81
465.785	4.79
466.138	4.79
466.49	4.79
466.843	4.78
467.195	4.78
467.547	4.8
467.899	4.83
468.252	4.8
468.604	4.8
468.956	4.81
469.308	4.83
469.66	4.83
470.012	4.86
470.364	4.84
470.716	4.83
471.068	4.82
471.42	4.81
471.772	4.83
472.123	4.85
472.475	4.86
472.827	4.86
473.178	4.87
473.53	4.85
473.882	4.84
474.233	4.84
474.585	4.82
474.936	4.82
475.288	4.8
475.639	4.85
475.99	4.85
476.342	4.83
476.693	4.83
477.044	4.83
477.395	4.81
477.746	4.81
478.097	4.8
478.448	4.81
478.8	4.83
479.15	4.82
479.501	4.83
479.852	4.84
480.203	4.84
480.554	4.85
480.905	4.87
481.255	4.88
481.606	4.89
481.957	4.9
482.307	4.9
482.658	4.9
483.009	4.89
483.359	4.89
483.709	4.89
484.06	4.9
484.41	4.9
484.761	4.9
485.111	4.9
485.461	4.91
485.811	4.92
486.162	4.92
486.512	4.93
486.862	4.93
487.212	4.93
487.562	4.93
487.912	4.94
488.262	4.93
488.612	4.93
488.961	4.93
489.311	4.93
489.661	4.94
490.011	4.95
490.36	4.94
490.71	4.96
491.06	4.97
491.409	4.97
491.759	4.96
492.108	4.98
492.458	4.97
492.807	4.97
493.157	4.98
493.506	5
493.855	4.98
494.204	4.98
494.554	4.97
494.903	4.98
495.252	4.99
495.601	5
495.95	4.99
496.299	5
496.648	5
496.997	5
497.346	5.01
497.695	5.03
498.043	5.02
498.392	5.01
498.741	5.04
499.09	5.04
499.438	5.05
499.787	5.06
500.135	5.09
500.484	5.09
500.832	5.09
501.181	5.11
501.529	5.1
501.878	5.16
502.226	5.16
502.574	5.14
502.923	5.14
503.271	5.14
503.619	5.13
503.967	5.12
504.315	5.1
504.663	5.11
505.011	5.1
505.359	5.11
505.707	5.12
506.055	5.1
506.403	5.13
506.751	5.14
507.098	5.13
507.446	5.11
507.794	5.1
508.141	5.1
508.489	5.09
508.837	5.09
509.184	5.08
509.531	5.09
509.879	5.1
510.226	5.12
510.574	5.14
510.921	5.15
511.268	5.16
511.616	5.18
511.963	5.17
512.31	5.17
512.657	5.17
513.004	5.17
513.351	5.18
513.698	5.17
514.045	5.16
514.392	5.16
514.739	5.17
515.086	5.19
515.432	5.19
515.779	5.21
516.126	5.22
516.473	5.23
516.819	5.23
517.166	5.23
517.512	5.23
517.859	5.23
518.205	5.25
518.552	5.27
518.898	5.26
519.245	5.26
519.591	5.28
519.937	5.28
520.283	5.29
520.629	5.3
520.976	5.33
521.322	5.32
521.668	5.34
522.014	5.34
522.36	5.36
522.706	5.36
523.052	5.38
523.398	5.39
523.743	5.38
524.089	5.39
524.435	5.39
524.781	5.39
525.126	5.38
525.472	5.38
525.817	5.37
526.163	5.38
526.509	5.41
526.854	5.41
527.199	5.43
527.545	5.42
527.89	5.42
528.235	5.42
528.581	5.44
528.926	5.44
529.271	5.45
529.616	5.43
529.961	5.44
530.306	5.44
530.651	5.44
530.996	5.45
531.341	5.45
531.686	5.46
532.031	5.47
532.376	5.48
532.721	5.48
533.065	5.49
533.41	5.49
533.755	5.49
534.099	5.48
534.444	5.48
534.788	5.49
535.133	5.46
535.477	5.47
535.822	5.45
536.166	5.46
536.51	5.45
536.855	5.44
537.199	5.43
537.543	5.42
537.887	5.41
538.231	5.41
538.576	5.42
538.92	5.41
539.264	5.42
539.608	5.42
539.951	5.44
540.295	5.43
540.639	5.44
540.983	5.43
541.327	5.44
541.671	5.45
542.014	5.45
542.358	5.48
542.701	5.48
543.045	5.47
543.389	5.46
543.732	5.49
544.075	5.5
544.419	5.51
544.762	5.51
545.105	5.52
545.449	5.51
545.792	5.53
546.135	5.54
546.478	5.54
546.821	5.54
547.165	5.52
547.508	5.53
547.851	5.52
548.194	5.52
548.536	5.5
548.879	5.52
549.222	5.49
549.565	5.49
549.908	5.51
550.25	5.53
550.593	5.52
550.936	5.5
551.278	5.5
551.621	5.5
551.963	5.49
552.306	5.5
552.648	5.49
552.991	5.48
553.333	5.48
553.675	5.49
554.017	5.48
554.36	5.5
554.702	5.5
555.044	5.48
555.386	5.46
555.728	5.46
556.07	5.41
556.412	5.42
556.754	5.44
557.096	5.42
557.438	5.41
557.78	5.44
558.121	5.47
558.463	5.48
558.805	5.5
559.147	5.54
559.488	5.52
559.83	5.55
560.171	5.54
560.513	5.54
560.854	5.53
561.196	5.53
561.537	5.53
561.878	5.52
562.22	5.54
562.561	5.55
562.902	5.58
563.243	5.62
563.584	5.61
563.925	5.6
564.266	5.58
564.607	5.58
564.948	5.59
565.289	5.54
565.63	5.56
565.971	5.55
566.312	5.52
566.653	5.55
566.993	5.56
567.334	5.53
567.675	5.52
568.015	5.54
568.356	5.54
568.696	5.55
569.037	5.57
569.377	5.59
569.718	5.59
570.058	5.59
570.398	5.58
570.739	5.62
571.079	5.62
571.419	5.64
571.759	5.65
572.099	5.64
572.439	5.68
572.779	5.65
573.119	5.68
573.459	5.72
573.799	5.74
574.139	5.75
574.479	5.78
574.819	5.78
575.158	5.78
575.498	5.77
575.838	5.78
576.177	5.78
576.517	5.77
576.856	5.79
577.196	5.78
577.535	5.79
577.875	5.78
578.214	5.77
578.553	5.79
578.893	5.75
579.232	5.75
579.571	5.75
579.91	5.78
580.25	5.73
580.589	5.71
580.928	5.73
581.267	5.73
581.606	5.75
581.945	5.75
582.283	5.77
582.622	5.77
582.961	5.73
583.3	5.74
583.639	5.76
583.977	5.76
584.316	5.74
584.654	5.77
584.993	5.77
585.332	5.83
585.67	5.85
586.008	5.9
586.347	5.88
586.685	5.87
587.024	5.83
587.362	5.87
587.7	5.87
588.038	5.84
588.376	5.83
588.715	5.83
589.053	5.84
589.391	5.86
589.729	5.89
590.067	5.93
590.404	5.97
590.742	5.97
591.08	5.95
591.418	5.93
591.756	5.91
592.093	5.9
592.431	5.84
592.769	5.84
593.106	5.87
593.444	5.87
593.781	5.87
594.119	5.92
594.456	5.92
594.793	5.9
595.131	5.88
595.468	5.89
595.805	5.91
596.143	5.92
596.48	5.9
596.817	5.92
597.154	5.93
597.491	5.92
597.828	5.93
598.165	5.95
598.502	5.98
598.839	5.97
599.176	5.99
599.512	6.05
599.849	6.03
600.186	6.02
600.523	6.06
600.859	6.07
601.196	6.07
601.532	6.03
601.869	6.07
602.205	6.11
602.542	6.1
602.878	6.05
603.215	6.06
603.551	6.04
603.887	5.98
604.223	5.98
604.56	5.97
604.896	5.98
605.232	5.99
605.568	6
605.904	6
606.24	6.03
606.576	6.01
606.912	6.02
607.248	6.02
607.583	6.01
607.919	5.97
608.255	5.96
608.591	5.98
608.926	5.98
609.262	5.99
609.597	6.02
609.933	6.04
610.268	6.01
610.604	6.05
610.939	6.09
611.275	6.04
611.61	6
611.945	6.01
612.281	6.03
612.616	6.05
612.951	6.06
613.286	6.01
613.621	6
613.956	6.03
614.291	6.02
614.626	6.02
614.961	6.06
615.296	6.05
615.631	6.07
615.966	6.07
616.3	6.02
616.635	6.03
616.97	6.05
617.304	6.05
617.639	6.08
617.973	6.08
618.308	6.08
618.642	6.12
618.977	6.12
619.311	6.1
619.646	6.11
619.98	6.13
620.314	6.15
620.648	6.16
620.983	6.16
621.317	6.14
621.651	6.15
621.985	6.15
622.319	6.19
622.653	6.24
622.987	6.23
623.321	6.25
623.655	6.24
623.988	6.21
624.322	6.24
624.656	6.19
624.99	6.21
625.323	6.24
625.657	6.24
625.99	6.22
626.324	6.22
626.657	6.2
626.991	6.17
627.324	6.17
627.658	6.24
627.991	6.23
628.324	6.25
628.657	6.24
628.991	6.25
629.324	6.27
629.657	6.26
629.99	6.26
630.323	6.28
630.656	6.3
630.989	6.33
631.322	6.35
631.655	6.39
631.987	6.4
632.32	6.42
632.653	6.43
632.986	6.39
633.318	6.38
633.651	6.45
633.984	6.48
634.316	6.47
634.649	6.41
634.981	6.4
635.313	6.43
635.646	6.43
635.978	6.47
636.31	6.44
636.643	6.45
636.975	6.44
637.307	6.43
637.639	6.39
637.971	6.38
638.303	6.35
638.635	6.3
638.967	6.31
639.299	6.28
639.631	6.25
639.963	6.23
640.295	6.26
640.626	6.2
640.958	6.27
641.29	6.32
641.621	6.34
641.953	6.33
642.285	6.3
642.616	6.28
642.948	6.29
643.279	6.29
643.61	6.24
643.942	6.27
644.273	6.24
644.604	6.24
644.936	6.26
645.267	6.32
645.598	6.35
645.929	6.33
646.26	6.38
646.591	6.43
646.922	6.49
647.253	6.45
647.584	6.43
647.915	6.39
648.245	6.36
648.576	6.38
648.907	6.42
649.238	6.43
649.568	6.46
649.899	6.43
650.229	6.43
650.56	6.43
650.89	6.41
651.221	6.49
651.551	6.52
651.882	6.55
652.212	6.5
652.542	6.55
652.872	6.53
653.203	6.55
653.533	6.57
653.863	6.59
654.193	6.63
654.523	6.62
654.853	6.63
655.183	6.64
655.513	6.62
655.843	6.58
656.172	6.6
656.502	6.63
656.832	6.65
657.162	6.68
657.491	6.72
657.821	6.78
658.15	6.76
658.48	6.78
658.809	6.72
659.139	6.73
659.468	6.66
659.798	6.67
660.127	6.67
660.456	6.63
660.785	6.63
661.115	6.61
661.444	6.61
661.773	6.55
662.102	6.59
662.431	6.66
662.76	6.64
663.089	6.56
663.418	6.51
663.747	6.46
664.076	6.4
664.404	6.38
664.733	6.36
665.062	6.34
665.39	6.29
665.719	6.3
666.048	6.32
666.376	6.38
666.705	6.29
667.033	6.24
667.362	6.27
667.69	6.25
668.018	6.2
668.347	6.27
668.675	6.35
669.003	6.34
669.331	6.31
669.659	6.37
669.987	6.41
670.315	6.42
670.643	6.48
670.971	6.56
671.299	6.64
671.627	6.66
671.955	6.61
672.283	6.61
672.61	6.62
672.938	6.63
673.266	6.7
673.593	6.82
673.921	6.85
674.249	6.85
674.576	6.88
674.904	6.91
675.231	6.89
675.558	6.8
675.886	6.74
676.213	6.7
676.54	6.71
676.867	6.77
677.195	6.85
677.522	6.82
677.849	6.83
678.176	6.72
678.503	6.64
678.83	6.66
679.157	6.59
679.484	6.62
679.81	6.62
680.137	6.62
680.464	6.54
680.791	6.6
681.117	6.6
681.444	6.56
681.771	6.58
682.097	6.48
682.424	6.57
682.75	6.63
683.077	6.65
683.403	6.64
683.729	6.63
684.056	6.57
684.382	6.54
684.708	6.5
685.034	6.5
685.36	6.58
685.686	6.53
686.012	6.57
686.339	6.62
686.664	6.62
686.99	6.57
687.316	6.64
687.642	6.61
687.968	6.63
688.294	6.68
688.619	6.72
688.945	6.67
689.271	6.52
689.596	6.46
689.922	6.4
690.247	6.37
690.573	6.32
690.898	6.29
691.224	6.33
691.549	6.36
691.874	6.4
692.2	6.35
692.525	6.5
692.85	6.72
693.175	6.73
693.5	6.69
693.825	6.68
694.15	6.65
694.475	6.67
694.8	6.71
695.125	6.68
695.45	6.64
695.775	6.88
696.099	7.03
696.424	7.12
696.749	7.11
697.073	7.11
697.398	7.21
697.723	7.26
698.047	7.3
698.372	7.3
698.696	7.33
699.02	7.36
699.345	7.31
699.669	7.2
699.993	7.11
700.318	7.13
700.642	7.15
700.966	7.18
701.29	7.2
701.614	7.23
701.938	7.29
702.262	7.41
702.586	7.29
702.91	7.22
703.234	7.17
703.557	7.32
703.881	7.35
704.205	7.27
704.529	7.22
704.852	7.18
705.176	7.21
705.499	7.25
705.823	7.21
706.146	7.29
706.47	7.31
706.793	7.33
707.117	7.32
707.44	7.24
707.763	7.24
708.086	7.26
708.409	7.17
708.733	7.2
709.056	7.11
709.379	7.26
709.702	7.25
710.025	7.33
710.348	7.15
710.671	7.3
710.993	7.25
711.316	7.32
711.639	7.37
711.962	7.33
712.284	7.23
712.607	7.33
712.93	7.32
713.252	7.34
713.575	7.39
713.897	7.46
714.22	7.44
714.542	7.55
714.864	7.45
715.187	7.42
715.509	7.32
715.831	7.43
716.153	7.4
716.475	7.42
716.798	7.5
717.12	7.33
717.442	7.13
717.764	7.19
718.085	7.15
718.407	7.14
718.729	7.16
719.051	7.22
719.373	7.18
719.695	7.06
720.016	7
720.338	7
720.659	6.93
720.981	6.95
721.302	6.82
721.624	6.88
721.945	6.87
722.267	6.95
722.588	6.79
722.909	6.82
723.231	6.89
723.552	6.76
723.873	7.07
724.194	7.32
724.515	7.44
724.836	7.53
725.157	7.64
725.478	7.57
725.799	7.59
726.12	7.49
726.441	7.51
726.762	7.44
727.083	7.46
727.403	7.45
727.724	7.6
728.045	7.75
728.365	7.61
728.686	7.58
729.006	7.56
729.327	7.57
729.647	7.58
729.967	7.6
730.288	7.7
730.608	7.6
730.928	7.43
731.249	7.24
731.569	7.27
731.889	7.14
732.209	7.1
732.529	7.07
732.849	7.32
733.169	7.36
733.489	7.41
733.809	7.3
734.129	7.33
734.448	7.31
734.768	7.21
735.088	7.43
735.408	7.53
735.727	7.68
736.047	7.8
736.366	7.67
736.686	7.6
737.005	7.51
737.325	7.79
737.644	7.74
737.963	8.04
738.283	7.94
738.602	7.95
738.921	8.29
739.24	8.39
739.56	8.12
739.879	8.27
740.198	8.41
740.517	8.4
740.836	8.41
741.155	8.37
741.473	8.58
741.792	8.48
742.111	8.61
742.43	8.58
742.748	8.38
743.067	8.53
743.386	8.63
743.704	8.68
744.023	8.51
744.341	8.78
744.66	8.7
744.978	8.58
745.297	8.57
745.615	8.31
745.933	8.35
746.252	8.46
746.57	8.19
746.888	8.11
747.206	8.27
747.524	8.03
747.842	8.03
748.16	8.1
748.478	8.06
748.796	8.03
749.114	7.98
749.432	7.78
749.749	7.81
750.067	7.83
750.385	7.87
750.703	7.7
751.02	7.74
751.338	7.6
751.655	7.72
751.973	8.11
752.29	8.08
752.608	7.96
752.925	7.9
753.242	7.92
753.56	7.82
753.877	7.7
754.194	8.07
754.511	8.2
754.828	7.9
755.145	8.02
755.462	7.93
755.779	7.93
756.096	8.29
756.413	8.43
756.73	8.42
757.047	8.4
757.364	8.72
757.68	8.5
757.997	8.68
758.314	8.74
758.63	8.56
758.947	8.38
759.264	8.49
759.58	8.74
759.896	8.74
760.213	8.86
760.529	9.08
760.846	9.02
761.162	8.99
761.478	9.05
761.794	8.88
762.11	8.88
762.426	8.93
762.743	8.89
763.059	8.72
763.375	8.64
763.69	8.78
764.006	8.7
764.322	8.9
764.638	8.76
764.954	8.99
765.27	8.66
765.585	8.64
765.901	8.64
766.216	8.4
766.532	8.51
766.848	8.49
767.163	8.5
767.478	8.52
767.794	8.52
768.109	8.31
768.424	8.58
768.74	8.51
769.055	8.51
769.37	8.63
769.685	8.75
770	9.1
770.315	8.69
770.63	8.58
770.945	8.3
771.26	8.37
771.575	8.01
771.89	8.31
772.205	8.68
772.52	8.68
772.834	8.51
773.149	8.63
773.464	8.58
773.778	8.34
774.093	8.19
774.407	8.03
774.722	8.25
775.036	8.16
775.351	8.32
775.665	7.99
775.979	7.65
776.293	7.41
776.608	7.2
776.922	7.62
777.236	7.78
777.55	8.04
777.864	8.34
778.178	8.48
778.492	8.85
778.806	8.4
779.12	8.39
779.434	8.98
779.747	8.83
780.061	8.95
780.375	8.91
780.689	8.94
781.002	9.22
781.316	9.45
781.629	9.6
781.943	10.13
782.256	10.36
782.57	10.67
782.883	10.81
783.196	10.61
783.51	10.41
783.823	10.53
784.136	10.5
784.449	10.33
784.762	10.34
785.075	9.79
785.388	10.29
785.701	10.52
786.014	10.32
786.327	10.24
786.64	10.62
786.953	11.16
787.266	11.01
787.578	10.57
787.891	10.5
788.204	10.17
788.516	9.82
788.829	9.78
789.141	9.55
789.454	9.44
789.766	9.53
790.079	9.55
790.391	9.58
790.703	9.83
791.016	9.86
791.328	9.95
791.64	10.14
791.952	10.36
792.264	9.66
792.576	9.44
792.888	9.47
793.2	9.24
793.512	9.02
793.824	8.87
794.136	9.17
794.448	9.06
794.76	9.32
795.071	9.01
795.383	8.76
795.695	8.73
796.006	8.83
796.318	8.79
796.629	8.94
796.941	8.78
797.252	8.48
797.564	8.1
797.875	8.47
798.186	8.34
798.497	8.06
798.809	8.38
799.12	8.45
799.431	8.57
799.742	8.52
800.053	8.42
800.364	8.94
800.675	9.21
800.986	9.1
801.297	8.97
801.608	9.04
801.918	9.36
802.229	10.15
802.54	10.61
802.851	10.85
803.161	10.86
803.472	10.42
803.782	10.74
804.093	11.15
804.403	10.47
804.714	11.07
805.024	11.02
805.334	10.5
805.645	10.35
805.955	10.14
806.265	10.64
806.575	10.61
806.885	11.11
807.195	11.35
807.505	11.3
807.815	11.73
808.125	12.02
808.435	12.51
808.745	11.77
809.055	12.48
809.365	12.59
809.674	11.75
809.984	12.43
810.294	11.94
810.603	12.07
810.913	11.9
811.222	11.25
811.532	11.95
811.841	13.26
812.151	13.77
812.46	14.47
812.769	13.61
813.079	14.12
813.388	13.22
813.697	12.92
814.006	12.75
814.315	12.09
814.624	11.91
814.933	11.63
815.242	12.08
815.551	10.53
815.86	11.09
816.169	11.88
816.478	12.02
816.786	12.44
817.095	12.23
817.404	12.94
817.712	12.66
818.021	12.2
818.33	11.86
818.638	11.53
818.947	11.58
819.255	11.98
819.563	11.29
819.872	11.44
820.18	11.52
820.488	11.76
820.796	11.84
821.105	11.57
821.413	11.52
821.721	11.46
822.029	11.49
822.337	11.07
822.645	11.01
822.953	10.95
823.26	10.9
823.568	10.85
823.876	10.7
824.184	10.74
824.491	10.58
824.799	10.48
825.107	10.5
825.414	10.34
825.722	10.24
826.029	10.35
826.337	10.32
826.644	10.2
826.951	10.02
827.259	10
827.566	9.96
827.873	9.92
828.18	10.05
828.488	9.91
828.795	9.79
829.102	9.92
829.409	9.79
829.716	9.67
830.023	9.56
830.329	9.71
830.636	9.82
830.943	10.16
831.25	10.05
831.557	9.98
831.863	9.92
832.17	9.79
832.476	9.95
832.783	9.93
833.089	9.89
833.396	9.86
833.702	9.81
834.009	10.01
834.315	10.03
834.621	9.51
834.928	9.56
835.234	9.97
835.54	9.48
835.846	9.39
836.152	9.42
836.458	9.44
836.764	9.24
837.07	9.06
837.376	8.75
837.682	8.38
837.988	8.34
838.293	8.84
838.599	8.88
838.905	8.51
839.211	8.48
839.516	8.65
839.822	9.11
840.127	8.35
840.433	8.44
840.738	8.16
841.044	8.21
841.349	8.67
841.654	8.35
841.959	8.91
842.265	9.02
842.57	9.29
842.875	10.14
843.18	11.02
843.485	11.87
843.79	11.44
844.095	12.28
844.4	13.54
844.705	12.35
845.01	12.34
845.315	12.1
845.619	11.65
845.924	10.87
846.229	10.78
846.533	13.06
846.838	12.76
847.142	13
847.447	11.95
847.751	12.66
848.056	12.49
848.36	11.77
848.664	12.41
848.969	11.51
849.273	9.59
849.577	8.63
849.881	7.28
850.185	8.14
850.489	9.58
850.794	8.3
851.097	7.06
851.401	6.46
851.705	7.11
852.009	8.11
852.313	7.8
852.617	5.53
852.92	5.18
853.224	5.72
853.528	5.32
853.831	5.34
854.135	5.14
854.438	5.51
854.742	7.05
855.045	7.39
855.349	7.66
855.652	9.06
855.955	8.97
856.259	10.04
856.562	11.28
856.865	9.78
857.168	10.27
857.471	11.91
857.774	12.79
858.077	11.94
858.38	11.92
858.683	14.19
858.986	17.32
859.289	16.83
859.592	15.69
859.894	16.36
860.197	15.95
860.5	14.96
860.802	15.05
861.105	15.12
861.407	13.71
861.71	14.93
862.012	13.15
862.315	11.77
862.617	10.9
862.919	9.46
863.222	10.72
863.524	9.93
863.826	10.17
864.128	9.9
864.43	11.73
864.732	11.4
865.034	10.08
865.336	9.82
865.638	8.28
865.94	7.78
866.242	6.49
866.544	8.75
866.846	7.93
867.147	8.55
867.449	8.26
867.751	9.16
868.052	7.76
868.354	8.85
868.655	10.96
868.957	12.52
869.258	14.28
869.56	15.96
869.861	15.88
870.162	14.27
870.463	14.52
870.765	13.9
871.066	12.79
871.367	14.63
871.668	12.54
871.969	12.93
872.27	13.99
872.571	15.46
872.872	14.46
873.173	13.56
873.473	13.6
873.774	12.81
874.075	13.13
874.376	10.83
874.676	11.74
874.977	9.54
875.277	9.14
875.578	7.99
875.878	5.61
876.179	5.7
876.479	7.37
876.78	6.82
877.08	6.17
877.38	6.83
877.68	4.19
877.981	5.14
878.281	4.62
878.581	4.93
