Data from BA58010_Reflection_00004.txt Node
Date: Mon Nov 18 16:06:50 EST 2019
User: vgr7
Spectrometer: USB2G7710
Scans to average: 3
Trigger mode: 4
Integration Time (sec): 2.000000E-2
Electric dark correction enabled: true
Boxcar width: 10
XAxis mode: Wavelengths
Number of Pixels in Spectrum: 2048
>>>>>Begin Spectral Data<<<<<
177.721	-197.51
178.105	223.89
178.488	244.31
178.871	220.11
179.254	-835.48
179.636	-21.16
180.019	-29.15
180.402	-1300
180.785	133.8
181.168	154.62
181.55	78.08
181.933	107.44
182.316	131.07
182.698	89.56
183.081	117.94
183.463	135.99
183.846	171.14
184.228	294.03
184.611	218.21
184.993	336.09
185.376	720.77
185.758	1100
186.14	329.52
186.522	282.75
186.904	225.53
187.287	194.25
187.669	462.26
188.051	242.86
188.433	269.03
188.815	317
189.197	449.89
189.579	1676
189.961	-297.55
190.342	-3288.06
190.724	-266.71
191.106	-377.08
191.488	-183.8
191.869	-170.82
192.251	-205.77
192.633	-100.79
193.014	-117.79
193.396	-393.45
193.777	-1949.18
194.159	2985.71
194.54	2256.63
194.922	-273.88
195.303	-144.2
195.684	-297.26
196.065	-80.55
196.447	-51
196.828	-103.72
197.209	-109.72
197.59	-163.47
197.971	1676
198.352	-303.81
198.733	-625.24
199.114	-412.89
199.495	-2750.75
199.876	1337.62
200.257	-2440.98
200.638	-508.51
201.018	-1307.64
201.399	-1116.56
201.78	-268.22
202.16	-344.26
202.541	-446.62
202.922	2268.14
203.302	760.06
203.683	33281.82
204.063	717.02
204.444	428.59
204.824	346.32
205.204	258.67
205.585	246.36
205.965	438.58
206.345	182.66
206.725	212.11
207.106	185.01
207.486	165.34
207.866	281.59
208.246	192.37
208.626	191.58
209.006	174.18
209.386	214.37
209.766	146.27
210.145	135.95
210.525	104.97
210.905	177.83
211.285	243.57
211.664	250.44
212.044	284.47
212.424	466.57
212.803	942.93
213.183	-294.77
213.562	-437.28
213.942	-119.82
214.321	-43.18
214.701	-64.18
215.08	-107.57
215.459	-68.11
215.838	-81.13
216.218	-72.44
216.597	-94.3
216.976	-103.55
217.355	-79.97
217.734	-68.2
218.113	-45.83
218.492	-59.63
218.871	-60.3
219.25	-47.91
219.629	-69.2
220.008	-65.55
220.387	-63.07
220.766	-70.82
221.144	-74.15
221.523	-82.38
221.902	-101.01
222.28	-107.71
222.659	-117.16
223.037	-80.91
223.416	-71.31
223.794	-71.85
224.173	-61.23
224.551	-45.22
224.929	-41.19
225.308	-32.26
225.686	-27.51
226.064	-28.96
226.442	-23.39
226.821	-21.66
227.199	-22.67
227.577	-16.27
227.955	-15.8
228.333	-11.46
228.711	-9.44
229.089	-6
229.467	-5.33
229.845	-7.34
230.222	-7.84
230.6	-6.14
230.978	-5.29
231.356	-3.72
231.733	-4.53
232.111	-4
232.488	-2.95
232.866	-0.98
233.243	0.64
233.621	-0.39
233.998	1.76
234.376	0.35
234.753	2.19
235.13	3.13
235.508	4.26
235.885	4.04
236.262	2.95
236.639	3.65
237.016	3.86
237.393	5.1
237.77	6.36
238.147	7.35
238.524	6.92
238.901	6.16
239.278	6.36
239.655	7.54
240.032	6.79
240.409	5.93
240.785	5.75
241.162	5.53
241.539	5.6
241.915	5.33
242.292	5.21
242.668	5.03
243.045	5.07
243.421	4.67
243.798	4.45
244.174	4.59
244.551	4.66
244.927	4.72
245.303	4.83
245.679	4.82
246.056	4.67
246.432	4.65
246.808	4.72
247.184	4.27
247.56	4
247.936	4.06
248.312	4.29
248.688	4.3
249.064	4
249.44	3.82
249.815	3.78
250.191	3.99
250.567	3.95
250.943	3.82
251.318	3.74
251.694	3.77
252.069	3.78
252.445	3.65
252.82	3.43
253.196	2.83
253.571	2.45
253.947	2.17
254.322	2.02
254.697	1.92
255.073	2.18
255.448	2.03
255.823	2.11
256.198	2.09
256.573	2.13
256.948	2.38
257.323	2.65
257.698	2.47
258.073	2.64
258.448	2.55
258.823	2.53
259.198	2.6
259.573	2.6
259.948	2.56
260.322	2.56
260.697	2.55
261.072	2.7
261.446	2.98
261.821	3.03
262.195	3.24
262.57	3.28
262.944	3.15
263.319	3.33
263.693	3.37
264.067	3.53
264.442	3.53
264.816	3.57
265.19	3.46
265.564	3.55
265.938	3.3
266.313	3.49
266.687	3.69
267.061	3.73
267.435	3.93
267.809	3.79
268.183	3.75
268.556	3.86
268.93	3.89
269.304	3.66
269.678	3.69
270.051	3.59
270.425	3.65
270.799	3.76
271.172	3.66
271.546	3.7
271.919	3.7
272.293	3.69
272.666	3.68
273.04	3.64
273.413	3.71
273.787	3.84
274.16	3.71
274.533	3.63
274.906	3.62
275.279	3.49
275.653	3.56
276.026	3.66
276.399	3.59
276.772	3.74
277.145	3.65
277.518	3.81
277.891	3.74
278.263	3.65
278.636	3.81
279.009	3.7
279.382	3.79
279.755	3.73
280.127	3.79
280.5	3.82
280.872	4
281.245	3.89
281.617	4.03
281.99	4.11
282.362	4.12
282.735	3.99
283.107	3.97
283.479	3.97
283.852	3.93
284.224	3.89
284.596	3.79
284.968	4.02
285.34	3.99
285.713	3.94
286.085	3.95
286.457	3.85
286.829	3.92
287.201	3.79
287.572	3.69
287.944	3.64
288.316	3.67
288.688	3.5
289.06	3.61
289.431	3.54
289.803	3.49
290.175	3.54
290.546	3.72
290.918	3.75
291.289	3.78
291.661	3.76
292.032	3.9
292.403	3.98
292.775	3.95
293.146	3.86
293.517	3.91
293.889	3.9
294.26	3.99
294.631	3.94
295.002	3.96
295.373	4.02
295.744	3.92
296.115	3.86
296.486	3.97
296.857	3.93
297.228	3.86
297.599	3.9
297.97	3.83
298.34	3.71
298.711	3.79
299.082	3.81
299.452	3.82
299.823	3.85
300.194	3.77
300.564	3.58
300.935	3.55
301.305	3.53
301.676	3.63
302.046	3.59
302.416	3.81
302.787	3.86
303.157	3.87
303.527	3.92
303.897	3.93
304.267	4
304.637	4.12
305.008	4.17
305.378	4.23
305.748	4.39
306.117	4.43
306.487	4.39
306.857	4.34
307.227	4.32
307.597	4.3
307.967	4.32
308.336	4.49
308.706	4.45
309.076	4.44
309.445	4.27
309.815	4.22
310.184	4.07
310.554	4.11
310.923	4.11
311.293	4.22
311.662	4.19
312.031	4.11
312.401	3.98
312.77	4
313.139	4.01
313.508	3.86
313.877	3.81
314.246	3.77
314.616	3.79
314.985	3.82
315.353	3.66
315.722	3.56
316.091	3.41
316.46	3.41
316.829	3.34
317.198	3.45
317.567	3.54
317.935	3.45
318.304	3.29
318.672	3.14
319.041	3.1
319.41	3.16
319.778	3.12
320.147	3.14
320.515	3.12
320.883	2.95
321.252	3.06
321.62	3.15
321.988	3.18
322.357	3.24
322.725	3.18
323.093	3.32
323.461	3.43
323.829	3.47
324.197	3.52
324.565	3.58
324.933	3.57
325.301	3.51
325.669	3.63
326.037	3.72
326.405	3.94
326.772	3.93
327.14	4.03
327.508	3.97
327.875	3.97
328.243	4.09
328.61	4.23
328.978	4.26
329.346	4.2
329.713	4.12
330.08	4.04
330.448	4
330.815	3.86
331.182	3.68
331.55	3.66
331.917	3.52
332.284	3.68
332.651	3.65
333.018	3.65
333.385	3.57
333.752	3.61
334.119	3.46
334.486	3.36
334.853	3.2
335.22	3.24
335.587	3.29
335.954	3.11
336.32	3.08
336.687	3.03
337.054	3.14
337.42	3.16
337.787	3.09
338.153	3.03
338.52	3.01
338.886	3.04
339.253	3.02
339.619	3.08
339.986	3
340.352	2.98
340.718	2.93
341.084	2.93
341.451	2.83
341.817	3.02
342.183	3.07
342.549	3.14
342.915	3.18
343.281	3.22
343.647	3.24
344.013	3.22
344.379	3.12
344.745	3.06
345.11	3.05
345.476	3.18
345.842	3.29
346.208	3.34
346.573	3.38
346.939	3.49
347.304	3.53
347.67	3.44
348.035	3.48
348.401	3.53
348.766	3.62
349.132	3.7
349.497	3.54
349.862	3.64
350.228	3.59
350.593	3.56
350.958	3.48
351.323	3.46
351.688	3.44
352.053	3.5
352.418	3.52
352.783	3.62
353.148	3.51
353.513	3.52
353.878	3.55
354.243	3.6
354.608	3.54
354.972	3.48
355.337	3.54
355.702	3.61
356.066	3.65
356.431	3.54
356.795	3.46
357.16	3.45
357.524	3.36
357.889	3.4
358.253	3.4
358.618	3.39
358.982	3.32
359.346	3.29
359.71	3.28
360.075	3.22
360.439	3.16
360.803	3.18
361.167	3.15
361.531	3.14
361.895	3.2
362.259	3.23
362.623	3.29
362.987	3.25
363.351	3.2
363.714	3.17
364.078	3.21
364.442	3.26
364.806	3.3
365.169	3.26
365.533	3.26
365.896	3.27
366.26	3.29
366.623	3.35
366.987	3.35
367.35	3.38
367.714	3.45
368.077	3.47
368.44	3.52
368.803	3.5
369.167	3.52
369.53	3.44
369.893	3.47
370.256	3.47
370.619	3.49
370.982	3.46
371.345	3.47
371.708	3.45
372.071	3.41
372.434	3.39
372.797	3.46
373.159	3.4
373.522	3.38
373.885	3.44
374.247	3.46
374.61	3.51
374.973	3.45
375.335	3.44
375.698	3.41
376.06	3.4
376.423	3.45
376.785	3.45
377.147	3.47
377.51	3.46
377.872	3.46
378.234	3.46
378.596	3.48
378.958	3.47
379.321	3.47
379.683	3.51
380.045	3.56
380.407	3.59
380.769	3.64
381.13	3.69
381.492	3.63
381.854	3.62
382.216	3.56
382.578	3.61
382.939	3.61
383.301	3.59
383.663	3.56
384.024	3.51
384.386	3.5
384.747	3.47
385.109	3.42
385.47	3.37
385.832	3.38
386.193	3.39
386.554	3.38
386.916	3.35
387.277	3.33
387.638	3.26
387.999	3.23
388.36	3.22
388.721	3.21
389.082	3.21
389.443	3.22
389.804	3.23
390.165	3.19
390.526	3.19
390.887	3.2
391.248	3.22
391.609	3.24
391.969	3.22
392.33	3.23
392.691	3.22
393.051	3.26
393.412	3.27
393.772	3.23
394.133	3.21
394.493	3.22
394.854	3.23
395.214	3.28
395.574	3.27
395.935	3.27
396.295	3.3
396.655	3.26
397.015	3.25
397.376	3.27
397.736	3.28
398.096	3.31
398.456	3.3
398.816	3.28
399.176	3.29
399.535	3.31
399.895	3.35
400.255	3.35
400.615	3.33
400.975	3.33
401.334	3.36
401.694	3.4
402.054	3.4
402.413	3.37
402.773	3.32
403.132	3.3
403.492	3.29
403.851	3.25
404.211	3.27
404.57	3.3
404.929	3.32
405.288	3.37
405.648	3.34
406.007	3.35
406.366	3.37
406.725	3.38
407.084	3.39
407.443	3.36
407.802	3.4
408.161	3.39
408.52	3.4
408.879	3.39
409.238	3.37
409.596	3.39
409.955	3.42
410.314	3.46
410.673	3.47
411.031	3.45
411.39	3.47
411.748	3.48
412.107	3.47
412.465	3.43
412.824	3.38
413.182	3.4
413.54	3.4
413.899	3.39
414.257	3.39
414.615	3.37
414.974	3.38
415.332	3.35
415.69	3.35
416.048	3.31
416.406	3.32
416.764	3.33
417.122	3.35
417.48	3.36
417.838	3.35
418.195	3.34
418.553	3.34
418.911	3.33
419.269	3.33
419.626	3.32
419.984	3.33
420.342	3.35
420.699	3.33
421.057	3.34
421.414	3.34
421.772	3.33
422.129	3.34
422.486	3.33
422.844	3.34
423.201	3.35
423.558	3.34
423.915	3.33
424.273	3.32
424.63	3.3
424.987	3.3
425.344	3.3
425.701	3.31
426.058	3.32
426.415	3.32
426.772	3.3
427.128	3.3
427.485	3.31
427.842	3.3
428.199	3.31
428.555	3.31
428.912	3.3
429.269	3.33
429.625	3.32
429.982	3.31
430.338	3.29
430.695	3.29
431.051	3.3
431.407	3.3
431.764	3.32
432.12	3.32
432.476	3.29
432.832	3.28
433.189	3.28
433.545	3.28
433.901	3.28
434.257	3.28
434.613	3.3
434.969	3.3
435.325	3.3
435.681	3.32
436.036	3.32
436.392	3.32
436.748	3.3
437.104	3.29
437.459	3.29
437.815	3.31
438.171	3.31
438.526	3.32
438.882	3.32
439.237	3.32
439.593	3.33
439.948	3.34
440.304	3.36
440.659	3.36
441.014	3.36
441.369	3.37
441.725	3.37
442.08	3.34
442.435	3.34
442.79	3.34
443.145	3.34
443.5	3.33
443.855	3.34
444.21	3.33
444.565	3.35
444.92	3.35
445.275	3.35
445.629	3.36
445.984	3.36
446.339	3.36
446.693	3.35
447.048	3.35
447.403	3.35
447.757	3.34
448.112	3.33
448.466	3.32
448.82	3.32
449.175	3.32
449.529	3.33
449.883	3.31
450.238	3.3
450.592	3.29
450.946	3.27
451.3	3.27
451.654	3.27
452.008	3.26
452.362	3.25
452.716	3.27
453.07	3.26
453.424	3.26
453.778	3.25
454.132	3.26
454.486	3.25
454.839	3.25
455.193	3.25
455.547	3.25
455.9	3.25
456.254	3.25
456.607	3.26
456.961	3.27
457.314	3.26
457.668	3.27
458.021	3.27
458.375	3.29
458.728	3.29
459.081	3.29
459.434	3.29
459.787	3.29
460.141	3.28
460.494	3.27
460.847	3.28
461.2	3.27
461.553	3.27
461.906	3.28
462.259	3.28
462.611	3.28
462.964	3.29
463.317	3.29
463.67	3.3
464.022	3.29
464.375	3.28
464.728	3.29
465.08	3.31
465.433	3.31
465.785	3.3
466.138	3.3
466.49	3.31
466.843	3.32
467.195	3.33
467.547	3.35
467.899	3.35
468.252	3.34
468.604	3.36
468.956	3.34
469.308	3.34
469.66	3.36
470.012	3.39
470.364	3.39
470.716	3.39
471.068	3.4
471.42	3.4
471.772	3.41
472.123	3.42
472.475	3.42
472.827	3.44
473.178	3.45
473.53	3.42
473.882	3.4
474.233	3.41
474.585	3.41
474.936	3.38
475.288	3.41
475.639	3.42
475.99	3.41
476.342	3.42
476.693	3.41
477.044	3.41
477.395	3.4
477.746	3.38
478.097	3.38
478.448	3.38
478.8	3.4
479.15	3.39
479.501	3.4
479.852	3.4
480.203	3.39
480.554	3.4
480.905	3.42
481.255	3.44
481.606	3.44
481.957	3.44
482.307	3.47
482.658	3.46
483.009	3.45
483.359	3.46
483.709	3.47
484.06	3.48
484.41	3.48
484.761	3.47
485.111	3.48
485.461	3.48
485.811	3.49
486.162	3.47
486.512	3.48
486.862	3.48
487.212	3.48
487.562	3.49
487.912	3.48
488.262	3.48
488.612	3.48
488.961	3.48
489.311	3.47
489.661	3.46
490.011	3.46
490.36	3.46
490.71	3.45
491.06	3.45
491.409	3.45
491.759	3.44
492.108	3.44
492.458	3.43
492.807	3.43
493.157	3.44
493.506	3.45
493.855	3.45
494.204	3.45
494.554	3.46
494.903	3.44
495.252	3.44
495.601	3.44
495.95	3.44
496.299	3.44
496.648	3.44
496.997	3.44
497.346	3.45
497.695	3.46
498.043	3.45
498.392	3.45
498.741	3.44
499.09	3.44
499.438	3.46
499.787	3.47
500.135	3.47
500.484	3.46
500.832	3.47
501.181	3.48
501.529	3.48
501.878	3.5
502.226	3.5
502.574	3.52
502.923	3.51
503.271	3.51
503.619	3.51
503.967	3.53
504.315	3.52
504.663	3.52
505.011	3.54
505.359	3.54
505.707	3.54
506.055	3.56
506.403	3.56
506.751	3.55
507.098	3.54
507.446	3.56
507.794	3.55
508.141	3.54
508.489	3.55
508.837	3.55
509.184	3.56
509.531	3.57
509.879	3.59
510.226	3.6
510.574	3.62
510.921	3.62
511.268	3.61
511.616	3.61
511.963	3.62
512.31	3.62
512.657	3.62
513.004	3.62
513.351	3.64
513.698	3.66
514.045	3.66
514.392	3.67
514.739	3.66
515.086	3.67
515.432	3.69
515.779	3.66
516.126	3.65
516.473	3.67
516.819	3.67
517.166	3.65
517.512	3.64
517.859	3.64
518.205	3.64
518.552	3.66
518.898	3.67
519.245	3.67
519.591	3.65
519.937	3.66
520.283	3.66
520.629	3.66
520.976	3.67
521.322	3.69
521.668	3.69
522.014	3.71
522.36	3.7
522.706	3.7
523.052	3.72
523.398	3.74
523.743	3.74
524.089	3.74
524.435	3.74
524.781	3.75
525.126	3.76
525.472	3.76
525.817	3.76
526.163	3.77
526.509	3.78
526.854	3.79
527.199	3.8
527.545	3.81
527.89	3.8
528.235	3.79
528.581	3.79
528.926	3.79
529.271	3.79
529.616	3.8
529.961	3.79
530.306	3.8
530.651	3.79
530.996	3.79
531.341	3.77
531.686	3.77
532.031	3.77
532.376	3.77
532.721	3.79
533.065	3.78
533.41	3.77
533.755	3.76
534.099	3.77
534.444	3.77
534.788	3.76
535.133	3.76
535.477	3.77
535.822	3.76
536.166	3.77
536.51	3.76
536.855	3.78
537.199	3.8
537.543	3.8
537.887	3.8
538.231	3.79
538.576	3.83
538.92	3.84
539.264	3.83
539.608	3.83
539.951	3.82
540.295	3.83
540.639	3.84
540.983	3.85
541.327	3.84
541.671	3.84
542.014	3.85
542.358	3.87
542.701	3.87
543.045	3.89
543.389	3.88
543.732	3.88
544.075	3.88
544.419	3.87
544.762	3.89
545.105	3.88
545.449	3.88
545.792	3.87
546.135	3.87
546.478	3.88
546.821	3.88
547.165	3.88
547.508	3.88
547.851	3.87
548.194	3.86
548.536	3.85
548.879	3.84
549.222	3.83
549.565	3.81
549.908	3.8
550.25	3.8
550.593	3.81
550.936	3.82
551.278	3.8
551.621	3.79
551.963	3.8
552.306	3.8
552.648	3.78
552.991	3.79
553.333	3.81
553.675	3.81
554.017	3.81
554.36	3.82
554.702	3.82
555.044	3.83
555.386	3.86
555.728	3.88
556.07	3.91
556.412	3.91
556.754	3.89
557.096	3.89
557.438	3.87
557.78	3.86
558.121	3.86
558.463	3.87
558.805	3.88
559.147	3.87
559.488	3.9
559.83	3.93
560.171	3.94
560.513	3.93
560.854	3.91
561.196	3.93
561.537	3.94
561.878	3.97
562.22	3.97
562.561	3.94
562.902	3.94
563.243	3.92
563.584	3.92
563.925	3.96
564.266	3.94
564.607	3.96
564.948	3.97
565.289	3.98
565.63	3.97
565.971	3.96
566.312	3.96
566.653	3.98
566.993	3.95
567.334	3.94
567.675	3.97
568.015	3.99
568.356	3.98
568.696	3.98
569.037	3.98
569.377	3.96
569.718	3.97
570.058	3.98
570.398	3.97
570.739	3.98
571.079	3.97
571.419	3.98
571.759	3.97
572.099	3.95
572.439	3.95
572.779	3.94
573.119	3.95
573.459	3.98
573.799	3.96
574.139	3.97
574.479	3.97
574.819	3.93
575.158	3.91
575.498	3.91
575.838	3.89
576.177	3.87
576.517	3.84
576.856	3.84
577.196	3.82
577.535	3.81
577.875	3.8
578.214	3.8
578.553	3.81
578.893	3.82
579.232	3.83
579.571	3.83
579.91	3.84
580.25	3.81
580.589	3.77
580.928	3.77
581.267	3.79
581.606	3.78
581.945	3.8
582.283	3.82
582.622	3.84
582.961	3.82
583.3	3.82
583.639	3.9
583.977	3.91
584.316	3.9
584.654	3.9
584.993	3.89
585.332	3.91
585.67	3.9
586.008	3.87
586.347	3.87
586.685	3.87
587.024	3.87
587.362	3.9
587.7	3.92
588.038	3.91
588.376	3.91
588.715	3.94
589.053	3.99
589.391	3.97
589.729	3.97
590.067	3.99
590.404	3.99
590.742	3.96
591.08	3.95
591.418	3.96
591.756	3.95
592.093	3.98
592.431	3.97
592.769	3.98
593.106	4.03
593.444	4.03
593.781	4.02
594.119	4.04
594.456	4.04
594.793	4.03
595.131	4.07
595.468	4.08
595.805	4.07
596.143	4.06
596.48	4.08
596.817	4.08
597.154	4.08
597.491	4.08
597.828	4.06
598.165	4.06
598.502	4.03
598.839	4.03
599.176	3.99
599.512	3.99
599.849	3.99
600.186	3.97
600.523	3.99
600.859	4.02
601.196	4.02
601.532	4.04
601.869	4.02
602.205	4
602.542	3.99
602.878	3.95
603.215	3.96
603.551	3.96
603.887	3.96
604.223	3.97
604.56	3.97
604.896	3.99
605.232	4.02
605.568	4.07
605.904	4.1
606.24	4.14
606.576	4.14
606.912	4.14
607.248	4.11
607.583	4.1
607.919	4.08
608.255	4.05
608.591	4.06
608.926	4.08
609.262	4.07
609.597	4.09
609.933	4.1
610.268	4.06
610.604	4.04
610.939	4.04
611.275	4.02
611.61	4.01
611.945	4.01
612.281	3.98
612.616	3.94
612.951	3.97
613.286	3.96
613.621	3.99
613.956	3.98
614.291	4.03
614.626	4.03
614.961	4.04
615.296	4.06
615.631	4.05
615.966	4.06
616.3	4.06
616.635	3.98
616.97	4
617.304	4.02
617.639	4.1
617.973	4.07
618.308	4.11
618.642	4.1
618.977	4.08
619.311	4.11
619.646	4.12
619.98	4.11
620.314	4.14
620.648	4.12
620.983	4.14
621.317	4.11
621.651	4.13
621.985	4.11
622.319	4.12
622.653	4.11
622.987	4.1
623.321	4.06
623.655	4.14
623.988	4.15
624.322	4.14
624.656	4.1
624.99	4.09
625.323	4.09
625.657	4.13
625.99	4.13
626.324	4.11
626.657	4.16
626.991	4.15
627.324	4.09
627.658	4.13
627.991	4.12
628.324	4.14
628.657	4.08
628.991	4.08
629.324	4.09
629.657	4.11
629.99	4.1
630.323	4.1
630.656	4.08
630.989	4.11
631.322	4.14
631.655	4.09
631.987	4.14
632.32	4.14
632.653	4.08
632.986	4.12
633.318	4.15
633.651	4.11
633.984	4.11
634.316	4.12
634.649	4.11
634.981	4.06
635.313	4.05
635.646	4.07
635.978	4.06
636.31	4.07
636.643	4.06
636.975	4.11
637.307	4.16
637.639	4.17
637.971	4.17
638.303	4.15
638.635	4.17
638.967	4.13
639.299	4.16
639.631	4.23
639.963	4.15
640.295	4.15
640.626	4.15
640.958	4.18
641.29	4.21
641.621	4.17
641.953	4.24
642.285	4.26
642.616	4.25
642.948	4.29
643.279	4.24
643.61	4.25
643.942	4.19
644.273	4.18
644.604	4.21
644.936	4.14
645.267	4.16
645.598	4.23
645.929	4.24
646.26	4.2
646.591	4.18
646.922	4.16
647.253	4.18
647.584	4.22
647.915	4.17
648.245	4.21
648.576	4.19
648.907	4.16
649.238	4.17
649.568	4.17
649.899	4.09
650.229	4.14
650.56	4.11
650.89	4.13
651.221	4.17
651.551	4.11
651.882	4.1
652.212	4.14
652.542	4.11
652.872	4.11
653.203	4.09
653.533	4.05
653.863	4.13
654.193	4.06
654.523	4.01
654.853	3.98
655.183	4.02
655.513	4.05
655.843	4.04
656.172	3.98
656.502	4.02
656.832	4.07
657.162	4.06
657.491	4.06
657.821	4.09
658.15	4.04
658.48	4.05
658.809	4.07
659.139	4.04
659.468	4.03
659.798	4.01
660.127	4.05
660.456	4.06
660.785	4.05
661.115	4.05
661.444	4.08
661.773	4.11
662.102	4.07
662.431	4.03
662.76	4.11
663.089	4.12
663.418	4.13
663.747	4.13
664.076	4.15
664.404	4.13
664.733	4.17
665.062	4.2
665.39	4.27
665.719	4.24
666.048	4.27
666.376	4.26
666.705	4.28
667.033	4.24
667.362	4.37
667.69	4.32
668.018	4.38
668.347	4.38
668.675	4.45
669.003	4.5
669.331	4.57
669.659	4.54
669.987	4.54
670.315	4.58
670.643	4.55
670.971	4.53
671.299	4.55
671.627	4.51
671.955	4.46
672.283	4.47
672.61	4.51
672.938	4.43
673.266	4.44
673.593	4.48
673.921	4.44
674.249	4.41
674.576	4.43
674.904	4.42
675.231	4.41
675.558	4.34
675.886	4.25
676.213	4.24
676.54	4.26
676.867	4.31
677.195	4.27
677.522	4.3
677.849	4.31
678.176	4.4
678.503	4.34
678.83	4.42
679.157	4.37
679.484	4.39
679.81	4.48
680.137	4.47
680.464	4.41
680.791	4.47
681.117	4.46
681.444	4.46
681.771	4.45
682.097	4.46
682.424	4.42
682.75	4.5
683.077	4.43
683.403	4.44
683.729	4.39
684.056	4.42
684.382	4.44
684.708	4.37
685.034	4.32
685.36	4.39
685.686	4.34
686.012	4.32
686.339	4.44
686.664	4.4
686.99	4.46
687.316	4.5
687.642	4.51
687.968	4.46
688.294	4.57
688.619	4.61
688.945	4.55
689.271	4.49
689.596	4.37
689.922	4.4
690.247	4.34
690.573	4.37
690.898	4.31
691.224	4.25
691.549	4.43
691.874	4.44
692.2	4.43
692.525	4.42
692.85	4.46
693.175	4.36
693.5	4.28
693.825	4.26
694.15	4.25
694.475	4.19
694.8	4.2
695.125	4.12
695.45	4.06
695.775	4.17
696.099	4.24
696.424	4.26
696.749	4.3
697.073	4.24
697.398	4.21
697.723	4.35
698.047	4.36
698.372	4.26
698.696	4.25
699.02	4.16
699.345	4.1
699.669	4.09
699.993	4.07
700.318	4.1
700.642	4.11
700.966	4.12
701.29	4.19
701.614	4.1
701.938	4.09
702.262	4.14
702.586	4.08
702.91	4.02
703.234	4.03
703.557	4.06
703.881	4.11
704.205	4.16
704.529	3.97
704.852	4
705.176	4
705.499	4.02
705.823	4.13
706.146	4.17
706.47	4.18
706.793	4.19
707.117	4.22
707.44	4.12
707.763	4.04
708.086	3.93
708.409	4.06
708.733	4.21
709.056	4.2
709.379	4.37
709.702	4.43
710.025	4.45
710.348	4.35
710.671	4.39
710.993	4.36
711.316	4.5
711.639	4.53
711.962	4.58
712.284	4.62
712.607	4.65
712.93	4.84
713.252	4.78
713.575	4.76
713.897	4.76
714.22	4.8
714.542	4.88
714.864	4.92
715.187	4.83
715.509	4.75
715.831	4.86
716.153	4.73
716.475	4.85
716.798	4.93
717.12	5.01
717.442	5.03
717.764	5.02
718.085	4.9
718.407	4.85
718.729	4.86
719.051	4.82
719.373	4.7
719.695	4.55
720.016	4.56
720.338	4.71
720.659	4.74
720.981	4.86
721.302	4.87
721.624	4.96
721.945	5
722.267	4.9
722.588	4.73
722.909	4.66
723.231	4.36
723.552	4.27
723.873	4.15
724.194	4.1
724.515	4.24
724.836	4.2
725.157	4.29
725.478	4.18
725.799	4.13
726.12	4.1
726.441	4.12
726.762	4.18
727.083	4.01
727.403	4.01
727.724	4.12
728.045	4.11
728.365	4.06
728.686	4.04
729.006	4.05
729.327	4.09
729.647	4.29
729.967	4.45
730.288	4.54
730.608	4.58
730.928	4.52
731.249	4.38
731.569	4.5
731.889	4.42
732.209	4.41
732.529	4.4
732.849	4.63
733.169	4.56
733.489	4.59
733.809	4.42
734.129	4.36
734.448	4.23
734.768	4.18
735.088	4.22
735.408	4.43
735.727	4.54
736.047	4.66
736.366	4.41
736.686	4.43
737.005	4.42
737.325	4.49
737.644	4.57
737.963	4.71
738.283	4.69
738.602	4.59
738.921	4.73
739.24	4.85
739.56	4.75
739.879	4.78
740.198	4.87
740.517	5.06
740.836	5.1
741.155	5.17
741.473	5.26
741.792	5.29
742.111	5.06
742.43	4.93
742.748	4.84
743.067	5.03
743.386	5.08
743.704	4.83
744.023	4.74
744.341	4.73
744.66	4.64
744.978	4.6
745.297	4.84
745.615	4.84
745.933	4.65
746.252	4.68
746.57	4.74
746.888	4.61
747.206	4.6
747.524	4.71
747.842	4.69
748.16	4.81
748.478	5.05
748.796	5.27
749.114	5.38
749.432	5.34
749.749	5.5
750.067	5.53
750.385	5.82
750.703	5.96
751.02	6
751.338	6.02
751.655	6.13
751.973	6.26
752.29	6.25
752.608	6.24
752.925	6.31
753.242	6.34
753.56	6.26
753.877	6.04
754.194	6.01
754.511	5.93
754.828	5.57
755.145	5.2
755.462	4.91
755.779	5.17
756.096	5.26
756.413	5.12
756.73	5.12
757.047	5.08
757.364	5.02
757.68	5.01
757.997	5.13
758.314	4.94
758.63	4.93
758.947	4.93
759.264	5.16
759.58	5
759.896	5.16
760.213	5.12
760.529	5.38
760.846	5.32
761.162	5.37
761.478	5.59
761.794	5.43
762.11	5.52
762.426	5.47
762.743	5.54
763.059	5.41
763.375	5.34
763.69	5.45
764.006	5.53
764.322	5.53
764.638	5.51
764.954	5.72
765.27	5.42
765.585	5.47
765.901	5.51
766.216	5.58
766.532	5.26
766.848	5.34
767.163	5.37
767.478	5.34
767.794	5.53
768.109	5.3
768.424	5.57
768.74	5.52
769.055	5.43
769.37	5.33
769.685	5.29
770	5.27
770.315	5.18
770.63	5.2
770.945	5.23
771.26	5.2
771.575	5
771.89	5.39
772.205	5.37
772.52	5.23
772.834	4.92
773.149	5.15
773.464	5.1
773.778	4.97
774.093	4.92
774.407	4.65
774.722	4.86
775.036	5
775.351	5.23
775.665	5.14
775.979	5.04
776.293	5.18
776.608	5.33
776.922	5.33
777.236	5.18
777.55	5.41
777.864	5.41
778.178	5.6
778.492	5.37
778.806	5.22
779.12	5.36
779.434	5.71
779.747	5.85
780.061	6.28
780.375	6.41
780.689	6.71
781.002	7.11
781.316	7.5
781.629	7.67
781.943	7.69
782.256	7.61
782.57	7.69
782.883	8.02
783.196	7.91
783.51	7.53
783.823	7.25
784.136	7.02
784.449	7.19
784.762	7.15
785.075	7.28
785.388	7.44
785.701	7.33
786.014	7.11
786.327	6.76
786.64	6.66
786.953	6.85
787.266	6.75
787.578	6.2
787.891	5.88
788.204	5.2
788.516	5.14
788.829	5.42
789.141	5.55
789.454	5.37
789.766	5.25
790.079	5.6
790.391	5.76
790.703	5.98
791.016	5.7
791.328	5.89
791.64	5.87
791.952	6.18
792.264	6.02
792.576	6.09
792.888	6.42
793.2	5.98
793.512	5.83
793.824	5.86
794.136	5.73
794.448	6.08
794.76	6.45
795.071	6.46
795.383	5.87
795.695	5.21
796.006	5.05
796.318	5.12
796.629	4.8
796.941	5.19
797.252	5.05
797.564	5.29
797.875	5.18
798.186	5.24
798.497	5.09
798.809	5.3
799.12	5.12
799.431	4.99
799.742	5.24
800.053	5.48
800.364	5.27
800.675	5.33
800.986	5
801.297	4.8
801.608	4.61
801.918	5.04
802.229	5.67
802.54	5.88
802.851	6.14
803.161	6.52
803.472	6.18
803.782	6.58
804.093	6.26
804.403	5.77
804.714	5.45
805.024	4.66
805.334	4.87
805.645	5.18
805.955	5.28
806.265	5.32
806.575	4.93
806.885	5
807.195	5.49
807.505	4.99
807.815	4.95
808.125	4.89
808.435	4.85
808.745	5.07
809.055	5.33
809.365	5.36
809.674	5.29
809.984	5.51
810.294	4.59
810.603	4.79
810.913	5.56
811.222	6.06
811.532	6.4
811.841	6.69
812.151	7.21
812.46	6.93
812.769	6.55
813.079	6.6
813.388	6.95
813.697	6.76
814.006	7.13
814.315	7.56
814.624	7.83
814.933	7.81
815.242	7.92
815.551	7.71
815.86	7.62
816.169	7.59
816.478	7.55
816.786	7.86
817.095	7.76
817.404	7.47
817.712	7.25
818.021	7.59
818.33	7.23
818.638	6.41
818.947	6.93
819.255	7.08
819.563	7.14
819.872	7.19
820.18	7.36
820.488	7.46
820.796	7.4
821.105	7.47
821.413	7.51
821.721	7.38
822.029	7.36
822.337	7.42
822.645	7.42
822.953	7.41
823.26	7.44
823.568	7.53
823.876	7.43
824.184	7.49
824.491	7.4
824.799	7.32
825.107	7.45
825.414	7.42
825.722	7.59
826.029	7.71
826.337	7.72
826.644	7.68
826.951	7.57
827.259	7.63
827.566	7.58
827.873	7.54
828.18	7.44
828.488	7.44
828.795	7.32
829.102	7.3
829.409	7.53
829.716	7.5
830.023	7.39
830.329	7.47
830.636	7.49
830.943	7.77
831.25	7.73
831.557	7.44
831.863	7.33
832.17	6.91
832.476	6.68
832.783	6.73
833.089	6.52
833.396	6.94
833.702	6.92
834.009	6.64
834.315	6.85
834.621	7.03
834.928	6.91
835.234	7.02
835.54	6.85
835.846	6.29
836.152	6.11
836.458	6.44
836.764	6.11
837.07	5.68
837.376	5.21
837.682	5.32
837.988	5.53
838.293	5.51
838.599	5.68
838.905	5.53
839.211	4.84
839.516	5
839.822	4.16
840.127	3.39
840.433	3.77
840.738	3.71
841.044	3.4
841.349	3.85
841.654	4.04
841.959	4.51
842.265	5.3
842.57	6.61
842.875	6.05
843.18	6.78
843.485	7.38
843.79	7.85
844.095	6.7
844.4	7.97
844.705	7.25
845.01	7.17
845.315	6.89
845.619	6.93
845.924	6.32
846.229	7.68
846.533	8.72
846.838	8.25
847.142	7.05
847.447	6.82
847.751	6.63
848.056	5.12
848.36	3.83
848.664	3.12
848.969	0.94
849.273	0.47
849.577	0.13
849.881	0.04
850.185	0.68
850.489	3.33
850.794	-0.59
851.097	0.63
851.401	1.16
851.705	1.48
852.009	1.66
852.313	1.85
852.617	1.39
852.92	2.26
853.224	2.1
853.528	2.4
853.831	2.9
854.135	3.26
854.438	2.96
854.742	4
855.045	4.05
855.349	5.56
855.652	6.76
855.955	8.18
856.259	7.62
856.562	6.83
856.865	4.96
857.168	6.61
857.471	5.59
857.774	5.89
858.077	6.14
858.38	5.61
858.683	5.92
858.986	6.34
859.289	5.33
859.592	7.05
859.894	7.33
860.197	4.8
860.5	3.77
860.802	5.18
861.105	4.99
861.407	6.03
861.71	4.65
862.012	2.18
862.315	0.81
862.617	0.49
862.919	0.59
863.222	2.19
863.524	2.82
863.826	4.22
864.128	3.06
864.43	2.02
864.732	4.75
865.034	3.52
865.336	2.67
865.638	2.22
865.94	0.74
866.242	-0.58
866.544	2.91
866.846	3.15
867.147	2.56
867.449	2.78
867.751	0.37
868.052	1.62
868.354	2
868.655	3.15
868.957	3.08
869.258	3.76
869.56	2.62
869.861	1.32
870.162	-1.11
870.463	-1.66
870.765	-0.44
871.066	-2.78
871.367	-1.48
871.668	-1.37
871.969	-0.87
872.27	-2.42
872.571	-1.19
872.872	-0.27
873.173	-1.05
873.473	-1.18
873.774	0.92
874.075	3.43
874.376	0.53
874.676	4.07
874.977	1.79
875.277	7.46
875.578	7.64
875.878	8.48
876.179	10.47
876.479	13.5
876.78	15.38
877.08	15.83
877.38	17.87
877.68	19
877.981	19.44
878.281	20.05
878.581	24.43
