Data from BA58010_Reflection_00011.txt Node
Date: Mon Nov 18 16:07:14 EST 2019
User: vgr7
Spectrometer: USB2G7710
Scans to average: 3
Trigger mode: 4
Integration Time (sec): 2.000000E-2
Electric dark correction enabled: true
Boxcar width: 10
XAxis mode: Wavelengths
Number of Pixels in Spectrum: 2048
>>>>>Begin Spectral Data<<<<<
177.721	-151.64
178.105	100
178.488	262.99
178.871	-109.5
179.254	-867.74
179.636	140.96
180.019	-276.38
180.402	-750
180.785	-412.92
181.168	-234.03
181.55	-163.07
181.933	36.98
182.316	63.24
182.698	61.6
183.081	84.25
183.463	54.38
183.846	79.51
184.228	89.46
184.611	61.66
184.993	85.17
185.376	330.25
185.758	389.39
186.14	75.73
186.522	161.29
186.904	34.29
187.287	49.96
187.669	34.92
188.051	85.59
188.433	1.85
188.815	127.31
189.197	167.72
189.579	724
189.961	-110.16
190.342	-1153.73
190.724	-42.68
191.106	-62.99
191.488	-28.92
191.869	27.24
192.251	-17.52
192.633	-10.6
193.014	4.22
193.396	-4.8
193.777	-391.8
194.159	2157.14
194.54	-189.16
194.922	24.87
195.303	-58.53
195.684	-240.51
196.065	-28.22
196.447	-82.76
196.828	-118.44
197.209	-191.63
197.59	-217.34
197.971	1972
198.352	-430.33
198.733	-800.96
199.114	-725.21
199.495	-3929.85
199.876	2654.46
200.257	-3539.34
200.638	-870.21
201.018	-1352.23
201.399	-1696.18
201.78	-505.61
202.16	-452.5
202.541	-634.92
202.922	3816.81
203.302	1170.82
203.683	29009.09
204.063	767.76
204.444	392.98
204.824	364.97
205.204	254.98
205.585	286.43
205.965	591.34
206.345	258.01
206.725	374.44
207.106	279.1
207.486	216.05
207.866	341.58
208.246	319.47
208.626	287.4
209.006	306.53
209.386	262.25
209.766	201.69
210.145	167.56
210.525	137.96
210.905	154.94
211.285	199.59
211.664	327.56
212.044	449.51
212.424	645.45
212.803	1010.99
213.183	-296.15
213.562	-313
213.942	-136.34
214.321	-63.79
214.701	-79.1
215.08	-66.56
215.459	-62.49
215.838	-64.24
216.218	-2.76
216.597	14.52
216.976	15.77
217.355	5.84
217.734	-0.76
218.113	-8.59
218.492	-13.16
218.871	-13.95
219.25	4.96
219.629	1.18
220.008	2.87
220.387	-2.99
220.766	-5.24
221.144	-8.51
221.523	-21.3
221.902	-24.02
222.28	-43.22
222.659	-22.75
223.037	-13.81
223.416	-23.3
223.794	-31.36
224.173	-32.85
224.551	-27.71
224.929	-24.18
225.308	-21.18
225.686	-13.23
226.064	-10.45
226.442	-11.92
226.821	-15.7
227.199	-19.3
227.577	-19.96
227.955	-16.97
228.333	-16.2
228.711	-13.59
229.089	-9.57
229.467	-8.15
229.845	-7.65
230.222	-5.62
230.6	-8.35
230.978	-8.42
231.356	-7.86
231.733	-5.65
232.111	-6.3
232.488	-6.34
232.866	-6
233.243	-4.51
233.621	-6.7
233.998	-7.35
234.376	-8.46
234.753	-5.09
235.13	-3.03
235.508	-0.88
235.885	-1.78
236.262	-2.66
236.639	-3.14
237.016	-1.39
237.393	-0.56
237.77	-0.31
238.147	0.88
238.524	2.16
238.901	2.86
239.278	3.81
239.655	3.9
240.032	4.4
240.409	4.4
240.785	4.69
241.162	4.44
241.539	4.87
241.915	5.27
242.292	4.94
242.668	4.36
243.045	4.19
243.421	3.86
243.798	4.07
244.174	4.24
244.551	4.17
244.927	3.62
245.303	3.75
245.679	3.99
246.056	3.91
246.432	3.85
246.808	3.79
247.184	3.51
247.56	3.29
247.936	3.21
248.312	3.23
248.688	3.23
249.064	3.23
249.44	3.15
249.815	3.1
250.191	3.35
250.567	3.5
250.943	3.37
251.318	3.52
251.694	3.47
252.069	3.29
252.445	3.49
252.82	3.72
253.196	3.55
253.571	3.32
253.947	3.3
254.322	3.6
254.697	3.28
255.073	3.1
255.448	3.09
255.823	3.1
256.198	3.13
256.573	2.9
256.948	3.08
257.323	3.13
257.698	3.16
258.073	3.06
258.448	2.96
258.823	2.92
259.198	2.84
259.573	2.65
259.948	2.76
260.322	2.74
260.697	2.69
261.072	2.73
261.446	2.76
261.821	2.6
262.195	2.53
262.57	2.48
262.944	2.54
263.319	2.62
263.693	2.55
264.067	2.55
264.442	2.63
264.816	2.53
265.19	2.58
265.564	2.54
265.938	2.55
266.313	2.63
266.687	2.57
267.061	2.65
267.435	3.02
267.809	2.94
268.183	2.87
268.556	2.99
268.93	2.96
269.304	2.97
269.678	3.24
270.051	3.26
270.425	3.44
270.799	3.59
271.172	3.55
271.546	3.53
271.919	3.51
272.293	3.46
272.666	3.42
273.04	3.36
273.413	3.33
273.787	3.29
274.16	3.37
274.533	3.42
274.906	3.29
275.279	3.32
275.653	3.46
276.026	3.4
276.399	3.22
276.772	3.12
277.145	2.97
277.518	2.95
277.891	2.85
278.263	2.86
278.636	2.77
279.009	3
279.382	3.33
279.755	3.38
280.127	3.48
280.5	3.59
280.872	3.6
281.245	3.58
281.617	3.82
281.99	3.72
282.362	3.8
282.735	3.81
283.107	3.68
283.479	3.71
283.852	3.74
284.224	3.74
284.596	3.68
284.968	3.85
285.34	3.89
285.713	3.93
286.085	4.02
286.457	4.1
286.829	4.04
287.201	3.82
287.572	3.76
287.944	3.76
288.316	3.81
288.688	3.8
289.06	3.8
289.431	3.66
289.803	3.72
290.175	3.68
290.546	3.82
290.918	3.8
291.289	3.7
291.661	3.77
292.032	3.89
292.403	3.95
292.775	3.98
293.146	3.91
293.517	3.87
293.889	3.66
294.26	3.61
294.631	3.52
295.002	3.52
295.373	3.55
295.744	3.49
296.115	3.41
296.486	3.32
296.857	3.26
297.228	3.27
297.599	3.17
297.97	3.21
298.34	3.27
298.711	3.43
299.082	3.43
299.452	3.38
299.823	3.49
300.194	3.56
300.564	3.59
300.935	3.56
301.305	3.44
301.676	3.59
302.046	3.51
302.416	3.57
302.787	3.67
303.157	3.73
303.527	3.76
303.897	3.82
304.267	4.09
304.637	4.25
305.008	4.25
305.378	4.29
305.748	4.33
306.117	4.34
306.487	4.14
306.857	4.21
307.227	4.28
307.597	4.09
307.967	4.09
308.336	4.06
308.706	4.09
309.076	4.22
309.445	4.26
309.815	4.36
310.184	4.42
310.554	4.32
310.923	4.26
311.293	4.26
311.662	4.28
312.031	4.09
312.401	4.1
312.77	4.22
313.139	4.36
313.508	4.27
313.877	4.23
314.246	4.33
314.616	4.36
314.985	4.31
315.353	4.28
315.722	4.31
316.091	4.24
316.46	4.08
316.829	4.17
317.198	4.19
317.567	4.23
317.935	4.31
318.304	4.37
318.672	4.44
319.041	4.64
319.41	4.57
319.778	4.77
320.147	4.84
320.515	4.7
320.883	4.6
321.252	4.69
321.62	4.77
321.988	4.77
322.357	4.8
322.725	4.88
323.093	5.07
323.461	5.11
323.829	5.07
324.197	5.35
324.565	5.34
324.933	5.23
325.301	5.27
325.669	5.23
326.037	5.31
326.405	5.38
326.772	5.44
327.14	5.62
327.508	5.52
327.875	5.5
328.243	5.72
328.61	5.87
328.978	5.92
329.346	6.05
329.713	6.07
330.08	6.19
330.448	6.16
330.815	6.14
331.182	6.24
331.55	6.4
331.917	6.37
332.284	6.42
332.651	6.51
333.018	6.53
333.385	6.55
333.752	6.58
334.119	6.61
334.486	6.41
334.853	6.25
335.22	6.27
335.587	6.41
335.954	6.32
336.32	6.21
336.687	6.23
337.054	6.13
337.42	6.18
337.787	6.17
338.153	6.31
338.52	6.4
338.886	6.34
339.253	6.29
339.619	6.38
339.986	6.38
340.352	6.39
340.718	6.46
341.084	6.51
341.451	6.59
341.817	6.74
342.183	6.83
342.549	6.89
342.915	6.89
343.281	6.82
343.647	6.8
344.013	6.79
344.379	6.77
344.745	6.84
345.11	6.87
345.476	6.88
345.842	6.81
346.208	6.81
346.573	6.81
346.939	6.97
347.304	6.92
347.67	6.9
348.035	6.92
348.401	6.9
348.766	6.93
349.132	6.91
349.497	6.75
349.862	6.82
350.228	6.86
350.593	6.89
350.958	6.87
351.323	6.89
351.688	6.97
352.053	7.08
352.418	7.09
352.783	7.16
353.148	7.04
353.513	7.13
353.878	7.2
354.243	7.28
354.608	7.18
354.972	7.24
355.337	7.29
355.702	7.37
356.066	7.41
356.431	7.36
356.795	7.27
357.16	7.27
357.524	7.22
357.889	7.15
358.253	7.19
358.618	7.26
358.982	7.22
359.346	7.17
359.71	7.1
360.075	7.08
360.439	7.04
360.803	7.13
361.167	7.05
361.531	7
361.895	6.92
362.259	6.87
362.623	6.88
362.987	6.85
363.351	6.81
363.714	6.79
364.078	6.75
364.442	6.8
364.806	6.78
365.169	6.75
365.533	6.76
365.896	6.7
366.26	6.6
366.623	6.6
366.987	6.6
367.35	6.59
367.714	6.53
368.077	6.48
368.44	6.41
368.803	6.38
369.167	6.3
369.53	6.27
369.893	6.32
370.256	6.22
370.619	6.18
370.982	6.06
371.345	5.98
371.708	5.98
372.071	5.91
372.434	5.83
372.797	5.77
373.159	5.72
373.522	5.7
373.885	5.67
374.247	5.66
374.61	5.64
374.973	5.58
375.335	5.56
375.698	5.52
376.06	5.48
376.423	5.5
376.785	5.45
377.147	5.48
377.51	5.44
377.872	5.43
378.234	5.37
378.596	5.42
378.958	5.42
379.321	5.39
379.683	5.37
380.045	5.37
380.407	5.42
380.769	5.38
381.13	5.36
381.492	5.35
381.854	5.32
382.216	5.26
382.578	5.26
382.939	5.2
383.301	5.19
383.663	5.2
384.024	5.15
384.386	5.15
384.747	5.12
385.109	5.09
385.47	5.04
385.832	5.03
386.193	5.02
386.554	4.96
386.916	4.9
387.277	4.87
387.638	4.87
387.999	4.8
388.36	4.8
388.721	4.81
389.082	4.75
389.443	4.7
389.804	4.71
390.165	4.67
390.526	4.66
390.887	4.6
391.248	4.55
391.609	4.56
391.969	4.49
392.33	4.48
392.691	4.45
393.051	4.44
393.412	4.44
393.772	4.34
394.133	4.31
394.493	4.34
394.854	4.33
395.214	4.27
395.574	4.25
395.935	4.24
396.295	4.22
396.655	4.18
397.015	4.17
397.376	4.12
397.736	4.07
398.096	4.05
398.456	4.06
398.816	4.04
399.176	3.98
399.535	3.99
399.895	3.94
400.255	3.92
400.615	3.92
400.975	3.87
401.334	3.86
401.694	3.86
402.054	3.79
402.413	3.78
402.773	3.77
403.132	3.76
403.492	3.73
403.851	3.69
404.211	3.69
404.57	3.65
404.929	3.68
405.288	3.69
405.648	3.68
406.007	3.69
406.366	3.67
406.725	3.67
407.084	3.66
407.443	3.65
407.802	3.64
408.161	3.61
408.52	3.62
408.879	3.64
409.238	3.65
409.596	3.66
409.955	3.65
410.314	3.67
410.673	3.64
411.031	3.62
411.39	3.65
411.748	3.64
412.107	3.65
412.465	3.62
412.824	3.58
413.182	3.55
413.54	3.5
413.899	3.49
414.257	3.48
414.615	3.44
414.974	3.44
415.332	3.41
415.69	3.4
416.048	3.36
416.406	3.34
416.764	3.32
417.122	3.31
417.48	3.3
417.838	3.29
418.195	3.28
418.553	3.28
418.911	3.26
419.269	3.27
419.626	3.26
419.984	3.25
420.342	3.26
420.699	3.26
421.057	3.26
421.414	3.26
421.772	3.26
422.129	3.26
422.486	3.27
422.844	3.28
423.201	3.27
423.558	3.28
423.915	3.27
424.273	3.26
424.63	3.25
424.987	3.23
425.344	3.21
425.701	3.21
426.058	3.2
426.415	3.19
426.772	3.17
427.128	3.18
427.485	3.19
427.842	3.18
428.199	3.18
428.555	3.17
428.912	3.18
429.269	3.19
429.625	3.18
429.982	3.16
430.338	3.14
430.695	3.16
431.051	3.13
431.407	3.13
431.764	3.12
432.12	3.13
432.476	3.14
432.832	3.15
433.189	3.14
433.545	3.15
433.901	3.13
434.257	3.14
434.613	3.13
434.969	3.1
435.325	3.1
435.681	3.1
436.036	3.11
436.392	3.07
436.748	3.05
437.104	3.06
437.459	3.04
437.815	3.05
438.171	3.04
438.526	3.06
438.882	3.06
439.237	3.09
439.593	3.09
439.948	3.08
440.304	3.09
440.659	3.1
441.014	3.09
441.369	3.09
441.725	3.07
442.08	3.08
442.435	3.1
442.79	3.08
443.145	3.08
443.5	3.08
443.855	3.09
444.21	3.09
444.565	3.08
444.92	3.09
445.275	3.07
445.629	3.07
445.984	3.05
446.339	3.04
446.693	3.01
447.048	2.99
447.403	2.99
447.757	2.96
448.112	2.95
448.466	2.93
448.82	2.93
449.175	2.94
449.529	2.92
449.883	2.9
450.238	2.9
450.592	2.9
450.946	2.88
451.3	2.87
451.654	2.88
452.008	2.89
452.362	2.89
452.716	2.89
453.07	2.92
453.424	2.9
453.778	2.92
454.132	2.91
454.486	2.91
454.839	2.92
455.193	2.93
455.547	2.94
455.9	2.96
456.254	2.96
456.607	2.96
456.961	2.96
457.314	2.96
457.668	2.97
458.021	2.95
458.375	2.96
458.728	2.97
459.081	2.94
459.434	2.93
459.787	2.95
460.141	2.96
460.494	2.94
460.847	2.96
461.2	2.94
461.553	2.95
461.906	2.97
462.259	2.98
462.611	3.01
462.964	3.01
463.317	3
463.67	3.01
464.022	3.02
464.375	3.02
464.728	3.04
465.08	3.06
465.433	3.07
465.785	3.06
466.138	3.05
466.49	3.07
466.843	3.07
467.195	3.06
467.547	3.06
467.899	3.08
468.252	3.06
468.604	3.07
468.956	3.09
469.308	3.1
469.66	3.07
470.012	3.07
470.364	3.08
470.716	3.09
471.068	3.09
471.42	3.06
471.772	3.08
472.123	3.09
472.475	3.1
472.827	3.12
473.178	3.13
473.53	3.13
473.882	3.12
474.233	3.14
474.585	3.12
474.936	3.11
475.288	3.1
475.639	3.13
475.99	3.14
476.342	3.11
476.693	3.1
477.044	3.11
477.395	3.1
477.746	3.1
478.097	3.08
478.448	3.09
478.8	3.09
479.15	3.08
479.501	3.08
479.852	3.07
480.203	3.05
480.554	3.06
480.905	3.07
481.255	3.08
481.606	3.07
481.957	3.08
482.307	3.08
482.658	3.07
483.009	3.06
483.359	3.05
483.709	3.07
484.06	3.06
484.41	3.07
484.761	3.06
485.111	3.07
485.461	3.08
485.811	3.08
486.162	3.09
486.512	3.1
486.862	3.09
487.212	3.09
487.562	3.1
487.912	3.11
488.262	3.1
488.612	3.1
488.961	3.1
489.311	3.11
489.661	3.12
490.011	3.13
490.36	3.14
490.71	3.15
491.06	3.16
491.409	3.17
491.759	3.17
492.108	3.19
492.458	3.19
492.807	3.19
493.157	3.19
493.506	3.19
493.855	3.19
494.204	3.2
494.554	3.22
494.903	3.21
495.252	3.21
495.601	3.23
495.95	3.24
496.299	3.27
496.648	3.27
496.997	3.3
497.346	3.33
497.695	3.34
498.043	3.36
498.392	3.36
498.741	3.4
499.09	3.42
499.438	3.41
499.787	3.44
500.135	3.48
500.484	3.52
500.832	3.55
501.181	3.57
501.529	3.59
501.878	3.62
502.226	3.67
502.574	3.7
502.923	3.69
503.271	3.7
503.619	3.71
503.967	3.76
504.315	3.8
504.663	3.83
505.011	3.89
505.359	3.9
505.707	3.94
506.055	3.96
506.403	3.98
506.751	4.04
507.098	4.05
507.446	4.09
507.794	4.11
508.141	4.16
508.489	4.2
508.837	4.24
509.184	4.26
509.531	4.31
509.879	4.34
510.226	4.39
510.574	4.44
510.921	4.5
511.268	4.51
511.616	4.52
511.963	4.53
512.31	4.57
512.657	4.64
513.004	4.7
513.351	4.76
513.698	4.82
514.045	4.87
514.392	4.94
514.739	4.99
515.086	5.05
515.432	5.09
515.779	5.13
516.126	5.21
516.473	5.29
516.819	5.36
517.166	5.41
517.512	5.47
517.859	5.53
518.205	5.57
518.552	5.64
518.898	5.72
519.245	5.78
519.591	5.84
519.937	5.87
520.283	5.95
520.629	6.02
520.976	6.1
521.322	6.17
521.668	6.24
522.014	6.35
522.36	6.43
522.706	6.52
523.052	6.63
523.398	6.75
523.743	6.84
524.089	6.96
524.435	7.08
524.781	7.23
525.126	7.37
525.472	7.48
525.817	7.58
526.163	7.67
526.509	7.76
526.854	7.83
527.199	7.92
527.545	7.98
527.89	8.06
528.235	8.14
528.581	8.23
528.926	8.32
529.271	8.41
529.616	8.52
529.961	8.62
530.306	8.73
530.651	8.83
530.996	8.96
531.341	9.07
531.686	9.2
532.031	9.32
532.376	9.46
532.721	9.61
533.065	9.75
533.41	9.91
533.755	10.06
534.099	10.25
534.444	10.44
534.788	10.61
535.133	10.79
535.477	10.96
535.822	11.17
536.166	11.37
536.51	11.59
536.855	11.82
537.199	12.1
537.543	12.36
537.887	12.63
538.231	12.88
538.576	13.13
538.92	13.4
539.264	13.64
539.608	13.88
539.951	14.1
540.295	14.34
540.639	14.58
540.983	14.79
541.327	15.01
541.671	15.22
542.014	15.45
542.358	15.69
542.701	15.9
543.045	16.1
543.389	16.34
543.732	16.55
544.075	16.78
544.419	16.99
544.762	17.25
545.105	17.5
545.449	17.78
545.792	18.08
546.135	18.37
546.478	18.66
546.821	18.97
547.165	19.31
547.508	19.64
547.851	19.96
548.194	20.34
548.536	20.66
548.879	20.99
549.222	21.33
549.565	21.67
549.908	22.06
550.25	22.44
550.593	22.79
550.936	23.16
551.278	23.54
551.621	23.9
551.963	24.25
552.306	24.63
552.648	24.98
552.991	25.36
553.333	25.69
553.675	26.04
554.017	26.34
554.36	26.68
554.702	27.04
555.044	27.36
555.386	27.68
555.728	28.02
556.07	28.39
556.412	28.76
556.754	29.1
557.096	29.42
557.438	29.76
557.78	30.12
558.121	30.46
558.463	30.76
558.805	31.14
559.147	31.45
559.488	31.74
559.83	32.05
560.171	32.36
560.513	32.7
560.854	33.01
561.196	33.43
561.537	33.69
561.878	33.95
562.22	34.25
562.561	34.55
562.902	34.85
563.243	35.11
563.584	35.35
563.925	35.64
564.266	35.93
564.607	36.19
564.948	36.44
565.289	36.69
565.63	37.01
565.971	37.15
566.312	37.45
566.653	37.73
566.993	37.93
567.334	38.16
567.675	38.43
568.015	38.71
568.356	38.89
568.696	39.15
569.037	39.46
569.377	39.72
569.718	39.95
570.058	40.14
570.398	40.4
570.739	40.65
571.079	40.85
571.419	41.07
571.759	41.28
572.099	41.49
572.439	41.75
572.779	41.91
573.119	42.22
573.459	42.4
573.799	42.59
574.139	42.81
574.479	42.94
574.819	43.11
575.158	43.29
575.498	43.47
575.838	43.63
576.177	43.73
576.517	43.91
576.856	44.13
577.196	44.35
577.535	44.54
577.875	44.72
578.214	44.9
578.553	45.08
578.893	45.27
579.232	45.49
579.571	45.62
579.91	45.81
580.25	45.91
580.589	46.06
580.928	46.18
581.267	46.37
581.606	46.54
581.945	46.69
582.283	46.81
582.622	46.94
582.961	47.09
583.3	47.3
583.639	47.46
583.977	47.61
584.316	47.73
584.654	47.85
584.993	48.07
585.332	48.27
585.67	48.44
586.008	48.64
586.347	48.78
586.685	48.95
587.024	49.12
587.362	49.29
587.7	49.36
588.038	49.54
588.376	49.61
588.715	49.79
589.053	49.89
589.391	49.96
589.729	50.14
590.067	50.31
590.404	50.35
590.742	50.45
591.08	50.56
591.418	50.71
591.756	50.81
592.093	50.89
592.431	50.92
592.769	50.96
593.106	50.99
593.444	51.05
593.781	51.02
594.119	51.07
594.456	51.19
594.793	51.3
595.131	51.36
595.468	51.51
595.805	51.66
596.143	51.71
596.48	51.81
596.817	51.84
597.154	51.85
597.491	51.95
597.828	52.05
598.165	52.14
598.502	52.15
598.839	52.2
599.176	52.24
599.512	52.33
599.849	52.4
600.186	52.45
600.523	52.59
600.859	52.76
601.196	52.9
601.532	52.91
601.869	52.96
602.205	53.06
602.542	53.11
602.878	53.08
603.215	53.16
603.551	53.28
603.887	53.38
604.223	53.46
604.56	53.57
604.896	53.59
605.232	53.62
605.568	53.69
605.904	53.79
606.24	53.86
606.576	53.95
606.912	54
607.248	54.12
607.583	54.15
607.919	54.2
608.255	54.17
608.591	54.31
608.926	54.43
609.262	54.46
609.597	54.53
609.933	54.55
610.268	54.57
610.604	54.58
610.939	54.64
611.275	54.61
611.61	54.61
611.945	54.63
612.281	54.69
612.616	54.85
612.951	54.87
613.286	54.86
613.621	54.88
613.956	54.99
614.291	54.97
614.626	55.01
614.961	55.08
615.296	55.07
615.631	55.04
615.966	55.06
616.3	55.13
616.635	55.15
616.97	55.29
617.304	55.45
617.639	55.48
617.973	55.43
618.308	55.57
618.642	55.62
618.977	55.68
619.311	55.69
619.646	55.62
619.98	55.64
620.314	55.79
620.648	55.8
620.983	55.85
621.317	55.96
621.651	56.07
621.985	56.21
622.319	56.34
622.653	56.4
622.987	56.5
623.321	56.57
623.655	56.57
623.988	56.66
624.322	56.61
624.656	56.62
624.99	56.71
625.323	56.77
625.657	56.74
625.99	56.74
626.324	56.85
626.657	56.9
626.991	57.03
627.324	57.02
627.658	57.12
627.991	57.18
628.324	57.12
628.657	57.18
628.991	57.1
629.324	57.11
629.657	57.18
629.99	57.2
630.323	57.21
630.656	57.37
630.989	57.32
631.322	57.43
631.655	57.6
631.987	57.67
632.32	57.68
632.653	57.78
632.986	57.87
633.318	57.76
633.651	57.75
633.984	57.72
634.316	57.83
634.649	57.88
634.981	57.93
635.313	58.02
635.646	57.94
635.978	57.96
636.31	58.01
636.643	58.02
636.975	58.01
637.307	58
637.639	57.96
637.971	58
638.303	58.05
638.635	58.04
638.967	58
639.299	58.08
639.631	58.07
639.963	58.06
640.295	58.18
640.626	58.26
640.958	58.3
641.29	58.22
641.621	58.19
641.953	58.19
642.285	58.35
642.616	58.39
642.948	58.52
643.279	58.54
643.61	58.54
643.942	58.62
644.273	58.77
644.604	58.75
644.936	58.74
645.267	58.64
645.598	58.64
645.929	58.69
646.26	58.64
646.591	58.67
646.922	58.79
647.253	58.8
647.584	58.82
647.915	58.91
648.245	58.87
648.576	58.84
648.907	58.86
649.238	58.74
649.568	58.77
649.899	58.75
650.229	58.85
650.56	58.9
650.89	58.8
651.221	58.68
651.551	58.65
651.882	58.63
652.212	58.72
652.542	58.7
652.872	58.6
653.203	58.61
653.533	58.64
653.863	58.58
654.193	58.59
654.523	58.69
654.853	58.66
655.183	58.7
655.513	58.71
655.843	58.77
656.172	58.89
656.502	58.92
656.832	58.96
657.162	58.9
657.491	58.9
657.821	59.05
658.15	59.17
658.48	59.2
658.809	59.32
659.139	59.3
659.468	59.35
659.798	59.55
660.127	59.56
660.456	59.52
660.785	59.56
661.115	59.57
661.444	59.43
661.773	59.39
662.102	59.41
662.431	59.5
662.76	59.44
663.089	59.45
663.418	59.42
663.747	59.43
664.076	59.5
664.404	59.56
664.733	59.53
665.062	59.57
665.39	59.62
665.719	59.63
666.048	59.61
666.376	59.53
666.705	59.6
667.033	59.59
667.362	59.68
667.69	59.68
668.018	59.74
668.347	59.93
668.675	60.06
669.003	60.14
669.331	60.15
669.659	60.29
669.987	60.14
670.315	60.25
670.643	60.14
670.971	60.14
671.299	60.18
671.627	60.15
671.955	60.07
672.283	60.15
672.61	60.15
672.938	60.17
673.266	60.18
673.593	60.08
673.921	60.13
674.249	60.12
674.576	60.17
674.904	60.17
675.231	60.09
675.558	60.02
675.886	59.99
676.213	59.98
676.54	59.96
676.867	60.09
677.195	60.01
677.522	60.15
677.849	60.16
678.176	60.03
678.503	60.11
678.83	60.19
679.157	60.13
679.484	60.02
679.81	60.19
680.137	60.18
680.464	60.23
680.791	60.3
681.117	60.3
681.444	60.33
681.771	60.33
682.097	60.34
682.424	60.39
682.75	60.5
683.077	60.56
683.403	60.56
683.729	60.66
684.056	60.81
684.382	60.75
684.708	60.78
685.034	60.98
685.36	61.02
685.686	60.99
686.012	60.94
686.339	61.07
686.664	60.83
686.99	60.93
687.316	60.87
687.642	60.85
687.968	60.94
688.294	60.92
688.619	60.85
688.945	60.94
689.271	60.86
689.596	60.81
689.922	60.75
690.247	60.64
690.573	60.57
690.898	60.46
691.224	60.51
691.549	60.62
691.874	60.58
692.2	60.48
692.525	60.3
692.85	60.47
693.175	60.47
693.5	60.72
693.825	60.66
694.15	60.68
694.475	60.73
694.8	60.76
695.125	60.93
695.45	60.97
695.775	60.92
696.099	60.92
696.424	60.88
696.749	60.91
697.073	60.95
697.398	61.06
697.723	61.08
698.047	61.11
698.372	61.03
698.696	60.94
699.02	60.95
699.345	61.03
699.669	61.01
699.993	61.01
700.318	60.92
700.642	61.04
700.966	61.01
701.29	61.07
701.614	60.99
701.938	60.88
702.262	60.93
702.586	60.99
702.91	61.11
703.234	61.18
703.557	61.27
703.881	61.37
704.205	61
704.529	60.95
704.852	61.02
705.176	61.06
705.499	61.1
705.823	61.17
706.146	61.11
706.47	61.1
706.793	61.04
707.117	61.02
707.44	60.98
707.763	61.08
708.086	61.05
708.409	61.06
708.733	60.95
709.056	61.15
709.379	60.99
709.702	60.97
710.025	61.04
710.348	61.13
710.671	61.06
710.993	61.15
711.316	61.1
711.639	61.06
711.962	60.85
712.284	60.92
712.607	61.05
712.93	61.27
713.252	61.1
713.575	61.04
713.897	61.08
714.22	61.1
714.542	61.11
714.864	61.12
715.187	61.19
715.509	61.25
715.831	60.83
716.153	60.86
716.475	61.01
716.798	60.95
717.12	60.79
717.442	60.83
717.764	60.86
718.085	60.99
718.407	60.9
718.729	61.13
719.051	61.23
719.373	61.15
719.695	61.01
720.016	61.3
720.338	61.55
720.659	61.65
720.981	61.74
721.302	61.98
721.624	61.74
721.945	61.84
722.267	61.82
722.588	62.25
722.909	62.52
723.231	62.36
723.552	62.42
723.873	62.37
724.194	62.36
724.515	62.56
724.836	62.44
725.157	62.47
725.478	62.4
725.799	62.2
726.12	62.25
726.441	62.44
726.762	62.26
727.083	62.29
727.403	62.3
727.724	62.28
728.045	62.16
728.365	62.3
728.686	62.1
729.006	62.15
729.327	62.25
729.647	62.07
729.967	62.06
730.288	62.04
730.608	62.15
730.928	62.22
731.249	62.35
731.569	62.45
731.889	62.54
732.209	62.43
732.529	62.36
732.849	62.22
733.169	62.3
733.489	62.41
733.809	62.38
734.129	62.5
734.448	62.32
734.768	62.28
735.088	62.35
735.408	62.36
735.727	62.32
736.047	62.15
736.366	62.43
736.686	62.38
737.005	62.47
737.325	62.42
737.644	62.43
737.963	62.07
738.283	62.07
738.602	61.92
738.921	62.19
739.24	62.46
739.56	62.23
739.879	62.11
740.198	62.24
740.517	61.89
740.836	61.88
741.155	62.12
741.473	62.01
741.792	62.08
742.111	62.27
742.43	62.38
742.748	62.37
743.067	62.32
743.386	62.55
743.704	62.72
744.023	62.81
744.341	62.53
744.66	63
744.978	63.01
745.297	63.2
745.615	63.14
745.933	62.83
746.252	63.02
746.57	63.19
746.888	63.22
747.206	63.59
747.524	63.33
747.842	62.97
748.16	63.14
748.478	63.31
748.796	62.98
749.114	62.75
749.432	62.39
749.749	62.41
750.067	62.23
750.385	61.72
750.703	61.67
751.02	61.94
751.338	61.5
751.655	61.39
751.973	61.4
752.29	61.4
752.608	61.46
752.925	61.58
753.242	61.31
753.56	61.27
753.877	61.27
754.194	61.26
754.511	61.61
754.828	61.35
755.145	61.27
755.462	61.6
755.779	61.9
756.096	62.22
756.413	62.21
756.73	62.44
757.047	62.65
757.364	62.63
757.68	62.45
757.997	62.76
758.314	63.04
758.63	62.9
758.947	62.59
759.264	62.74
759.58	62.71
759.896	62.89
760.213	62.82
760.529	62.96
760.846	63.06
761.162	62.96
761.478	63.22
761.794	63.01
762.11	62.97
762.426	62.83
762.743	62.87
763.059	62.89
763.375	62.96
763.69	62.92
764.006	62.84
764.322	62.95
764.638	63
764.954	62.93
765.27	62.91
765.585	62.97
765.901	62.89
766.216	63.01
766.532	62.9
766.848	63.12
767.163	63.2
767.478	63.21
767.794	63.24
768.109	63.23
768.424	63.12
768.74	63.53
769.055	63.79
769.37	64.03
769.685	63.8
770	63.64
770.315	63.58
770.63	63.87
770.945	63.54
771.26	63.49
771.575	63.29
771.89	63.53
772.205	63.89
772.52	64.19
772.834	63.96
773.149	64.08
773.464	63.69
773.778	63.66
774.093	63.51
774.407	63.43
774.722	63.33
775.036	63.99
775.351	63.34
775.665	63.28
775.979	63.08
776.293	63.25
776.608	62.95
776.922	63
777.236	63.1
777.55	63.44
777.864	63.23
778.178	63.66
778.492	63.37
778.806	63.47
779.12	63.43
779.434	63.84
779.747	64.06
780.061	64.44
780.375	64.25
780.689	64.44
781.002	64.7
781.316	64.97
781.629	64.45
781.943	64.73
782.256	64.29
782.57	64.29
782.883	64.69
783.196	64.87
783.51	64.93
783.823	64.3
784.136	64.27
784.449	64.07
784.762	63.86
785.075	64.14
785.388	64.09
785.701	64.41
786.014	63.92
786.327	63.69
786.64	63.23
786.953	62.86
787.266	62.77
787.578	62.44
787.891	62.3
788.204	62.27
788.516	62.44
788.829	62.74
789.141	62.85
789.454	62.68
789.766	62.88
790.079	63.06
790.391	63.69
790.703	63.62
791.016	64.05
791.328	63.86
791.64	63.91
791.952	63.76
792.264	63.19
792.576	63.44
792.888	63.21
793.2	63.6
793.512	63.81
793.824	63.91
794.136	64.35
794.448	64.39
794.76	64.71
795.071	64.32
795.383	64.14
795.695	63.69
796.006	63.46
796.318	63.16
796.629	63.29
796.941	62.83
797.252	62.98
797.564	63.36
797.875	63.42
798.186	62.82
798.497	62.65
798.809	63.02
799.12	63.04
799.431	63.47
799.742	63.45
800.053	63.74
800.364	63.81
800.675	63.68
800.986	63.48
801.297	63.4
801.608	63.29
801.918	63.17
802.229	63.6
802.54	63.41
802.851	64.11
803.161	63.49
803.472	63.32
803.782	63.46
804.093	62.87
804.403	63.26
804.714	63.09
805.024	63.12
805.334	62.99
805.645	63.09
805.955	62.31
806.265	62.48
806.575	62.24
806.885	61.99
807.195	61.96
807.505	61.74
807.815	61.56
808.125	61.72
808.435	61.76
808.745	61.56
809.055	61.75
809.365	61.44
809.674	61.18
809.984	61.68
810.294	61.66
810.603	61.98
810.913	61.75
811.222	62.98
811.532	63.26
811.841	63.22
812.151	63.26
812.46	63.98
812.769	63.45
813.079	63.59
813.388	63.6
813.697	63.38
814.006	63.73
814.315	63.88
814.624	63.86
814.933	64.05
815.242	64.36
815.551	64.24
815.86	64.33
816.169	65.25
816.478	65.06
816.786	65.02
817.095	64.3
817.404	64.53
817.712	64.17
818.021	64.06
818.33	63.82
818.638	64.02
818.947	63.54
819.255	63.6
819.563	63.59
819.872	63.63
820.18	64.11
820.488	64.03
820.796	63.64
821.105	63.66
821.413	63.64
821.721	63.68
822.029	63.78
822.337	63.74
822.645	63.92
822.953	64.09
823.26	64.22
823.568	64.33
823.876	64.24
824.184	64.3
824.491	64.42
824.799	64.56
825.107	64.6
825.414	64.75
825.722	64.93
826.029	65.08
826.337	65.1
826.644	65.05
826.951	65.2
827.259	65.42
827.566	65.44
827.873	65.57
828.18	65.49
828.488	65.51
828.795	65.57
829.102	65.33
829.409	65.13
829.716	64.84
830.023	64.91
830.329	65.26
830.636	65.01
830.943	65.03
831.25	64.94
831.557	64.75
831.863	64.74
832.17	64.31
832.476	63.84
832.783	64.26
833.089	64.57
833.396	64.62
833.702	64.86
834.009	65.28
834.315	65.26
834.621	65.39
834.928	65.48
835.234	65.71
835.54	65.91
835.846	65.72
836.152	65.57
836.458	65.84
836.764	65.52
837.07	65.32
837.376	65.32
837.682	65.56
837.988	64.89
838.293	64.97
838.599	65.41
838.905	65.76
839.211	65.5
839.516	64.73
839.822	64.58
840.127	64.37
840.433	64.31
840.738	64.6
841.044	65.32
841.349	65.21
841.654	64.49
841.959	64.61
842.265	65.91
842.57	66.94
842.875	66.45
843.18	66.84
843.485	67.25
843.79	65.85
844.095	64.75
844.4	65.19
844.705	64.08
845.01	63.2
845.315	63.14
845.619	63.15
845.924	63.46
846.229	64.48
846.533	65.29
846.838	63.44
847.142	62.54
847.447	60.37
847.751	60
848.056	62.7
848.36	62.62
848.664	62.55
848.969	62.77
849.273	61.65
849.577	61.34
849.881	62.32
850.185	63.25
850.489	63.41
850.794	63.44
851.097	65.68
851.401	65.79
851.705	65.27
852.009	64.2
852.313	63.02
852.617	59.83
852.92	58.03
853.224	59.16
853.528	59.45
853.831	61.67
854.135	62.17
854.438	59.74
854.742	59.6
855.045	57.4
855.349	56.91
855.652	58.26
855.955	57.62
856.259	56.97
856.562	57.96
856.865	58.3
857.168	57.96
857.471	57.99
857.774	59.5
858.077	60.72
858.38	60.78
858.683	63.79
858.986	65.51
859.289	67.49
859.592	67.63
859.894	67.47
860.197	66.74
860.5	66.89
860.802	65
861.105	63.58
861.407	65.57
861.71	65.49
862.012	66.34
862.315	67.19
862.617	69.46
862.919	69.04
863.222	67.84
863.524	70.42
863.826	70.59
864.128	70.91
864.43	70.39
864.732	70.98
865.034	68.14
865.336	65.8
865.638	65.76
865.94	65.26
866.242	66.53
866.544	69.48
866.846	69.63
867.147	68.97
867.449	72.59
867.751	71.33
868.052	71.88
868.354	71.71
868.655	72.54
868.957	68.38
869.258	70.47
869.56	74.13
869.861	73.84
870.162	70.65
870.463	69
870.765	67.63
871.066	68.36
871.367	66.97
871.668	69.93
871.969	70.02
872.27	73.46
872.571	73.72
872.872	71.13
873.173	71.81
873.473	75.71
873.774	73.02
874.075	72.67
874.376	72.2
874.676	72.3
874.977	69.8
875.277	73.23
875.578	69.05
875.878	66.68
876.179	66.13
876.479	69.15
876.78	69.79
877.08	71.44
877.38	70.45
877.68	74.11
877.981	74.2
878.281	74.2
878.581	69.78
