Data from BA58010_Reflection_00015.txt Node
Date: Mon Nov 18 16:07:23 EST 2019
User: vgr7
Spectrometer: USB2G7710
Scans to average: 3
Trigger mode: 4
Integration Time (sec): 2.000000E-2
Electric dark correction enabled: true
Boxcar width: 10
XAxis mode: Wavelengths
Number of Pixels in Spectrum: 2048
>>>>>Begin Spectral Data<<<<<
177.721	-37.61
178.105	46.9
178.488	288.46
178.871	108.38
179.254	-2319.35
179.636	-63.82
180.019	-154.61
180.402	0
180.785	58.25
181.168	131.51
181.55	135.41
181.933	96.06
182.316	122.32
182.698	82.82
183.081	98.69
183.463	77.19
183.846	36.82
184.228	7.81
184.611	-5.43
184.993	-44.62
185.376	-137.02
185.758	-160.45
186.14	-54.7
186.522	-46.42
186.904	-39.01
187.287	42.45
187.669	-10.63
188.051	9.96
188.433	-106.11
188.815	-177.69
189.197	-164.11
189.579	-980
189.961	136.78
190.342	1756.72
190.724	126.28
191.106	145.84
191.488	27.48
191.869	15.12
192.251	-53.43
192.633	-56.02
193.014	-40.25
193.396	-306.11
193.777	-1031.15
194.159	1557.14
194.54	931.33
194.922	-184.44
195.303	-70.54
195.684	-281.6
196.065	-56.96
196.447	-127.48
196.828	-185.82
197.209	-129.52
197.59	-132.13
197.971	556
198.352	-154.77
198.733	-331.31
199.114	-114.9
199.495	-571.64
199.876	901.98
200.257	-1719.67
200.638	-346.81
201.018	-1256.69
201.399	-759.87
201.78	-275.7
202.16	-302.26
202.541	-410.05
202.922	2462.83
203.302	771.39
203.683	20009.09
204.063	379.87
204.444	219.02
204.824	167.71
205.204	150.92
205.585	190.76
205.965	454.33
206.345	233.87
206.725	339.46
207.106	288.84
207.486	233.3
207.866	353.9
208.246	239.49
208.626	228.64
209.006	233.53
209.386	236.9
209.766	178.33
210.145	155.87
210.525	133.89
210.905	113.73
211.285	142.32
211.664	172.06
212.044	268.93
212.424	249.56
212.803	524.08
213.183	-126.96
213.562	-204.02
213.942	-102.03
214.321	-45.4
214.701	-12.84
215.08	-26.81
215.459	-24.17
215.838	-3.09
216.218	-13.27
216.597	18.08
216.976	14.67
217.355	4.84
217.734	-6.27
218.113	-7.97
218.492	-13.75
218.871	-15.79
219.25	-8
219.629	-20
220.008	-23.68
220.387	-21.21
220.766	-20.19
221.144	-28.63
221.523	-29.6
221.902	-41.11
222.28	-42.53
222.659	-51.59
223.037	-38.89
223.416	-41.79
223.794	-46.48
224.173	-37.28
224.551	-24.77
224.929	-23.11
225.308	-17.76
225.686	-14.13
226.064	-7.84
226.442	-3.25
226.821	-6.64
227.199	-7.07
227.577	-5.67
227.955	-7.93
228.333	-11.01
228.711	-9.97
229.089	-5.02
229.467	-5.24
229.845	-1.67
230.222	-2.21
230.6	-1.01
230.978	-0.71
231.356	1.83
231.733	3.52
232.111	4.97
232.488	4.23
232.866	4.64
233.243	3.74
233.621	2.26
233.998	2.35
234.376	0.06
234.753	0
235.13	0.7
235.508	-0.16
235.885	1.95
236.262	1.38
236.639	2.14
237.016	1.22
237.393	2.74
237.77	2.36
238.147	2.82
238.524	2.38
238.901	3.54
239.278	2.83
239.655	3
240.032	2.55
240.409	2.26
240.785	2.31
241.162	2.41
241.539	2.92
241.915	2.3
242.292	2.38
242.668	2.92
243.045	2.97
243.421	3.37
243.798	3.4
244.174	3.56
244.551	3.64
244.927	3.53
245.303	3.47
245.679	3.61
246.056	3.59
246.432	3.71
246.808	3.58
247.184	3.69
247.56	3.65
247.936	3.61
248.312	3.69
248.688	3.68
249.064	3.95
249.44	3.89
249.815	4.09
250.191	4.12
250.567	4.09
250.943	4.1
251.318	4.07
251.694	4.01
252.069	3.92
252.445	3.82
252.82	4.04
253.196	4.23
253.571	4.01
253.947	4.13
254.322	3.91
254.697	3.53
255.073	3.37
255.448	3.08
255.823	2.95
256.198	2.89
256.573	2.91
256.948	2.9
257.323	2.99
257.698	3.04
258.073	3.17
258.448	3.1
258.823	3.16
259.198	3.1
259.573	3
259.948	2.95
260.322	2.98
260.697	2.9
261.072	2.69
261.446	2.79
261.821	2.81
262.195	3.1
262.57	3.21
262.944	3.32
263.319	3.44
263.693	3.42
264.067	3.38
264.442	3.42
264.816	3.31
265.19	3.27
265.564	3.09
265.938	3.03
266.313	3.03
266.687	2.76
267.061	2.79
267.435	2.79
267.809	2.93
268.183	2.92
268.556	2.93
268.93	2.86
269.304	2.71
269.678	2.76
270.051	2.57
270.425	2.6
270.799	2.46
271.172	2.35
271.546	2.48
271.919	2.5
272.293	2.52
272.666	2.54
273.04	2.56
273.413	2.65
273.787	2.67
274.16	2.68
274.533	2.74
274.906	2.64
275.279	2.74
275.653	2.79
276.026	2.63
276.399	2.59
276.772	2.79
277.145	2.92
277.518	2.92
277.891	2.99
278.263	2.88
278.636	2.82
279.009	2.93
279.382	2.84
279.755	2.83
280.127	2.91
280.5	2.92
280.872	2.78
281.245	2.74
281.617	2.78
281.99	2.91
282.362	2.98
282.735	2.88
283.107	2.78
283.479	2.85
283.852	2.9
284.224	3.01
284.596	2.95
284.968	2.95
285.34	2.95
285.713	2.97
286.085	3.09
286.457	3.17
286.829	3.24
287.201	3.28
287.572	3.23
287.944	3.18
288.316	3.13
288.688	3.31
289.06	3.28
289.431	3.25
289.803	3.26
290.175	3.3
290.546	3.54
290.918	3.63
291.289	3.61
291.661	3.62
292.032	3.58
292.403	3.58
292.775	3.52
293.146	3.57
293.517	3.45
293.889	3.51
294.26	3.61
294.631	3.63
295.002	3.79
295.373	3.82
295.744	3.8
296.115	3.86
296.486	3.75
296.857	3.96
297.228	4.03
297.599	3.88
297.97	3.94
298.34	3.87
298.711	3.98
299.082	3.86
299.452	3.9
299.823	3.97
300.194	4.04
300.564	4.06
300.935	4.05
301.305	4.09
301.676	4.06
302.046	4.11
302.416	4.15
302.787	4.02
303.157	4.18
303.527	4.25
303.897	4.18
304.267	4.38
304.637	4.4
305.008	4.43
305.378	4.7
305.748	4.81
306.117	4.78
306.487	4.92
306.857	5.16
307.227	5.22
307.597	5.22
307.967	5.33
308.336	5.53
308.706	5.63
309.076	5.76
309.445	5.89
309.815	5.88
310.184	5.97
310.554	6.12
310.923	6.25
311.293	6.47
311.662	6.55
312.031	6.6
312.401	6.68
312.77	6.78
313.139	6.84
313.508	6.81
313.877	7.01
314.246	6.96
314.616	7.14
314.985	7.19
315.353	7.25
315.722	7.38
316.091	7.45
316.46	7.46
316.829	7.52
317.198	7.58
317.567	7.74
317.935	7.76
318.304	7.85
318.672	7.76
319.041	7.8
319.41	8.08
319.778	8.1
320.147	8.1
320.515	8.03
320.883	8.11
321.252	8.28
321.62	8.29
321.988	8.41
322.357	8.28
322.725	8.47
323.093	8.69
323.461	8.73
323.829	8.8
324.197	9.06
324.565	9.22
324.933	9.36
325.301	9.34
325.669	9.41
326.037	9.41
326.405	9.63
326.772	9.7
327.14	9.74
327.508	9.83
327.875	9.69
328.243	9.85
328.61	9.7
328.978	9.66
329.346	9.89
329.713	9.75
330.08	9.78
330.448	9.81
330.815	9.65
331.182	9.65
331.55	9.73
331.917	9.73
332.284	9.67
332.651	9.51
333.018	9.64
333.385	9.66
333.752	9.83
334.119	9.87
334.486	9.83
334.853	9.83
335.22	9.8
335.587	10.09
335.954	10.11
336.32	10.34
336.687	10.5
337.054	10.45
337.42	10.69
337.787	10.83
338.153	10.86
338.52	11.1
338.886	11.19
339.253	11.18
339.619	11.22
339.986	11.31
340.352	11.5
340.718	11.5
341.084	11.54
341.451	11.46
341.817	11.5
342.183	11.55
342.549	11.6
342.915	11.73
343.281	11.67
343.647	11.74
344.013	11.7
344.379	11.6
344.745	11.77
345.11	11.78
345.476	11.92
345.842	11.88
346.208	11.91
346.573	12.01
346.939	12.09
347.304	12.01
347.67	12.03
348.035	12.04
348.401	12.11
348.766	12.17
349.132	12.29
349.497	12.27
349.862	12.42
350.228	12.35
350.593	12.34
350.958	12.49
351.323	12.52
351.688	12.65
352.053	12.81
352.418	12.66
352.783	12.65
353.148	12.55
353.513	12.65
353.878	12.62
354.243	12.58
354.608	12.55
354.972	12.71
355.337	12.82
355.702	12.79
356.066	12.83
356.431	12.86
356.795	12.8
357.16	12.73
357.524	12.65
357.889	12.77
358.253	12.78
358.618	12.72
358.982	12.66
359.346	12.57
359.71	12.5
360.075	12.53
360.439	12.52
360.803	12.55
361.167	12.51
361.531	12.47
361.895	12.45
362.259	12.33
362.623	12.21
362.987	12.16
363.351	12.18
363.714	12.1
364.078	12.04
364.442	11.95
364.806	11.95
365.169	11.89
365.533	11.75
365.896	11.65
366.26	11.54
366.623	11.42
366.987	11.37
367.35	11.35
367.714	11.32
368.077	11.18
368.44	11.12
368.803	11.05
369.167	10.95
369.53	10.85
369.893	10.88
370.256	10.87
370.619	10.81
370.982	10.7
371.345	10.62
371.708	10.51
372.071	10.45
372.434	10.39
372.797	10.33
373.159	10.24
373.522	10.19
373.885	10.22
374.247	10.26
374.61	10.18
374.973	10.03
375.335	9.94
375.698	9.92
376.06	9.82
376.423	9.81
376.785	9.78
377.147	9.78
377.51	9.69
377.872	9.62
378.234	9.55
378.596	9.5
378.958	9.46
379.321	9.44
379.683	9.42
380.045	9.38
380.407	9.31
380.769	9.33
381.13	9.26
381.492	9.13
381.854	9.08
382.216	9.03
382.578	9.02
382.939	8.93
383.301	8.84
383.663	8.74
384.024	8.68
384.386	8.63
384.747	8.51
385.109	8.49
385.47	8.37
385.832	8.28
386.193	8.19
386.554	8.14
386.916	8.08
387.277	8.01
387.638	7.93
387.999	7.85
388.36	7.75
388.721	7.74
389.082	7.69
389.443	7.57
389.804	7.48
390.165	7.4
390.526	7.33
390.887	7.28
391.248	7.25
391.609	7.16
391.969	7.1
392.33	7.07
392.691	7.02
393.051	6.97
393.412	6.92
393.772	6.87
394.133	6.82
394.493	6.72
394.854	6.64
395.214	6.56
395.574	6.51
395.935	6.48
396.295	6.41
396.655	6.32
397.015	6.26
397.376	6.23
397.736	6.2
398.096	6.18
398.456	6.15
398.816	6.12
399.176	6.09
399.535	6.03
399.895	5.99
400.255	5.92
400.615	5.87
400.975	5.82
401.334	5.79
401.694	5.72
402.054	5.71
402.413	5.69
402.773	5.65
403.132	5.63
403.492	5.56
403.851	5.49
404.211	5.5
404.57	5.47
404.929	5.44
405.288	5.38
405.648	5.33
406.007	5.29
406.366	5.22
406.725	5.22
407.084	5.2
407.443	5.14
407.802	5.13
408.161	5.1
408.52	5.03
408.879	5
409.238	4.98
409.596	4.95
409.955	4.92
410.314	4.92
410.673	4.87
411.031	4.84
411.39	4.83
411.748	4.82
412.107	4.79
412.465	4.76
412.824	4.74
413.182	4.71
413.54	4.68
413.899	4.68
414.257	4.62
414.615	4.56
414.974	4.56
415.332	4.5
415.69	4.48
416.048	4.46
416.406	4.42
416.764	4.39
417.122	4.38
417.48	4.34
417.838	4.29
418.195	4.28
418.553	4.26
418.911	4.22
419.269	4.19
419.626	4.17
419.984	4.13
420.342	4.1
420.699	4.09
421.057	4.06
421.414	4.04
421.772	4.01
422.129	3.99
422.486	3.96
422.844	3.95
423.201	3.92
423.558	3.91
423.915	3.89
424.273	3.89
424.63	3.85
424.987	3.84
425.344	3.84
425.701	3.8
426.058	3.78
426.415	3.78
426.772	3.76
427.128	3.74
427.485	3.72
427.842	3.7
428.199	3.69
428.555	3.68
428.912	3.68
429.269	3.69
429.625	3.68
429.982	3.67
430.338	3.67
430.695	3.69
431.051	3.69
431.407	3.69
431.764	3.67
432.12	3.67
432.476	3.67
432.832	3.64
433.189	3.65
433.545	3.64
433.901	3.63
434.257	3.62
434.613	3.64
434.969	3.66
435.325	3.66
435.681	3.66
436.036	3.66
436.392	3.63
436.748	3.62
437.104	3.61
437.459	3.59
437.815	3.59
438.171	3.59
438.526	3.58
438.882	3.58
439.237	3.57
439.593	3.56
439.948	3.55
440.304	3.55
440.659	3.55
441.014	3.55
441.369	3.53
441.725	3.52
442.08	3.51
442.435	3.5
442.79	3.49
443.145	3.47
443.5	3.46
443.855	3.45
444.21	3.41
444.565	3.42
444.92	3.43
445.275	3.41
445.629	3.39
445.984	3.37
446.339	3.35
446.693	3.35
447.048	3.33
447.403	3.32
447.757	3.31
448.112	3.27
448.466	3.27
448.82	3.26
449.175	3.26
449.529	3.25
449.883	3.23
450.238	3.21
450.592	3.2
450.946	3.17
451.3	3.17
451.654	3.17
452.008	3.16
452.362	3.14
452.716	3.13
453.07	3.13
453.424	3.12
453.778	3.11
454.132	3.1
454.486	3.1
454.839	3.12
455.193	3.12
455.547	3.11
455.9	3.11
456.254	3.12
456.607	3.11
456.961	3.12
457.314	3.1
457.668	3.12
458.021	3.13
458.375	3.16
458.728	3.17
459.081	3.17
459.434	3.17
459.787	3.17
460.141	3.17
460.494	3.19
460.847	3.19
461.2	3.18
461.553	3.18
461.906	3.19
462.259	3.19
462.611	3.21
462.964	3.23
463.317	3.24
463.67	3.24
464.022	3.25
464.375	3.25
464.728	3.28
465.08	3.31
465.433	3.3
465.785	3.29
466.138	3.3
466.49	3.32
466.843	3.31
467.195	3.35
467.547	3.38
467.899	3.37
468.252	3.38
468.604	3.41
468.956	3.44
469.308	3.43
469.66	3.43
470.012	3.45
470.364	3.46
470.716	3.46
471.068	3.49
471.42	3.48
471.772	3.51
472.123	3.51
472.475	3.49
472.827	3.5
473.178	3.51
473.53	3.51
473.882	3.5
474.233	3.51
474.585	3.49
474.936	3.48
475.288	3.49
475.639	3.52
475.99	3.5
476.342	3.49
476.693	3.51
477.044	3.5
477.395	3.47
477.746	3.47
478.097	3.46
478.448	3.43
478.8	3.44
479.15	3.41
479.501	3.42
479.852	3.42
480.203	3.41
480.554	3.42
480.905	3.43
481.255	3.42
481.606	3.43
481.957	3.43
482.307	3.43
482.658	3.42
483.009	3.41
483.359	3.42
483.709	3.43
484.06	3.43
484.41	3.45
484.761	3.45
485.111	3.45
485.461	3.46
485.811	3.47
486.162	3.47
486.512	3.49
486.862	3.49
487.212	3.49
487.562	3.5
487.912	3.51
488.262	3.51
488.612	3.52
488.961	3.53
489.311	3.54
489.661	3.56
490.011	3.57
490.36	3.58
490.71	3.59
491.06	3.59
491.409	3.59
491.759	3.6
492.108	3.62
492.458	3.63
492.807	3.65
493.157	3.67
493.506	3.71
493.855	3.72
494.204	3.74
494.554	3.78
494.903	3.79
495.252	3.83
495.601	3.86
495.95	3.9
496.299	3.93
496.648	3.97
496.997	3.98
497.346	4.03
497.695	4.08
498.043	4.13
498.392	4.18
498.741	4.23
499.09	4.25
499.438	4.3
499.787	4.36
500.135	4.41
500.484	4.46
500.832	4.52
501.181	4.57
501.529	4.62
501.878	4.67
502.226	4.75
502.574	4.81
502.923	4.87
503.271	4.91
503.619	4.98
503.967	5.03
504.315	5.1
504.663	5.17
505.011	5.26
505.359	5.32
505.707	5.41
506.055	5.48
506.403	5.56
506.751	5.64
507.098	5.7
507.446	5.77
507.794	5.84
508.141	5.93
508.489	6
508.837	6.08
509.184	6.16
509.531	6.22
509.879	6.29
510.226	6.38
510.574	6.45
510.921	6.53
511.268	6.62
511.616	6.73
511.963	6.81
512.31	6.88
512.657	6.99
513.004	7.06
513.351	7.18
513.698	7.29
514.045	7.38
514.392	7.52
514.739	7.64
515.086	7.75
515.432	7.85
515.779	7.96
516.126	8.06
516.473	8.17
516.819	8.29
517.166	8.41
517.512	8.51
517.859	8.63
518.205	8.71
518.552	8.82
518.898	8.91
519.245	9.02
519.591	9.14
519.937	9.24
520.283	9.38
520.629	9.48
520.976	9.62
521.322	9.75
521.668	9.88
522.014	10.01
522.36	10.15
522.706	10.3
523.052	10.49
523.398	10.72
523.743	10.91
524.089	11.13
524.435	11.31
524.781	11.55
525.126	11.73
525.472	11.93
525.817	12.08
526.163	12.23
526.509	12.37
526.854	12.51
527.199	12.63
527.545	12.74
527.89	12.87
528.235	13.01
528.581	13.15
528.926	13.29
529.271	13.46
529.616	13.61
529.961	13.76
530.306	13.92
530.651	14.07
530.996	14.24
531.341	14.4
531.686	14.58
532.031	14.73
532.376	14.92
532.721	15.1
533.065	15.33
533.41	15.55
533.755	15.76
534.099	15.98
534.444	16.23
534.788	16.5
535.133	16.76
535.477	17
535.822	17.27
536.166	17.56
536.51	17.86
536.855	18.16
537.199	18.5
537.543	18.81
537.887	19.17
538.231	19.49
538.576	19.8
538.92	20.17
539.264	20.5
539.608	20.82
539.951	21.08
540.295	21.32
540.639	21.57
540.983	21.82
541.327	22.05
541.671	22.32
542.014	22.55
542.358	22.77
542.701	22.98
543.045	23.23
543.389	23.44
543.732	23.68
544.075	23.91
544.419	24.15
544.762	24.44
545.105	24.68
545.449	24.95
545.792	25.29
546.135	25.58
546.478	25.88
546.821	26.18
547.165	26.57
547.508	26.95
547.851	27.32
548.194	27.71
548.536	28.11
548.879	28.45
549.222	28.8
549.565	29.16
549.908	29.55
550.25	29.92
550.593	30.3
550.936	30.67
551.278	31.07
551.621	31.44
551.963	31.8
552.306	32.22
552.648	32.62
552.991	32.95
553.333	33.25
553.675	33.61
554.017	33.89
554.36	34.17
554.702	34.5
555.044	34.8
555.386	35.07
555.728	35.35
556.07	35.66
556.412	35.96
556.754	36.24
557.096	36.55
557.438	36.82
557.78	37.14
558.121	37.42
558.463	37.73
558.805	38.03
559.147	38.27
559.488	38.48
559.83	38.77
560.171	39.07
560.513	39.34
560.854	39.59
561.196	39.93
561.537	40.21
561.878	40.42
562.22	40.67
562.561	40.89
562.902	41.14
563.243	41.42
563.584	41.64
563.925	41.92
564.266	42.16
564.607	42.39
564.948	42.6
565.289	42.81
565.63	43.01
565.971	43.17
566.312	43.4
566.653	43.6
566.993	43.76
567.334	43.91
567.675	44.12
568.015	44.32
568.356	44.45
568.696	44.68
569.037	44.91
569.377	45.14
569.718	45.33
570.058	45.55
570.398	45.68
570.739	45.9
571.079	46.06
571.419	46.28
571.759	46.45
572.099	46.55
572.439	46.75
572.779	46.89
573.119	47.1
573.459	47.2
573.799	47.35
574.139	47.52
574.479	47.67
574.819	47.8
575.158	47.91
575.498	48.07
575.838	48.17
576.177	48.23
576.517	48.28
576.856	48.46
577.196	48.57
577.535	48.76
577.875	48.85
578.214	49.03
578.553	49.05
578.893	49.16
579.232	49.38
579.571	49.5
579.91	49.68
580.25	49.76
580.589	49.91
580.928	50.04
581.267	50.13
581.606	50.26
581.945	50.41
582.283	50.47
582.622	50.57
582.961	50.65
583.3	50.8
583.639	50.98
583.977	50.99
584.316	51.06
584.654	51.09
584.993	51.17
585.332	51.18
585.67	51.27
586.008	51.36
586.347	51.42
586.685	51.43
587.024	51.41
587.362	51.49
587.7	51.61
588.038	51.66
588.376	51.69
588.715	51.71
589.053	51.84
589.391	51.87
589.729	51.97
590.067	52.03
590.404	52.1
590.742	52.15
591.08	52.27
591.418	52.43
591.756	52.51
592.093	52.56
592.431	52.62
592.769	52.68
593.106	52.75
593.444	52.78
593.781	52.86
594.119	52.91
594.456	52.98
594.793	53.03
595.131	53.02
595.468	53.08
595.805	53.19
596.143	53.2
596.48	53.33
596.817	53.32
597.154	53.35
597.491	53.39
597.828	53.4
598.165	53.5
598.502	53.51
598.839	53.52
599.176	53.59
599.512	53.64
599.849	53.72
600.186	53.71
600.523	53.76
600.859	53.81
601.196	53.93
601.532	53.94
601.869	53.99
602.205	54.14
602.542	54.17
602.878	54.17
603.215	54.16
603.551	54.15
603.887	54.21
604.223	54.29
604.56	54.3
604.896	54.37
605.232	54.31
605.568	54.29
605.904	54.38
606.24	54.41
606.576	54.46
606.912	54.51
607.248	54.65
607.583	54.7
607.919	54.7
608.255	54.79
608.591	54.85
608.926	54.83
609.262	54.83
609.597	54.96
609.933	55.02
610.268	55.05
610.604	55.18
610.939	55.26
611.275	55.29
611.61	55.3
611.945	55.29
612.281	55.36
612.616	55.47
612.951	55.47
613.286	55.49
613.621	55.55
613.956	55.51
614.291	55.5
614.626	55.54
614.961	55.64
615.296	55.6
615.631	55.61
615.966	55.66
616.3	55.67
616.635	55.69
616.97	55.73
617.304	55.76
617.639	55.77
617.973	55.69
618.308	55.72
618.642	55.79
618.977	55.82
619.311	55.96
619.646	55.98
619.98	55.98
620.314	56.01
620.648	56.05
620.983	56.12
621.317	56.16
621.651	56.26
621.985	56.37
622.319	56.45
622.653	56.37
622.987	56.46
623.321	56.46
623.655	56.41
623.988	56.37
624.322	56.39
624.656	56.35
624.99	56.39
625.323	56.32
625.657	56.33
625.99	56.38
626.324	56.38
626.657	56.35
626.991	56.4
627.324	56.42
627.658	56.42
627.991	56.45
628.324	56.42
628.657	56.37
628.991	56.33
629.324	56.19
629.657	56.26
629.99	56.24
630.323	56.3
630.656	56.39
630.989	56.38
631.322	56.37
631.655	56.44
631.987	56.57
632.32	56.65
632.653	56.67
632.986	56.64
633.318	56.59
633.651	56.63
633.984	56.55
634.316	56.59
634.649	56.62
634.981	56.68
635.313	56.67
635.646	56.62
635.978	56.64
636.31	56.73
636.643	56.81
636.975	56.88
637.307	56.91
637.639	56.85
637.971	56.94
638.303	57.04
638.635	57.09
638.967	57.05
639.299	57.08
639.631	57.09
639.963	57.08
640.295	57.11
640.626	57.16
640.958	57.32
641.29	57.3
641.621	57.24
641.953	57.25
642.285	57.36
642.616	57.4
642.948	57.35
643.279	57.36
643.61	57.29
643.942	57.3
644.273	57.34
644.604	57.35
644.936	57.26
645.267	57.12
645.598	57.06
645.929	57
646.26	57.02
646.591	56.94
646.922	56.93
647.253	56.94
647.584	56.92
647.915	56.91
648.245	56.94
648.576	56.96
648.907	56.97
649.238	56.89
649.568	56.87
649.899	56.82
650.229	56.86
650.56	56.89
650.89	56.77
651.221	56.72
651.551	56.75
651.882	56.65
652.212	56.74
652.542	56.78
652.872	56.7
653.203	56.58
653.533	56.79
653.863	56.79
654.193	56.82
654.523	56.82
654.853	56.77
655.183	56.82
655.513	56.79
655.843	56.84
656.172	56.93
656.502	57.03
656.832	57.1
657.162	57.05
657.491	57.06
657.821	57.13
658.15	57.02
658.48	57.01
658.809	57.16
659.139	57.07
659.468	57.06
659.798	57.14
660.127	57.32
660.456	57.28
660.785	57.34
661.115	57.36
661.444	57.37
661.773	57.43
662.102	57.37
662.431	57.43
662.76	57.34
663.089	57.28
663.418	57.32
663.747	57.27
664.076	57.36
664.404	57.35
664.733	57.35
665.062	57.53
665.39	57.5
665.719	57.45
666.048	57.55
666.376	57.49
666.705	57.49
667.033	57.45
667.362	57.5
667.69	57.44
668.018	57.45
668.347	57.52
668.675	57.53
669.003	57.61
669.331	57.74
669.659	57.76
669.987	57.69
670.315	57.59
670.643	57.7
670.971	57.59
671.299	57.58
671.627	57.57
671.955	57.54
672.283	57.62
672.61	57.65
672.938	57.65
673.266	57.67
673.593	57.7
673.921	57.67
674.249	57.68
674.576	57.81
674.904	57.7
675.231	57.73
675.558	57.64
675.886	57.63
676.213	57.57
676.54	57.54
676.867	57.61
677.195	57.65
677.522	57.53
677.849	57.66
678.176	57.7
678.503	57.74
678.83	57.75
679.157	57.72
679.484	57.68
679.81	57.8
680.137	57.78
680.464	57.66
680.791	57.66
681.117	57.61
681.444	57.66
681.771	57.75
682.097	57.68
682.424	57.74
682.75	57.7
683.077	57.68
683.403	57.67
683.729	57.75
684.056	57.88
684.382	58.01
684.708	57.93
685.034	57.95
685.36	57.95
685.686	57.86
686.012	57.77
686.339	57.88
686.664	57.74
686.99	57.86
687.316	57.93
687.642	58.1
687.968	58.21
688.294	58.13
688.619	58.07
688.945	58.09
689.271	58
689.596	58.04
689.922	58.02
690.247	58.02
690.573	58
690.898	57.77
691.224	57.6
691.549	57.74
691.874	57.79
692.2	57.93
692.525	57.9
692.85	58
693.175	57.99
693.5	58.05
693.825	57.86
694.15	58.03
694.475	57.88
694.8	57.83
695.125	57.97
695.45	58.09
695.775	58.19
696.099	58.23
696.424	58.2
696.749	58.06
697.073	58.06
697.398	58.17
697.723	58.42
698.047	58.52
698.372	58.56
698.696	58.48
699.02	58.29
699.345	58.4
699.669	58.44
699.993	58.43
700.318	58.41
700.642	58.49
700.966	58.39
701.29	58.3
701.614	58.24
701.938	58.14
702.262	58.02
702.586	57.84
702.91	57.93
703.234	57.89
703.557	58.08
703.881	58.1
704.205	57.81
704.529	57.43
704.852	57.44
705.176	57.16
705.499	57.17
705.823	57.27
706.146	57.07
706.47	57.13
706.793	57.13
707.117	56.94
707.44	56.9
707.763	57.05
708.086	57.25
708.409	57.22
708.733	57.14
709.056	57.25
709.379	57.48
709.702	57.45
710.025	57.55
710.348	57.36
710.671	57.35
710.993	57.44
711.316	57.7
711.639	57.78
711.962	57.91
712.284	58.09
712.607	58.28
712.93	58.3
713.252	58.21
713.575	58.2
713.897	58.51
714.22	58.58
714.542	58.44
714.864	58.5
715.187	58.48
715.509	58.38
715.831	58.35
716.153	58.35
716.475	58.28
716.798	58.48
717.12	58.84
717.442	58.85
717.764	58.87
718.085	58.62
718.407	58.65
718.729	58.53
719.051	58.26
719.373	58.07
719.695	58.13
720.016	58.12
720.338	58.01
720.659	57.87
720.981	58.09
721.302	58.36
721.624	58.13
721.945	58.28
722.267	58.4
722.588	58.47
722.909	58.5
723.231	58.42
723.552	58.06
723.873	57.69
724.194	57.77
724.515	57.6
724.836	57.87
725.157	57.65
725.478	57.79
725.799	58.04
726.12	58.09
726.441	58.26
726.762	58.33
727.083	58.69
727.403	58.7
727.724	58.32
728.045	58.08
728.365	58.14
728.686	57.99
729.006	58
729.327	57.96
729.647	57.83
729.967	57.81
730.288	58.03
730.608	58.13
730.928	58.25
731.249	58.46
731.569	58.43
731.889	58.53
732.209	58.48
732.529	58.18
732.849	58.18
733.169	58.16
733.489	58.15
733.809	58.01
734.129	58
734.448	58.2
734.768	58.37
735.088	58.54
735.408	58.42
735.727	58.38
736.047	58.45
736.366	58.69
736.686	58.87
737.005	58.75
737.325	58.75
737.644	58.77
737.963	58.62
738.283	58.66
738.602	58.52
738.921	58.67
739.24	58.84
739.56	58.65
739.879	58.61
740.198	58.63
740.517	58.38
740.836	58.75
741.155	58.45
741.473	58.2
741.792	58.08
742.111	58.37
742.43	58.45
742.748	58.36
743.067	58.07
743.386	57.71
743.704	57.81
744.023	57.89
744.341	57.65
744.66	57.84
744.978	57.73
745.297	57.71
745.615	57.56
745.933	57.55
746.252	57.91
746.57	57.77
746.888	58
747.206	58.06
747.524	57.53
747.842	57.66
748.16	57.8
748.478	58.03
748.796	57.69
749.114	57.61
749.432	57.66
749.749	57.75
750.067	58.32
750.385	58.19
750.703	58.31
751.02	58.33
751.338	57.95
751.655	57.83
751.973	58
752.29	58.28
752.608	58.24
752.925	58.06
753.242	58.06
753.56	57.61
753.877	57.43
754.194	57.64
754.511	58.08
754.828	58.02
755.145	57.82
755.462	58.02
755.779	58
756.096	57.97
756.413	57.82
756.73	57.69
757.047	57.56
757.364	57.29
757.68	57.28
757.997	57.64
758.314	57.71
758.63	57.58
758.947	57.2
759.264	57.16
759.58	57.15
759.896	57.44
760.213	57.54
760.529	58.05
760.846	57.92
761.162	57.77
761.478	58.03
761.794	57.65
762.11	57.7
762.426	57.75
762.743	57.72
763.059	57.92
763.375	57.97
763.69	58
764.006	57.97
764.322	58.08
764.638	58.02
764.954	58.07
765.27	57.99
765.585	58.11
765.901	58.21
766.216	58.35
766.532	58.11
766.848	58.17
767.163	58.13
767.478	58.22
767.794	58.05
768.109	57.68
768.424	57.97
768.74	58.07
769.055	58.29
769.37	58.66
769.685	58.61
770	58.61
770.315	58.76
770.63	59.13
770.945	59.02
771.26	59.02
771.575	58.42
771.89	58.86
772.205	59.09
772.52	59.17
772.834	58.62
773.149	59.08
773.464	58.86
773.778	58.68
774.093	58.49
774.407	58.61
774.722	58.58
775.036	58.64
775.351	58.45
775.665	58.15
775.979	57.5
776.293	57.5
776.608	57.1
776.922	56.61
777.236	56.52
777.55	56.37
777.864	56.31
778.178	57.04
778.492	56.75
778.806	56.61
779.12	56.76
779.434	57.16
779.747	56.74
780.061	57.44
780.375	57.43
780.689	57.81
781.002	58.04
781.316	58.22
781.629	58.05
781.943	58.31
782.256	58.04
782.57	58.18
782.883	58.14
783.196	58.88
783.51	59.03
783.823	58.62
784.136	58.59
784.449	58.27
784.762	58.51
785.075	58.77
785.388	58.63
785.701	58.3
786.014	57.92
786.327	58
786.64	57.52
786.953	57.16
787.266	56.83
787.578	56.76
787.891	56.54
788.204	56.43
788.516	56.5
788.829	56.58
789.141	56.54
789.454	56.41
789.766	55.95
790.079	56.53
790.391	56.9
790.703	57.29
791.016	57.96
791.328	57.64
791.64	57.94
791.952	58.22
792.264	58.45
792.576	58.53
792.888	58.54
793.2	58.4
793.512	58.48
793.824	58.34
794.136	57.99
794.448	58.19
794.76	58.49
795.071	58.3
795.383	58.35
795.695	58.6
796.006	58.64
796.318	58.68
796.629	58.25
796.941	57.84
797.252	57.86
797.564	57.74
797.875	57.7
798.186	57.55
798.497	56.87
798.809	56.8
799.12	56.79
799.431	56.87
799.742	56.9
800.053	57.06
800.364	57.26
800.675	57.6
800.986	57.54
801.297	57.6
801.608	57.4
801.918	57.42
802.229	57.82
802.54	57.41
802.851	57.6
803.161	57.61
803.472	57.87
803.782	57.84
804.093	57.44
804.403	57.6
804.714	57.17
805.024	57.6
805.334	57.61
805.645	57.79
805.955	57.46
806.265	57.89
806.575	57.79
806.885	57.68
807.195	57.44
807.505	57.08
807.815	57.38
808.125	57.68
808.435	57.92
808.745	57.68
809.055	58.05
809.365	57.49
809.674	56.71
809.984	56.83
810.294	56.65
810.603	56.58
810.913	56.5
811.222	56.78
811.532	57.26
811.841	57.21
812.151	57.76
812.46	57.69
812.769	56.62
813.079	57.16
813.388	57.4
813.697	58.07
814.006	59.06
814.315	58.88
814.624	58.35
814.933	58.65
815.242	58.66
815.551	58.91
815.86	59.29
816.169	60.77
816.478	60.7
816.786	60.87
817.095	61.01
817.404	60.61
817.712	60.7
818.021	60.46
818.33	60.2
818.638	59.48
818.947	59.2
819.255	59.75
819.563	59.28
819.872	59.13
820.18	59.17
820.488	58.62
820.796	58.34
821.105	58.38
821.413	58.18
821.721	58.14
822.029	58.16
822.337	57.95
822.645	57.67
822.953	57.81
823.26	57.83
823.568	57.96
823.876	58.1
824.184	58.09
824.491	57.96
824.799	58.01
825.107	58.27
825.414	58.4
825.722	58.3
826.029	58.61
826.337	58.66
826.644	58.43
826.951	58.61
827.259	58.77
827.566	58.9
827.873	59.08
828.18	58.93
828.488	58.98
828.795	59.35
829.102	59.56
829.409	59.48
829.716	59.29
830.023	59.19
830.329	59.07
830.636	58.95
830.943	59.27
831.25	59.24
831.557	58.78
831.863	59.01
832.17	59.48
832.476	58.97
832.783	59.4
833.089	59.45
833.396	59.54
833.702	59.38
834.009	59.65
834.315	59.6
834.621	59.95
834.928	59.69
835.234	59.88
835.54	59.34
835.846	59.08
836.152	59.54
836.458	59.65
836.764	59.62
837.07	59.44
837.376	59.23
837.682	59.53
837.988	59.89
838.293	60.27
838.599	59.47
838.905	59.59
839.211	59.19
839.516	59.69
839.822	59.76
840.127	59.7
840.433	59.21
840.738	58.38
841.044	58.56
841.349	58.53
841.654	58.01
841.959	58.96
842.265	58.97
842.57	58.59
842.875	59.36
843.18	60.36
843.485	60.85
843.79	60.25
844.095	59.89
844.4	60.6
844.705	58.88
845.01	59.12
845.315	58.76
845.619	58.79
845.924	57.7
846.229	57.59
846.533	58.29
846.838	58.01
847.142	59.37
847.447	59.41
847.751	60.99
848.056	62.36
848.36	63.54
848.664	65.68
848.969	66.51
849.273	63.64
849.577	62.15
849.881	62.54
850.185	65.04
850.489	65.35
850.794	61.61
851.097	62.7
851.401	66.2
851.705	65.85
852.009	62.83
852.313	61.81
852.617	60.72
852.92	60.2
853.224	60.69
853.528	61.16
853.831	60.77
854.135	58.52
854.438	56.8
854.742	55.36
855.045	54.42
855.349	54.55
855.652	54.75
855.955	54.73
856.259	53.55
856.562	52.64
856.865	52.55
857.168	54.41
857.471	54.08
857.774	52.4
858.077	52.53
858.38	54.83
858.683	56.71
858.986	59.33
859.289	59.51
859.592	58.5
859.894	58.91
860.197	59.09
860.5	61.25
860.802	60.7
861.105	61.58
861.407	60.25
861.71	57.83
862.012	60.02
862.315	61.75
862.617	64.61
862.919	63.58
863.222	63.21
863.524	62.04
863.826	62.51
864.128	62.08
864.43	62.27
864.732	61.52
865.034	61.9
865.336	60.29
865.638	59.65
865.94	60.79
866.242	61.59
866.544	61.45
866.846	61.19
867.147	61.31
867.449	63.35
867.751	63.71
868.052	64.17
868.354	60.81
868.655	61.03
868.957	58.25
869.258	59.05
869.56	60.51
869.861	61.25
870.162	61.82
870.463	61.59
870.765	61.81
871.066	61.77
871.367	60.59
871.668	61.12
871.969	64.22
872.27	64
872.571	61.13
872.872	59.81
873.173	57.5
873.473	59.62
873.774	57.66
874.075	59.01
874.376	58.41
874.676	62.38
874.977	59.41
875.277	62.22
875.578	62.21
875.878	60.74
876.179	61.42
876.479	60.71
876.78	60.09
877.08	60.14
877.38	61.09
877.68	62.02
877.981	61.94
878.281	57.27
878.581	56.66
