Data from BA58010_Reflection_00003.txt Node
Date: Mon Nov 18 16:06:47 EST 2019
User: vgr7
Spectrometer: USB2G7710
Scans to average: 3
Trigger mode: 4
Integration Time (sec): 2.000000E-2
Electric dark correction enabled: true
Boxcar width: 10
XAxis mode: Wavelengths
Number of Pixels in Spectrum: 2048
>>>>>Begin Spectral Data<<<<<
177.721	-61.21
178.105	-6.19
178.488	135.65
178.871	284.36
179.254	-1738.71
179.636	-48.46
180.019	-287.45
180.402	-900
180.785	-120.68
181.168	169.33
181.55	34.23
181.933	75.05
182.316	85.56
182.698	80.8
183.081	98.69
183.463	83.27
183.846	88.05
184.228	113.17
184.611	98.08
184.993	133.37
185.376	174.49
185.758	302.57
186.14	78.77
186.522	82.97
186.904	82.31
187.287	62.47
187.669	197.61
188.051	168.43
188.433	116.36
188.815	86.34
189.197	52.6
189.579	940
189.961	-209.98
190.342	-2541.79
190.724	-91.49
191.106	-169.95
191.488	-96.06
191.869	-101.29
192.251	-170.95
192.633	-107.37
193.014	-224.97
193.396	-1013.54
193.777	-3883.61
194.159	7042.86
194.54	2738.55
194.922	-356.17
195.303	-128.18
195.684	-152.45
196.065	18.2
196.447	16.4
196.828	-32.46
197.209	5.49
197.59	79.43
197.971	-1220
198.352	417.16
198.733	607.99
199.114	589.97
199.495	3279.1
199.876	-2484.16
200.257	4477.05
200.638	1185.11
201.018	1953.5
201.399	1647.77
201.78	599.07
202.16	492.57
202.541	412.61
202.922	-1307.08
203.302	-163.46
203.683	-1809.09
204.063	36.17
204.444	11.5
204.824	-3.04
205.204	13.65
205.585	19.05
205.965	57.48
206.345	58.3
206.725	59.64
207.106	74.69
207.486	120.39
207.866	196.14
208.246	176.26
208.626	174.64
209.006	180.12
209.386	132.11
209.766	93.13
210.145	83.11
210.525	74.24
210.905	70.57
211.285	42.74
211.664	20.35
212.044	24.27
212.424	20.82
212.803	304.19
213.183	-44.43
213.562	-31.93
213.942	-63.91
214.321	-55.43
214.701	-98.81
215.08	-94.95
215.459	-51.76
215.838	-45.02
216.218	-17.94
216.597	1.46
216.976	-3.07
217.355	-21.2
217.734	-12.57
218.113	-14.21
218.492	-10.25
218.871	-20.69
219.25	-24.05
219.629	-44.39
220.008	-53.46
220.387	-56.37
220.766	-50.09
221.144	-61.55
221.523	-61.52
221.902	-66.42
222.28	-52.17
222.659	-41.24
223.037	-31.55
223.416	-30.58
223.794	-28.76
224.173	-29.41
224.551	-23.09
224.929	-21.68
225.308	-12.79
225.686	-14.13
226.064	-11.91
226.442	-16.38
226.821	-9.89
227.199	-10.51
227.577	-8.89
227.955	-5.71
228.333	-1.97
228.711	0.45
229.089	6.44
229.467	2.25
229.845	3.65
230.222	-0.45
230.6	0.2
230.978	0.24
231.356	3.65
231.733	2.44
232.111	3.52
232.488	3.64
232.866	3.68
233.243	3.55
233.621	2.62
233.998	3.78
234.376	4.97
234.753	3.28
235.13	3.35
235.508	5.27
235.885	3.02
236.262	1.82
236.639	0.59
237.016	-0.25
237.393	1.42
237.77	0.72
238.147	1.73
238.524	1.31
238.901	2.02
239.278	1.59
239.655	2.19
240.032	2.68
240.409	2.37
240.785	2.25
241.162	2.67
241.539	2.49
241.915	2.12
242.292	2.17
242.668	2.33
243.045	2.27
243.421	2.19
243.798	2.43
244.174	2.25
244.551	2.59
244.927	2.29
245.303	2.12
245.679	2.1
246.056	1.86
246.432	1.68
246.808	1.57
247.184	1.47
247.56	1.21
247.936	1.12
248.312	1.11
248.688	1.21
249.064	0.97
249.44	0.94
249.815	0.95
250.191	0.96
250.567	0.96
250.943	0.86
251.318	0.9
251.694	0.92
252.069	0.78
252.445	0.72
252.82	0.83
253.196	0.81
253.571	0.92
253.947	1.12
254.322	1.52
254.697	1.45
255.073	1.38
255.448	1.32
255.823	1.32
256.198	1.56
256.573	1.47
256.948	1.5
257.323	1.63
257.698	1.78
258.073	1.76
258.448	1.63
258.823	1.72
259.198	1.62
259.573	1.51
259.948	1.62
260.322	1.49
260.697	1.34
261.072	1.34
261.446	1.29
261.821	1.35
262.195	1.24
262.57	1.36
262.944	1.43
263.319	1.41
263.693	1.35
264.067	1.37
264.442	1.54
264.816	1.53
265.19	1.39
265.564	1.45
265.938	1.32
266.313	1.27
266.687	1.36
267.061	1.31
267.435	1.56
267.809	1.6
268.183	1.72
268.556	1.74
268.93	1.78
269.304	1.75
269.678	1.75
270.051	1.73
270.425	1.68
270.799	1.58
271.172	1.72
271.546	1.65
271.919	1.43
272.293	1.28
272.666	1.28
273.04	1.47
273.413	1.27
273.787	1.34
274.16	1.42
274.533	1.44
274.906	1.4
275.279	1.25
275.653	1.2
276.026	1.04
276.399	1.06
276.772	1.06
277.145	0.9
277.518	0.87
277.891	0.98
278.263	0.88
278.636	0.9
279.009	0.88
279.382	1.02
279.755	0.91
280.127	1.18
280.5	1.24
280.872	1.09
281.245	1.15
281.617	1.24
281.99	1.3
282.362	1.25
282.735	1.28
283.107	1.35
283.479	1.5
283.852	1.45
284.224	1.59
284.596	1.57
284.968	1.63
285.34	1.67
285.713	1.56
286.085	1.59
286.457	1.66
286.829	1.68
287.201	1.58
287.572	1.64
287.944	1.55
288.316	1.55
288.688	1.63
289.06	1.66
289.431	1.63
289.803	1.68
290.175	1.65
290.546	1.83
290.918	1.79
291.289	1.65
291.661	1.71
292.032	1.64
292.403	1.64
292.775	1.72
293.146	1.62
293.517	1.66
293.889	1.66
294.26	1.65
294.631	1.65
295.002	1.64
295.373	1.68
295.744	1.68
296.115	1.63
296.486	1.61
296.857	1.51
297.228	1.49
297.599	1.42
297.97	1.31
298.34	1.14
298.711	1.2
299.082	1.23
299.452	1.29
299.823	1.43
300.194	1.43
300.564	1.42
300.935	1.45
301.305	1.44
301.676	1.46
302.046	1.49
302.416	1.53
302.787	1.59
303.157	1.59
303.527	1.5
303.897	1.48
304.267	1.57
304.637	1.77
305.008	1.88
305.378	2
305.748	2.21
306.117	2.27
306.487	2.29
306.857	2.22
307.227	2.23
307.597	2.07
307.967	2.06
308.336	2.04
308.706	2.02
309.076	2.11
309.445	1.93
309.815	1.81
310.184	1.69
310.554	1.63
310.923	1.67
311.293	1.77
311.662	1.79
312.031	1.64
312.401	1.53
312.77	1.52
313.139	1.44
313.508	1.33
313.877	1.22
314.246	1.18
314.616	1.06
314.985	1.03
315.353	0.94
315.722	1
316.091	1.1
316.46	1.08
316.829	1.01
317.198	1.17
317.567	1.17
317.935	1.24
318.304	1.26
318.672	1.2
319.041	1.19
319.41	1.14
319.778	1.24
320.147	1.37
320.515	1.17
320.883	1.08
321.252	1.23
321.62	1.39
321.988	1.37
322.357	1.6
322.725	1.6
323.093	1.64
323.461	1.51
323.829	1.39
324.197	1.55
324.565	1.53
324.933	1.5
325.301	1.58
325.669	1.62
326.037	1.67
326.405	1.68
326.772	1.71
327.14	1.83
327.508	1.84
327.875	1.68
328.243	1.79
328.61	1.8
328.978	1.77
329.346	1.74
329.713	1.67
330.08	1.7
330.448	1.66
330.815	1.6
331.182	1.64
331.55	1.78
331.917	1.61
332.284	1.69
332.651	1.61
333.018	1.61
333.385	1.46
333.752	1.66
334.119	1.68
334.486	1.46
334.853	1.38
335.22	1.35
335.587	1.55
335.954	1.48
336.32	1.57
336.687	1.54
337.054	1.51
337.42	1.62
337.787	1.54
338.153	1.52
338.52	1.63
338.886	1.61
339.253	1.52
339.619	1.57
339.986	1.5
340.352	1.56
340.718	1.5
341.084	1.61
341.451	1.47
341.817	1.43
342.183	1.56
342.549	1.67
342.915	1.68
343.281	1.58
343.647	1.62
344.013	1.65
344.379	1.61
344.745	1.62
345.11	1.63
345.476	1.68
345.842	1.61
346.208	1.59
346.573	1.69
346.939	1.73
347.304	1.77
347.67	1.78
348.035	1.86
348.401	1.96
348.766	1.92
349.132	1.91
349.497	1.89
349.862	1.87
350.228	1.76
350.593	1.72
350.958	1.7
351.323	1.68
351.688	1.67
352.053	1.72
352.418	1.79
352.783	1.84
353.148	1.79
353.513	1.89
353.878	1.83
354.243	1.85
354.608	1.79
354.972	1.69
355.337	1.69
355.702	1.7
356.066	1.68
356.431	1.64
356.795	1.64
357.16	1.69
357.524	1.69
357.889	1.67
358.253	1.67
358.618	1.7
358.982	1.67
359.346	1.63
359.71	1.64
360.075	1.63
360.439	1.62
360.803	1.59
361.167	1.57
361.531	1.59
361.895	1.53
362.259	1.52
362.623	1.58
362.987	1.56
363.351	1.56
363.714	1.58
364.078	1.61
364.442	1.56
364.806	1.57
365.169	1.59
365.533	1.61
365.896	1.63
366.26	1.6
366.623	1.64
366.987	1.65
367.35	1.64
367.714	1.63
368.077	1.52
368.44	1.59
368.803	1.58
369.167	1.58
369.53	1.57
369.893	1.58
370.256	1.6
370.619	1.63
370.982	1.52
371.345	1.46
371.708	1.51
372.071	1.56
372.434	1.59
372.797	1.57
373.159	1.57
373.522	1.61
373.885	1.69
374.247	1.71
374.61	1.71
374.973	1.68
375.335	1.69
375.698	1.73
376.06	1.7
376.423	1.75
376.785	1.77
377.147	1.81
377.51	1.84
377.872	1.86
378.234	1.84
378.596	1.91
378.958	1.92
379.321	1.9
379.683	1.94
380.045	1.93
380.407	1.93
380.769	1.93
381.13	1.93
381.492	1.88
381.854	1.84
382.216	1.84
382.578	1.89
382.939	1.87
383.301	1.87
383.663	1.82
384.024	1.77
384.386	1.79
384.747	1.76
385.109	1.74
385.47	1.7
385.832	1.71
386.193	1.72
386.554	1.73
386.916	1.7
387.277	1.66
387.638	1.66
387.999	1.65
388.36	1.65
388.721	1.62
389.082	1.61
389.443	1.6
389.804	1.61
390.165	1.59
390.526	1.58
390.887	1.57
391.248	1.62
391.609	1.63
391.969	1.62
392.33	1.63
392.691	1.62
393.051	1.63
393.412	1.61
393.772	1.61
394.133	1.6
394.493	1.64
394.854	1.67
395.214	1.67
395.574	1.71
395.935	1.71
396.295	1.73
396.655	1.74
397.015	1.78
397.376	1.76
397.736	1.79
398.096	1.81
398.456	1.82
398.816	1.79
399.176	1.78
399.535	1.77
399.895	1.75
400.255	1.76
400.615	1.76
400.975	1.77
401.334	1.74
401.694	1.75
402.054	1.73
402.413	1.72
402.773	1.69
403.132	1.67
403.492	1.68
403.851	1.66
404.211	1.66
404.57	1.65
404.929	1.68
405.288	1.65
405.648	1.63
406.007	1.63
406.366	1.66
406.725	1.7
407.084	1.71
407.443	1.72
407.802	1.74
408.161	1.74
408.52	1.73
408.879	1.75
409.238	1.74
409.596	1.75
409.955	1.72
410.314	1.74
410.673	1.74
411.031	1.73
411.39	1.73
411.748	1.73
412.107	1.74
412.465	1.73
412.824	1.75
413.182	1.75
413.54	1.75
413.899	1.74
414.257	1.75
414.615	1.75
414.974	1.76
415.332	1.73
415.69	1.73
416.048	1.75
416.406	1.75
416.764	1.76
417.122	1.76
417.48	1.77
417.838	1.77
418.195	1.76
418.553	1.77
418.911	1.78
419.269	1.79
419.626	1.78
419.984	1.77
420.342	1.76
420.699	1.77
421.057	1.77
421.414	1.76
421.772	1.74
422.129	1.74
422.486	1.73
422.844	1.75
423.201	1.73
423.558	1.72
423.915	1.72
424.273	1.72
424.63	1.71
424.987	1.7
425.344	1.7
425.701	1.7
426.058	1.69
426.415	1.68
426.772	1.66
427.128	1.66
427.485	1.66
427.842	1.67
428.199	1.68
428.555	1.66
428.912	1.69
429.269	1.69
429.625	1.69
429.982	1.7
430.338	1.71
430.695	1.72
431.051	1.74
431.407	1.73
431.764	1.71
432.12	1.71
432.476	1.72
432.832	1.73
433.189	1.75
433.545	1.74
433.901	1.74
434.257	1.75
434.613	1.76
434.969	1.76
435.325	1.75
435.681	1.74
436.036	1.74
436.392	1.73
436.748	1.72
437.104	1.7
437.459	1.7
437.815	1.69
438.171	1.69
438.526	1.7
438.882	1.71
439.237	1.73
439.593	1.73
439.948	1.73
440.304	1.73
440.659	1.71
441.014	1.72
441.369	1.72
441.725	1.69
442.08	1.69
442.435	1.69
442.79	1.7
443.145	1.7
443.5	1.71
443.855	1.71
444.21	1.71
444.565	1.72
444.92	1.73
445.275	1.73
445.629	1.71
445.984	1.71
446.339	1.71
446.693	1.69
447.048	1.71
447.403	1.71
447.757	1.69
448.112	1.7
448.466	1.69
448.82	1.69
449.175	1.72
449.529	1.7
449.883	1.69
450.238	1.68
450.592	1.69
450.946	1.67
451.3	1.66
451.654	1.65
452.008	1.66
452.362	1.64
452.716	1.65
453.07	1.69
453.424	1.69
453.778	1.69
454.132	1.7
454.486	1.68
454.839	1.67
455.193	1.69
455.547	1.69
455.9	1.7
456.254	1.7
456.607	1.7
456.961	1.71
457.314	1.72
457.668	1.72
458.021	1.71
458.375	1.72
458.728	1.74
459.081	1.75
459.434	1.75
459.787	1.76
460.141	1.74
460.494	1.73
460.847	1.72
461.2	1.71
461.553	1.71
461.906	1.73
462.259	1.74
462.611	1.75
462.964	1.76
463.317	1.77
463.67	1.77
464.022	1.76
464.375	1.75
464.728	1.76
465.08	1.77
465.433	1.78
465.785	1.79
466.138	1.77
466.49	1.77
466.843	1.76
467.195	1.76
467.547	1.78
467.899	1.78
468.252	1.79
468.604	1.78
468.956	1.78
469.308	1.76
469.66	1.75
470.012	1.73
470.364	1.74
470.716	1.73
471.068	1.72
471.42	1.73
471.772	1.74
472.123	1.75
472.475	1.75
472.827	1.75
473.178	1.74
473.53	1.76
473.882	1.77
474.233	1.77
474.585	1.75
474.936	1.74
475.288	1.74
475.639	1.74
475.99	1.75
476.342	1.75
476.693	1.77
477.044	1.79
477.395	1.79
477.746	1.77
478.097	1.77
478.448	1.77
478.8	1.77
479.15	1.76
479.501	1.75
479.852	1.73
480.203	1.73
480.554	1.73
480.905	1.73
481.255	1.73
481.606	1.74
481.957	1.75
482.307	1.76
482.658	1.76
483.009	1.77
483.359	1.77
483.709	1.77
484.06	1.76
484.41	1.76
484.761	1.76
485.111	1.76
485.461	1.77
485.811	1.78
486.162	1.78
486.512	1.79
486.862	1.79
487.212	1.8
487.562	1.8
487.912	1.81
488.262	1.81
488.612	1.81
488.961	1.81
489.311	1.82
489.661	1.82
490.011	1.81
490.36	1.8
490.71	1.8
491.06	1.81
491.409	1.81
491.759	1.8
492.108	1.82
492.458	1.81
492.807	1.81
493.157	1.8
493.506	1.8
493.855	1.79
494.204	1.79
494.554	1.79
494.903	1.79
495.252	1.78
495.601	1.8
495.95	1.8
496.299	1.79
496.648	1.78
496.997	1.78
497.346	1.79
497.695	1.8
498.043	1.82
498.392	1.8
498.741	1.81
499.09	1.81
499.438	1.8
499.787	1.81
500.135	1.82
500.484	1.83
500.832	1.84
501.181	1.85
501.529	1.84
501.878	1.85
502.226	1.85
502.574	1.85
502.923	1.84
503.271	1.85
503.619	1.87
503.967	1.88
504.315	1.87
504.663	1.86
505.011	1.85
505.359	1.84
505.707	1.86
506.055	1.85
506.403	1.86
506.751	1.87
507.098	1.87
507.446	1.87
507.794	1.86
508.141	1.86
508.489	1.85
508.837	1.87
509.184	1.89
509.531	1.9
509.879	1.89
510.226	1.91
510.574	1.91
510.921	1.9
511.268	1.9
511.616	1.9
511.963	1.91
512.31	1.93
512.657	1.94
513.004	1.94
513.351	1.95
513.698	1.96
514.045	1.95
514.392	1.96
514.739	1.95
515.086	1.97
515.432	1.98
515.779	1.96
516.126	1.95
516.473	1.95
516.819	1.96
517.166	1.96
517.512	1.95
517.859	1.95
518.205	1.95
518.552	1.97
518.898	1.97
519.245	1.97
519.591	1.94
519.937	1.92
520.283	1.92
520.629	1.94
520.976	1.94
521.322	1.94
521.668	1.94
522.014	1.94
522.36	1.94
522.706	1.94
523.052	1.96
523.398	1.97
523.743	1.96
524.089	1.96
524.435	1.97
524.781	1.97
525.126	1.97
525.472	1.98
525.817	1.96
526.163	1.97
526.509	1.97
526.854	1.99
527.199	2
527.545	2.01
527.89	2
528.235	2
528.581	2
528.926	2
529.271	2
529.616	1.99
529.961	1.99
530.306	1.98
530.651	1.98
530.996	1.98
531.341	1.98
531.686	1.97
532.031	1.98
532.376	1.98
532.721	1.97
533.065	1.99
533.41	1.98
533.755	1.98
534.099	1.97
534.444	1.98
534.788	1.98
535.133	1.98
535.477	1.99
535.822	2
536.166	2
536.51	2.02
536.855	2.03
537.199	2.04
537.543	2.07
537.887	2.07
538.231	2.07
538.576	2.07
538.92	2.08
539.264	2.08
539.608	2.09
539.951	2.1
540.295	2.09
540.639	2.12
540.983	2.1
541.327	2.12
541.671	2.1
542.014	2.1
542.358	2.1
542.701	2.09
543.045	2.1
543.389	2.1
543.732	2.1
544.075	2.1
544.419	2.09
544.762	2.07
545.105	2.08
545.449	2.09
545.792	2.09
546.135	2.1
546.478	2.08
546.821	2.07
547.165	2.05
547.508	2.06
547.851	2.05
548.194	2.05
548.536	2.04
548.879	2.07
549.222	2.07
549.565	2.08
549.908	2.09
550.25	2.09
550.593	2.09
550.936	2.07
551.278	2.06
551.621	2.11
551.963	2.13
552.306	2.13
552.648	2.12
552.991	2.14
553.333	2.15
553.675	2.15
554.017	2.15
554.36	2.17
554.702	2.21
555.044	2.23
555.386	2.23
555.728	2.24
556.07	2.24
556.412	2.22
556.754	2.22
557.096	2.24
557.438	2.23
557.78	2.22
558.121	2.25
558.463	2.26
558.805	2.25
559.147	2.26
559.488	2.25
559.83	2.25
560.171	2.24
560.513	2.22
560.854	2.23
561.196	2.24
561.537	2.22
561.878	2.2
562.22	2.18
562.561	2.19
562.902	2.23
563.243	2.21
563.584	2.23
563.925	2.22
564.266	2.18
564.607	2.18
564.948	2.18
565.289	2.19
565.63	2.19
565.971	2.17
566.312	2.15
566.653	2.15
566.993	2.18
567.334	2.18
567.675	2.19
568.015	2.18
568.356	2.16
568.696	2.17
569.037	2.17
569.377	2.19
569.718	2.19
570.058	2.18
570.398	2.17
570.739	2.18
571.079	2.19
571.419	2.18
571.759	2.21
572.099	2.22
572.439	2.19
572.779	2.2
573.119	2.21
573.459	2.24
573.799	2.24
574.139	2.2
574.479	2.19
574.819	2.2
575.158	2.2
575.498	2.21
575.838	2.21
576.177	2.18
576.517	2.18
576.856	2.18
577.196	2.16
577.535	2.14
577.875	2.12
578.214	2.14
578.553	2.17
578.893	2.15
579.232	2.14
579.571	2.16
579.91	2.12
580.25	2.12
580.589	2.1
580.928	2.12
581.267	2.16
581.606	2.16
581.945	2.12
582.283	2.13
582.622	2.14
582.961	2.16
583.3	2.17
583.639	2.17
583.977	2.18
584.316	2.16
584.654	2.19
584.993	2.2
585.332	2.2
585.67	2.22
586.008	2.21
586.347	2.21
586.685	2.2
587.024	2.19
587.362	2.17
587.7	2.17
588.038	2.17
588.376	2.14
588.715	2.17
589.053	2.2
589.391	2.21
589.729	2.24
590.067	2.24
590.404	2.23
590.742	2.24
591.08	2.21
591.418	2.26
591.756	2.23
592.093	2.21
592.431	2.2
592.769	2.19
593.106	2.22
593.444	2.22
593.781	2.16
594.119	2.21
594.456	2.21
594.793	2.2
595.131	2.17
595.468	2.18
595.805	2.16
596.143	2.15
596.48	2.13
596.817	2.12
597.154	2.12
597.491	2.12
597.828	2.1
598.165	2.1
598.502	2.06
598.839	2.1
599.176	2.11
599.512	2.09
599.849	2.07
600.186	2.05
600.523	2.06
600.859	2.13
601.196	2.13
601.532	2.14
601.869	2.14
602.205	2.17
602.542	2.19
602.878	2.18
603.215	2.2
603.551	2.2
603.887	2.2
604.223	2.22
604.56	2.23
604.896	2.23
605.232	2.26
605.568	2.31
605.904	2.26
606.24	2.29
606.576	2.28
606.912	2.31
607.248	2.29
607.583	2.31
607.919	2.3
608.255	2.27
608.591	2.29
608.926	2.32
609.262	2.29
609.597	2.29
609.933	2.29
610.268	2.27
610.604	2.28
610.939	2.25
611.275	2.23
611.61	2.22
611.945	2.21
612.281	2.19
612.616	2.15
612.951	2.17
613.286	2.16
613.621	2.2
613.956	2.19
614.291	2.2
614.626	2.18
614.961	2.17
615.296	2.16
615.631	2.21
615.966	2.18
616.3	2.2
616.635	2.23
616.97	2.29
617.304	2.29
617.639	2.26
617.973	2.25
618.308	2.29
618.642	2.3
618.977	2.33
619.311	2.34
619.646	2.37
619.98	2.39
620.314	2.36
620.648	2.32
620.983	2.33
621.317	2.36
621.651	2.32
621.985	2.36
622.319	2.38
622.653	2.33
622.987	2.38
623.321	2.38
623.655	2.38
623.988	2.39
624.322	2.39
624.656	2.4
624.99	2.42
625.323	2.37
625.657	2.36
625.99	2.35
626.324	2.35
626.657	2.39
626.991	2.41
627.324	2.42
627.658	2.45
627.991	2.48
628.324	2.48
628.657	2.51
628.991	2.49
629.324	2.48
629.657	2.48
629.99	2.48
630.323	2.47
630.656	2.45
630.989	2.47
631.322	2.46
631.655	2.48
631.987	2.44
632.32	2.46
632.653	2.47
632.986	2.49
633.318	2.47
633.651	2.46
633.984	2.44
634.316	2.44
634.649	2.41
634.981	2.38
635.313	2.37
635.646	2.39
635.978	2.36
636.31	2.34
636.643	2.37
636.975	2.35
637.307	2.37
637.639	2.32
637.971	2.28
638.303	2.32
638.635	2.29
638.967	2.34
639.299	2.39
639.631	2.42
639.963	2.38
640.295	2.39
640.626	2.4
640.958	2.44
641.29	2.47
641.621	2.55
641.953	2.54
642.285	2.56
642.616	2.52
642.948	2.62
643.279	2.65
643.61	2.62
643.942	2.63
644.273	2.58
644.604	2.59
644.936	2.59
645.267	2.58
645.598	2.64
645.929	2.62
646.26	2.64
646.591	2.62
646.922	2.61
647.253	2.65
647.584	2.6
647.915	2.54
648.245	2.51
648.576	2.47
648.907	2.51
649.238	2.46
649.568	2.49
649.899	2.44
650.229	2.5
650.56	2.49
650.89	2.47
651.221	2.5
651.551	2.54
651.882	2.56
652.212	2.57
652.542	2.56
652.872	2.52
653.203	2.5
653.533	2.46
653.863	2.45
654.193	2.41
654.523	2.42
654.853	2.44
655.183	2.47
655.513	2.5
655.843	2.47
656.172	2.46
656.502	2.45
656.832	2.45
657.162	2.46
657.491	2.41
657.821	2.38
658.15	2.42
658.48	2.4
658.809	2.38
659.139	2.32
659.468	2.3
659.798	2.37
660.127	2.39
660.456	2.44
660.785	2.49
661.115	2.52
661.444	2.49
661.773	2.57
662.102	2.56
662.431	2.58
662.76	2.52
663.089	2.55
663.418	2.56
663.747	2.53
664.076	2.46
664.404	2.5
664.733	2.57
665.062	2.54
665.39	2.52
665.719	2.51
666.048	2.61
666.376	2.61
666.705	2.57
667.033	2.54
667.362	2.57
667.69	2.51
668.018	2.44
668.347	2.46
668.675	2.38
669.003	2.45
669.331	2.47
669.659	2.47
669.987	2.41
670.315	2.41
670.643	2.44
670.971	2.43
671.299	2.47
671.627	2.47
671.955	2.51
672.283	2.54
672.61	2.54
672.938	2.49
673.266	2.44
673.593	2.55
673.921	2.48
674.249	2.42
674.576	2.43
674.904	2.53
675.231	2.53
675.558	2.5
675.886	2.34
676.213	2.31
676.54	2.39
676.867	2.46
677.195	2.43
677.522	2.46
677.849	2.54
678.176	2.49
678.503	2.45
678.83	2.39
679.157	2.34
679.484	2.36
679.81	2.37
680.137	2.4
680.464	2.34
680.791	2.32
681.117	2.33
681.444	2.41
681.771	2.33
682.097	2.35
682.424	2.4
682.75	2.46
683.077	2.43
683.403	2.5
683.729	2.48
684.056	2.52
684.382	2.53
684.708	2.48
685.034	2.51
685.36	2.56
685.686	2.58
686.012	2.6
686.339	2.61
686.664	2.62
686.99	2.58
687.316	2.57
687.642	2.74
687.968	2.75
688.294	2.76
688.619	2.81
688.945	2.79
689.271	2.83
689.596	2.8
689.922	2.77
690.247	2.68
690.573	2.7
690.898	2.68
691.224	2.67
691.549	2.75
691.874	2.75
692.2	2.73
692.525	2.77
692.85	2.87
693.175	2.89
693.5	2.86
693.825	2.95
694.15	2.94
694.475	2.86
694.8	2.92
695.125	2.84
695.45	2.67
695.775	2.62
696.099	2.56
696.424	2.67
696.749	2.71
697.073	2.72
697.398	2.75
697.723	2.76
698.047	2.75
698.372	2.66
698.696	2.69
699.02	2.66
699.345	2.58
699.669	2.6
699.993	2.55
700.318	2.58
700.642	2.57
700.966	2.59
701.29	2.53
701.614	2.51
701.938	2.53
702.262	2.79
702.586	2.85
702.91	2.83
703.234	2.77
703.557	2.77
703.881	2.77
704.205	2.72
704.529	2.7
704.852	2.64
705.176	2.66
705.499	2.65
705.823	2.73
706.146	2.76
706.47	2.7
706.793	2.73
707.117	2.76
707.44	2.75
707.763	2.76
708.086	2.77
708.409	2.68
708.733	2.73
709.056	2.64
709.379	2.7
709.702	2.72
710.025	2.68
710.348	2.59
710.671	2.59
710.993	2.72
711.316	2.73
711.639	2.82
711.962	2.92
712.284	2.97
712.607	2.96
712.93	3.09
713.252	3.1
713.575	3.13
713.897	3.02
714.22	2.99
714.542	3.02
714.864	3.01
715.187	3.11
715.509	3.03
715.831	3.09
716.153	3.07
716.475	3.06
716.798	3.22
717.12	3.34
717.442	3.25
717.764	3.07
718.085	3.11
718.407	2.99
718.729	2.91
719.051	2.82
719.373	2.77
719.695	2.77
720.016	2.68
720.338	2.76
720.659	2.86
720.981	2.85
721.302	2.86
721.624	2.85
721.945	2.88
722.267	2.93
722.588	2.86
722.909	2.7
723.231	2.61
723.552	2.37
723.873	2.49
724.194	2.53
724.515	2.64
724.836	2.59
725.157	2.73
725.478	2.57
725.799	2.63
726.12	2.56
726.441	2.33
726.762	2.45
727.083	2.3
727.403	2.28
727.724	2.39
728.045	2.37
728.365	2.48
728.686	2.49
729.006	2.5
729.327	2.34
729.647	2.49
729.967	2.7
730.288	2.87
730.608	2.77
730.928	2.8
731.249	2.72
731.569	2.79
731.889	2.84
732.209	3.09
732.529	3.22
732.849	3.41
733.169	3.53
733.489	3.52
733.809	3.5
734.129	3.54
734.448	3.59
734.768	3.56
735.088	3.63
735.408	3.57
735.727	3.48
736.047	3.76
736.366	3.69
736.686	3.75
737.005	3.61
737.325	3.51
737.644	3.54
737.963	3.62
738.283	3.44
738.602	3.31
738.921	3.34
739.24	3.04
739.56	2.9
739.879	2.91
740.198	2.95
740.517	3.11
740.836	3.09
741.155	3.05
741.473	3.15
741.792	3.04
742.111	3.07
742.43	3.36
742.748	3.2
743.067	3.39
743.386	3.25
743.704	3.43
744.023	3.57
744.341	3.6
744.66	3.9
744.978	3.99
745.297	4.05
745.615	3.72
745.933	3.92
746.252	3.8
746.57	3.75
746.888	3.62
747.206	3.43
747.524	3.46
747.842	3.46
748.16	3.36
748.478	3.3
748.796	3.15
749.114	3.08
749.432	2.93
749.749	2.86
750.067	2.79
750.385	2.63
750.703	2.65
751.02	2.57
751.338	2.45
751.655	2.57
751.973	2.51
752.29	2.78
752.608	2.55
752.925	2.56
753.242	2.64
753.56	2.55
753.877	2.65
754.194	2.56
754.511	2.48
754.828	2.28
755.145	2.33
755.462	2.58
755.779	2.44
756.096	2.75
756.413	2.69
756.73	2.75
757.047	2.82
757.364	2.59
757.68	2.78
757.997	2.58
758.314	2.57
758.63	2.72
758.947	2.53
759.264	2.72
759.58	2.85
759.896	2.86
760.213	3.07
760.529	3
760.846	2.97
761.162	2.83
761.478	2.89
761.794	2.85
762.11	2.72
762.426	2.65
762.743	2.65
763.059	2.64
763.375	2.74
763.69	2.92
764.006	3.14
764.322	3.15
764.638	3.34
764.954	3.32
765.27	3.19
765.585	3.43
765.901	3.39
766.216	3.43
766.532	3.39
766.848	3.07
767.163	3.11
767.478	3.25
767.794	3.44
768.109	3.4
768.424	3.37
768.74	3.55
769.055	3.75
769.37	3.64
769.685	3.86
770	3.92
770.315	3.75
770.63	3.57
770.945	3.33
771.26	3.48
771.575	3.44
771.89	3.51
772.205	3.34
772.52	3.25
772.834	3.11
773.149	3.29
773.464	3.83
773.778	4.11
774.093	3.85
774.407	3.89
774.722	4.03
775.036	4.39
775.351	4.33
775.665	4.06
775.979	4.45
776.293	4.2
776.608	3.98
776.922	3.79
777.236	4.09
777.55	4.22
777.864	4.22
778.178	4.62
778.492	4.6
778.806	4.33
779.12	4.55
779.434	4.61
779.747	4.42
780.061	4.1
780.375	3.99
780.689	4.31
781.002	4.59
781.316	4.92
781.629	4.62
781.943	4.48
782.256	4.49
782.57	4.25
782.883	4.3
783.196	4.26
783.51	4.16
783.823	3.8
784.136	4.07
784.449	3.67
784.762	3.1
785.075	3.37
785.388	3.72
785.701	3.67
786.014	3.67
786.327	3.67
786.64	3.66
786.953	4.02
787.266	3.71
787.578	3.31
787.891	3.39
788.204	3.33
788.516	3.69
788.829	4.12
789.141	4.04
789.454	4.24
789.766	4.4
790.079	4.65
790.391	4.56
790.703	4.91
791.016	4.83
791.328	5.12
791.64	5.06
791.952	5.33
792.264	5.12
792.576	5.08
792.888	5.44
793.2	5.51
793.512	5.02
793.824	5.5
794.136	5.78
794.448	5.86
794.76	5.96
795.071	5.74
795.383	5.34
795.695	5.22
796.006	5.3
796.318	5.37
796.629	5.72
796.941	6.19
797.252	5.77
797.564	6.29
797.875	6.38
798.186	6.33
798.497	6.05
798.809	6.71
799.12	7.01
799.431	6.54
799.742	6.6
800.053	7.29
800.364	7.01
800.675	6.5
800.986	6.11
801.297	5.88
801.608	5.7
801.918	5.49
802.229	5.55
802.54	5.45
802.851	5.26
803.161	5.06
803.472	5.02
803.782	4.7
804.093	4.37
804.403	4.28
804.714	4.41
805.024	4.12
805.334	3.71
805.645	3.93
805.955	4.5
806.265	5.15
806.575	4.42
806.885	4.49
807.195	4.93
807.505	5.15
807.815	5.34
808.125	5.58
808.435	6.13
808.745	5.87
809.055	6.23
809.365	5.87
809.674	5.41
809.984	5.28
810.294	5.56
810.603	6.23
810.913	6.54
811.222	6.59
811.532	7.45
811.841	8.1
812.151	8.15
812.46	8.05
812.769	7.79
813.079	8.33
813.388	8.2
813.697	7.97
814.006	7.47
814.315	7.36
814.624	6.81
814.933	6.78
815.242	7.33
815.551	7.35
815.86	7.75
816.169	7.78
816.478	7.46
816.786	7.27
817.095	6.7
817.404	6.32
817.712	5.8
818.021	5.64
818.33	4.75
818.638	4.28
818.947	4.21
819.255	4.68
819.563	4.07
819.872	4.11
820.18	4.4
820.488	4.42
820.796	4.53
821.105	4.58
821.413	4.51
821.721	4.33
822.029	4.3
822.337	4.42
822.645	4.61
822.953	4.57
823.26	4.62
823.568	4.51
823.876	4.54
824.184	4.67
824.491	4.64
824.799	4.7
825.107	4.72
825.414	4.83
825.722	4.52
826.029	4.68
826.337	4.91
826.644	5
826.951	4.95
827.259	4.89
827.566	4.99
827.873	5.11
828.18	5.28
828.488	5.24
828.795	5.07
829.102	5.01
829.409	5.34
829.716	5.08
830.023	5.13
830.329	5.32
830.636	5.51
830.943	5.36
831.25	5.35
831.557	5.32
831.863	4.99
832.17	5.37
832.476	5.53
832.783	5.48
833.089	5.04
833.396	5.77
833.702	5.84
834.009	6.06
834.315	5.78
834.621	5.59
834.928	5.58
835.234	5.67
835.54	5.64
835.846	5.21
836.152	5.64
836.458	5.73
836.764	5.74
837.07	5.3
837.376	5.27
837.682	5.38
837.988	5.28
838.293	5.57
838.599	5.32
838.905	5
839.211	4.49
839.516	4.58
839.822	4.12
840.127	4.69
840.433	4.49
840.738	4.54
841.044	4.77
841.349	4.4
841.654	4.44
841.959	4.69
842.265	5.49
842.57	6.05
842.875	5.73
843.18	5.56
843.485	5.87
843.79	6.4
844.095	6.83
844.4	6.74
844.705	5.6
845.01	5.49
845.315	5.69
845.619	4.91
845.924	5.92
846.229	6.47
846.533	5.81
846.838	5.12
847.142	4.73
847.447	3.67
847.751	5.35
848.056	4.75
848.36	3.46
848.664	2.87
848.969	0.98
849.273	1.4
849.577	-0.85
849.881	-0.21
850.185	-0.98
850.489	-0.36
850.794	0.89
851.097	2.29
851.401	1.71
851.705	-0.46
852.009	0.58
852.313	-1.48
852.617	-2.93
852.92	-0.25
853.224	-0.42
853.528	0.98
853.831	1.97
854.135	2.83
854.438	4.12
854.742	5.5
855.045	6.84
855.349	6.1
855.652	6.49
855.955	7.74
856.259	6.01
856.562	6.55
856.865	6.9
857.168	6.14
857.471	5.65
857.774	6.47
858.077	9.9
858.38	8.86
858.683	10.94
858.986	10.46
859.289	8.21
859.592	9.19
859.894	9.09
860.197	9.02
860.5	7.28
860.802	8.11
861.105	8.08
861.407	6.29
861.71	8.01
862.012	7.3
862.315	6.41
862.617	7.5
862.919	7.01
863.222	4.22
863.524	5.45
863.826	6.43
864.128	6.62
864.43	5.91
864.732	8.44
865.034	6.93
865.336	7.4
865.638	5.85
865.94	5.17
866.242	4.51
866.544	3.77
866.846	1.83
867.147	0.84
867.449	1.42
867.751	1.43
868.052	2.07
868.354	2.66
868.655	4.18
868.957	2.39
869.258	1.13
869.56	3.08
869.861	2.98
870.162	0.94
870.463	3.14
870.765	3.77
871.066	4.38
871.367	4.26
871.668	5.54
871.969	6.38
872.27	6.36
872.571	7.07
872.872	6.65
873.173	5.5
873.473	4.65
873.774	2.87
874.075	2.86
874.376	1.26
874.676	1.31
874.977	-0.32
875.277	2.55
875.578	2.78
875.878	1.04
876.179	-0.08
876.479	1.9
876.78	-1.86
877.08	-3.96
877.38	-7.52
877.68	-7.65
877.981	-9.75
878.281	-10.05
878.581	-8.86
