Data from BA58010_Reflection_00006.txt Node
Date: Mon Nov 18 16:06:54 EST 2019
User: vgr7
Spectrometer: USB2G7710
Scans to average: 3
Trigger mode: 4
Integration Time (sec): 2.000000E-2
Electric dark correction enabled: true
Boxcar width: 10
XAxis mode: Wavelengths
Number of Pixels in Spectrum: 2048
>>>>>Begin Spectral Data<<<<<
177.721	297.9
178.105	-227.43
178.488	122.07
178.871	220.11
179.254	-2190.32
179.636	-5.8
180.019	369.37
180.402	-1500
180.785	98.01
181.168	78.99
181.55	67.96
181.933	73.3
182.316	107.44
182.698	75.41
183.081	83.81
183.463	90.37
183.846	109.68
184.228	204.48
184.611	156.87
184.993	284.18
185.376	598.87
185.758	810.61
186.14	280.99
186.522	357.66
186.904	291.24
187.287	304.34
187.669	605.42
188.051	322.09
188.433	308.29
188.815	362.52
189.197	544.7
189.579	1436
189.961	-413.13
190.342	-2482.09
190.724	-161.58
191.106	-356.71
191.488	-210.65
191.869	-141.71
192.251	-101.31
192.633	-37.59
193.014	-124.63
193.396	-524.45
193.777	-2736.07
194.159	4185.71
194.54	1678.31
194.922	-220.21
195.303	-120.18
195.684	-344.23
196.065	-58.44
196.447	-58.78
196.828	-113.01
197.209	-109.72
197.59	-181.1
197.971	1388
198.352	-199.83
198.733	-376.04
199.114	-240.97
199.495	-332.84
199.876	1515.84
200.257	-2539.34
200.638	-636.17
201.018	-887.26
201.399	-696.18
201.78	-156.07
202.16	-295.8
202.541	-457.59
202.922	2427.43
203.302	828.05
203.683	33281.82
204.063	687.56
204.444	404.17
204.824	358.1
205.204	364.94
205.585	388.63
205.965	750.39
206.345	424.07
206.725	529.6
207.106	371.9
207.486	290.8
207.866	350.62
208.246	259.33
208.626	236.05
209.006	202.67
209.386	221.13
209.766	179.25
210.145	141.14
210.525	142.93
210.905	228.84
211.285	268.46
211.664	394.56
212.044	657.28
212.424	1047.21
212.803	1916.75
213.183	-319.53
213.562	-460.23
213.942	-249.43
214.321	-56.55
214.701	-42.69
215.08	-69.72
215.459	-74.25
215.838	-81.13
216.218	-81.78
216.597	-70.56
216.976	-81.38
217.355	-65.94
217.734	-60.33
218.113	-49.57
218.492	-47.97
218.871	-44.37
219.25	-33.1
219.629	-26.84
220.008	-29.29
220.387	-24.14
220.766	-30.16
221.144	-40.01
221.523	-44.07
221.902	-46.59
222.28	-74.66
222.659	-77.22
223.037	-60.11
223.416	-57.86
223.794	-61.42
224.173	-56.31
224.551	-33.45
224.929	-38.34
225.308	-29.78
225.686	-25.11
226.064	-21.4
226.442	-21.29
226.821	-17.94
227.199	-23.1
227.577	-22.71
227.955	-19.12
228.333	-19.16
228.711	-14.17
229.089	-9.82
229.467	-9.77
229.845	-10.8
230.222	-9.1
230.6	-12.89
230.978	-12.41
231.356	-11.93
231.733	-10.57
232.111	-9.99
232.488	-11.45
232.866	-10.18
233.243	-10.17
233.621	-11.28
233.998	-9.63
234.376	-9.83
234.753	-10.41
235.13	-7.49
235.508	-5.64
235.885	-7.09
236.262	-8.21
236.639	-9.74
237.016	-9.69
237.393	-8.11
237.77	-6.08
238.147	-5.45
238.524	-4.27
238.901	-3.61
239.278	-2.86
239.655	-2.33
240.032	-1.53
240.409	-2.16
240.785	-2.27
241.162	-1.92
241.539	-1.33
241.915	-1.62
242.292	-1.49
242.668	-1.11
243.045	-1.02
243.421	-1.12
243.798	-0.62
244.174	-0.37
244.551	0.12
244.927	-0.01
245.303	0.33
245.679	0.3
246.056	0.42
246.432	0.64
246.808	0.84
247.184	0.76
247.56	0.76
247.936	0.7
248.312	0.82
248.688	1.15
249.064	1
249.44	0.81
249.815	0.7
250.191	1.01
250.567	0.87
250.943	0.79
251.318	0.85
251.694	0.7
252.069	0.94
252.445	0.83
252.82	0.94
253.196	0.5
253.571	0.4
253.947	0.55
254.322	0.47
254.697	0.35
255.073	0.13
255.448	-0.02
255.823	0.15
256.198	0.33
256.573	0.29
256.948	0.64
257.323	1.03
257.698	1.31
258.073	1.28
258.448	1.46
258.823	1.48
259.198	1.47
259.573	1.49
259.948	1.33
260.322	1.39
260.697	1.31
261.072	1.33
261.446	1.43
261.821	1.34
262.195	1.46
262.57	1.36
262.944	1.53
263.319	1.57
263.693	1.57
264.067	1.69
264.442	1.77
264.816	1.47
265.19	1.3
265.564	1.24
265.938	1.06
266.313	1.04
266.687	1.02
267.061	1.03
267.435	1.06
267.809	0.97
268.183	0.94
268.556	0.98
268.93	1.03
269.304	1.05
269.678	1.09
270.051	1.05
270.425	1.17
270.799	1.21
271.172	1.28
271.546	1.29
271.919	1.14
272.293	1.1
272.666	1.23
273.04	1.13
273.413	1.15
273.787	1.32
274.16	1.19
274.533	1.15
274.906	1.09
275.279	1.19
275.653	1.38
276.026	1.3
276.399	1.52
276.772	1.57
277.145	1.5
277.518	1.42
277.891	1.42
278.263	1.21
278.636	1.1
279.009	1.08
279.382	1.13
279.755	1.26
280.127	1.39
280.5	1.44
280.872	1.77
281.245	1.75
281.617	1.71
281.99	1.87
282.362	1.88
282.735	1.89
283.107	1.89
283.479	1.91
283.852	2.08
284.224	1.97
284.596	1.93
284.968	1.94
285.34	2.05
285.713	2.02
286.085	2.19
286.457	2.23
286.829	2.29
287.201	2.2
287.572	2.09
287.944	2.05
288.316	2.11
288.688	1.95
289.06	1.98
289.431	2.05
289.803	1.99
290.175	2.05
290.546	2.28
290.918	2.33
291.289	2.31
291.661	2.16
292.032	2.04
292.403	2.16
292.775	2.2
293.146	2.2
293.517	2.15
293.889	2.26
294.26	2.27
294.631	2.28
295.002	2.33
295.373	2.37
295.744	2.4
296.115	2.31
296.486	2.22
296.857	2.2
297.228	2.27
297.599	2.22
297.97	2.23
298.34	2.16
298.711	2.12
299.082	2.08
299.452	2.17
299.823	2.35
300.194	2.31
300.564	2.22
300.935	2.2
301.305	2.23
301.676	2.11
302.046	2.18
302.416	2.21
302.787	2.23
303.157	2.25
303.527	2.16
303.897	2.25
304.267	2.44
304.637	2.45
305.008	2.36
305.378	2.57
305.748	2.65
306.117	2.46
306.487	2.49
306.857	2.61
307.227	2.52
307.597	2.38
307.967	2.27
308.336	2.41
308.706	2.38
309.076	2.35
309.445	2.38
309.815	2.26
310.184	2.19
310.554	2.26
310.923	2.31
311.293	2.31
311.662	2.26
312.031	2.23
312.401	2.09
312.77	2.11
313.139	1.99
313.508	1.86
313.877	1.98
314.246	1.92
314.616	1.67
314.985	1.72
315.353	1.71
315.722	1.81
316.091	1.7
316.46	1.65
316.829	1.59
317.198	1.64
317.567	1.65
317.935	1.59
318.304	1.43
318.672	1.34
319.041	1.39
319.41	1.41
319.778	1.31
320.147	1.46
320.515	1.25
320.883	1.37
321.252	1.34
321.62	1.36
321.988	1.3
322.357	1.36
322.725	1.35
323.093	1.42
323.461	1.45
323.829	1.51
324.197	1.58
324.565	1.72
324.933	1.63
325.301	1.64
325.669	1.7
326.037	1.76
326.405	1.84
326.772	1.87
327.14	1.83
327.508	1.9
327.875	1.83
328.243	1.93
328.61	1.87
328.978	1.97
329.346	2.06
329.713	2.17
330.08	2.25
330.448	2.15
330.815	2.14
331.182	2.13
331.55	2.09
331.917	2.08
332.284	2.09
332.651	2.1
333.018	2.11
333.385	2.04
333.752	2.09
334.119	1.97
334.486	1.83
334.853	1.86
335.22	1.83
335.587	1.91
335.954	1.9
336.32	1.83
336.687	1.85
337.054	1.78
337.42	1.73
337.787	1.73
338.153	1.92
338.52	1.97
338.886	1.92
339.253	1.91
339.619	1.94
339.986	1.95
340.352	1.95
340.718	1.95
341.084	2.03
341.451	2.02
341.817	2.15
342.183	2.19
342.549	2.17
342.915	2.13
343.281	2.11
343.647	2.03
344.013	2.07
344.379	2.02
344.745	2.03
345.11	2.02
345.476	2.08
345.842	2
346.208	1.97
346.573	2.04
346.939	2.16
347.304	2.1
347.67	2.05
348.035	2
348.401	1.9
348.766	1.84
349.132	1.84
349.497	1.71
349.862	1.72
350.228	1.68
350.593	1.54
350.958	1.59
351.323	1.71
351.688	1.68
352.053	1.75
352.418	1.77
352.783	1.79
353.148	1.79
353.513	1.72
353.878	1.74
354.243	1.7
354.608	1.66
354.972	1.74
355.337	1.73
355.702	1.81
356.066	1.97
356.431	1.92
356.795	1.91
357.16	1.98
357.524	2
357.889	1.99
358.253	2.13
358.618	2.16
358.982	2.13
359.346	2.13
359.71	2.1
360.075	2.06
360.439	2.1
360.803	2.1
361.167	2.08
361.531	1.99
361.895	1.99
362.259	1.95
362.623	1.96
362.987	1.95
363.351	1.91
363.714	1.87
364.078	1.87
364.442	1.88
364.806	1.87
365.169	1.86
365.533	1.9
365.896	1.84
366.26	1.8
366.623	1.8
366.987	1.8
367.35	1.8
367.714	1.83
368.077	1.81
368.44	1.84
368.803	1.88
369.167	1.93
369.53	1.89
369.893	1.95
370.256	1.91
370.619	1.93
370.982	1.93
371.345	1.92
371.708	2.01
372.071	2
372.434	1.97
372.797	1.97
373.159	1.97
373.522	2.09
373.885	2.12
374.247	2.12
374.61	2.12
374.973	2.1
375.335	2.09
375.698	2.08
376.06	2.05
376.423	2.05
376.785	2.05
377.147	2.07
377.51	2.03
377.872	2.07
378.234	2.09
378.596	2.16
378.958	2.12
379.321	2.15
379.683	2.12
380.045	2.18
380.407	2.15
380.769	2.14
381.13	2.1
381.492	2.05
381.854	2.02
382.216	2.02
382.578	2.05
382.939	2.05
383.301	2.05
383.663	2.06
384.024	2.06
384.386	2.13
384.747	2.22
385.109	2.24
385.47	2.17
385.832	2.19
386.193	2.13
386.554	2.17
386.916	2.12
387.277	2.15
387.638	2.16
387.999	2.17
388.36	2.17
388.721	2.18
389.082	2.21
389.443	2.21
389.804	2.21
390.165	2.2
390.526	2.17
390.887	2.17
391.248	2.2
391.609	2.18
391.969	2.15
392.33	2.11
392.691	2.1
393.051	2.12
393.412	2.1
393.772	2.11
394.133	2.07
394.493	2.08
394.854	2.11
395.214	2.09
395.574	2.14
395.935	2.14
396.295	2.16
396.655	2.15
397.015	2.18
397.376	2.19
397.736	2.19
398.096	2.22
398.456	2.26
398.816	2.25
399.176	2.24
399.535	2.22
399.895	2.19
400.255	2.22
400.615	2.22
400.975	2.19
401.334	2.2
401.694	2.23
402.054	2.25
402.413	2.21
402.773	2.21
403.132	2.19
403.492	2.21
403.851	2.18
404.211	2.17
404.57	2.16
404.929	2.19
405.288	2.17
405.648	2.17
406.007	2.14
406.366	2.12
406.725	2.16
407.084	2.18
407.443	2.21
407.802	2.19
408.161	2.2
408.52	2.19
408.879	2.2
409.238	2.19
409.596	2.16
409.955	2.17
410.314	2.18
410.673	2.15
411.031	2.16
411.39	2.17
411.748	2.16
412.107	2.14
412.465	2.12
412.824	2.14
413.182	2.15
413.54	2.16
413.899	2.17
414.257	2.15
414.615	2.14
414.974	2.14
415.332	2.15
415.69	2.14
416.048	2.14
416.406	2.16
416.764	2.16
417.122	2.18
417.48	2.18
417.838	2.18
418.195	2.19
418.553	2.19
418.911	2.18
419.269	2.19
419.626	2.18
419.984	2.18
420.342	2.18
420.699	2.17
421.057	2.18
421.414	2.18
421.772	2.18
422.129	2.2
422.486	2.2
422.844	2.2
423.201	2.19
423.558	2.2
423.915	2.19
424.273	2.19
424.63	2.18
424.987	2.18
425.344	2.18
425.701	2.19
426.058	2.18
426.415	2.18
426.772	2.18
427.128	2.19
427.485	2.2
427.842	2.19
428.199	2.18
428.555	2.16
428.912	2.17
429.269	2.18
429.625	2.16
429.982	2.14
430.338	2.14
430.695	2.14
431.051	2.14
431.407	2.16
431.764	2.16
432.12	2.17
432.476	2.17
432.832	2.14
433.189	2.13
433.545	2.12
433.901	2.13
434.257	2.13
434.613	2.13
434.969	2.13
435.325	2.15
435.681	2.18
436.036	2.19
436.392	2.19
436.748	2.17
437.104	2.16
437.459	2.16
437.815	2.18
438.171	2.18
438.526	2.19
438.882	2.19
439.237	2.19
439.593	2.19
439.948	2.18
440.304	2.2
440.659	2.21
441.014	2.21
441.369	2.2
441.725	2.18
442.08	2.19
442.435	2.18
442.79	2.17
443.145	2.15
443.5	2.12
443.855	2.13
444.21	2.14
444.565	2.14
444.92	2.15
445.275	2.14
445.629	2.15
445.984	2.14
446.339	2.13
446.693	2.12
447.048	2.11
447.403	2.13
447.757	2.12
448.112	2.1
448.466	2.1
448.82	2.11
449.175	2.14
449.529	2.13
449.883	2.14
450.238	2.14
450.592	2.15
450.946	2.18
451.3	2.17
451.654	2.17
452.008	2.18
452.362	2.16
452.716	2.15
453.07	2.15
453.424	2.15
453.778	2.17
454.132	2.17
454.486	2.17
454.839	2.16
455.193	2.16
455.547	2.17
455.9	2.17
456.254	2.17
456.607	2.16
456.961	2.17
457.314	2.17
457.668	2.2
458.021	2.2
458.375	2.19
458.728	2.19
459.081	2.19
459.434	2.18
459.787	2.17
460.141	2.17
460.494	2.17
460.847	2.17
461.2	2.16
461.553	2.15
461.906	2.16
462.259	2.16
462.611	2.17
462.964	2.17
463.317	2.18
463.67	2.19
464.022	2.18
464.375	2.16
464.728	2.17
465.08	2.14
465.433	2.14
465.785	2.13
466.138	2.14
466.49	2.15
466.843	2.15
467.195	2.16
467.547	2.17
467.899	2.19
468.252	2.18
468.604	2.18
468.956	2.19
469.308	2.19
469.66	2.18
470.012	2.18
470.364	2.18
470.716	2.16
471.068	2.17
471.42	2.19
471.772	2.2
472.123	2.2
472.475	2.2
472.827	2.21
473.178	2.22
473.53	2.21
473.882	2.21
474.233	2.22
474.585	2.22
474.936	2.21
475.288	2.2
475.639	2.21
475.99	2.22
476.342	2.22
476.693	2.22
477.044	2.23
477.395	2.22
477.746	2.19
478.097	2.2
478.448	2.19
478.8	2.19
479.15	2.2
479.501	2.21
479.852	2.2
480.203	2.22
480.554	2.23
480.905	2.24
481.255	2.25
481.606	2.24
481.957	2.25
482.307	2.26
482.658	2.26
483.009	2.27
483.359	2.27
483.709	2.26
484.06	2.26
484.41	2.27
484.761	2.27
485.111	2.28
485.461	2.28
485.811	2.29
486.162	2.29
486.512	2.29
486.862	2.29
487.212	2.29
487.562	2.29
487.912	2.28
488.262	2.27
488.612	2.27
488.961	2.28
489.311	2.27
489.661	2.27
490.011	2.28
490.36	2.27
490.71	2.27
491.06	2.28
491.409	2.28
491.759	2.29
492.108	2.29
492.458	2.29
492.807	2.29
493.157	2.28
493.506	2.28
493.855	2.27
494.204	2.27
494.554	2.28
494.903	2.27
495.252	2.27
495.601	2.3
495.95	2.29
496.299	2.29
496.648	2.29
496.997	2.3
497.346	2.29
497.695	2.29
498.043	2.29
498.392	2.27
498.741	2.28
499.09	2.27
499.438	2.29
499.787	2.28
500.135	2.28
500.484	2.29
500.832	2.3
501.181	2.29
501.529	2.27
501.878	2.28
502.226	2.29
502.574	2.29
502.923	2.27
503.271	2.27
503.619	2.26
503.967	2.24
504.315	2.24
504.663	2.26
505.011	2.27
505.359	2.28
505.707	2.31
506.055	2.31
506.403	2.32
506.751	2.3
507.098	2.29
507.446	2.31
507.794	2.3
508.141	2.29
508.489	2.31
508.837	2.33
509.184	2.33
509.531	2.33
509.879	2.32
510.226	2.34
510.574	2.33
510.921	2.34
511.268	2.35
511.616	2.34
511.963	2.32
512.31	2.33
512.657	2.32
513.004	2.32
513.351	2.33
513.698	2.33
514.045	2.35
514.392	2.36
514.739	2.36
515.086	2.37
515.432	2.37
515.779	2.36
516.126	2.37
516.473	2.4
516.819	2.41
517.166	2.42
517.512	2.4
517.859	2.42
518.205	2.4
518.552	2.41
518.898	2.44
519.245	2.46
519.591	2.47
519.937	2.45
520.283	2.46
520.629	2.46
520.976	2.46
521.322	2.47
521.668	2.46
522.014	2.46
522.36	2.46
522.706	2.48
523.052	2.48
523.398	2.48
523.743	2.47
524.089	2.47
524.435	2.47
524.781	2.48
525.126	2.48
525.472	2.48
525.817	2.48
526.163	2.47
526.509	2.47
526.854	2.47
527.199	2.49
527.545	2.48
527.89	2.48
528.235	2.48
528.581	2.48
528.926	2.49
529.271	2.49
529.616	2.49
529.961	2.48
530.306	2.49
530.651	2.48
530.996	2.49
531.341	2.49
531.686	2.5
532.031	2.49
532.376	2.49
532.721	2.49
533.065	2.48
533.41	2.49
533.755	2.49
534.099	2.48
534.444	2.48
534.788	2.48
535.133	2.47
535.477	2.47
535.822	2.47
536.166	2.47
536.51	2.47
536.855	2.48
537.199	2.5
537.543	2.48
537.887	2.49
538.231	2.46
538.576	2.46
538.92	2.46
539.264	2.47
539.608	2.48
539.951	2.5
540.295	2.5
540.639	2.49
540.983	2.5
541.327	2.5
541.671	2.5
542.014	2.5
542.358	2.52
542.701	2.52
543.045	2.51
543.389	2.52
543.732	2.52
544.075	2.53
544.419	2.52
544.762	2.52
545.105	2.52
545.449	2.54
545.792	2.55
546.135	2.56
546.478	2.56
546.821	2.55
547.165	2.53
547.508	2.55
547.851	2.55
548.194	2.55
548.536	2.56
548.879	2.56
549.222	2.56
549.565	2.56
549.908	2.55
550.25	2.56
550.593	2.55
550.936	2.55
551.278	2.55
551.621	2.57
551.963	2.58
552.306	2.58
552.648	2.6
552.991	2.61
553.333	2.6
553.675	2.6
554.017	2.61
554.36	2.62
554.702	2.63
555.044	2.65
555.386	2.63
555.728	2.63
556.07	2.63
556.412	2.62
556.754	2.61
557.096	2.62
557.438	2.63
557.78	2.65
558.121	2.65
558.463	2.63
558.805	2.61
559.147	2.61
559.488	2.59
559.83	2.56
560.171	2.54
560.513	2.54
560.854	2.54
561.196	2.52
561.537	2.52
561.878	2.51
562.22	2.49
562.561	2.48
562.902	2.49
563.243	2.48
563.584	2.49
563.925	2.5
564.266	2.49
564.607	2.47
564.948	2.47
565.289	2.46
565.63	2.46
565.971	2.46
566.312	2.48
566.653	2.5
566.993	2.51
567.334	2.51
567.675	2.5
568.015	2.52
568.356	2.53
568.696	2.55
569.037	2.55
569.377	2.57
569.718	2.57
570.058	2.56
570.398	2.55
570.739	2.52
571.079	2.52
571.419	2.52
571.759	2.53
572.099	2.54
572.439	2.56
572.779	2.57
573.119	2.57
573.459	2.55
573.799	2.55
574.139	2.53
574.479	2.54
574.819	2.55
575.158	2.54
575.498	2.53
575.838	2.51
576.177	2.46
576.517	2.44
576.856	2.45
577.196	2.45
577.535	2.46
577.875	2.46
578.214	2.44
578.553	2.45
578.893	2.44
579.232	2.44
579.571	2.43
579.91	2.41
580.25	2.43
580.589	2.42
580.928	2.41
581.267	2.41
581.606	2.4
581.945	2.38
582.283	2.4
582.622	2.4
582.961	2.42
583.3	2.47
583.639	2.49
583.977	2.54
584.316	2.55
584.654	2.54
584.993	2.55
585.332	2.58
585.67	2.59
586.008	2.58
586.347	2.53
586.685	2.5
587.024	2.51
587.362	2.5
587.7	2.53
588.038	2.55
588.376	2.56
588.715	2.57
589.053	2.6
589.391	2.6
589.729	2.61
590.067	2.59
590.404	2.59
590.742	2.63
591.08	2.58
591.418	2.6
591.756	2.64
592.093	2.66
592.431	2.71
592.769	2.71
593.106	2.73
593.444	2.76
593.781	2.78
594.119	2.81
594.456	2.81
594.793	2.8
595.131	2.76
595.468	2.77
595.805	2.77
596.143	2.76
596.48	2.77
596.817	2.77
597.154	2.76
597.491	2.79
597.828	2.74
598.165	2.75
598.502	2.73
598.839	2.69
599.176	2.67
599.512	2.63
599.849	2.59
600.186	2.55
600.523	2.58
600.859	2.62
601.196	2.62
601.532	2.59
601.869	2.6
602.205	2.61
602.542	2.62
602.878	2.63
603.215	2.65
603.551	2.62
603.887	2.62
604.223	2.65
604.56	2.63
604.896	2.63
605.232	2.65
605.568	2.65
605.904	2.65
606.24	2.68
606.576	2.68
606.912	2.7
607.248	2.73
607.583	2.72
607.919	2.67
608.255	2.66
608.591	2.68
608.926	2.67
609.262	2.69
609.597	2.66
609.933	2.67
610.268	2.64
610.604	2.66
610.939	2.69
611.275	2.66
611.61	2.69
611.945	2.68
612.281	2.67
612.616	2.7
612.951	2.73
613.286	2.72
613.621	2.69
613.956	2.72
614.291	2.71
614.626	2.69
614.961	2.68
615.296	2.64
615.631	2.65
615.966	2.64
616.3	2.6
616.635	2.6
616.97	2.58
617.304	2.57
617.639	2.56
617.973	2.55
618.308	2.57
618.642	2.54
618.977	2.55
619.311	2.56
619.646	2.55
619.98	2.51
620.314	2.51
620.648	2.58
620.983	2.59
621.317	2.65
621.651	2.62
621.985	2.68
622.319	2.74
622.653	2.72
622.987	2.75
623.321	2.81
623.655	2.8
623.988	2.84
624.322	2.81
624.656	2.82
624.99	2.81
625.323	2.8
625.657	2.8
625.99	2.79
626.324	2.76
626.657	2.78
626.991	2.79
627.324	2.78
627.658	2.73
627.991	2.72
628.324	2.66
628.657	2.67
628.991	2.67
629.324	2.63
629.657	2.66
629.99	2.65
630.323	2.62
630.656	2.66
630.989	2.66
631.322	2.7
631.655	2.7
631.987	2.7
632.32	2.74
632.653	2.75
632.986	2.8
633.318	2.84
633.651	2.82
633.984	2.83
634.316	2.83
634.649	2.85
634.981	2.82
635.313	2.88
635.646	2.93
635.978	2.89
636.31	2.94
636.643	2.93
636.975	2.93
637.307	2.92
637.639	2.88
637.971	2.86
638.303	2.86
638.635	2.86
638.967	2.86
639.299	2.83
639.631	2.79
639.963	2.71
640.295	2.69
640.626	2.72
640.958	2.79
641.29	2.8
641.621	2.82
641.953	2.83
642.285	2.81
642.616	2.82
642.948	2.83
643.279	2.81
643.61	2.85
643.942	2.87
644.273	2.87
644.604	2.89
644.936	2.82
645.267	2.84
645.598	2.81
645.929	2.85
646.26	2.84
646.591	2.89
646.922	2.88
647.253	2.87
647.584	2.85
647.915	2.76
648.245	2.78
648.576	2.76
648.907	2.74
649.238	2.74
649.568	2.72
649.899	2.76
650.229	2.78
650.56	2.71
650.89	2.7
651.221	2.72
651.551	2.69
651.882	2.72
652.212	2.7
652.542	2.71
652.872	2.64
653.203	2.62
653.533	2.59
653.863	2.63
654.193	2.65
654.523	2.63
654.853	2.65
655.183	2.59
655.513	2.57
655.843	2.58
656.172	2.58
656.502	2.56
656.832	2.54
657.162	2.59
657.491	2.59
657.821	2.59
658.15	2.57
658.48	2.65
658.809	2.68
659.139	2.71
659.468	2.72
659.798	2.73
660.127	2.73
660.456	2.73
660.785	2.8
661.115	2.77
661.444	2.78
661.773	2.83
662.102	2.85
662.431	2.85
662.76	2.86
663.089	2.84
663.418	2.87
663.747	2.85
664.076	2.81
664.404	2.83
664.733	2.88
665.062	2.93
665.39	2.87
665.719	2.83
666.048	2.88
666.376	2.85
666.705	2.85
667.033	2.83
667.362	2.87
667.69	2.86
668.018	2.9
668.347	2.87
668.675	2.85
669.003	2.88
669.331	2.9
669.659	2.88
669.987	2.83
670.315	2.8
670.643	2.82
670.971	2.77
671.299	2.78
671.627	2.7
671.955	2.6
672.283	2.62
672.61	2.63
672.938	2.56
673.266	2.6
673.593	2.69
673.921	2.7
674.249	2.63
674.576	2.55
674.904	2.56
675.231	2.62
675.558	2.62
675.886	2.61
676.213	2.63
676.54	2.73
676.867	2.83
677.195	2.86
677.522	2.86
677.849	2.87
678.176	2.87
678.503	2.9
678.83	2.92
679.157	2.88
679.484	2.84
679.81	2.92
680.137	2.88
680.464	2.86
680.791	2.89
681.117	2.95
681.444	2.94
681.771	2.97
682.097	2.92
682.424	2.94
682.75	2.96
683.077	3
683.403	2.96
683.729	2.98
684.056	3.02
684.382	3.02
684.708	3.06
685.034	3.03
685.36	3.06
685.686	3.04
686.012	3.12
686.339	3.26
686.664	3.18
686.99	3.21
687.316	3.25
687.642	3.22
687.968	3.1
688.294	3.14
688.619	3.1
688.945	3.12
689.271	3.04
689.596	2.93
689.922	2.89
690.247	2.81
690.573	2.66
690.898	2.59
691.224	2.58
691.549	2.57
691.874	2.59
692.2	2.5
692.525	2.63
692.85	2.6
693.175	2.53
693.5	2.53
693.825	2.53
694.15	2.37
694.475	2.36
694.8	2.45
695.125	2.42
695.45	2.33
695.775	2.38
696.099	2.49
696.424	2.61
696.749	2.56
697.073	2.6
697.398	2.71
697.723	2.75
698.047	2.71
698.372	2.69
698.696	2.77
699.02	2.85
699.345	2.78
699.669	2.86
699.993	2.85
700.318	2.92
700.642	2.89
700.966	2.94
701.29	3.01
701.614	3.06
701.938	3.14
702.262	3.36
702.586	3.39
702.91	3.39
703.234	3.33
703.557	3.38
703.881	3.37
704.205	3.33
704.529	3.3
704.852	3.41
705.176	3.44
705.499	3.51
705.823	3.48
706.146	3.5
706.47	3.43
706.793	3.38
707.117	3.33
707.44	3.41
707.763	3.47
708.086	3.46
708.409	3.31
708.733	3.14
709.056	2.93
709.379	2.88
709.702	2.9
710.025	2.89
710.348	2.91
710.671	2.93
710.993	2.95
711.316	2.92
711.639	2.89
711.962	2.88
712.284	2.81
712.607	2.83
712.93	2.85
713.252	2.76
713.575	2.86
713.897	2.93
714.22	2.81
714.542	2.81
714.864	2.67
715.187	2.73
715.509	2.85
715.831	2.96
716.153	3.02
716.475	2.97
716.798	3.08
717.12	3
717.442	3.05
717.764	2.94
718.085	3.01
718.407	3.04
718.729	3.04
719.051	2.97
719.373	2.79
719.695	2.79
720.016	2.73
720.338	2.61
720.659	2.45
720.981	2.58
721.302	2.7
721.624	2.76
721.945	2.76
722.267	2.71
722.588	2.7
722.909	2.61
723.231	2.65
723.552	2.59
723.873	2.75
724.194	2.67
724.515	2.82
724.836	2.92
725.157	2.97
725.478	2.92
725.799	2.87
726.12	3.04
726.441	3.11
726.762	3.23
727.083	3.3
727.403	3.27
727.724	3.38
728.045	3.23
728.365	3.28
728.686	3.27
729.006	3.39
729.327	3.4
729.647	3.45
729.967	3.42
730.288	3.38
730.608	3.3
730.928	3.41
731.249	3.37
731.569	3.4
731.889	3.32
732.209	3.38
732.529	3.52
732.849	3.63
733.169	3.54
733.489	3.53
733.809	3.48
734.129	3.5
734.448	3.42
734.768	3.32
735.088	3.37
735.408	3.44
735.727	3.36
736.047	3.45
736.366	3.36
736.686	3.42
737.005	3.5
737.325	3.55
737.644	3.38
737.963	3.35
738.283	3.17
738.602	3.24
738.921	3.11
739.24	3.02
739.56	2.78
739.879	2.79
740.198	2.73
740.517	2.74
740.836	2.79
741.155	2.65
741.473	2.81
741.792	2.74
742.111	2.77
742.43	2.98
742.748	2.7
743.067	2.74
743.386	2.47
743.704	2.44
744.023	2.33
744.341	2.34
744.66	2.28
744.978	2.24
745.297	2.05
745.615	2.42
745.933	2.51
746.252	2.74
746.57	2.67
746.888	2.88
747.206	2.77
747.524	3
747.842	2.93
748.16	2.97
748.478	2.93
748.796	2.88
749.114	2.83
749.432	2.99
749.749	3.13
750.067	3.29
750.385	3.17
750.703	3.4
751.02	3.47
751.338	3.53
751.655	3.45
751.973	3.45
752.29	3.33
752.608	3.32
752.925	3.1
753.242	3.16
753.56	2.88
753.877	2.94
754.194	2.77
754.511	3
754.828	2.77
755.145	2.82
755.462	2.61
755.779	2.47
756.096	2.35
756.413	2.28
756.73	2.33
757.047	2.49
757.364	2.11
757.68	2.15
757.997	2.38
758.314	2.5
758.63	2.56
758.947	2.61
759.264	2.57
759.58	2.78
759.896	2.91
760.213	3.01
760.529	3.03
760.846	3.04
761.162	2.87
761.478	3
761.794	2.89
762.11	3.07
762.426	2.97
762.743	3.03
763.059	2.97
763.375	3.08
763.69	3.09
764.006	3.32
764.322	3.41
764.638	3.11
764.954	3.21
765.27	3.23
765.585	3.08
765.901	3.07
766.216	2.98
766.532	2.99
766.848	3.07
767.163	3.17
767.478	3.26
767.794	3.42
768.109	3.29
768.424	3.56
768.74	3.62
769.055	3.7
769.37	4.05
769.685	3.92
770	3.75
770.315	3.72
770.63	3.68
770.945	3.49
771.26	4.01
771.575	3.74
771.89	3.9
772.205	4.02
772.52	4.07
772.834	4.27
773.149	4.19
773.464	4.19
773.778	4.1
774.093	3.67
774.407	3.48
774.722	3.61
775.036	3.48
775.351	3.23
775.665	3.43
775.979	2.89
776.293	3.02
776.608	2.92
776.922	2.57
777.236	2.59
777.55	2.43
777.864	2.06
778.178	2.34
778.492	2.27
778.806	1.99
779.12	2.14
779.434	1.86
779.747	1.99
780.061	1.81
780.375	1.75
780.689	1.99
781.002	2.27
781.316	2.42
781.629	2.22
781.943	2.49
782.256	2.26
782.57	2.37
782.883	2.45
783.196	2.63
783.51	2.51
783.823	2.39
784.136	2.8
784.449	2.95
784.762	2.98
785.075	2.79
785.388	3.28
785.701	3.27
786.014	3.16
786.327	2.87
786.64	3.26
786.953	3.59
787.266	3.42
787.578	3.27
787.891	3.24
788.204	3.43
788.516	3.4
788.829	3.65
789.141	3.71
789.454	3.95
789.766	4.08
790.079	4.32
790.391	4.16
790.703	4.51
791.016	4.36
791.328	4.37
791.64	4.55
791.952	4.74
792.264	4.2
792.576	4.12
792.888	4.26
793.2	4.1
793.512	3.66
793.824	4.13
794.136	4.06
794.448	3.75
794.76	3.6
795.071	3.52
795.383	3.34
795.695	3.32
796.006	3.08
796.318	3.07
796.629	3.29
796.941	3.53
797.252	3.03
797.564	2.93
797.875	3.32
798.186	2.81
798.497	2.34
798.809	2.52
799.12	2.69
799.431	2.49
799.742	2.63
800.053	3.07
800.364	3.05
800.675	2.88
800.986	3.19
801.297	3.36
801.608	3.63
801.918	3.18
802.229	3.49
802.54	3.37
802.851	2.89
803.161	2.94
803.472	2.76
803.782	2.74
804.093	2.99
804.403	2.01
804.714	2.18
805.024	1.87
805.334	2.15
805.645	2.22
805.955	2.05
806.265	2.21
806.575	1.74
806.885	1.71
807.195	1.99
807.505	1.84
807.815	1.85
808.125	1.65
808.435	2.09
808.745	1.85
809.055	2.15
809.365	2.76
809.674	2.28
809.984	2.57
810.294	2.12
810.603	1.95
810.913	2.97
811.222	3.56
811.532	3.52
811.841	3.29
812.151	3.69
812.46	3.77
812.769	3.44
813.079	2.98
813.388	3.35
813.697	3.53
814.006	3.57
814.315	3.25
814.624	3
814.933	3.25
815.242	2.96
815.551	2.8
815.86	2.71
816.169	3.04
816.478	3.27
816.786	3.67
817.095	3.86
817.404	3.1
817.712	2.76
818.021	2.86
818.33	3.25
818.638	3.06
818.947	3.55
819.255	3.69
819.563	4.29
819.872	3.68
820.18	3.74
820.488	3.61
820.796	3.87
821.105	4.05
821.413	3.92
821.721	3.96
822.029	3.93
822.337	4.03
822.645	4.04
822.953	3.97
823.26	4.03
823.568	4.12
823.876	4.12
824.184	4.16
824.491	4.21
824.799	4.25
825.107	4.32
825.414	4.24
825.722	4.21
826.029	4.05
826.337	4.24
826.644	4.24
826.951	4.3
827.259	4.15
827.566	3.97
827.873	3.9
828.18	3.9
828.488	3.98
828.795	3.94
829.102	4.06
829.409	4.03
829.716	3.85
830.023	3.87
830.329	3.8
830.636	3.83
830.943	4
831.25	3.74
831.557	3.59
831.863	3.6
832.17	3.35
832.476	3.56
832.783	3.6
833.089	3.67
833.396	3.97
833.702	4.36
834.009	4.59
834.315	4.82
834.621	4.98
834.928	5.03
835.234	4.87
835.54	4.61
835.846	4.32
836.152	4.41
836.458	4.29
836.764	4.57
837.07	4.61
837.376	3.79
837.682	4.18
837.988	3.78
838.293	3.97
838.599	4.54
838.905	4.43
839.211	3.95
839.516	3.51
839.822	3.58
840.127	2.84
840.433	2.68
840.738	2.64
841.044	2.41
841.349	2.3
841.654	1.99
841.959	1.43
842.265	2.05
842.57	2.67
842.875	2.05
843.18	2.22
843.485	2.39
843.79	4.05
844.095	2.46
844.4	3.9
844.705	2.29
845.01	1.02
845.315	0.91
845.619	1
845.924	0.06
846.229	-0.4
846.533	-0.11
846.838	-0.4
847.142	-1.41
847.447	-2.76
847.751	-4.36
848.056	-5.93
848.36	-6.04
848.664	-7.08
848.969	-6.98
849.273	-6.17
849.577	-7.69
849.881	-9.68
850.185	-9.13
850.489	-8.66
850.794	-8.7
851.097	-6.46
851.401	-6.37
851.705	-7.33
852.009	-8.18
852.313	-6.87
852.617	-8.33
852.92	-7.87
853.224	-8.19
853.528	-7.08
853.831	-6.11
854.135	-5.67
854.438	-6.11
854.742	-6.74
855.045	-6.88
855.349	-8.59
855.652	-9.7
855.955	-7.65
856.259	-5.89
856.562	-8.36
856.865	-9.12
857.168	-12.94
857.471	-12.99
857.774	-12.52
858.077	-11.12
858.38	-8.24
858.683	-7.69
858.986	-7.12
859.289	-5.19
859.592	-4.24
859.894	-3.2
860.197	-2.76
860.5	-1.59
860.802	0.59
861.105	2.71
861.407	2.16
861.71	0.77
862.012	1.79
862.315	-0.77
862.617	-3.87
862.919	-3.38
863.222	-0.97
863.524	1.44
863.826	0.52
864.128	1.7
864.43	2.02
864.732	0.74
865.034	-2.07
865.336	-1.63
865.638	-3.24
865.94	-5.15
866.242	-7.94
866.544	-8.78
866.846	-10.35
867.147	-9.57
867.449	-8.39
867.751	-6.35
868.052	-4.05
868.354	-5.86
868.655	-3.62
868.957	-1.46
869.258	-0.08
869.56	0.08
869.861	-0.26
870.162	-1.91
870.463	-2.06
870.765	-1.23
871.066	-3.59
871.367	-2.29
871.668	-2.82
871.969	-5.09
872.27	-5.25
872.571	-3.99
872.872	-2.77
873.173	-1.67
873.473	-2.03
873.774	-2.85
874.075	-3.77
874.376	-6.31
874.676	-3.99
874.977	-7.62
875.277	-8.88
875.578	-10.3
875.878	-11.89
876.179	-12.16
876.479	-10.23
876.78	-13.01
877.08	-15.91
877.38	-13.32
877.68	-13.66
877.981	-13.73
878.281	-11.8
878.581	-8.95
