Data from BA58010_Reflection_00005.txt Node
Date: Mon Nov 18 16:06:52 EST 2019
User: vgr7
Spectrometer: USB2G7710
Scans to average: 3
Trigger mode: 4
Integration Time (sec): 2.000000E-2
Electric dark correction enabled: true
Boxcar width: 10
XAxis mode: Wavelengths
Number of Pixels in Spectrum: 2048
>>>>>Begin Spectral Data<<<<<
177.721	-375.75
178.105	418.58
178.488	644.99
178.871	393.3
179.254	-2706.45
179.636	33.45
180.019	-243.17
180.402	-1350
180.785	177.53
181.168	-26.05
181.55	-56.83
181.933	54.05
182.316	93.44
182.698	78.78
183.081	111.82
183.463	98.48
183.846	101.71
184.228	150.04
184.611	155.59
184.993	318.79
185.376	621.44
185.758	1170.74
186.14	406.37
186.522	512.03
186.904	329.99
187.287	347.71
187.669	640.13
188.051	398.92
188.433	351.91
188.815	477.85
189.197	865.24
189.579	3532
189.961	-829.95
190.342	-6661.19
190.724	-564.58
191.106	-750.59
191.488	-455.95
191.869	-372.92
192.251	-549.62
192.633	-312.77
193.014	-614.94
193.396	-2402.18
193.777	-8014.75
194.159	14585.71
194.54	5846.99
194.922	-839.18
195.303	-344.36
195.684	-892.17
196.065	-313.41
196.447	-263.58
196.828	-306.66
197.209	-329.34
197.59	-296.67
197.971	1948
198.352	-362.74
198.733	-561.34
199.114	-389.97
199.495	-1288.06
199.876	1377.23
200.257	-3293.44
200.638	-882.98
201.018	-989.17
201.399	-912.74
201.78	-387.85
202.16	-311.95
202.541	-399.09
202.922	2303.54
203.302	856.37
203.683	29827.27
204.063	595.91
204.444	365.51
204.824	303.14
205.204	226.2
205.585	283.97
205.965	605.51
206.345	339.21
206.725	430.94
207.106	351.14
207.486	308.57
207.866	472.23
208.246	313.89
208.626	288.99
209.006	322.55
209.386	318.03
209.766	214.06
210.145	179.26
210.525	198.96
210.905	286.4
211.285	371.37
211.664	619.6
212.044	921.36
212.424	1322.87
212.803	2785.86
213.183	-663.41
213.562	-823.52
213.942	-498.48
214.321	-179.11
214.701	-141.79
215.08	-140.38
215.459	-106.95
215.838	-111.42
216.218	-62.32
216.597	-29.4
216.976	-18.58
217.355	-25.21
217.734	-33.04
218.113	-32.93
218.492	-17.25
218.871	-21.91
219.25	-11.71
219.629	5.67
220.008	3.52
220.387	-4.88
220.766	1.34
221.144	-23.76
221.523	-37.26
221.902	-43.64
222.28	-59.05
222.659	-85.61
223.037	-70.71
223.416	-63.09
223.794	-61.08
224.173	-59.91
224.551	-48.3
224.929	-39.53
225.308	-26.46
225.686	-23.12
226.064	-21.21
226.442	-19.54
226.821	-15.47
227.199	-19.95
227.577	-22.98
227.955	-20.1
228.333	-20.39
228.711	-17.85
229.089	-13.24
229.467	-14.11
229.845	-12.83
230.222	-9.27
230.6	-6.79
230.978	-5.45
231.356	-2.96
231.733	-1.23
232.111	1.24
232.488	-1.3
232.866	-1.49
233.243	-2.71
233.621	-3.28
233.998	-1.39
234.376	-2.23
234.753	-2.24
235.13	-2.62
235.508	-0.64
235.885	-1.55
236.262	-1.11
236.639	-1.8
237.016	-1.73
237.393	0.58
237.77	0.07
238.147	0.44
238.524	0.41
238.901	1.22
239.278	1.23
239.655	1.72
240.032	0.68
240.409	0.85
240.785	1.04
241.162	1.49
241.539	2.25
241.915	2.26
242.292	2.13
242.668	2.37
243.045	3.11
243.421	2.9
243.798	2.99
244.174	3.15
244.551	3.29
244.927	3.61
245.303	3.61
245.679	3.89
246.056	3.74
246.432	3.6
246.808	3.5
247.184	3.18
247.56	2.92
247.936	3.18
248.312	3.07
248.688	3.12
249.064	3.02
249.44	2.94
249.815	2.85
250.191	2.94
250.567	2.79
250.943	2.77
251.318	2.99
251.694	3.12
252.069	3.01
252.445	2.99
252.82	2.75
253.196	2.34
253.571	1.87
253.947	2.1
254.322	2.43
254.697	2.12
255.073	2.24
255.448	2.51
255.823	2.57
256.198	2.98
256.573	2.98
256.948	3.11
257.323	3.01
257.698	3.04
258.073	3.1
258.448	3.06
258.823	3.14
259.198	2.94
259.573	3.08
259.948	3.05
260.322	2.98
260.697	2.84
261.072	2.93
261.446	3.11
261.821	3.02
262.195	2.95
262.57	3.11
262.944	3.27
263.319	3.32
263.693	3.3
264.067	3.27
264.442	3.3
264.816	3.32
265.19	3.36
265.564	3.34
265.938	3.29
266.313	3.33
266.687	3.18
267.061	3.35
267.435	3.14
267.809	3.32
268.183	3.29
268.556	3.56
268.93	3.57
269.304	3.59
269.678	3.71
270.051	3.78
270.425	3.77
270.799	3.57
271.172	3.46
271.546	3.46
271.919	3.42
272.293	3.5
272.666	3.49
273.04	3.57
273.413	3.63
273.787	3.67
274.16	3.7
274.533	3.74
274.906	3.68
275.279	3.78
275.653	3.83
276.026	3.88
276.399	3.74
276.772	3.9
277.145	3.87
277.518	3.73
277.891	3.66
278.263	3.52
278.636	3.69
279.009	3.68
279.382	3.84
279.755	3.82
280.127	3.83
280.5	3.91
280.872	3.99
281.245	4.04
281.617	4.13
281.99	4.13
282.362	4.22
282.735	4.14
283.107	4.11
283.479	4.01
283.852	4.08
284.224	4.16
284.596	4.09
284.968	4.17
285.34	4.23
285.713	4.14
286.085	4.28
286.457	4.39
286.829	4.36
287.201	4.19
287.572	4.22
287.944	4.14
288.316	4.17
288.688	3.98
289.06	3.87
289.431	3.76
289.803	3.77
290.175	3.69
290.546	3.82
290.918	3.77
291.289	3.85
291.661	3.94
292.032	3.96
292.403	3.9
292.775	3.95
293.146	3.92
293.517	3.99
293.889	4.02
294.26	4.07
294.631	4.19
295.002	4.17
295.373	4.13
295.744	4.07
296.115	3.9
296.486	3.89
296.857	4.01
297.228	4.12
297.599	4.05
297.97	4.07
298.34	4.05
298.711	4.02
299.082	4.04
299.452	3.98
299.823	3.92
300.194	4
300.564	3.98
300.935	4.02
301.305	3.95
301.676	3.9
302.046	3.82
302.416	3.82
302.787	3.81
303.157	3.76
303.527	3.76
303.897	3.85
304.267	3.98
304.637	3.82
305.008	3.8
305.378	4.02
305.748	3.96
306.117	3.94
306.487	4
306.857	3.92
307.227	3.87
307.597	3.85
307.967	3.77
308.336	3.63
308.706	3.63
309.076	3.74
309.445	3.75
309.815	3.63
310.184	3.48
310.554	3.54
310.923	3.6
311.293	3.66
311.662	3.6
312.031	3.61
312.401	3.73
312.77	3.66
313.139	3.56
313.508	3.56
313.877	3.52
314.246	3.53
314.616	3.54
314.985	3.57
315.353	3.56
315.722	3.61
316.091	3.66
316.46	3.55
316.829	3.47
317.198	3.44
317.567	3.51
317.935	3.45
318.304	3.41
318.672	3.46
319.041	3.44
319.41	3.36
319.778	3.3
320.147	3.15
320.515	3.1
320.883	3.04
321.252	3.1
321.62	3.06
321.988	3
322.357	2.99
322.725	2.93
323.093	3
323.461	2.89
323.829	2.76
324.197	2.82
324.565	2.93
324.933	3
325.301	3.02
325.669	3.11
326.037	3.17
326.405	3.2
326.772	3.23
327.14	3.39
327.508	3.33
327.875	3.36
328.243	3.52
328.61	3.52
328.978	3.64
329.346	3.73
329.713	3.71
330.08	3.6
330.448	3.51
330.815	3.45
331.182	3.56
331.55	3.68
331.917	3.66
332.284	3.67
332.651	3.53
333.018	3.52
333.385	3.53
333.752	3.57
334.119	3.47
334.486	3.37
334.853	3.26
335.22	3.26
335.587	3.29
335.954	3.15
336.32	3.06
336.687	2.95
337.054	2.97
337.42	3.02
337.787	3.11
338.153	3.16
338.52	3.21
338.886	3.11
339.253	3.11
339.619	3.14
339.986	3.21
340.352	3.29
340.718	3.17
341.084	3.19
341.451	3.15
341.817	3.16
342.183	3.18
342.549	3.17
342.915	3.2
343.281	3.24
343.647	3.12
344.013	3.24
344.379	3.22
344.745	3.22
345.11	3.27
345.476	3.28
345.842	3.27
346.208	3.31
346.573	3.41
346.939	3.5
347.304	3.4
347.67	3.24
348.035	3.18
348.401	3.28
348.766	3.27
349.132	3.19
349.497	3.15
349.862	3.28
350.228	3.36
350.593	3.36
350.958	3.28
351.323	3.41
351.688	3.35
352.053	3.46
352.418	3.37
352.783	3.35
353.148	3.38
353.513	3.43
353.878	3.38
354.243	3.42
354.608	3.37
354.972	3.45
355.337	3.55
355.702	3.66
356.066	3.67
356.431	3.64
356.795	3.7
357.16	3.71
357.524	3.6
357.889	3.6
358.253	3.61
358.618	3.67
358.982	3.67
359.346	3.72
359.71	3.62
360.075	3.64
360.439	3.6
360.803	3.6
361.167	3.6
361.531	3.59
361.895	3.54
362.259	3.51
362.623	3.55
362.987	3.51
363.351	3.43
363.714	3.41
364.078	3.43
364.442	3.43
364.806	3.41
365.169	3.44
365.533	3.43
365.896	3.41
366.26	3.39
366.623	3.44
366.987	3.39
367.35	3.42
367.714	3.49
368.077	3.44
368.44	3.45
368.803	3.47
369.167	3.44
369.53	3.42
369.893	3.44
370.256	3.38
370.619	3.38
370.982	3.37
371.345	3.4
371.708	3.44
372.071	3.41
372.434	3.42
372.797	3.42
373.159	3.4
373.522	3.47
373.885	3.53
374.247	3.48
374.61	3.49
374.973	3.46
375.335	3.38
375.698	3.44
376.06	3.4
376.423	3.43
376.785	3.5
377.147	3.55
377.51	3.57
377.872	3.58
378.234	3.61
378.596	3.61
378.958	3.58
379.321	3.56
379.683	3.62
380.045	3.66
380.407	3.65
380.769	3.61
381.13	3.61
381.492	3.58
381.854	3.57
382.216	3.57
382.578	3.6
382.939	3.58
383.301	3.63
383.663	3.6
384.024	3.53
384.386	3.47
384.747	3.47
385.109	3.45
385.47	3.45
385.832	3.45
386.193	3.49
386.554	3.5
386.916	3.46
387.277	3.46
387.638	3.43
387.999	3.4
388.36	3.48
388.721	3.49
389.082	3.5
389.443	3.5
389.804	3.52
390.165	3.54
390.526	3.53
390.887	3.52
391.248	3.57
391.609	3.57
391.969	3.61
392.33	3.59
392.691	3.57
393.051	3.58
393.412	3.59
393.772	3.54
394.133	3.54
394.493	3.58
394.854	3.55
395.214	3.57
395.574	3.6
395.935	3.55
396.295	3.53
396.655	3.49
397.015	3.5
397.376	3.49
397.736	3.47
398.096	3.5
398.456	3.46
398.816	3.44
399.176	3.46
399.535	3.43
399.895	3.44
400.255	3.44
400.615	3.45
400.975	3.45
401.334	3.46
401.694	3.44
402.054	3.43
402.413	3.44
402.773	3.41
403.132	3.42
403.492	3.45
403.851	3.44
404.211	3.45
404.57	3.44
404.929	3.43
405.288	3.43
405.648	3.45
406.007	3.46
406.366	3.46
406.725	3.49
407.084	3.5
407.443	3.5
407.802	3.54
408.161	3.54
408.52	3.51
408.879	3.53
409.238	3.56
409.596	3.57
409.955	3.56
410.314	3.6
410.673	3.58
411.031	3.55
411.39	3.56
411.748	3.58
412.107	3.6
412.465	3.61
412.824	3.63
413.182	3.64
413.54	3.65
413.899	3.66
414.257	3.64
414.615	3.62
414.974	3.62
415.332	3.59
415.69	3.57
416.048	3.56
416.406	3.53
416.764	3.51
417.122	3.52
417.48	3.5
417.838	3.49
418.195	3.48
418.553	3.49
418.911	3.48
419.269	3.48
419.626	3.47
419.984	3.47
420.342	3.46
420.699	3.46
421.057	3.44
421.414	3.43
421.772	3.43
422.129	3.44
422.486	3.44
422.844	3.45
423.201	3.44
423.558	3.46
423.915	3.48
424.273	3.49
424.63	3.47
424.987	3.47
425.344	3.47
425.701	3.48
426.058	3.48
426.415	3.47
426.772	3.45
427.128	3.44
427.485	3.44
427.842	3.44
428.199	3.43
428.555	3.45
428.912	3.47
429.269	3.48
429.625	3.49
429.982	3.47
430.338	3.48
430.695	3.51
431.051	3.5
431.407	3.49
431.764	3.48
432.12	3.48
432.476	3.48
432.832	3.46
433.189	3.46
433.545	3.44
433.901	3.45
434.257	3.46
434.613	3.47
434.969	3.48
435.325	3.48
435.681	3.48
436.036	3.48
436.392	3.47
436.748	3.44
437.104	3.42
437.459	3.43
437.815	3.44
438.171	3.42
438.526	3.44
438.882	3.46
439.237	3.48
439.593	3.5
439.948	3.51
440.304	3.52
440.659	3.52
441.014	3.52
441.369	3.51
441.725	3.5
442.08	3.49
442.435	3.49
442.79	3.49
443.145	3.5
443.5	3.51
443.855	3.52
444.21	3.52
444.565	3.54
444.92	3.52
445.275	3.49
445.629	3.49
445.984	3.47
446.339	3.46
446.693	3.44
447.048	3.41
447.403	3.39
447.757	3.38
448.112	3.38
448.466	3.38
448.82	3.39
449.175	3.4
449.529	3.4
449.883	3.37
450.238	3.37
450.592	3.36
450.946	3.34
451.3	3.32
451.654	3.33
452.008	3.33
452.362	3.33
452.716	3.36
453.07	3.36
453.424	3.37
453.778	3.37
454.132	3.38
454.486	3.37
454.839	3.39
455.193	3.4
455.547	3.39
455.9	3.4
456.254	3.41
456.607	3.42
456.961	3.43
457.314	3.45
457.668	3.46
458.021	3.45
458.375	3.46
458.728	3.47
459.081	3.45
459.434	3.45
459.787	3.44
460.141	3.43
460.494	3.43
460.847	3.42
461.2	3.41
461.553	3.41
461.906	3.42
462.259	3.42
462.611	3.42
462.964	3.43
463.317	3.42
463.67	3.41
464.022	3.4
464.375	3.39
464.728	3.39
465.08	3.4
465.433	3.41
465.785	3.39
466.138	3.38
466.49	3.4
466.843	3.4
467.195	3.4
467.547	3.41
467.899	3.41
468.252	3.41
468.604	3.43
468.956	3.42
469.308	3.43
469.66	3.43
470.012	3.45
470.364	3.45
470.716	3.46
471.068	3.47
471.42	3.46
471.772	3.48
472.123	3.48
472.475	3.49
472.827	3.47
473.178	3.48
473.53	3.48
473.882	3.49
474.233	3.5
474.585	3.5
474.936	3.49
475.288	3.51
475.639	3.51
475.99	3.49
476.342	3.48
476.693	3.47
477.044	3.49
477.395	3.49
477.746	3.49
478.097	3.49
478.448	3.49
478.8	3.48
479.15	3.47
479.501	3.47
479.852	3.47
480.203	3.48
480.554	3.48
480.905	3.49
481.255	3.48
481.606	3.49
481.957	3.5
482.307	3.51
482.658	3.51
483.009	3.51
483.359	3.52
483.709	3.53
484.06	3.54
484.41	3.54
484.761	3.54
485.111	3.55
485.461	3.56
485.811	3.56
486.162	3.57
486.512	3.57
486.862	3.58
487.212	3.57
487.562	3.58
487.912	3.59
488.262	3.59
488.612	3.6
488.961	3.6
489.311	3.59
489.661	3.59
490.011	3.58
490.36	3.59
490.71	3.59
491.06	3.6
491.409	3.6
491.759	3.59
492.108	3.59
492.458	3.59
492.807	3.57
493.157	3.58
493.506	3.59
493.855	3.59
494.204	3.57
494.554	3.58
494.903	3.57
495.252	3.57
495.601	3.58
495.95	3.58
496.299	3.59
496.648	3.59
496.997	3.6
497.346	3.61
497.695	3.6
498.043	3.61
498.392	3.61
498.741	3.6
499.09	3.6
499.438	3.6
499.787	3.6
500.135	3.61
500.484	3.59
500.832	3.58
501.181	3.6
501.529	3.61
501.878	3.63
502.226	3.66
502.574	3.66
502.923	3.65
503.271	3.62
503.619	3.64
503.967	3.63
504.315	3.62
504.663	3.63
505.011	3.63
505.359	3.64
505.707	3.65
506.055	3.67
506.403	3.68
506.751	3.69
507.098	3.68
507.446	3.7
507.794	3.71
508.141	3.72
508.489	3.7
508.837	3.7
509.184	3.7
509.531	3.69
509.879	3.72
510.226	3.74
510.574	3.77
510.921	3.76
511.268	3.77
511.616	3.79
511.963	3.78
512.31	3.79
512.657	3.79
513.004	3.79
513.351	3.79
513.698	3.79
514.045	3.78
514.392	3.81
514.739	3.81
515.086	3.81
515.432	3.8
515.779	3.81
516.126	3.82
516.473	3.81
516.819	3.82
517.166	3.81
517.512	3.78
517.859	3.78
518.205	3.78
518.552	3.79
518.898	3.78
519.245	3.78
519.591	3.78
519.937	3.75
520.283	3.76
520.629	3.76
520.976	3.77
521.322	3.79
521.668	3.8
522.014	3.81
522.36	3.81
522.706	3.84
523.052	3.85
523.398	3.86
523.743	3.87
524.089	3.87
524.435	3.87
524.781	3.9
525.126	3.91
525.472	3.93
525.817	3.94
526.163	3.94
526.509	3.95
526.854	3.96
527.199	3.98
527.545	3.99
527.89	4
528.235	4
528.581	3.99
528.926	3.98
529.271	3.98
529.616	3.98
529.961	3.97
530.306	3.97
530.651	3.97
530.996	3.98
531.341	3.97
531.686	3.98
532.031	3.97
532.376	3.97
532.721	3.97
533.065	3.96
533.41	3.98
533.755	3.98
534.099	3.98
534.444	3.98
534.788	3.99
535.133	3.99
535.477	4
535.822	4.01
536.166	4.01
536.51	4.01
536.855	4.02
537.199	4.02
537.543	4.02
537.887	4.03
538.231	4.02
538.576	4.02
538.92	4.02
539.264	4.03
539.608	4.04
539.951	4.03
540.295	4.03
540.639	4.02
540.983	4.02
541.327	4.01
541.671	4.01
542.014	4
542.358	3.99
542.701	3.99
543.045	3.99
543.389	3.99
543.732	3.99
544.075	3.98
544.419	3.99
544.762	4
545.105	4
545.449	4.01
545.792	4.01
546.135	4.02
546.478	4.02
546.821	4
547.165	4
547.508	4.01
547.851	3.99
548.194	3.99
548.536	3.97
548.879	3.98
549.222	3.99
549.565	3.99
549.908	4
550.25	4.02
550.593	4.01
550.936	4.03
551.278	4.06
551.621	4.06
551.963	4.07
552.306	4.07
552.648	4.09
552.991	4.14
553.333	4.12
553.675	4.12
554.017	4.15
554.36	4.15
554.702	4.18
555.044	4.2
555.386	4.23
555.728	4.28
556.07	4.28
556.412	4.23
556.754	4.23
557.096	4.22
557.438	4.19
557.78	4.18
558.121	4.17
558.463	4.15
558.805	4.17
559.147	4.15
559.488	4.14
559.83	4.15
560.171	4.12
560.513	4.15
560.854	4.12
561.196	4.08
561.537	4.12
561.878	4.08
562.22	4.07
562.561	4.05
562.902	4.03
563.243	4.03
563.584	4.06
563.925	4.08
564.266	4.08
564.607	4.09
564.948	4.1
565.289	4.1
565.63	4.11
565.971	4.08
566.312	4.11
566.653	4.13
566.993	4.13
567.334	4.11
567.675	4.09
568.015	4.12
568.356	4.11
568.696	4.1
569.037	4.15
569.377	4.17
569.718	4.16
570.058	4.17
570.398	4.17
570.739	4.16
571.079	4.15
571.419	4.16
571.759	4.19
572.099	4.17
572.439	4.17
572.779	4.17
573.119	4.22
573.459	4.19
573.799	4.19
574.139	4.2
574.479	4.19
574.819	4.19
575.158	4.2
575.498	4.21
575.838	4.24
576.177	4.19
576.517	4.19
576.856	4.2
577.196	4.17
577.535	4.17
577.875	4.18
578.214	4.17
578.553	4.2
578.893	4.18
579.232	4.2
579.571	4.2
579.91	4.18
580.25	4.13
580.589	4.15
580.928	4.13
581.267	4.12
581.606	4.14
581.945	4.12
582.283	4.1
582.622	4.11
582.961	4.1
583.3	4.11
583.639	4.11
583.977	4.12
584.316	4.12
584.654	4.12
584.993	4.13
585.332	4.14
585.67	4.14
586.008	4.12
586.347	4.1
586.685	4.11
587.024	4.09
587.362	4.07
587.7	4.08
588.038	4.14
588.376	4.16
588.715	4.16
589.053	4.19
589.391	4.21
589.729	4.22
590.067	4.2
590.404	4.21
590.742	4.21
591.08	4.2
591.418	4.25
591.756	4.28
592.093	4.3
592.431	4.33
592.769	4.31
593.106	4.35
593.444	4.35
593.781	4.32
594.119	4.36
594.456	4.39
594.793	4.39
595.131	4.33
595.468	4.3
595.805	4.29
596.143	4.3
596.48	4.29
596.817	4.29
597.154	4.28
597.491	4.28
597.828	4.29
598.165	4.32
598.502	4.27
598.839	4.22
599.176	4.2
599.512	4.18
599.849	4.2
600.186	4.2
600.523	4.22
600.859	4.25
601.196	4.25
601.532	4.24
601.869	4.22
602.205	4.22
602.542	4.25
602.878	4.26
603.215	4.24
603.551	4.23
603.887	4.22
604.223	4.24
604.56	4.24
604.896	4.26
605.232	4.23
605.568	4.25
605.904	4.24
606.24	4.29
606.576	4.28
606.912	4.26
607.248	4.21
607.583	4.23
607.919	4.24
608.255	4.24
608.591	4.25
608.926	4.25
609.262	4.27
609.597	4.27
609.933	4.28
610.268	4.31
610.604	4.32
610.939	4.32
611.275	4.26
611.61	4.26
611.945	4.23
612.281	4.2
612.616	4.19
612.951	4.24
613.286	4.18
613.621	4.16
613.956	4.15
614.291	4.23
614.626	4.22
614.961	4.16
615.296	4.13
615.631	4.12
615.966	4.13
616.3	4.12
616.635	4.08
616.97	4.06
617.304	4.03
617.639	4.03
617.973	4.07
618.308	4.13
618.642	4.13
618.977	4.13
619.311	4.18
619.646	4.2
619.98	4.17
620.314	4.23
620.648	4.23
620.983	4.29
621.317	4.23
621.651	4.22
621.985	4.28
622.319	4.33
622.653	4.34
622.987	4.36
623.321	4.36
623.655	4.42
623.988	4.45
624.322	4.46
624.656	4.48
624.99	4.45
625.323	4.45
625.657	4.46
625.99	4.48
626.324	4.46
626.657	4.44
626.991	4.46
627.324	4.45
627.658	4.48
627.991	4.45
628.324	4.48
628.657	4.47
628.991	4.43
629.324	4.39
629.657	4.41
629.99	4.42
630.323	4.4
630.656	4.38
630.989	4.37
631.322	4.42
631.655	4.42
631.987	4.42
632.32	4.39
632.653	4.39
632.986	4.38
633.318	4.37
633.651	4.4
633.984	4.38
634.316	4.34
634.649	4.32
634.981	4.3
635.313	4.3
635.646	4.35
635.978	4.37
636.31	4.4
636.643	4.38
636.975	4.41
637.307	4.41
637.639	4.39
637.971	4.37
638.303	4.34
638.635	4.29
638.967	4.31
639.299	4.32
639.631	4.23
639.963	4.19
640.295	4.25
640.626	4.25
640.958	4.27
641.29	4.28
641.621	4.18
641.953	4.18
642.285	4.18
642.616	4.15
642.948	4.15
643.279	4.12
643.61	4.15
643.942	4.08
644.273	4.08
644.604	4.1
644.936	4.14
645.267	4.11
645.598	4.12
645.929	4.13
646.26	4.17
646.591	4.26
646.922	4.28
647.253	4.25
647.584	4.22
647.915	4.13
648.245	4.15
648.576	4.26
648.907	4.28
649.238	4.21
649.568	4.18
649.899	4.19
650.229	4.24
650.56	4.22
650.89	4.29
651.221	4.31
651.551	4.22
651.882	4.21
652.212	4.22
652.542	4.23
652.872	4.22
653.203	4.15
653.533	4.23
653.863	4.25
654.193	4.3
654.523	4.34
654.853	4.38
655.183	4.39
655.513	4.39
655.843	4.41
656.172	4.48
656.502	4.54
656.832	4.52
657.162	4.51
657.491	4.49
657.821	4.47
658.15	4.49
658.48	4.57
658.809	4.56
659.139	4.56
659.468	4.61
659.798	4.63
660.127	4.69
660.456	4.66
660.785	4.68
661.115	4.64
661.444	4.61
661.773	4.64
662.102	4.65
662.431	4.7
662.76	4.7
663.089	4.67
663.418	4.69
663.747	4.67
664.076	4.64
664.404	4.66
664.733	4.63
665.062	4.64
665.39	4.64
665.719	4.62
666.048	4.58
666.376	4.56
666.705	4.56
667.033	4.48
667.362	4.5
667.69	4.47
668.018	4.51
668.347	4.48
668.675	4.57
669.003	4.58
669.331	4.53
669.659	4.47
669.987	4.47
670.315	4.44
670.643	4.38
670.971	4.46
671.299	4.45
671.627	4.49
671.955	4.46
672.283	4.49
672.61	4.48
672.938	4.5
673.266	4.47
673.593	4.52
673.921	4.59
674.249	4.44
674.576	4.46
674.904	4.38
675.231	4.41
675.558	4.35
675.886	4.32
676.213	4.39
676.54	4.39
676.867	4.41
677.195	4.36
677.522	4.48
677.849	4.43
678.176	4.45
678.503	4.43
678.83	4.42
679.157	4.32
679.484	4.38
679.81	4.42
680.137	4.39
680.464	4.39
680.791	4.4
681.117	4.51
681.444	4.5
681.771	4.53
682.097	4.59
682.424	4.64
682.75	4.63
683.077	4.55
683.403	4.62
683.729	4.57
684.056	4.61
684.382	4.6
684.708	4.59
685.034	4.58
685.36	4.59
685.686	4.61
686.012	4.61
686.339	4.64
686.664	4.59
686.99	4.62
687.316	4.55
687.642	4.58
687.968	4.58
688.294	4.6
688.619	4.67
688.945	4.62
689.271	4.56
689.596	4.52
689.922	4.57
690.247	4.49
690.573	4.54
690.898	4.55
691.224	4.52
691.549	4.47
691.874	4.39
692.2	4.45
692.525	4.46
692.85	4.59
693.175	4.66
693.5	4.67
693.825	4.67
694.15	4.75
694.475	4.69
694.8	4.71
695.125	4.68
695.45	4.65
695.775	4.67
696.099	4.67
696.424	4.77
696.749	4.69
697.073	4.74
697.398	4.74
697.723	4.82
698.047	4.83
698.372	4.87
698.696	4.97
699.02	4.96
699.345	4.95
699.669	4.98
699.993	4.89
700.318	4.91
700.642	4.91
700.966	4.93
701.29	4.97
701.614	4.96
701.938	5
702.262	5.02
702.586	5.09
702.91	5.03
703.234	4.96
703.557	5.03
703.881	5.03
704.205	5.03
704.529	4.92
704.852	4.86
705.176	4.9
705.499	4.81
705.823	4.8
706.146	4.73
706.47	4.67
706.793	4.61
707.117	4.61
707.44	4.57
707.763	4.41
708.086	4.37
708.409	4.34
708.733	4.28
709.056	4.29
709.379	4.26
709.702	4.27
710.025	4.39
710.348	4.45
710.671	4.38
710.993	4.39
711.316	4.33
711.639	4.49
711.962	4.49
712.284	4.48
712.607	4.44
712.93	4.55
713.252	4.51
713.575	4.56
713.897	4.58
714.22	4.71
714.542	4.85
714.864	4.88
715.187	4.88
715.509	4.95
715.831	5.04
716.153	5
716.475	4.96
716.798	5.02
717.12	4.85
717.442	4.99
717.764	4.97
718.085	4.97
718.407	4.91
718.729	4.93
719.051	4.89
719.373	4.84
719.695	4.75
720.016	4.66
720.338	4.83
720.659	4.83
720.981	4.83
721.302	4.76
721.624	4.88
721.945	4.89
722.267	4.93
722.588	4.76
722.909	4.85
723.231	4.83
723.552	4.73
723.873	4.83
724.194	4.8
724.515	4.72
724.836	4.84
725.157	4.87
725.478	4.76
725.799	4.8
726.12	4.83
726.441	4.96
726.762	5.19
727.083	5.09
727.403	5.01
727.724	4.91
728.045	4.89
728.365	4.74
728.686	4.66
729.006	4.57
729.327	4.5
729.647	4.6
729.967	4.76
730.288	4.64
730.608	4.7
730.928	4.6
731.249	4.71
731.569	4.89
731.889	4.84
732.209	5.04
732.529	5.06
732.849	5.17
733.169	5.11
733.489	4.92
733.809	4.94
734.129	5.14
734.448	5.17
734.768	5.09
735.088	5.14
735.408	5.23
735.727	5.31
736.047	5.46
736.366	5.34
736.686	5.39
737.005	5.49
737.325	5.43
737.644	5.46
737.963	5.46
738.283	5.09
738.602	5.07
738.921	5.09
739.24	5.18
739.56	5.21
739.879	5.18
740.198	5.27
740.517	5.28
740.836	5.19
741.155	5.1
741.473	5.28
741.792	5.24
742.111	5.19
742.43	5.2
742.748	5.02
743.067	4.98
743.386	4.82
743.704	4.72
744.023	4.87
744.341	4.9
744.66	5.11
744.978	5.22
745.297	5.21
745.615	5.02
745.933	5.12
746.252	5.19
746.57	5.17
746.888	5.01
747.206	4.74
747.524	4.78
747.842	4.87
748.16	4.88
748.478	5.03
748.796	4.98
749.114	5.08
749.432	5.05
749.749	5.04
750.067	5.21
750.385	5.23
750.703	5.19
751.02	4.97
751.338	4.73
751.655	4.9
751.973	4.97
752.29	5.14
752.608	5.03
752.925	4.85
753.242	4.94
753.56	5.05
753.877	5.23
754.194	5.04
754.511	5.29
754.828	5.28
755.145	5.12
755.462	5.24
755.779	5
756.096	5.44
756.413	5.6
756.73	5.61
757.047	5.52
757.364	5.27
757.68	5.38
757.997	5.43
758.314	5.57
758.63	5.64
758.947	5.63
759.264	5.62
759.58	5.6
759.896	5.47
760.213	5.56
760.529	5.64
760.846	5.81
761.162	5.58
761.478	5.59
761.794	5.5
762.11	5.33
762.426	5.52
762.743	5.41
763.059	5.3
763.375	5.15
763.69	5.27
764.006	5.52
764.322	5.47
764.638	5.58
764.954	5.5
765.27	5.42
765.585	5.42
765.901	5.4
766.216	5.54
766.532	5.51
766.848	5.52
767.163	5.5
767.478	5.37
767.794	5.25
768.109	5.17
768.424	5.16
768.74	5.43
769.055	5.12
769.37	4.88
769.685	4.98
770	5.24
770.315	5.1
770.63	5.12
770.945	5.38
771.26	5.18
771.575	5.22
771.89	5.27
772.205	5.06
772.52	5.26
772.834	4.91
773.149	4.97
773.464	5.06
773.778	5.01
774.093	4.84
774.407	5.09
774.722	4.84
775.036	5.27
775.351	5.27
775.665	5.27
775.979	5.4
776.293	5.38
776.608	4.92
776.922	5.22
777.236	4.95
777.55	4.71
777.864	4.8
778.178	4.56
778.492	4.63
778.806	4.8
779.12	4.42
779.434	4.7
779.747	4.65
780.061	4.72
780.375	4.9
780.689	5.35
781.002	5.74
781.316	6.25
781.629	5.89
781.943	5.96
782.256	6.24
782.57	6.38
782.883	6.36
783.196	6.68
783.51	6.15
783.823	6.49
784.136	6.61
784.449	6.49
784.762	6.88
785.075	6.97
785.388	6.17
785.701	6.49
786.014	6.23
786.327	6.38
786.64	6.67
786.953	6.34
787.266	5.99
787.578	5.41
787.891	5.2
788.204	5.39
788.516	5.37
788.829	5.4
789.141	5.39
789.454	5.48
789.766	5.57
790.079	5.78
790.391	5.39
790.703	5.85
791.016	6.03
791.328	5.83
791.64	5.6
791.952	6.44
792.264	5.99
792.576	6.22
792.888	6.21
793.2	5.59
793.512	5.39
793.824	5.61
794.136	6.05
794.448	6.28
794.76	6.23
795.071	6.32
795.383	6.47
795.695	6.36
796.006	6
796.318	5.88
796.629	6
796.941	6.03
797.252	5.77
797.564	5.78
797.875	6.03
798.186	5.69
798.497	5.58
798.809	5.83
799.12	5.86
799.431	5.77
799.742	5.99
800.053	6.43
800.364	6.19
800.675	5.67
800.986	5.6
801.297	5.37
801.608	5.23
801.918	4.89
802.229	5.03
802.54	5.1
802.851	5.31
803.161	5.64
803.472	5.7
803.782	5.78
804.093	5.78
804.403	5.6
804.714	5.74
805.024	5.61
805.334	5.82
805.645	5.72
805.955	6.28
806.265	6.57
806.575	6.37
806.885	7.01
807.195	7.37
807.505	7.35
807.815	8.01
808.125	7.85
808.435	8.06
808.745	7.67
809.055	8.14
809.365	7.83
809.674	7.48
809.984	7.76
810.294	7.58
810.603	7.45
810.913	7.55
811.222	7.56
811.532	8.01
811.841	8.26
812.151	8.98
812.46	8.42
812.769	7.57
813.079	7.21
813.388	7.08
813.697	6.94
814.006	7.31
814.315	6.86
814.624	6.31
814.933	6.18
815.242	6.4
815.551	5.96
815.86	6.53
816.169	6.83
816.478	6.79
816.786	6.78
817.095	7.02
817.404	6.8
817.712	7.06
818.021	6.85
818.33	6.34
818.638	5.94
818.947	6.3
819.255	6.8
819.563	7.09
819.872	6.72
820.18	6.75
820.488	6.32
820.796	6.4
821.105	6.76
821.413	6.8
821.721	6.74
822.029	6.65
822.337	6.59
822.645	6.54
822.953	6.62
823.26	6.56
823.568	6.6
823.876	6.56
824.184	6.59
824.491	6.62
824.799	6.63
825.107	6.66
825.414	6.61
825.722	6.56
826.029	6.67
826.337	6.86
826.644	6.99
826.951	6.87
827.259	6.66
827.566	6.53
827.873	6.55
828.18	6.7
828.488	6.81
828.795	6.58
829.102	6.65
829.409	6.51
829.716	6.5
830.023	6.56
830.329	6.71
830.636	7.1
830.943	6.73
831.25	6.71
831.557	6.58
831.863	6.97
832.17	7.04
832.476	6.76
832.783	6.45
833.089	6.47
833.396	7.29
833.702	7.69
834.009	8.11
834.315	7.98
834.621	7.39
834.928	7.45
835.234	7.54
835.54	7.3
835.846	7.26
836.152	7.45
836.458	6.98
836.764	6.62
837.07	5.81
837.376	5.92
837.682	6.1
837.988	5.8
838.293	5.08
838.599	4.7
838.905	4.9
839.211	4.59
839.516	4.03
839.822	3.54
840.127	2.74
840.433	2.63
840.738	1.78
841.044	2.58
841.349	2.25
841.654	2.39
841.959	2.72
842.265	3.05
842.57	3.11
842.875	3.3
843.18	4.22
843.485	4.15
843.79	4.45
844.095	3.72
844.4	5.29
844.705	5.6
845.01	5.49
845.315	4.66
845.619	5.99
845.924	5.26
846.229	5.67
846.533	6.05
846.838	5.24
847.142	6.22
847.447	5.59
847.751	6.68
848.056	6.41
848.36	6.42
848.664	6.66
848.969	6.55
849.273	5.98
849.577	5.49
849.881	7.24
850.185	7.74
850.489	9.14
850.794	7.25
851.097	7.45
851.401	8.25
851.705	8.51
852.009	8.48
852.313	9.5
852.617	7.11
852.92	8.59
853.224	8.27
853.528	9.32
853.831	8.03
854.135	8.84
854.438	8.74
854.742	9.03
855.045	7.64
855.349	7.24
855.652	7.63
855.955	9.39
856.259	9.18
856.562	9.09
856.865	7.59
857.168	8.22
857.471	8.77
857.774	9.28
858.077	10.25
858.38	9.04
858.683	7.08
858.986	10.46
859.289	11.41
859.592	10.32
859.894	9.65
860.197	11.1
860.5	8.62
860.802	8.49
861.105	7.71
861.407	7.26
861.71	7.23
862.012	8.27
862.315	7.4
862.617	5.71
862.919	5.42
863.222	7.58
863.524	7.81
863.826	6.82
864.128	6.03
864.43	5.33
864.732	6.34
865.034	6.93
865.336	5.16
865.638	5.48
865.94	5.17
866.242	6.06
866.544	5.55
866.846	7.59
867.147	7.8
867.449	8.12
867.751	8.55
868.052	9.49
868.354	5.8
868.655	3.6
868.957	2.01
869.258	3.63
869.56	1.71
869.861	0.4
870.162	-0.06
870.463	-0.41
870.765	0.22
871.066	-1.5
871.367	0.21
871.668	1.39
871.969	-0.8
872.27	-2.13
872.571	-1.76
872.872	0.21
873.173	-2.02
873.473	-2.81
873.774	-1.94
874.075	-2.22
874.376	-2.93
874.676	2.18
874.977	2.74
875.277	8.22
875.578	6.6
875.878	7.67
876.179	8.69
876.479	9.55
876.78	10.86
877.08	10.42
877.38	11.52
877.68	11.7
877.981	10.33
878.281	11.31
878.581	16
