Data from BA58010_Reflection_00009.txt Node
Date: Mon Nov 18 16:07:05 EST 2019
User: vgr7
Spectrometer: USB2G7710
Scans to average: 3
Trigger mode: 4
Integration Time (sec): 2.000000E-2
Electric dark correction enabled: true
Boxcar width: 10
XAxis mode: Wavelengths
Number of Pixels in Spectrum: 2048
>>>>>Begin Spectral Data<<<<<
177.721	102.62
178.105	108.85
178.488	93.21
178.871	-20.11
179.254	-222.58
179.636	-24.57
180.019	-69.74
180.402	-2100
180.785	191.45
181.168	64.29
181.55	46.04
181.933	96.5
182.316	133.26
182.698	99.33
183.081	143.76
183.463	138.52
183.846	160.33
184.228	277.35
184.611	175.4
184.993	334.86
185.376	583.07
185.758	923.15
186.14	322.45
186.522	390.58
186.904	275.23
187.287	303.5
187.669	733.41
188.051	378.51
188.433	353
188.815	442.94
189.197	826.86
189.579	2580
189.961	-474.43
190.342	-3989.55
190.724	-303
191.106	-416.13
191.488	-220.5
191.869	-160.31
192.251	-256.91
192.633	-151.48
193.014	-260.32
193.396	-1279.91
193.777	-4588.52
194.159	9814.29
194.54	3328.92
194.922	-583.36
195.303	-229.86
195.684	-647.55
196.065	-234.56
196.447	-202.01
196.828	-247.02
197.209	-287.04
197.59	-350.54
197.971	3492
198.352	-645.23
198.733	-1235.46
199.114	-1183.67
199.495	-6676.12
199.876	4773.27
200.257	-7244.26
200.638	-2061.7
201.018	-3250.32
201.399	-2944.59
201.78	-737.38
202.16	-623.75
202.541	-784.83
202.922	3639.82
203.302	1403.12
203.683	47918.18
204.063	941.24
204.444	567.96
204.824	604.42
205.204	430.63
205.585	451.59
205.965	758.27
206.345	397
206.725	485.65
207.106	351.78
207.486	299.69
207.866	458.26
208.246	303.35
208.626	248.23
209.006	266.17
209.386	278.03
209.766	236.51
210.145	244.65
210.525	250.93
210.905	318.44
211.285	332.37
211.664	438.81
212.044	771.84
212.424	1114.66
212.803	1785.86
213.183	-408.94
213.562	-630.4
213.942	-408.26
214.321	-169.64
214.701	-178.21
215.08	-197.79
215.459	-131.99
215.838	-153.93
216.218	-100.08
216.597	-98.65
216.976	-105.39
217.355	-85.64
217.734	-77.38
218.113	-49.37
218.492	-33.77
218.871	-52.75
219.25	-53.88
219.629	-62.57
220.008	-49.79
220.387	-50.3
220.766	-43.11
221.144	-50.78
221.523	-52.8
221.902	-65.37
222.28	-53.78
222.659	-60.71
223.037	-46.44
223.416	-58.79
223.794	-57.08
224.173	-70.9
224.551	-62.72
224.929	-44.64
225.308	-36.51
225.686	-32.8
226.064	-25.38
226.442	-29.61
226.821	-23.44
227.199	-28.6
227.577	-29.89
227.955	-31.23
228.333	-29.49
228.711	-26.11
229.089	-22.99
229.467	-25.8
229.845	-21.12
230.222	-22.93
230.6	-19.59
230.978	-17.35
231.356	-12.58
231.733	-9.02
232.111	-5.2
232.488	-2.12
232.866	-2.87
233.243	-2.36
233.621	-4.05
233.998	-5.69
234.376	-5.77
234.753	-5.55
235.13	-2.81
235.508	-0.02
235.885	0.71
236.262	1.8
236.639	0.57
237.016	0.66
237.393	2.36
237.77	2.56
238.147	2.8
238.524	2.73
238.901	3.77
239.278	3.68
239.655	3.72
240.032	2.92
240.409	2.19
240.785	2.46
241.162	2.05
241.539	2.96
241.915	3.11
242.292	2.76
242.668	3.15
243.045	3.25
243.421	3.3
243.798	3.39
244.174	3.41
244.551	3.58
244.927	3.48
245.303	3.63
245.679	3.66
246.056	3.7
246.432	3.79
246.808	3.69
247.184	3.41
247.56	3.4
247.936	3.38
248.312	3.66
248.688	3.72
249.064	3.94
249.44	3.84
249.815	3.92
250.191	4.2
250.567	4.29
250.943	4.13
251.318	4.03
251.694	4.18
252.069	4.11
252.445	4.25
252.82	4.51
253.196	4.5
253.571	4.36
253.947	4.55
254.322	4.54
254.697	4.67
255.073	4.84
255.448	4.5
255.823	4.41
256.198	4.14
256.573	4.02
256.948	3.9
257.323	3.88
257.698	3.93
258.073	3.98
258.448	3.79
258.823	3.96
259.198	3.92
259.573	3.96
259.948	3.87
260.322	3.71
260.697	3.63
261.072	3.61
261.446	3.59
261.821	3.41
262.195	3.42
262.57	3.23
262.944	3.25
263.319	3.31
263.693	3.28
264.067	3.39
264.442	3.41
264.816	3.35
265.19	3.36
265.564	3.35
265.938	3.04
266.313	3.11
266.687	3.11
267.061	3.09
267.435	2.96
267.809	3.1
268.183	3.27
268.556	3.2
268.93	3.15
269.304	3.2
269.678	3.39
270.051	3.22
270.425	3.14
270.799	2.95
271.172	2.99
271.546	3.08
271.919	2.94
272.293	2.83
272.666	2.99
273.04	2.91
273.413	2.91
273.787	3.05
274.16	2.86
274.533	2.75
274.906	2.74
275.279	2.6
275.653	2.57
276.026	2.39
276.399	2.32
276.772	2.38
277.145	2.29
277.518	2.17
277.891	2.2
278.263	2.26
278.636	2.57
279.009	2.64
279.382	2.68
279.755	2.83
280.127	2.98
280.5	2.93
280.872	3.07
281.245	3.1
281.617	3.2
281.99	3.38
282.362	3.47
282.735	3.46
283.107	3.7
283.479	3.71
283.852	3.73
284.224	3.83
284.596	3.78
284.968	3.89
285.34	4.07
285.713	4.24
286.085	4.26
286.457	4.22
286.829	4.13
287.201	4.16
287.572	4.1
287.944	3.98
288.316	3.92
288.688	3.92
289.06	3.87
289.431	3.88
289.803	3.87
290.175	3.88
290.546	4.05
290.918	4.05
291.289	4.03
291.661	4.11
292.032	4.19
292.403	4.17
292.775	4.14
293.146	3.98
293.517	3.91
293.889	3.97
294.26	3.91
294.631	4.04
295.002	4.07
295.373	4.15
295.744	4.19
296.115	4.24
296.486	4.12
296.857	4.11
297.228	4.19
297.599	4.17
297.97	4.19
298.34	4.11
298.711	4.12
299.082	4.19
299.452	4.16
299.823	4.21
300.194	4.35
300.564	4.44
300.935	4.51
301.305	4.55
301.676	4.51
302.046	4.64
302.416	4.72
302.787	4.77
303.157	4.64
303.527	4.69
303.897	4.79
304.267	4.93
304.637	4.96
305.008	4.85
305.378	4.99
305.748	5.07
306.117	5.13
306.487	5.16
306.857	5.13
307.227	5.15
307.597	5.16
307.967	5.21
308.336	5.15
308.706	5.22
309.076	5.27
309.445	5.23
309.815	5.13
310.184	4.99
310.554	5.1
310.923	5.23
311.293	5.35
311.662	5.37
312.031	5.4
312.401	5.49
312.77	5.58
313.139	5.63
313.508	5.66
313.877	5.7
314.246	5.73
314.616	5.74
314.985	5.83
315.353	5.82
315.722	5.87
316.091	6
316.46	5.83
316.829	5.68
317.198	5.91
317.567	6.06
317.935	6.13
318.304	6.04
318.672	6.01
319.041	6.08
319.41	6.12
319.778	6.25
320.147	6.25
320.515	6.24
320.883	6.16
321.252	6.17
321.62	6.14
321.988	6.29
322.357	6.35
322.725	6.49
323.093	6.51
323.461	6.48
323.829	6.53
324.197	6.77
324.565	6.91
324.933	6.96
325.301	6.99
325.669	7.13
326.037	7.24
326.405	7.26
326.772	7.23
327.14	7.27
327.508	7.22
327.875	7.25
328.243	7.39
328.61	7.42
328.978	7.52
329.346	7.55
329.713	7.46
330.08	7.56
330.448	7.49
330.815	7.58
331.182	7.67
331.55	7.73
331.917	7.81
332.284	7.93
332.651	7.91
333.018	7.86
333.385	7.92
333.752	7.96
334.119	8.13
334.486	8.13
334.853	8.08
335.22	8.07
335.587	8.21
335.954	8.17
336.32	8.16
336.687	8.11
337.054	8.22
337.42	8.33
337.787	8.3
338.153	8.36
338.52	8.33
338.886	8.31
339.253	8.26
339.619	8.31
339.986	8.38
340.352	8.37
340.718	8.49
341.084	8.48
341.451	8.48
341.817	8.53
342.183	8.57
342.549	8.7
342.915	8.74
343.281	8.75
343.647	8.76
344.013	8.92
344.379	8.94
344.745	8.95
345.11	8.98
345.476	9.06
345.842	9.09
346.208	9.17
346.573	9.22
346.939	9.35
347.304	9.24
347.67	9.22
348.035	9.32
348.401	9.37
348.766	9.41
349.132	9.44
349.497	9.37
349.862	9.51
350.228	9.45
350.593	9.54
350.958	9.61
351.323	9.66
351.688	9.61
352.053	9.69
352.418	9.76
352.783	9.78
353.148	9.74
353.513	9.78
353.878	9.76
354.243	9.74
354.608	9.74
354.972	9.86
355.337	9.92
355.702	9.9
356.066	9.89
356.431	9.86
356.795	9.8
357.16	9.81
357.524	9.7
357.889	9.73
358.253	9.72
358.618	9.71
358.982	9.67
359.346	9.64
359.71	9.58
360.075	9.6
360.439	9.58
360.803	9.61
361.167	9.59
361.531	9.58
361.895	9.63
362.259	9.56
362.623	9.48
362.987	9.44
363.351	9.45
363.714	9.43
364.078	9.34
364.442	9.35
364.806	9.34
365.169	9.32
365.533	9.32
365.896	9.26
366.26	9.17
366.623	9.13
366.987	9.1
367.35	9.07
367.714	9.01
368.077	8.91
368.44	8.88
368.803	8.89
369.167	8.83
369.53	8.7
369.893	8.72
370.256	8.75
370.619	8.68
370.982	8.61
371.345	8.53
371.708	8.54
372.071	8.51
372.434	8.51
372.797	8.47
373.159	8.39
373.522	8.4
373.885	8.44
374.247	8.45
374.61	8.47
374.973	8.41
375.335	8.41
375.698	8.41
376.06	8.35
376.423	8.28
376.785	8.27
377.147	8.28
377.51	8.17
377.872	8.08
378.234	8.01
378.596	8.02
378.958	8.03
379.321	8
379.683	7.94
380.045	7.85
380.407	7.82
380.769	7.81
381.13	7.75
381.492	7.65
381.854	7.57
382.216	7.5
382.578	7.51
382.939	7.4
383.301	7.37
383.663	7.31
384.024	7.22
384.386	7.18
384.747	7.15
385.109	7.12
385.47	7.06
385.832	7.07
386.193	7.05
386.554	6.98
386.916	6.93
387.277	6.93
387.638	6.93
387.999	6.86
388.36	6.79
388.721	6.75
389.082	6.71
389.443	6.65
389.804	6.63
390.165	6.57
390.526	6.54
390.887	6.51
391.248	6.48
391.609	6.47
391.969	6.42
392.33	6.35
392.691	6.33
393.051	6.34
393.412	6.32
393.772	6.2
394.133	6.22
394.493	6.2
394.854	6.14
395.214	6.07
395.574	6.05
395.935	6
396.295	5.97
396.655	5.92
397.015	5.9
397.376	5.82
397.736	5.78
398.096	5.74
398.456	5.7
398.816	5.64
399.176	5.58
399.535	5.54
399.895	5.51
400.255	5.51
400.615	5.47
400.975	5.4
401.334	5.41
401.694	5.34
402.054	5.3
402.413	5.3
402.773	5.27
403.132	5.23
403.492	5.23
403.851	5.2
404.211	5.19
404.57	5.17
404.929	5.18
405.288	5.14
405.648	5.12
406.007	5.09
406.366	5.1
406.725	5.11
407.084	5.11
407.443	5.11
407.802	5.06
408.161	5.03
408.52	5
408.879	4.95
409.238	4.97
409.596	4.97
409.955	4.93
410.314	4.92
410.673	4.93
411.031	4.94
411.39	4.92
411.748	4.89
412.107	4.89
412.465	4.82
412.824	4.79
413.182	4.77
413.54	4.77
413.899	4.74
414.257	4.73
414.615	4.68
414.974	4.65
415.332	4.64
415.69	4.62
416.048	4.64
416.406	4.62
416.764	4.59
417.122	4.55
417.48	4.52
417.838	4.53
418.195	4.5
418.553	4.48
418.911	4.48
419.269	4.48
419.626	4.44
419.984	4.44
420.342	4.44
420.699	4.43
421.057	4.4
421.414	4.38
421.772	4.36
422.129	4.35
422.486	4.35
422.844	4.34
423.201	4.32
423.558	4.3
423.915	4.3
424.273	4.29
424.63	4.28
424.987	4.28
425.344	4.24
425.701	4.23
426.058	4.21
426.415	4.19
426.772	4.16
427.128	4.17
427.485	4.17
427.842	4.16
428.199	4.14
428.555	4.13
428.912	4.12
429.269	4.1
429.625	4.08
429.982	4.07
430.338	4.06
430.695	4.07
431.051	4.04
431.407	4.04
431.764	4.01
432.12	4.02
432.476	4.02
432.832	4.01
433.189	4.01
433.545	4
433.901	4
434.257	3.99
434.613	3.99
434.969	3.97
435.325	3.97
435.681	3.99
436.036	4
436.392	4
436.748	4
437.104	4
437.459	3.99
437.815	3.98
438.171	3.98
438.526	3.98
438.882	3.99
439.237	4.01
439.593	4.01
439.948	4
440.304	4.02
440.659	4.01
441.014	4.01
441.369	3.99
441.725	3.99
442.08	3.99
442.435	3.99
442.79	3.97
443.145	3.95
443.5	3.94
443.855	3.94
444.21	3.94
444.565	3.96
444.92	3.96
445.275	3.95
445.629	3.93
445.984	3.91
446.339	3.88
446.693	3.85
447.048	3.85
447.403	3.84
447.757	3.81
448.112	3.81
448.466	3.79
448.82	3.79
449.175	3.81
449.529	3.79
449.883	3.79
450.238	3.79
450.592	3.81
450.946	3.79
451.3	3.77
451.654	3.76
452.008	3.73
452.362	3.72
452.716	3.7
453.07	3.7
453.424	3.71
453.778	3.7
454.132	3.71
454.486	3.68
454.839	3.68
455.193	3.68
455.547	3.68
455.9	3.69
456.254	3.7
456.607	3.69
456.961	3.71
457.314	3.71
457.668	3.7
458.021	3.7
458.375	3.71
458.728	3.73
459.081	3.73
459.434	3.72
459.787	3.74
460.141	3.75
460.494	3.76
460.847	3.77
461.2	3.77
461.553	3.78
461.906	3.82
462.259	3.81
462.611	3.83
462.964	3.86
463.317	3.87
463.67	3.88
464.022	3.88
464.375	3.87
464.728	3.85
465.08	3.88
465.433	3.89
465.785	3.91
466.138	3.92
466.49	3.93
466.843	3.93
467.195	3.93
467.547	3.95
467.899	3.96
468.252	3.94
468.604	3.97
468.956	3.95
469.308	3.94
469.66	3.96
470.012	3.93
470.364	3.92
470.716	3.93
471.068	3.94
471.42	3.95
471.772	3.94
472.123	3.96
472.475	3.96
472.827	3.94
473.178	3.94
473.53	3.92
473.882	3.91
474.233	3.92
474.585	3.92
474.936	3.9
475.288	3.89
475.639	3.9
475.99	3.87
476.342	3.89
476.693	3.88
477.044	3.89
477.395	3.92
477.746	3.91
478.097	3.89
478.448	3.86
478.8	3.86
479.15	3.85
479.501	3.87
479.852	3.86
480.203	3.86
480.554	3.87
480.905	3.88
481.255	3.91
481.606	3.93
481.957	3.94
482.307	3.95
482.658	3.96
483.009	3.96
483.359	3.96
483.709	3.97
484.06	3.98
484.41	3.97
484.761	3.97
485.111	3.96
485.461	3.97
485.811	3.98
486.162	3.98
486.512	4
486.862	4
487.212	4.01
487.562	4.01
487.912	4.02
488.262	4.02
488.612	4.01
488.961	4.01
489.311	4.02
489.661	4.03
490.011	4.03
490.36	4.04
490.71	4.05
491.06	4.05
491.409	4.06
491.759	4.06
492.108	4.08
492.458	4.1
492.807	4.11
493.157	4.12
493.506	4.14
493.855	4.15
494.204	4.17
494.554	4.19
494.903	4.21
495.252	4.23
495.601	4.26
495.95	4.3
496.299	4.32
496.648	4.32
496.997	4.35
497.346	4.38
497.695	4.42
498.043	4.46
498.392	4.51
498.741	4.52
499.09	4.55
499.438	4.61
499.787	4.63
500.135	4.68
500.484	4.73
500.832	4.77
501.181	4.78
501.529	4.81
501.878	4.85
502.226	4.9
502.574	4.95
502.923	4.97
503.271	4.98
503.619	5.01
503.967	5.06
504.315	5.07
504.663	5.12
505.011	5.17
505.359	5.19
505.707	5.23
506.055	5.27
506.403	5.34
506.751	5.37
507.098	5.43
507.446	5.49
507.794	5.52
508.141	5.57
508.489	5.64
508.837	5.69
509.184	5.75
509.531	5.81
509.879	5.87
510.226	5.94
510.574	6
510.921	6.06
511.268	6.11
511.616	6.18
511.963	6.24
512.31	6.29
512.657	6.36
513.004	6.43
513.351	6.53
513.698	6.6
514.045	6.67
514.392	6.73
514.739	6.77
515.086	6.85
515.432	6.92
515.779	6.97
516.126	7.06
516.473	7.15
516.819	7.22
517.166	7.27
517.512	7.33
517.859	7.41
518.205	7.48
518.552	7.56
518.898	7.64
519.245	7.69
519.591	7.76
519.937	7.81
520.283	7.89
520.629	7.97
520.976	8.03
521.322	8.13
521.668	8.23
522.014	8.35
522.36	8.47
522.706	8.58
523.052	8.72
523.398	8.86
523.743	8.99
524.089	9.13
524.435	9.26
524.781	9.42
525.126	9.57
525.472	9.68
525.817	9.78
526.163	9.9
526.509	10.01
526.854	10.11
527.199	10.21
527.545	10.3
527.89	10.39
528.235	10.49
528.581	10.59
528.926	10.69
529.271	10.8
529.616	10.9
529.961	11.01
530.306	11.13
530.651	11.23
530.996	11.35
531.341	11.48
531.686	11.62
532.031	11.76
532.376	11.91
532.721	12.07
533.065	12.25
533.41	12.41
533.755	12.58
534.099	12.75
534.444	12.93
534.788	13.12
535.133	13.31
535.477	13.5
535.822	13.7
536.166	13.93
536.51	14.17
536.855	14.41
537.199	14.67
537.543	14.91
537.887	15.19
538.231	15.46
538.576	15.72
538.92	16
539.264	16.23
539.608	16.47
539.951	16.7
540.295	16.91
540.639	17.12
540.983	17.35
541.327	17.58
541.671	17.79
542.014	18.03
542.358	18.24
542.701	18.45
543.045	18.67
543.389	18.9
543.732	19.1
544.075	19.33
544.419	19.56
544.762	19.84
545.105	20.08
545.449	20.37
545.792	20.66
546.135	20.94
546.478	21.24
546.821	21.54
547.165	21.86
547.508	22.21
547.851	22.55
548.194	22.86
548.536	23.17
548.879	23.53
549.222	23.85
549.565	24.2
549.908	24.56
550.25	24.91
550.593	25.21
550.936	25.57
551.278	25.92
551.621	26.3
551.963	26.68
552.306	27.04
552.648	27.35
552.991	27.67
553.333	28.02
553.675	28.34
554.017	28.67
554.36	28.97
554.702	29.26
555.044	29.57
555.386	29.9
555.728	30.26
556.07	30.59
556.412	30.86
556.754	31.18
557.096	31.51
557.438	31.79
557.78	32.16
558.121	32.5
558.463	32.83
558.805	33.11
559.147	33.36
559.488	33.66
559.83	33.93
560.171	34.24
560.513	34.54
560.854	34.8
561.196	35.1
561.537	35.4
561.878	35.68
562.22	35.97
562.561	36.24
562.902	36.52
563.243	36.77
563.584	37.07
563.925	37.34
564.266	37.56
564.607	37.86
564.948	38.06
565.289	38.28
565.63	38.55
565.971	38.79
566.312	39.05
566.653	39.28
566.993	39.53
567.334	39.71
567.675	39.97
568.015	40.25
568.356	40.43
568.696	40.69
569.037	40.97
569.377	41.18
569.718	41.41
570.058	41.55
570.398	41.75
570.739	41.92
571.079	42.11
571.419	42.34
571.759	42.51
572.099	42.66
572.439	42.85
572.779	42.97
573.119	43.15
573.459	43.26
573.799	43.41
574.139	43.57
574.479	43.71
574.819	43.82
575.158	43.94
575.498	44.08
575.838	44.19
576.177	44.27
576.517	44.36
576.856	44.51
577.196	44.68
577.535	44.82
577.875	44.98
578.214	45.18
578.553	45.29
578.893	45.38
579.232	45.58
579.571	45.72
579.91	45.92
580.25	46.06
580.589	46.25
580.928	46.4
581.267	46.54
581.606	46.73
581.945	46.88
582.283	46.99
582.622	47.2
582.961	47.32
583.3	47.4
583.639	47.56
583.977	47.61
584.316	47.72
584.654	47.81
584.993	47.86
585.332	47.89
585.67	47.93
586.008	48.09
586.347	48.19
586.685	48.2
587.024	48.3
587.362	48.43
587.7	48.48
588.038	48.57
588.376	48.56
588.715	48.59
589.053	48.7
589.391	48.75
589.729	48.78
590.067	48.89
590.404	49
590.742	49.12
591.08	49.24
591.418	49.35
591.756	49.44
592.093	49.62
592.431	49.69
592.769	49.82
593.106	49.85
593.444	49.92
593.781	49.97
594.119	49.99
594.456	49.99
594.793	50.05
595.131	50.08
595.468	50.14
595.805	50.27
596.143	50.34
596.48	50.42
596.817	50.5
597.154	50.48
597.491	50.56
597.828	50.58
598.165	50.65
598.502	50.68
598.839	50.76
599.176	50.76
599.512	50.77
599.849	50.78
600.186	50.87
600.523	50.93
600.859	51.11
601.196	51.2
601.532	51.24
601.869	51.31
602.205	51.37
602.542	51.43
602.878	51.45
603.215	51.43
603.551	51.46
603.887	51.47
604.223	51.53
604.56	51.51
604.896	51.54
605.232	51.59
605.568	51.66
605.904	51.7
606.24	51.77
606.576	51.81
606.912	51.84
607.248	51.88
607.583	51.96
607.919	51.92
608.255	51.98
608.591	52.04
608.926	52.06
609.262	52.1
609.597	52.19
609.933	52.24
610.268	52.27
610.604	52.35
610.939	52.4
611.275	52.43
611.61	52.51
611.945	52.6
612.281	52.65
612.616	52.71
612.951	52.72
613.286	52.71
613.621	52.8
613.956	52.89
614.291	52.94
614.626	52.96
614.961	53.07
615.296	53.04
615.631	53.03
615.966	53.03
616.3	53.04
616.635	53.06
616.97	53.07
617.304	53.12
617.639	53.09
617.973	53.05
618.308	53.11
618.642	53.1
618.977	53.03
619.311	53.12
619.646	53.09
619.98	53.04
620.314	53.14
620.648	53.13
620.983	53.22
621.317	53.28
621.651	53.22
621.985	53.23
622.319	53.28
622.653	53.31
622.987	53.44
623.321	53.55
623.655	53.51
623.988	53.58
624.322	53.59
624.656	53.62
624.99	53.69
625.323	53.67
625.657	53.73
625.99	53.83
626.324	53.76
626.657	53.82
626.991	53.89
627.324	53.84
627.658	53.95
627.991	53.96
628.324	53.9
628.657	53.96
628.991	53.96
629.324	53.91
629.657	54.01
629.99	54.01
630.323	54
630.656	54.15
630.989	54.16
631.322	54.21
631.655	54.27
631.987	54.31
632.32	54.32
632.653	54.29
632.986	54.29
633.318	54.29
633.651	54.3
633.984	54.32
634.316	54.45
634.649	54.4
634.981	54.41
635.313	54.59
635.646	54.56
635.978	54.56
636.31	54.6
636.643	54.59
636.975	54.53
637.307	54.5
637.639	54.45
637.971	54.47
638.303	54.58
638.635	54.62
638.967	54.68
639.299	54.87
639.631	54.91
639.963	54.86
640.295	54.87
640.626	54.84
640.958	55
641.29	54.98
641.621	55.02
641.953	55.05
642.285	54.98
642.616	55.07
642.948	55.11
643.279	55.11
643.61	55.14
643.942	55.25
644.273	55.35
644.604	55.3
644.936	55.24
645.267	55.11
645.598	55.11
645.929	55.18
646.26	55.12
646.591	55.03
646.922	55.09
647.253	55.17
647.584	55.21
647.915	55.08
648.245	55.05
648.576	55.08
648.907	55.02
649.238	55.04
649.568	55.08
649.899	55.14
650.229	55.21
650.56	55.15
650.89	55.1
651.221	55.03
651.551	54.96
651.882	54.97
652.212	54.98
652.542	54.93
652.872	54.69
653.203	54.61
653.533	54.74
653.863	54.72
654.193	54.69
654.523	54.75
654.853	54.76
655.183	54.75
655.513	54.69
655.843	54.79
656.172	54.84
656.502	54.79
656.832	54.76
657.162	54.71
657.491	54.76
657.821	54.83
658.15	54.81
658.48	54.92
658.809	55
659.139	54.98
659.468	55.07
659.798	55.21
660.127	55.23
660.456	55.25
660.785	55.3
661.115	55.34
661.444	55.24
661.773	55.27
662.102	55.26
662.431	55.35
662.76	55.29
663.089	55.18
663.418	55.19
663.747	55.22
664.076	55.27
664.404	55.29
664.733	55.33
665.062	55.57
665.39	55.6
665.719	55.43
666.048	55.56
666.376	55.5
666.705	55.58
667.033	55.62
667.362	55.64
667.69	55.67
668.018	55.63
668.347	55.8
668.675	55.86
669.003	55.96
669.331	55.96
669.659	56.01
669.987	56.08
670.315	56.07
670.643	56.04
670.971	56.04
671.299	56.05
671.627	55.95
671.955	55.82
672.283	55.85
672.61	56.01
672.938	56
673.266	55.93
673.593	55.89
673.921	55.99
674.249	56.01
674.576	56
674.904	56.03
675.231	55.95
675.558	55.9
675.886	55.8
676.213	55.79
676.54	55.8
676.867	55.81
677.195	55.81
677.522	55.86
677.849	55.99
678.176	56.07
678.503	56.09
678.83	56.07
679.157	56.04
679.484	55.95
679.81	55.93
680.137	55.98
680.464	55.93
680.791	55.87
681.117	55.76
681.444	55.76
681.771	55.77
682.097	55.77
682.424	55.73
682.75	55.79
683.077	55.82
683.403	55.79
683.729	55.79
684.056	55.88
684.382	55.87
684.708	55.72
685.034	55.76
685.36	55.77
685.686	55.78
686.012	55.71
686.339	55.81
686.664	55.8
686.99	55.89
687.316	55.91
687.642	55.93
687.968	56.08
688.294	56.08
688.619	56.13
688.945	56.2
689.271	56.15
689.596	56.12
689.922	56.15
690.247	56.15
690.573	56.13
690.898	56.06
691.224	56.01
691.549	56.13
691.874	56.08
692.2	56.21
692.525	56.21
692.85	56.19
693.175	56.22
693.5	56.3
693.825	56.2
694.15	56.21
694.475	56.27
694.8	56.27
695.125	56.4
695.45	56.47
695.775	56.38
696.099	56.51
696.424	56.59
696.749	56.51
697.073	56.43
697.398	56.64
697.723	56.71
698.047	56.76
698.372	56.64
698.696	56.62
699.02	56.4
699.345	56.43
699.669	56.59
699.993	56.64
700.318	56.58
700.642	56.62
700.966	56.61
701.29	56.53
701.614	56.44
701.938	56.33
702.262	56.35
702.586	56.34
702.91	56.32
703.234	56.17
703.557	56.3
703.881	56.42
704.205	56.09
704.529	55.82
704.852	55.75
705.176	55.76
705.499	55.77
705.823	55.89
706.146	55.68
706.47	55.64
706.793	55.42
707.117	55.34
707.44	55.45
707.763	55.5
708.086	55.68
708.409	55.7
708.733	55.71
709.056	55.65
709.379	55.96
709.702	56.05
710.025	56.11
710.348	56.02
710.671	56.04
710.993	56.1
711.316	56.23
711.639	56.35
711.962	56.49
712.284	56.45
712.607	56.57
712.93	56.87
713.252	56.86
713.575	56.85
713.897	56.97
714.22	56.86
714.542	56.67
714.864	56.56
715.187	56.42
715.509	56.38
715.831	56.22
716.153	56.01
716.475	55.87
716.798	55.92
717.12	55.81
717.442	55.69
717.764	55.77
718.085	55.78
718.407	55.73
718.729	55.64
719.051	55.66
719.373	55.62
719.695	55.4
720.016	55.27
720.338	55.46
720.659	55.44
720.981	55.57
721.302	55.94
721.624	55.79
721.945	56.15
722.267	56.31
722.588	56.5
722.909	56.61
723.231	56.69
723.552	56.83
723.873	56.95
724.194	57
724.515	56.87
724.836	56.85
725.157	56.63
725.478	56.46
725.799	56.5
726.12	56.55
726.441	56.63
726.762	56.4
727.083	56.49
727.403	56.5
727.724	56.44
728.045	56.35
728.365	56.56
728.686	56.31
729.006	56.06
729.327	56.06
729.647	55.87
729.967	55.83
730.288	55.77
730.608	55.8
730.928	55.74
731.249	55.84
731.569	55.91
731.889	56.04
732.209	56.14
732.529	55.99
732.849	55.88
733.169	55.93
733.489	56.23
733.809	56.09
734.129	56.14
734.448	55.95
734.768	55.76
735.088	55.76
735.408	55.85
735.727	55.9
736.047	55.88
736.366	56.14
736.686	56.28
737.005	56.29
737.325	56.32
737.644	56.45
737.963	56.47
738.283	56.31
738.602	56.3
738.921	56.45
739.24	56.6
739.56	56.67
739.879	56.78
740.198	56.64
740.517	56.55
740.836	56.59
741.155	56.79
741.473	56.89
741.792	56.82
742.111	56.84
742.43	57.11
742.748	56.88
743.067	56.94
743.386	56.95
743.704	56.94
744.023	56.93
744.341	56.61
744.66	56.81
744.978	56.91
745.297	57.04
745.615	57.06
745.933	57.08
746.252	56.92
746.57	56.66
746.888	56.89
747.206	56.51
747.524	56.22
747.842	56.2
748.16	56.26
748.478	56.68
748.796	56.22
749.114	55.86
749.432	56.05
749.749	55.95
750.067	56.02
750.385	55.84
750.703	55.73
751.02	55.84
751.338	55.64
751.655	55.85
751.973	55.79
752.29	55.74
752.608	55.77
752.925	55.98
753.242	56.14
753.56	55.77
753.877	56.14
754.194	56.24
754.511	56.47
754.828	56.32
755.145	55.97
755.462	56.37
755.779	56.35
756.096	56.45
756.413	56.38
756.73	56.38
757.047	56.48
757.364	56.53
757.68	56.63
757.997	56.76
758.314	56.57
758.63	56.41
758.947	56.31
759.264	56.15
759.58	55.98
759.896	56.22
760.213	56.54
760.529	56.78
760.846	56.86
761.162	56.89
761.478	57.21
761.794	56.94
762.11	57.08
762.426	57.31
762.743	57.25
763.059	57.24
763.375	57.14
763.69	57.21
764.006	57.32
764.322	57.37
764.638	57.23
764.954	57.3
765.27	57.4
765.585	57.41
765.901	57.37
766.216	57.6
766.532	57.3
766.848	57.39
767.163	57.49
767.478	57.46
767.794	57.26
768.109	57.37
768.424	57.74
768.74	57.55
769.055	57.52
769.37	57.61
769.685	57.66
770	57.8
770.315	58
770.63	57.96
770.945	58.03
771.26	58.23
771.575	58
771.89	58.04
772.205	58.1
772.52	58.25
772.834	57.89
773.149	58.36
773.464	58.02
773.778	58.08
774.093	58.17
774.407	58.26
774.722	57.48
775.036	57.53
775.351	57.51
775.665	57.38
775.979	57.08
776.293	57.46
776.608	57.16
776.922	56.24
777.236	56.36
777.55	56
777.864	55.35
778.178	55.83
778.492	55.9
778.806	55.79
779.12	55.62
779.434	56.1
779.747	55.55
780.061	56.24
780.375	56.03
780.689	55.85
781.002	55.5
781.316	56.1
781.629	56.02
781.943	56.23
782.256	56.26
782.57	56.21
782.883	55.68
783.196	55.66
783.51	56.16
783.823	55.19
784.136	55.66
784.449	55.61
784.762	55.28
785.075	55.24
785.388	54.99
785.701	55.3
786.014	55.02
786.327	55.14
786.64	54.82
786.953	54.17
787.266	53.89
787.578	54.38
787.891	53.99
788.204	53.46
788.516	53.4
788.829	53.24
789.141	53.25
789.454	53.44
789.766	53.81
790.079	53.87
790.391	54.5
790.703	54.5
791.016	55.17
791.328	55.15
791.64	55.47
791.952	55.88
792.264	55.72
792.576	55.41
792.888	55.31
793.2	55.18
793.512	55.58
793.824	56.26
794.136	55.97
794.448	56.12
794.76	56.2
795.071	56.09
795.383	55.85
795.695	56
796.006	55.88
796.318	56.1
796.629	56.94
796.941	56.61
797.252	56.35
797.564	56.36
797.875	56.54
798.186	55.95
798.497	55.31
798.809	55.76
799.12	56.07
799.431	56.38
799.742	56.57
800.053	56.93
800.364	56.92
800.675	56.89
800.986	56.73
801.297	57.46
801.608	57.65
801.918	58.15
802.229	58.21
802.54	58.33
802.851	58.08
803.161	56.89
803.472	57.27
803.782	57.38
804.093	57.16
804.403	56.68
804.714	57.16
805.024	57.83
805.334	58.03
805.645	57.69
805.955	57.55
806.265	57.36
806.575	56.54
806.885	55.77
807.195	56.37
807.505	56.64
807.815	56.04
808.125	56.52
808.435	56.5
808.745	56.4
809.055	56.03
809.365	55.67
809.674	55.67
809.984	55.38
810.294	55.53
810.603	56.01
810.913	55.94
811.222	55.85
811.532	55.81
811.841	55.24
812.151	55.22
812.46	55.37
812.769	54.93
813.079	55.61
813.388	55.67
813.697	55.52
814.006	55.77
814.315	56.5
814.624	55.44
814.933	55.13
815.242	55.68
815.551	55.81
815.86	56.25
816.169	56.87
816.478	56.91
816.786	57.17
817.095	56.61
817.404	56.87
817.712	57.29
818.021	56.98
818.33	56.98
818.638	56.66
818.947	56.18
819.255	57.05
819.563	57.3
819.872	57.52
820.18	57.52
820.488	57.31
820.796	57.03
821.105	56.9
821.413	57.11
821.721	57.16
822.029	57.25
822.337	56.95
822.645	56.9
822.953	57.02
823.26	57
823.568	57.05
823.876	57.31
824.184	57.25
824.491	57.47
824.799	57.51
825.107	57.66
825.414	57.79
825.722	57.66
826.029	57.55
826.337	57.56
826.644	57.48
826.951	57.49
827.259	57.57
827.566	57.88
827.873	57.95
828.18	57.61
828.488	57.73
828.795	57.78
829.102	57.36
829.409	57.23
829.716	57
830.023	56.95
830.329	56.34
830.636	56.11
830.943	55.74
831.25	55.45
831.557	55.48
831.863	55.43
832.17	55.3
832.476	55.34
832.783	55.64
833.089	55.64
833.396	55.89
833.702	55.79
834.009	55.83
834.315	55.6
834.621	56.23
834.928	56.07
835.234	56.46
835.54	57.2
835.846	57.47
836.152	57.68
836.458	57.69
836.764	58
837.07	57.92
837.376	58
837.682	58.72
837.988	58.39
838.293	58.86
838.599	58.7
838.905	58.73
839.211	57.72
839.516	57.81
839.822	57.73
840.127	57.42
840.433	57.22
840.738	57.83
841.044	57.63
841.349	57.19
841.654	56.55
841.959	56.11
842.265	54.82
842.57	56.22
842.875	56.31
843.18	57.21
843.485	57.12
843.79	56.26
844.095	55.82
844.4	56.62
844.705	55.58
845.01	55.07
845.315	55.23
845.619	56.94
845.924	56.7
846.229	55.63
846.533	57.8
846.838	57.63
847.142	55.99
847.447	55.17
847.751	56.6
848.056	59.3
848.36	61.97
848.664	64.49
848.969	60.47
849.273	59.34
849.577	56.82
849.881	57.35
850.185	60.5
850.489	59.88
850.794	58.41
851.097	58.81
851.401	60.44
851.705	60.34
852.009	58.61
852.313	57.91
852.617	58.59
852.92	57.12
853.224	56
853.528	56.56
853.831	56.48
854.135	54.76
854.438	52.31
854.742	50.36
855.045	49.73
855.349	50.14
855.652	49.51
855.955	51.24
856.259	49.85
856.562	49.24
856.865	48.75
857.168	47.46
857.471	48.15
857.774	47.11
858.077	47.92
858.38	48.23
858.683	48.78
858.986	49.71
859.289	49.71
859.592	51.13
859.894	48.92
860.197	49.42
860.5	49.92
860.802	50.53
861.105	51.69
861.407	50.94
861.71	53.34
862.012	56.1
862.315	54.8
862.617	55.65
862.919	55.21
863.222	52.52
863.524	54.71
863.826	54.69
864.128	53.13
864.43	52.68
864.732	51.37
865.034	50.87
865.336	49.05
865.638	46.64
865.94	47.28
866.242	51.3
866.544	52.69
866.846	53.02
867.147	51.73
867.449	51.34
867.751	52.02
868.052	50.08
868.354	48
868.655	48.82
868.957	49.88
869.258	48.67
869.56	51.46
869.861	51.7
870.162	49.49
870.463	49.32
870.765	47.17
871.066	47.14
871.367	47.79
871.668	50.71
871.969	51.31
872.27	49.82
872.571	48.6
872.872	47.94
873.173	47.86
873.473	48.51
873.774	48.21
874.075	46.89
874.376	49.77
874.676	51.44
874.977	50.84
875.277	51.06
875.578	53.65
875.878	52.91
876.179	52.88
876.479	54.91
876.78	58
877.08	60.59
877.38	62.46
877.68	63.43
877.981	60.64
878.281	62.24
878.581	63.69
