Data from BA58010_Reflection_00010.txt Node
Date: Mon Nov 18 16:07:12 EST 2019
User: vgr7
Spectrometer: USB2G7710
Scans to average: 3
Trigger mode: 4
Integration Time (sec): 2.000000E-2
Electric dark correction enabled: true
Boxcar width: 10
XAxis mode: Wavelengths
Number of Pixels in Spectrum: 2048
>>>>>Begin Spectral Data<<<<<
177.721	88.2
178.105	-85.84
178.488	-190.32
178.871	-101.12
179.254	-383.87
179.636	146.08
180.019	0.37
180.402	-2350
180.785	-96.82
181.168	-145.8
181.55	-36.59
181.933	64.55
182.316	67.18
182.698	54.53
183.081	51.42
183.463	31.58
183.846	60.73
184.228	81.56
184.611	86.58
184.993	118.54
185.376	296.39
185.758	476.21
186.14	163.7
186.522	117.03
186.904	107.58
187.287	197.58
187.669	509.98
188.051	406.12
188.433	338.82
188.815	514.26
189.197	919.41
189.579	3052
189.961	-640.81
190.342	-5497.01
190.724	-414.39
191.106	-485.74
191.488	-310.92
191.869	-275.91
192.251	-373.34
192.633	-198.22
193.014	-361.8
193.396	-1511.35
193.777	-5063.93
194.159	9442.86
194.54	4618.07
194.922	-645.97
195.303	-243.47
195.684	-399.02
196.065	-92.34
196.447	-84.71
196.828	-125.41
197.209	-107.92
197.59	-126.25
197.971	1036
198.352	-92.37
198.733	-235.46
199.114	-235.24
199.495	-929.85
199.876	248.51
200.257	-834.43
200.638	-551.06
201.018	-1027.39
201.399	-530.57
201.78	-141.12
202.16	-156.87
202.541	-212.61
202.922	1560.18
203.302	584.42
203.683	22736.36
204.063	438.79
204.444	310.58
204.824	256.04
205.204	204.06
205.585	259.44
205.965	492.13
206.345	233.87
206.725	339.46
207.106	300.52
207.486	245.84
207.866	368.69
208.246	280.41
208.626	200.05
209.006	208.61
209.386	263.94
209.766	216.81
210.145	192.25
210.525	188.12
210.905	262.85
211.285	241.91
211.664	384.45
212.044	583.5
212.424	707.04
212.803	1372.25
213.183	-349.79
213.562	-444.93
213.942	-285.01
214.321	-105.57
214.701	-95.22
215.08	-83.6
215.459	-67.09
215.838	-86.95
216.218	-62.32
216.597	-55.52
216.976	-49.61
217.355	-33.22
217.734	-25.16
218.113	-27.94
218.492	-20.75
218.871	-24.36
219.25	-40.09
219.629	-45.67
220.008	-49.58
220.387	-57.63
220.766	-58.46
221.144	-59.11
221.523	-57.69
221.902	-66.42
222.28	-85.22
222.659	-81.17
223.037	-68.26
223.416	-69.81
223.794	-66.29
224.173	-58.93
224.551	-53.34
224.929	-49.52
225.308	-41.38
225.686	-44.08
226.064	-33.42
226.442	-31.62
226.821	-21.97
227.199	-22.09
227.577	-21.77
227.955	-23.79
228.333	-23.07
228.711	-17.54
229.089	-13.54
229.467	-14.39
229.845	-14.16
230.222	-12.8
230.6	-13.77
230.978	-11.86
231.356	-7.29
231.733	-7.69
232.111	-6.2
232.488	-6.44
232.866	-3.41
233.243	-1.38
233.621	-2.54
233.998	-2.1
234.376	-3.98
234.753	-5.17
235.13	-3.78
235.508	-1.27
235.885	0.28
236.262	1.24
236.639	-0.39
237.016	-0.12
237.393	2.14
237.77	3.88
238.147	3.71
238.524	3.99
238.901	3.86
239.278	3.7
239.655	5.15
240.032	4.87
240.409	4.19
240.785	3.73
241.162	3.7
241.539	4.12
241.915	4.16
242.292	4.41
242.668	4.14
243.045	4.35
243.421	3.94
243.798	3.77
244.174	3.56
244.551	3.91
244.927	3.48
245.303	3.42
245.679	3.34
246.056	3.43
246.432	3.3
246.808	3.18
247.184	2.95
247.56	2.69
247.936	2.69
248.312	2.83
248.688	2.87
249.064	2.76
249.44	2.94
249.815	2.79
250.191	2.82
250.567	2.83
250.943	2.57
251.318	2.83
251.694	2.95
252.069	3.12
252.445	2.77
252.82	3.04
253.196	2.91
253.571	2.72
253.947	2.57
254.322	2.81
254.697	2.89
255.073	2.8
255.448	2.51
255.823	2.67
256.198	2.87
256.573	2.87
256.948	2.96
257.323	2.99
257.698	3.01
258.073	2.88
258.448	3.03
258.823	3.25
259.198	3.06
259.573	2.97
259.948	2.99
260.322	3.01
260.697	2.92
261.072	2.87
261.446	2.99
261.821	2.84
262.195	2.84
262.57	2.98
262.944	3.02
263.319	3.13
263.693	3.24
264.067	3.27
264.442	3.36
264.816	3.23
265.19	3.01
265.564	3.05
265.938	3
266.313	2.98
266.687	2.88
267.061	2.98
267.435	3.16
267.809	3.07
268.183	3.26
268.556	3.03
268.93	3.03
269.304	3.02
269.678	3.17
270.051	3.13
270.425	3.07
270.799	3.12
271.172	3.05
271.546	2.94
271.919	2.84
272.293	2.61
272.666	2.86
273.04	2.89
273.413	2.75
273.787	2.87
274.16	2.84
274.533	2.88
274.906	2.66
275.279	2.63
275.653	2.78
276.026	2.8
276.399	3.07
276.772	3.19
277.145	3.1
277.518	3.16
277.891	3.15
278.263	3.22
278.636	3.04
279.009	3.12
279.382	3.36
279.755	3.43
280.127	3.77
280.5	3.7
280.872	3.78
281.245	4.02
281.617	4.17
281.99	4.22
282.362	4.13
282.735	4.26
283.107	4.33
283.479	4.3
283.852	4.23
284.224	4.09
284.596	3.98
284.968	4.09
285.34	4.13
285.713	4.16
286.085	4.08
286.457	4.18
286.829	4.25
287.201	3.98
287.572	4.03
287.944	3.89
288.316	3.86
288.688	3.8
289.06	3.74
289.431	3.68
289.803	3.83
290.175	3.87
290.546	3.96
290.918	3.9
291.289	3.89
291.661	3.92
292.032	4.07
292.403	4.08
292.775	3.99
293.146	3.89
293.517	3.91
293.889	3.9
294.26	4.02
294.631	3.95
295.002	4.03
295.373	3.95
295.744	4.07
296.115	4.07
296.486	4.01
296.857	3.85
297.228	3.87
297.599	3.61
297.97	3.58
298.34	3.58
298.711	3.63
299.082	3.58
299.452	3.74
299.823	3.78
300.194	3.87
300.564	3.87
300.935	3.93
301.305	3.88
301.676	3.94
302.046	3.88
302.416	3.9
302.787	3.92
303.157	3.92
303.527	3.76
303.897	3.75
304.267	3.97
304.637	4.12
305.008	4.16
305.378	4.3
305.748	4.34
306.117	4.27
306.487	4.24
306.857	4.24
307.227	4.1
307.597	4.12
307.967	4.12
308.336	4.2
308.706	4.31
309.076	4.3
309.445	4.15
309.815	4.11
310.184	4.13
310.554	4.14
310.923	4.22
311.293	4.38
311.662	4.45
312.031	4.37
312.401	4.39
312.77	4.34
313.139	4.44
313.508	4.45
313.877	4.55
314.246	4.58
314.616	4.66
314.985	4.68
315.353	4.51
315.722	4.57
316.091	4.62
316.46	4.55
316.829	4.65
317.198	4.79
317.567	4.88
317.935	4.98
318.304	5.02
318.672	5.08
319.041	4.96
319.41	5.03
319.778	5.12
320.147	5.18
320.515	5.33
320.883	5.34
321.252	5.35
321.62	5.43
321.988	5.56
322.357	5.58
322.725	5.65
323.093	5.88
323.461	5.84
323.829	5.9
324.197	6.03
324.565	6
324.933	6.09
325.301	6.1
325.669	6.09
326.037	5.98
326.405	5.93
326.772	6.11
327.14	6.13
327.508	6.18
327.875	6.23
328.243	6.23
328.61	6.29
328.978	6.44
329.346	6.5
329.713	6.48
330.08	6.49
330.448	6.46
330.815	6.37
331.182	6.45
331.55	6.45
331.917	6.48
332.284	6.57
332.651	6.71
333.018	6.75
333.385	6.76
333.752	7.02
334.119	7.15
334.486	7.1
334.853	7.15
335.22	7.14
335.587	7.15
335.954	7.23
336.32	7.18
336.687	7.12
337.054	7.02
337.42	6.98
337.787	7.01
338.153	7.04
338.52	7.05
338.886	6.95
339.253	6.8
339.619	6.67
339.986	6.64
340.352	6.67
340.718	6.64
341.084	6.7
341.451	6.59
341.817	6.68
342.183	6.63
342.549	6.61
342.915	6.75
343.281	6.79
343.647	6.69
344.013	6.78
344.379	6.69
344.745	6.84
345.11	6.86
345.476	6.96
345.842	6.99
346.208	7.1
346.573	7.26
346.939	7.49
347.304	7.66
347.67	7.73
348.035	7.68
348.401	7.75
348.766	7.77
349.132	7.88
349.497	7.74
349.862	7.9
350.228	7.85
350.593	7.74
350.958	7.81
351.323	7.88
351.688	7.95
352.053	8.14
352.418	8.07
352.783	8.2
353.148	8.12
353.513	8.15
353.878	8.11
354.243	8.08
354.608	7.99
354.972	7.93
355.337	8.04
355.702	8.04
356.066	8.11
356.431	8.05
356.795	8.02
357.16	8.05
357.524	7.96
357.889	7.89
358.253	7.9
358.618	7.87
358.982	7.82
359.346	7.75
359.71	7.7
360.075	7.73
360.439	7.72
360.803	7.67
361.167	7.64
361.531	7.64
361.895	7.6
362.259	7.58
362.623	7.56
362.987	7.49
363.351	7.46
363.714	7.37
364.078	7.38
364.442	7.33
364.806	7.33
365.169	7.32
365.533	7.4
365.896	7.35
366.26	7.31
366.623	7.26
366.987	7.2
367.35	7.19
367.714	7.07
368.077	6.99
368.44	7.02
368.803	6.95
369.167	6.84
369.53	6.77
369.893	6.74
370.256	6.75
370.619	6.68
370.982	6.59
371.345	6.54
371.708	6.49
372.071	6.47
372.434	6.35
372.797	6.29
373.159	6.17
373.522	6.14
373.885	6.06
374.247	6.03
374.61	5.98
374.973	5.93
375.335	5.89
375.698	5.83
376.06	5.81
376.423	5.76
376.785	5.77
377.147	5.81
377.51	5.76
377.872	5.73
378.234	5.73
378.596	5.71
378.958	5.66
379.321	5.62
379.683	5.6
380.045	5.62
380.407	5.58
380.769	5.61
381.13	5.61
381.492	5.58
381.854	5.6
382.216	5.57
382.578	5.53
382.939	5.53
383.301	5.53
383.663	5.47
384.024	5.4
384.386	5.38
384.747	5.32
385.109	5.33
385.47	5.28
385.832	5.22
386.193	5.24
386.554	5.25
386.916	5.21
387.277	5.16
387.638	5.1
387.999	5.07
388.36	5.05
388.721	5.01
389.082	5
389.443	4.94
389.804	4.91
390.165	4.88
390.526	4.86
390.887	4.84
391.248	4.79
391.609	4.8
391.969	4.76
392.33	4.75
392.691	4.73
393.051	4.71
393.412	4.71
393.772	4.63
394.133	4.61
394.493	4.58
394.854	4.53
395.214	4.51
395.574	4.48
395.935	4.42
396.295	4.41
396.655	4.4
397.015	4.35
397.376	4.32
397.736	4.28
398.096	4.25
398.456	4.21
398.816	4.22
399.176	4.22
399.535	4.16
399.895	4.1
400.255	4.07
400.615	4.05
400.975	4
401.334	4.01
401.694	3.98
402.054	3.97
402.413	3.98
402.773	3.96
403.132	3.96
403.492	3.93
403.851	3.9
404.211	3.88
404.57	3.9
404.929	3.95
405.288	3.96
405.648	3.92
406.007	3.92
406.366	3.87
406.725	3.83
407.084	3.86
407.443	3.87
407.802	3.84
408.161	3.82
408.52	3.79
408.879	3.79
409.238	3.79
409.596	3.78
409.955	3.76
410.314	3.75
410.673	3.73
411.031	3.73
411.39	3.75
411.748	3.75
412.107	3.76
412.465	3.69
412.824	3.66
413.182	3.64
413.54	3.59
413.899	3.61
414.257	3.59
414.615	3.58
414.974	3.57
415.332	3.55
415.69	3.53
416.048	3.5
416.406	3.49
416.764	3.46
417.122	3.45
417.48	3.44
417.838	3.43
418.195	3.44
418.553	3.42
418.911	3.4
419.269	3.38
419.626	3.36
419.984	3.36
420.342	3.38
420.699	3.38
421.057	3.39
421.414	3.38
421.772	3.37
422.129	3.37
422.486	3.37
422.844	3.37
423.201	3.37
423.558	3.36
423.915	3.35
424.273	3.34
424.63	3.33
424.987	3.32
425.344	3.31
425.701	3.29
426.058	3.28
426.415	3.28
426.772	3.27
427.128	3.27
427.485	3.27
427.842	3.24
428.199	3.24
428.555	3.23
428.912	3.23
429.269	3.24
429.625	3.21
429.982	3.21
430.338	3.19
430.695	3.19
431.051	3.19
431.407	3.2
431.764	3.2
432.12	3.19
432.476	3.19
432.832	3.19
433.189	3.19
433.545	3.19
433.901	3.18
434.257	3.19
434.613	3.19
434.969	3.16
435.325	3.16
435.681	3.16
436.036	3.16
436.392	3.16
436.748	3.14
437.104	3.13
437.459	3.12
437.815	3.11
438.171	3.11
438.526	3.13
438.882	3.12
439.237	3.14
439.593	3.15
439.948	3.15
440.304	3.15
440.659	3.15
441.014	3.16
441.369	3.16
441.725	3.16
442.08	3.16
442.435	3.16
442.79	3.16
443.145	3.15
443.5	3.14
443.855	3.14
444.21	3.14
444.565	3.15
444.92	3.17
445.275	3.15
445.629	3.15
445.984	3.14
446.339	3.12
446.693	3.09
447.048	3.08
447.403	3.08
447.757	3.08
448.112	3.06
448.466	3.03
448.82	3.01
449.175	3.01
449.529	3
449.883	2.99
450.238	2.97
450.592	2.97
450.946	2.96
451.3	2.96
451.654	2.95
452.008	2.93
452.362	2.92
452.716	2.93
453.07	2.95
453.424	2.95
453.778	2.97
454.132	2.97
454.486	2.98
454.839	2.98
455.193	2.97
455.547	2.98
455.9	3.01
456.254	3.04
456.607	3.04
456.961	3.03
457.314	3.04
457.668	3.04
458.021	3.03
458.375	3.04
458.728	3.04
459.081	3.04
459.434	3.03
459.787	3.04
460.141	3.05
460.494	3.03
460.847	3.02
461.2	3.02
461.553	3.04
461.906	3.05
462.259	3.07
462.611	3.08
462.964	3.1
463.317	3.11
463.67	3.08
464.022	3.08
464.375	3.1
464.728	3.11
465.08	3.14
465.433	3.16
465.785	3.16
466.138	3.17
466.49	3.15
466.843	3.16
467.195	3.16
467.547	3.18
467.899	3.19
468.252	3.19
468.604	3.21
468.956	3.22
469.308	3.21
469.66	3.2
470.012	3.2
470.364	3.19
470.716	3.17
471.068	3.2
471.42	3.22
471.772	3.24
472.123	3.24
472.475	3.23
472.827	3.24
473.178	3.25
473.53	3.23
473.882	3.25
474.233	3.24
474.585	3.22
474.936	3.18
475.288	3.18
475.639	3.19
475.99	3.19
476.342	3.17
476.693	3.17
477.044	3.18
477.395	3.19
477.746	3.19
478.097	3.2
478.448	3.2
478.8	3.17
479.15	3.14
479.501	3.13
479.852	3.13
480.203	3.12
480.554	3.12
480.905	3.12
481.255	3.12
481.606	3.13
481.957	3.14
482.307	3.16
482.658	3.16
483.009	3.16
483.359	3.15
483.709	3.16
484.06	3.16
484.41	3.16
484.761	3.15
485.111	3.15
485.461	3.15
485.811	3.15
486.162	3.15
486.512	3.17
486.862	3.17
487.212	3.18
487.562	3.19
487.912	3.19
488.262	3.19
488.612	3.2
488.961	3.21
489.311	3.22
489.661	3.22
490.011	3.22
490.36	3.23
490.71	3.24
491.06	3.23
491.409	3.24
491.759	3.24
492.108	3.26
492.458	3.26
492.807	3.26
493.157	3.27
493.506	3.29
493.855	3.29
494.204	3.3
494.554	3.3
494.903	3.31
495.252	3.33
495.601	3.36
495.95	3.37
496.299	3.37
496.648	3.37
496.997	3.38
497.346	3.4
497.695	3.42
498.043	3.43
498.392	3.46
498.741	3.49
499.09	3.51
499.438	3.55
499.787	3.57
500.135	3.61
500.484	3.62
500.832	3.65
501.181	3.67
501.529	3.7
501.878	3.75
502.226	3.78
502.574	3.8
502.923	3.8
503.271	3.83
503.619	3.89
503.967	3.92
504.315	3.94
504.663	3.98
505.011	4
505.359	4.04
505.707	4.07
506.055	4.11
506.403	4.14
506.751	4.16
507.098	4.2
507.446	4.24
507.794	4.28
508.141	4.31
508.489	4.33
508.837	4.37
509.184	4.4
509.531	4.44
509.879	4.49
510.226	4.54
510.574	4.59
510.921	4.62
511.268	4.67
511.616	4.74
511.963	4.78
512.31	4.84
512.657	4.89
513.004	4.95
513.351	5
513.698	5.09
514.045	5.15
514.392	5.23
514.739	5.3
515.086	5.37
515.432	5.44
515.779	5.52
516.126	5.59
516.473	5.67
516.819	5.72
517.166	5.8
517.512	5.86
517.859	5.91
518.205	5.99
518.552	6.05
518.898	6.11
519.245	6.18
519.591	6.24
519.937	6.29
520.283	6.37
520.629	6.45
520.976	6.52
521.322	6.62
521.668	6.68
522.014	6.78
522.36	6.88
522.706	6.98
523.052	7.09
523.398	7.22
523.743	7.35
524.089	7.5
524.435	7.62
524.781	7.77
525.126	7.92
525.472	8.02
525.817	8.13
526.163	8.24
526.509	8.33
526.854	8.44
527.199	8.53
527.545	8.61
527.89	8.7
528.235	8.8
528.581	8.9
528.926	9.02
529.271	9.12
529.616	9.22
529.961	9.33
530.306	9.45
530.651	9.57
530.996	9.7
531.341	9.83
531.686	9.96
532.031	10.07
532.376	10.21
532.721	10.38
533.065	10.56
533.41	10.72
533.755	10.89
534.099	11.05
534.444	11.25
534.788	11.43
535.133	11.63
535.477	11.81
535.822	12
536.166	12.2
536.51	12.44
536.855	12.69
537.199	12.94
537.543	13.2
537.887	13.47
538.231	13.72
538.576	13.98
538.92	14.27
539.264	14.57
539.608	14.85
539.951	15.07
540.295	15.29
540.639	15.51
540.983	15.72
541.327	15.97
541.671	16.2
542.014	16.44
542.358	16.64
542.701	16.85
543.045	17.1
543.389	17.32
543.732	17.54
544.075	17.78
544.419	18.06
544.762	18.34
545.105	18.59
545.449	18.88
545.792	19.2
546.135	19.49
546.478	19.78
546.821	20.06
547.165	20.4
547.508	20.74
547.851	21.09
548.194	21.49
548.536	21.86
548.879	22.2
549.222	22.54
549.565	22.91
549.908	23.31
550.25	23.69
550.593	24.06
550.936	24.48
551.278	24.9
551.621	25.24
551.963	25.58
552.306	25.95
552.648	26.29
552.991	26.66
553.333	27.03
553.675	27.38
554.017	27.74
554.36	28.1
554.702	28.42
555.044	28.78
555.386	29.1
555.728	29.43
556.07	29.77
556.412	30.12
556.754	30.42
557.096	30.76
557.438	31.05
557.78	31.42
558.121	31.77
558.463	32.08
558.805	32.45
559.147	32.79
559.488	33.18
559.83	33.53
560.171	33.83
560.513	34.17
560.854	34.47
561.196	34.84
561.537	35.18
561.878	35.51
562.22	35.86
562.561	36.16
562.902	36.46
563.243	36.82
563.584	37.08
563.925	37.41
564.266	37.69
564.607	37.95
564.948	38.24
565.289	38.46
565.63	38.72
565.971	38.91
566.312	39.18
566.653	39.38
566.993	39.59
567.334	39.87
567.675	40.09
568.015	40.35
568.356	40.55
568.696	40.79
569.037	41.05
569.377	41.29
569.718	41.55
570.058	41.77
570.398	41.97
570.739	42.23
571.079	42.5
571.419	42.74
571.759	43.04
572.099	43.22
572.439	43.47
572.779	43.66
573.119	43.9
573.459	44.08
573.799	44.29
574.139	44.51
574.479	44.67
574.819	44.91
575.158	45.14
575.498	45.31
575.838	45.44
576.177	45.59
576.517	45.74
576.856	45.87
577.196	46.06
577.535	46.26
577.875	46.41
578.214	46.6
578.553	46.72
578.893	46.86
579.232	47.07
579.571	47.27
579.91	47.47
580.25	47.66
580.589	47.85
580.928	48.02
581.267	48.2
581.606	48.43
581.945	48.53
582.283	48.62
582.622	48.84
582.961	49.05
583.3	49.2
583.639	49.3
583.977	49.45
584.316	49.57
584.654	49.66
584.993	49.8
585.332	49.88
585.67	50.06
586.008	50.18
586.347	50.32
586.685	50.38
587.024	50.5
587.362	50.61
587.7	50.73
588.038	50.84
588.376	50.92
588.715	50.95
589.053	51.13
589.391	51.24
589.729	51.3
590.067	51.43
590.404	51.56
590.742	51.72
591.08	51.83
591.418	52
591.756	52.11
592.093	52.22
592.431	52.31
592.769	52.35
593.106	52.42
593.444	52.47
593.781	52.52
594.119	52.62
594.456	52.61
594.793	52.72
595.131	52.77
595.468	52.8
595.805	52.91
596.143	52.94
596.48	53.05
596.817	53.1
597.154	53.03
597.491	53.1
597.828	53.19
598.165	53.32
598.502	53.33
598.839	53.38
599.176	53.4
599.512	53.45
599.849	53.54
600.186	53.55
600.523	53.66
600.859	53.8
601.196	53.95
601.532	54.1
601.869	54.17
602.205	54.31
602.542	54.43
602.878	54.47
603.215	54.49
603.551	54.5
603.887	54.6
604.223	54.68
604.56	54.73
604.896	54.79
605.232	54.77
605.568	54.79
605.904	54.92
606.24	55.1
606.576	55.21
606.912	55.3
607.248	55.45
607.583	55.52
607.919	55.5
608.255	55.49
608.591	55.55
608.926	55.57
609.262	55.62
609.597	55.78
609.933	55.8
610.268	55.86
610.604	55.97
610.939	55.98
611.275	56.08
611.61	56.1
611.945	56.13
612.281	56.18
612.616	56.33
612.951	56.33
613.286	56.22
613.621	56.22
613.956	56.24
614.291	56.27
614.626	56.25
614.961	56.41
615.296	56.41
615.631	56.47
615.966	56.5
616.3	56.55
616.635	56.53
616.97	56.71
617.304	56.85
617.639	56.91
617.973	56.93
618.308	56.97
618.642	56.99
618.977	57.02
619.311	57.14
619.646	57.15
619.98	57.12
620.314	57.23
620.648	57.25
620.983	57.29
621.317	57.36
621.651	57.52
621.985	57.55
622.319	57.63
622.653	57.64
622.987	57.72
623.321	57.72
623.655	57.64
623.988	57.63
624.322	57.54
624.656	57.54
624.99	57.59
625.323	57.63
625.657	57.69
625.99	57.71
626.324	57.69
626.657	57.63
626.991	57.71
627.324	57.71
627.658	57.86
627.991	57.9
628.324	57.78
628.657	57.7
628.991	57.68
629.324	57.63
629.657	57.65
629.99	57.65
630.323	57.66
630.656	57.81
630.989	57.76
631.322	57.83
631.655	57.87
631.987	57.91
632.32	57.9
632.653	57.88
632.986	57.93
633.318	58
633.651	58.14
633.984	58.14
634.316	58.16
634.649	58.1
634.981	58.11
635.313	58.22
635.646	58.32
635.978	58.43
636.31	58.49
636.643	58.57
636.975	58.63
637.307	58.61
637.639	58.61
637.971	58.66
638.303	58.74
638.635	58.83
638.967	58.87
639.299	58.92
639.631	58.86
639.963	58.88
640.295	58.88
640.626	58.85
640.958	58.96
641.29	59.02
641.621	59.11
641.953	59.16
642.285	59.27
642.616	59.21
642.948	59.11
643.279	59.22
643.61	59.2
643.942	59.15
644.273	59.22
644.604	59.23
644.936	59.22
645.267	59.15
645.598	59
645.929	59.06
646.26	59.08
646.591	59.19
646.922	59.17
647.253	59.23
647.584	59.23
647.915	59.19
648.245	59.15
648.576	59.02
648.907	59.01
649.238	58.89
649.568	58.96
649.899	59.06
650.229	59.1
650.56	59.12
650.89	59.22
651.221	59.19
651.551	59.23
651.882	59.14
652.212	59.18
652.542	59.24
652.872	59.13
653.203	59.15
653.533	59.22
653.863	59.21
654.193	59.17
654.523	59.24
654.853	59.31
655.183	59.4
655.513	59.43
655.843	59.51
656.172	59.79
656.502	59.77
656.832	59.82
657.162	59.7
657.491	59.68
657.821	59.73
658.15	59.74
658.48	59.66
658.809	59.8
659.139	59.76
659.468	59.79
659.798	59.84
660.127	59.87
660.456	59.94
660.785	60.01
661.115	60.02
661.444	60.06
661.773	60.05
662.102	60.09
662.431	60.22
662.76	60.14
663.089	59.9
663.418	59.96
663.747	59.88
664.076	60.04
664.404	59.97
664.733	59.94
665.062	60.13
665.39	60.18
665.719	60.12
666.048	60.27
666.376	60.33
666.705	60.45
667.033	60.37
667.362	60.34
667.69	60.38
668.018	60.4
668.347	60.48
668.675	60.6
669.003	60.6
669.331	60.64
669.659	60.7
669.987	60.74
670.315	60.76
670.643	60.77
670.971	60.68
671.299	60.81
671.627	60.82
671.955	60.57
672.283	60.65
672.61	60.68
672.938	60.59
673.266	60.51
673.593	60.51
673.921	60.52
674.249	60.61
674.576	60.6
674.904	60.56
675.231	60.53
675.558	60.38
675.886	60.32
676.213	60.33
676.54	60.33
676.867	60.36
677.195	60.42
677.522	60.54
677.849	60.64
678.176	60.59
678.503	60.66
678.83	60.93
679.157	60.86
679.484	60.84
679.81	60.9
680.137	60.88
680.464	60.87
680.791	60.99
681.117	60.95
681.444	60.93
681.771	60.9
682.097	60.91
682.424	61.02
682.75	60.97
683.077	60.88
683.403	60.86
683.729	60.93
684.056	60.86
684.382	60.88
684.708	60.68
685.034	60.83
685.36	60.75
685.686	60.55
686.012	60.59
686.339	60.7
686.664	60.65
686.99	60.82
687.316	60.73
687.642	60.65
687.968	60.73
688.294	60.71
688.619	60.71
688.945	60.64
689.271	60.46
689.596	60.46
689.922	60.65
690.247	60.63
690.573	60.69
690.898	60.61
691.224	60.64
691.549	60.72
691.874	60.64
692.2	60.74
692.525	60.63
692.85	60.6
693.175	60.68
693.5	60.6
693.825	60.5
694.15	60.56
694.475	60.71
694.8	60.73
695.125	60.9
695.45	61.04
695.775	61.04
696.099	61.16
696.424	61.29
696.749	61.13
697.073	61.13
697.398	61.19
697.723	61.39
698.047	61.43
698.372	61.48
698.696	61.46
699.02	61.43
699.345	61.57
699.669	61.6
699.993	61.5
700.318	61.74
700.642	61.89
700.966	62.03
701.29	61.96
701.614	61.92
701.938	61.91
702.262	61.95
702.586	62.07
702.91	62.13
703.234	62.05
703.557	62.17
703.881	62.16
704.205	61.96
704.529	61.78
704.852	61.72
705.176	61.8
705.499	61.71
705.823	61.86
706.146	61.66
706.47	61.65
706.793	61.65
707.117	61.51
707.44	61.36
707.763	61.24
708.086	61.39
708.409	61.24
708.733	61.16
709.056	61.15
709.379	61.14
709.702	61.26
710.025	61.42
710.348	61.45
710.671	61.64
710.993	61.8
711.316	61.97
711.639	61.94
711.962	62.07
712.284	62.28
712.607	62.26
712.93	62.56
713.252	62.45
713.575	62.51
713.897	62.51
714.22	62.47
714.542	62.55
714.864	62.59
715.187	62.67
715.509	62.58
715.831	62.62
716.153	62.65
716.475	62.53
716.798	62.6
717.12	62.62
717.442	62.54
717.764	62.54
718.085	62.45
718.407	62.41
718.729	62.32
719.051	62.34
719.373	62.24
719.695	62.14
720.016	62.18
720.338	62.01
720.659	62.21
720.981	62.43
721.302	62.56
721.624	62.5
721.945	62.73
722.267	62.89
722.588	62.82
722.909	62.74
723.231	62.58
723.552	62.45
723.873	62.34
724.194	62.6
724.515	62.46
724.836	62.49
725.157	62.49
725.478	62.38
725.799	62.34
726.12	62.43
726.441	62.42
726.762	62.55
727.083	62.62
727.403	62.64
727.724	62.51
728.045	62.32
728.365	62.35
728.686	62.04
729.006	61.89
729.327	61.89
729.647	61.8
729.967	61.86
730.288	61.86
730.608	62.05
730.928	61.87
731.249	61.92
731.569	61.94
731.889	61.88
732.209	61.87
732.529	61.6
732.849	61.52
733.169	61.5
733.489	61.56
733.809	61.59
734.129	61.61
734.448	61.57
734.768	61.63
735.088	61.52
735.408	61.68
735.727	61.88
736.047	61.97
736.366	62.14
736.686	62.22
737.005	62.37
737.325	62.09
737.644	62.14
737.963	62.11
738.283	62.1
738.602	62.15
738.921	62.46
739.24	62.71
739.56	62.61
739.879	62.69
740.198	62.56
740.517	62.5
740.836	62.49
741.155	62.48
741.473	62.41
741.792	62.6
742.111	62.73
742.43	62.74
742.748	62.54
743.067	62.37
743.386	62.25
743.704	62.19
744.023	62.4
744.341	62.24
744.66	62.34
744.978	62.43
745.297	62.39
745.615	62.17
745.933	62.16
746.252	62.18
746.57	62.08
746.888	62.34
747.206	62.37
747.524	62.07
747.842	62.14
748.16	62.03
748.478	62.1
748.796	61.66
749.114	61.72
749.432	61.79
749.749	62.32
750.067	62.4
750.385	62.01
750.703	61.9
751.02	61.93
751.338	61.82
751.655	61.87
751.973	62.03
752.29	62.01
752.608	62.26
752.925	62.35
753.242	62.35
753.56	61.96
753.877	62.08
754.194	62.18
754.511	62.43
754.828	62.17
755.145	62.03
755.462	62.41
755.779	61.94
756.096	61.97
756.413	61.66
756.73	61.91
757.047	61.84
757.364	61.93
757.68	62.29
757.997	62.56
758.314	62.35
758.63	62.19
758.947	62.2
759.264	62
759.58	62.09
759.896	62.37
760.213	62.53
760.529	62.48
760.846	62.51
761.162	62.31
761.478	63.05
761.794	62.59
762.11	62.41
762.426	62.7
762.743	62.9
763.059	62.9
763.375	62.84
763.69	63.29
764.006	63.31
764.322	62.98
764.638	62.88
764.954	63.06
765.27	63.07
765.585	63.07
765.901	62.89
766.216	62.86
766.532	62.56
766.848	62.59
767.163	62.67
767.478	62.56
767.794	62.38
768.109	61.93
768.424	62.3
768.74	62.28
769.055	62.49
769.37	62.41
769.685	62.17
770	62.04
770.315	61.67
770.63	61.48
770.945	61.7
771.26	61.86
771.575	61.5
771.89	61.9
772.205	61.71
772.52	61.7
772.834	61.53
773.149	62.03
773.464	62.06
773.778	62.16
774.093	62.21
774.407	62.33
774.722	62.57
775.036	62.46
775.351	62.74
775.665	62.03
775.979	61.7
776.293	61.94
776.608	61.9
776.922	62.22
777.236	62.2
777.55	61.49
777.864	61
778.178	61.22
778.492	60.65
778.806	60.88
779.12	60.98
779.434	61.41
779.747	61.08
780.061	61.52
780.375	61.87
780.689	61.92
781.002	62.12
781.316	62.37
781.629	62.01
781.943	61.83
782.256	62.02
782.57	62.41
782.883	62.96
783.196	63.26
783.51	62.9
783.823	63.03
784.136	63.58
784.449	63.63
784.762	63.21
785.075	63.91
785.388	63.86
785.701	64.15
786.014	63.79
786.327	64.03
786.64	63.89
786.953	63.05
787.266	63.31
787.578	63.01
787.891	62.39
788.204	62.6
788.516	62.84
788.829	62.86
789.141	62.73
789.454	62.18
789.766	61.97
790.079	62.38
790.391	62.04
790.703	62.48
791.016	62.9
791.328	62.95
791.64	62.43
791.952	62.81
792.264	62.84
792.576	62.84
792.888	62.61
793.2	62.43
793.512	63.12
793.824	63.1
794.136	63.38
794.448	63.23
794.76	63.73
795.071	63.87
795.383	63.61
795.695	63.63
796.006	63.71
796.318	63.85
796.629	63.79
796.941	64.31
797.252	63.6
797.564	63.73
797.875	63.79
798.186	63.51
798.497	63.07
798.809	63.04
799.12	63.1
799.431	63.37
799.742	63.47
800.053	62.66
800.364	62.89
800.675	62.5
800.986	63.21
801.297	63.12
801.608	62.67
801.918	63.62
802.229	63.88
802.54	63.78
802.851	64.09
803.161	63.6
803.472	63.25
803.782	63.84
804.093	62.94
804.403	63.46
804.714	63.71
805.024	63.93
805.334	63.57
805.645	63.3
805.955	62.84
806.265	63.17
806.575	63.54
806.885	62.88
807.195	63.18
807.505	62.15
807.815	61.72
808.125	62.27
808.435	61.84
808.745	61.19
809.055	61.23
809.365	60.98
809.674	60.12
809.984	60.36
810.294	59.82
810.603	60.39
810.913	60.05
811.222	59.94
811.532	59.58
811.841	60.05
812.151	60.14
812.46	61.16
812.769	60.16
813.079	60.26
813.388	59.6
813.697	59.58
814.006	60.97
814.315	61.48
814.624	60.71
814.933	60.84
815.242	61.47
815.551	61.62
815.86	61.83
816.169	63.72
816.478	64.04
816.786	64.45
817.095	64.76
817.404	64.72
817.712	65.03
818.021	65.19
818.33	65.18
818.638	65.43
818.947	64.12
819.255	64.42
819.563	64.36
819.872	64.81
820.18	64.96
820.488	64.64
820.796	64.62
821.105	64.63
821.413	64.44
821.721	64.39
822.029	64.32
822.337	64.02
822.645	63.68
822.953	63.79
823.26	63.69
823.568	63.6
823.876	63.75
824.184	63.88
824.491	63.92
824.799	63.86
825.107	63.96
825.414	64.14
825.722	64
826.029	64.2
826.337	64.09
826.644	63.96
826.951	63.97
827.259	63.69
827.566	63.83
827.873	63.85
828.18	63.75
828.488	63.89
828.795	64.07
829.102	64.25
829.409	64.16
829.716	64.05
830.023	63.92
830.329	63.55
830.636	63.14
830.943	62.71
831.25	62.53
831.557	62.11
831.863	62.17
832.17	61.92
832.476	61.33
832.783	61.69
833.089	61.61
833.396	61.43
833.702	61.77
834.009	61.62
834.315	61.6
834.621	61.44
834.928	61.11
835.234	61.2
835.54	61.4
835.846	60.8
836.152	61.23
836.458	61.45
836.764	61.78
837.07	62.29
837.376	62.65
837.682	63.38
837.988	63.21
838.293	62.77
838.599	63.73
838.905	63.88
839.211	63.54
839.516	64.32
839.822	64.44
840.127	64.65
840.433	64.98
840.738	65.65
841.044	66.7
841.349	66.06
841.654	65.67
841.959	66.07
842.265	67.09
842.57	68.07
842.875	67.88
843.18	68.22
843.485	67.38
843.79	66.27
844.095	65.27
844.4	65.63
844.705	65.72
845.01	65.07
845.315	65.67
845.619	66.01
845.924	64.83
846.229	65.79
846.533	65.82
846.838	64.72
847.142	63.47
847.447	62.35
847.751	64.04
848.056	64.02
848.36	62.69
848.664	62.77
848.969	60.5
849.273	58.78
849.577	55.51
849.881	55.25
850.185	57.41
850.489	55.08
850.794	53.67
851.097	54.65
851.401	54.9
851.705	55.21
852.009	54.77
852.313	54.71
852.617	52.79
852.92	52
853.224	52
853.528	53.64
853.831	53.24
854.135	52.02
854.438	51.07
854.742	51.51
855.045	50.08
855.349	51.46
855.652	52.31
855.955	54.57
856.259	55.88
856.562	55.18
856.865	56.15
857.168	57.35
857.471	57.38
857.774	56.96
858.077	57.11
858.38	57.67
858.683	58.37
858.986	60.81
859.289	60.64
859.592	60.19
859.894	59.85
860.197	60.41
860.5	63.35
860.802	64.14
861.105	64.05
861.407	65.67
861.71	64.43
862.012	66.64
862.315	66.3
862.617	65.2
862.919	66.56
863.222	66.76
863.524	66.58
863.826	64.85
864.128	65.58
864.43	65.71
864.732	65.53
865.034	65.62
865.336	63.84
865.638	64.92
865.94	64.02
866.242	64.11
866.544	65.61
866.846	62.38
867.147	61.51
867.449	62.74
867.751	61.74
868.052	61.24
868.354	60.81
868.655	61.81
868.957	60.14
869.258	61.55
869.56	64.43
869.861	65.41
870.162	65.59
870.463	65.54
870.765	65.56
871.066	67.86
871.367	66.06
871.668	66.51
871.969	66.33
872.27	69
872.571	67.59
872.872	65.42
873.173	65.23
873.473	67.29
873.774	65.39
874.075	66.84
874.376	67.23
874.676	67.39
874.977	64.22
875.277	69.48
875.578	67.82
875.878	65.35
876.179	65.19
876.479	66.77
876.78	66.02
877.08	64.25
877.38	61.09
877.68	62.62
877.981	62.44
878.281	62.51
878.581	61.47
