Data from BU26842_Reflection_00015.txt Node
Date: Mon Nov 18 16:38:59 EST 2019
User: vgr7
Spectrometer: USB2G7710
Scans to average: 3
Trigger mode: 4
Integration Time (sec): 2.000000E-2
Electric dark correction enabled: true
Boxcar width: 10
XAxis mode: Wavelengths
Number of Pixels in Spectrum: 2048
>>>>>Begin Spectral Data<<<<<
177.721	-167.37
178.105	-82.84
178.488	-106.09
178.871	-76.06
179.254	-30.53
179.636	-108.45
180.019	-243.68
180.402	69.77
180.785	54.26
181.168	15.67
181.55	58.41
181.933	274.55
182.316	-644.83
182.698	-495.04
183.081	-84.62
183.463	43.13
183.846	110.41
184.228	54.41
184.611	82.4
184.993	106.89
185.376	160.72
185.758	352.51
186.14	-552.72
186.522	-594.53
186.904	-935.53
187.287	-4244.83
187.669	110.63
188.051	57.06
188.433	19.39
188.815	9.13
189.197	3.84
189.579	-19.74
189.961	-5.22
190.342	-19.67
190.724	-25.48
191.106	-26.25
191.488	-43.4
191.869	-41.1
192.251	-32
192.633	-35.65
193.014	-14.78
193.396	-15.7
193.777	-21.45
194.159	-18.94
194.54	-18.66
194.922	-24.71
195.303	-27.33
195.684	-21.72
196.065	-6.68
196.447	-0.81
196.828	0.02
197.209	-6.31
197.59	12.8
197.971	3.48
198.352	26.99
198.733	38.42
199.114	42.43
199.495	54.87
199.876	58.35
200.257	60.69
200.638	74.74
201.018	58.25
201.399	56.46
201.78	50.34
202.16	46.45
202.541	36.64
202.922	20.29
203.302	38.44
203.683	9.94
204.063	-12.59
204.444	-3.52
204.824	-25.31
205.204	2
205.585	-36.4
205.965	-31.42
206.345	-52.76
206.725	-61.36
207.106	-117.78
207.486	-153.24
207.866	-197.42
208.246	-162.09
208.626	-149.89
209.006	-104.38
209.386	-180.09
209.766	-184.77
210.145	-121.66
210.525	-90.05
210.905	-59.96
211.285	-45.38
211.664	-38.58
212.044	-48.3
212.424	-65.74
212.803	-47.63
213.183	-51.48
213.562	-33.4
213.942	-26.33
214.321	-23.2
214.701	-25.26
215.08	-33.45
215.459	-38.61
215.838	-36.2
216.218	-63.35
216.597	-51.16
216.976	-48.48
217.355	-36.24
217.734	-38.36
218.113	-32.48
218.492	-35.41
218.871	-41.31
219.25	-45.12
219.629	-38.15
220.008	-26.85
220.387	-11.34
220.766	-14.65
221.144	-20.44
221.523	-22.1
221.902	-23.61
222.28	-14.3
222.659	-3.24
223.037	12.57
223.416	19.55
223.794	22.73
224.173	28.99
224.551	25.5
224.929	15.55
225.308	14.9
225.686	15.37
226.064	12.34
226.442	9.46
226.821	14.64
227.199	9.52
227.577	8.17
227.955	2.75
228.333	2.08
228.711	1.07
229.089	4.64
229.467	4.27
229.845	2.11
230.222	2.41
230.6	1.21
230.978	1.21
231.356	1.58
231.733	2.49
232.111	0.85
232.488	1.12
232.866	3.43
233.243	4.24
233.621	3.86
233.998	3.62
234.376	4.42
234.753	4.64
235.13	6.24
235.508	7.1
235.885	8.91
236.262	6.25
236.639	6.62
237.016	6.14
237.393	7.17
237.77	7.7
238.147	7.18
238.524	7.02
238.901	6.92
239.278	6.35
239.655	5.77
240.032	6.5
240.409	6.42
240.785	6.08
241.162	5.69
241.539	5.68
241.915	5.32
242.292	5.19
242.668	4.82
243.045	4.62
243.421	4.68
243.798	4.43
244.174	4.66
244.551	4.74
244.927	4.69
245.303	4.59
245.679	4.43
246.056	4.27
246.432	4.21
246.808	4.12
247.184	4.09
247.56	4.16
247.936	3.87
248.312	3.94
248.688	3.92
249.064	3.71
249.44	3.74
249.815	3.89
250.191	3.66
250.567	3.67
250.943	3.57
251.318	3.27
251.694	3.17
252.069	3.16
252.445	3.11
252.82	2.96
253.196	2.77
253.571	2.82
253.947	3.03
254.322	2.99
254.697	2.87
255.073	2.77
255.448	2.58
255.823	2.67
256.198	2.66
256.573	2.68
256.948	3.07
257.323	3.27
257.698	3.31
258.073	3.46
258.448	3.32
258.823	3.33
259.198	3.06
259.573	2.98
259.948	2.9
260.322	2.77
260.697	2.54
261.072	2.54
261.446	2.68
261.821	2.49
262.195	2.57
262.57	2.65
262.944	2.62
263.319	2.59
263.693	2.72
264.067	2.89
264.442	2.86
264.816	2.66
265.19	2.46
265.564	2.5
265.938	2.49
266.313	2.46
266.687	2.49
267.061	2.9
267.435	2.92
267.809	2.9
268.183	2.97
268.556	3.22
268.93	3.16
269.304	3.19
269.678	3.38
270.051	3.28
270.425	3.23
270.799	3.22
271.172	3.34
271.546	3.3
271.919	3.12
272.293	3.12
272.666	3.15
273.04	3.22
273.413	3.02
273.787	3.01
274.16	3.12
274.533	3.03
274.906	3.01
275.279	3.14
275.653	3.16
276.026	3.25
276.399	3.22
276.772	3.39
277.145	3.21
277.518	3.08
277.891	3.21
278.263	3.26
278.636	3.32
279.009	3.26
279.382	3.35
279.755	3.23
280.127	3.24
280.5	3.42
280.872	3.3
281.245	3.28
281.617	3.34
281.99	3.51
282.362	3.52
282.735	3.47
283.107	3.3
283.479	3.5
283.852	3.47
284.224	3.43
284.596	3.39
284.968	3.45
285.34	3.47
285.713	3.48
286.085	3.44
286.457	3.49
286.829	3.52
287.201	3.46
287.572	3.46
287.944	3.43
288.316	3.33
288.688	3.4
289.06	3.48
289.431	3.47
289.803	3.34
290.175	3.32
290.546	3.4
290.918	3.54
291.289	3.59
291.661	3.6
292.032	3.55
292.403	3.59
292.775	3.59
293.146	3.63
293.517	3.56
293.889	3.58
294.26	3.55
294.631	3.49
295.002	3.51
295.373	3.69
295.744	3.7
296.115	3.78
296.486	3.78
296.857	3.78
297.228	3.85
297.599	3.88
297.97	3.92
298.34	3.87
298.711	3.95
299.082	3.77
299.452	3.7
299.823	3.89
300.194	3.99
300.564	4
300.935	4.15
301.305	4.18
301.676	4.27
302.046	4.34
302.416	4.43
302.787	4.4
303.157	4.35
303.527	4.52
303.897	4.54
304.267	4.66
304.637	4.75
305.008	4.76
305.378	4.82
305.748	4.89
306.117	4.8
306.487	4.78
306.857	4.86
307.227	4.98
307.597	5.04
307.967	4.92
308.336	4.92
308.706	4.8
309.076	4.92
309.445	4.93
309.815	4.9
310.184	4.87
310.554	4.83
310.923	4.79
311.293	4.73
311.662	4.7
312.031	4.66
312.401	4.6
312.77	4.7
313.139	4.8
313.508	4.84
313.877	4.97
314.246	4.99
314.616	5.04
314.985	5.11
315.353	4.94
315.722	4.96
316.091	5
316.46	4.96
316.829	4.93
317.198	4.92
317.567	4.85
317.935	4.97
318.304	5.09
318.672	5.29
319.041	5.5
319.41	5.58
319.778	5.65
320.147	5.86
320.515	5.79
320.883	5.66
321.252	5.79
321.62	5.9
321.988	5.92
322.357	5.87
322.725	5.86
323.093	5.98
323.461	6.16
323.829	6.33
324.197	6.39
324.565	6.47
324.933	6.53
325.301	6.63
325.669	6.62
326.037	6.73
326.405	6.64
326.772	6.54
327.14	6.62
327.508	6.6
327.875	6.54
328.243	6.6
328.61	6.62
328.978	6.57
329.346	6.57
329.713	6.56
330.08	6.72
330.448	6.76
330.815	6.66
331.182	6.65
331.55	6.5
331.917	6.66
332.284	6.68
332.651	6.65
333.018	6.81
333.385	6.99
333.752	7.02
334.119	7.07
334.486	7.14
334.853	7.14
335.22	7.21
335.587	7.29
335.954	7.28
336.32	7.34
336.687	7.45
337.054	7.47
337.42	7.65
337.787	7.66
338.153	7.56
338.52	7.76
338.886	7.63
339.253	7.64
339.619	7.69
339.986	7.66
340.352	7.72
340.718	7.7
341.084	7.62
341.451	7.72
341.817	7.78
342.183	7.69
342.549	7.65
342.915	7.74
343.281	7.62
343.647	7.62
344.013	7.63
344.379	7.55
344.745	7.53
345.11	7.55
345.476	7.57
345.842	7.72
346.208	7.7
346.573	7.79
346.939	7.97
347.304	7.85
347.67	7.79
348.035	7.82
348.401	7.86
348.766	7.87
349.132	7.77
349.497	7.67
349.862	7.78
350.228	7.8
350.593	7.75
350.958	7.91
351.323	8
351.688	8.04
352.053	8.11
352.418	8.23
352.783	8.19
353.148	8.1
353.513	8.13
353.878	8.07
354.243	8.2
354.608	8.19
354.972	8.26
355.337	8.41
355.702	8.39
356.066	8.36
356.431	8.31
356.795	8.32
357.16	8.3
357.524	8.29
357.889	8.24
358.253	8.24
358.618	8.23
358.982	8.12
359.346	8.04
359.71	7.93
360.075	7.91
360.439	7.89
360.803	7.87
361.167	7.75
361.531	7.77
361.895	7.63
362.259	7.52
362.623	7.46
362.987	7.35
363.351	7.29
363.714	7.27
364.078	7.25
364.442	7.16
364.806	7.19
365.169	7.19
365.533	7.22
365.896	7.19
366.26	7.17
366.623	7.13
366.987	7.14
367.35	7.17
367.714	7.1
368.077	7.02
368.44	7.01
368.803	7.03
369.167	6.92
369.53	6.84
369.893	6.86
370.256	6.89
370.619	6.88
370.982	6.81
371.345	6.77
371.708	6.76
372.071	6.74
372.434	6.67
372.797	6.58
373.159	6.51
373.522	6.52
373.885	6.44
374.247	6.4
374.61	6.31
374.973	6.26
375.335	6.12
375.698	6.13
376.06	6.12
376.423	6.03
376.785	6.02
377.147	6.02
377.51	5.94
377.872	5.89
378.234	5.84
378.596	5.83
378.958	5.78
379.321	5.73
379.683	5.71
380.045	5.66
380.407	5.66
380.769	5.61
381.13	5.53
381.492	5.44
381.854	5.47
382.216	5.47
382.578	5.48
382.939	5.52
383.301	5.44
383.663	5.42
384.024	5.44
384.386	5.44
384.747	5.41
385.109	5.4
385.47	5.36
385.832	5.32
386.193	5.32
386.554	5.29
386.916	5.28
387.277	5.26
387.638	5.27
387.999	5.2
388.36	5.18
388.721	5.14
389.082	5.12
389.443	5.03
389.804	4.99
390.165	4.96
390.526	4.93
390.887	4.91
391.248	4.89
391.609	4.83
391.969	4.79
392.33	4.76
392.691	4.74
393.051	4.69
393.412	4.69
393.772	4.63
394.133	4.61
394.493	4.54
394.854	4.54
395.214	4.47
395.574	4.46
395.935	4.41
396.295	4.42
396.655	4.4
397.015	4.37
397.376	4.34
397.736	4.32
398.096	4.3
398.456	4.27
398.816	4.25
399.176	4.2
399.535	4.18
399.895	4.17
400.255	4.15
400.615	4.11
400.975	4.09
401.334	4.08
401.694	4.08
402.054	4.09
402.413	4.07
402.773	4.04
403.132	4.04
403.492	4.04
403.851	4.01
404.211	3.99
404.57	4
404.929	3.98
405.288	3.94
405.648	3.89
406.007	3.9
406.366	3.88
406.725	3.91
407.084	3.88
407.443	3.84
407.802	3.83
408.161	3.82
408.52	3.76
408.879	3.72
409.238	3.7
409.596	3.7
409.955	3.69
410.314	3.69
410.673	3.69
411.031	3.67
411.39	3.65
411.748	3.67
412.107	3.65
412.465	3.68
412.824	3.68
413.182	3.69
413.54	3.67
413.899	3.66
414.257	3.63
414.615	3.61
414.974	3.63
415.332	3.61
415.69	3.6
416.048	3.62
416.406	3.6
416.764	3.57
417.122	3.57
417.48	3.53
417.838	3.55
418.195	3.53
418.553	3.53
418.911	3.5
419.269	3.48
419.626	3.46
419.984	3.43
420.342	3.42
420.699	3.4
421.057	3.4
421.414	3.38
421.772	3.39
422.129	3.39
422.486	3.38
422.844	3.38
423.201	3.37
423.558	3.37
423.915	3.38
424.273	3.38
424.63	3.35
424.987	3.36
425.344	3.34
425.701	3.31
426.058	3.31
426.415	3.32
426.772	3.3
427.128	3.3
427.485	3.32
427.842	3.3
428.199	3.3
428.555	3.29
428.912	3.31
429.269	3.29
429.625	3.28
429.982	3.26
430.338	3.24
430.695	3.23
431.051	3.25
431.407	3.23
431.764	3.23
432.12	3.25
432.476	3.25
432.832	3.23
433.189	3.23
433.545	3.21
433.901	3.19
434.257	3.21
434.613	3.23
434.969	3.22
435.325	3.24
435.681	3.25
436.036	3.25
436.392	3.24
436.748	3.24
437.104	3.22
437.459	3.23
437.815	3.22
438.171	3.23
438.526	3.21
438.882	3.21
439.237	3.21
439.593	3.21
439.948	3.21
440.304	3.23
440.659	3.24
441.014	3.25
441.369	3.25
441.725	3.23
442.08	3.24
442.435	3.22
442.79	3.21
443.145	3.2
443.5	3.2
443.855	3.18
444.21	3.18
444.565	3.2
444.92	3.2
445.275	3.2
445.629	3.19
445.984	3.19
446.339	3.18
446.693	3.17
447.048	3.16
447.403	3.14
447.757	3.13
448.112	3.12
448.466	3.12
448.82	3.11
449.175	3.12
449.529	3.1
449.883	3.11
450.238	3.11
450.592	3.13
450.946	3.12
451.3	3.12
451.654	3.11
452.008	3.11
452.362	3.1
452.716	3.1
453.07	3.11
453.424	3.11
453.778	3.11
454.132	3.09
454.486	3.08
454.839	3.09
455.193	3.1
455.547	3.1
455.9	3.11
456.254	3.11
456.607	3.09
456.961	3.09
457.314	3.06
457.668	3.06
458.021	3.05
458.375	3.05
458.728	3.05
459.081	3.06
459.434	3.04
459.787	3.04
460.141	3.04
460.494	3.05
460.847	3.03
461.2	3.03
461.553	3.05
461.906	3.06
462.259	3.07
462.611	3.06
462.964	3.06
463.317	3.07
463.67	3.08
464.022	3.09
464.375	3.08
464.728	3.1
465.08	3.12
465.433	3.11
465.785	3.11
466.138	3.1
466.49	3.11
466.843	3.13
467.195	3.16
467.547	3.18
467.899	3.17
468.252	3.19
468.604	3.19
468.956	3.23
469.308	3.22
469.66	3.2
470.012	3.23
470.364	3.23
470.716	3.22
471.068	3.23
471.42	3.24
471.772	3.28
472.123	3.29
472.475	3.31
472.827	3.33
473.178	3.37
473.53	3.37
473.882	3.37
474.233	3.36
474.585	3.34
474.936	3.35
475.288	3.34
475.639	3.33
475.99	3.34
476.342	3.3
476.693	3.31
477.044	3.34
477.395	3.34
477.746	3.35
478.097	3.34
478.448	3.33
478.8	3.32
479.15	3.29
479.501	3.29
479.852	3.25
480.203	3.26
480.554	3.24
480.905	3.25
481.255	3.25
481.606	3.24
481.957	3.25
482.307	3.25
482.658	3.24
483.009	3.24
483.359	3.23
483.709	3.23
484.06	3.23
484.41	3.23
484.761	3.22
485.111	3.22
485.461	3.22
485.811	3.23
486.162	3.24
486.512	3.25
486.862	3.25
487.212	3.24
487.562	3.24
487.912	3.25
488.262	3.24
488.612	3.24
488.961	3.25
489.311	3.25
489.661	3.27
490.011	3.28
490.36	3.28
490.71	3.3
491.06	3.31
491.409	3.32
491.759	3.33
492.108	3.34
492.458	3.35
492.807	3.36
493.157	3.36
493.506	3.36
493.855	3.37
494.204	3.38
494.554	3.42
494.903	3.43
495.252	3.43
495.601	3.46
495.95	3.5
496.299	3.52
496.648	3.54
496.997	3.57
497.346	3.6
497.695	3.65
498.043	3.67
498.392	3.69
498.741	3.73
499.09	3.75
499.438	3.8
499.787	3.87
500.135	3.93
500.484	3.96
500.832	4.01
501.181	4.07
501.529	4.11
501.878	4.17
502.226	4.25
502.574	4.33
502.923	4.37
503.271	4.43
503.619	4.51
503.967	4.61
504.315	4.7
504.663	4.8
505.011	4.88
505.359	4.97
505.707	5.07
506.055	5.16
506.403	5.26
506.751	5.34
507.098	5.4
507.446	5.51
507.794	5.61
508.141	5.73
508.489	5.84
508.837	5.95
509.184	6.04
509.531	6.11
509.879	6.21
510.226	6.34
510.574	6.43
510.921	6.52
511.268	6.6
511.616	6.69
511.963	6.78
512.31	6.89
512.657	7.03
513.004	7.16
513.351	7.3
513.698	7.43
514.045	7.57
514.392	7.72
514.739	7.84
515.086	7.99
515.432	8.12
515.779	8.25
516.126	8.41
516.473	8.54
516.819	8.69
517.166	8.83
517.512	8.96
517.859	9.09
518.205	9.19
518.552	9.33
518.898	9.45
519.245	9.55
519.591	9.66
519.937	9.74
520.283	9.87
520.629	9.99
520.976	10.09
521.322	10.21
521.668	10.33
522.014	10.46
522.36	10.59
522.706	10.75
523.052	10.91
523.398	11.06
523.743	11.23
524.089	11.43
524.435	11.57
524.781	11.71
525.126	11.87
525.472	12.01
525.817	12.11
526.163	12.22
526.509	12.34
526.854	12.45
527.199	12.57
527.545	12.65
527.89	12.76
528.235	12.89
528.581	13.02
528.926	13.14
529.271	13.25
529.616	13.4
529.961	13.51
530.306	13.62
530.651	13.73
530.996	13.87
531.341	14
531.686	14.15
532.031	14.3
532.376	14.47
532.721	14.63
533.065	14.83
533.41	15.01
533.755	15.2
534.099	15.4
534.444	15.57
534.788	15.76
535.133	15.97
535.477	16.16
535.822	16.35
536.166	16.56
536.51	16.81
536.855	17.04
537.199	17.28
537.543	17.56
537.887	17.87
538.231	18.12
538.576	18.37
538.92	18.61
539.264	18.89
539.608	19.09
539.951	19.29
540.295	19.51
540.639	19.73
540.983	19.95
541.327	20.15
541.671	20.38
542.014	20.62
542.358	20.8
542.701	21.01
543.045	21.21
543.389	21.41
543.732	21.63
544.075	21.85
544.419	22.05
544.762	22.26
545.105	22.47
545.449	22.73
545.792	22.97
546.135	23.26
546.478	23.5
546.821	23.82
547.165	24.16
547.508	24.47
547.851	24.74
548.194	25.02
548.536	25.35
548.879	25.64
549.222	25.89
549.565	26.19
549.908	26.48
550.25	26.79
550.593	27.13
550.936	27.35
551.278	27.57
551.621	27.9
551.963	28.21
552.306	28.52
552.648	28.82
552.991	29.15
553.333	29.42
553.675	29.68
554.017	29.93
554.36	30.16
554.702	30.38
555.044	30.61
555.386	30.87
555.728	31.07
556.07	31.33
556.412	31.56
556.754	31.78
557.096	32.02
557.438	32.26
557.78	32.47
558.121	32.78
558.463	33.04
558.805	33.25
559.147	33.45
559.488	33.67
559.83	33.88
560.171	34.02
560.513	34.23
560.854	34.43
561.196	34.61
561.537	34.82
561.878	35.02
562.22	35.26
562.561	35.44
562.902	35.62
563.243	35.8
563.584	36.01
563.925	36.19
564.266	36.27
564.607	36.41
564.948	36.54
565.289	36.72
565.63	36.85
565.971	36.95
566.312	37.12
566.653	37.25
566.993	37.37
567.334	37.53
567.675	37.71
568.015	37.88
568.356	38.05
568.696	38.14
569.037	38.25
569.377	38.34
569.718	38.44
570.058	38.53
570.398	38.59
570.739	38.69
571.079	38.81
571.419	39.03
571.759	39.19
572.099	39.32
572.439	39.42
572.779	39.54
573.119	39.74
573.459	39.81
573.799	39.94
574.139	40
574.479	40.12
574.819	40.18
575.158	40.28
575.498	40.35
575.838	40.52
576.177	40.64
576.517	40.75
576.856	40.86
577.196	41.05
577.535	41.2
577.875	41.27
578.214	41.39
578.553	41.47
578.893	41.53
579.232	41.66
579.571	41.73
579.91	41.78
580.25	41.88
580.589	41.97
580.928	42.03
581.267	42.13
581.606	42.16
581.945	42.24
582.283	42.3
582.622	42.36
582.961	42.38
583.3	42.48
583.639	42.66
583.977	42.75
584.316	42.81
584.654	42.91
584.993	43.04
585.332	43.12
585.67	43.18
586.008	43.29
586.347	43.34
586.685	43.41
587.024	43.54
587.362	43.54
587.7	43.57
588.038	43.64
588.376	43.73
588.715	43.85
589.053	43.91
589.391	43.96
589.729	44.01
590.067	44.04
590.404	44.13
590.742	44.11
591.08	44.13
591.418	44.16
591.756	44.24
592.093	44.3
592.431	44.35
592.769	44.43
593.106	44.45
593.444	44.49
593.781	44.48
594.119	44.52
594.456	44.59
594.793	44.63
595.131	44.66
595.468	44.69
595.805	44.72
596.143	44.75
596.48	44.77
596.817	44.89
597.154	44.9
597.491	44.86
597.828	44.88
598.165	44.96
598.502	45.06
598.839	45.02
599.176	45.03
599.512	45.03
599.849	45.04
600.186	45.04
600.523	45.1
600.859	45.2
601.196	45.3
601.532	45.39
601.869	45.42
602.205	45.47
602.542	45.56
602.878	45.63
603.215	45.7
603.551	45.79
603.887	45.8
604.223	45.84
604.56	45.92
604.896	45.97
605.232	45.95
605.568	45.95
605.904	46.04
606.24	46.12
606.576	46.17
606.912	46.17
607.248	46.28
607.583	46.26
607.919	46.3
608.255	46.25
608.591	46.27
608.926	46.36
609.262	46.43
609.597	46.44
609.933	46.44
610.268	46.51
610.604	46.49
610.939	46.49
611.275	46.55
611.61	46.56
611.945	46.56
612.281	46.63
612.616	46.56
612.951	46.59
613.286	46.61
613.621	46.63
613.956	46.67
614.291	46.65
614.626	46.75
614.961	46.76
615.296	46.8
615.631	46.72
615.966	46.69
616.3	46.63
616.635	46.57
616.97	46.49
617.304	46.35
617.639	46.31
617.973	46.4
618.308	46.47
618.642	46.45
618.977	46.45
619.311	46.45
619.646	46.54
619.98	46.57
620.314	46.62
620.648	46.62
620.983	46.72
621.317	46.72
621.651	46.84
621.985	46.92
622.319	46.85
622.653	46.87
622.987	46.96
623.321	47.01
623.655	47.08
623.988	47.18
624.322	47.18
624.656	47.26
624.99	47.23
625.323	47.22
625.657	47.25
625.99	47.29
626.324	47.3
626.657	47.34
626.991	47.38
627.324	47.34
627.658	47.38
627.991	47.4
628.324	47.42
628.657	47.32
628.991	47.29
629.324	47.37
629.657	47.44
629.99	47.46
630.323	47.53
630.656	47.63
630.989	47.72
631.322	47.88
631.655	47.88
631.987	47.92
632.32	47.94
632.653	47.98
632.986	48.03
633.318	48.07
633.651	48.07
633.984	47.98
634.316	47.92
634.649	47.97
634.981	47.88
635.313	47.82
635.646	47.93
635.978	48
636.31	48.05
636.643	48.04
636.975	48.03
637.307	48.01
637.639	47.9
637.971	47.79
638.303	47.8
638.635	47.79
638.967	47.79
639.299	47.81
639.631	47.81
639.963	47.78
640.295	47.83
640.626	47.88
640.958	47.93
641.29	48.07
641.621	48.07
641.953	48.19
642.285	48.28
642.616	48.21
642.948	48.2
643.279	48.15
643.61	48.21
643.942	48.22
644.273	48.13
644.604	48.2
644.936	48.35
645.267	48.34
645.598	48.4
645.929	48.37
646.26	48.41
646.591	48.37
646.922	48.41
647.253	48.42
647.584	48.37
647.915	48.42
648.245	48.31
648.576	48.36
648.907	48.3
649.238	48.34
649.568	48.51
649.899	48.55
650.229	48.57
650.56	48.57
650.89	48.59
651.221	48.63
651.551	48.57
651.882	48.53
652.212	48.52
652.542	48.52
652.872	48.57
653.203	48.5
653.533	48.56
653.863	48.51
654.193	48.54
654.523	48.57
654.853	48.57
655.183	48.62
655.513	48.51
655.843	48.56
656.172	48.52
656.502	48.47
656.832	48.39
657.162	48.43
657.491	48.41
657.821	48.48
658.15	48.53
658.48	48.59
658.809	48.55
659.139	48.54
659.468	48.59
659.798	48.63
660.127	48.81
660.456	48.83
660.785	48.83
661.115	48.82
661.444	48.77
661.773	48.69
662.102	48.71
662.431	48.85
662.76	48.78
663.089	48.78
663.418	48.72
663.747	48.87
664.076	48.78
664.404	48.79
664.733	48.76
665.062	48.88
665.39	48.83
665.719	48.87
666.048	48.87
666.376	48.89
666.705	48.73
667.033	48.63
667.362	48.61
667.69	48.72
668.018	48.67
668.347	48.82
668.675	48.9
669.003	48.89
669.331	48.86
669.659	48.88
669.987	48.82
670.315	48.74
670.643	48.58
670.971	48.66
671.299	48.74
671.627	48.67
671.955	48.63
672.283	48.8
672.61	48.81
672.938	48.83
673.266	48.75
673.593	48.91
673.921	48.87
674.249	48.93
674.576	48.9
674.904	48.93
675.231	48.84
675.558	48.87
675.886	49.05
676.213	49.08
676.54	49.2
676.867	49.34
677.195	49.42
677.522	49.47
677.849	49.51
678.176	49.49
678.503	49.55
678.83	49.54
679.157	49.42
679.484	49.32
679.81	49.41
680.137	49.43
680.464	49.36
680.791	49.38
681.117	49.38
681.444	49.43
681.771	49.51
682.097	49.54
682.424	49.51
682.75	49.36
683.077	49.45
683.403	49.34
683.729	49.27
684.056	49.31
684.382	49.29
684.708	49.41
685.034	49.26
685.36	49.29
685.686	49.32
686.012	49.25
686.339	49.35
686.664	49.28
686.99	49.25
687.316	49.27
687.642	49.2
687.968	49.08
688.294	48.97
688.619	48.78
688.945	48.82
689.271	48.96
689.596	48.96
689.922	48.9
690.247	49.01
690.573	49.06
690.898	48.99
691.224	48.99
691.549	48.86
691.874	48.9
692.2	48.7
692.525	48.57
692.85	48.75
693.175	48.7
693.5	48.68
693.825	48.75
694.15	48.76
694.475	48.87
694.8	48.91
695.125	48.95
695.45	49.19
695.775	49.2
696.099	49.01
696.424	49.16
696.749	49.09
697.073	49
697.398	48.96
697.723	49.03
698.047	49.02
698.372	48.91
698.696	48.92
699.02	49
699.345	49.01
699.669	48.95
699.993	48.96
700.318	48.88
700.642	48.82
700.966	48.96
701.29	49
701.614	49.13
701.938	49.13
702.262	49.02
702.586	48.95
702.91	49.09
703.234	48.95
703.557	48.81
703.881	48.84
704.205	48.89
704.529	48.95
704.852	48.95
705.176	49.17
705.499	49.44
705.823	49.54
706.146	49.54
706.47	49.71
706.793	49.84
707.117	49.94
707.44	50.06
707.763	49.89
708.086	49.64
708.409	49.76
708.733	49.74
709.056	49.68
709.379	49.84
709.702	49.7
710.025	49.65
710.348	49.75
710.671	49.7
710.993	49.65
711.316	49.54
711.639	49.57
711.962	49.54
712.284	49.45
712.607	49.27
712.93	49.15
713.252	49.01
713.575	48.97
713.897	48.86
714.22	48.86
714.542	48.87
714.864	48.86
715.187	48.84
715.509	48.96
715.831	48.91
716.153	48.85
716.475	49.05
716.798	49.1
717.12	49.26
717.442	49.38
717.764	49.56
718.085	49.58
718.407	49.83
718.729	49.76
719.051	49.68
719.373	49.44
719.695	49.52
720.016	49.64
720.338	49.71
720.659	49.82
720.981	49.74
721.302	49.75
721.624	49.96
721.945	49.9
722.267	49.81
722.588	49.97
722.909	50.13
723.231	50
723.552	49.96
723.873	49.81
724.194	49.63
724.515	49.55
724.836	49.58
725.157	49.28
725.478	49.25
725.799	49.41
726.12	49.73
726.441	49.65
726.762	49.54
727.083	49.71
727.403	49.79
727.724	49.81
728.045	49.84
728.365	49.61
728.686	49.55
729.006	49.56
729.327	49.51
729.647	49.41
729.967	49.28
730.288	49.33
730.608	49.41
730.928	49.45
731.249	49.43
731.569	49.49
731.889	49.6
732.209	49.67
732.529	49.75
732.849	49.88
733.169	50
733.489	50.04
733.809	49.97
734.129	49.76
734.448	49.98
734.768	49.96
735.088	50.29
735.408	50.2
735.727	50.11
736.047	50.2
736.366	50.22
736.686	50.43
737.005	50.41
737.325	50.24
737.644	50.45
737.963	50.39
738.283	50.08
738.602	50.02
738.921	49.94
739.24	49.85
739.56	49.9
739.879	49.78
740.198	49.77
740.517	49.7
740.836	50.09
741.155	49.74
741.473	49.76
741.792	49.41
742.111	49.48
742.43	49.62
742.748	49.6
743.067	49.48
743.386	49.64
743.704	49.68
744.023	49.76
744.341	49.48
744.66	49.58
744.978	49.8
745.297	49.67
745.615	49.78
745.933	49.45
746.252	49.32
746.57	49.46
746.888	49.53
747.206	49.3
747.524	49.02
747.842	49.23
748.16	49.28
748.478	49.22
748.796	49.16
749.114	49.28
749.432	49.15
749.749	48.99
750.067	48.68
750.385	48.35
750.703	48.56
751.02	48.84
751.338	48.58
751.655	48.58
751.973	48.7
752.29	48.68
752.608	48.96
752.925	48.85
753.242	48.93
753.56	48.61
753.877	48.68
754.194	48.99
754.511	48.99
754.828	48.98
755.145	49.22
755.462	49.17
755.779	49.02
756.096	48.85
756.413	49.1
756.73	49.2
757.047	49.43
757.364	49.19
757.68	49.23
757.997	49.44
758.314	49.67
758.63	49.79
758.947	49.83
759.264	49.8
759.58	49.91
759.896	50.14
760.213	50.25
760.529	50.38
760.846	50.37
761.162	50.3
761.478	50.21
761.794	50.38
762.11	50.47
762.426	50.45
762.743	50.67
763.059	50.58
763.375	50.65
763.69	50.37
764.006	50.52
764.322	50.52
764.638	50.62
764.954	50.63
765.27	50.49
765.585	50.24
765.901	50.2
766.216	50.15
766.532	49.85
766.848	50.04
767.163	49.87
767.478	49.85
767.794	50.06
768.109	49.98
768.424	49.93
768.74	49.86
769.055	49.88
769.37	49.84
769.685	49.83
770	49.9
770.315	50.48
770.63	50.12
770.945	50.03
771.26	50
771.575	49.82
771.89	49.69
772.205	49.79
772.52	49.87
772.834	50.33
773.149	50.7
773.464	50.51
773.778	50.67
774.093	50.31
774.407	49.67
774.722	49.81
775.036	49.7
775.351	49.83
775.665	49.78
775.979	49.7
776.293	50.21
776.608	49.66
776.922	49.22
777.236	49.28
777.55	49.07
777.864	48.95
778.178	49.05
778.492	49.31
778.806	49.78
779.12	49.85
779.434	49.81
779.747	49.5
780.061	49.46
780.375	49.12
780.689	49.45
781.002	50.17
781.316	50.5
781.629	50.68
781.943	50.68
782.256	50.53
782.57	50.46
782.883	50.14
783.196	50.42
783.51	50.34
783.823	50.77
784.136	50.93
784.449	50.87
784.762	50.66
785.075	50.68
785.388	50.39
785.701	50.17
786.014	49.98
786.327	50.32
786.64	50.68
786.953	51.1
787.266	51.01
787.578	50.61
787.891	50.37
788.204	50.11
788.516	49.85
788.829	49.77
789.141	49.99
789.454	50.24
789.766	50.43
790.079	51.19
790.391	50.52
790.703	50.72
791.016	50.88
791.328	50.84
791.64	50.78
791.952	50.93
792.264	50.98
792.576	50.46
792.888	50.23
793.2	49.98
793.512	50.08
793.824	49.81
794.136	49.59
794.448	49.93
794.76	49.91
795.071	50.07
795.383	50.91
795.695	50.74
796.006	50.38
796.318	50.11
796.629	49.72
796.941	50.27
797.252	50.04
797.564	49.69
797.875	49.98
798.186	50.02
798.497	50.25
798.809	50.13
799.12	50.23
799.431	50.02
799.742	49.88
800.053	50.29
800.364	50.45
800.675	50.59
800.986	50.23
801.297	49.92
801.608	50.57
801.918	49.17
802.229	49.43
802.54	49.4
802.851	49.56
803.161	49.11
803.472	49.42
803.782	49.07
804.093	48.75
804.403	48.49
804.714	48.78
805.024	48.61
805.334	48.73
805.645	49.37
805.955	49.46
806.265	49.29
806.575	48.28
806.885	48.6
807.195	48.67
807.505	48.09
807.815	48.44
808.125	47.5
808.435	48.99
808.745	48.65
809.055	48.41
809.365	48.42
809.674	48.74
809.984	48.13
810.294	48.47
810.603	49.17
810.913	49.78
811.222	49.05
811.532	48.9
811.841	48.9
812.151	48.68
812.46	48.43
812.769	48.2
813.079	48.38
813.388	47.67
813.697	47.68
814.006	48.27
814.315	48.84
814.624	48.67
814.933	48.47
815.242	48.46
815.551	48.61
815.86	48.84
816.169	48.97
816.478	49.26
816.786	49.27
817.095	48.77
817.404	48.5
817.712	48.76
818.021	48.47
818.33	48.64
818.638	48.45
818.947	48.93
819.255	49.39
819.563	49.49
819.872	49.45
820.18	49.59
820.488	49.91
820.796	49.44
821.105	49.66
821.413	49.56
821.721	49.63
822.029	49.82
822.337	49.8
822.645	49.81
822.953	49.83
823.26	50.1
823.568	50.13
823.876	50.08
824.184	49.99
824.491	49.94
824.799	50.03
825.107	50.15
825.414	50.2
825.722	50.18
826.029	50.34
826.337	50.48
826.644	50.41
826.951	50.23
827.259	50.46
827.566	50.33
827.873	50.29
828.18	50.24
828.488	50.05
828.795	49.87
829.102	49.66
829.409	49.48
829.716	48.91
830.023	49.09
830.329	48.84
830.636	49.2
830.943	49.24
831.25	48.94
831.557	48.6
831.863	48.42
832.17	48.08
832.476	47.91
832.783	48.07
833.089	48.06
833.396	48.42
833.702	48.75
834.009	49.2
834.315	49.36
834.621	49.94
834.928	50.04
835.234	50.25
835.54	50.76
835.846	50.94
836.152	51.41
836.458	51.63
836.764	51.54
837.07	51.03
837.376	51.44
837.682	51.64
837.988	52.01
838.293	51.94
838.599	52.24
838.905	51.81
839.211	51.39
839.516	51.44
839.822	51.03
840.127	50.68
840.433	50.86
840.738	50.45
841.044	49.94
841.349	49.86
841.654	50.34
841.959	49.94
842.265	50.24
842.57	50.14
842.875	49.91
843.18	50.97
843.485	51.57
843.79	51.73
844.095	51.67
844.4	52.13
844.705	52.15
845.01	52.92
845.315	52.94
845.619	53.01
845.924	53.29
846.229	53.86
846.533	52.14
846.838	50.8
847.142	51.85
847.447	50.31
847.751	49.42
848.056	47.5
848.36	47.87
848.664	47.53
848.969	46.46
849.273	45.43
849.577	45.01
849.881	46.1
850.185	45.85
850.489	46.67
850.794	46.36
851.097	48.61
851.401	48.47
851.705	49.85
852.009	50.63
852.313	49.98
852.617	50.25
852.92	53.19
853.224	52.71
853.528	51.67
853.831	54.15
854.135	54.5
854.438	55.14
854.742	52.97
855.045	52.68
855.349	51.56
855.652	52.72
855.955	53.47
856.259	52.88
856.562	50.97
856.865	51.39
857.168	50.87
857.471	50.05
857.774	49.35
858.077	50.92
858.38	51.63
858.683	51.6
858.986	50.34
859.289	50.79
859.592	50.63
859.894	52.52
860.197	52.58
860.5	54.98
860.802	53.87
861.105	57.57
861.407	58.96
861.71	60.58
862.012	59.88
862.315	58.76
862.617	56.7
862.919	59.04
863.222	56.35
863.524	56.04
863.826	55.86
864.128	56.08
864.43	51.84
864.732	51.8
865.034	50.51
865.336	50.06
865.638	50.21
865.94	52.06
866.242	49.61
866.544	49.9
866.846	47.71
867.147	48.52
867.449	46.6
867.751	45.06
868.052	48
868.354	46.18
868.655	46.41
868.957	47.2
869.258	47.63
869.56	50.72
869.861	51.53
870.162	48.57
870.463	48.69
870.765	50.66
871.066	49.96
871.367	53.04
871.668	53.6
871.969	51.04
872.27	51.25
872.571	51.41
872.872	48.7
873.173	51.04
873.473	50.64
873.774	54
874.075	54.9
874.376	51.09
874.676	52.19
874.977	54.07
875.277	53.77
875.578	53.22
875.878	51.28
876.179	50.77
876.479	52.79
876.78	53.15
877.08	54.2
877.38	53.67
877.68	53.51
877.981	54.27
878.281	55.32
878.581	54.17
