Data from BU26843_Reflection_00003.txt Node
Date: Mon Nov 18 16:30:57 EST 2019
User: vgr7
Spectrometer: USB2G7710
Scans to average: 3
Trigger mode: 4
Integration Time (sec): 2.000000E-2
Electric dark correction enabled: true
Boxcar width: 10
XAxis mode: Wavelengths
Number of Pixels in Spectrum: 2048
>>>>>Begin Spectral Data<<<<<
177.721	30.52
178.105	345.61
178.488	-15.29
178.871	94.1
179.254	25.93
179.636	-209.9
180.019	16.28
180.402	-6.9
180.785	36.41
181.168	139.31
181.55	410.23
181.933	201.87
182.316	197.78
182.698	291.69
183.081	295.17
183.463	687.46
183.846	1365.7
184.228	889.64
184.611	702.67
184.993	-765.9
185.376	-405.59
185.758	-360.66
186.14	-309.49
186.522	-342.87
186.904	-283.21
187.287	-542.09
187.669	-173.03
188.051	-289.82
188.433	-118.4
188.815	-77.23
189.197	-80.94
189.579	-38.2
189.961	-40.35
190.342	-31.67
190.724	-26.23
191.106	-37.33
191.488	-53
191.869	-39.76
192.251	-49.91
192.633	-46.64
193.014	-46.58
193.396	-69.94
193.777	-67.57
194.159	-65.95
194.54	-62.8
194.922	-108.18
195.303	-117.27
195.684	-129.5
196.065	-110.05
196.447	-130.8
196.828	-157.96
197.209	-136.61
197.59	-190.26
197.971	-161.08
198.352	-151.07
198.733	-183.4
199.114	-178
199.495	-131.96
199.876	-149.41
200.257	-123.08
200.638	-100.42
201.018	-104.07
201.399	-109.09
201.78	-72.19
202.16	-93.75
202.541	-114.04
202.922	-81.27
203.302	-94.27
203.683	-72.98
204.063	-83.74
204.444	-101.99
204.824	-102.7
205.204	-109.25
205.585	-80.79
205.965	-119.61
206.345	-134.68
206.725	-261.03
207.106	-346.13
207.486	-370.01
207.866	-253.29
208.246	-174.3
208.626	-187.24
209.006	-138.72
209.386	-131.92
209.766	-159.72
210.145	-127.98
210.525	-103.22
210.905	-71.98
211.285	-63.74
211.664	-46.8
212.044	-44.03
212.424	-38.13
212.803	-32.43
213.183	-26.21
213.562	-26.52
213.942	-18.54
214.321	-20.13
214.701	-7.25
215.08	-2.62
215.459	3.75
215.838	1.51
216.218	-1.73
216.597	3.63
216.976	3.93
217.355	9.45
217.734	6.96
218.113	14.03
218.492	15.64
218.871	2.72
219.25	16.37
219.629	7.72
220.008	6.44
220.387	5.93
220.766	3.66
221.144	-9.5
221.523	-20.1
221.902	-19.03
222.28	-26.79
222.659	-29.73
223.037	-28.68
223.416	-31.29
223.794	-25.88
224.173	-32.11
224.551	-20.71
224.929	-26.83
225.308	-30.71
225.686	-31.48
226.064	-30.43
226.442	-30.5
226.821	-25.4
227.199	-22.11
227.577	-22.88
227.955	-25.44
228.333	-24.38
228.711	-19.92
229.089	-11.3
229.467	-9.75
229.845	-9.81
230.222	-7.51
230.6	-8.16
230.978	-6.71
231.356	-4.74
231.733	-6.08
232.111	-5.5
232.488	-5.94
232.866	-3.58
233.243	-1.45
233.621	1.09
233.998	2.51
234.376	1.61
234.753	2.6
235.13	2.21
235.508	2.93
235.885	4.52
236.262	4.94
236.639	4.09
237.016	3.32
237.393	4.14
237.77	5.3
238.147	5.63
238.524	5.84
238.901	6.2
239.278	6.86
239.655	7.52
240.032	7.44
240.409	7.19
240.785	7.25
241.162	6.56
241.539	5.72
241.915	5.31
242.292	5.48
242.668	5.44
243.045	5.21
243.421	4.65
243.798	4.61
244.174	4.49
244.551	4.34
244.927	3.92
245.303	3.81
245.679	3.46
246.056	2.96
246.432	3.01
246.808	2.85
247.184	2.31
247.56	2.13
247.936	2.29
248.312	2.22
248.688	2.09
249.064	2.26
249.44	2.53
249.815	2.5
250.191	2.66
250.567	2.41
250.943	2.3
251.318	2.4
251.694	2.31
252.069	2.17
252.445	2.23
252.82	2.38
253.196	2.23
253.571	2.11
253.947	2.36
254.322	2.42
254.697	2.45
255.073	2.39
255.448	2.41
255.823	2.17
256.198	2.4
256.573	2.5
256.948	2.57
257.323	2.62
257.698	2.82
258.073	2.5
258.448	2.62
258.823	2.64
259.198	2.67
259.573	2.67
259.948	2.72
260.322	2.66
260.697	2.6
261.072	2.54
261.446	2.7
261.821	2.64
262.195	2.72
262.57	2.71
262.944	2.91
263.319	2.81
263.693	2.68
264.067	2.69
264.442	2.66
264.816	2.32
265.19	2.26
265.564	2.03
265.938	2.12
266.313	2
266.687	1.84
267.061	2.05
267.435	2.09
267.809	2.09
268.183	2.2
268.556	2.26
268.93	2.32
269.304	2.21
269.678	2.38
270.051	2.43
270.425	2.35
270.799	2.22
271.172	2.43
271.546	2.44
271.919	2.26
272.293	2.1
272.666	2.4
273.04	2.48
273.413	2.48
273.787	2.53
274.16	2.53
274.533	2.78
274.906	2.66
275.279	2.55
275.653	2.55
276.026	2.6
276.399	2.46
276.772	2.53
277.145	2.45
277.518	2.46
277.891	2.33
278.263	2.45
278.636	2.48
279.009	2.33
279.382	2.54
279.755	2.79
280.127	3.14
280.5	3.09
280.872	3.02
281.245	3
281.617	3.09
281.99	3.27
282.362	3.27
282.735	3.19
283.107	3.27
283.479	3.31
283.852	3.2
284.224	3.35
284.596	3.36
284.968	3.49
285.34	3.5
285.713	3.62
286.085	3.67
286.457	3.7
286.829	3.62
287.201	3.59
287.572	3.55
287.944	3.37
288.316	3.39
288.688	3.31
289.06	3.29
289.431	3.27
289.803	3.31
290.175	3.27
290.546	3.48
290.918	3.47
291.289	3.38
291.661	3.49
292.032	3.58
292.403	3.61
292.775	3.65
293.146	3.56
293.517	3.44
293.889	3.41
294.26	3.54
294.631	3.66
295.002	3.55
295.373	3.51
295.744	3.62
296.115	3.58
296.486	3.55
296.857	3.56
297.228	3.54
297.599	3.42
297.97	3.45
298.34	3.34
298.711	3.39
299.082	3.41
299.452	3.38
299.823	3.23
300.194	3.28
300.564	3.24
300.935	3.33
301.305	3.26
301.676	3.26
302.046	3.17
302.416	3.35
302.787	3.44
303.157	3.41
303.527	3.35
303.897	3.34
304.267	3.5
304.637	3.48
305.008	3.46
305.378	3.57
305.748	3.67
306.117	3.63
306.487	3.56
306.857	3.7
307.227	3.57
307.597	3.63
307.967	3.5
308.336	3.44
308.706	3.43
309.076	3.51
309.445	3.39
309.815	3.36
310.184	3.13
310.554	3.11
310.923	3.14
311.293	3.04
311.662	3.08
312.031	2.98
312.401	3.14
312.77	3.28
313.139	3.31
313.508	3.11
313.877	3.2
314.246	3.22
314.616	3.12
314.985	3.2
315.353	3.19
315.722	3.27
316.091	3.2
316.46	3.2
316.829	3.19
317.198	3.36
317.567	3.43
317.935	3.42
318.304	3.54
318.672	3.43
319.041	3.63
319.41	3.64
319.778	3.78
320.147	3.57
320.515	3.49
320.883	3.43
321.252	3.56
321.62	3.5
321.988	3.54
322.357	3.59
322.725	3.52
323.093	3.54
323.461	3.49
323.829	3.65
324.197	3.64
324.565	3.58
324.933	3.59
325.301	3.58
325.669	3.63
326.037	3.48
326.405	3.65
326.772	3.67
327.14	3.7
327.508	3.61
327.875	3.51
328.243	3.53
328.61	3.42
328.978	3.46
329.346	3.53
329.713	3.39
330.08	3.39
330.448	3.42
330.815	3.3
331.182	3.35
331.55	3.32
331.917	3.3
332.284	3.41
332.651	3.4
333.018	3.4
333.385	3.43
333.752	3.53
334.119	3.39
334.486	3.27
334.853	3.27
335.22	3.27
335.587	3.45
335.954	3.44
336.32	3.48
336.687	3.45
337.054	3.41
337.42	3.54
337.787	3.56
338.153	3.63
338.52	3.8
338.886	3.68
339.253	3.71
339.619	3.7
339.986	3.56
340.352	3.61
340.718	3.54
341.084	3.47
341.451	3.4
341.817	3.47
342.183	3.55
342.549	3.4
342.915	3.5
343.281	3.53
343.647	3.48
344.013	3.54
344.379	3.43
344.745	3.37
345.11	3.3
345.476	3.22
345.842	3.15
346.208	3.12
346.573	3.18
346.939	3.18
347.304	3.17
347.67	3.21
348.035	3.02
348.401	3.11
348.766	3.13
349.132	3.21
349.497	3.09
349.862	3.06
350.228	3.17
350.593	2.99
350.958	2.85
351.323	2.86
351.688	2.79
352.053	2.91
352.418	2.97
352.783	3.01
353.148	3.04
353.513	3.1
353.878	3.12
354.243	3.16
354.608	3.15
354.972	3.17
355.337	3.29
355.702	3.43
356.066	3.42
356.431	3.37
356.795	3.38
357.16	3.47
357.524	3.41
357.889	3.4
358.253	3.47
358.618	3.62
358.982	3.58
359.346	3.57
359.71	3.54
360.075	3.52
360.439	3.56
360.803	3.55
361.167	3.45
361.531	3.38
361.895	3.37
362.259	3.39
362.623	3.37
362.987	3.3
363.351	3.24
363.714	3.24
364.078	3.28
364.442	3.23
364.806	3.18
365.169	3.22
365.533	3.23
365.896	3.25
366.26	3.18
366.623	3.18
366.987	3.2
367.35	3.17
367.714	3.15
368.077	3.05
368.44	3.1
368.803	3.14
369.167	3.16
369.53	3.17
369.893	3.15
370.256	3.14
370.619	3.15
370.982	3.17
371.345	3.1
371.708	3.1
372.071	3.09
372.434	3.1
372.797	3.14
373.159	3.14
373.522	3.16
373.885	3.13
374.247	3.15
374.61	3.23
374.973	3.2
375.335	3.21
375.698	3.22
376.06	3.16
376.423	3.22
376.785	3.3
377.147	3.29
377.51	3.29
377.872	3.35
378.234	3.36
378.596	3.37
378.958	3.41
379.321	3.38
379.683	3.43
380.045	3.48
380.407	3.46
380.769	3.45
381.13	3.42
381.492	3.43
381.854	3.43
382.216	3.37
382.578	3.41
382.939	3.4
383.301	3.41
383.663	3.4
384.024	3.37
384.386	3.31
384.747	3.31
385.109	3.28
385.47	3.21
385.832	3.22
386.193	3.21
386.554	3.18
386.916	3.22
387.277	3.23
387.638	3.2
387.999	3.16
388.36	3.17
388.721	3.19
389.082	3.2
389.443	3.2
389.804	3.19
390.165	3.17
390.526	3.19
390.887	3.18
391.248	3.21
391.609	3.22
391.969	3.23
392.33	3.23
392.691	3.27
393.051	3.3
393.412	3.29
393.772	3.28
394.133	3.31
394.493	3.27
394.854	3.27
395.214	3.31
395.574	3.33
395.935	3.31
396.295	3.34
396.655	3.32
397.015	3.33
397.376	3.39
397.736	3.4
398.096	3.4
398.456	3.41
398.816	3.41
399.176	3.42
399.535	3.41
399.895	3.39
400.255	3.41
400.615	3.41
400.975	3.42
401.334	3.43
401.694	3.42
402.054	3.44
402.413	3.41
402.773	3.35
403.132	3.35
403.492	3.35
403.851	3.32
404.211	3.33
404.57	3.31
404.929	3.29
405.288	3.29
405.648	3.29
406.007	3.31
406.366	3.33
406.725	3.35
407.084	3.37
407.443	3.38
407.802	3.37
408.161	3.37
408.52	3.35
408.879	3.35
409.238	3.37
409.596	3.38
409.955	3.4
410.314	3.46
410.673	3.47
411.031	3.47
411.39	3.48
411.748	3.5
412.107	3.52
412.465	3.47
412.824	3.45
413.182	3.45
413.54	3.45
413.899	3.45
414.257	3.44
414.615	3.44
414.974	3.44
415.332	3.41
415.69	3.41
416.048	3.4
416.406	3.4
416.764	3.41
417.122	3.42
417.48	3.39
417.838	3.38
418.195	3.37
418.553	3.38
418.911	3.38
419.269	3.39
419.626	3.39
419.984	3.4
420.342	3.41
420.699	3.42
421.057	3.41
421.414	3.41
421.772	3.41
422.129	3.41
422.486	3.41
422.844	3.42
423.201	3.43
423.558	3.43
423.915	3.44
424.273	3.43
424.63	3.42
424.987	3.44
425.344	3.44
425.701	3.45
426.058	3.45
426.415	3.46
426.772	3.44
427.128	3.41
427.485	3.42
427.842	3.42
428.199	3.41
428.555	3.41
428.912	3.42
429.269	3.41
429.625	3.38
429.982	3.4
430.338	3.4
430.695	3.39
431.051	3.37
431.407	3.38
431.764	3.38
432.12	3.38
432.476	3.38
432.832	3.36
433.189	3.39
433.545	3.38
433.901	3.38
434.257	3.38
434.613	3.4
434.969	3.4
435.325	3.39
435.681	3.4
436.036	3.42
436.392	3.42
436.748	3.42
437.104	3.44
437.459	3.43
437.815	3.43
438.171	3.43
438.526	3.45
438.882	3.45
439.237	3.45
439.593	3.44
439.948	3.45
440.304	3.46
440.659	3.45
441.014	3.47
441.369	3.46
441.725	3.46
442.08	3.46
442.435	3.47
442.79	3.47
443.145	3.48
443.5	3.48
443.855	3.48
444.21	3.48
444.565	3.49
444.92	3.51
445.275	3.49
445.629	3.48
445.984	3.48
446.339	3.47
446.693	3.47
447.048	3.48
447.403	3.47
447.757	3.46
448.112	3.45
448.466	3.45
448.82	3.46
449.175	3.47
449.529	3.48
449.883	3.47
450.238	3.46
450.592	3.47
450.946	3.45
451.3	3.45
451.654	3.46
452.008	3.45
452.362	3.42
452.716	3.43
453.07	3.45
453.424	3.46
453.778	3.46
454.132	3.46
454.486	3.46
454.839	3.46
455.193	3.45
455.547	3.46
455.9	3.44
456.254	3.44
456.607	3.42
456.961	3.4
457.314	3.4
457.668	3.4
458.021	3.39
458.375	3.4
458.728	3.39
459.081	3.4
459.434	3.38
459.787	3.39
460.141	3.4
460.494	3.4
460.847	3.41
461.2	3.42
461.553	3.42
461.906	3.42
462.259	3.43
462.611	3.42
462.964	3.44
463.317	3.44
463.67	3.44
464.022	3.44
464.375	3.44
464.728	3.44
465.08	3.44
465.433	3.45
465.785	3.44
466.138	3.44
466.49	3.43
466.843	3.46
467.195	3.47
467.547	3.5
467.899	3.49
468.252	3.47
468.604	3.48
468.956	3.48
469.308	3.49
469.66	3.49
470.012	3.51
470.364	3.51
470.716	3.5
471.068	3.52
471.42	3.54
471.772	3.58
472.123	3.62
472.475	3.62
472.827	3.63
473.178	3.65
473.53	3.67
473.882	3.68
474.233	3.68
474.585	3.68
474.936	3.65
475.288	3.66
475.639	3.67
475.99	3.66
476.342	3.67
476.693	3.65
477.044	3.66
477.395	3.65
477.746	3.64
478.097	3.63
478.448	3.63
478.8	3.63
479.15	3.61
479.501	3.58
479.852	3.57
480.203	3.58
480.554	3.58
480.905	3.58
481.255	3.59
481.606	3.59
481.957	3.6
482.307	3.6
482.658	3.59
483.009	3.59
483.359	3.59
483.709	3.59
484.06	3.59
484.41	3.59
484.761	3.59
485.111	3.6
485.461	3.61
485.811	3.61
486.162	3.61
486.512	3.61
486.862	3.62
487.212	3.62
487.562	3.62
487.912	3.62
488.262	3.61
488.612	3.6
488.961	3.59
489.311	3.59
489.661	3.61
490.011	3.62
490.36	3.61
490.71	3.62
491.06	3.62
491.409	3.63
491.759	3.61
492.108	3.63
492.458	3.61
492.807	3.62
493.157	3.6
493.506	3.61
493.855	3.61
494.204	3.62
494.554	3.62
494.903	3.62
495.252	3.63
495.601	3.66
495.95	3.68
496.299	3.68
496.648	3.67
496.997	3.67
497.346	3.67
497.695	3.68
498.043	3.68
498.392	3.69
498.741	3.7
499.09	3.69
499.438	3.71
499.787	3.72
500.135	3.72
500.484	3.75
500.832	3.75
501.181	3.75
501.529	3.74
501.878	3.75
502.226	3.75
502.574	3.75
502.923	3.73
503.271	3.73
503.619	3.74
503.967	3.77
504.315	3.75
504.663	3.76
505.011	3.78
505.359	3.77
505.707	3.77
506.055	3.78
506.403	3.81
506.751	3.78
507.098	3.79
507.446	3.81
507.794	3.8
508.141	3.82
508.489	3.83
508.837	3.86
509.184	3.87
509.531	3.89
509.879	3.9
510.226	3.93
510.574	3.95
510.921	3.95
511.268	3.95
511.616	3.97
511.963	3.98
512.31	3.99
512.657	4
513.004	4.01
513.351	4.03
513.698	4.04
514.045	4.06
514.392	4.08
514.739	4.07
515.086	4.09
515.432	4.08
515.779	4.06
516.126	4.07
516.473	4.08
516.819	4.1
517.166	4.11
517.512	4.09
517.859	4.09
518.205	4.1
518.552	4.11
518.898	4.11
519.245	4.1
519.591	4.1
519.937	4.08
520.283	4.08
520.629	4.07
520.976	4.08
521.322	4.08
521.668	4.07
522.014	4.08
522.36	4.07
522.706	4.09
523.052	4.12
523.398	4.13
523.743	4.13
524.089	4.13
524.435	4.11
524.781	4.13
525.126	4.13
525.472	4.12
525.817	4.12
526.163	4.13
526.509	4.14
526.854	4.14
527.199	4.16
527.545	4.17
527.89	4.16
528.235	4.16
528.581	4.16
528.926	4.15
529.271	4.16
529.616	4.16
529.961	4.16
530.306	4.16
530.651	4.16
530.996	4.16
531.341	4.15
531.686	4.16
532.031	4.16
532.376	4.17
532.721	4.17
533.065	4.17
533.41	4.17
533.755	4.16
534.099	4.16
534.444	4.17
534.788	4.17
535.133	4.18
535.477	4.19
535.822	4.19
536.166	4.2
536.51	4.2
536.855	4.21
537.199	4.21
537.543	4.22
537.887	4.22
538.231	4.22
538.576	4.25
538.92	4.24
539.264	4.24
539.608	4.24
539.951	4.24
540.295	4.24
540.639	4.26
540.983	4.27
541.327	4.26
541.671	4.26
542.014	4.25
542.358	4.26
542.701	4.26
543.045	4.26
543.389	4.25
543.732	4.26
544.075	4.27
544.419	4.26
544.762	4.25
545.105	4.24
545.449	4.24
545.792	4.24
546.135	4.24
546.478	4.25
546.821	4.24
547.165	4.24
547.508	4.25
547.851	4.26
548.194	4.26
548.536	4.27
548.879	4.28
549.222	4.28
549.565	4.31
549.908	4.32
550.25	4.34
550.593	4.35
550.936	4.36
551.278	4.37
551.621	4.38
551.963	4.42
552.306	4.42
552.648	4.43
552.991	4.45
553.333	4.46
553.675	4.45
554.017	4.44
554.36	4.44
554.702	4.46
555.044	4.43
555.386	4.44
555.728	4.44
556.07	4.47
556.412	4.45
556.754	4.43
557.096	4.41
557.438	4.4
557.78	4.4
558.121	4.44
558.463	4.43
558.805	4.43
559.147	4.42
559.488	4.44
559.83	4.45
560.171	4.39
560.513	4.43
560.854	4.45
561.196	4.47
561.537	4.47
561.878	4.45
562.22	4.48
562.561	4.46
562.902	4.44
563.243	4.43
563.584	4.46
563.925	4.48
564.266	4.45
564.607	4.44
564.948	4.44
565.289	4.41
565.63	4.41
565.971	4.4
566.312	4.38
566.653	4.38
566.993	4.39
567.334	4.43
567.675	4.42
568.015	4.44
568.356	4.44
568.696	4.47
569.037	4.48
569.377	4.46
569.718	4.48
570.058	4.51
570.398	4.52
570.739	4.51
571.079	4.51
571.419	4.55
571.759	4.57
572.099	4.55
572.439	4.56
572.779	4.57
573.119	4.59
573.459	4.61
573.799	4.64
574.139	4.61
574.479	4.6
574.819	4.59
575.158	4.58
575.498	4.57
575.838	4.57
576.177	4.57
576.517	4.58
576.856	4.6
577.196	4.57
577.535	4.59
577.875	4.62
578.214	4.62
578.553	4.62
578.893	4.6
579.232	4.62
579.571	4.61
579.91	4.55
580.25	4.58
580.589	4.59
580.928	4.56
581.267	4.61
581.606	4.64
581.945	4.62
582.283	4.62
582.622	4.6
582.961	4.59
583.3	4.61
583.639	4.62
583.977	4.63
584.316	4.62
584.654	4.59
584.993	4.56
585.332	4.56
585.67	4.57
586.008	4.59
586.347	4.57
586.685	4.59
587.024	4.64
587.362	4.61
587.7	4.59
588.038	4.59
588.376	4.56
588.715	4.52
589.053	4.59
589.391	4.63
589.729	4.67
590.067	4.66
590.404	4.65
590.742	4.65
591.08	4.62
591.418	4.69
591.756	4.7
592.093	4.72
592.431	4.71
592.769	4.7
593.106	4.7
593.444	4.71
593.781	4.7
594.119	4.72
594.456	4.74
594.793	4.78
595.131	4.74
595.468	4.76
595.805	4.79
596.143	4.75
596.48	4.74
596.817	4.74
597.154	4.74
597.491	4.71
597.828	4.7
598.165	4.7
598.502	4.64
598.839	4.63
599.176	4.6
599.512	4.63
599.849	4.65
600.186	4.66
600.523	4.7
600.859	4.76
601.196	4.77
601.532	4.77
601.869	4.73
602.205	4.75
602.542	4.79
602.878	4.78
603.215	4.79
603.551	4.79
603.887	4.81
604.223	4.82
604.56	4.87
604.896	4.87
605.232	4.91
605.568	4.92
605.904	4.91
606.24	4.94
606.576	4.92
606.912	4.92
607.248	4.91
607.583	4.86
607.919	4.84
608.255	4.8
608.591	4.81
608.926	4.83
609.262	4.84
609.597	4.84
609.933	4.87
610.268	4.82
610.604	4.82
610.939	4.81
611.275	4.84
611.61	4.85
611.945	4.84
612.281	4.84
612.616	4.87
612.951	4.9
613.286	4.95
613.621	4.98
613.956	4.97
614.291	5.01
614.626	5.08
614.961	5.06
615.296	5.07
615.631	5.11
615.966	5.13
616.3	5.1
616.635	5.07
616.97	5.03
617.304	5.03
617.639	5.03
617.973	5.01
618.308	4.97
618.642	4.91
618.977	4.9
619.311	4.91
619.646	4.88
619.98	4.91
620.314	4.88
620.648	4.84
620.983	4.89
621.317	4.9
621.651	4.84
621.985	4.83
622.319	4.83
622.653	4.81
622.987	4.84
623.321	4.88
623.655	4.91
623.988	4.98
624.322	5.02
624.656	5.05
624.99	5.09
625.323	5.13
625.657	5.16
625.99	5.2
626.324	5.18
626.657	5.18
626.991	5.15
627.324	5.15
627.658	5.18
627.991	5.18
628.324	5.2
628.657	5.23
628.991	5.27
629.324	5.3
629.657	5.32
629.99	5.34
630.323	5.31
630.656	5.32
630.989	5.32
631.322	5.33
631.655	5.32
631.987	5.36
632.32	5.34
632.653	5.35
632.986	5.3
633.318	5.32
633.651	5.37
633.984	5.38
634.316	5.34
634.649	5.32
634.981	5.28
635.313	5.22
635.646	5.28
635.978	5.26
636.31	5.28
636.643	5.24
636.975	5.23
637.307	5.26
637.639	5.29
637.971	5.27
638.303	5.3
638.635	5.29
638.967	5.23
639.299	5.28
639.631	5.3
639.963	5.29
640.295	5.25
640.626	5.19
640.958	5.25
641.29	5.25
641.621	5.27
641.953	5.27
642.285	5.3
642.616	5.29
642.948	5.31
643.279	5.27
643.61	5.27
643.942	5.23
644.273	5.3
644.604	5.26
644.936	5.2
645.267	5.22
645.598	5.21
645.929	5.18
646.26	5.2
646.591	5.23
646.922	5.26
647.253	5.3
647.584	5.29
647.915	5.25
648.245	5.28
648.576	5.25
648.907	5.32
649.238	5.33
649.568	5.27
649.899	5.28
650.229	5.31
650.56	5.32
650.89	5.31
651.221	5.27
651.551	5.22
651.882	5.3
652.212	5.28
652.542	5.29
652.872	5.33
653.203	5.28
653.533	5.33
653.863	5.38
654.193	5.33
654.523	5.36
654.853	5.35
655.183	5.33
655.513	5.35
655.843	5.33
656.172	5.37
656.502	5.39
656.832	5.38
657.162	5.42
657.491	5.45
657.821	5.44
658.15	5.45
658.48	5.51
658.809	5.48
659.139	5.42
659.468	5.41
659.798	5.39
660.127	5.46
660.456	5.42
660.785	5.41
661.115	5.49
661.444	5.53
661.773	5.59
662.102	5.67
662.431	5.72
662.76	5.74
663.089	5.7
663.418	5.72
663.747	5.71
664.076	5.65
664.404	5.69
664.733	5.77
665.062	5.78
665.39	5.79
665.719	5.81
666.048	5.88
666.376	5.89
666.705	5.93
667.033	5.89
667.362	5.85
667.69	5.75
668.018	5.75
668.347	5.71
668.675	5.66
669.003	5.66
669.331	5.67
669.659	5.64
669.987	5.61
670.315	5.6
670.643	5.65
670.971	5.64
671.299	5.59
671.627	5.69
671.955	5.69
672.283	5.71
672.61	5.73
672.938	5.67
673.266	5.71
673.593	5.78
673.921	5.79
674.249	5.77
674.576	5.82
674.904	5.86
675.231	5.77
675.558	5.78
675.886	5.76
676.213	5.73
676.54	5.79
676.867	5.84
677.195	5.8
677.522	5.74
677.849	5.8
678.176	5.86
678.503	5.74
678.83	5.79
679.157	5.7
679.484	5.67
679.81	5.74
680.137	5.72
680.464	5.68
680.791	5.65
681.117	5.68
681.444	5.71
681.771	5.72
682.097	5.76
682.424	5.8
682.75	5.82
683.077	5.84
683.403	5.82
683.729	5.88
684.056	5.98
684.382	6.05
684.708	6
685.034	5.9
685.36	5.94
685.686	5.82
686.012	5.85
686.339	5.94
686.664	5.91
686.99	5.95
687.316	5.93
687.642	6
687.968	5.93
688.294	5.96
688.619	6
688.945	6.08
689.271	6.12
689.596	6.13
689.922	6.13
690.247	6.14
690.573	6.06
690.898	6.08
691.224	6.15
691.549	6.26
691.874	6.35
692.2	6.33
692.525	6.34
692.85	6.4
693.175	6.4
693.5	6.38
693.825	6.36
694.15	6.35
694.475	6.32
694.8	6.36
695.125	6.3
695.45	6.26
695.775	6.19
696.099	6.1
696.424	6.18
696.749	6.12
697.073	6.12
697.398	6.19
697.723	6.19
698.047	6.11
698.372	6.05
698.696	6.05
699.02	6.15
699.345	6.19
699.669	6.24
699.993	6.15
700.318	6.2
700.642	6.22
700.966	6.23
701.29	6.32
701.614	6.36
701.938	6.46
702.262	6.44
702.586	6.52
702.91	6.53
703.234	6.4
703.557	6.48
703.881	6.37
704.205	6.36
704.529	6.23
704.852	6.26
705.176	6.3
705.499	6.3
705.823	6.19
706.146	6.23
706.47	6.12
706.793	6.18
707.117	6.13
707.44	6.11
707.763	6.21
708.086	6.09
708.409	6.05
708.733	6.01
709.056	5.98
709.379	6.04
709.702	6.13
710.025	6.22
710.348	6.24
710.671	6.3
710.993	6.38
711.316	6.38
711.639	6.3
711.962	6.38
712.284	6.52
712.607	6.53
712.93	6.53
713.252	6.57
713.575	6.58
713.897	6.61
714.22	6.54
714.542	6.51
714.864	6.59
715.187	6.59
715.509	6.48
715.831	6.58
716.153	6.55
716.475	6.62
716.798	6.68
717.12	6.63
717.442	6.78
717.764	6.63
718.085	6.69
718.407	6.83
718.729	6.82
719.051	6.69
719.373	6.65
719.695	6.6
720.016	6.72
720.338	6.77
720.659	6.8
720.981	6.93
721.302	6.97
721.624	6.94
721.945	6.93
722.267	7.2
722.588	7.22
722.909	7.2
723.231	6.95
723.552	6.68
723.873	6.73
724.194	6.58
724.515	6.68
724.836	6.59
725.157	6.67
725.478	6.59
725.799	6.65
726.12	6.71
726.441	6.86
726.762	6.86
727.083	6.75
727.403	6.75
727.724	6.86
728.045	6.84
728.365	6.74
728.686	6.81
729.006	6.82
729.327	6.89
729.647	6.95
729.967	6.98
730.288	7.19
730.608	7.12
730.928	7.22
731.249	7.15
731.569	7.44
731.889	7.43
732.209	7.31
732.529	7.21
732.849	7.25
733.169	7.19
733.489	7.08
733.809	7.04
734.129	7.14
734.448	6.99
734.768	7.05
735.088	7.29
735.408	7.19
735.727	7.1
736.047	7.02
736.366	6.75
736.686	6.91
737.005	6.87
737.325	6.99
737.644	6.85
737.963	6.99
738.283	6.73
738.602	6.68
738.921	6.82
739.24	6.79
739.56	6.68
739.879	6.8
740.198	6.91
740.517	6.99
740.836	6.95
741.155	6.97
741.473	6.81
741.792	6.6
742.111	6.89
742.43	6.9
742.748	6.67
743.067	7.07
743.386	7.07
743.704	6.96
744.023	6.95
744.341	7.08
744.66	7.08
744.978	7.11
745.297	7.22
745.615	7.46
745.933	7.49
746.252	7.67
746.57	7.59
746.888	7.4
747.206	7.33
747.524	7.22
747.842	7.29
748.16	7.47
748.478	7.49
748.796	7.53
749.114	7.79
749.432	7.86
749.749	7.92
750.067	7.74
750.385	7.89
750.703	7.84
751.02	7.72
751.338	7.51
751.655	7.59
751.973	7.48
752.29	7.22
752.608	7.53
752.925	7.46
753.242	7.34
753.56	7.32
753.877	7.59
754.194	7.68
754.511	7.77
754.828	7.65
755.145	7.74
755.462	7.54
755.779	7.29
756.096	7.63
756.413	7.5
756.73	7.52
757.047	7.57
757.364	7.57
757.68	7.7
757.997	7.96
758.314	8.02
758.63	8.06
758.947	8.14
759.264	8.03
759.58	8.14
759.896	8.27
760.213	8.46
760.529	8.5
760.846	8.38
761.162	8.12
761.478	8.31
761.794	8.14
762.11	8.14
762.426	8.23
762.743	8.07
763.059	8.03
763.375	8.34
763.69	8.35
764.006	8.48
764.322	8.54
764.638	8.62
764.954	8.72
765.27	8.57
765.585	8.57
765.901	8.42
766.216	8.32
766.532	8.34
766.848	8.21
767.163	8.14
767.478	8.1
767.794	8.24
768.109	8.12
768.424	8.25
768.74	8.46
769.055	8.44
769.37	8.47
769.685	8.43
770	8.46
770.315	8.65
770.63	8.42
770.945	8.39
771.26	8.12
771.575	7.74
771.89	8.06
772.205	7.95
772.52	8.09
772.834	8.38
773.149	8.43
773.464	8.41
773.778	8.63
774.093	8.82
774.407	8.7
774.722	8.63
775.036	8.75
775.351	8.54
775.665	8.21
775.979	8.09
776.293	8.3
776.608	7.72
776.922	7.6
777.236	7.63
777.55	7.41
777.864	7.56
778.178	7.87
778.492	7.44
778.806	7.49
779.12	7.31
779.434	6.89
779.747	6.9
780.061	7.14
780.375	6.63
780.689	6.69
781.002	6.83
781.316	6.89
781.629	7.02
781.943	7.1
782.256	7.26
782.57	7.47
782.883	7.31
783.196	7.62
783.51	7.59
783.823	7.62
784.136	7.88
784.449	7.98
784.762	7.88
785.075	8.11
785.388	8.02
785.701	8.24
786.014	8.42
786.327	8.18
786.64	8.6
786.953	8.86
787.266	8.55
787.578	8.6
787.891	8.39
788.204	8.2
788.516	7.87
788.829	8.6
789.141	8.92
789.454	8.72
789.766	8.86
790.079	8.94
790.391	8.9
790.703	9
791.016	8.84
791.328	8.97
791.64	9.24
791.952	9.49
792.264	9.46
792.576	9.48
792.888	9.91
793.2	9.58
793.512	9.68
793.824	10.05
794.136	9.96
794.448	10.44
794.76	10.24
795.071	10.61
795.383	9.62
795.695	9.35
796.006	9.6
796.318	9.5
796.629	9.74
796.941	10.15
797.252	10.08
797.564	10.26
797.875	10.03
798.186	9.82
798.497	9.87
798.809	10.02
799.12	9.87
799.431	9.37
799.742	9.38
800.053	9.55
800.364	9.8
800.675	9.74
800.986	9.43
801.297	9.56
801.608	9.17
801.918	9.58
802.229	9.35
802.54	9.22
802.851	9.25
803.161	9.28
803.472	8.71
803.782	8.98
804.093	8.64
804.403	8.72
804.714	8.57
805.024	8.36
805.334	8.6
805.645	8.77
805.955	9.56
806.265	9.5
806.575	8.82
806.885	8.5
807.195	8.91
807.505	9.28
807.815	9.75
808.125	10.24
808.435	10.45
808.745	10.41
809.055	11.1
809.365	10.7
809.674	10.2
809.984	10.77
810.294	10.48
810.603	10.71
810.913	11.23
811.222	11.37
811.532	11.67
811.841	10.87
812.151	10.85
812.46	10.39
812.769	10.26
813.079	11.05
813.388	10.57
813.697	10.12
814.006	10.08
814.315	9.63
814.624	9
814.933	9
815.242	9.07
815.551	8.74
815.86	9.33
816.169	9.31
816.478	8.58
816.786	8.66
817.095	9.03
817.404	9.04
817.712	9.42
818.021	9.69
818.33	10.11
818.638	10.34
818.947	10.37
819.255	10.88
819.563	11.07
819.872	11.29
820.18	11.81
820.488	11.87
820.796	12.04
821.105	11.95
821.413	11.89
821.721	12.12
822.029	12.12
822.337	12.14
822.645	12.19
822.953	12.22
823.26	12.2
823.568	12.17
823.876	12.14
824.184	12.05
824.491	11.98
824.799	11.99
825.107	12.14
825.414	12.16
825.722	12.13
826.029	12.09
826.337	12.16
826.644	12.05
826.951	11.96
827.259	11.85
827.566	11.82
827.873	11.77
828.18	11.62
828.488	11.52
828.795	11.37
829.102	11.44
829.409	11.6
829.716	11.53
830.023	11.35
830.329	11.2
830.636	11.55
830.943	11.78
831.25	11.97
831.557	11.72
831.863	11.63
832.17	11.43
832.476	11.62
832.783	11.87
833.089	11.85
833.396	12.04
833.702	12.08
834.009	12.54
834.315	12.64
834.621	12.78
834.928	12.9
835.234	13.51
835.54	13.16
835.846	12.96
836.152	13.4
836.458	13.46
836.764	13.64
837.07	13.17
837.376	12.42
837.682	12.05
837.988	11.98
838.293	12.18
838.599	12.53
838.905	12.1
839.211	11.9
839.516	11.85
839.822	11.15
840.127	11.54
840.433	11.97
840.738	12.46
841.044	11.83
841.349	11.78
841.654	10.91
841.959	11.28
842.265	12.06
842.57	11.5
842.875	12.59
843.18	11.75
843.485	11.42
843.79	11.56
844.095	12.18
844.4	12.43
844.705	11.59
845.01	10.53
845.315	10.38
845.619	10.94
845.924	10.68
846.229	11.77
846.533	11.26
846.838	9.88
847.142	8.43
847.447	8.25
847.751	8.73
848.056	8.55
848.36	9.11
848.664	8.54
848.969	9.05
849.273	6.6
849.577	7.15
849.881	7.78
850.185	10.09
850.489	10.18
850.794	8.92
851.097	9.72
851.401	11.09
851.705	9.03
852.009	8.11
852.313	8.22
852.617	8.09
852.92	8.99
853.224	8.6
853.528	9.98
853.831	10.77
854.135	7.86
854.438	7.13
854.742	7.68
855.045	6.86
855.349	4.32
855.652	4.1
855.955	4.6
856.259	3.22
856.562	0.46
856.865	-2.1
857.168	-3.03
857.471	-1.48
857.774	-3.51
858.077	-1.97
858.38	-3.03
858.683	-2.51
858.986	-1.89
859.289	-2.89
859.592	-0.9
859.894	-1.4
860.197	-1.49
860.5	2.09
860.802	2.15
861.105	1.63
861.407	-0.56
861.71	0.96
862.012	1.74
862.315	2.08
862.617	2.69
862.919	4.88
863.222	7.12
863.524	7.73
863.826	8.2
864.128	11.91
864.43	12.15
864.732	12.63
865.034	11.36
865.336	9.31
865.638	10.86
865.94	9.43
866.242	9.69
866.544	11.22
866.846	10.49
867.147	10.73
867.449	10.97
867.751	13.72
868.052	15.63
868.354	15.97
868.655	17.86
868.957	16.84
869.258	15.29
869.56	14.43
869.861	15.18
870.162	13.69
870.463	11.2
870.765	12.78
871.066	12.53
871.367	13.62
871.668	15.4
871.969	12.25
872.27	12.51
872.571	13.53
872.872	13.71
873.173	12.29
873.473	12.3
873.774	11.24
874.075	12.03
874.376	9.45
874.676	10.51
874.977	5.89
875.277	9.94
875.578	10.88
875.878	11.42
876.179	11.99
876.479	11.79
876.78	11.91
877.08	10.9
877.38	11.05
877.68	11.08
877.981	10.63
878.281	12.83
878.581	13.59
