Data from BU26847_Reflection_00003.txt Node
Date: Mon Nov 18 16:40:46 EST 2019
User: vgr7
Spectrometer: USB2G7710
Scans to average: 3
Trigger mode: 4
Integration Time (sec): 2.000000E-2
Electric dark correction enabled: true
Boxcar width: 10
XAxis mode: Wavelengths
Number of Pixels in Spectrum: 2048
>>>>>Begin Spectral Data<<<<<
177.721	1.31
178.105	-18.64
178.488	41.18
178.871	-278.38
179.254	448.84
179.636	-40.41
180.019	124.63
180.402	78.95
180.785	221.95
181.168	256.25
181.55	-718.18
181.933	81.82
182.316	28
182.698	22.6
183.081	23.36
183.463	-65.88
183.846	-38.64
184.228	-102.07
184.611	-209.09
184.993	-4900
185.376	-134.04
185.758	6433.33
186.14	-202.33
186.522	-48.94
186.904	45.05
187.287	-302.99
187.669	23.79
188.051	59.11
188.433	86.15
188.815	79.13
189.197	93.74
189.579	66.37
189.961	70.54
190.342	29.75
190.724	51.85
191.106	44.7
191.488	60.18
191.869	35.97
192.251	24.11
192.633	63.35
193.014	29.58
193.396	4.21
193.777	-18.17
194.159	-47.17
194.54	-10.85
194.922	-24.86
195.303	-17.09
195.684	-60.45
196.065	-65.4
196.447	-58.85
196.828	-99.26
197.209	-91.81
197.59	-136.53
197.971	-191.8
198.352	-72.54
198.733	-126.07
199.114	-150.62
199.495	-140.08
199.876	-89.49
200.257	-44.72
200.638	-62.04
201.018	-61.66
201.399	-71.85
201.78	-25.52
202.16	-2.97
202.541	-56.18
202.922	-614.29
203.302	-1037.93
203.683	157.32
204.063	90.54
204.444	103.56
204.824	37.73
205.204	15.56
205.585	46.06
205.965	153.06
206.345	92.29
206.725	60.82
207.106	78.92
207.486	63.22
207.866	75.88
208.246	103.22
208.626	216.56
209.006	55.93
209.386	29.23
209.766	105.52
210.145	61.75
210.525	-17.12
210.905	17.2
211.285	148.65
211.664	45.17
212.044	59.04
212.424	58.06
212.803	34.73
213.183	27.31
213.562	34.95
213.942	70.55
214.321	66.42
214.701	51.94
215.08	46.09
215.459	32.15
215.838	31.67
216.218	42.53
216.597	75.92
216.976	47.47
217.355	39.71
217.734	51.07
218.113	56.13
218.492	77.93
218.871	70.38
219.25	37
219.629	45.78
220.008	38.15
220.387	33.58
220.766	16.6
221.144	6.49
221.523	7.46
221.902	-10.72
222.28	-9.75
222.659	-3.59
223.037	2.21
223.416	-16.17
223.794	-20
224.173	-23.2
224.551	-24.52
224.929	-23.35
225.308	-16.26
225.686	-11.93
226.064	-8.41
226.442	-16.71
226.821	-12.63
227.199	-3.86
227.577	-4.66
227.955	-3.51
228.333	-6
228.711	-2.83
229.089	0.71
229.467	-0.47
229.845	-2.4
230.222	0.42
230.6	-0.77
230.978	-0.17
231.356	3.28
231.733	3.55
232.111	5.47
232.488	5.85
232.866	7.73
233.243	8.94
233.621	7.98
233.998	7.86
234.376	8.36
234.753	8.24
235.13	6.02
235.508	6.83
235.885	7.54
236.262	7.86
236.639	7.79
237.016	6.41
237.393	8.17
237.77	9.39
238.147	8.01
238.524	7.87
238.901	9.29
239.278	9.3
239.655	9.42
240.032	8.83
240.409	8.17
240.785	7.51
241.162	7.17
241.539	7.27
241.915	7.28
242.292	6.74
242.668	6.45
243.045	6.24
243.421	5.9
243.798	5.72
244.174	5.48
244.551	5.48
244.927	5.37
245.303	5.42
245.679	5.65
246.056	5.85
246.432	5.68
246.808	5.35
247.184	4.9
247.56	4.8
247.936	4.67
248.312	4.55
248.688	4.77
249.064	4.56
249.44	4.51
249.815	4.37
250.191	4.58
250.567	4.66
250.943	4.64
251.318	4.75
251.694	4.86
252.069	5.03
252.445	5.34
252.82	5.14
253.196	4.78
253.571	4.47
253.947	4.05
254.322	4.44
254.697	4.42
255.073	4.38
255.448	3.98
255.823	3.93
256.198	4.17
256.573	3.85
256.948	4.34
257.323	4.37
257.698	4.66
258.073	4.63
258.448	4.65
258.823	4.75
259.198	4.85
259.573	5.01
259.948	5
260.322	4.71
260.697	4.86
261.072	4.91
261.446	4.81
261.821	4.94
262.195	4.76
262.57	4.78
262.944	4.86
263.319	5.07
263.693	5.17
264.067	5.2
264.442	5.47
264.816	5.32
265.19	5.2
265.564	4.9
265.938	4.86
266.313	4.79
266.687	4.93
267.061	4.97
267.435	4.71
267.809	4.61
268.183	4.83
268.556	4.77
268.93	4.85
269.304	4.93
269.678	4.99
270.051	5.15
270.425	4.97
270.799	5.07
271.172	4.99
271.546	4.95
271.919	5
272.293	4.88
272.666	4.82
273.04	5.01
273.413	4.9
273.787	4.86
274.16	4.73
274.533	4.55
274.906	4.3
275.279	4.24
275.653	4.42
276.026	4.3
276.399	4.29
276.772	4.26
277.145	4.2
277.518	4.19
277.891	4.21
278.263	4.19
278.636	4.1
279.009	4.21
279.382	4.05
279.755	4.02
280.127	4.15
280.5	4.27
280.872	4.26
281.245	4.36
281.617	4.64
281.99	4.82
282.362	4.81
282.735	4.72
283.107	4.81
283.479	4.74
283.852	4.73
284.224	4.84
284.596	4.76
284.968	4.9
285.34	4.87
285.713	4.82
286.085	4.93
286.457	4.94
286.829	4.95
287.201	5.13
287.572	4.96
287.944	4.85
288.316	4.83
288.688	4.75
289.06	4.79
289.431	4.7
289.803	4.78
290.175	4.77
290.546	5.02
290.918	5.02
291.289	5.06
291.661	5.15
292.032	5.08
292.403	5.16
292.775	5.17
293.146	5.18
293.517	5.15
293.889	5.25
294.26	5.37
294.631	5.36
295.002	5.36
295.373	5.37
295.744	5.37
296.115	5.37
296.486	5.24
296.857	5.35
297.228	5.31
297.599	5.13
297.97	5.2
298.34	5.16
298.711	5.19
299.082	5.12
299.452	5.1
299.823	5.25
300.194	5.14
300.564	5.05
300.935	5.02
301.305	5.02
301.676	5.03
302.046	4.85
302.416	4.91
302.787	4.85
303.157	4.89
303.527	4.88
303.897	4.84
304.267	5
304.637	5
305.008	5.13
305.378	5.26
305.748	5.27
306.117	5.31
306.487	5.3
306.857	5.28
307.227	5.34
307.597	5.19
307.967	5.2
308.336	5.17
308.706	5.27
309.076	5.31
309.445	5.27
309.815	5.35
310.184	5.22
310.554	5.19
310.923	5.35
311.293	5.32
311.662	5.35
312.031	5.46
312.401	5.48
312.77	5.47
313.139	5.44
313.508	5.46
313.877	5.42
314.246	5.36
314.616	5.38
314.985	5.18
315.353	4.99
315.722	5.07
316.091	4.99
316.46	4.8
316.829	4.76
317.198	4.7
317.567	4.76
317.935	4.92
318.304	4.95
318.672	4.85
319.041	4.97
319.41	4.8
319.778	4.72
320.147	4.78
320.515	4.87
320.883	4.89
321.252	4.79
321.62	4.88
321.988	4.92
322.357	4.99
322.725	5
323.093	5.23
323.461	5.12
323.829	5.29
324.197	5.41
324.565	5.37
324.933	5.36
325.301	5.34
325.669	5.3
326.037	5.33
326.405	5.21
326.772	5.27
327.14	5.52
327.508	5.49
327.875	5.2
328.243	5.02
328.61	5.01
328.978	5.04
329.346	5
329.713	5.01
330.08	5.11
330.448	5.19
330.815	5.26
331.182	5.39
331.55	5.3
331.917	5.37
332.284	5.61
332.651	5.52
333.018	5.5
333.385	5.36
333.752	5.41
334.119	5.58
334.486	5.4
334.853	5.33
335.22	5.28
335.587	5.41
335.954	5.36
336.32	5.42
336.687	5.53
337.054	5.47
337.42	5.45
337.787	5.35
338.153	5.26
338.52	5.18
338.886	5.15
339.253	5.16
339.619	5.05
339.986	4.95
340.352	5.09
340.718	5.03
341.084	5
341.451	4.98
341.817	4.88
342.183	4.96
342.549	4.96
342.915	4.96
343.281	5
343.647	5.05
344.013	5.04
344.379	4.92
344.745	4.88
345.11	4.83
345.476	4.76
345.842	4.83
346.208	4.88
346.573	5
346.939	5.04
347.304	5.07
347.67	5.03
348.035	4.97
348.401	5
348.766	5.06
349.132	5.1
349.497	5.14
349.862	5.18
350.228	5.08
350.593	5.04
350.958	4.99
351.323	5.01
351.688	5.05
352.053	5.12
352.418	5.23
352.783	5.24
353.148	5.25
353.513	5.27
353.878	5.28
354.243	5.18
354.608	5.23
354.972	5.25
355.337	5.29
355.702	5.27
356.066	5.3
356.431	5.22
356.795	5.19
357.16	5.14
357.524	5.06
357.889	5.07
358.253	5.16
358.618	5.28
358.982	5.25
359.346	5.15
359.71	5.1
360.075	5.08
360.439	5.16
360.803	5.17
361.167	5.22
361.531	5.21
361.895	5.21
362.259	5.09
362.623	5.04
362.987	5.07
363.351	5.1
363.714	5.1
364.078	5.16
364.442	5.12
364.806	5.13
365.169	5.17
365.533	5.2
365.896	5.19
366.26	5.09
366.623	5.07
366.987	5.07
367.35	5.1
367.714	5.1
368.077	5.03
368.44	5.07
368.803	5.01
369.167	4.96
369.53	4.96
369.893	5.07
370.256	5.13
370.619	5.1
370.982	5.03
371.345	5.04
371.708	5.06
372.071	5.05
372.434	5.12
372.797	5.1
373.159	5.11
373.522	5.13
373.885	5.17
374.247	5.24
374.61	5.29
374.973	5.3
375.335	5.32
375.698	5.35
376.06	5.33
376.423	5.33
376.785	5.41
377.147	5.45
377.51	5.41
377.872	5.4
378.234	5.38
378.596	5.48
378.958	5.48
379.321	5.44
379.683	5.47
380.045	5.42
380.407	5.42
380.769	5.4
381.13	5.32
381.492	5.27
381.854	5.29
382.216	5.28
382.578	5.25
382.939	5.25
383.301	5.27
383.663	5.22
384.024	5.2
384.386	5.21
384.747	5.23
385.109	5.24
385.47	5.24
385.832	5.24
386.193	5.2
386.554	5.17
386.916	5.16
387.277	5.18
387.638	5.21
387.999	5.23
388.36	5.23
388.721	5.26
389.082	5.3
389.443	5.24
389.804	5.22
390.165	5.22
390.526	5.2
390.887	5.14
391.248	5.2
391.609	5.21
391.969	5.2
392.33	5.15
392.691	5.14
393.051	5.11
393.412	5.14
393.772	5.1
394.133	5.14
394.493	5.21
394.854	5.19
395.214	5.21
395.574	5.2
395.935	5.22
396.295	5.23
396.655	5.21
397.015	5.21
397.376	5.18
397.736	5.2
398.096	5.22
398.456	5.28
398.816	5.24
399.176	5.21
399.535	5.17
399.895	5.19
400.255	5.18
400.615	5.24
400.975	5.21
401.334	5.25
401.694	5.22
402.054	5.19
402.413	5.22
402.773	5.16
403.132	5.16
403.492	5.16
403.851	5.15
404.211	5.15
404.57	5.13
404.929	5.19
405.288	5.18
405.648	5.16
406.007	5.17
406.366	5.18
406.725	5.21
407.084	5.23
407.443	5.22
407.802	5.25
408.161	5.23
408.52	5.21
408.879	5.2
409.238	5.21
409.596	5.21
409.955	5.19
410.314	5.23
410.673	5.22
411.031	5.22
411.39	5.21
411.748	5.22
412.107	5.26
412.465	5.23
412.824	5.23
413.182	5.23
413.54	5.2
413.899	5.22
414.257	5.23
414.615	5.21
414.974	5.23
415.332	5.2
415.69	5.18
416.048	5.19
416.406	5.19
416.764	5.17
417.122	5.15
417.48	5.15
417.838	5.16
418.195	5.18
418.553	5.15
418.911	5.18
419.269	5.16
419.626	5.16
419.984	5.17
420.342	5.17
420.699	5.18
421.057	5.2
421.414	5.2
421.772	5.21
422.129	5.22
422.486	5.19
422.844	5.2
423.201	5.18
423.558	5.19
423.915	5.2
424.273	5.21
424.63	5.21
424.987	5.21
425.344	5.21
425.701	5.2
426.058	5.21
426.415	5.21
426.772	5.21
427.128	5.22
427.485	5.22
427.842	5.21
428.199	5.19
428.555	5.16
428.912	5.14
429.269	5.13
429.625	5.1
429.982	5.12
430.338	5.11
430.695	5.14
431.051	5.1
431.407	5.11
431.764	5.12
432.12	5.13
432.476	5.13
432.832	5.13
433.189	5.13
433.545	5.11
433.901	5.09
434.257	5.1
434.613	5.12
434.969	5.13
435.325	5.13
435.681	5.14
436.036	5.15
436.392	5.15
436.748	5.13
437.104	5.14
437.459	5.14
437.815	5.15
438.171	5.16
438.526	5.19
438.882	5.2
439.237	5.19
439.593	5.18
439.948	5.19
440.304	5.18
440.659	5.2
441.014	5.2
441.369	5.19
441.725	5.2
442.08	5.18
442.435	5.16
442.79	5.15
443.145	5.15
443.5	5.15
443.855	5.15
444.21	5.16
444.565	5.18
444.92	5.21
445.275	5.2
445.629	5.19
445.984	5.18
446.339	5.17
446.693	5.18
447.048	5.17
447.403	5.16
447.757	5.14
448.112	5.13
448.466	5.12
448.82	5.12
449.175	5.13
449.529	5.13
449.883	5.13
450.238	5.17
450.592	5.18
450.946	5.16
451.3	5.16
451.654	5.16
452.008	5.15
452.362	5.11
452.716	5.1
453.07	5.1
453.424	5.11
453.778	5.11
454.132	5.1
454.486	5.12
454.839	5.12
455.193	5.15
455.547	5.14
455.9	5.17
456.254	5.19
456.607	5.2
456.961	5.2
457.314	5.21
457.668	5.2
458.021	5.19
458.375	5.22
458.728	5.24
459.081	5.24
459.434	5.23
459.787	5.25
460.141	5.26
460.494	5.27
460.847	5.28
461.2	5.27
461.553	5.29
461.906	5.31
462.259	5.33
462.611	5.34
462.964	5.36
463.317	5.37
463.67	5.39
464.022	5.38
464.375	5.37
464.728	5.39
465.08	5.37
465.433	5.37
465.785	5.36
466.138	5.36
466.49	5.4
466.843	5.42
467.195	5.42
467.547	5.4
467.899	5.39
468.252	5.38
468.604	5.39
468.956	5.37
469.308	5.37
469.66	5.36
470.012	5.36
470.364	5.35
470.716	5.35
471.068	5.32
471.42	5.32
471.772	5.34
472.123	5.34
472.475	5.37
472.827	5.39
473.178	5.4
473.53	5.4
473.882	5.39
474.233	5.4
474.585	5.39
474.936	5.41
475.288	5.42
475.639	5.44
475.99	5.43
476.342	5.44
476.693	5.43
477.044	5.43
477.395	5.44
477.746	5.44
478.097	5.42
478.448	5.45
478.8	5.46
479.15	5.43
479.501	5.41
479.852	5.42
480.203	5.41
480.554	5.42
480.905	5.43
481.255	5.42
481.606	5.44
481.957	5.45
482.307	5.45
482.658	5.46
483.009	5.45
483.359	5.46
483.709	5.47
484.06	5.47
484.41	5.47
484.761	5.48
485.111	5.48
485.461	5.49
485.811	5.49
486.162	5.49
486.512	5.5
486.862	5.5
487.212	5.51
487.562	5.52
487.912	5.52
488.262	5.51
488.612	5.51
488.961	5.49
489.311	5.47
489.661	5.47
490.011	5.47
490.36	5.47
490.71	5.46
491.06	5.44
491.409	5.44
491.759	5.44
492.108	5.42
492.458	5.42
492.807	5.41
493.157	5.4
493.506	5.39
493.855	5.38
494.204	5.38
494.554	5.37
494.903	5.36
495.252	5.36
495.601	5.38
495.95	5.39
496.299	5.41
496.648	5.43
496.997	5.43
497.346	5.43
497.695	5.45
498.043	5.46
498.392	5.48
498.741	5.5
499.09	5.52
499.438	5.54
499.787	5.56
500.135	5.58
500.484	5.61
500.832	5.63
501.181	5.66
501.529	5.66
501.878	5.65
502.226	5.64
502.574	5.64
502.923	5.61
503.271	5.62
503.619	5.63
503.967	5.64
504.315	5.65
504.663	5.67
505.011	5.65
505.359	5.66
505.707	5.66
506.055	5.65
506.403	5.65
506.751	5.66
507.098	5.67
507.446	5.67
507.794	5.66
508.141	5.65
508.489	5.65
508.837	5.68
509.184	5.7
509.531	5.72
509.879	5.75
510.226	5.78
510.574	5.78
510.921	5.76
511.268	5.75
511.616	5.78
511.963	5.78
512.31	5.8
512.657	5.82
513.004	5.84
513.351	5.84
513.698	5.87
514.045	5.84
514.392	5.85
514.739	5.82
515.086	5.83
515.432	5.84
515.779	5.84
516.126	5.82
516.473	5.82
516.819	5.84
517.166	5.83
517.512	5.84
517.859	5.85
518.205	5.88
518.552	5.9
518.898	5.89
519.245	5.88
519.591	5.88
519.937	5.87
520.283	5.88
520.629	5.91
520.976	5.9
521.322	5.93
521.668	5.95
522.014	5.96
522.36	6
522.706	5.99
523.052	5.99
523.398	6.01
523.743	6.04
524.089	6.04
524.435	6.04
524.781	6.05
525.126	6.07
525.472	6.06
525.817	6.05
526.163	6.06
526.509	6.07
526.854	6.08
527.199	6.09
527.545	6.09
527.89	6.09
528.235	6.08
528.581	6.07
528.926	6.07
529.271	6.09
529.616	6.08
529.961	6.08
530.306	6.1
530.651	6.1
530.996	6.1
531.341	6.11
531.686	6.11
532.031	6.11
532.376	6.11
532.721	6.13
533.065	6.12
533.41	6.13
533.755	6.13
534.099	6.12
534.444	6.12
534.788	6.14
535.133	6.12
535.477	6.14
535.822	6.15
536.166	6.15
536.51	6.13
536.855	6.14
537.199	6.16
537.543	6.16
537.887	6.15
538.231	6.13
538.576	6.15
538.92	6.16
539.264	6.14
539.608	6.15
539.951	6.14
540.295	6.15
540.639	6.17
540.983	6.15
541.327	6.16
541.671	6.17
542.014	6.16
542.358	6.18
542.701	6.18
543.045	6.18
543.389	6.2
543.732	6.2
544.075	6.2
544.419	6.2
544.762	6.21
545.105	6.24
545.449	6.25
545.792	6.23
546.135	6.24
546.478	6.28
546.821	6.27
547.165	6.27
547.508	6.25
547.851	6.24
548.194	6.26
548.536	6.27
548.879	6.26
549.222	6.24
549.565	6.24
549.908	6.24
550.25	6.26
550.593	6.22
550.936	6.24
551.278	6.25
551.621	6.24
551.963	6.28
552.306	6.26
552.648	6.27
552.991	6.31
553.333	6.31
553.675	6.27
554.017	6.31
554.36	6.34
554.702	6.4
555.044	6.41
555.386	6.42
555.728	6.43
556.07	6.48
556.412	6.48
556.754	6.48
557.096	6.47
557.438	6.48
557.78	6.51
558.121	6.53
558.463	6.54
558.805	6.54
559.147	6.49
559.488	6.48
559.83	6.48
560.171	6.47
560.513	6.5
560.854	6.51
561.196	6.49
561.537	6.47
561.878	6.46
562.22	6.48
562.561	6.48
562.902	6.49
563.243	6.46
563.584	6.47
563.925	6.49
564.266	6.49
564.607	6.47
564.948	6.44
565.289	6.46
565.63	6.47
565.971	6.47
566.312	6.51
566.653	6.5
566.993	6.48
567.334	6.46
567.675	6.43
568.015	6.43
568.356	6.42
568.696	6.43
569.037	6.43
569.377	6.41
569.718	6.42
570.058	6.43
570.398	6.42
570.739	6.43
571.079	6.42
571.419	6.46
571.759	6.49
572.099	6.49
572.439	6.47
572.779	6.46
573.119	6.47
573.459	6.48
573.799	6.5
574.139	6.51
574.479	6.51
574.819	6.53
575.158	6.52
575.498	6.53
575.838	6.53
576.177	6.51
576.517	6.51
576.856	6.53
577.196	6.53
577.535	6.58
577.875	6.56
578.214	6.55
578.553	6.54
578.893	6.54
579.232	6.58
579.571	6.59
579.91	6.56
580.25	6.6
580.589	6.59
580.928	6.59
581.267	6.58
581.606	6.56
581.945	6.56
582.283	6.61
582.622	6.62
582.961	6.61
583.3	6.64
583.639	6.68
583.977	6.7
584.316	6.65
584.654	6.62
584.993	6.62
585.332	6.64
585.67	6.66
586.008	6.66
586.347	6.67
586.685	6.68
587.024	6.73
587.362	6.68
587.7	6.7
588.038	6.71
588.376	6.73
588.715	6.82
589.053	6.84
589.391	6.82
589.729	6.81
590.067	6.79
590.404	6.82
590.742	6.8
591.08	6.76
591.418	6.83
591.756	6.82
592.093	6.84
592.431	6.83
592.769	6.8
593.106	6.8
593.444	6.74
593.781	6.72
594.119	6.73
594.456	6.75
594.793	6.73
595.131	6.72
595.468	6.75
595.805	6.74
596.143	6.72
596.48	6.73
596.817	6.76
597.154	6.78
597.491	6.79
597.828	6.81
598.165	6.87
598.502	6.84
598.839	6.85
599.176	6.85
599.512	6.87
599.849	6.89
600.186	6.88
600.523	6.94
600.859	7
601.196	7.02
601.532	7.02
601.869	7.06
602.205	7.04
602.542	7.05
602.878	7.04
603.215	7.01
603.551	7.05
603.887	7.01
604.223	7.03
604.56	7.03
604.896	7.03
605.232	7.01
605.568	7.01
605.904	7
606.24	7.02
606.576	7.02
606.912	7.04
607.248	7.02
607.583	7
607.919	6.96
608.255	6.95
608.591	6.92
608.926	6.91
609.262	6.96
609.597	6.98
609.933	6.96
610.268	7
610.604	6.98
610.939	7.02
611.275	7.03
611.61	7.01
611.945	7.01
612.281	6.97
612.616	6.97
612.951	7.01
613.286	6.97
613.621	7.01
613.956	6.99
614.291	7.06
614.626	7.08
614.961	7.1
615.296	7.05
615.631	7.1
615.966	7.09
616.3	7.08
616.635	7.02
616.97	6.98
617.304	6.97
617.639	6.96
617.973	6.94
618.308	6.97
618.642	6.99
618.977	6.96
619.311	7
619.646	7.02
619.98	6.99
620.314	7.03
620.648	7.03
620.983	7.05
621.317	7.05
621.651	7.05
621.985	7.11
622.319	7.14
622.653	7.16
622.987	7.17
623.321	7.15
623.655	7.2
623.988	7.26
624.322	7.25
624.656	7.27
624.99	7.29
625.323	7.28
625.657	7.34
625.99	7.35
626.324	7.29
626.657	7.29
626.991	7.32
627.324	7.33
627.658	7.38
627.991	7.41
628.324	7.39
628.657	7.4
628.991	7.34
629.324	7.38
629.657	7.38
629.99	7.41
630.323	7.42
630.656	7.39
630.989	7.41
631.322	7.4
631.655	7.35
631.987	7.33
632.32	7.35
632.653	7.28
632.986	7.35
633.318	7.4
633.651	7.4
633.984	7.37
634.316	7.35
634.649	7.28
634.981	7.22
635.313	7.28
635.646	7.31
635.978	7.31
636.31	7.25
636.643	7.26
636.975	7.24
637.307	7.26
637.639	7.28
637.971	7.29
638.303	7.31
638.635	7.34
638.967	7.4
639.299	7.42
639.631	7.41
639.963	7.36
640.295	7.36
640.626	7.4
640.958	7.46
641.29	7.5
641.621	7.51
641.953	7.57
642.285	7.51
642.616	7.51
642.948	7.51
643.279	7.55
643.61	7.53
643.942	7.52
644.273	7.55
644.604	7.59
644.936	7.56
645.267	7.58
645.598	7.62
645.929	7.65
646.26	7.59
646.591	7.63
646.922	7.62
647.253	7.66
647.584	7.63
647.915	7.63
648.245	7.61
648.576	7.66
648.907	7.67
649.238	7.62
649.568	7.63
649.899	7.72
650.229	7.73
650.56	7.72
650.89	7.73
651.221	7.77
651.551	7.76
651.882	7.79
652.212	7.83
652.542	7.76
652.872	7.69
653.203	7.72
653.533	7.73
653.863	7.74
654.193	7.69
654.523	7.66
654.853	7.7
655.183	7.7
655.513	7.68
655.843	7.65
656.172	7.72
656.502	7.72
656.832	7.69
657.162	7.7
657.491	7.74
657.821	7.78
658.15	7.76
658.48	7.8
658.809	7.77
659.139	7.69
659.468	7.73
659.798	7.71
660.127	7.76
660.456	7.77
660.785	7.75
661.115	7.76
661.444	7.81
661.773	7.8
662.102	7.79
662.431	7.76
662.76	7.83
663.089	7.81
663.418	7.81
663.747	7.79
664.076	7.8
664.404	7.82
664.733	7.84
665.062	7.83
665.39	7.8
665.719	7.87
666.048	8.02
666.376	8.09
666.705	8.15
667.033	8.13
667.362	8.18
667.69	8.22
668.018	8.24
668.347	8.19
668.675	8.22
669.003	8.27
669.331	8.46
669.659	8.39
669.987	8.4
670.315	8.42
670.643	8.47
670.971	8.49
671.299	8.42
671.627	8.4
671.955	8.41
672.283	8.42
672.61	8.41
672.938	8.42
673.266	8.38
673.593	8.38
673.921	8.36
674.249	8.36
674.576	8.4
674.904	8.43
675.231	8.43
675.558	8.35
675.886	8.33
676.213	8.14
676.54	8.22
676.867	8.21
677.195	8.18
677.522	8.15
677.849	8.13
678.176	8.11
678.503	8.12
678.83	8.13
679.157	8.11
679.484	8.02
679.81	7.94
680.137	7.89
680.464	7.91
680.791	7.94
681.117	7.88
681.444	7.91
681.771	7.85
682.097	7.86
682.424	7.94
682.75	7.95
683.077	7.95
683.403	7.95
683.729	7.98
684.056	7.99
684.382	8.07
684.708	8.1
685.034	8.2
685.36	8.22
685.686	8.15
686.012	7.98
686.339	8.13
686.664	8.17
686.99	8.26
687.316	8.25
687.642	8.29
687.968	8.35
688.294	8.35
688.619	8.42
688.945	8.42
689.271	8.41
689.596	8.27
689.922	8.43
690.247	8.45
690.573	8.46
690.898	8.47
691.224	8.48
691.549	8.42
691.874	8.39
692.2	8.45
692.525	8.53
692.85	8.79
693.175	8.74
693.5	8.72
693.825	8.68
694.15	8.7
694.475	8.66
694.8	8.71
695.125	8.62
695.45	8.56
695.775	8.6
696.099	8.55
696.424	8.66
696.749	8.5
697.073	8.48
697.398	8.55
697.723	8.53
698.047	8.42
698.372	8.39
698.696	8.33
699.02	8.29
699.345	8.29
699.669	8.27
699.993	8.22
700.318	8.26
700.642	8.26
700.966	8.15
701.29	8.09
701.614	8.03
701.938	8.06
702.262	8.25
702.586	8.27
702.91	8.18
703.234	8.25
703.557	8.32
703.881	8.3
704.205	8.3
704.529	8.28
704.852	8.27
705.176	8.36
705.499	8.51
705.823	8.47
706.146	8.44
706.47	8.5
706.793	8.49
707.117	8.49
707.44	8.44
707.763	8.51
708.086	8.53
708.409	8.54
708.733	8.61
709.056	8.49
709.379	8.65
709.702	8.77
710.025	8.6
710.348	8.64
710.671	8.47
710.993	8.45
711.316	8.56
711.639	8.55
711.962	8.61
712.284	8.57
712.607	8.64
712.93	8.69
713.252	8.58
713.575	8.74
713.897	8.74
714.22	8.84
714.542	8.94
714.864	8.93
715.187	8.98
715.509	8.96
715.831	9.08
716.153	8.93
716.475	8.99
716.798	9.16
717.12	9.22
717.442	9.45
717.764	9.37
718.085	9.28
718.407	9.33
718.729	9.34
719.051	9.29
719.373	9.3
719.695	9.3
720.016	9.53
720.338	9.45
720.659	9.49
720.981	9.45
721.302	9.42
721.624	9.59
721.945	9.5
722.267	9.53
722.588	9.34
722.909	9.36
723.231	9.3
723.552	9.22
723.873	9.26
724.194	9
724.515	9.19
724.836	9.37
725.157	9.59
725.478	9.41
725.799	9.54
726.12	9.61
726.441	9.58
726.762	9.5
727.083	9.59
727.403	9.7
727.724	10.02
728.045	10.08
728.365	9.91
728.686	10.21
729.006	10.1
729.327	10.26
729.647	10.27
729.967	10.37
730.288	10.38
730.608	10.25
730.928	10.51
731.249	10.5
731.569	10.51
731.889	10.37
732.209	10.45
732.529	10.55
732.849	10.6
733.169	10.55
733.489	10.39
733.809	10.19
734.129	10.07
734.448	9.91
734.768	9.95
735.088	10.01
735.408	9.69
735.727	9.71
736.047	9.71
736.366	9.69
736.686	9.65
737.005	9.77
737.325	9.91
737.644	9.88
737.963	9.63
738.283	9.53
738.602	9.74
738.921	9.72
739.24	9.7
739.56	9.46
739.879	9.48
740.198	9.66
740.517	9.97
740.836	10
741.155	9.98
741.473	9.96
741.792	9.95
742.111	10.13
742.43	10.35
742.748	10.05
743.067	10.03
743.386	10.04
743.704	10.11
744.023	10.06
744.341	9.78
744.66	10.15
744.978	10
745.297	9.76
745.615	10.03
745.933	9.81
746.252	10.28
746.57	10.44
746.888	10.42
747.206	10.29
747.524	10.11
747.842	9.95
748.16	9.96
748.478	9.89
748.796	9.9
749.114	9.82
749.432	9.68
749.749	9.91
750.067	9.86
750.385	9.65
750.703	9.6
751.02	9.77
751.338	9.46
751.655	9.65
751.973	9.79
752.29	9.53
752.608	9.46
752.925	9.07
753.242	8.86
753.56	8.78
753.877	8.76
754.194	8.88
754.511	9.14
754.828	8.98
755.145	9.11
755.462	9.04
755.779	9.02
756.096	9.6
756.413	9.45
756.73	9.79
757.047	9.81
757.364	9.73
757.68	10.03
757.997	10.21
758.314	10.18
758.63	10.31
758.947	10.49
759.264	10.5
759.58	10.61
759.896	11.02
760.213	11.55
760.529	11.73
760.846	11.77
761.162	11.58
761.478	11.69
761.794	11.55
762.11	11.59
762.426	11.69
762.743	11.65
763.059	11.73
763.375	11.53
763.69	11.6
764.006	11.83
764.322	11.71
764.638	11.69
764.954	12
765.27	11.94
765.585	11.92
765.901	12.15
766.216	12.14
766.532	11.82
766.848	11.18
767.163	11.1
767.478	11.16
767.794	11.24
768.109	11.14
768.424	11.37
768.74	11.46
769.055	11.48
769.37	11.42
769.685	11.39
770	11.58
770.315	11.52
770.63	11.52
770.945	11.54
771.26	11.6
771.575	11.09
771.89	11.12
772.205	11.15
772.52	11.11
772.834	11.06
773.149	11.37
773.464	11.99
773.778	12.28
774.093	12.23
774.407	12.3
774.722	12.48
775.036	12.55
775.351	12.33
775.665	12.37
775.979	12.3
776.293	12.27
776.608	12.06
776.922	12.08
777.236	11.67
777.55	11.42
777.864	11.52
778.178	11.92
778.492	12
778.806	11.89
779.12	11.87
779.434	11.81
779.747	11.68
780.061	11.29
780.375	11.05
780.689	11.17
781.002	11.28
781.316	11.44
781.629	11.26
781.943	11.7
782.256	11.16
782.57	11.2
782.883	11.07
783.196	11.14
783.51	11.34
783.823	11.03
784.136	11.52
784.449	11.53
784.762	11.46
785.075	11.17
785.388	11.01
785.701	10.83
786.014	10.91
786.327	11.28
786.64	11.79
786.953	12.09
787.266	11.64
787.578	11.27
787.891	10.86
788.204	10.41
788.516	10.13
788.829	10.48
789.141	10.46
789.454	10.27
789.766	10.54
790.079	10.64
790.391	10.87
790.703	10.75
791.016	11.01
791.328	11.14
791.64	11.54
791.952	12.12
792.264	12
792.576	11.74
792.888	11.54
793.2	11.52
793.512	11.17
793.824	11.44
794.136	11.41
794.448	11.28
794.76	11.63
795.071	11.69
795.383	11.53
795.695	11.23
796.006	11.05
796.318	10.85
796.629	10.71
796.941	11.36
797.252	11.21
797.564	11.11
797.875	10.55
798.186	9.97
798.497	10.13
798.809	10.21
799.12	10.52
799.431	10.39
799.742	10.35
800.053	10.64
800.364	10.81
800.675	11.11
800.986	11.59
801.297	11.66
801.608	11.69
801.918	11.94
802.229	12.86
802.54	13.44
802.851	13.35
803.161	13.27
803.472	13.01
803.782	12.87
804.093	12.97
804.403	13.58
804.714	13.83
805.024	13.41
805.334	13.77
805.645	14.35
805.955	14.8
806.265	14.51
806.575	14.12
806.885	13.62
807.195	14.18
807.505	13.91
807.815	14.54
808.125	14.94
808.435	14.95
808.745	14.59
809.055	15.18
809.365	15.61
809.674	15.82
809.984	16.13
810.294	16.59
810.603	16.38
810.913	16.23
811.222	16.93
811.532	16.74
811.841	17.22
812.151	17.48
812.46	16.82
812.769	17.31
813.079	17.51
813.388	17.86
813.697	17.26
814.006	17.43
814.315	17.1
814.624	16.59
814.933	16.89
815.242	16.63
815.551	16.19
815.86	15.86
816.169	16.02
816.478	15.73
816.786	15.54
817.095	15.58
817.404	15.42
817.712	15.06
818.021	15.26
818.33	14.74
818.638	14.51
818.947	15.11
819.255	14.92
819.563	15.05
819.872	15.02
820.18	15.19
820.488	15.36
820.796	15.28
821.105	14.97
821.413	14.84
821.721	14.81
822.029	14.88
822.337	14.78
822.645	14.54
822.953	14.42
823.26	14.51
823.568	14.44
823.876	14.41
824.184	14.18
824.491	14.24
824.799	14.33
825.107	14.33
825.414	14.3
825.722	14.37
826.029	14.38
826.337	14.5
826.644	14.39
826.951	14.26
827.259	14.17
827.566	14.47
827.873	14.55
828.18	14.61
828.488	14.58
828.795	14.66
829.102	14.83
829.409	14.92
829.716	14.97
830.023	15.13
830.329	15.44
830.636	16.16
830.943	16.22
831.25	16.25
831.557	15.82
831.863	15.61
832.17	15.34
832.476	15.4
832.783	15.25
833.089	15.57
833.396	16.02
833.702	16.34
834.009	16.23
834.315	16.4
834.621	16.8
834.928	16.98
835.234	17.03
835.54	17.42
835.846	17.51
836.152	17.55
836.458	17.81
836.764	17.29
837.07	17.04
837.376	16.79
837.682	16.42
837.988	16.64
838.293	16.57
838.599	17.12
838.905	16.88
839.211	17.44
839.516	17.36
839.822	17.44
840.127	17.98
840.433	18.96
840.738	19.64
841.044	18.6
841.349	18.45
841.654	18.91
841.959	19.23
842.265	19.59
842.57	19.54
842.875	19.32
843.18	20.05
843.485	20.61
843.79	20.72
844.095	21.24
844.4	22.27
844.705	22.68
845.01	22.02
845.315	22.93
845.619	22.74
845.924	23.21
846.229	22.08
846.533	21.3
846.838	18.63
847.142	15.88
847.447	15.53
847.751	16
848.056	15.4
848.36	13.7
848.664	12.77
848.969	11.13
849.273	10.24
849.577	9.55
849.881	8.46
850.185	9.12
850.489	11.24
850.794	11.94
851.097	11.97
851.401	13.61
851.705	12.28
852.009	11.74
852.313	8.99
852.617	10.33
852.92	11.96
853.224	10.98
853.528	11.91
853.831	13.99
854.135	11.2
854.438	12.57
854.742	12.22
855.045	13.27
855.349	15.88
855.652	14.5
855.955	15.41
856.259	15.34
856.562	11.86
856.865	10.97
857.168	9.47
857.471	9.22
857.774	8.71
858.077	8.88
858.38	11.15
858.683	12.56
858.986	13.59
859.289	10.82
859.592	13.14
859.894	12.68
860.197	11.43
860.5	13.66
860.802	12.89
861.105	15.48
861.407	14.79
861.71	13.95
862.012	14.25
862.315	12.14
862.617	10.65
862.919	12.02
863.222	11.97
863.524	11.84
863.826	13.01
864.128	14.83
864.43	15.38
864.732	14.56
865.034	15.85
865.336	12.13
865.638	12.16
865.94	11.82
866.242	12.34
866.544	10.93
866.846	9.8
867.147	10.69
867.449	8.53
867.751	10.41
868.052	11
868.354	11.94
868.655	14.09
868.957	15.55
869.258	16.52
869.56	15.16
869.861	13.96
870.162	12.96
870.463	9.33
870.765	7.71
871.066	7.24
871.367	6.76
871.668	9.09
871.969	8.93
872.27	9.33
872.571	9.63
872.872	13.51
873.173	14.67
873.473	12.71
873.774	14.53
874.075	12.37
874.376	10.52
874.676	13.99
874.977	12.32
875.277	13.69
875.578	16.46
875.878	16.69
876.179	18.52
876.479	19.54
876.78	20.29
877.08	21.98
877.38	21.42
877.68	22.01
877.981	22.54
878.281	24.02
878.581	25.78
