Data from BU26939_Reflection_00005.txt Node
Date: Tue Nov 19 10:56:42 EST 2019
User: vgr7
Spectrometer: USB2G7710
Scans to average: 3
Trigger mode: 4
Integration Time (sec): 2.000000E-2
Electric dark correction enabled: true
Boxcar width: 10
XAxis mode: Wavelengths
Number of Pixels in Spectrum: 2048
>>>>>Begin Spectral Data<<<<<
177.721	-37.32
178.105	-17.02
178.488	20.32
178.871	109.09
179.254	300
179.636	286.57
180.019	648.39
180.402	282.35
180.785	5.66
181.168	7.64
181.55	-455.56
181.933	281.82
182.316	-137.29
182.698	-270.37
183.081	290.48
183.463	375.86
183.846	30.23
184.228	-36.75
184.611	-0.53
184.993	-6.85
185.376	-25.4
185.758	-0.3
186.14	1.41
186.522	45.85
186.904	35.38
187.287	57.96
187.669	45.21
188.051	22.74
188.433	-4.68
188.815	-14.01
189.197	-10.24
189.579	-5.36
189.961	-11.32
190.342	-23.73
190.724	-70.25
191.106	-65.32
191.488	-73.35
191.869	-67.8
192.251	-70.66
192.633	-72.82
193.014	-65.65
193.396	-54.27
193.777	-55.51
194.159	-47.34
194.54	-45.85
194.922	-45.67
195.303	-54.59
195.684	-60.93
196.065	-71.28
196.447	-54.31
196.828	-41.1
197.209	-45.75
197.59	-54.4
197.971	-44.55
198.352	-47.97
198.733	-40.47
199.114	-51.99
199.495	-43.42
199.876	-41.81
200.257	-45.49
200.638	-46.96
201.018	-49.49
201.399	-52.1
201.78	-51.23
202.16	-62.58
202.541	-72.89
202.922	-73.35
203.302	-65.46
203.683	-53.02
204.063	-61.59
204.444	-58.9
204.824	-64.78
205.204	-60.17
205.585	-52.84
205.965	-59.52
206.345	-56.28
206.725	-51
207.106	-42.55
207.486	-38.38
207.866	-48.32
208.246	-37.03
208.626	-41.88
209.006	-48.73
209.386	-44.18
209.766	-40.78
210.145	-35.51
210.525	-41.06
210.905	-30.79
211.285	-28.34
211.664	-26.14
212.044	-15.65
212.424	-17.46
212.803	-25.1
213.183	-30.32
213.562	-18.89
213.942	-31.9
214.321	-38.63
214.701	-39.94
215.08	-39.98
215.459	-37.67
215.838	-29.53
216.218	-28.42
216.597	-22.45
216.976	-41.21
217.355	-44.46
217.734	-52.34
218.113	-45.43
218.492	-46.93
218.871	-54.47
219.25	-75.31
219.629	-107.85
220.008	-118.36
220.387	-104.49
220.766	-69.78
221.144	-50.08
221.523	-64.13
221.902	-39.1
222.28	-19.46
222.659	-9.77
223.037	-12.81
223.416	-15.42
223.794	-14.64
224.173	-25.87
224.551	-17.01
224.929	-10.26
225.308	-10.45
225.686	-10.64
226.064	-11.63
226.442	-11.6
226.821	-10.25
227.199	-7.73
227.577	-3.86
227.955	-3.06
228.333	-4.66
228.711	-2.92
229.089	-5.43
229.467	-7.67
229.845	-5.25
230.222	-5.35
230.6	-4.22
230.978	-2.51
231.356	-2.7
231.733	-2.49
232.111	0.11
232.488	-0.67
232.866	1.42
233.243	3.62
233.621	3.29
233.998	3.1
234.376	3.97
234.753	4.67
235.13	4.61
235.508	3.79
235.885	3.92
236.262	3.29
236.639	3.12
237.016	3.72
237.393	5.27
237.77	4.69
238.147	4.16
238.524	4.32
238.901	4.26
239.278	4.05
239.655	3.58
240.032	3.41
240.409	3.36
240.785	2.32
241.162	1.85
241.539	1.84
241.915	1.52
242.292	1.69
242.668	1.75
243.045	2.02
243.421	2.39
243.798	2.2
244.174	2.68
244.551	2.55
244.927	2.58
245.303	2.44
245.679	2.41
246.056	2.65
246.432	2.66
246.808	2.66
247.184	2.72
247.56	2.9
247.936	3.14
248.312	3.13
248.688	3.46
249.064	3.44
249.44	3.35
249.815	3.36
250.191	3.39
250.567	3.44
250.943	3.53
251.318	3.41
251.694	3.33
252.069	3.32
252.445	3.4
252.82	3.8
253.196	3.71
253.571	3.85
253.947	3.76
254.322	3.44
254.697	3.07
255.073	3.12
255.448	3.16
255.823	2.89
256.198	2.99
256.573	2.91
256.948	3.08
257.323	3.12
257.698	3.22
258.073	3.2
258.448	3.29
258.823	3.19
259.198	3.17
259.573	3.14
259.948	3.1
260.322	2.93
260.697	2.86
261.072	3.1
261.446	3.11
261.821	3.02
262.195	3.17
262.57	3.29
262.944	3.33
263.319	3.49
263.693	3.52
264.067	3.5
264.442	3.45
264.816	3.46
265.19	3.56
265.564	3.66
265.938	3.89
266.313	3.69
266.687	3.59
267.061	3.54
267.435	3.64
267.809	3.72
268.183	4.03
268.556	3.8
268.93	3.6
269.304	3.37
269.678	3.6
270.051	3.46
270.425	3.47
270.799	3.22
271.172	3.04
271.546	3.11
271.919	3.07
272.293	3.3
272.666	3.14
273.04	3.12
273.413	3.14
273.787	3.04
274.16	3.1
274.533	3.32
274.906	3.39
275.279	3.48
275.653	3.47
276.026	3.35
276.399	3.49
276.772	3.47
277.145	3.54
277.518	3.3
277.891	3.59
278.263	3.67
278.636	3.88
279.009	3.88
279.382	3.9
279.755	3.89
280.127	3.79
280.5	3.9
280.872	4.05
281.245	3.95
281.617	3.82
281.99	3.79
282.362	3.61
282.735	3.44
283.107	3.29
283.479	3.15
283.852	3.12
284.224	3
284.596	3.01
284.968	3.11
285.34	3.12
285.713	2.93
286.085	2.88
286.457	2.82
286.829	2.79
287.201	2.74
287.572	2.81
287.944	2.78
288.316	2.87
288.688	2.85
289.06	2.87
289.431	3.06
289.803	3.09
290.175	3.06
290.546	3.24
290.918	3.27
291.289	3.35
291.661	3.46
292.032	3.49
292.403	3.52
292.775	3.62
293.146	3.72
293.517	3.8
293.889	3.82
294.26	3.86
294.631	3.89
295.002	3.91
295.373	3.85
295.744	3.84
296.115	3.82
296.486	3.89
296.857	3.84
297.228	3.66
297.599	3.64
297.97	3.67
298.34	3.66
298.711	3.78
299.082	3.71
299.452	3.62
299.823	3.73
300.194	3.77
300.564	3.67
300.935	3.75
301.305	3.69
301.676	3.67
302.046	3.64
302.416	3.48
302.787	3.52
303.157	3.44
303.527	3.51
303.897	3.4
304.267	3.28
304.637	3.29
305.008	3.27
305.378	3.28
305.748	3.3
306.117	3.16
306.487	3.11
306.857	3.22
307.227	3.19
307.597	2.98
307.967	2.89
308.336	2.83
308.706	2.81
309.076	2.87
309.445	3.01
309.815	3.16
310.184	3.28
310.554	3.22
310.923	3.24
311.293	3.21
311.662	3.3
312.031	3.11
312.401	3.15
312.77	3.14
313.139	3.15
313.508	3.14
313.877	3.27
314.246	3.24
314.616	3.22
314.985	3.31
315.353	3.5
315.722	3.64
316.091	3.65
316.46	3.67
316.829	3.62
317.198	3.52
317.567	3.37
317.935	3.37
318.304	3.46
318.672	3.68
319.041	3.59
319.41	3.44
319.778	3.6
320.147	3.54
320.515	3.64
320.883	3.54
321.252	3.6
321.62	3.51
321.988	3.5
322.357	3.53
322.725	3.45
323.093	3.49
323.461	3.39
323.829	3.51
324.197	3.38
324.565	3.34
324.933	3.19
325.301	3.05
325.669	3.02
326.037	2.98
326.405	2.74
326.772	2.76
327.14	2.85
327.508	2.84
327.875	2.91
328.243	2.97
328.61	3.04
328.978	2.86
329.346	2.93
329.713	3
330.08	2.89
330.448	3.02
330.815	2.94
331.182	2.91
331.55	2.77
331.917	2.78
332.284	2.93
332.651	3.13
333.018	3.22
333.385	3.29
333.752	3.24
334.119	3.43
334.486	3.47
334.853	3.46
335.22	3.31
335.587	3.26
335.954	3.13
336.32	3.11
336.687	3.29
337.054	3.24
337.42	3.31
337.787	3.36
338.153	3.28
338.52	3.38
338.886	3.44
339.253	3.51
339.619	3.5
339.986	3.47
340.352	3.51
340.718	3.56
341.084	3.61
341.451	3.63
341.817	3.6
342.183	3.6
342.549	3.57
342.915	3.76
343.281	3.78
343.647	3.89
344.013	3.93
344.379	3.92
344.745	3.94
345.11	3.85
345.476	3.89
345.842	3.88
346.208	3.78
346.573	3.68
346.939	3.65
347.304	3.68
347.67	3.57
348.035	3.54
348.401	3.6
348.766	3.52
349.132	3.59
349.497	3.53
349.862	3.51
350.228	3.5
350.593	3.47
350.958	3.49
351.323	3.49
351.688	3.49
352.053	3.41
352.418	3.43
352.783	3.42
353.148	3.43
353.513	3.46
353.878	3.46
354.243	3.51
354.608	3.48
354.972	3.43
355.337	3.5
355.702	3.55
356.066	3.5
356.431	3.58
356.795	3.55
357.16	3.61
357.524	3.56
357.889	3.6
358.253	3.59
358.618	3.6
358.982	3.54
359.346	3.53
359.71	3.63
360.075	3.61
360.439	3.63
360.803	3.66
361.167	3.61
361.531	3.58
361.895	3.62
362.259	3.73
362.623	3.66
362.987	3.62
363.351	3.56
363.714	3.57
364.078	3.58
364.442	3.54
364.806	3.52
365.169	3.55
365.533	3.48
365.896	3.5
366.26	3.44
366.623	3.5
366.987	3.47
367.35	3.44
367.714	3.48
368.077	3.51
368.44	3.46
368.803	3.44
369.167	3.42
369.53	3.4
369.893	3.33
370.256	3.42
370.619	3.45
370.982	3.34
371.345	3.42
371.708	3.4
372.071	3.41
372.434	3.41
372.797	3.45
373.159	3.54
373.522	3.53
373.885	3.55
374.247	3.54
374.61	3.55
374.973	3.55
375.335	3.5
375.698	3.49
376.06	3.49
376.423	3.51
376.785	3.54
377.147	3.5
377.51	3.51
377.872	3.5
378.234	3.52
378.596	3.56
378.958	3.49
379.321	3.46
379.683	3.46
380.045	3.44
380.407	3.42
380.769	3.39
381.13	3.35
381.492	3.34
381.854	3.33
382.216	3.36
382.578	3.35
382.939	3.31
383.301	3.29
383.663	3.28
384.024	3.3
384.386	3.32
384.747	3.35
385.109	3.37
385.47	3.39
385.832	3.42
386.193	3.43
386.554	3.43
386.916	3.45
387.277	3.47
387.638	3.47
387.999	3.48
388.36	3.47
388.721	3.49
389.082	3.52
389.443	3.53
389.804	3.56
390.165	3.59
390.526	3.64
390.887	3.63
391.248	3.64
391.609	3.65
391.969	3.67
392.33	3.68
392.691	3.66
393.051	3.66
393.412	3.66
393.772	3.67
394.133	3.69
394.493	3.69
394.854	3.68
395.214	3.68
395.574	3.68
395.935	3.67
396.295	3.68
396.655	3.71
397.015	3.74
397.376	3.7
397.736	3.68
398.096	3.67
398.456	3.65
398.816	3.64
399.176	3.62
399.535	3.62
399.895	3.59
400.255	3.62
400.615	3.59
400.975	3.59
401.334	3.61
401.694	3.61
402.054	3.62
402.413	3.62
402.773	3.62
403.132	3.61
403.492	3.65
403.851	3.66
404.211	3.61
404.57	3.57
404.929	3.58
405.288	3.57
405.648	3.6
406.007	3.65
406.366	3.64
406.725	3.65
407.084	3.66
407.443	3.69
407.802	3.68
408.161	3.73
408.52	3.74
408.879	3.74
409.238	3.73
409.596	3.71
409.955	3.71
410.314	3.73
410.673	3.76
411.031	3.73
411.39	3.78
411.748	3.78
412.107	3.77
412.465	3.76
412.824	3.72
413.182	3.7
413.54	3.66
413.899	3.69
414.257	3.68
414.615	3.65
414.974	3.66
415.332	3.64
415.69	3.62
416.048	3.62
416.406	3.63
416.764	3.64
417.122	3.66
417.48	3.66
417.838	3.65
418.195	3.63
418.553	3.64
418.911	3.6
419.269	3.62
419.626	3.63
419.984	3.63
420.342	3.65
420.699	3.65
421.057	3.66
421.414	3.67
421.772	3.68
422.129	3.68
422.486	3.68
422.844	3.69
423.201	3.7
423.558	3.7
423.915	3.68
424.273	3.67
424.63	3.68
424.987	3.68
425.344	3.69
425.701	3.71
426.058	3.71
426.415	3.71
426.772	3.71
427.128	3.7
427.485	3.7
427.842	3.69
428.199	3.7
428.555	3.71
428.912	3.7
429.269	3.7
429.625	3.69
429.982	3.7
430.338	3.68
430.695	3.66
431.051	3.67
431.407	3.67
431.764	3.66
432.12	3.66
432.476	3.66
432.832	3.63
433.189	3.62
433.545	3.62
433.901	3.64
434.257	3.63
434.613	3.64
434.969	3.64
435.325	3.65
435.681	3.64
436.036	3.65
436.392	3.66
436.748	3.66
437.104	3.68
437.459	3.68
437.815	3.69
438.171	3.7
438.526	3.69
438.882	3.7
439.237	3.71
439.593	3.71
439.948	3.71
440.304	3.73
440.659	3.74
441.014	3.77
441.369	3.75
441.725	3.75
442.08	3.75
442.435	3.77
442.79	3.77
443.145	3.79
443.5	3.76
443.855	3.75
444.21	3.76
444.565	3.75
444.92	3.76
445.275	3.76
445.629	3.76
445.984	3.76
446.339	3.76
446.693	3.76
447.048	3.75
447.403	3.75
447.757	3.73
448.112	3.73
448.466	3.72
448.82	3.72
449.175	3.72
449.529	3.73
449.883	3.71
450.238	3.71
450.592	3.72
450.946	3.73
451.3	3.73
451.654	3.72
452.008	3.73
452.362	3.74
452.716	3.73
453.07	3.72
453.424	3.72
453.778	3.73
454.132	3.72
454.486	3.73
454.839	3.73
455.193	3.77
455.547	3.77
455.9	3.78
456.254	3.79
456.607	3.79
456.961	3.8
457.314	3.81
457.668	3.8
458.021	3.79
458.375	3.79
458.728	3.78
459.081	3.77
459.434	3.76
459.787	3.75
460.141	3.77
460.494	3.78
460.847	3.78
461.2	3.79
461.553	3.82
461.906	3.82
462.259	3.82
462.611	3.81
462.964	3.81
463.317	3.79
463.67	3.79
464.022	3.79
464.375	3.78
464.728	3.76
465.08	3.78
465.433	3.79
465.785	3.81
466.138	3.82
466.49	3.85
466.843	3.86
467.195	3.86
467.547	3.85
467.899	3.86
468.252	3.86
468.604	3.85
468.956	3.83
469.308	3.82
469.66	3.83
470.012	3.84
470.364	3.83
470.716	3.86
471.068	3.87
471.42	3.85
471.772	3.86
472.123	3.9
472.475	3.91
472.827	3.91
473.178	3.91
473.53	3.91
473.882	3.9
474.233	3.91
474.585	3.9
474.936	3.9
475.288	3.9
475.639	3.89
475.99	3.89
476.342	3.93
476.693	3.92
477.044	3.93
477.395	3.93
477.746	3.92
478.097	3.91
478.448	3.93
478.8	3.94
479.15	3.93
479.501	3.92
479.852	3.93
480.203	3.93
480.554	3.93
480.905	3.93
481.255	3.94
481.606	3.94
481.957	3.94
482.307	3.95
482.658	3.96
483.009	3.96
483.359	3.96
483.709	3.96
484.06	3.97
484.41	3.97
484.761	3.98
485.111	3.99
485.461	3.99
485.811	3.98
486.162	3.99
486.512	3.99
486.862	3.98
487.212	3.98
487.562	3.98
487.912	3.98
488.262	3.98
488.612	3.98
488.961	3.98
489.311	3.98
489.661	3.97
490.011	3.96
490.36	3.96
490.71	3.96
491.06	3.95
491.409	3.95
491.759	3.95
492.108	3.93
492.458	3.92
492.807	3.92
493.157	3.92
493.506	3.92
493.855	3.93
494.204	3.93
494.554	3.92
494.903	3.92
495.252	3.92
495.601	3.92
495.95	3.93
496.299	3.94
496.648	3.96
496.997	3.96
497.346	3.99
497.695	4.01
498.043	4.02
498.392	4.03
498.741	4.02
499.09	4.04
499.438	4.07
499.787	4.11
500.135	4.12
500.484	4.13
500.832	4.13
501.181	4.15
501.529	4.18
501.878	4.2
502.226	4.21
502.574	4.2
502.923	4.21
503.271	4.22
503.619	4.2
503.967	4.19
504.315	4.19
504.663	4.19
505.011	4.19
505.359	4.17
505.707	4.16
506.055	4.16
506.403	4.15
506.751	4.13
507.098	4.12
507.446	4.14
507.794	4.15
508.141	4.16
508.489	4.16
508.837	4.15
509.184	4.16
509.531	4.16
509.879	4.15
510.226	4.16
510.574	4.14
510.921	4.17
511.268	4.17
511.616	4.19
511.963	4.19
512.31	4.2
512.657	4.2
513.004	4.22
513.351	4.23
513.698	4.24
514.045	4.27
514.392	4.27
514.739	4.25
515.086	4.26
515.432	4.26
515.779	4.24
516.126	4.26
516.473	4.25
516.819	4.26
517.166	4.29
517.512	4.29
517.859	4.3
518.205	4.27
518.552	4.28
518.898	4.28
519.245	4.29
519.591	4.29
519.937	4.31
520.283	4.31
520.629	4.3
520.976	4.31
521.322	4.29
521.668	4.29
522.014	4.3
522.36	4.29
522.706	4.3
523.052	4.33
523.398	4.32
523.743	4.32
524.089	4.33
524.435	4.32
524.781	4.33
525.126	4.33
525.472	4.34
525.817	4.35
526.163	4.35
526.509	4.35
526.854	4.36
527.199	4.37
527.545	4.37
527.89	4.38
528.235	4.37
528.581	4.37
528.926	4.37
529.271	4.37
529.616	4.37
529.961	4.37
530.306	4.36
530.651	4.35
530.996	4.35
531.341	4.36
531.686	4.37
532.031	4.37
532.376	4.37
532.721	4.37
533.065	4.37
533.41	4.36
533.755	4.36
534.099	4.34
534.444	4.33
534.788	4.33
535.133	4.31
535.477	4.32
535.822	4.32
536.166	4.33
536.51	4.34
536.855	4.35
537.199	4.35
537.543	4.37
537.887	4.38
538.231	4.38
538.576	4.38
538.92	4.38
539.264	4.4
539.608	4.4
539.951	4.4
540.295	4.41
540.639	4.4
540.983	4.41
541.327	4.42
541.671	4.43
542.014	4.45
542.358	4.48
542.701	4.48
543.045	4.49
543.389	4.49
543.732	4.48
544.075	4.47
544.419	4.49
544.762	4.48
545.105	4.49
545.449	4.5
545.792	4.49
546.135	4.5
546.478	4.48
546.821	4.5
547.165	4.49
547.508	4.49
547.851	4.5
548.194	4.5
548.536	4.48
548.879	4.46
549.222	4.46
549.565	4.43
549.908	4.41
550.25	4.43
550.593	4.44
550.936	4.44
551.278	4.43
551.621	4.42
551.963	4.42
552.306	4.42
552.648	4.4
552.991	4.4
553.333	4.37
553.675	4.41
554.017	4.39
554.36	4.41
554.702	4.42
555.044	4.4
555.386	4.39
555.728	4.41
556.07	4.41
556.412	4.39
556.754	4.4
557.096	4.41
557.438	4.39
557.78	4.39
558.121	4.41
558.463	4.41
558.805	4.4
559.147	4.41
559.488	4.4
559.83	4.4
560.171	4.43
560.513	4.43
560.854	4.39
561.196	4.42
561.537	4.44
561.878	4.44
562.22	4.46
562.561	4.48
562.902	4.49
563.243	4.51
563.584	4.53
563.925	4.55
564.266	4.56
564.607	4.55
564.948	4.55
565.289	4.53
565.63	4.54
565.971	4.53
566.312	4.52
566.653	4.53
566.993	4.54
567.334	4.52
567.675	4.53
568.015	4.52
568.356	4.5
568.696	4.49
569.037	4.5
569.377	4.52
569.718	4.55
570.058	4.55
570.398	4.55
570.739	4.53
571.079	4.48
571.419	4.48
571.759	4.48
572.099	4.49
572.439	4.49
572.779	4.49
573.119	4.48
573.459	4.48
573.799	4.45
574.139	4.46
574.479	4.47
574.819	4.49
575.158	4.51
575.498	4.51
575.838	4.51
576.177	4.48
576.517	4.47
576.856	4.45
577.196	4.4
577.535	4.38
577.875	4.39
578.214	4.42
578.553	4.4
578.893	4.4
579.232	4.36
579.571	4.38
579.91	4.36
580.25	4.39
580.589	4.39
580.928	4.41
581.267	4.42
581.606	4.41
581.945	4.38
582.283	4.4
582.622	4.41
582.961	4.42
583.3	4.46
583.639	4.44
583.977	4.44
584.316	4.47
584.654	4.51
584.993	4.53
585.332	4.53
585.67	4.56
586.008	4.58
586.347	4.64
586.685	4.65
587.024	4.65
587.362	4.66
587.7	4.7
588.038	4.71
588.376	4.73
588.715	4.74
589.053	4.79
589.391	4.79
589.729	4.76
590.067	4.76
590.404	4.74
590.742	4.77
591.08	4.78
591.418	4.79
591.756	4.79
592.093	4.78
592.431	4.8
592.769	4.81
593.106	4.82
593.444	4.83
593.781	4.82
594.119	4.85
594.456	4.84
594.793	4.81
595.131	4.81
595.468	4.81
595.805	4.84
596.143	4.85
596.48	4.84
596.817	4.87
597.154	4.86
597.491	4.87
597.828	4.85
598.165	4.86
598.502	4.85
598.839	4.86
599.176	4.91
599.512	4.88
599.849	4.86
600.186	4.82
600.523	4.76
600.859	4.81
601.196	4.81
601.532	4.78
601.869	4.78
602.205	4.79
602.542	4.77
602.878	4.72
603.215	4.7
603.551	4.7
603.887	4.68
604.223	4.67
604.56	4.67
604.896	4.71
605.232	4.7
605.568	4.73
605.904	4.71
606.24	4.67
606.576	4.72
606.912	4.72
607.248	4.75
607.583	4.79
607.919	4.75
608.255	4.77
608.591	4.79
608.926	4.79
609.262	4.76
609.597	4.77
609.933	4.83
610.268	4.83
610.604	4.82
610.939	4.85
611.275	4.9
611.61	4.89
611.945	4.84
612.281	4.86
612.616	4.82
612.951	4.87
613.286	4.88
613.621	4.85
613.956	4.87
614.291	4.87
614.626	4.82
614.961	4.86
615.296	4.86
615.631	4.89
615.966	4.93
616.3	4.92
616.635	4.95
616.97	4.89
617.304	4.88
617.639	4.89
617.973	4.89
618.308	4.86
618.642	4.89
618.977	4.9
619.311	4.88
619.646	4.9
619.98	4.85
620.314	4.89
620.648	4.86
620.983	4.82
621.317	4.81
621.651	4.82
621.985	4.81
622.319	4.79
622.653	4.81
622.987	4.85
623.321	4.86
623.655	4.83
623.988	4.9
624.322	4.93
624.656	4.91
624.99	4.96
625.323	4.98
625.657	4.98
625.99	5
626.324	5
626.657	5.01
626.991	5.01
627.324	4.99
627.658	4.96
627.991	5.06
628.324	5.06
628.657	5.12
628.991	5.11
629.324	5.1
629.657	5.07
629.99	5.04
630.323	5.05
630.656	5.08
630.989	5.09
631.322	5.09
631.655	5.13
631.987	5.08
632.32	5.04
632.653	5.04
632.986	5
633.318	4.97
633.651	4.99
633.984	5.01
634.316	4.99
634.649	5.03
634.981	4.96
635.313	4.95
635.646	4.93
635.978	4.97
636.31	4.98
636.643	5.01
636.975	5
637.307	5.01
637.639	5.04
637.971	4.97
638.303	4.97
638.635	4.92
638.967	4.94
639.299	4.93
639.631	4.94
639.963	4.94
640.295	4.98
640.626	4.97
640.958	4.96
641.29	5.05
641.621	5.05
641.953	5.03
642.285	5.06
642.616	5.04
642.948	5.02
643.279	4.98
643.61	5.02
643.942	5.02
644.273	5
644.604	4.92
644.936	4.87
645.267	4.83
645.598	4.88
645.929	4.82
646.26	4.81
646.591	4.84
646.922	4.9
647.253	4.89
647.584	4.88
647.915	4.87
648.245	4.85
648.576	4.83
648.907	4.87
649.238	4.87
649.568	4.86
649.899	4.85
650.229	4.98
650.56	4.95
650.89	5.02
651.221	5.02
651.551	5.08
651.882	5.17
652.212	5.2
652.542	5.22
652.872	5.22
653.203	5.3
653.533	5.28
653.863	5.31
654.193	5.36
654.523	5.38
654.853	5.43
655.183	5.4
655.513	5.4
655.843	5.38
656.172	5.43
656.502	5.42
656.832	5.42
657.162	5.32
657.491	5.31
657.821	5.2
658.15	5.22
658.48	5.23
658.809	5.19
659.139	5.19
659.468	5.2
659.798	5.29
660.127	5.25
660.456	5.23
660.785	5.18
661.115	5.18
661.444	5.16
661.773	5.12
662.102	5.09
662.431	5.13
662.76	5.16
663.089	5.18
663.418	5.21
663.747	5.2
664.076	5.24
664.404	5.22
664.733	5.3
665.062	5.31
665.39	5.32
665.719	5.37
666.048	5.33
666.376	5.28
666.705	5.23
667.033	5.33
667.362	5.36
667.69	5.43
668.018	5.43
668.347	5.48
668.675	5.42
669.003	5.48
669.331	5.46
669.659	5.43
669.987	5.38
670.315	5.43
670.643	5.43
670.971	5.45
671.299	5.39
671.627	5.33
671.955	5.26
672.283	5.24
672.61	5.17
672.938	5.2
673.266	5.28
673.593	5.31
673.921	5.23
674.249	5.23
674.576	5.23
674.904	5.14
675.231	5.12
675.558	5.19
675.886	5.16
676.213	5.2
676.54	5.29
676.867	5.25
677.195	5.25
677.522	5.27
677.849	5.23
678.176	5.33
678.503	5.36
678.83	5.48
679.157	5.44
679.484	5.43
679.81	5.48
680.137	5.47
680.464	5.44
680.791	5.43
681.117	5.44
681.444	5.42
681.771	5.51
682.097	5.55
682.424	5.46
682.75	5.45
683.077	5.45
683.403	5.38
683.729	5.38
684.056	5.31
684.382	5.27
684.708	5.33
685.034	5.3
685.36	5.29
685.686	5.18
686.012	5.27
686.339	5.31
686.664	5.38
686.99	5.34
687.316	5.4
687.642	5.38
687.968	5.37
688.294	5.37
688.619	5.38
688.945	5.3
689.271	5.36
689.596	5.38
689.922	5.35
690.247	5.37
690.573	5.45
690.898	5.59
691.224	5.63
691.549	5.65
691.874	5.67
692.2	5.67
692.525	5.73
692.85	5.72
693.175	5.74
693.5	5.55
693.825	5.54
694.15	5.55
694.475	5.6
694.8	5.63
695.125	5.67
695.45	5.57
695.775	5.67
696.099	5.82
696.424	5.86
696.749	5.93
697.073	5.98
697.398	6
697.723	5.95
698.047	5.98
698.372	5.96
698.696	6.04
699.02	6.06
699.345	6.1
699.669	6.12
699.993	6.12
700.318	6.24
700.642	6.27
700.966	6.37
701.29	6.36
701.614	6.4
701.938	6.39
702.262	6.43
702.586	6.42
702.91	6.34
703.234	6.22
703.557	6.17
703.881	6.17
704.205	6.13
704.529	6.14
704.852	6.14
705.176	6.26
705.499	6.11
705.823	6.17
706.146	6.21
706.47	6.16
706.793	6.13
707.117	6.22
707.44	6.24
707.763	6.18
708.086	6.29
708.409	6.35
708.733	6.28
709.056	6.44
709.379	6.45
709.702	6.5
710.025	6.54
710.348	6.57
710.671	6.59
710.993	6.52
711.316	6.49
711.639	6.41
711.962	6.32
712.284	6.42
712.607	6.39
712.93	6.35
713.252	6.42
713.575	6.39
713.897	6.27
714.22	6.31
714.542	6.31
714.864	6.15
715.187	6
715.509	5.93
715.831	5.89
716.153	5.85
716.475	5.92
716.798	6.01
717.12	5.98
717.442	5.89
717.764	5.96
718.085	5.93
718.407	6.03
718.729	6.03
719.051	6.04
719.373	5.98
719.695	6.02
720.016	5.96
720.338	6.11
720.659	6.23
720.981	6.15
721.302	6.17
721.624	6.51
721.945	6.56
722.267	6.85
722.588	6.69
722.909	6.86
723.231	6.62
723.552	6.55
723.873	6.55
724.194	6.62
724.515	6.64
724.836	6.65
725.157	6.69
725.478	6.61
725.799	6.58
726.12	6.51
726.441	6.46
726.762	6.49
727.083	6.53
727.403	6.28
727.724	6.39
728.045	6.31
728.365	6.07
728.686	6.1
729.006	6.01
729.327	6.08
729.647	5.86
729.967	5.97
730.288	5.96
730.608	6.12
730.928	6.11
731.249	6.08
731.569	6.21
731.889	6.28
732.209	6.31
732.529	6.14
732.849	6.29
733.169	6.28
733.489	6.2
733.809	6.13
734.129	6.27
734.448	6.22
734.768	6.18
735.088	6.23
735.408	6.22
735.727	6.25
736.047	6.39
736.366	6.64
736.686	6.63
737.005	6.7
737.325	6.74
737.644	6.86
737.963	6.93
738.283	6.79
738.602	6.76
738.921	6.9
739.24	7.03
739.56	7.04
739.879	7.02
740.198	7.13
740.517	7.02
740.836	7.1
741.155	7.28
741.473	7.36
741.792	7.42
742.111	7.6
742.43	7.55
742.748	7.52
743.067	7.38
743.386	7.44
743.704	7.47
744.023	7.37
744.341	7.32
744.66	7.27
744.978	7.42
745.297	7.41
745.615	7.19
745.933	7.32
746.252	7.47
746.57	7.68
746.888	7.6
747.206	7.65
747.524	7.6
747.842	7.33
748.16	7.34
748.478	7.35
748.796	7.17
749.114	7.31
749.432	7.36
749.749	7.17
750.067	7.01
750.385	7.27
750.703	7.16
751.02	7.16
751.338	7.33
751.655	7.23
751.973	7.16
752.29	7.17
752.608	7.21
752.925	7.11
753.242	7.05
753.56	7.2
753.877	7.28
754.194	7.48
754.511	7.5
754.828	7.22
755.145	6.95
755.462	7.06
755.779	7.25
756.096	7.2
756.413	7.36
756.73	7.57
757.047	7.17
757.364	7.4
757.68	7.4
757.997	7.44
758.314	7.35
758.63	7.58
758.947	7.67
759.264	7.55
759.58	7.55
759.896	7.55
760.213	7.68
760.529	7.81
760.846	7.75
761.162	7.82
761.478	8.06
761.794	8.37
762.11	8.15
762.426	7.94
762.743	7.88
763.059	8.09
763.375	8.26
763.69	8.28
764.006	8.19
764.322	8.15
764.638	8.19
764.954	8.21
765.27	8.09
765.585	8.18
765.901	8.19
766.216	8.12
766.532	8.17
766.848	8.2
767.163	8.13
767.478	8.03
767.794	8.07
768.109	8.05
768.424	7.95
768.74	8.02
769.055	8.24
769.37	8.24
769.685	8.22
770	7.74
770.315	7.91
770.63	8
770.945	8.08
771.26	7.79
771.575	7.79
771.89	7.79
772.205	7.76
772.52	7.7
772.834	7.92
773.149	7.72
773.464	7.57
773.778	7.55
774.093	7.65
774.407	7.66
774.722	7.69
775.036	8.02
775.351	8.38
775.665	7.96
775.979	7.81
776.293	7.77
776.608	8.31
776.922	8.29
777.236	8.17
777.55	8.28
777.864	8.69
778.178	8.89
778.492	8.75
778.806	9
779.12	9.07
779.434	8.9
779.747	8.99
780.061	8.86
780.375	9.19
780.689	9.39
781.002	9.18
781.316	9.35
781.629	9.3
781.943	8.85
782.256	8.73
782.57	9.16
782.883	9.44
783.196	9.3
783.51	9.34
783.823	9.33
784.136	8.96
784.449	8.92
784.762	9.03
785.075	9.42
785.388	9.29
785.701	9.51
786.014	9.66
786.327	9.56
786.64	9.68
786.953	9.33
787.266	9.06
787.578	9.39
787.891	9.38
788.204	9.11
788.516	9.32
788.829	9.69
789.141	9.63
789.454	9.32
789.766	9.3
790.079	9.13
790.391	9.1
790.703	9.34
791.016	9.02
791.328	9.02
791.64	8.73
791.952	8.7
792.264	8.33
792.576	8.17
792.888	8.38
793.2	8.33
793.512	8.03
793.824	8.11
794.136	7.84
794.448	7.56
794.76	7.44
795.071	7.23
795.383	7.3
795.695	7.14
796.006	7.33
796.318	7.51
796.629	7.85
796.941	7.94
797.252	8.13
797.564	8.03
797.875	7.47
798.186	7.93
798.497	8.02
798.809	8.23
799.12	8.09
799.431	7.7
799.742	7.88
800.053	8.37
800.364	8.43
800.675	8.59
800.986	8.79
801.297	8.78
801.608	9.11
801.918	9.2
802.229	9.34
802.54	8.97
802.851	9.1
803.161	9.07
803.472	9.46
803.782	9.09
804.093	9.1
804.403	9.68
804.714	9.21
805.024	8.95
805.334	9.14
805.645	9.21
805.955	9.83
806.265	10.31
806.575	9.61
806.885	9.5
807.195	9.51
807.505	9.29
807.815	9.41
808.125	9.05
808.435	8.93
808.745	9.01
809.055	9.87
809.365	9.59
809.674	9.1
809.984	8.91
810.294	9.49
810.603	9.41
810.913	9.33
811.222	9.53
811.532	9.47
811.841	9.52
812.151	9.81
812.46	9.59
812.769	8.85
813.079	9.94
813.388	10.46
813.697	10.38
814.006	10.59
814.315	10.87
814.624	11.24
814.933	11.3
815.242	10.81
815.551	10.52
815.86	10.74
816.169	10.52
816.478	10.67
816.786	10.21
817.095	10.9
817.404	10.73
817.712	10.98
818.021	11.44
818.33	11.65
818.638	11.31
818.947	11.4
819.255	11.35
819.563	11.03
819.872	10.63
820.18	10.94
820.488	11.1
820.796	10.99
821.105	10.97
821.413	10.99
821.721	10.91
822.029	10.75
822.337	10.68
822.645	10.84
822.953	10.97
823.26	10.84
823.568	10.72
823.876	10.65
824.184	10.44
824.491	10.4
824.799	10.31
825.107	10.32
825.414	10.18
825.722	10.01
826.029	9.97
826.337	9.98
826.644	9.78
826.951	9.62
827.259	9.62
827.566	9.58
827.873	9.61
828.18	9.85
828.488	9.83
828.795	9.76
829.102	9.74
829.409	9.37
829.716	9.67
830.023	9.87
830.329	9.95
830.636	10.35
830.943	10.25
831.25	10.23
831.557	10.23
831.863	10.42
832.17	10.79
832.476	10.64
832.783	11.19
833.089	11.12
833.396	11.3
833.702	11.26
834.009	11.74
834.315	11.38
834.621	10.97
834.928	10.46
835.234	10.88
835.54	10.84
835.846	10.94
836.152	10.38
836.458	10.03
836.764	10.43
837.07	10.27
837.376	10.18
837.682	10.22
837.988	10.24
838.293	10
838.599	9.52
838.905	9.87
839.211	9.1
839.516	9.21
839.822	9.23
840.127	9.12
840.433	8.17
840.738	8.05
841.044	8.09
841.349	8.8
841.654	7.8
841.959	8.02
842.265	7.77
842.57	7.89
842.875	7.64
843.18	6.8
843.485	6.38
843.79	6.12
844.095	6.42
844.4	6.2
844.705	7.44
845.01	9.32
845.315	8.76
845.619	10.36
845.924	10.35
846.229	9.11
846.533	8.18
846.838	7.45
847.142	7.19
847.447	7.22
847.751	8.23
848.056	8.36
848.36	7.66
848.664	6.55
848.969	7.32
849.273	7.67
849.577	8.55
849.881	9.02
850.185	10.13
850.489	10.37
850.794	11.18
851.097	9.8
851.401	8.85
851.705	10.01
852.009	7.56
852.313	6.85
852.617	7.4
852.92	9.19
853.224	9.74
853.528	9.02
853.831	9.68
854.135	8.92
854.438	8.98
854.742	10.76
855.045	10.5
855.349	10.62
855.652	11.15
855.955	10.71
856.259	10.49
856.562	9.61
856.865	9.88
857.168	9.4
857.471	8.71
857.774	6.01
858.077	5.52
858.38	6.25
858.683	8.54
858.986	10.08
859.289	10.67
859.592	11.03
859.894	13.08
860.197	11.69
860.5	11.3
860.802	12.28
861.105	12.34
861.407	13.71
861.71	13.16
862.012	12.93
862.315	13.23
862.617	12.52
862.919	15.04
863.222	14.06
863.524	14.55
863.826	14.75
864.128	18.25
864.43	19.24
864.732	19.46
865.034	17.74
865.336	17.03
865.638	15.32
865.94	15.68
866.242	14.99
866.544	17.72
866.846	17.6
867.147	18.11
867.449	17.28
867.751	17.15
868.052	16.71
868.354	16.94
868.655	15.73
868.957	16.18
869.258	12.57
869.56	12.01
869.861	12.68
870.162	12.68
870.463	11.27
870.765	11.35
871.066	10.56
871.367	8.88
871.668	8.86
871.969	7.62
872.27	8.83
872.571	8.89
872.872	5.61
873.173	3.85
873.473	1.46
873.774	0.74
874.075	3.08
874.376	3.83
874.676	6.74
874.977	10.15
875.277	9.95
875.578	12.14
875.878	12.54
876.179	11.99
876.479	13
876.78	13.07
877.08	11.74
877.38	12.56
877.68	16.27
877.981	16.04
878.281	18.9
878.581	17.05
