Data from BU26846_Reflection_00001.txt Node
Date: Mon Nov 18 16:33:18 EST 2019
User: vgr7
Spectrometer: USB2G7710
Scans to average: 3
Trigger mode: 4
Integration Time (sec): 2.000000E-2
Electric dark correction enabled: true
Boxcar width: 10
XAxis mode: Wavelengths
Number of Pixels in Spectrum: 2048
>>>>>Begin Spectral Data<<<<<
177.721	84.65
178.105	-484.91
178.488	1306.11
178.871	-46.5
179.254	4.67
179.636	-102.05
180.019	-36.04
180.402	112.12
180.785	109.27
181.168	241.34
181.55	250.08
181.933	126.6
182.316	118.3
182.698	111.56
183.081	145.27
183.463	197.95
183.846	722.43
184.228	574.12
184.611	1208.2
184.993	4369.66
185.376	-5054.64
185.758	7395.77
186.14	673.55
186.522	687.09
186.904	399.94
187.287	245.02
187.669	328.3
188.051	286.03
188.433	350.38
188.815	326.77
189.197	339.46
189.579	487
189.961	1353.44
190.342	2043.34
190.724	-1467.13
191.106	5199.24
191.488	1201.24
191.869	400.62
192.251	506.48
192.633	421.17
193.014	339.53
193.396	272.95
193.777	210.77
194.159	213.46
194.54	203.34
194.922	238.02
195.303	293.13
195.684	322.32
196.065	545.83
196.447	557.32
196.828	745.1
197.209	881.21
197.59	860.43
197.971	536.23
198.352	432.09
198.733	284.04
199.114	448.61
199.495	684.73
199.876	-2322.11
200.257	-959.38
200.638	-514.19
201.018	-467.93
201.399	-279.15
201.78	-137.82
202.16	-165.54
202.541	-143.19
202.922	-160.84
203.302	-160.84
203.683	-184.47
204.063	-238.76
204.444	-162.19
204.824	-173.52
205.204	-158.51
205.585	-191.34
205.965	-145.71
206.345	-178.33
206.725	-204.59
207.106	-249.3
207.486	-325.25
207.866	-424.35
208.246	-602.7
208.626	-570.8
209.006	-467.22
209.386	-503.89
209.766	-791.68
210.145	-628.56
210.525	-640.43
210.905	-403.19
211.285	-449.05
211.664	-385.47
212.044	-355.52
212.424	-398.83
212.803	-378.23
213.183	-490.96
213.562	-302.15
213.942	-474.33
214.321	-281.4
214.701	-258.16
215.08	-481.02
215.459	-515.38
215.838	-315.4
216.218	-324.34
216.597	-405.31
216.976	-404.65
217.355	-353.95
217.734	-278.98
218.113	-263.23
218.492	-316.76
218.871	-9521.62
219.25	-332.88
219.629	-1054.93
220.008	2591.02
220.387	-13089.19
220.766	-713.19
221.144	-9473.77
221.523	4025.47
221.902	2010.86
222.28	5316.78
222.659	-1221.82
223.037	-343.3
223.416	-397.6
223.794	-419.22
224.173	-264.63
224.551	-186.92
224.929	-154.6
225.308	-121.11
225.686	-102.75
226.064	-79.07
226.442	-70.61
226.821	-48.88
227.199	-45.09
227.577	-33.53
227.955	-28.2
228.333	-29.68
228.711	-28.42
229.089	-18.48
229.467	-17.67
229.845	-14.27
230.222	-14.23
230.6	-15.22
230.978	-13.28
231.356	-9.81
231.733	-9.2
232.111	-8.8
232.488	-9.56
232.866	-9.27
233.243	-9.81
233.621	-11.29
233.998	-9.69
234.376	-8.94
234.753	-10.01
235.13	-8.34
235.508	-7.68
235.885	-6.98
236.262	-5.13
236.639	-4.43
237.016	-5.51
237.393	-4.72
237.77	-4.78
238.147	-3.43
238.524	-2.19
238.901	-1.73
239.278	-0.71
239.655	0.57
240.032	0.81
240.409	1.44
240.785	1.85
241.162	2.06
241.539	2.7
241.915	2.49
242.292	2.3
242.668	2.17
243.045	2.28
243.421	2.31
243.798	2.35
244.174	2.65
244.551	2.62
244.927	2.73
245.303	3.07
245.679	3.47
246.056	3.49
246.432	3.39
246.808	3.46
247.184	3.14
247.56	3.01
247.936	3.13
248.312	2.93
248.688	3.23
249.064	3.17
249.44	3.25
249.815	3.07
250.191	3.23
250.567	3.35
250.943	3
251.318	3.03
251.694	3.11
252.069	2.88
252.445	2.96
252.82	3.03
253.196	2.78
253.571	2.5
253.947	2.34
254.322	2.58
254.697	2.6
255.073	2.56
255.448	2.48
255.823	2.51
256.198	2.86
256.573	2.71
256.948	2.88
257.323	2.94
257.698	3
258.073	2.9
258.448	3.01
258.823	3.26
259.198	3.19
259.573	3.24
259.948	3.3
260.322	3.14
260.697	2.96
261.072	2.95
261.446	2.94
261.821	3
262.195	3.13
262.57	3.03
262.944	3.09
263.319	3.18
263.693	3.2
264.067	3.18
264.442	3.14
264.816	3.12
265.19	2.89
265.564	2.84
265.938	2.85
266.313	2.78
266.687	2.78
267.061	2.76
267.435	2.69
267.809	2.75
268.183	2.89
268.556	3.07
268.93	3.28
269.304	3.33
269.678	3.34
270.051	3.21
270.425	3.31
270.799	3.39
271.172	3.35
271.546	3.2
271.919	3.07
272.293	2.94
272.666	2.96
273.04	3.06
273.413	3.14
273.787	3.27
274.16	3.34
274.533	3.24
274.906	3.32
275.279	3.33
275.653	3.32
276.026	3.38
276.399	3.22
276.772	3.24
277.145	3.16
277.518	3.07
277.891	3.15
278.263	3.13
278.636	3.12
279.009	3.32
279.382	3.51
279.755	3.38
280.127	3.5
280.5	3.6
280.872	3.71
281.245	3.66
281.617	3.67
281.99	3.68
282.362	3.61
282.735	3.47
283.107	3.48
283.479	3.5
283.852	3.57
284.224	3.79
284.596	3.76
284.968	3.91
285.34	3.91
285.713	3.86
286.085	3.85
286.457	3.97
286.829	3.95
287.201	3.98
287.572	4.04
287.944	4.02
288.316	4.08
288.688	3.93
289.06	4.03
289.431	4.05
289.803	4.11
290.175	4.26
290.546	4.46
290.918	4.51
291.289	4.52
291.661	4.48
292.032	4.51
292.403	4.48
292.775	4.53
293.146	4.43
293.517	4.36
293.889	4.39
294.26	4.41
294.631	4.33
295.002	4.36
295.373	4.47
295.744	4.52
296.115	4.5
296.486	4.47
296.857	4.38
297.228	4.35
297.599	4.23
297.97	4.17
298.34	4.13
298.711	4.2
299.082	4.14
299.452	4.16
299.823	4.13
300.194	4.29
300.564	4.3
300.935	4.45
301.305	4.52
301.676	4.54
302.046	4.51
302.416	4.59
302.787	4.5
303.157	4.48
303.527	4.53
303.897	4.49
304.267	4.64
304.637	4.69
305.008	4.75
305.378	4.88
305.748	4.85
306.117	4.88
306.487	4.77
306.857	4.97
307.227	5
307.597	5.02
307.967	4.91
308.336	4.86
308.706	4.83
309.076	4.86
309.445	4.85
309.815	4.77
310.184	4.7
310.554	4.68
310.923	4.66
311.293	4.58
311.662	4.63
312.031	4.7
312.401	4.78
312.77	4.74
313.139	4.66
313.508	4.78
313.877	4.77
314.246	4.71
314.616	4.53
314.985	4.45
315.353	4.31
315.722	4.38
316.091	4.25
316.46	4.35
316.829	4.36
317.198	4.5
317.567	4.53
317.935	4.66
318.304	4.69
318.672	4.61
319.041	4.68
319.41	4.68
319.778	4.54
320.147	4.5
320.515	4.52
320.883	4.51
321.252	4.47
321.62	4.51
321.988	4.6
322.357	4.66
322.725	4.76
323.093	4.86
323.461	4.76
323.829	4.9
324.197	4.85
324.565	4.77
324.933	4.67
325.301	4.61
325.669	4.53
326.037	4.47
326.405	4.55
326.772	4.53
327.14	4.56
327.508	4.61
327.875	4.55
328.243	4.6
328.61	4.56
328.978	4.6
329.346	4.54
329.713	4.47
330.08	4.37
330.448	4.24
330.815	4.15
331.182	4.11
331.55	4.03
331.917	4.12
332.284	4.24
332.651	4.31
333.018	4.44
333.385	4.42
333.752	4.44
334.119	4.37
334.486	4.41
334.853	4.34
335.22	4.25
335.587	4.23
335.954	4.18
336.32	4.14
336.687	4.17
337.054	4.22
337.42	4.31
337.787	4.5
338.153	4.56
338.52	4.54
338.886	4.58
339.253	4.57
339.619	4.44
339.986	4.44
340.352	4.43
340.718	4.35
341.084	4.4
341.451	4.45
341.817	4.58
342.183	4.51
342.549	4.54
342.915	4.6
343.281	4.6
343.647	4.66
344.013	4.78
344.379	4.69
344.745	4.67
345.11	4.65
345.476	4.56
345.842	4.54
346.208	4.63
346.573	4.61
346.939	4.68
347.304	4.66
347.67	4.54
348.035	4.53
348.401	4.53
348.766	4.6
349.132	4.67
349.497	4.61
349.862	4.73
350.228	4.68
350.593	4.7
350.958	4.77
351.323	4.71
351.688	4.68
352.053	4.7
352.418	4.8
352.783	4.83
353.148	4.85
353.513	4.86
353.878	4.85
354.243	4.89
354.608	4.87
354.972	4.87
355.337	4.98
355.702	5.02
356.066	5.14
356.431	5.02
356.795	5.06
357.16	5.02
357.524	4.91
357.889	4.93
358.253	4.94
358.618	4.92
358.982	4.92
359.346	4.84
359.71	4.83
360.075	4.76
360.439	4.79
360.803	4.84
361.167	4.84
361.531	4.87
361.895	4.85
362.259	4.85
362.623	4.85
362.987	4.77
363.351	4.75
363.714	4.7
364.078	4.67
364.442	4.57
364.806	4.65
365.169	4.67
365.533	4.67
365.896	4.66
366.26	4.65
366.623	4.65
366.987	4.72
367.35	4.69
367.714	4.7
368.077	4.6
368.44	4.54
368.803	4.57
369.167	4.47
369.53	4.39
369.893	4.41
370.256	4.49
370.619	4.53
370.982	4.47
371.345	4.46
371.708	4.51
372.071	4.51
372.434	4.42
372.797	4.44
373.159	4.41
373.522	4.43
373.885	4.51
374.247	4.52
374.61	4.48
374.973	4.52
375.335	4.5
375.698	4.53
376.06	4.52
376.423	4.54
376.785	4.6
377.147	4.72
377.51	4.71
377.872	4.68
378.234	4.67
378.596	4.7
378.958	4.7
379.321	4.74
379.683	4.76
380.045	4.8
380.407	4.87
380.769	4.85
381.13	4.84
381.492	4.82
381.854	4.8
382.216	4.84
382.578	4.84
382.939	4.83
383.301	4.82
383.663	4.84
384.024	4.83
384.386	4.84
384.747	4.87
385.109	4.83
385.47	4.79
385.832	4.82
386.193	4.79
386.554	4.78
386.916	4.76
387.277	4.8
387.638	4.84
387.999	4.79
388.36	4.8
388.721	4.81
389.082	4.8
389.443	4.82
389.804	4.8
390.165	4.82
390.526	4.87
390.887	4.87
391.248	4.88
391.609	4.84
391.969	4.86
392.33	4.81
392.691	4.84
393.051	4.84
393.412	4.87
393.772	4.9
394.133	4.93
394.493	4.94
394.854	4.89
395.214	4.85
395.574	4.83
395.935	4.84
396.295	4.87
396.655	4.88
397.015	4.88
397.376	4.88
397.736	4.87
398.096	4.81
398.456	4.85
398.816	4.86
399.176	4.86
399.535	4.87
399.895	4.85
400.255	4.84
400.615	4.88
400.975	4.83
401.334	4.81
401.694	4.78
402.054	4.79
402.413	4.82
402.773	4.84
403.132	4.87
403.492	4.86
403.851	4.85
404.211	4.85
404.57	4.83
404.929	4.84
405.288	4.85
405.648	4.87
406.007	4.86
406.366	4.84
406.725	4.89
407.084	4.88
407.443	4.93
407.802	4.96
408.161	4.91
408.52	4.9
408.879	4.91
409.238	4.9
409.596	4.9
409.955	4.93
410.314	4.9
410.673	4.89
411.031	4.91
411.39	4.88
411.748	4.9
412.107	4.94
412.465	4.96
412.824	4.97
413.182	5.01
413.54	5.01
413.899	5.08
414.257	5.07
414.615	5.03
414.974	5.04
415.332	5.06
415.69	5.09
416.048	5.12
416.406	5.15
416.764	5.16
417.122	5.18
417.48	5.15
417.838	5.17
418.195	5.16
418.553	5.14
418.911	5.17
419.269	5.17
419.626	5.16
419.984	5.15
420.342	5.15
420.699	5.14
421.057	5.14
421.414	5.12
421.772	5.12
422.129	5.15
422.486	5.13
422.844	5.12
423.201	5.12
423.558	5.12
423.915	5.13
424.273	5.14
424.63	5.13
424.987	5.14
425.344	5.15
425.701	5.16
426.058	5.17
426.415	5.15
426.772	5.14
427.128	5.12
427.485	5.13
427.842	5.12
428.199	5.13
428.555	5.14
428.912	5.14
429.269	5.14
429.625	5.14
429.982	5.13
430.338	5.14
430.695	5.13
431.051	5.11
431.407	5.07
431.764	5.08
432.12	5.07
432.476	5.05
432.832	5.04
433.189	5.06
433.545	5.05
433.901	5.07
434.257	5.07
434.613	5.11
434.969	5.1
435.325	5.13
435.681	5.14
436.036	5.13
436.392	5.15
436.748	5.15
437.104	5.13
437.459	5.15
437.815	5.14
438.171	5.17
438.526	5.2
438.882	5.22
439.237	5.21
439.593	5.22
439.948	5.24
440.304	5.23
440.659	5.23
441.014	5.22
441.369	5.22
441.725	5.21
442.08	5.2
442.435	5.22
442.79	5.2
443.145	5.19
443.5	5.19
443.855	5.17
444.21	5.17
444.565	5.19
444.92	5.18
445.275	5.18
445.629	5.18
445.984	5.17
446.339	5.15
446.693	5.14
447.048	5.14
447.403	5.12
447.757	5.13
448.112	5.13
448.466	5.14
448.82	5.14
449.175	5.14
449.529	5.13
449.883	5.13
450.238	5.13
450.592	5.14
450.946	5.14
451.3	5.14
451.654	5.14
452.008	5.13
452.362	5.12
452.716	5.13
453.07	5.13
453.424	5.13
453.778	5.13
454.132	5.12
454.486	5.12
454.839	5.14
455.193	5.14
455.547	5.16
455.9	5.16
456.254	5.17
456.607	5.16
456.961	5.17
457.314	5.17
457.668	5.18
458.021	5.16
458.375	5.17
458.728	5.18
459.081	5.18
459.434	5.18
459.787	5.2
460.141	5.2
460.494	5.19
460.847	5.2
461.2	5.21
461.553	5.24
461.906	5.26
462.259	5.27
462.611	5.28
462.964	5.26
463.317	5.26
463.67	5.26
464.022	5.26
464.375	5.27
464.728	5.28
465.08	5.28
465.433	5.29
465.785	5.31
466.138	5.32
466.49	5.31
466.843	5.3
467.195	5.28
467.547	5.3
467.899	5.31
468.252	5.31
468.604	5.32
468.956	5.28
469.308	5.27
469.66	5.27
470.012	5.27
470.364	5.29
470.716	5.29
471.068	5.31
471.42	5.33
471.772	5.35
472.123	5.34
472.475	5.33
472.827	5.33
473.178	5.33
473.53	5.31
473.882	5.31
474.233	5.36
474.585	5.35
474.936	5.34
475.288	5.34
475.639	5.36
475.99	5.37
476.342	5.4
476.693	5.39
477.044	5.4
477.395	5.4
477.746	5.39
478.097	5.39
478.448	5.37
478.8	5.35
479.15	5.34
479.501	5.36
479.852	5.36
480.203	5.37
480.554	5.38
480.905	5.39
481.255	5.41
481.606	5.42
481.957	5.43
482.307	5.43
482.658	5.42
483.009	5.43
483.359	5.42
483.709	5.41
484.06	5.4
484.41	5.42
484.761	5.42
485.111	5.43
485.461	5.45
485.811	5.45
486.162	5.46
486.512	5.47
486.862	5.46
487.212	5.47
487.562	5.47
487.912	5.47
488.262	5.47
488.612	5.47
488.961	5.46
489.311	5.47
489.661	5.47
490.011	5.48
490.36	5.47
490.71	5.48
491.06	5.49
491.409	5.5
491.759	5.47
492.108	5.47
492.458	5.46
492.807	5.45
493.157	5.45
493.506	5.46
493.855	5.45
494.204	5.45
494.554	5.44
494.903	5.43
495.252	5.42
495.601	5.44
495.95	5.43
496.299	5.43
496.648	5.42
496.997	5.43
497.346	5.43
497.695	5.43
498.043	5.44
498.392	5.46
498.741	5.46
499.09	5.46
499.438	5.48
499.787	5.49
500.135	5.49
500.484	5.48
500.832	5.49
501.181	5.51
501.529	5.53
501.878	5.54
502.226	5.54
502.574	5.53
502.923	5.53
503.271	5.55
503.619	5.56
503.967	5.56
504.315	5.55
504.663	5.54
505.011	5.56
505.359	5.55
505.707	5.56
506.055	5.56
506.403	5.59
506.751	5.57
507.098	5.59
507.446	5.59
507.794	5.61
508.141	5.61
508.489	5.59
508.837	5.61
509.184	5.63
509.531	5.65
509.879	5.69
510.226	5.7
510.574	5.69
510.921	5.68
511.268	5.67
511.616	5.68
511.963	5.68
512.31	5.67
512.657	5.68
513.004	5.68
513.351	5.69
513.698	5.69
514.045	5.7
514.392	5.7
514.739	5.7
515.086	5.71
515.432	5.7
515.779	5.71
516.126	5.72
516.473	5.72
516.819	5.73
517.166	5.71
517.512	5.71
517.859	5.71
518.205	5.72
518.552	5.74
518.898	5.74
519.245	5.74
519.591	5.75
519.937	5.74
520.283	5.75
520.629	5.75
520.976	5.76
521.322	5.77
521.668	5.78
522.014	5.78
522.36	5.79
522.706	5.8
523.052	5.8
523.398	5.79
523.743	5.78
524.089	5.79
524.435	5.78
524.781	5.79
525.126	5.82
525.472	5.83
525.817	5.82
526.163	5.84
526.509	5.87
526.854	5.88
527.199	5.89
527.545	5.9
527.89	5.9
528.235	5.91
528.581	5.93
528.926	5.92
529.271	5.94
529.616	5.93
529.961	5.93
530.306	5.94
530.651	5.94
530.996	5.96
531.341	5.96
531.686	5.97
532.031	5.98
532.376	5.97
532.721	5.96
533.065	5.98
533.41	5.98
533.755	5.97
534.099	5.97
534.444	5.96
534.788	5.97
535.133	5.98
535.477	5.97
535.822	5.95
536.166	5.95
536.51	5.94
536.855	5.96
537.199	5.95
537.543	5.95
537.887	5.96
538.231	5.95
538.576	5.96
538.92	5.97
539.264	5.97
539.608	5.99
539.951	6
540.295	6
540.639	6.01
540.983	6.01
541.327	6
541.671	6.01
542.014	6.01
542.358	6.02
542.701	6.01
543.045	6.02
543.389	6.03
543.732	6.05
544.075	6.04
544.419	6.04
544.762	6.05
545.105	6.05
545.449	6.06
545.792	6.06
546.135	6.06
546.478	6.05
546.821	6.06
547.165	6.07
547.508	6.08
547.851	6.08
548.194	6.08
548.536	6.1
548.879	6.09
549.222	6.1
549.565	6.09
549.908	6.11
550.25	6.09
550.593	6.09
550.936	6.08
551.278	6.08
551.621	6.12
551.963	6.13
552.306	6.12
552.648	6.14
552.991	6.16
553.333	6.14
553.675	6.14
554.017	6.13
554.36	6.13
554.702	6.13
555.044	6.12
555.386	6.13
555.728	6.13
556.07	6.16
556.412	6.15
556.754	6.15
557.096	6.17
557.438	6.16
557.78	6.18
558.121	6.17
558.463	6.19
558.805	6.18
559.147	6.17
559.488	6.17
559.83	6.16
560.171	6.14
560.513	6.16
560.854	6.16
561.196	6.15
561.537	6.13
561.878	6.1
562.22	6.1
562.561	6.12
562.902	6.13
563.243	6.1
563.584	6.14
563.925	6.12
564.266	6.09
564.607	6.12
564.948	6.12
565.289	6.14
565.63	6.13
565.971	6.1
566.312	6.1
566.653	6.12
566.993	6.14
567.334	6.13
567.675	6.13
568.015	6.13
568.356	6.12
568.696	6.15
569.037	6.18
569.377	6.18
569.718	6.19
570.058	6.19
570.398	6.17
570.739	6.17
571.079	6.18
571.419	6.21
571.759	6.2
572.099	6.17
572.439	6.17
572.779	6.17
573.119	6.2
573.459	6.22
573.799	6.22
574.139	6.21
574.479	6.25
574.819	6.25
575.158	6.23
575.498	6.26
575.838	6.23
576.177	6.22
576.517	6.18
576.856	6.18
577.196	6.18
577.535	6.19
577.875	6.18
578.214	6.17
578.553	6.17
578.893	6.18
579.232	6.21
579.571	6.21
579.91	6.2
580.25	6.22
580.589	6.2
580.928	6.2
581.267	6.24
581.606	6.22
581.945	6.2
582.283	6.21
582.622	6.22
582.961	6.23
583.3	6.26
583.639	6.31
583.977	6.33
584.316	6.33
584.654	6.31
584.993	6.34
585.332	6.34
585.67	6.33
586.008	6.33
586.347	6.31
586.685	6.28
587.024	6.29
587.362	6.28
587.7	6.29
588.038	6.28
588.376	6.23
588.715	6.22
589.053	6.22
589.391	6.27
589.729	6.25
590.067	6.26
590.404	6.29
590.742	6.29
591.08	6.3
591.418	6.3
591.756	6.36
592.093	6.32
592.431	6.35
592.769	6.36
593.106	6.38
593.444	6.36
593.781	6.39
594.119	6.39
594.456	6.37
594.793	6.38
595.131	6.37
595.468	6.38
595.805	6.4
596.143	6.41
596.48	6.38
596.817	6.41
597.154	6.45
597.491	6.43
597.828	6.42
598.165	6.4
598.502	6.38
598.839	6.35
599.176	6.35
599.512	6.36
599.849	6.39
600.186	6.41
600.523	6.45
600.859	6.49
601.196	6.52
601.532	6.5
601.869	6.51
602.205	6.55
602.542	6.58
602.878	6.59
603.215	6.62
603.551	6.66
603.887	6.66
604.223	6.66
604.56	6.65
604.896	6.63
605.232	6.65
605.568	6.69
605.904	6.69
606.24	6.71
606.576	6.69
606.912	6.69
607.248	6.69
607.583	6.7
607.919	6.67
608.255	6.63
608.591	6.69
608.926	6.69
609.262	6.71
609.597	6.69
609.933	6.69
610.268	6.69
610.604	6.67
610.939	6.67
611.275	6.63
611.61	6.69
611.945	6.74
612.281	6.7
612.616	6.65
612.951	6.73
613.286	6.76
613.621	6.8
613.956	6.78
614.291	6.78
614.626	6.78
614.961	6.74
615.296	6.76
615.631	6.76
615.966	6.78
616.3	6.72
616.635	6.72
616.97	6.72
617.304	6.73
617.639	6.79
617.973	6.78
618.308	6.83
618.642	6.81
618.977	6.8
619.311	6.84
619.646	6.89
619.98	6.85
620.314	6.87
620.648	6.92
620.983	6.9
621.317	6.9
621.651	6.92
621.985	6.97
622.319	7
622.653	7.04
622.987	7.06
623.321	7.12
623.655	7.18
623.988	7.19
624.322	7.17
624.656	7.14
624.99	7.15
625.323	7.15
625.657	7.2
625.99	7.21
626.324	7.2
626.657	7.19
626.991	7.18
627.324	7.13
627.658	7.12
627.991	7.2
628.324	7.2
628.657	7.2
628.991	7.14
629.324	7.15
629.657	7.12
629.99	7.11
630.323	7.11
630.656	7.09
630.989	7.08
631.322	7.12
631.655	7.12
631.987	7.13
632.32	7.14
632.653	7.06
632.986	7.03
633.318	7.04
633.651	7.06
633.984	7.07
634.316	7.12
634.649	7.12
634.981	7.08
635.313	7.12
635.646	7.12
635.978	7.24
636.31	7.25
636.643	7.23
636.975	7.21
637.307	7.19
637.639	7.2
637.971	7.23
638.303	7.2
638.635	7.15
638.967	7.09
639.299	7.09
639.631	7.06
639.963	7.06
640.295	7.07
640.626	7.06
640.958	7.1
641.29	7.07
641.621	7.01
641.953	7.07
642.285	6.99
642.616	6.98
642.948	6.96
643.279	7
643.61	7.03
643.942	7.03
644.273	7.02
644.604	7.04
644.936	7.02
645.267	7
645.598	7.08
645.929	7.21
646.26	7.17
646.591	7.21
646.922	7.23
647.253	7.22
647.584	7.25
647.915	7.2
648.245	7.22
648.576	7.25
648.907	7.19
649.238	7.2
649.568	7.16
649.899	7.16
650.229	7.12
650.56	7.14
650.89	7.16
651.221	7.21
651.551	7.15
651.882	7.15
652.212	7.12
652.542	7.16
652.872	7.08
653.203	7.12
653.533	7.13
653.863	7.17
654.193	7.18
654.523	7.19
654.853	7.21
655.183	7.23
655.513	7.23
655.843	7.28
656.172	7.35
656.502	7.34
656.832	7.29
657.162	7.34
657.491	7.31
657.821	7.3
658.15	7.31
658.48	7.35
658.809	7.37
659.139	7.4
659.468	7.3
659.798	7.34
660.127	7.33
660.456	7.32
660.785	7.33
661.115	7.37
661.444	7.36
661.773	7.37
662.102	7.39
662.431	7.4
662.76	7.4
663.089	7.42
663.418	7.46
663.747	7.49
664.076	7.51
664.404	7.46
664.733	7.51
665.062	7.48
665.39	7.51
665.719	7.49
666.048	7.58
666.376	7.7
666.705	7.69
667.033	7.7
667.362	7.75
667.69	7.75
668.018	7.74
668.347	7.75
668.675	7.84
669.003	7.81
669.331	7.85
669.659	7.78
669.987	7.7
670.315	7.76
670.643	7.77
670.971	7.67
671.299	7.78
671.627	7.79
671.955	7.74
672.283	7.69
672.61	7.69
672.938	7.66
673.266	7.63
673.593	7.73
673.921	7.75
674.249	7.81
674.576	7.8
674.904	7.74
675.231	7.71
675.558	7.66
675.886	7.67
676.213	7.66
676.54	7.73
676.867	7.83
677.195	7.82
677.522	7.8
677.849	7.87
678.176	7.88
678.503	7.88
678.83	7.94
679.157	8
679.484	8.04
679.81	8.01
680.137	7.99
680.464	7.96
680.791	7.93
681.117	7.86
681.444	7.9
681.771	7.88
682.097	7.86
682.424	7.86
682.75	7.88
683.077	7.93
683.403	7.97
683.729	7.92
684.056	7.91
684.382	8.01
684.708	8
685.034	8
685.36	7.97
685.686	7.97
686.012	7.93
686.339	7.94
686.664	7.96
686.99	7.98
687.316	7.95
687.642	8.01
687.968	8.01
688.294	8.11
688.619	8.22
688.945	8.27
689.271	8.22
689.596	8.17
689.922	8.11
690.247	8.15
690.573	8.14
690.898	8.2
691.224	8.16
691.549	8.26
691.874	8.2
692.2	8.2
692.525	8.18
692.85	8.18
693.175	8.19
693.5	8.19
693.825	8.2
694.15	8.21
694.475	8.17
694.8	8.19
695.125	7.96
695.45	8
695.775	8.1
696.099	8.19
696.424	8.2
696.749	8.16
697.073	8.11
697.398	8.18
697.723	8.13
698.047	8.22
698.372	8.22
698.696	8.34
699.02	8.45
699.345	8.45
699.669	8.51
699.993	8.52
700.318	8.56
700.642	8.52
700.966	8.46
701.29	8.44
701.614	8.47
701.938	8.61
702.262	8.59
702.586	8.5
702.91	8.52
703.234	8.63
703.557	8.75
703.881	8.75
704.205	8.75
704.529	8.74
704.852	8.7
705.176	8.6
705.499	8.6
705.823	8.46
706.146	8.4
706.47	8.45
706.793	8.5
707.117	8.5
707.44	8.56
707.763	8.68
708.086	8.71
708.409	8.64
708.733	8.62
709.056	8.65
709.379	8.79
709.702	8.72
710.025	8.62
710.348	8.53
710.671	8.57
710.993	8.58
711.316	8.71
711.639	8.69
711.962	8.72
712.284	8.64
712.607	8.71
712.93	8.79
713.252	8.71
713.575	8.75
713.897	8.77
714.22	8.78
714.542	8.72
714.864	8.68
715.187	8.85
715.509	8.91
715.831	8.99
716.153	9.03
716.475	9
716.798	9.1
717.12	9.16
717.442	9.15
717.764	9.06
718.085	8.97
718.407	8.89
718.729	8.91
719.051	8.92
719.373	8.83
719.695	8.94
720.016	9.02
720.338	8.93
720.659	8.87
720.981	8.9
721.302	8.87
721.624	8.95
721.945	8.84
722.267	8.89
722.588	8.75
722.909	8.65
723.231	8.73
723.552	8.62
723.873	8.62
724.194	8.67
724.515	8.67
724.836	8.79
725.157	8.94
725.478	8.96
725.799	9
726.12	9.07
726.441	9.06
726.762	9.05
727.083	9.07
727.403	9.06
727.724	9
728.045	9.14
728.365	9.29
728.686	9.31
729.006	9.11
729.327	9.11
729.647	9.19
729.967	9.23
730.288	9.36
730.608	9.47
730.928	9.39
731.249	9.37
731.569	9.5
731.889	9.56
732.209	9.48
732.529	9.52
732.849	9.54
733.169	9.39
733.489	9.45
733.809	9.45
734.129	9.57
734.448	9.71
734.768	9.66
735.088	9.68
735.408	9.56
735.727	9.78
736.047	9.85
736.366	9.72
736.686	9.78
737.005	9.77
737.325	9.71
737.644	9.64
737.963	9.63
738.283	9.27
738.602	9.23
738.921	9.43
739.24	9.48
739.56	9.22
739.879	9.3
740.198	9.37
740.517	9.42
740.836	9.36
741.155	9.27
741.473	9.21
741.792	9.17
742.111	9.21
742.43	9.15
742.748	9.04
743.067	8.95
743.386	8.89
743.704	8.98
744.023	9.11
744.341	9.17
744.66	9.39
744.978	9.56
745.297	9.68
745.615	9.68
745.933	9.41
746.252	9.73
746.57	9.75
746.888	9.74
747.206	9.53
747.524	9.62
747.842	9.85
748.16	9.98
748.478	10.12
748.796	10.11
749.114	10.31
749.432	10.41
749.749	10.59
750.067	10.39
750.385	10.47
750.703	10.25
751.02	10.33
751.338	10.33
751.655	10.21
751.973	10.09
752.29	9.92
752.608	10.13
752.925	10.26
753.242	10.35
753.56	10.09
753.877	10.17
754.194	9.94
754.511	9.81
754.828	9.82
755.145	9.52
755.462	9.72
755.779	9.49
756.096	9.45
756.413	9.5
756.73	9.68
757.047	9.43
757.364	9.52
757.68	9.6
757.997	9.48
758.314	9.86
758.63	9.88
758.947	9.99
759.264	9.92
759.58	9.82
759.896	9.95
760.213	10.02
760.529	10.06
760.846	10.2
761.162	10.18
761.478	10.24
761.794	10.24
762.11	10.13
762.426	10.16
762.743	10.37
763.059	10.31
763.375	10.38
763.69	10.55
764.006	10.58
764.322	10.6
764.638	10.62
764.954	10.52
765.27	10.54
765.585	10.44
765.901	10.49
766.216	10.5
766.532	10.48
766.848	10.42
767.163	10.48
767.478	10.47
767.794	10.49
768.109	10.49
768.424	10.61
768.74	10.81
769.055	11.03
769.37	10.95
769.685	10.88
770	11.01
770.315	10.74
770.63	10.86
770.945	10.86
771.26	10.73
771.575	10.56
771.89	10.53
772.205	10.5
772.52	10.57
772.834	10.7
773.149	10.44
773.464	10.58
773.778	10.88
774.093	10.56
774.407	10.6
774.722	10.4
775.036	10.42
775.351	10.15
775.665	9.77
775.979	10.05
776.293	9.82
776.608	9.44
776.922	9.53
777.236	9.46
777.55	9.35
777.864	9.58
778.178	9.95
778.492	10.09
778.806	10.2
779.12	10.16
779.434	9.99
779.747	10.44
780.061	10.71
780.375	10.57
780.689	11.13
781.002	11.27
781.316	11.64
781.629	11.87
781.943	11.85
782.256	11.98
782.57	11.55
782.883	11.86
783.196	11.9
783.51	11.55
783.823	11.61
784.136	11.98
784.449	12.21
784.762	12.17
785.075	11.93
785.388	12.16
785.701	12.23
786.014	12.15
786.327	11.86
786.64	11.8
786.953	11.85
787.266	11.65
787.578	11.72
787.891	11.65
788.204	11.44
788.516	11.75
788.829	11.78
789.141	12.28
789.454	12.55
789.766	13.02
790.079	13.18
790.391	12.9
790.703	13.05
791.016	13.1
791.328	13.09
791.64	13.23
791.952	13.48
792.264	13.29
792.576	13.23
792.888	13.14
793.2	12.83
793.512	12.72
793.824	12.67
794.136	12.72
794.448	12.41
794.76	12.37
795.071	12.31
795.383	12.28
795.695	11.71
796.006	11.54
796.318	11.46
796.629	11.73
796.941	11.88
797.252	11.27
797.564	11.2
797.875	11.18
798.186	10.72
798.497	10.29
798.809	10.31
799.12	10.06
799.431	9.93
799.742	10.43
800.053	10.82
800.364	11.29
800.675	10.63
800.986	10.69
801.297	10.46
801.608	9.79
801.918	9.92
802.229	9.78
802.54	9.62
802.851	9.35
803.161	9.85
803.472	9.96
803.782	10.06
804.093	10.13
804.403	9.76
804.714	10.27
805.024	9.81
805.334	10.02
805.645	10.61
805.955	10.68
806.265	10.65
806.575	10.07
806.885	10.02
807.195	10.74
807.505	10.68
807.815	10.85
808.125	10.98
808.435	10.98
808.745	12.04
809.055	12.4
809.365	12.52
809.674	12.2
809.984	12.29
810.294	12.47
810.603	12.85
810.913	13.05
811.222	13.04
811.532	13.72
811.841	13.89
812.151	14.27
812.46	14.2
812.769	13.94
813.079	13.55
813.388	13.25
813.697	13.02
814.006	12.93
814.315	12.84
814.624	13.78
814.933	13.94
815.242	12.73
815.551	11.94
815.86	12.33
816.169	11.94
816.478	11.37
816.786	11.71
817.095	11.37
817.404	11.38
817.712	11.12
818.021	10.71
818.33	10.7
818.638	10.77
818.947	12.01
819.255	12.32
819.563	13.05
819.872	13.2
820.18	13.65
820.488	13.89
820.796	14
821.105	13.91
821.413	14.09
821.721	14.06
822.029	14.44
822.337	14.33
822.645	14.44
822.953	14.42
823.26	14.26
823.568	14.19
823.876	14.24
824.184	14.46
824.491	14.6
824.799	14.59
825.107	14.67
825.414	14.43
825.722	14.4
826.029	14.4
826.337	14.46
826.644	14.4
826.951	14.57
827.259	14.69
827.566	14.81
827.873	14.52
828.18	14.45
828.488	14.29
828.795	14.19
829.102	14.27
829.409	14.44
829.716	14.37
830.023	14.5
830.329	14.51
830.636	14.52
830.943	14.58
831.25	14.47
831.557	14.24
831.863	14.45
832.17	14.47
832.476	14.33
832.783	14.51
833.089	14.12
833.396	13.96
833.702	13.98
834.009	13.75
834.315	14
834.621	14.71
834.928	14.64
835.234	14.8
835.54	14.58
835.846	14.65
836.152	15.02
836.458	14.71
836.764	14.76
837.07	14.01
837.376	13.89
837.682	14.14
837.988	14
838.293	14.19
838.599	14.33
838.905	14
839.211	13.05
839.516	13.7
839.822	14.23
840.127	13.25
840.433	13.65
840.738	13.36
841.044	12.76
841.349	13.34
841.654	12.6
841.959	12.52
842.265	12.25
842.57	11.53
842.875	11.44
843.18	11.4
843.485	12.55
843.79	12.3
844.095	11.57
844.4	12.33
844.705	10.57
845.01	9.3
845.315	9.41
845.619	9.2
845.924	7.81
846.229	7.14
846.533	8.44
846.838	7.21
847.142	7.29
847.447	6.86
847.751	6.11
848.056	6.86
848.36	7.37
848.664	6.66
848.969	8.1
849.273	8.51
849.577	8.6
849.881	7.51
850.185	6.42
850.489	9.44
850.794	9.31
851.097	12.38
851.401	14.48
851.705	14.46
852.009	15.71
852.313	16.31
852.617	15.15
852.92	16.48
853.224	15.94
853.528	16.57
853.831	16.59
854.135	15.92
854.438	14.95
854.742	14.46
855.045	16.23
855.349	16.36
855.652	16.56
855.955	15.6
856.259	17.3
856.562	19.5
856.865	16.59
857.168	15.62
857.471	13.52
857.774	12.05
858.077	12.53
858.38	12.28
858.683	11.31
858.986	10.55
859.289	7.88
859.592	8.87
859.894	10.09
860.197	12
860.5	12.83
860.802	13.4
861.105	12.87
861.407	12.4
861.71	11.81
862.012	12.58
862.315	12.25
862.617	11.73
862.919	12.23
863.222	12.31
863.524	12.05
863.826	11.68
864.128	13.35
864.43	13.77
864.732	15.59
865.034	17.09
865.336	17.7
865.638	18.59
865.94	18.87
866.242	15.66
866.544	13.74
866.846	14.6
867.147	16.1
867.449	18.61
867.751	17.95
868.052	18.23
868.354	18.26
868.655	19.01
868.957	18.93
869.258	17.23
869.56	18.1
869.861	16.99
870.162	17.74
870.463	19.09
870.765	19.31
871.066	18.01
871.367	16.04
871.668	18.65
871.969	17.24
872.27	15.31
872.571	15.96
872.872	16.29
873.173	16.41
873.473	15.47
873.774	14.1
874.075	15.71
874.376	14.09
874.676	14.12
874.977	13.59
875.277	12.63
875.578	15.4
875.878	15.4
876.179	18.1
876.479	18.62
876.78	14.87
877.08	14.85
877.38	14.03
877.68	16.39
877.981	12.63
878.281	16.84
878.581	20.9
