Data from BU26940_Reflection_00007.txt Node
Date: Tue Nov 19 11:00:19 EST 2019
User: vgr7
Spectrometer: USB2G7710
Scans to average: 3
Trigger mode: 4
Integration Time (sec): 2.000000E-2
Electric dark correction enabled: true
Boxcar width: 10
XAxis mode: Wavelengths
Number of Pixels in Spectrum: 2048
>>>>>Begin Spectral Data<<<<<
177.721	82.94
178.105	-2066.67
178.488	29.72
178.871	-5.13
179.254	116.67
179.636	107.25
180.019	379.76
180.402	70
180.785	-124.56
181.168	-96.33
181.55	-38.89
181.933	-4.87
182.316	47.09
182.698	23.85
183.081	9.62
183.463	33.54
183.846	47.84
184.228	10.17
184.611	20.05
184.993	-15.56
185.376	-23.74
185.758	-53.12
186.14	-33.33
186.522	-77.37
186.904	-117.78
187.287	-134.43
187.669	-274.36
188.051	-386.93
188.433	-605.13
188.815	652.08
189.197	664.1
189.579	75.49
189.961	147.62
190.342	84.23
190.724	92.42
191.106	61.43
191.488	75.35
191.869	60.38
192.251	65.28
192.633	60.55
193.014	67.2
193.396	79.97
193.777	50.9
194.159	58.02
194.54	51.77
194.922	51.05
195.303	52.2
195.684	13.31
196.065	-1.93
196.447	-3.14
196.828	-1.12
197.209	8.4
197.59	28.99
197.971	20.86
198.352	42.13
198.733	29.82
199.114	18.85
199.495	19.89
199.876	-2.56
200.257	-13.15
200.638	8.66
201.018	-1.09
201.399	12.89
201.78	18.11
202.16	-2.3
202.541	0.81
202.922	0.71
203.302	-3.89
203.683	11.56
204.063	3.51
204.444	-0.2
204.824	-5.05
205.204	-7.67
205.585	-11.72
205.965	-2.4
206.345	-1.31
206.725	-4.91
207.106	5.15
207.486	-4.92
207.866	3.86
208.246	13.15
208.626	-2.86
209.006	-13.83
209.386	-29.98
209.766	-37.32
210.145	-33.87
210.525	-43.84
210.905	-44.96
211.285	-47.53
211.664	-39.68
212.044	-23.75
212.424	-2.76
212.803	-4.21
213.183	-2.71
213.562	-1.55
213.942	-10.3
214.321	-25.1
214.701	-25.75
215.08	-37.31
215.459	-27.73
215.838	-34.04
216.218	-44.16
216.597	-16.32
216.976	-3.89
217.355	4.76
217.734	1.77
218.113	13.16
218.492	15.62
218.871	23.75
219.25	24.67
219.629	8.1
220.008	13.28
220.387	3
220.766	4.18
221.144	-2.51
221.523	-4.71
221.902	8.26
222.28	18.45
222.659	29.74
223.037	31.02
223.416	33.88
223.794	37.33
224.173	29.93
224.551	23.84
224.929	22.68
225.308	16.06
225.686	13.97
226.064	11.68
226.442	10.99
226.821	6.06
227.199	5.07
227.577	11.52
227.955	13.26
228.333	7.34
228.711	6.76
229.089	10.72
229.467	11.37
229.845	7.87
230.222	7.99
230.6	5.92
230.978	5.47
231.356	2.85
231.733	2.8
232.111	2.8
232.488	3.04
232.866	5.78
233.243	5.95
233.621	8.44
233.998	8.66
234.376	9.59
234.753	8.76
235.13	10.12
235.508	8.45
235.885	5.75
236.262	6.5
236.639	7.66
237.016	5.86
237.393	5.51
237.77	5.33
238.147	5.06
238.524	5.58
238.901	4.98
239.278	5.04
239.655	5.56
240.032	5.58
240.409	5.41
240.785	4.3
241.162	4.67
241.539	4.11
241.915	3.66
242.292	3.19
242.668	3.61
243.045	3.41
243.421	3.88
243.798	4.24
244.174	4.21
244.551	4
244.927	4.18
245.303	3.99
245.679	4.12
246.056	4.12
246.432	3.94
246.808	4.29
247.184	4.42
247.56	4.19
247.936	4.03
248.312	4.01
248.688	4.06
249.064	3.85
249.44	4.06
249.815	4.18
250.191	4.21
250.567	4.19
250.943	4.18
251.318	3.89
251.694	3.79
252.069	3.8
252.445	4.09
252.82	4.53
253.196	4.53
253.571	4.53
253.947	4.46
254.322	4.39
254.697	4.33
255.073	4.05
255.448	4.04
255.823	4.07
256.198	4.2
256.573	4.39
256.948	4.48
257.323	4.31
257.698	4.41
258.073	4.29
258.448	4.29
258.823	4.16
259.198	4.23
259.573	4.09
259.948	4.3
260.322	4.15
260.697	4.03
261.072	4.23
261.446	4.24
261.821	4.21
262.195	4.21
262.57	4.08
262.944	4.22
263.319	4.27
263.693	4.25
264.067	4.07
264.442	3.93
264.816	3.99
265.19	3.89
265.564	3.66
265.938	3.74
266.313	3.67
266.687	3.94
267.061	3.87
267.435	4.02
267.809	3.74
268.183	3.67
268.556	3.55
268.93	3.66
269.304	3.68
269.678	3.76
270.051	3.85
270.425	3.92
270.799	3.7
271.172	3.72
271.546	3.9
271.919	3.93
272.293	3.91
272.666	3.94
273.04	4.06
273.413	4.1
273.787	4.15
274.16	4.12
274.533	4.04
274.906	4.04
275.279	3.98
275.653	4.04
276.026	4.11
276.399	4.18
276.772	4.02
277.145	4
277.518	3.94
277.891	3.92
278.263	3.86
278.636	4.07
279.009	4.07
279.382	3.95
279.755	3.96
280.127	3.97
280.5	3.84
280.872	3.81
281.245	3.93
281.617	3.9
281.99	4.02
282.362	3.97
282.735	3.92
283.107	3.85
283.479	3.79
283.852	3.85
284.224	3.74
284.596	3.69
284.968	3.66
285.34	3.76
285.713	3.68
286.085	3.65
286.457	3.61
286.829	3.56
287.201	3.53
287.572	3.71
287.944	3.76
288.316	3.85
288.688	4
289.06	3.96
289.431	4.01
289.803	4.02
290.175	4.1
290.546	4.16
290.918	4.31
291.289	4.38
291.661	4.37
292.032	4.36
292.403	4.61
292.775	4.77
293.146	4.81
293.517	4.78
293.889	4.89
294.26	4.98
294.631	4.96
295.002	5.01
295.373	4.96
295.744	4.92
296.115	4.96
296.486	4.93
296.857	4.96
297.228	5.01
297.599	5.08
297.97	5.12
298.34	5.12
298.711	5.13
299.082	5.09
299.452	5.12
299.823	5.26
300.194	5.21
300.564	5.03
300.935	5.16
301.305	5.33
301.676	5.39
302.046	5.48
302.416	5.56
302.787	5.66
303.157	5.73
303.527	6.02
303.897	6.16
304.267	6.07
304.637	6.13
305.008	6.26
305.378	6.17
305.748	6.16
306.117	6.27
306.487	6.4
306.857	6.67
307.227	6.87
307.597	6.83
307.967	6.93
308.336	7.27
308.706	7.22
309.076	7.47
309.445	7.56
309.815	7.55
310.184	7.68
310.554	7.8
310.923	7.82
311.293	7.78
311.662	7.86
312.031	8.01
312.401	8.11
312.77	8.17
313.139	8.23
313.508	8.45
313.877	8.46
314.246	8.61
314.616	8.78
314.985	8.76
315.353	9.11
315.722	9.25
316.091	9.33
316.46	9.46
316.829	9.4
317.198	9.44
317.567	9.64
317.935	9.79
318.304	9.9
318.672	10.09
319.041	10.29
319.41	10.45
319.778	10.43
320.147	10.66
320.515	10.66
320.883	10.86
321.252	10.9
321.62	11.12
321.988	11.09
322.357	11.04
322.725	11.18
323.093	11.06
323.461	10.94
323.829	10.85
324.197	10.77
324.565	10.86
324.933	10.96
325.301	10.85
325.669	10.74
326.037	10.7
326.405	10.81
326.772	10.79
327.14	10.54
327.508	10.63
327.875	10.62
328.243	10.57
328.61	10.49
328.978	10.48
329.346	10.33
329.713	10.49
330.08	10.57
330.448	10.66
330.815	10.68
331.182	10.74
331.55	10.72
331.917	10.9
332.284	10.93
332.651	10.99
333.018	11.11
333.385	11.24
333.752	11.23
334.119	11.1
334.486	11.17
334.853	11.29
335.22	11.44
335.587	11.38
335.954	11.49
336.32	11.63
336.687	11.63
337.054	11.77
337.42	11.55
337.787	11.39
338.153	11.33
338.52	11.4
338.886	11.4
339.253	11.45
339.619	11.43
339.986	11.34
340.352	11.33
340.718	11.37
341.084	11.3
341.451	11.41
341.817	11.43
342.183	11.44
342.549	11.51
342.915	11.53
343.281	11.62
343.647	11.69
344.013	11.61
344.379	11.63
344.745	11.71
345.11	11.79
345.476	12
345.842	12.01
346.208	12.07
346.573	12.21
346.939	12.21
347.304	12.14
347.67	12.27
348.035	12.26
348.401	12.25
348.766	12.33
349.132	12.43
349.497	12.49
349.862	12.56
350.228	12.62
350.593	12.48
350.958	12.57
351.323	12.56
351.688	12.72
352.053	12.76
352.418	12.74
352.783	12.74
353.148	12.73
353.513	12.77
353.878	12.76
354.243	12.55
354.608	12.73
354.972	12.72
355.337	12.79
355.702	12.76
356.066	12.78
356.431	12.82
356.795	12.74
357.16	12.69
357.524	12.57
357.889	12.49
358.253	12.47
358.618	12.39
358.982	12.35
359.346	12.16
359.71	12.11
360.075	12.08
360.439	12.11
360.803	12.13
361.167	12.04
361.531	11.94
361.895	12.02
362.259	11.92
362.623	11.89
362.987	11.72
363.351	11.68
363.714	11.71
364.078	11.66
364.442	11.59
364.806	11.58
365.169	11.57
365.533	11.57
365.896	11.61
366.26	11.55
366.623	11.5
366.987	11.52
367.35	11.52
367.714	11.47
368.077	11.41
368.44	11.24
368.803	11.18
369.167	11.11
369.53	11.04
369.893	10.94
370.256	10.89
370.619	10.87
370.982	10.84
371.345	10.74
371.708	10.65
372.071	10.52
372.434	10.43
372.797	10.39
373.159	10.27
373.522	10.17
373.885	10.02
374.247	9.95
374.61	9.98
374.973	9.87
375.335	9.86
375.698	9.7
376.06	9.58
376.423	9.53
376.785	9.5
377.147	9.38
377.51	9.38
377.872	9.33
378.234	9.3
378.596	9.2
378.958	9.05
379.321	8.92
379.683	8.94
380.045	8.89
380.407	8.76
380.769	8.69
381.13	8.64
381.492	8.58
381.854	8.56
382.216	8.5
382.578	8.42
382.939	8.3
383.301	8.28
383.663	8.31
384.024	8.26
384.386	8.2
384.747	8.13
385.109	8.01
385.47	7.99
385.832	7.94
386.193	7.85
386.554	7.8
386.916	7.82
387.277	7.71
387.638	7.65
387.999	7.64
388.36	7.59
388.721	7.51
389.082	7.49
389.443	7.4
389.804	7.33
390.165	7.26
390.526	7.21
390.887	7.14
391.248	7.04
391.609	6.98
391.969	6.93
392.33	6.89
392.691	6.86
393.051	6.76
393.412	6.7
393.772	6.71
394.133	6.66
394.493	6.59
394.854	6.57
395.214	6.51
395.574	6.42
395.935	6.34
396.295	6.29
396.655	6.25
397.015	6.22
397.376	6.15
397.736	6.09
398.096	6.01
398.456	5.94
398.816	5.89
399.176	5.83
399.535	5.76
399.895	5.72
400.255	5.67
400.615	5.6
400.975	5.53
401.334	5.45
401.694	5.41
402.054	5.38
402.413	5.34
402.773	5.31
403.132	5.26
403.492	5.25
403.851	5.22
404.211	5.16
404.57	5.13
404.929	5.1
405.288	5.08
405.648	5.11
406.007	5.11
406.366	5.08
406.725	5.06
407.084	5.04
407.443	5.03
407.802	5.03
408.161	5.05
408.52	5.05
408.879	5.06
409.238	5.08
409.596	5.05
409.955	5.03
410.314	5
410.673	5.01
411.031	5
411.39	4.98
411.748	4.98
412.107	4.95
412.465	4.93
412.824	4.88
413.182	4.86
413.54	4.84
413.899	4.83
414.257	4.84
414.615	4.81
414.974	4.77
415.332	4.73
415.69	4.69
416.048	4.66
416.406	4.59
416.764	4.57
417.122	4.54
417.48	4.5
417.838	4.49
418.195	4.46
418.553	4.42
418.911	4.4
419.269	4.38
419.626	4.36
419.984	4.35
420.342	4.34
420.699	4.31
421.057	4.29
421.414	4.27
421.772	4.22
422.129	4.2
422.486	4.18
422.844	4.16
423.201	4.14
423.558	4.13
423.915	4.13
424.273	4.1
424.63	4.09
424.987	4.1
425.344	4.08
425.701	4.07
426.058	4.07
426.415	4.05
426.772	4.01
427.128	4
427.485	3.98
427.842	3.95
428.199	3.93
428.555	3.93
428.912	3.92
429.269	3.93
429.625	3.93
429.982	3.94
430.338	3.94
430.695	3.91
431.051	3.9
431.407	3.88
431.764	3.89
432.12	3.88
432.476	3.87
432.832	3.85
433.189	3.87
433.545	3.85
433.901	3.86
434.257	3.87
434.613	3.86
434.969	3.85
435.325	3.87
435.681	3.88
436.036	3.88
436.392	3.89
436.748	3.89
437.104	3.87
437.459	3.88
437.815	3.89
438.171	3.9
438.526	3.92
438.882	3.93
439.237	3.93
439.593	3.92
439.948	3.93
440.304	3.91
440.659	3.91
441.014	3.91
441.369	3.91
441.725	3.91
442.08	3.9
442.435	3.9
442.79	3.89
443.145	3.89
443.5	3.87
443.855	3.86
444.21	3.85
444.565	3.86
444.92	3.85
445.275	3.82
445.629	3.81
445.984	3.8
446.339	3.81
446.693	3.8
447.048	3.79
447.403	3.76
447.757	3.77
448.112	3.75
448.466	3.74
448.82	3.74
449.175	3.74
449.529	3.74
449.883	3.73
450.238	3.71
450.592	3.69
450.946	3.66
451.3	3.65
451.654	3.63
452.008	3.63
452.362	3.62
452.716	3.62
453.07	3.63
453.424	3.62
453.778	3.58
454.132	3.58
454.486	3.58
454.839	3.58
455.193	3.59
455.547	3.58
455.9	3.6
456.254	3.58
456.607	3.58
456.961	3.59
457.314	3.58
457.668	3.6
458.021	3.6
458.375	3.62
458.728	3.63
459.081	3.65
459.434	3.64
459.787	3.66
460.141	3.67
460.494	3.68
460.847	3.69
461.2	3.7
461.553	3.71
461.906	3.73
462.259	3.74
462.611	3.77
462.964	3.8
463.317	3.8
463.67	3.84
464.022	3.84
464.375	3.84
464.728	3.87
465.08	3.85
465.433	3.87
465.785	3.91
466.138	3.91
466.49	3.94
466.843	3.97
467.195	3.98
467.547	3.98
467.899	4.01
468.252	4.02
468.604	4.05
468.956	4.06
469.308	4.09
469.66	4.14
470.012	4.15
470.364	4.15
470.716	4.16
471.068	4.2
471.42	4.21
471.772	4.24
472.123	4.28
472.475	4.32
472.827	4.35
473.178	4.34
473.53	4.37
473.882	4.36
474.233	4.36
474.585	4.37
474.936	4.4
475.288	4.36
475.639	4.36
475.99	4.36
476.342	4.36
476.693	4.34
477.044	4.32
477.395	4.31
477.746	4.3
478.097	4.27
478.448	4.24
478.8	4.23
479.15	4.21
479.501	4.18
479.852	4.17
480.203	4.15
480.554	4.15
480.905	4.14
481.255	4.15
481.606	4.14
481.957	4.14
482.307	4.12
482.658	4.12
483.009	4.12
483.359	4.12
483.709	4.11
484.06	4.11
484.41	4.1
484.761	4.1
485.111	4.11
485.461	4.11
485.811	4.11
486.162	4.11
486.512	4.11
486.862	4.11
487.212	4.1
487.562	4.1
487.912	4.1
488.262	4.1
488.612	4.09
488.961	4.09
489.311	4.09
489.661	4.09
490.011	4.1
490.36	4.09
490.71	4.1
491.06	4.12
491.409	4.13
491.759	4.15
492.108	4.17
492.458	4.17
492.807	4.19
493.157	4.21
493.506	4.24
493.855	4.26
494.204	4.29
494.554	4.33
494.903	4.38
495.252	4.41
495.601	4.44
495.95	4.5
496.299	4.55
496.648	4.63
496.997	4.69
497.346	4.77
497.695	4.85
498.043	4.92
498.392	4.96
498.741	5.04
499.09	5.12
499.438	5.19
499.787	5.28
500.135	5.38
500.484	5.49
500.832	5.58
501.181	5.7
501.529	5.82
501.878	5.97
502.226	6.1
502.574	6.24
502.923	6.39
503.271	6.54
503.619	6.69
503.967	6.84
504.315	7.02
504.663	7.16
505.011	7.33
505.359	7.51
505.707	7.73
506.055	7.93
506.403	8.14
506.751	8.34
507.098	8.58
507.446	8.79
507.794	9.03
508.141	9.29
508.489	9.53
508.837	9.77
509.184	10
509.531	10.24
509.879	10.5
510.226	10.76
510.574	11.01
510.921	11.28
511.268	11.54
511.616	11.82
511.963	12.13
512.31	12.41
512.657	12.73
513.004	13.03
513.351	13.36
513.698	13.71
514.045	14.06
514.392	14.41
514.739	14.77
515.086	15.11
515.432	15.47
515.779	15.85
516.126	16.22
516.473	16.56
516.819	16.9
517.166	17.22
517.512	17.51
517.859	17.84
518.205	18.12
518.552	18.44
518.898	18.73
519.245	19.02
519.591	19.29
519.937	19.59
520.283	19.91
520.629	20.24
520.976	20.56
521.322	20.93
521.668	21.24
522.014	21.6
522.36	21.97
522.706	22.33
523.052	22.71
523.398	23.08
523.743	23.52
524.089	23.95
524.435	24.33
524.781	24.72
525.126	25.06
525.472	25.4
525.817	25.65
526.163	25.92
526.509	26.15
526.854	26.39
527.199	26.59
527.545	26.78
527.89	26.98
528.235	27.18
528.581	27.36
528.926	27.59
529.271	27.78
529.616	27.99
529.961	28.19
530.306	28.39
530.651	28.6
530.996	28.78
531.341	28.98
531.686	29.22
532.031	29.4
532.376	29.61
532.721	29.83
533.065	30.07
533.41	30.29
533.755	30.54
534.099	30.81
534.444	31.07
534.788	31.31
535.133	31.54
535.477	31.78
535.822	32.01
536.166	32.3
536.51	32.61
536.855	32.88
537.199	33.18
537.543	33.44
537.887	33.77
538.231	34.08
538.576	34.4
538.92	34.66
539.264	34.99
539.608	35.26
539.951	35.47
540.295	35.72
540.639	35.95
540.983	36.17
541.327	36.38
541.671	36.56
542.014	36.78
542.358	36.98
542.701	37.17
543.045	37.36
543.389	37.51
543.732	37.65
544.075	37.81
544.419	37.99
544.762	38.2
545.105	38.38
545.449	38.54
545.792	38.7
546.135	38.89
546.478	39.1
546.821	39.29
547.165	39.53
547.508	39.74
547.851	39.96
548.194	40.19
548.536	40.38
548.879	40.58
549.222	40.8
549.565	41
549.908	41.17
550.25	41.42
550.593	41.6
550.936	41.81
551.278	42.03
551.621	42.18
551.963	42.33
552.306	42.5
552.648	42.72
552.991	42.88
553.333	43.08
553.675	43.21
554.017	43.35
554.36	43.51
554.702	43.61
555.044	43.72
555.386	43.8
555.728	43.94
556.07	44.06
556.412	44.18
556.754	44.29
557.096	44.44
557.438	44.54
557.78	44.68
558.121	44.78
558.463	44.92
558.805	45.12
559.147	45.3
559.488	45.37
559.83	45.48
560.171	45.63
560.513	45.76
560.854	45.87
561.196	46.03
561.537	46.14
561.878	46.29
562.22	46.42
562.561	46.58
562.902	46.67
563.243	46.81
563.584	46.93
563.925	47.05
564.266	47.13
564.607	47.19
564.948	47.24
565.289	47.37
565.63	47.42
565.971	47.52
566.312	47.6
566.653	47.75
566.993	47.85
567.334	47.93
567.675	48.04
568.015	48.18
568.356	48.26
568.696	48.35
569.037	48.43
569.377	48.54
569.718	48.59
570.058	48.69
570.398	48.81
570.739	48.86
571.079	48.96
571.419	49.01
571.759	49.14
572.099	49.25
572.439	49.31
572.779	49.33
573.119	49.39
573.459	49.44
573.799	49.5
574.139	49.55
574.479	49.59
574.819	49.64
575.158	49.69
575.498	49.76
575.838	49.87
576.177	49.92
576.517	49.97
576.856	50.06
577.196	50.14
577.535	50.18
577.875	50.25
578.214	50.29
578.553	50.4
578.893	50.46
579.232	50.55
579.571	50.68
579.91	50.82
580.25	50.87
580.589	50.85
580.928	51.01
581.267	51.08
581.606	51.2
581.945	51.25
582.283	51.3
582.622	51.32
582.961	51.34
583.3	51.34
583.639	51.38
583.977	51.36
584.316	51.37
584.654	51.44
584.993	51.45
585.332	51.57
585.67	51.67
586.008	51.7
586.347	51.75
586.685	51.83
587.024	51.91
587.362	51.96
587.7	52.1
588.038	52.12
588.376	52.18
588.715	52.18
589.053	52.26
589.391	52.33
589.729	52.41
590.067	52.48
590.404	52.62
590.742	52.67
591.08	52.84
591.418	52.88
591.756	52.98
592.093	53.12
592.431	53.16
592.769	53.17
593.106	53.27
593.444	53.32
593.781	53.39
594.119	53.46
594.456	53.54
594.793	53.65
595.131	53.65
595.468	53.63
595.805	53.73
596.143	53.77
596.48	53.8
596.817	53.8
597.154	53.78
597.491	53.85
597.828	53.89
598.165	53.91
598.502	53.96
598.839	54.02
599.176	54.03
599.512	54.07
599.849	54.1
600.186	54.16
600.523	54.2
600.859	54.19
601.196	54.22
601.532	54.25
601.869	54.27
602.205	54.28
602.542	54.41
602.878	54.46
603.215	54.52
603.551	54.53
603.887	54.58
604.223	54.61
604.56	54.64
604.896	54.73
605.232	54.75
605.568	54.79
605.904	54.79
606.24	54.84
606.576	54.89
606.912	54.94
607.248	54.95
607.583	54.97
607.919	54.96
608.255	54.96
608.591	55.03
608.926	55.06
609.262	55.05
609.597	55.08
609.933	55.08
610.268	55.06
610.604	55.09
610.939	55.16
611.275	55.3
611.61	55.31
611.945	55.35
612.281	55.35
612.616	55.38
612.951	55.36
613.286	55.41
613.621	55.45
613.956	55.5
614.291	55.54
614.626	55.57
614.961	55.64
615.296	55.67
615.631	55.61
615.966	55.55
616.3	55.63
616.635	55.56
616.97	55.59
617.304	55.66
617.639	55.77
617.973	55.72
618.308	55.62
618.642	55.62
618.977	55.54
619.311	55.54
619.646	55.58
619.98	55.63
620.314	55.57
620.648	55.5
620.983	55.58
621.317	55.51
621.651	55.57
621.985	55.65
622.319	55.63
622.653	55.71
622.987	55.8
623.321	55.87
623.655	55.95
623.988	56.02
624.322	56.01
624.656	55.97
624.99	56.08
625.323	56.15
625.657	56.21
625.99	56.23
626.324	56.3
626.657	56.31
626.991	56.3
627.324	56.41
627.658	56.44
627.991	56.44
628.324	56.52
628.657	56.47
628.991	56.5
629.324	56.59
629.657	56.52
629.99	56.55
630.323	56.51
630.656	56.5
630.989	56.47
631.322	56.57
631.655	56.71
631.987	56.7
632.32	56.64
632.653	56.59
632.986	56.61
633.318	56.57
633.651	56.66
633.984	56.67
634.316	56.63
634.649	56.68
634.981	56.68
635.313	56.75
635.646	56.81
635.978	56.85
636.31	56.81
636.643	56.88
636.975	56.87
637.307	56.99
637.639	57.06
637.971	57.02
638.303	56.91
638.635	56.81
638.967	56.85
639.299	56.91
639.631	56.99
639.963	57.09
640.295	57.11
640.626	56.93
640.958	57.11
641.29	57.13
641.621	57.22
641.953	57.17
642.285	57.14
642.616	57.16
642.948	57.18
643.279	57.23
643.61	57.3
643.942	57.35
644.273	57.22
644.604	57.19
644.936	57.33
645.267	57.29
645.598	57.3
645.929	57.26
646.26	57.31
646.591	57.26
646.922	57.22
647.253	57.34
647.584	57.52
647.915	57.41
648.245	57.42
648.576	57.35
648.907	57.44
649.238	57.4
649.568	57.43
649.899	57.42
650.229	57.44
650.56	57.39
650.89	57.41
651.221	57.51
651.551	57.57
651.882	57.55
652.212	57.66
652.542	57.75
652.872	57.77
653.203	57.65
653.533	57.63
653.863	57.66
654.193	57.55
654.523	57.54
654.853	57.66
655.183	57.63
655.513	57.78
655.843	57.72
656.172	57.75
656.502	57.75
656.832	57.74
657.162	57.78
657.491	57.85
657.821	57.9
658.15	57.99
658.48	57.98
658.809	58.04
659.139	58.05
659.468	57.98
659.798	57.93
660.127	58.05
660.456	58.15
660.785	58.17
661.115	58.27
661.444	58.16
661.773	58.12
662.102	58.18
662.431	58.06
662.76	58.1
663.089	58.17
663.418	58.18
663.747	58.17
664.076	58.16
664.404	58.08
664.733	57.93
665.062	57.96
665.39	57.86
665.719	57.82
666.048	57.85
666.376	57.84
666.705	57.88
667.033	57.88
667.362	57.88
667.69	57.85
668.018	57.9
668.347	58.07
668.675	58.07
669.003	58.1
669.331	58.07
669.659	58.14
669.987	58.02
670.315	57.96
670.643	58.04
670.971	58.04
671.299	58.09
671.627	58.34
671.955	58.18
672.283	58.32
672.61	58.27
672.938	58.23
673.266	58.2
673.593	58.2
673.921	58.22
674.249	58.2
674.576	58.19
674.904	58.19
675.231	58.17
675.558	58.22
675.886	58.33
676.213	58.4
676.54	58.43
676.867	58.67
677.195	58.8
677.522	58.84
677.849	58.77
678.176	58.83
678.503	58.78
678.83	58.74
679.157	58.81
679.484	58.75
679.81	58.91
680.137	58.98
680.464	59.03
680.791	58.94
681.117	59.06
681.444	59.14
681.771	59.13
682.097	59.07
682.424	59.07
682.75	58.94
683.077	58.95
683.403	59.02
683.729	58.94
684.056	58.89
684.382	58.94
684.708	59.03
685.034	59.17
685.36	59.22
685.686	59.22
686.012	59.11
686.339	59.22
686.664	59.1
686.99	59.13
687.316	59.24
687.642	59.35
687.968	59.29
688.294	59.28
688.619	59.39
688.945	59.53
689.271	59.57
689.596	59.51
689.922	59.41
690.247	59.26
690.573	59.15
690.898	59.3
691.224	59.26
691.549	59.55
691.874	59.52
692.2	59.49
692.525	59.61
692.85	59.81
693.175	59.82
693.5	59.8
693.825	59.76
694.15	59.65
694.475	59.7
694.8	59.76
695.125	59.72
695.45	59.65
695.775	59.69
696.099	59.77
696.424	59.86
696.749	60.14
697.073	60.2
697.398	60.2
697.723	60.13
698.047	60.1
698.372	59.85
698.696	59.83
699.02	59.76
699.345	59.79
699.669	59.65
699.993	59.78
700.318	59.96
700.642	60.09
700.966	60.14
701.29	60.17
701.614	60.12
701.938	60.27
702.262	60.4
702.586	60.34
702.91	60.28
703.234	60.3
703.557	60.08
703.881	60.26
704.205	60.24
704.529	60.19
704.852	60.19
705.176	60.29
705.499	60.05
705.823	60.04
706.146	59.91
706.47	60.11
706.793	60
707.117	59.96
707.44	59.95
707.763	59.87
708.086	59.93
708.409	59.88
708.733	59.78
709.056	59.66
709.379	59.62
709.702	59.52
710.025	59.56
710.348	59.75
710.671	59.58
710.993	59.82
711.316	59.92
711.639	59.91
711.962	59.87
712.284	60.03
712.607	60.11
712.93	60.16
713.252	60.06
713.575	60.03
713.897	59.89
714.22	59.83
714.542	60.03
714.864	59.94
715.187	59.97
715.509	59.87
715.831	59.98
716.153	60.06
716.475	60.09
716.798	60.15
717.12	60.03
717.442	60.03
717.764	60.09
718.085	60.03
718.407	60.13
718.729	60.25
719.051	60.17
719.373	60.19
719.695	60.28
720.016	60.22
720.338	60.07
720.659	60.21
720.981	60.05
721.302	60.05
721.624	60.15
721.945	60.41
722.267	60.71
722.588	60.48
722.909	60.32
723.231	60.2
723.552	60.16
723.873	60.17
724.194	60.2
724.515	60
724.836	59.93
725.157	59.89
725.478	59.76
725.799	60.03
726.12	60.01
726.441	59.74
726.762	60.1
727.083	60.12
727.403	60.03
727.724	60.3
728.045	60.23
728.365	60.33
728.686	60.22
729.006	60.21
729.327	60.34
729.647	60.48
729.967	60.6
730.288	60.74
730.608	60.67
730.928	60.84
731.249	61.05
731.569	61.11
731.889	61.08
732.209	61.02
732.529	60.8
732.849	60.97
733.169	61.1
733.489	60.97
733.809	61.15
734.129	61.31
734.448	61.37
734.768	61.19
735.088	61.09
735.408	61.07
735.727	60.95
736.047	60.77
736.366	60.84
736.686	60.82
737.005	60.61
737.325	60.8
737.644	60.72
737.963	60.72
738.283	60.82
738.602	60.75
738.921	60.75
739.24	60.53
739.56	60.45
739.879	60.61
740.198	60.4
740.517	60.11
740.836	59.94
741.155	59.61
741.473	59.47
741.792	59.58
742.111	59.72
742.43	59.61
742.748	59.86
743.067	59.98
743.386	60.08
743.704	60.06
744.023	59.99
744.341	59.78
744.66	59.45
744.978	59.33
745.297	59.41
745.615	59.49
745.933	59.9
746.252	59.98
746.57	60.08
746.888	60.22
747.206	60.87
747.524	60.57
747.842	60.85
748.16	61.3
748.478	61.15
748.796	61.06
749.114	61.27
749.432	61.14
749.749	61.04
750.067	60.98
750.385	61.36
750.703	61.47
751.02	61.54
751.338	61.89
751.655	62.18
751.973	62.18
752.29	62.25
752.608	62.32
752.925	62.28
753.242	62.14
753.56	61.79
753.877	61.53
754.194	61.72
754.511	61.85
754.828	61.7
755.145	61.78
755.462	61.4
755.779	61.23
756.096	61.32
756.413	60.93
756.73	61.07
757.047	60.78
757.364	60.99
757.68	61.05
757.997	60.97
758.314	60.87
758.63	60.51
758.947	60.62
759.264	60.4
759.58	60.3
759.896	60.26
760.213	60.51
760.529	60.36
760.846	60.9
761.162	60.87
761.478	60.81
761.794	60.77
762.11	61.09
762.426	61.04
762.743	60.87
763.059	61.15
763.375	61
763.69	60.98
764.006	60.64
764.322	60.7
764.638	60.96
764.954	61.13
765.27	61.65
765.585	61.54
765.901	61.68
766.216	61.76
766.532	61.88
766.848	61.96
767.163	62.23
767.478	62.21
767.794	62.25
768.109	62.38
768.424	62.29
768.74	62.33
769.055	62.6
769.37	63.01
769.685	62.76
770	62.8
770.315	62.98
770.63	63.28
770.945	63.48
771.26	63.09
771.575	62.84
771.89	62.55
772.205	62.24
772.52	61.9
772.834	61.43
773.149	61.59
773.464	61.36
773.778	60.95
774.093	60.62
774.407	60.37
774.722	60.44
775.036	60.88
775.351	60.98
775.665	60.65
775.979	60.45
776.293	60.9
776.608	61.03
776.922	60.93
777.236	61.13
777.55	61.09
777.864	60.86
778.178	61.2
778.492	61.06
778.806	61.51
779.12	61.33
779.434	62.05
779.747	61.88
780.061	61.78
780.375	62.15
780.689	62.04
781.002	62.6
781.316	62.41
781.629	62.61
781.943	62.52
782.256	62.93
782.57	63.41
782.883	63.02
783.196	63.15
783.51	62.91
783.823	63.01
784.136	62.86
784.449	62.71
784.762	62.65
785.075	63.45
785.388	62.94
785.701	63.71
786.014	63.47
786.327	63.2
786.64	63.82
786.953	63.99
787.266	64.13
787.578	64.07
787.891	64.1
788.204	63.56
788.516	63.32
788.829	63.6
789.141	62.99
789.454	62.96
789.766	63.08
790.079	63.66
790.391	63.39
790.703	63.57
791.016	64.03
791.328	64.02
791.64	62.94
791.952	63.75
792.264	63.4
792.576	63.58
792.888	63.57
793.2	63.69
793.512	63.38
793.824	62.95
794.136	62.82
794.448	63.1
794.76	63.77
795.071	63.83
795.383	63.12
795.695	63.65
796.006	64.19
796.318	64.05
796.629	63.15
796.941	62.7
797.252	62.83
797.564	63.13
797.875	63
798.186	64.06
798.497	63.88
798.809	64.3
799.12	63.95
799.431	64.77
799.742	64.4
800.053	64.24
800.364	64.98
800.675	64.71
800.986	64.75
801.297	64.14
801.608	64.12
801.918	64.32
802.229	63.95
802.54	63.81
802.851	63.3
803.161	64.51
803.472	64.84
803.782	64.82
804.093	64.44
804.403	64.26
804.714	63.42
805.024	63.33
805.334	63.48
805.645	64.36
805.955	64.11
806.265	64.14
806.575	64.29
806.885	63.71
807.195	64.36
807.505	64.33
807.815	64.99
808.125	64.95
808.435	64.93
808.745	64.9
809.055	64.82
809.365	65.64
809.674	64.79
809.984	64.98
810.294	64.29
810.603	64.62
810.913	64.34
811.222	64.44
811.532	64.36
811.841	64.36
812.151	63.37
812.46	63.3
812.769	63.63
813.079	63.51
813.388	64.18
813.697	62.86
814.006	62.04
814.315	61.47
814.624	61.99
814.933	61.77
815.242	61.86
815.551	62.91
815.86	63.1
816.169	63.22
816.478	62.88
816.786	62.83
817.095	62.74
817.404	62.92
817.712	62.73
818.021	62.85
818.33	62.03
818.638	61.85
818.947	61.91
819.255	61.78
819.563	61.56
819.872	61.34
820.18	61.83
820.488	62.09
820.796	61.93
821.105	62.18
821.413	62.07
821.721	62.21
822.029	61.82
822.337	61.73
822.645	61.75
822.953	61.73
823.26	61.75
823.568	61.78
823.876	61.87
824.184	61.98
824.491	62.08
824.799	62.36
825.107	62.25
825.414	62.2
825.722	62.2
826.029	62.37
826.337	62.27
826.644	62.08
826.951	62.06
827.259	62.23
827.566	62.03
827.873	62.17
828.18	62.22
828.488	62.28
828.795	62.24
829.102	62.34
829.409	62.24
829.716	62.42
830.023	62.5
830.329	62.56
830.636	62.44
830.943	62.06
831.25	61.67
831.557	61.93
831.863	62.09
832.17	62.02
832.476	62.13
832.783	62.59
833.089	63
833.396	63.39
833.702	63.04
834.009	62.87
834.315	62.88
834.621	62.71
834.928	62.57
835.234	62.16
835.54	62.18
835.846	62.61
836.152	62.6
836.458	62.51
836.764	62.16
837.07	61.5
837.376	61.7
837.682	62.03
837.988	62.3
838.293	62.05
838.599	62.22
838.905	61.98
839.211	61.71
839.516	61.92
839.822	61.65
840.127	61.78
840.433	62.2
840.738	62.95
841.044	62.67
841.349	62.84
841.654	63.99
841.959	63.95
842.265	63.82
842.57	62.75
842.875	62.13
843.18	62.41
843.485	64.57
843.79	63.9
844.095	63.64
844.4	62.26
844.705	61.63
845.01	62.66
845.315	63.3
845.619	64.02
845.924	64.29
846.229	63.72
846.533	64.75
846.838	64.16
847.142	61.77
847.447	61.91
847.751	62.21
848.056	61.23
848.36	61.14
848.664	61.14
848.969	63.28
849.273	62.05
849.577	62.22
849.881	61.75
850.185	63.12
850.489	62.21
850.794	64.36
851.097	64.79
851.401	62.77
851.705	61.5
852.009	61.07
852.313	57.59
852.617	57.97
852.92	57.86
853.224	57
853.528	58.83
853.831	57.5
854.135	59.27
854.438	60.33
854.742	60.84
855.045	60.53
855.349	60.64
855.652	61.63
855.955	62.57
856.259	61.6
856.562	61.16
856.865	61.48
857.168	59.88
857.471	59.5
857.774	59.41
858.077	60.97
858.38	59.93
858.683	63
858.986	62.55
859.289	62.38
859.592	65
859.894	65.72
860.197	65.59
860.5	65.91
860.802	64.06
861.105	63.73
861.407	64.13
861.71	63.42
862.012	64.04
862.315	63.76
862.617	65.77
862.919	65.25
863.222	64.19
863.524	66.95
863.826	68.96
864.128	70.19
864.43	67.34
864.732	67.61
865.034	66.87
865.336	66.51
865.638	64.79
865.94	64.54
866.242	64.03
866.544	66.89
866.846	65.52
867.147	66.35
867.449	64.96
867.751	65.17
868.052	64.63
868.354	61.97
868.655	60.67
868.957	59.73
869.258	60
869.56	59.86
869.861	58.1
870.162	59.37
870.463	59.36
870.765	60.86
871.066	63.71
871.367	60.48
871.668	62.57
871.969	63.97
872.27	59.92
872.571	59.08
872.872	55.95
873.173	54.23
873.473	55.84
873.774	55.99
874.075	56.32
874.376	56.51
874.676	58.88
874.977	60.78
875.277	61.84
875.578	62.99
875.878	64.62
876.179	65.93
876.479	63.62
876.78	62.54
877.08	62.24
877.38	58.18
877.68	61.9
877.981	60.1
878.281	59.77
878.581	63.89
