Data from BU26946_Reflection_00008.txt Node
Date: Tue Nov 19 10:52:04 EST 2019
User: vgr7
Spectrometer: USB2G7710
Scans to average: 3
Trigger mode: 4
Integration Time (sec): 2.000000E-2
Electric dark correction enabled: true
Boxcar width: 10
XAxis mode: Wavelengths
Number of Pixels in Spectrum: 2048
>>>>>Begin Spectral Data<<<<<
177.721	122.26
178.105	59.46
178.488	-201.86
178.871	-357.89
179.254	485.71
179.636	0.94
180.019	65.12
180.402	250
180.785	261.54
181.168	64.11
181.55	73.99
181.933	60.62
182.316	19.26
182.698	-0.77
183.081	40.53
183.463	167.16
183.846	183.85
184.228	275.59
184.611	530.07
184.993	356.36
185.376	1919.15
185.758	-262.82
186.14	-292.31
186.522	-201.9
186.904	-161.29
187.287	-177.65
187.669	-111
188.051	-214.74
188.433	-185.61
188.815	-148.18
189.197	-145.65
189.579	-109.37
189.961	-93.82
190.342	-65.37
190.724	-64.58
191.106	-71.45
191.488	-81.51
191.869	-75.92
192.251	-57.67
192.633	-61.88
193.014	-63.16
193.396	-63.83
193.777	-64.29
194.159	-57.17
194.54	-62.38
194.922	-61.08
195.303	-71.55
195.684	-93.7
196.065	-66.83
196.447	-69.7
196.828	-59.8
197.209	-52.88
197.59	-61.41
197.971	-58.8
198.352	-72.57
198.733	-106.23
199.114	-84.45
199.495	-71
199.876	-36.04
200.257	-32.01
200.638	-12.48
201.018	8.01
201.399	12.25
201.78	18.89
202.16	-16.4
202.541	-13.56
202.922	-23.91
203.302	-4.42
203.683	4.5
204.063	0.5
204.444	-3.57
204.824	-11.65
205.204	-5.99
205.585	-1.13
205.965	-12.21
206.345	-18.96
206.725	-6.35
207.106	-6.77
207.486	5.23
207.866	-8.56
208.246	1.12
208.626	-13.49
209.006	-20.27
209.386	-28.76
209.766	-40.77
210.145	-18.43
210.525	-29.67
210.905	-28.65
211.285	-23.18
211.664	-16.82
212.044	-21.27
212.424	-18.5
212.803	-10.77
213.183	-19.76
213.562	-20.4
213.942	-18.82
214.321	-28.18
214.701	-36.45
215.08	-31.23
215.459	-29.86
215.838	-35.02
216.218	-49.8
216.597	-39.77
216.976	-61.28
217.355	-44.34
217.734	-41.01
218.113	-48.16
218.492	-22.04
218.871	-12.86
219.25	-28.4
219.629	-77.57
220.008	-75.45
220.387	-52.09
220.766	-51.58
221.144	-14.8
221.523	-29.24
221.902	14.7
222.28	37.89
222.659	42.67
223.037	27.63
223.416	23.96
223.794	20.93
224.173	20.82
224.551	15.57
224.929	26.49
225.308	20.48
225.686	12.47
226.064	5.77
226.442	7.67
226.821	5.79
227.199	8.38
227.577	8.26
227.955	7.68
228.333	4.34
228.711	1.6
229.089	-0.67
229.467	-0.69
229.845	-5.03
230.222	-3.99
230.6	-7.55
230.978	-6.2
231.356	-5.51
231.733	-6.82
232.111	-5.61
232.488	-3.87
232.866	-4.23
233.243	-3.61
233.621	-2.01
233.998	-0.65
234.376	-2.27
234.753	-3.07
235.13	-4.55
235.508	-3.23
235.885	-3.07
236.262	-2.84
236.639	-3.5
237.016	-3.53
237.393	-2.78
237.77	-1.03
238.147	-1.62
238.524	-1.16
238.901	-1.22
239.278	-1.1
239.655	-0.87
240.032	-0.47
240.409	-1.07
240.785	-1.14
241.162	-0.74
241.539	-1.32
241.915	-1.38
242.292	-0.82
242.668	-0.66
243.045	0.09
243.421	0.34
243.798	0.31
244.174	0.77
244.551	1.28
244.927	1.46
245.303	1.33
245.679	1.22
246.056	1.21
246.432	1.3
246.808	1.39
247.184	1.43
247.56	1.42
247.936	1.23
248.312	1.43
248.688	1.35
249.064	1.24
249.44	1.26
249.815	1.43
250.191	1.28
250.567	1.32
250.943	1.08
251.318	0.96
251.694	0.98
252.069	0.69
252.445	0.32
252.82	0.25
253.196	0.35
253.571	0.27
253.947	0.61
254.322	0.79
254.697	1.03
255.073	0.72
255.448	0.8
255.823	0.67
256.198	0.68
256.573	0.9
256.948	0.9
257.323	1.06
257.698	1.02
258.073	1.09
258.448	1.05
258.823	1.09
259.198	1.11
259.573	1.08
259.948	1.27
260.322	1.35
260.697	1.42
261.072	1.44
261.446	1.53
261.821	1.5
262.195	1.42
262.57	1.37
262.944	1.37
263.319	1.4
263.693	1.52
264.067	1.44
264.442	1.49
264.816	1.62
265.19	1.75
265.564	1.74
265.938	1.73
266.313	1.78
266.687	1.89
267.061	1.69
267.435	1.77
267.809	1.54
268.183	1.59
268.556	1.19
268.93	1.27
269.304	1.21
269.678	1.22
270.051	1.2
270.425	1.18
270.799	1.25
271.172	1.03
271.546	1.07
271.919	1.15
272.293	1.23
272.666	1.07
273.04	0.89
273.413	0.87
273.787	0.92
274.16	0.9
274.533	0.85
274.906	1.06
275.279	1.06
275.653	1.11
276.026	1.02
276.399	1.21
276.772	1
277.145	0.98
277.518	0.88
277.891	0.95
278.263	0.91
278.636	0.85
279.009	1.13
279.382	1.1
279.755	1.1
280.127	0.94
280.5	0.9
280.872	1.02
281.245	1.04
281.617	1.01
281.99	1.1
282.362	1.11
282.735	1.1
283.107	1.08
283.479	1.13
283.852	1.3
284.224	1.34
284.596	1.45
284.968	1.58
285.34	1.65
285.713	1.66
286.085	1.65
286.457	1.7
286.829	1.59
287.201	1.56
287.572	1.43
287.944	1.52
288.316	1.58
288.688	1.69
289.06	1.67
289.431	1.72
289.803	1.65
290.175	1.67
290.546	1.56
290.918	1.49
291.289	1.44
291.661	1.31
292.032	1.46
292.403	1.48
292.775	1.4
293.146	1.34
293.517	1.43
293.889	1.55
294.26	1.61
294.631	1.64
295.002	1.7
295.373	2.01
295.744	1.91
296.115	1.98
296.486	1.93
296.857	2.03
297.228	2.08
297.599	2.16
297.97	2.09
298.34	2.26
298.711	2.34
299.082	2.38
299.452	2.4
299.823	2.43
300.194	2.58
300.564	2.53
300.935	2.58
301.305	2.6
301.676	2.45
302.046	2.42
302.416	2.52
302.787	2.54
303.157	2.46
303.527	2.64
303.897	2.59
304.267	2.54
304.637	2.62
305.008	2.5
305.378	2.59
305.748	2.73
306.117	2.62
306.487	2.75
306.857	2.88
307.227	3.12
307.597	3.17
307.967	3.11
308.336	3.26
308.706	3.34
309.076	3.32
309.445	3.54
309.815	3.65
310.184	3.7
310.554	3.73
310.923	3.63
311.293	3.62
311.662	3.79
312.031	3.91
312.401	3.87
312.77	4.02
313.139	3.96
313.508	3.97
313.877	4.03
314.246	4.02
314.616	4.02
314.985	3.92
315.353	4.01
315.722	4.16
316.091	4.18
316.46	4.32
316.829	4.3
317.198	4.22
317.567	4.24
317.935	4.33
318.304	4.52
318.672	4.89
319.041	5.08
319.41	5.13
319.778	5.19
320.147	5.34
320.515	5.33
320.883	5.48
321.252	5.63
321.62	5.56
321.988	5.82
322.357	5.91
322.725	6.02
323.093	5.89
323.461	5.86
323.829	5.96
324.197	5.95
324.565	6.1
324.933	6.19
325.301	6.07
325.669	6.05
326.037	5.97
326.405	5.89
326.772	5.87
327.14	5.7
327.508	5.68
327.875	5.79
328.243	5.9
328.61	5.94
328.978	5.89
329.346	6.17
329.713	6.12
330.08	6.21
330.448	6.23
330.815	6.41
331.182	6.47
331.55	6.49
331.917	6.52
332.284	6.61
332.651	6.78
333.018	6.98
333.385	7.13
333.752	7.11
334.119	7.18
334.486	7.26
334.853	7.45
335.22	7.52
335.587	7.4
335.954	7.38
336.32	7.36
336.687	7.4
337.054	7.49
337.42	7.37
337.787	7.35
338.153	7.38
338.52	7.37
338.886	7.41
339.253	7.51
339.619	7.45
339.986	7.43
340.352	7.32
340.718	7.35
341.084	7.29
341.451	7.38
341.817	7.35
342.183	7.25
342.549	7.21
342.915	7.31
343.281	7.35
343.647	7.43
344.013	7.48
344.379	7.48
344.745	7.42
345.11	7.52
345.476	7.59
345.842	7.53
346.208	7.59
346.573	7.62
346.939	7.56
347.304	7.65
347.67	7.63
348.035	7.66
348.401	7.63
348.766	7.6
349.132	7.7
349.497	7.75
349.862	7.75
350.228	7.74
350.593	7.68
350.958	7.67
351.323	7.64
351.688	7.62
352.053	7.66
352.418	7.63
352.783	7.64
353.148	7.64
353.513	7.74
353.878	7.7
354.243	7.58
354.608	7.63
354.972	7.65
355.337	7.72
355.702	7.73
356.066	7.76
356.431	7.75
356.795	7.78
357.16	7.73
357.524	7.84
357.889	7.88
358.253	7.92
358.618	7.93
358.982	7.86
359.346	7.83
359.71	7.82
360.075	7.82
360.439	7.9
360.803	7.9
361.167	7.9
361.531	7.9
361.895	7.98
362.259	7.94
362.623	7.92
362.987	7.87
363.351	7.86
363.714	7.79
364.078	7.82
364.442	7.72
364.806	7.71
365.169	7.66
365.533	7.63
365.896	7.63
366.26	7.58
366.623	7.58
366.987	7.58
367.35	7.53
367.714	7.51
368.077	7.43
368.44	7.37
368.803	7.27
369.167	7.18
369.53	7.08
369.893	7.06
370.256	7
370.619	6.97
370.982	6.91
371.345	6.92
371.708	6.91
372.071	6.85
372.434	6.79
372.797	6.78
373.159	6.75
373.522	6.64
373.885	6.66
374.247	6.61
374.61	6.53
374.973	6.52
375.335	6.42
375.698	6.29
376.06	6.23
376.423	6.15
376.785	6.11
377.147	6.02
377.51	5.95
377.872	5.89
378.234	5.89
378.596	5.88
378.958	5.87
379.321	5.76
379.683	5.71
380.045	5.67
380.407	5.56
380.769	5.5
381.13	5.43
381.492	5.35
381.854	5.29
382.216	5.3
382.578	5.23
382.939	5.2
383.301	5.17
383.663	5.14
384.024	5.15
384.386	5.12
384.747	5.1
385.109	5.06
385.47	5.05
385.832	4.97
386.193	4.94
386.554	4.82
386.916	4.79
387.277	4.79
387.638	4.75
387.999	4.7
388.36	4.68
388.721	4.68
389.082	4.68
389.443	4.69
389.804	4.63
390.165	4.59
390.526	4.56
390.887	4.52
391.248	4.5
391.609	4.48
391.969	4.45
392.33	4.42
392.691	4.38
393.051	4.3
393.412	4.27
393.772	4.18
394.133	4.17
394.493	4.12
394.854	4.06
395.214	4.04
395.574	3.99
395.935	3.96
396.295	3.89
396.655	3.82
397.015	3.77
397.376	3.76
397.736	3.71
398.096	3.68
398.456	3.64
398.816	3.58
399.176	3.5
399.535	3.44
399.895	3.38
400.255	3.39
400.615	3.38
400.975	3.34
401.334	3.33
401.694	3.32
402.054	3.35
402.413	3.35
402.773	3.33
403.132	3.31
403.492	3.27
403.851	3.25
404.211	3.21
404.57	3.19
404.929	3.12
405.288	3.14
405.648	3.13
406.007	3.14
406.366	3.14
406.725	3.16
407.084	3.18
407.443	3.19
407.802	3.15
408.161	3.19
408.52	3.19
408.879	3.18
409.238	3.15
409.596	3.11
409.955	3.08
410.314	3.06
410.673	3.05
411.031	3.06
411.39	3.07
411.748	3.07
412.107	3.07
412.465	3.06
412.824	3.02
413.182	3.02
413.54	3.01
413.899	2.97
414.257	2.94
414.615	2.9
414.974	2.9
415.332	2.89
415.69	2.84
416.048	2.82
416.406	2.8
416.764	2.8
417.122	2.76
417.48	2.72
417.838	2.71
418.195	2.69
418.553	2.66
418.911	2.64
419.269	2.63
419.626	2.62
419.984	2.61
420.342	2.6
420.699	2.56
421.057	2.54
421.414	2.54
421.772	2.53
422.129	2.51
422.486	2.48
422.844	2.46
423.201	2.45
423.558	2.45
423.915	2.43
424.273	2.41
424.63	2.4
424.987	2.41
425.344	2.41
425.701	2.4
426.058	2.4
426.415	2.39
426.772	2.36
427.128	2.36
427.485	2.36
427.842	2.34
428.199	2.35
428.555	2.32
428.912	2.28
429.269	2.28
429.625	2.3
429.982	2.3
430.338	2.31
430.695	2.29
431.051	2.27
431.407	2.29
431.764	2.3
432.12	2.3
432.476	2.29
432.832	2.28
433.189	2.28
433.545	2.29
433.901	2.29
434.257	2.32
434.613	2.29
434.969	2.28
435.325	2.29
435.681	2.28
436.036	2.31
436.392	2.33
436.748	2.34
437.104	2.32
437.459	2.33
437.815	2.33
438.171	2.33
438.526	2.33
438.882	2.34
439.237	2.34
439.593	2.36
439.948	2.36
440.304	2.36
440.659	2.35
441.014	2.34
441.369	2.34
441.725	2.34
442.08	2.35
442.435	2.34
442.79	2.34
443.145	2.35
443.5	2.34
443.855	2.32
444.21	2.3
444.565	2.3
444.92	2.3
445.275	2.3
445.629	2.31
445.984	2.3
446.339	2.29
446.693	2.28
447.048	2.26
447.403	2.25
447.757	2.26
448.112	2.26
448.466	2.25
448.82	2.25
449.175	2.24
449.529	2.24
449.883	2.24
450.238	2.23
450.592	2.21
450.946	2.2
451.3	2.21
451.654	2.18
452.008	2.18
452.362	2.18
452.716	2.18
453.07	2.17
453.424	2.16
453.778	2.14
454.132	2.12
454.486	2.12
454.839	2.11
455.193	2.1
455.547	2.1
455.9	2.11
456.254	2.1
456.607	2.1
456.961	2.09
457.314	2.1
457.668	2.08
458.021	2.1
458.375	2.11
458.728	2.1
459.081	2.11
459.434	2.12
459.787	2.12
460.141	2.11
460.494	2.12
460.847	2.12
461.2	2.14
461.553	2.15
461.906	2.17
462.259	2.16
462.611	2.14
462.964	2.16
463.317	2.15
463.67	2.17
464.022	2.19
464.375	2.19
464.728	2.19
465.08	2.21
465.433	2.22
465.785	2.24
466.138	2.26
466.49	2.29
466.843	2.31
467.195	2.3
467.547	2.33
467.899	2.36
468.252	2.37
468.604	2.37
468.956	2.37
469.308	2.4
469.66	2.44
470.012	2.47
470.364	2.49
470.716	2.51
471.068	2.51
471.42	2.53
471.772	2.56
472.123	2.58
472.475	2.61
472.827	2.61
473.178	2.6
473.53	2.6
473.882	2.64
474.233	2.63
474.585	2.65
474.936	2.64
475.288	2.62
475.639	2.66
475.99	2.65
476.342	2.69
476.693	2.68
477.044	2.68
477.395	2.67
477.746	2.66
478.097	2.66
478.448	2.65
478.8	2.64
479.15	2.61
479.501	2.59
479.852	2.57
480.203	2.57
480.554	2.56
480.905	2.54
481.255	2.52
481.606	2.52
481.957	2.51
482.307	2.5
482.658	2.5
483.009	2.49
483.359	2.47
483.709	2.46
484.06	2.45
484.41	2.45
484.761	2.45
485.111	2.45
485.461	2.44
485.811	2.44
486.162	2.43
486.512	2.43
486.862	2.43
487.212	2.42
487.562	2.41
487.912	2.41
488.262	2.43
488.612	2.42
488.961	2.42
489.311	2.42
489.661	2.42
490.011	2.41
490.36	2.41
490.71	2.43
491.06	2.44
491.409	2.45
491.759	2.46
492.108	2.46
492.458	2.47
492.807	2.49
493.157	2.51
493.506	2.54
493.855	2.55
494.204	2.57
494.554	2.61
494.903	2.62
495.252	2.65
495.601	2.68
495.95	2.7
496.299	2.72
496.648	2.77
496.997	2.84
497.346	2.89
497.695	2.93
498.043	2.99
498.392	3.03
498.741	3.07
499.09	3.11
499.438	3.17
499.787	3.23
500.135	3.3
500.484	3.33
500.832	3.38
501.181	3.45
501.529	3.53
501.878	3.61
502.226	3.68
502.574	3.76
502.923	3.84
503.271	3.96
503.619	4.07
503.967	4.16
504.315	4.25
504.663	4.37
505.011	4.49
505.359	4.6
505.707	4.72
506.055	4.85
506.403	4.99
506.751	5.12
507.098	5.28
507.446	5.43
507.794	5.59
508.141	5.76
508.489	5.91
508.837	6.07
509.184	6.24
509.531	6.41
509.879	6.56
510.226	6.74
510.574	6.9
510.921	7.08
511.268	7.28
511.616	7.43
511.963	7.63
512.31	7.82
512.657	8.01
513.004	8.21
513.351	8.43
513.698	8.66
514.045	8.88
514.392	9.11
514.739	9.36
515.086	9.6
515.432	9.83
515.779	10.07
516.126	10.31
516.473	10.53
516.819	10.76
517.166	10.99
517.512	11.19
517.859	11.39
518.205	11.57
518.552	11.75
518.898	11.99
519.245	12.19
519.591	12.39
519.937	12.61
520.283	12.81
520.629	13.02
520.976	13.23
521.322	13.46
521.668	13.68
522.014	13.9
522.36	14.13
522.706	14.35
523.052	14.61
523.398	14.82
523.743	15.03
524.089	15.25
524.435	15.44
524.781	15.64
525.126	15.81
525.472	15.99
525.817	16.14
526.163	16.26
526.509	16.39
526.854	16.51
527.199	16.64
527.545	16.75
527.89	16.88
528.235	17
528.581	17.12
528.926	17.23
529.271	17.35
529.616	17.45
529.961	17.57
530.306	17.69
530.651	17.83
530.996	17.99
531.341	18.14
531.686	18.29
532.031	18.45
532.376	18.63
532.721	18.81
533.065	18.97
533.41	19.16
533.755	19.34
534.099	19.51
534.444	19.65
534.788	19.83
535.133	19.97
535.477	20.13
535.822	20.32
536.166	20.48
536.51	20.65
536.855	20.82
537.199	20.99
537.543	21.15
537.887	21.27
538.231	21.44
538.576	21.59
538.92	21.74
539.264	21.86
539.608	21.94
539.951	22.06
540.295	22.18
540.639	22.28
540.983	22.41
541.327	22.53
541.671	22.67
542.014	22.79
542.358	22.9
542.701	23.02
543.045	23.12
543.389	23.24
543.732	23.36
544.075	23.52
544.419	23.67
544.762	23.83
545.105	24.03
545.449	24.21
545.792	24.41
546.135	24.63
546.478	24.87
546.821	25.15
547.165	25.4
547.508	25.65
547.851	25.91
548.194	26.1
548.536	26.35
548.879	26.56
549.222	26.78
549.565	27
549.908	27.23
550.25	27.43
550.593	27.65
550.936	27.86
551.278	28.02
551.621	28.17
551.963	28.39
552.306	28.61
552.648	28.74
552.991	28.93
553.333	29.06
553.675	29.22
554.017	29.31
554.36	29.37
554.702	29.51
555.044	29.66
555.386	29.82
555.728	29.9
556.07	30.01
556.412	30.09
556.754	30.22
557.096	30.34
557.438	30.49
557.78	30.59
558.121	30.77
558.463	30.94
558.805	31.1
559.147	31.22
559.488	31.29
559.83	31.45
560.171	31.48
560.513	31.58
560.854	31.69
561.196	31.81
561.537	31.9
561.878	31.93
562.22	31.94
562.561	31.94
562.902	32.03
563.243	32.09
563.584	32.17
563.925	32.24
564.266	32.25
564.607	32.3
564.948	32.33
565.289	32.31
565.63	32.33
565.971	32.35
566.312	32.35
566.653	32.35
566.993	32.36
567.334	32.39
567.675	32.38
568.015	32.33
568.356	32.3
568.696	32.36
569.037	32.39
569.377	32.41
569.718	32.42
570.058	32.44
570.398	32.42
570.739	32.38
571.079	32.41
571.419	32.47
571.759	32.49
572.099	32.5
572.439	32.54
572.779	32.55
573.119	32.6
573.459	32.66
573.799	32.78
574.139	32.82
574.479	32.87
574.819	32.94
575.158	33.07
575.498	33.18
575.838	33.26
576.177	33.39
576.517	33.53
576.856	33.66
577.196	33.8
577.535	33.98
577.875	34.19
578.214	34.33
578.553	34.45
578.893	34.59
579.232	34.79
579.571	34.91
579.91	35.1
580.25	35.25
580.589	35.39
580.928	35.47
581.267	35.6
581.606	35.74
581.945	35.89
582.283	35.98
582.622	36.08
582.961	36.18
583.3	36.15
583.639	36.2
583.977	36.24
584.316	36.23
584.654	36.24
584.993	36.26
585.332	36.23
585.67	36.23
586.008	36.19
586.347	36.18
586.685	36.21
587.024	36.16
587.362	36.12
587.7	36.1
588.038	36.14
588.376	36.13
588.715	36.15
589.053	36.14
589.391	36.13
589.729	36.11
590.067	36.12
590.404	36.18
590.742	36.18
591.08	36.17
591.418	36.21
591.756	36.16
592.093	36.15
592.431	36.14
592.769	36.12
593.106	36.11
593.444	36.15
593.781	36.12
594.119	36.09
594.456	36.09
594.793	36.1
595.131	36.02
595.468	36
595.805	35.97
596.143	36.01
596.48	36.06
596.817	36.04
597.154	36.06
597.491	36.08
597.828	36.12
598.165	36.2
598.502	36.17
598.839	36.27
599.176	36.3
599.512	36.35
599.849	36.35
600.186	36.4
600.523	36.31
600.859	36.31
601.196	36.37
601.532	36.37
601.869	36.36
602.205	36.41
602.542	36.42
602.878	36.46
603.215	36.46
603.551	36.46
603.887	36.49
604.223	36.5
604.56	36.49
604.896	36.46
605.232	36.45
605.568	36.47
605.904	36.41
606.24	36.4
606.576	36.34
606.912	36.42
607.248	36.45
607.583	36.5
607.919	36.55
608.255	36.62
608.591	36.73
608.926	36.79
609.262	36.85
609.597	36.95
609.933	37.04
610.268	37.15
610.604	37.2
610.939	37.24
611.275	37.3
611.61	37.32
611.945	37.39
612.281	37.46
612.616	37.57
612.951	37.7
613.286	37.86
613.621	38.04
613.956	38.08
614.291	38.2
614.626	38.36
614.961	38.46
615.296	38.56
615.631	38.6
615.966	38.64
616.3	38.68
616.635	38.79
616.97	38.81
617.304	38.81
617.639	38.92
617.973	38.93
618.308	38.97
618.642	39.02
618.977	39.04
619.311	39.14
619.646	39.12
619.98	39.22
620.314	39.16
620.648	39.17
620.983	39.23
621.317	39.19
621.651	39.18
621.985	39.1
622.319	39.02
622.653	38.9
622.987	38.91
623.321	38.8
623.655	38.66
623.988	38.54
624.322	38.43
624.656	38.32
624.99	38.32
625.323	38.27
625.657	38.31
625.99	38.28
626.324	38.18
626.657	38.21
626.991	38.18
627.324	38.16
627.658	38.16
627.991	38.16
628.324	38.19
628.657	38.2
628.991	38.27
629.324	38.31
629.657	38.43
629.99	38.49
630.323	38.58
630.656	38.67
630.989	38.65
631.322	38.7
631.655	38.75
631.987	38.86
632.32	38.82
632.653	38.8
632.986	38.88
633.318	38.82
633.651	38.82
633.984	38.81
634.316	38.81
634.649	38.84
634.981	38.89
635.313	38.94
635.646	38.92
635.978	39.02
636.31	39.05
636.643	39
636.975	39.08
637.307	39.09
637.639	39.16
637.971	39.27
638.303	39.32
638.635	39.37
638.967	39.41
639.299	39.55
639.631	39.63
639.963	39.69
640.295	39.89
640.626	39.9
640.958	39.97
641.29	40.1
641.621	40.14
641.953	40.18
642.285	40.21
642.616	40.29
642.948	40.28
643.279	40.25
643.61	40.33
643.942	40.14
644.273	40.28
644.604	40.22
644.936	40.29
645.267	40.29
645.598	40.33
645.929	40.21
646.26	40.18
646.591	40.18
646.922	40.17
647.253	40.07
647.584	40.09
647.915	40.07
648.245	39.97
648.576	39.88
648.907	39.7
649.238	39.69
649.568	39.71
649.899	39.65
650.229	39.65
650.56	39.57
650.89	39.63
651.221	39.57
651.551	39.58
651.882	39.49
652.212	39.56
652.542	39.51
652.872	39.54
653.203	39.46
653.533	39.47
653.863	39.33
654.193	39.25
654.523	39.18
654.853	39.15
655.183	39.04
655.513	38.97
655.843	38.89
656.172	38.82
656.502	38.77
656.832	38.77
657.162	38.74
657.491	38.71
657.821	38.68
658.15	38.62
658.48	38.61
658.809	38.64
659.139	38.64
659.468	38.64
659.798	38.67
660.127	38.66
660.456	38.62
660.785	38.67
661.115	38.71
661.444	38.74
661.773	38.86
662.102	38.98
662.431	39.04
662.76	39.19
663.089	39.26
663.418	39.29
663.747	39.37
664.076	39.56
664.404	39.77
664.733	39.89
665.062	39.87
665.39	39.79
665.719	39.8
666.048	39.65
666.376	39.62
666.705	39.61
667.033	39.68
667.362	39.68
667.69	39.64
668.018	39.68
668.347	39.7
668.675	39.6
669.003	39.64
669.331	39.75
669.659	39.68
669.987	39.72
670.315	39.69
670.643	39.69
670.971	39.55
671.299	39.49
671.627	39.47
671.955	39.69
672.283	39.81
672.61	39.82
672.938	39.89
673.266	39.87
673.593	39.76
673.921	39.75
674.249	39.67
674.576	39.73
674.904	39.74
675.231	39.75
675.558	39.7
675.886	39.63
676.213	39.43
676.54	39.43
676.867	39.35
677.195	39.27
677.522	39.19
677.849	39.07
678.176	38.97
678.503	38.79
678.83	38.61
679.157	38.5
679.484	38.48
679.81	38.47
680.137	38.6
680.464	38.61
680.791	38.67
681.117	38.78
681.444	38.77
681.771	38.77
682.097	38.72
682.424	38.69
682.75	38.58
683.077	38.62
683.403	38.64
683.729	38.63
684.056	38.61
684.382	38.49
684.708	38.54
685.034	38.54
685.36	38.61
685.686	38.6
686.012	38.7
686.339	38.61
686.664	38.66
686.99	38.4
687.316	38.39
687.642	38.34
687.968	38.33
688.294	38.38
688.619	38.35
688.945	38.28
689.271	38.31
689.596	38.45
689.922	38.27
690.247	38.31
690.573	38.43
690.898	38.56
691.224	38.67
691.549	38.89
691.874	38.8
692.2	39
692.525	38.99
692.85	39.01
693.175	39.11
693.5	39.15
693.825	39.26
694.15	39.17
694.475	39.07
694.8	38.83
695.125	38.57
695.45	38.51
695.775	38.39
696.099	38.24
696.424	38.01
696.749	38.05
697.073	38.03
697.398	37.85
697.723	37.78
698.047	37.82
698.372	37.6
698.696	37.62
699.02	37.44
699.345	37.51
699.669	37.53
699.993	37.54
700.318	37.46
700.642	37.49
700.966	37.6
701.29	37.7
701.614	37.99
701.938	38.15
702.262	38.32
702.586	38.51
702.91	38.72
703.234	39.08
703.557	39.29
703.881	39.34
704.205	39.4
704.529	39.57
704.852	39.58
705.176	39.89
705.499	39.97
705.823	40.12
706.146	40.19
706.47	39.94
706.793	39.92
707.117	40.04
707.44	40.02
707.763	39.96
708.086	39.79
708.409	39.6
708.733	39.69
709.056	39.59
709.379	39.58
709.702	39.45
710.025	39.42
710.348	39.5
710.671	39.46
710.993	39.61
711.316	39.56
711.639	39.49
711.962	39.15
712.284	39.17
712.607	39.09
712.93	39.07
713.252	39.25
713.575	39.23
713.897	39.01
714.22	38.85
714.542	38.69
714.864	38.71
715.187	38.63
715.509	38.49
715.831	38.42
716.153	38.43
716.475	38.54
716.798	38.26
717.12	38.21
717.442	38.05
717.764	38.12
718.085	37.95
718.407	37.91
718.729	38
719.051	37.91
719.373	38.09
719.695	37.99
720.016	37.84
720.338	37.94
720.659	38.04
720.981	38.07
721.302	38.39
721.624	38.44
721.945	38.45
722.267	38.5
722.588	38.52
722.909	38.45
723.231	38.31
723.552	38.33
723.873	38.14
724.194	38.18
724.515	37.99
724.836	37.97
725.157	38.1
725.478	38.06
725.799	37.99
726.12	37.7
726.441	37.49
726.762	37.64
727.083	37.61
727.403	37.39
727.724	37.3
728.045	37.09
728.365	36.95
728.686	37.21
729.006	37.23
729.327	37.4
729.647	37.63
729.967	37.64
730.288	37.78
730.608	37.96
730.928	37.93
731.249	38.02
731.569	37.99
731.889	37.94
732.209	37.88
732.529	38.07
732.849	38.27
733.169	38.19
733.489	38.15
733.809	38.09
734.129	38.25
734.448	38.36
734.768	38.33
735.088	38.59
735.408	38.43
735.727	38.49
736.047	38.26
736.366	38
736.686	38.06
737.005	38.11
737.325	38.08
737.644	38.18
737.963	38.01
738.283	38.17
738.602	38.3
738.921	38.55
739.24	38.66
739.56	38.61
739.879	38.89
740.198	38.86
740.517	38.92
740.836	38.82
741.155	39.01
741.473	39.14
741.792	39.15
742.111	39.32
742.43	39.34
742.748	39.56
743.067	39.53
743.386	39.44
743.704	39.64
744.023	39.99
744.341	40.14
744.66	40.15
744.978	40.12
745.297	39.94
745.615	39.83
745.933	39.75
746.252	39.77
746.57	39.7
746.888	39.78
747.206	39.72
747.524	40.02
747.842	39.64
748.16	39.63
748.478	39.41
748.796	39.17
749.114	39.17
749.432	39.31
749.749	39.28
750.067	39.19
750.385	39.07
750.703	38.66
751.02	38.68
751.338	38.92
751.655	39.01
751.973	39.37
752.29	39.37
752.608	39.26
752.925	39.54
753.242	39.77
753.56	39.47
753.877	39.52
754.194	39.54
754.511	39.84
754.828	39.72
755.145	39.51
755.462	39.6
755.779	39.48
756.096	39.1
756.413	39.11
756.73	38.86
757.047	38.48
757.364	38.21
757.68	37.64
757.997	37.13
758.314	36.86
758.63	36.3
758.947	36.02
759.264	35.45
759.58	34.86
759.896	34.25
760.213	34.26
760.529	34.05
760.846	33.58
761.162	33.29
761.478	33.11
761.794	33.23
762.11	33.05
762.426	32.76
762.743	32.62
763.059	32.57
763.375	32.92
763.69	33.17
764.006	33.33
764.322	33.61
764.638	33.66
764.954	33.91
765.27	33.94
765.585	34.07
765.901	34.46
766.216	34.43
766.532	34.86
766.848	34.84
767.163	34.89
767.478	35.15
767.794	35.16
768.109	35.41
768.424	35.29
768.74	35.46
769.055	36.14
769.37	36.74
769.685	37.05
770	37.06
770.315	37.3
770.63	37.49
770.945	37.49
771.26	37.61
771.575	37.69
771.89	37.89
772.205	38.01
772.52	38.33
772.834	38.87
773.149	38.83
773.464	39.18
773.778	39.44
774.093	39.64
774.407	40.17
774.722	40.36
775.036	40.45
775.351	40.65
775.665	40.52
775.979	40.21
776.293	40.31
776.608	40.44
776.922	40.13
777.236	39.76
777.55	39.8
777.864	39.98
778.178	39.44
778.492	39.62
778.806	39.64
779.12	39.3
779.434	39.18
779.747	39.37
780.061	39.23
780.375	39.1
780.689	39.05
781.002	39.08
781.316	38.78
781.629	38.97
781.943	38.37
782.256	38.14
782.57	38.16
782.883	37.71
783.196	37.2
783.51	36.98
783.823	37.44
784.136	37.22
784.449	37.36
784.762	37.77
785.075	37.79
785.388	37.56
785.701	37.12
786.014	36.98
786.327	36.39
786.64	36.26
786.953	35.8
787.266	35.53
787.578	35.49
787.891	35.94
788.204	35.73
788.516	36.08
788.829	35.67
789.141	35.74
789.454	35.4
789.766	35.76
790.079	35.76
790.391	35.29
790.703	35.67
791.016	35.64
791.328	35.53
791.64	35.14
791.952	35.35
792.264	35.71
792.576	35.99
792.888	36.3
793.2	36.22
793.512	36.25
793.824	36.22
794.136	36.16
794.448	35.48
794.76	35.62
795.071	35.48
795.383	35.3
795.695	35.14
796.006	35.71
796.318	35.56
796.629	35.83
796.941	36.18
797.252	36.37
797.564	36.59
797.875	36.33
798.186	36.22
798.497	35.85
798.809	35.9
799.12	35.28
799.431	34.63
799.742	35.05
800.053	34.69
800.364	34.97
800.675	34.48
800.986	34.84
801.297	34.77
801.608	34.42
801.918	35.21
802.229	34.84
802.54	34.92
802.851	35.42
803.161	35.09
803.472	34.51
803.782	34.47
804.093	34.03
804.403	34.27
804.714	34.56
805.024	34.68
805.334	34.24
805.645	34.62
805.955	35.43
806.265	34.92
806.575	35.53
806.885	35.3
807.195	35.55
807.505	35.28
807.815	35.46
808.125	35.86
808.435	35.66
808.745	36.16
809.055	36.35
809.365	35.32
809.674	35.64
809.984	35.77
810.294	35.27
810.603	34.68
810.913	34.36
811.222	33.65
811.532	33.49
811.841	33.86
812.151	34.38
812.46	34.2
812.769	33.98
813.079	34.47
813.388	34.41
813.697	34.41
814.006	34.9
814.315	35.06
814.624	34.68
814.933	34.58
815.242	33.64
815.551	33.65
815.86	34.08
816.169	33.71
816.478	33.88
816.786	33.35
817.095	33.77
817.404	33.67
817.712	33.8
818.021	34.11
818.33	33.79
818.638	32.63
818.947	32.12
819.255	32.1
819.563	31.29
819.872	30.95
820.18	31.2
820.488	31.18
820.796	30.85
821.105	31.43
821.413	31.14
821.721	31.17
822.029	31.03
822.337	31.02
822.645	31.04
822.953	31.15
823.26	31.3
823.568	31.3
823.876	31.3
824.184	31.25
824.491	31.06
824.799	31.03
825.107	31.15
825.414	31.24
825.722	31.39
826.029	31.43
826.337	31.46
826.644	31.17
826.951	31.31
827.259	31.45
827.566	31.2
827.873	31.6
828.18	31.74
828.488	31.82
828.795	31.89
829.102	32.01
829.409	31.67
829.716	31.65
830.023	31.73
830.329	31.73
830.636	32.07
830.943	32.12
831.25	32.2
831.557	32.42
831.863	32.59
832.17	32.35
832.476	32.62
832.783	32.9
833.089	33.24
833.396	32.88
833.702	33.13
834.009	33.02
834.315	32.38
834.621	32.54
834.928	32.44
835.234	32.76
835.54	32.46
835.846	32.96
836.152	32.91
836.458	32.61
836.764	32.8
837.07	32.5
837.376	32.7
837.682	32.98
837.988	32.75
838.293	32.87
838.599	32.38
838.905	32.77
839.211	32.51
839.516	33.21
839.822	33.43
840.127	32.83
840.433	33.2
840.738	33.24
841.044	33.01
841.349	33.07
841.654	31.91
841.959	32.42
842.265	32.89
842.57	33
842.875	33.44
843.18	32.63
843.485	33.85
843.79	34.47
844.095	33.5
844.4	33.74
844.705	34.44
845.01	36.25
845.315	35.51
845.619	36.08
845.924	34.44
846.229	33.87
846.533	34.05
846.838	32.98
847.142	34.25
847.447	34.18
847.751	35.44
848.056	36.39
848.36	35.18
848.664	33.65
848.969	34.84
849.273	33.59
849.577	35.54
849.881	34.91
850.185	34.21
850.489	36.46
850.794	37.16
851.097	35.39
851.401	34.21
851.705	34.39
852.009	35.01
852.313	35.04
852.617	34.51
852.92	37.01
853.224	37.35
853.528	35.64
853.831	37.06
854.135	33.56
854.438	33.7
854.742	34.75
855.045	33.95
855.349	31.78
855.652	31.71
855.955	30.69
856.259	29.01
856.562	30.41
856.865	28.17
857.168	25.52
857.471	24
857.774	25.14
858.077	25.29
858.38	24.54
858.683	26.25
858.986	25.73
859.289	24.55
859.592	24.53
859.894	26.11
860.197	24.68
860.5	26.92
860.802	25.28
861.105	25
861.407	24.41
861.71	26.36
862.012	27.14
862.315	27.24
862.617	27.57
862.919	28.21
863.222	29.22
863.524	31.16
863.826	31.12
864.128	30.17
864.43	29.23
864.732	27.24
865.034	28.23
865.336	29.12
865.638	28.72
865.94	28
866.242	26.59
866.544	27.81
866.846	26.94
867.147	28.41
867.449	28.74
867.751	30.83
868.052	27.99
868.354	28.54
868.655	28.66
868.957	28.42
869.258	25.69
869.56	23.94
869.861	21.24
870.162	21.47
870.463	22.19
870.765	23.59
871.066	23.78
871.367	22.47
871.668	24.12
871.969	21.21
872.27	22.41
872.571	20.93
872.872	19.33
873.173	20.03
873.473	18.47
873.774	19.22
874.075	18.38
874.376	21.23
874.676	20.81
874.977	19.11
875.277	18.94
875.578	19.81
875.878	20.77
876.179	22.87
876.479	23.76
876.78	22.66
877.08	21.34
877.38	23.92
877.68	22.84
877.981	19.46
878.281	23.7
878.581	21.86
