Data from BU26946_Reflection_00013.txt Node
Date: Tue Nov 19 10:52:15 EST 2019
User: vgr7
Spectrometer: USB2G7710
Scans to average: 3
Trigger mode: 4
Integration Time (sec): 2.000000E-2
Electric dark correction enabled: true
Boxcar width: 10
XAxis mode: Wavelengths
Number of Pixels in Spectrum: 2048
>>>>>Begin Spectral Data<<<<<
177.721	582.2
178.105	640.54
178.488	507.12
178.871	805.26
179.254	-1800
179.636	458.49
180.019	1506.98
180.402	-0
180.785	553.85
181.168	262.68
181.55	201.16
181.933	156.09
182.316	141.08
182.698	12.67
183.081	18.5
183.463	-205.97
183.846	78.26
184.228	-42.14
184.611	117.48
184.993	-54.55
185.376	-38.3
185.758	4.33
186.14	-55.38
186.522	-27.58
186.904	-58.06
187.287	-74.04
187.669	-114.83
188.051	-256.33
188.433	-250.49
188.815	-180.44
189.197	-121.87
189.579	-85.77
189.961	-68.71
190.342	-41.09
190.724	-60.99
191.106	-62.74
191.488	-63.17
191.869	-49.11
192.251	-38.14
192.633	-48.75
193.014	-58.71
193.396	-56.61
193.777	-58.41
194.159	-66.81
194.54	-59.91
194.922	-67.89
195.303	-77.42
195.684	-68.12
196.065	-41.31
196.447	-29.33
196.828	-28.61
197.209	-51.72
197.59	-55.93
197.971	-57.45
198.352	-87.85
198.733	-66.1
199.114	-67.53
199.495	-50.32
199.876	-59.75
200.257	-75.13
200.638	-61.13
201.018	-68.17
201.399	-71.03
201.78	-54.44
202.16	-56.78
202.541	-83.34
202.922	-74.95
203.302	-67.53
203.683	-88.75
204.063	-83.79
204.444	-75.04
204.824	-78.99
205.204	-47.17
205.585	-43.32
205.965	-42.96
206.345	-42
206.725	-31.15
207.106	-24.47
207.486	-37.42
207.866	-33
208.246	-17.91
208.626	-26.16
209.006	-23.74
209.386	-25.86
209.766	-29.53
210.145	-18.76
210.525	-18.83
210.905	-15.94
211.285	-16.37
211.664	-1.63
212.044	-1.56
212.424	-8.25
212.803	-7.79
213.183	-15.22
213.562	-22.25
213.942	-28.01
214.321	-30.86
214.701	-41.67
215.08	-43.08
215.459	-28.23
215.838	-56.96
216.218	-83.83
216.597	-64.38
216.976	-85.28
217.355	-61.3
217.734	-64.65
218.113	-54
218.492	-43.82
218.871	-19.29
219.25	-15.13
219.629	-61.21
220.008	-54.37
220.387	-47.44
220.766	-16.01
221.144	-5.55
221.523	-6.97
221.902	25.8
222.28	50.22
222.659	24.99
223.037	24.07
223.416	8.36
223.794	24.14
224.173	24.93
224.551	23.93
224.929	35.11
225.308	13.95
225.686	10.83
226.064	5.56
226.442	7.49
226.821	6.11
227.199	6.2
227.577	8.87
227.955	9.28
228.333	6.87
228.711	3.68
229.089	0.12
229.467	0.62
229.845	2
230.222	0.51
230.6	0.69
230.978	-0.09
231.356	2.42
231.733	3.9
232.111	6.9
232.488	6.9
232.866	5.21
233.243	6.81
233.621	4.9
233.998	5.66
234.376	4.8
234.753	2.61
235.13	3.58
235.508	3.18
235.885	3.32
236.262	4.88
236.639	4.8
237.016	6.42
237.393	6.11
237.77	5.46
238.147	4.9
238.524	5.63
238.901	4.8
239.278	3.93
239.655	3.29
240.032	2.7
240.409	2.43
240.785	2.83
241.162	2.7
241.539	2.97
241.915	2.23
242.292	2.25
242.668	2.58
243.045	2.54
243.421	3.06
243.798	2.99
244.174	3
244.551	2.69
244.927	2.62
245.303	2.61
245.679	2.68
246.056	3.01
246.432	3.02
246.808	3.16
247.184	3.41
247.56	3.41
247.936	3.41
248.312	3.61
248.688	3.8
249.064	4
249.44	4.07
249.815	4.19
250.191	4.23
250.567	4.02
250.943	4.2
251.318	3.88
251.694	4.08
252.069	3.79
252.445	4.05
252.82	4.16
253.196	4.57
253.571	4.66
253.947	4.48
254.322	4.16
254.697	4.11
255.073	3.75
255.448	3.77
255.823	3.82
256.198	3.77
256.573	3.47
256.948	3.63
257.323	3.66
257.698	3.51
258.073	3.6
258.448	3.89
258.823	3.71
259.198	3.88
259.573	3.54
259.948	3.65
260.322	3.57
260.697	3.47
261.072	3.37
261.446	3.34
261.821	3.33
262.195	3.55
262.57	3.68
262.944	3.86
263.319	3.91
263.693	3.97
264.067	3.91
264.442	3.88
264.816	3.6
265.19	3.48
265.564	3.63
265.938	3.65
266.313	3.58
266.687	3.53
267.061	3.51
267.435	3.61
267.809	3.66
268.183	3.74
268.556	3.78
268.93	3.94
269.304	3.69
269.678	3.7
270.051	3.65
270.425	3.51
270.799	3.25
271.172	3.1
271.546	3.19
271.919	3.29
272.293	3.35
272.666	3.52
273.04	3.69
273.413	3.58
273.787	3.54
274.16	3.45
274.533	3.62
274.906	3.7
275.279	3.75
275.653	3.83
276.026	3.83
276.399	3.81
276.772	3.61
277.145	3.83
277.518	3.71
277.891	3.6
278.263	3.69
278.636	3.83
279.009	3.83
279.382	3.64
279.755	3.52
280.127	3.46
280.5	3.31
280.872	3.33
281.245	3.49
281.617	3.41
281.99	3.49
282.362	3.44
282.735	3.33
283.107	3.34
283.479	3.2
283.852	3.24
284.224	3.27
284.596	3.25
284.968	3.26
285.34	3.27
285.713	3.4
286.085	3.32
286.457	3.33
286.829	3.48
287.201	3.48
287.572	3.55
287.944	3.68
288.316	3.79
288.688	3.89
289.06	3.76
289.431	3.82
289.803	3.8
290.175	3.78
290.546	3.85
290.918	3.98
291.289	3.98
291.661	4.02
292.032	3.99
292.403	4.11
292.775	4.24
293.146	4.38
293.517	4.31
293.889	4.53
294.26	4.56
294.631	4.66
295.002	4.78
295.373	4.82
295.744	4.8
296.115	4.72
296.486	4.68
296.857	4.77
297.228	4.88
297.599	4.86
297.97	4.93
298.34	4.96
298.711	4.92
299.082	5.02
299.452	5.08
299.823	5.21
300.194	5.27
300.564	5.15
300.935	5.2
301.305	5.25
301.676	5.19
302.046	5.33
302.416	5.24
302.787	5.28
303.157	5.31
303.527	5.44
303.897	5.47
304.267	5.49
304.637	5.67
305.008	5.67
305.378	5.98
305.748	6.05
306.117	6.09
306.487	6.16
306.857	6.31
307.227	6.36
307.597	6.52
307.967	6.72
308.336	6.82
308.706	6.9
309.076	7.08
309.445	7.17
309.815	7.25
310.184	7.44
310.554	7.37
310.923	7.47
311.293	7.49
311.662	7.59
312.031	7.66
312.401	7.71
312.77	7.66
313.139	7.55
313.508	7.72
313.877	7.8
314.246	7.88
314.616	7.96
314.985	8.03
315.353	8.18
315.722	8.18
316.091	8.36
316.46	8.31
316.829	8.38
317.198	8.51
317.567	8.6
317.935	8.71
318.304	8.85
318.672	9
319.041	9.04
319.41	9.24
319.778	9.33
320.147	9.38
320.515	9.56
320.883	9.58
321.252	9.54
321.62	9.49
321.988	9.75
322.357	9.66
322.725	9.73
323.093	9.61
323.461	9.55
323.829	9.68
324.197	9.88
324.565	9.73
324.933	9.75
325.301	9.6
325.669	9.54
326.037	9.6
326.405	9.59
326.772	9.76
327.14	9.71
327.508	9.66
327.875	9.7
328.243	9.6
328.61	9.76
328.978	9.78
329.346	9.9
329.713	9.87
330.08	9.98
330.448	10.17
330.815	10.31
331.182	10.46
331.55	10.46
331.917	10.31
332.284	10.56
332.651	10.65
333.018	10.76
333.385	10.82
333.752	10.97
334.119	11.02
334.486	10.98
334.853	11.13
335.22	11.22
335.587	11.22
335.954	11.4
336.32	11.5
336.687	11.55
337.054	11.6
337.42	11.57
337.787	11.62
338.153	11.49
338.52	11.56
338.886	11.61
339.253	11.61
339.619	11.86
339.986	11.79
340.352	11.76
340.718	11.82
341.084	11.85
341.451	11.89
341.817	11.88
342.183	11.83
342.549	11.82
342.915	11.72
343.281	11.8
343.647	11.81
344.013	11.69
344.379	11.67
344.745	11.75
345.11	11.85
345.476	11.94
345.842	11.93
346.208	11.93
346.573	11.98
346.939	12.04
347.304	11.92
347.67	12.05
348.035	12.03
348.401	12.12
348.766	12.09
349.132	12.1
349.497	12.12
349.862	12.1
350.228	12.03
350.593	12.08
350.958	12.16
351.323	12.09
351.688	12.2
352.053	12.27
352.418	12.18
352.783	12.15
353.148	12.11
353.513	12.11
353.878	12
354.243	11.82
354.608	11.85
354.972	11.82
355.337	11.77
355.702	11.78
356.066	11.66
356.431	11.69
356.795	11.66
357.16	11.68
357.524	11.73
357.889	11.88
358.253	11.86
358.618	11.77
358.982	11.82
359.346	11.7
359.71	11.62
360.075	11.61
360.439	11.56
360.803	11.51
361.167	11.44
361.531	11.49
361.895	11.52
362.259	11.5
362.623	11.48
362.987	11.47
363.351	11.43
363.714	11.45
364.078	11.38
364.442	11.34
364.806	11.3
365.169	11.21
365.533	11.1
365.896	11.1
366.26	11.04
366.623	10.96
366.987	10.89
367.35	10.9
367.714	10.86
368.077	10.84
368.44	10.78
368.803	10.76
369.167	10.67
369.53	10.64
369.893	10.53
370.256	10.49
370.619	10.32
370.982	10.15
371.345	10.08
371.708	9.93
372.071	9.81
372.434	9.75
372.797	9.7
373.159	9.55
373.522	9.44
373.885	9.35
374.247	9.21
374.61	9.23
374.973	9.15
375.335	9.05
375.698	8.91
376.06	8.87
376.423	8.86
376.785	8.77
377.147	8.63
377.51	8.54
377.872	8.44
378.234	8.39
378.596	8.4
378.958	8.32
379.321	8.27
379.683	8.22
380.045	8.12
380.407	8.03
380.769	8.02
381.13	7.95
381.492	7.87
381.854	7.88
382.216	7.82
382.578	7.7
382.939	7.65
383.301	7.64
383.663	7.54
384.024	7.47
384.386	7.41
384.747	7.37
385.109	7.31
385.47	7.25
385.832	7.18
386.193	7.11
386.554	7.01
386.916	7.02
387.277	6.96
387.638	6.94
387.999	6.9
388.36	6.82
388.721	6.8
389.082	6.82
389.443	6.76
389.804	6.69
390.165	6.64
390.526	6.6
390.887	6.51
391.248	6.48
391.609	6.4
391.969	6.36
392.33	6.31
392.691	6.27
393.051	6.21
393.412	6.2
393.772	6.19
394.133	6.18
394.493	6.1
394.854	6.05
395.214	5.92
395.574	5.87
395.935	5.81
396.295	5.75
396.655	5.67
397.015	5.59
397.376	5.52
397.736	5.49
398.096	5.41
398.456	5.31
398.816	5.23
399.176	5.15
399.535	5.05
399.895	4.99
400.255	4.92
400.615	4.91
400.975	4.88
401.334	4.81
401.694	4.77
402.054	4.76
402.413	4.73
402.773	4.73
403.132	4.73
403.492	4.71
403.851	4.68
404.211	4.63
404.57	4.66
404.929	4.66
405.288	4.64
405.648	4.64
406.007	4.65
406.366	4.65
406.725	4.66
407.084	4.67
407.443	4.67
407.802	4.67
408.161	4.65
408.52	4.62
408.879	4.6
409.238	4.6
409.596	4.59
409.955	4.57
410.314	4.58
410.673	4.55
411.031	4.49
411.39	4.47
411.748	4.49
412.107	4.44
412.465	4.42
412.824	4.4
413.182	4.37
413.54	4.36
413.899	4.35
414.257	4.33
414.615	4.32
414.974	4.29
415.332	4.29
415.69	4.25
416.048	4.23
416.406	4.21
416.764	4.18
417.122	4.16
417.48	4.16
417.838	4.12
418.195	4.11
418.553	4.11
418.911	4.09
419.269	4.07
419.626	4.03
419.984	4.04
420.342	4.03
420.699	4.01
421.057	4
421.414	3.99
421.772	3.98
422.129	3.97
422.486	3.96
422.844	3.96
423.201	3.95
423.558	3.95
423.915	3.95
424.273	3.93
424.63	3.92
424.987	3.9
425.344	3.9
425.701	3.88
426.058	3.88
426.415	3.85
426.772	3.83
427.128	3.83
427.485	3.81
427.842	3.77
428.199	3.76
428.555	3.75
428.912	3.73
429.269	3.71
429.625	3.69
429.982	3.67
430.338	3.65
430.695	3.64
431.051	3.63
431.407	3.61
431.764	3.6
432.12	3.58
432.476	3.59
432.832	3.61
433.189	3.61
433.545	3.6
433.901	3.6
434.257	3.62
434.613	3.63
434.969	3.6
435.325	3.64
435.681	3.65
436.036	3.66
436.392	3.67
436.748	3.66
437.104	3.66
437.459	3.67
437.815	3.67
438.171	3.66
438.526	3.65
438.882	3.65
439.237	3.65
439.593	3.68
439.948	3.68
440.304	3.66
440.659	3.67
441.014	3.68
441.369	3.69
441.725	3.69
442.08	3.69
442.435	3.7
442.79	3.68
443.145	3.68
443.5	3.64
443.855	3.64
444.21	3.64
444.565	3.64
444.92	3.64
445.275	3.64
445.629	3.65
445.984	3.62
446.339	3.61
446.693	3.6
447.048	3.57
447.403	3.57
447.757	3.56
448.112	3.55
448.466	3.54
448.82	3.54
449.175	3.53
449.529	3.53
449.883	3.52
450.238	3.51
450.592	3.5
450.946	3.49
451.3	3.47
451.654	3.46
452.008	3.45
452.362	3.43
452.716	3.41
453.07	3.41
453.424	3.43
453.778	3.44
454.132	3.45
454.486	3.43
454.839	3.43
455.193	3.43
455.547	3.43
455.9	3.42
456.254	3.41
456.607	3.4
456.961	3.4
457.314	3.41
457.668	3.41
458.021	3.41
458.375	3.4
458.728	3.41
459.081	3.43
459.434	3.43
459.787	3.44
460.141	3.46
460.494	3.44
460.847	3.45
461.2	3.45
461.553	3.45
461.906	3.46
462.259	3.46
462.611	3.46
462.964	3.46
463.317	3.46
463.67	3.48
464.022	3.49
464.375	3.49
464.728	3.51
465.08	3.54
465.433	3.55
465.785	3.55
466.138	3.58
466.49	3.61
466.843	3.63
467.195	3.63
467.547	3.65
467.899	3.69
468.252	3.7
468.604	3.72
468.956	3.72
469.308	3.74
469.66	3.76
470.012	3.76
470.364	3.79
470.716	3.8
471.068	3.8
471.42	3.83
471.772	3.84
472.123	3.85
472.475	3.84
472.827	3.86
473.178	3.91
473.53	3.9
473.882	3.9
474.233	3.86
474.585	3.88
474.936	3.87
475.288	3.86
475.639	3.87
475.99	3.85
476.342	3.88
476.693	3.88
477.044	3.9
477.395	3.9
477.746	3.88
478.097	3.87
478.448	3.87
478.8	3.84
479.15	3.84
479.501	3.82
479.852	3.83
480.203	3.83
480.554	3.84
480.905	3.85
481.255	3.83
481.606	3.85
481.957	3.84
482.307	3.83
482.658	3.83
483.009	3.81
483.359	3.81
483.709	3.8
484.06	3.8
484.41	3.8
484.761	3.8
485.111	3.8
485.461	3.8
485.811	3.8
486.162	3.8
486.512	3.8
486.862	3.8
487.212	3.79
487.562	3.79
487.912	3.78
488.262	3.76
488.612	3.75
488.961	3.75
489.311	3.74
489.661	3.75
490.011	3.74
490.36	3.75
490.71	3.75
491.06	3.75
491.409	3.75
491.759	3.76
492.108	3.75
492.458	3.76
492.807	3.78
493.157	3.8
493.506	3.82
493.855	3.83
494.204	3.86
494.554	3.89
494.903	3.91
495.252	3.94
495.601	3.99
495.95	4.03
496.299	4.08
496.648	4.11
496.997	4.15
497.346	4.21
497.695	4.27
498.043	4.3
498.392	4.35
498.741	4.41
499.09	4.44
499.438	4.52
499.787	4.57
500.135	4.64
500.484	4.68
500.832	4.72
501.181	4.81
501.529	4.89
501.878	4.96
502.226	5.06
502.574	5.14
502.923	5.23
503.271	5.32
503.619	5.39
503.967	5.51
504.315	5.63
504.663	5.72
505.011	5.82
505.359	5.95
505.707	6.08
506.055	6.2
506.403	6.34
506.751	6.48
507.098	6.62
507.446	6.74
507.794	6.88
508.141	7.03
508.489	7.16
508.837	7.3
509.184	7.44
509.531	7.57
509.879	7.73
510.226	7.88
510.574	8.08
510.921	8.25
511.268	8.42
511.616	8.59
511.963	8.78
512.31	8.97
512.657	9.17
513.004	9.36
513.351	9.57
513.698	9.79
514.045	10.02
514.392	10.28
514.739	10.53
515.086	10.79
515.432	11.03
515.779	11.27
516.126	11.53
516.473	11.77
516.819	12
517.166	12.22
517.512	12.42
517.859	12.58
518.205	12.78
518.552	12.99
518.898	13.18
519.245	13.38
519.591	13.58
519.937	13.78
520.283	14
520.629	14.21
520.976	14.42
521.322	14.63
521.668	14.84
522.014	15.08
522.36	15.3
522.706	15.53
523.052	15.8
523.398	16.04
523.743	16.31
524.089	16.6
524.435	16.87
524.781	17.15
525.126	17.41
525.472	17.63
525.817	17.84
526.163	18.04
526.509	18.22
526.854	18.37
527.199	18.53
527.545	18.67
527.89	18.81
528.235	18.97
528.581	19.12
528.926	19.28
529.271	19.43
529.616	19.58
529.961	19.75
530.306	19.9
530.651	20.06
530.996	20.24
531.341	20.41
531.686	20.58
532.031	20.73
532.376	20.92
532.721	21.11
533.065	21.28
533.41	21.48
533.755	21.68
534.099	21.87
534.444	22.06
534.788	22.25
535.133	22.42
535.477	22.64
535.822	22.84
536.166	23.07
536.51	23.3
536.855	23.53
537.199	23.81
537.543	24.1
537.887	24.37
538.231	24.66
538.576	24.93
538.92	25.2
539.264	25.48
539.608	25.69
539.951	25.91
540.295	26.13
540.639	26.32
540.983	26.5
541.327	26.74
541.671	26.94
542.014	27.17
542.358	27.4
542.701	27.58
543.045	27.78
543.389	27.95
543.732	28.14
544.075	28.36
544.419	28.54
544.762	28.72
545.105	28.93
545.449	29.1
545.792	29.31
546.135	29.57
546.478	29.81
546.821	30.05
547.165	30.32
547.508	30.57
547.851	30.83
548.194	31.12
548.536	31.37
548.879	31.64
549.222	31.9
549.565	32.1
549.908	32.38
550.25	32.62
550.593	32.9
550.936	33.21
551.278	33.5
551.621	33.72
551.963	34.06
552.306	34.31
552.648	34.54
552.991	34.79
553.333	34.99
553.675	35.22
554.017	35.52
554.36	35.74
554.702	35.94
555.044	36.19
555.386	36.45
555.728	36.71
556.07	36.92
556.412	37.19
556.754	37.5
557.096	37.71
557.438	37.91
557.78	38.18
558.121	38.42
558.463	38.64
558.805	38.9
559.147	39.06
559.488	39.28
559.83	39.51
560.171	39.73
560.513	39.9
560.854	40.13
561.196	40.31
561.537	40.51
561.878	40.8
562.22	41
562.561	41.17
562.902	41.35
563.243	41.57
563.584	41.74
563.925	41.94
564.266	42.09
564.607	42.28
564.948	42.47
565.289	42.65
565.63	42.8
565.971	42.96
566.312	43.15
566.653	43.33
566.993	43.48
567.334	43.65
567.675	43.85
568.015	44
568.356	44.18
568.696	44.31
569.037	44.41
569.377	44.55
569.718	44.63
570.058	44.81
570.398	44.89
570.739	45.03
571.079	45.14
571.419	45.28
571.759	45.48
572.099	45.59
572.439	45.69
572.779	45.79
573.119	45.92
573.459	46
573.799	46.07
574.139	46.18
574.479	46.29
574.819	46.38
575.158	46.51
575.498	46.58
575.838	46.75
576.177	46.89
576.517	47
576.856	47.19
577.196	47.25
577.535	47.4
577.875	47.56
578.214	47.65
578.553	47.75
578.893	47.82
579.232	47.93
579.571	48.05
579.91	48.16
580.25	48.25
580.589	48.36
580.928	48.52
581.267	48.61
581.606	48.74
581.945	48.84
582.283	48.9
582.622	49.03
582.961	49.08
583.3	49.13
583.639	49.18
583.977	49.21
584.316	49.29
584.654	49.38
584.993	49.41
585.332	49.54
585.67	49.71
586.008	49.78
586.347	49.83
586.685	49.86
587.024	49.96
587.362	50.04
587.7	50.13
588.038	50.22
588.376	50.37
588.715	50.4
589.053	50.5
589.391	50.55
589.729	50.56
590.067	50.66
590.404	50.7
590.742	50.81
591.08	50.95
591.418	51.09
591.756	51.15
592.093	51.23
592.431	51.25
592.769	51.31
593.106	51.4
593.444	51.52
593.781	51.6
594.119	51.69
594.456	51.69
594.793	51.76
595.131	51.81
595.468	51.83
595.805	51.93
596.143	51.98
596.48	52.07
596.817	52.15
597.154	52.17
597.491	52.29
597.828	52.32
598.165	52.32
598.502	52.37
598.839	52.4
599.176	52.49
599.512	52.61
599.849	52.64
600.186	52.73
600.523	52.74
600.859	52.81
601.196	52.81
601.532	52.94
601.869	52.97
602.205	53.04
602.542	53.07
602.878	53.03
603.215	53.08
603.551	53.11
603.887	53.18
604.223	53.22
604.56	53.21
604.896	53.23
605.232	53.31
605.568	53.24
605.904	53.32
606.24	53.33
606.576	53.32
606.912	53.4
607.248	53.37
607.583	53.31
607.919	53.33
608.255	53.36
608.591	53.48
608.926	53.47
609.262	53.51
609.597	53.61
609.933	53.7
610.268	53.71
610.604	53.81
610.939	53.8
611.275	53.83
611.61	53.89
611.945	53.91
612.281	53.87
612.616	54.01
612.951	54.07
613.286	54.05
613.621	54.1
613.956	54.09
614.291	54.1
614.626	54.23
614.961	54.26
615.296	54.34
615.631	54.31
615.966	54.35
616.3	54.32
616.635	54.36
616.97	54.4
617.304	54.49
617.639	54.44
617.973	54.47
618.308	54.51
618.642	54.57
618.977	54.65
619.311	54.75
619.646	54.74
619.98	54.68
620.314	54.75
620.648	54.78
620.983	54.87
621.317	54.94
621.651	54.93
621.985	54.89
622.319	54.89
622.653	54.85
622.987	54.88
623.321	54.93
623.655	54.87
623.988	54.97
624.322	54.96
624.656	55.05
624.99	55.09
625.323	55.14
625.657	55.1
625.99	55.12
626.324	55.13
626.657	55.12
626.991	55.15
627.324	55.08
627.658	55.07
627.991	55.05
628.324	55.07
628.657	55.21
628.991	55.3
629.324	55.27
629.657	55.37
629.99	55.49
630.323	55.47
630.656	55.49
630.989	55.39
631.322	55.33
631.655	55.31
631.987	55.33
632.32	55.31
632.653	55.26
632.986	55.31
633.318	55.27
633.651	55.32
633.984	55.38
634.316	55.44
634.649	55.44
634.981	55.45
635.313	55.4
635.646	55.39
635.978	55.4
636.31	55.46
636.643	55.27
636.975	55.21
637.307	55.25
637.639	55.23
637.971	55.25
638.303	55.41
638.635	55.32
638.967	55.3
639.299	55.41
639.631	55.48
639.963	55.44
640.295	55.51
640.626	55.44
640.958	55.43
641.29	55.46
641.621	55.57
641.953	55.48
642.285	55.56
642.616	55.52
642.948	55.54
643.279	55.53
643.61	55.68
643.942	55.57
644.273	55.57
644.604	55.59
644.936	55.71
645.267	55.61
645.598	55.73
645.929	55.68
646.26	55.58
646.591	55.65
646.922	55.64
647.253	55.52
647.584	55.66
647.915	55.75
648.245	55.86
648.576	55.77
648.907	55.78
649.238	55.75
649.568	55.65
649.899	55.6
650.229	55.68
650.56	55.73
650.89	55.81
651.221	55.85
651.551	55.97
651.882	55.87
652.212	55.94
652.542	55.9
652.872	56.04
653.203	56.1
653.533	56.14
653.863	56.15
654.193	56.27
654.523	56.22
654.853	56.21
655.183	56.14
655.513	56.19
655.843	56.35
656.172	56.48
656.502	56.66
656.832	56.81
657.162	56.68
657.491	56.74
657.821	56.75
658.15	56.71
658.48	56.66
658.809	56.78
659.139	56.7
659.468	56.92
659.798	56.85
660.127	56.88
660.456	56.87
660.785	56.87
661.115	56.89
661.444	56.91
661.773	56.89
662.102	56.78
662.431	56.75
662.76	56.59
663.089	56.57
663.418	56.48
663.747	56.43
664.076	56.44
664.404	56.29
664.733	56.41
665.062	56.29
665.39	56.36
665.719	56.28
666.048	56.26
666.376	56.12
666.705	56.22
667.033	56.1
667.362	56.13
667.69	56.12
668.018	56.07
668.347	56.11
668.675	56.16
669.003	56.35
669.331	56.52
669.659	56.68
669.987	56.6
670.315	56.68
670.643	56.67
670.971	56.72
671.299	56.75
671.627	56.62
671.955	56.76
672.283	56.67
672.61	56.64
672.938	56.67
673.266	56.57
673.593	56.45
673.921	56.49
674.249	56.37
674.576	56.51
674.904	56.58
675.231	56.55
675.558	56.5
675.886	56.52
676.213	56.3
676.54	56.2
676.867	56.16
677.195	56.04
677.522	56.08
677.849	56.1
678.176	56.19
678.503	56.33
678.83	56.25
679.157	56.26
679.484	56.38
679.81	56.38
680.137	56.37
680.464	56.43
680.791	56.48
681.117	56.57
681.444	56.64
681.771	56.61
682.097	56.71
682.424	56.68
682.75	56.62
683.077	56.76
683.403	56.76
683.729	56.9
684.056	56.96
684.382	56.81
684.708	56.94
685.034	56.83
685.36	56.72
685.686	56.84
686.012	57
686.339	56.93
686.664	57.06
686.99	57.03
687.316	56.94
687.642	57.01
687.968	56.96
688.294	56.79
688.619	56.82
688.945	56.75
689.271	56.74
689.596	56.73
689.922	56.51
690.247	56.67
690.573	56.71
690.898	56.78
691.224	56.89
691.549	56.89
691.874	57.09
692.2	57.12
692.525	57.03
692.85	56.84
693.175	56.71
693.5	56.62
693.825	56.59
694.15	56.61
694.475	56.49
694.8	56.51
695.125	56.33
695.45	56.39
695.775	56.38
696.099	56.53
696.424	56.45
696.749	56.75
697.073	56.65
697.398	56.63
697.723	56.6
698.047	56.78
698.372	56.7
698.696	56.51
699.02	56.56
699.345	56.63
699.669	56.65
699.993	56.88
700.318	56.91
700.642	56.93
700.966	57.06
701.29	57.04
701.614	57.11
701.938	57.37
702.262	57.34
702.586	57.28
702.91	57.17
703.234	57.31
703.557	57.25
703.881	57.32
704.205	57.28
704.529	57.37
704.852	57.04
705.176	56.98
705.499	57.02
705.823	56.92
706.146	56.86
706.47	57
706.793	56.9
707.117	56.93
707.44	57.03
707.763	57.02
708.086	57.12
708.409	57.02
708.733	56.89
709.056	56.85
709.379	56.96
709.702	56.93
710.025	56.99
710.348	57.1
710.671	57.09
710.993	57.13
711.316	57.1
711.639	57.32
711.962	57.25
712.284	57.47
712.607	57.44
712.93	57.37
713.252	57.12
713.575	57.03
713.897	57.01
714.22	57.02
714.542	56.88
714.864	56.87
715.187	56.92
715.509	56.96
715.831	57.05
716.153	57.05
716.475	57.11
716.798	56.94
717.12	56.76
717.442	56.61
717.764	56.58
718.085	56.51
718.407	56.57
718.729	56.6
719.051	56.37
719.373	56.61
719.695	56.72
720.016	56.74
720.338	56.7
720.659	56.64
720.981	56.3
721.302	56.36
721.624	56.48
721.945	56.56
722.267	56.81
722.588	56.58
722.909	56.47
723.231	56.39
723.552	56.55
723.873	56.53
724.194	56.6
724.515	56.67
724.836	56.53
725.157	56.42
725.478	56.57
725.799	56.5
726.12	56.42
726.441	56.61
726.762	56.65
727.083	56.87
727.403	56.86
727.724	57.08
728.045	57.17
728.365	56.93
728.686	56.87
729.006	56.41
729.327	56.57
729.647	56.63
729.967	56.73
730.288	56.62
730.608	56.72
730.928	56.65
731.249	56.61
731.569	56.76
731.889	56.55
732.209	56.52
732.529	56.77
732.849	56.74
733.169	56.57
733.489	56.68
733.809	56.79
734.129	56.8
734.448	56.9
734.768	56.69
735.088	56.92
735.408	56.83
735.727	57.04
736.047	57.01
736.366	56.82
736.686	56.98
737.005	57.18
737.325	57.19
737.644	57.32
737.963	57.28
738.283	57.55
738.602	57.67
738.921	57.77
739.24	57.75
739.56	57.54
739.879	57.55
740.198	57.62
740.517	57.28
740.836	57.47
741.155	57.48
741.473	57.61
741.792	57.78
742.111	57.88
742.43	57.93
742.748	57.98
743.067	57.85
743.386	57.78
743.704	57.98
744.023	58.13
744.341	58.08
744.66	58.11
744.978	57.87
745.297	58.02
745.615	57.75
745.933	57.8
746.252	58
746.57	57.97
746.888	57.8
747.206	58.03
747.524	57.62
747.842	57.55
748.16	57.48
748.478	56.96
748.796	56.95
749.114	57.18
749.432	57.25
749.749	57.85
750.067	57.69
750.385	57.18
750.703	56.92
751.02	56.94
751.338	56.69
751.655	56.73
751.973	56.66
752.29	56.68
752.608	56.61
752.925	56.94
753.242	57.02
753.56	56.91
753.877	56.62
754.194	56.97
754.511	56.95
754.828	56.89
755.145	57.14
755.462	57.2
755.779	57.32
756.096	57.39
756.413	57
756.73	56.88
757.047	56.95
757.364	57.09
757.68	57.32
757.997	57.67
758.314	57.55
758.63	57.84
758.947	58.15
759.264	57.85
759.58	57.41
759.896	57.66
760.213	57.56
760.529	57.82
760.846	58.03
761.162	58.1
761.478	58.26
761.794	58.43
762.11	58.37
762.426	57.84
762.743	57.75
763.059	57.79
763.375	57.96
763.69	57.71
764.006	57.67
764.322	57.77
764.638	57.82
764.954	57.91
765.27	57.86
765.585	57.68
765.901	58.07
766.216	58.22
766.532	57.84
766.848	58.05
767.163	57.95
767.478	57.59
767.794	57.36
768.109	57.43
768.424	57.22
768.74	57.41
769.055	57.49
769.37	57.65
769.685	57.79
770	57.42
770.315	57.98
770.63	58.13
770.945	58.07
771.26	58.05
771.575	58.22
771.89	58.1
772.205	58.15
772.52	58.03
772.834	57.91
773.149	58.29
773.464	58.7
773.778	58.68
774.093	58.91
774.407	59.33
774.722	59.48
775.036	59.82
775.351	59.68
775.665	60.24
775.979	59.6
776.293	59.76
776.608	59.89
776.922	59.49
777.236	59.21
777.55	58.98
777.864	58.94
778.178	58.24
778.492	58.09
778.806	57.89
779.12	57.74
779.434	57.86
779.747	58.01
780.061	57.45
780.375	57.28
780.689	57.21
781.002	57.1
781.316	56.49
781.629	56.15
781.943	55.78
782.256	55.36
782.57	55.76
782.883	55.49
783.196	55.66
783.51	55.76
783.823	55.65
784.136	55.27
784.449	55.24
784.762	55.55
785.075	55.3
785.388	55.65
785.701	55.45
786.014	55.73
786.327	55.3
786.64	54.89
786.953	55.01
787.266	54.82
787.578	54.86
787.891	55.45
788.204	54.85
788.516	55.26
788.829	55.04
789.141	55.14
789.454	54.95
789.766	55.17
790.079	55.54
790.391	55.91
790.703	57
791.016	57.23
791.328	57.18
791.64	57.08
791.952	57.04
792.264	56.81
792.576	56.68
792.888	56.79
793.2	57.21
793.512	57.57
793.824	57.72
794.136	57.35
794.448	56.68
794.76	57.43
795.071	57.37
795.383	57.93
795.695	57.65
796.006	57.91
796.318	57.81
796.629	57.18
796.941	57.21
797.252	56.66
797.564	56.26
797.875	56.79
798.186	57.36
798.497	57.82
798.809	58.1
799.12	57.69
799.431	57.81
799.742	57.76
800.053	57.61
800.364	57.62
800.675	57.94
800.986	58.36
801.297	58.9
801.608	58.39
801.918	58.35
802.229	58.91
802.54	59
802.851	59.05
803.161	59.15
803.472	58.39
803.782	57.9
804.093	57.65
804.403	57.53
804.714	57
805.024	56.21
805.334	56
805.645	55.87
805.955	55.97
806.265	56.26
806.575	56.08
806.885	56.17
807.195	56.43
807.505	56.29
807.815	55.17
808.125	55.84
808.435	55.91
808.745	55.98
809.055	56.59
809.365	56.26
809.674	56.56
809.984	57.58
810.294	58.34
810.603	58.14
810.913	58.34
811.222	58.4
811.532	58.44
811.841	58.62
812.151	59.25
812.46	59.17
812.769	59
813.079	59.24
813.388	58.85
813.697	58.24
814.006	58.53
814.315	59.33
814.624	59.6
814.933	59.34
815.242	58.68
815.551	57.58
815.86	57.49
816.169	56.99
816.478	56.45
816.786	55.85
817.095	55.89
817.404	55.36
817.712	56.17
818.021	55.74
818.33	55.41
818.638	55.44
818.947	55.14
819.255	55.12
819.563	55.05
819.872	55.6
820.18	56.4
820.488	56.78
820.796	56.65
821.105	56.91
821.413	56.97
821.721	57.1
822.029	57.33
822.337	57.54
822.645	57.96
822.953	57.95
823.26	58.13
823.568	58.34
823.876	58.33
824.184	58.35
824.491	58.69
824.799	58.82
825.107	58.86
825.414	58.97
825.722	59.1
826.029	59.3
826.337	59.22
826.644	59.08
826.951	58.97
827.259	59.04
827.566	58.83
827.873	59.04
828.18	59
828.488	58.99
828.795	59
829.102	58.92
829.409	58.84
829.716	58.46
830.023	58.48
830.329	58.15
830.636	58.01
830.943	57.89
831.25	58.22
831.557	58.03
831.863	58.5
832.17	58.27
832.476	58.04
832.783	58.28
833.089	57.82
833.396	57.63
833.702	57.72
834.009	58.03
834.315	57.44
834.621	57.83
834.928	57.5
835.234	57.45
835.54	56.82
835.846	57.24
836.152	57.41
836.458	57.16
836.764	57.61
837.07	57.43
837.376	57.23
837.682	57.04
837.988	57.26
838.293	56.78
838.599	57.17
838.905	56.78
839.211	56.54
839.516	57.1
839.822	57.59
840.127	57.81
840.433	57.6
840.738	58.27
841.044	58.28
841.349	57.98
841.654	57.59
841.959	57.36
842.265	57.5
842.57	56.86
842.875	57.17
843.18	57.64
843.485	58.86
843.79	58.59
844.095	58.14
844.4	58.46
844.705	59.42
845.01	59.53
845.315	60.02
845.619	60.09
845.924	58.77
846.229	56.7
846.533	56.06
846.838	54.98
847.142	54.34
847.447	53.2
847.751	54.01
848.056	55.48
848.36	56.39
848.664	55.56
848.969	55.65
849.273	53.72
849.577	53.74
849.881	51.56
850.185	51.44
850.489	51.94
850.794	50.39
851.097	48.64
851.401	48.42
851.705	49.2
852.009	47.58
852.313	47.18
852.617	48.54
852.92	49.64
853.224	51.45
853.528	51.02
853.831	53.14
854.135	52.99
854.438	50.95
854.742	50.69
855.045	51.07
855.349	50.99
855.652	51.87
855.955	51.74
856.259	51.26
856.562	51.89
856.865	52.57
857.168	54.29
857.471	54.41
857.774	52.83
858.077	53.17
858.38	55.21
858.683	56.08
858.986	54.45
859.289	51.72
859.592	52.32
859.894	53.3
860.197	51.41
860.5	53.41
860.802	54.21
861.105	56.1
861.407	54.7
861.71	56.13
862.012	58.29
862.315	59.08
862.617	59.85
862.919	59.79
863.222	58.8
863.524	55.92
863.826	55.29
864.128	56.68
864.43	55.23
864.732	55.32
865.034	56.3
865.336	60.03
865.638	61.46
865.94	59.58
866.242	58.24
866.544	58.52
866.846	56.61
867.147	56.88
867.449	55.48
867.751	57.28
868.052	56.1
868.354	52.1
868.655	51.67
868.957	50.25
869.258	49.74
869.56	49.15
869.861	50.34
870.162	51.09
870.463	49.09
870.765	50.9
871.066	49.21
871.367	49.77
871.668	48.64
871.969	49.92
872.27	50.48
872.571	50.67
872.872	50.51
873.173	51.8
873.473	51.67
873.774	52.68
874.075	50.21
874.376	49.57
874.676	51.67
874.977	51.48
875.277	54.41
875.578	53.12
875.878	53.06
876.179	53.68
876.479	53.39
876.78	56.6
877.08	54.87
877.38	56.7
877.68	55.91
877.981	54.84
878.281	52.79
878.581	50.46
