Data from BU26846_Reflection_00013.txt Node
Date: Mon Nov 18 16:33:46 EST 2019
User: vgr7
Spectrometer: USB2G7710
Scans to average: 3
Trigger mode: 4
Integration Time (sec): 2.000000E-2
Electric dark correction enabled: true
Boxcar width: 10
XAxis mode: Wavelengths
Number of Pixels in Spectrum: 2048
>>>>>Begin Spectral Data<<<<<
177.721	96.93
178.105	-333.96
178.488	176.34
178.871	-21.02
179.254	6.58
179.636	4.11
180.019	16.29
180.402	136.36
180.785	55.97
181.168	16.96
181.55	14.24
181.933	62
182.316	64.24
182.698	69.76
183.081	43.65
183.463	61.56
183.846	81.69
184.228	-23.54
184.611	-142.62
184.993	-798.88
185.376	1295.88
185.758	-2463.38
186.14	-236.22
186.522	-158.22
186.904	-79.7
187.287	-42.69
187.669	-68.33
188.051	-55.17
188.433	-81.27
188.815	-78.18
189.197	-81.29
189.579	-122.38
189.961	-304.72
190.342	-279.6
190.724	176.15
191.106	-327.48
191.488	-42.1
191.869	30.8
192.251	21.67
192.633	34.87
193.014	7.74
193.396	20.44
193.777	40.1
194.159	52.53
194.54	18.93
194.922	27.77
195.303	47.19
195.684	37.75
196.065	47
196.447	37.35
196.828	13.04
197.209	53.03
197.59	69.01
197.971	-5.66
198.352	-53.39
198.733	-50.48
199.114	-72.8
199.495	-251.88
199.876	1044.72
200.257	418.29
200.638	265.16
201.018	190.58
201.399	141.98
201.78	92.5
202.16	102.94
202.541	52.39
202.922	51.74
203.302	43.92
203.683	35.25
204.063	31.13
204.444	7.65
204.824	0.73
205.204	-2.48
205.585	-2.59
205.965	-16.05
206.345	-31.5
206.725	-51.19
207.106	-44.13
207.486	-72.76
207.866	-100.84
208.246	-144.12
208.626	-168.01
209.006	-119.4
209.386	-183.27
209.766	-267.16
210.145	-212.82
210.525	-170.94
210.905	-89.94
211.285	-62.74
211.664	-45.9
212.044	-23.66
212.424	21.81
212.803	19.02
213.183	135.28
213.562	106.14
213.942	209.28
214.321	196.74
214.701	166.95
215.08	208.03
215.459	159.65
215.838	80.3
216.218	34.35
216.597	180.28
216.976	164.12
217.355	219.07
217.734	181.42
218.113	196.46
218.492	244.96
218.871	5991.89
219.25	264.41
219.629	747.89
220.008	-1744.31
220.387	6964.86
220.766	442.23
221.144	3673.77
221.523	-1552.17
221.902	-590.81
222.28	-1214.69
222.659	300.94
223.037	98.13
223.416	107.47
223.794	127.86
224.173	98.54
224.551	59.9
224.929	44.54
225.308	22.01
225.686	24.47
226.064	8.77
226.442	7.91
226.821	8.73
227.199	2.86
227.577	0.34
227.955	-1.79
228.333	-1.14
228.711	0.8
229.089	2.79
229.467	1.21
229.845	2.48
230.222	3.46
230.6	2.48
230.978	4.21
231.356	6.96
231.733	4.7
232.111	6.95
232.488	8.65
232.866	7.66
233.243	9.07
233.621	8.33
233.998	11.17
234.376	12.69
234.753	9.83
235.13	12.35
235.508	12.09
235.885	10.31
236.262	9.15
236.639	7.22
237.016	6.59
237.393	7.64
237.77	6.39
238.147	6.68
238.524	7.43
238.901	7.22
239.278	7.15
239.655	7.88
240.032	7.17
240.409	6.77
240.785	7.06
241.162	7.01
241.539	7
241.915	6.47
242.292	5.89
242.668	6.33
243.045	6.16
243.421	5.96
243.798	5.81
244.174	5.72
244.551	5.72
244.927	5.56
245.303	5.32
245.679	5.6
246.056	5.36
246.432	5.2
246.808	5
247.184	4.65
247.56	4.5
247.936	4.19
248.312	4.19
248.688	4.19
249.064	4.1
249.44	3.9
249.815	4.01
250.191	4.06
250.567	4.06
250.943	3.77
251.318	3.95
251.694	4.14
252.069	4.28
252.445	4.2
252.82	4.26
253.196	4.26
253.571	4.32
253.947	4.35
254.322	4.27
254.697	4.19
255.073	4.17
255.448	4.2
255.823	4.58
256.198	4.57
256.573	4.36
256.948	4.52
257.323	4.51
257.698	4.56
258.073	4.46
258.448	4.38
258.823	4.51
259.198	4.33
259.573	4.21
259.948	3.93
260.322	4.09
260.697	3.97
261.072	3.94
261.446	3.84
261.821	3.92
262.195	3.79
262.57	3.9
262.944	3.98
263.319	4.05
263.693	3.92
264.067	3.99
264.442	4.17
264.816	3.89
265.19	3.97
265.564	3.88
265.938	3.76
266.313	3.66
266.687	3.62
267.061	3.74
267.435	3.77
267.809	3.94
268.183	3.97
268.556	4.01
268.93	4.08
269.304	4.15
269.678	3.95
270.051	4.15
270.425	4.16
270.799	4.21
271.172	4.18
271.546	4.26
271.919	4.17
272.293	4.08
272.666	4.18
273.04	4.2
273.413	4.07
273.787	4.3
274.16	4.32
274.533	4.28
274.906	4.12
275.279	4.18
275.653	4.22
276.026	3.99
276.399	4.01
276.772	3.92
277.145	3.79
277.518	3.93
277.891	3.97
278.263	3.8
278.636	3.71
279.009	3.55
279.382	3.67
279.755	3.61
280.127	3.65
280.5	3.53
280.872	3.57
281.245	3.61
281.617	3.61
281.99	3.67
282.362	3.77
282.735	3.88
283.107	3.68
283.479	3.75
283.852	3.92
284.224	3.88
284.596	3.84
284.968	3.93
285.34	3.88
285.713	3.87
286.085	3.98
286.457	4.08
286.829	4.32
287.201	4.21
287.572	4.23
287.944	4.15
288.316	4.25
288.688	4.21
289.06	4.27
289.431	4.29
289.803	4.31
290.175	4.35
290.546	4.41
290.918	4.63
291.289	4.58
291.661	4.55
292.032	4.64
292.403	4.83
292.775	4.8
293.146	4.9
293.517	4.83
293.889	4.92
294.26	4.88
294.631	4.75
295.002	4.9
295.373	4.83
295.744	4.94
296.115	4.89
296.486	4.84
296.857	4.77
297.228	4.79
297.599	4.84
297.97	4.8
298.34	4.84
298.711	4.93
299.082	4.98
299.452	5.03
299.823	5.03
300.194	5.01
300.564	4.98
300.935	5.03
301.305	5.13
301.676	5.06
302.046	5.16
302.416	5.29
302.787	5.24
303.157	5.4
303.527	5.44
303.897	5.65
304.267	5.82
304.637	5.99
305.008	5.92
305.378	6.09
305.748	6.19
306.117	6.17
306.487	6.09
306.857	6.11
307.227	6.08
307.597	6.16
307.967	6.16
308.336	6.27
308.706	6.42
309.076	6.42
309.445	6.41
309.815	6.33
310.184	6.27
310.554	6.31
310.923	6.43
311.293	6.51
311.662	6.55
312.031	6.44
312.401	6.39
312.77	6.62
313.139	6.63
313.508	6.64
313.877	6.72
314.246	6.87
314.616	6.94
314.985	7.1
315.353	7.16
315.722	7.31
316.091	7.31
316.46	7.25
316.829	7.29
317.198	7.38
317.567	7.58
317.935	7.71
318.304	7.93
318.672	7.8
319.041	8.03
319.41	8
319.778	8.2
320.147	8.56
320.515	8.52
320.883	8.33
321.252	8.4
321.62	8.48
321.988	8.55
322.357	8.63
322.725	8.63
323.093	8.75
323.461	8.75
323.829	8.95
324.197	8.96
324.565	9.23
324.933	9.49
325.301	9.57
325.669	9.52
326.037	9.4
326.405	9.61
326.772	9.45
327.14	9.47
327.508	9.43
327.875	9.2
328.243	9.2
328.61	9.38
328.978	9.46
329.346	9.54
329.713	9.43
330.08	9.47
330.448	9.49
330.815	9.3
331.182	9.34
331.55	9.36
331.917	9.57
332.284	9.47
332.651	9.26
333.018	9.2
333.385	9.29
333.752	9.41
334.119	9.38
334.486	9.41
334.853	9.53
335.22	9.58
335.587	9.68
335.954	9.73
336.32	9.79
336.687	9.7
337.054	9.62
337.42	9.63
337.787	9.55
338.153	9.63
338.52	9.75
338.886	9.72
339.253	9.65
339.619	9.6
339.986	9.65
340.352	9.71
340.718	9.64
341.084	9.61
341.451	9.68
341.817	9.77
342.183	9.82
342.549	9.71
342.915	9.77
343.281	9.84
343.647	9.86
344.013	9.82
344.379	9.86
344.745	9.95
345.11	9.96
345.476	10.01
345.842	10.04
346.208	10.05
346.573	10.08
346.939	10.06
347.304	9.98
347.67	9.95
348.035	9.9
348.401	9.95
348.766	9.98
349.132	9.92
349.497	9.76
349.862	9.74
350.228	9.84
350.593	9.76
350.958	9.68
351.323	9.62
351.688	9.65
352.053	9.62
352.418	9.65
352.783	9.72
353.148	9.68
353.513	9.65
353.878	9.6
354.243	9.65
354.608	9.79
354.972	9.8
355.337	9.85
355.702	10
356.066	10.02
356.431	10.03
356.795	10.03
357.16	10.05
357.524	9.96
357.889	9.86
358.253	9.91
358.618	9.96
358.982	9.94
359.346	9.87
359.71	9.85
360.075	9.77
360.439	9.72
360.803	9.69
361.167	9.61
361.531	9.58
361.895	9.49
362.259	9.42
362.623	9.35
362.987	9.26
363.351	9.18
363.714	9.14
364.078	9.11
364.442	9
364.806	8.98
365.169	8.98
365.533	8.93
365.896	8.83
366.26	8.76
366.623	8.73
366.987	8.72
367.35	8.7
367.714	8.7
368.077	8.59
368.44	8.6
368.803	8.53
369.167	8.5
369.53	8.45
369.893	8.38
370.256	8.4
370.619	8.36
370.982	8.27
371.345	8.16
371.708	8.12
372.071	8.11
372.434	7.95
372.797	7.94
373.159	7.88
373.522	7.86
373.885	7.85
374.247	7.75
374.61	7.7
374.973	7.59
375.335	7.48
375.698	7.52
376.06	7.41
376.423	7.4
376.785	7.31
377.147	7.27
377.51	7.2
377.872	7.13
378.234	7.05
378.596	7.03
378.958	6.96
379.321	6.93
379.683	6.86
380.045	6.85
380.407	6.74
380.769	6.71
381.13	6.64
381.492	6.49
381.854	6.48
382.216	6.41
382.578	6.41
382.939	6.33
383.301	6.2
383.663	6.1
384.024	5.99
384.386	6.02
384.747	5.97
385.109	5.94
385.47	5.91
385.832	5.87
386.193	5.83
386.554	5.84
386.916	5.72
387.277	5.72
387.638	5.68
387.999	5.65
388.36	5.64
388.721	5.64
389.082	5.69
389.443	5.62
389.804	5.57
390.165	5.51
390.526	5.54
390.887	5.53
391.248	5.59
391.609	5.6
391.969	5.53
392.33	5.51
392.691	5.49
393.051	5.44
393.412	5.43
393.772	5.35
394.133	5.32
394.493	5.31
394.854	5.28
395.214	5.27
395.574	5.25
395.935	5.21
396.295	5.18
396.655	5.1
397.015	5.05
397.376	5.06
397.736	5.06
398.096	5.01
398.456	5.01
398.816	4.92
399.176	4.83
399.535	4.8
399.895	4.79
400.255	4.76
400.615	4.71
400.975	4.69
401.334	4.68
401.694	4.65
402.054	4.61
402.413	4.58
402.773	4.52
403.132	4.48
403.492	4.42
403.851	4.37
404.211	4.36
404.57	4.37
404.929	4.33
405.288	4.28
405.648	4.26
406.007	4.21
406.366	4.23
406.725	4.26
407.084	4.24
407.443	4.21
407.802	4.18
408.161	4.19
408.52	4.15
408.879	4.15
409.238	4.12
409.596	4.1
409.955	4.1
410.314	4.12
410.673	4.11
411.031	4.14
411.39	4.13
411.748	4.08
412.107	4.07
412.465	4.05
412.824	4.06
413.182	4.07
413.54	4.1
413.899	4.09
414.257	4.06
414.615	4.07
414.974	4.06
415.332	4.04
415.69	4.02
416.048	3.99
416.406	3.97
416.764	3.95
417.122	3.94
417.48	3.88
417.838	3.88
418.195	3.86
418.553	3.85
418.911	3.85
419.269	3.87
419.626	3.84
419.984	3.82
420.342	3.82
420.699	3.79
421.057	3.77
421.414	3.74
421.772	3.73
422.129	3.71
422.486	3.7
422.844	3.68
423.201	3.67
423.558	3.66
423.915	3.66
424.273	3.65
424.63	3.66
424.987	3.68
425.344	3.66
425.701	3.67
426.058	3.66
426.415	3.65
426.772	3.63
427.128	3.61
427.485	3.63
427.842	3.61
428.199	3.62
428.555	3.6
428.912	3.61
429.269	3.61
429.625	3.59
429.982	3.58
430.338	3.6
430.695	3.62
431.051	3.62
431.407	3.62
431.764	3.62
432.12	3.6
432.476	3.59
432.832	3.59
433.189	3.59
433.545	3.58
433.901	3.57
434.257	3.58
434.613	3.6
434.969	3.58
435.325	3.58
435.681	3.58
436.036	3.58
436.392	3.57
436.748	3.56
437.104	3.57
437.459	3.57
437.815	3.57
438.171	3.56
438.526	3.56
438.882	3.57
439.237	3.57
439.593	3.58
439.948	3.56
440.304	3.56
440.659	3.54
441.014	3.55
441.369	3.55
441.725	3.55
442.08	3.54
442.435	3.54
442.79	3.54
443.145	3.54
443.5	3.53
443.855	3.52
444.21	3.51
444.565	3.51
444.92	3.5
445.275	3.49
445.629	3.5
445.984	3.5
446.339	3.47
446.693	3.47
447.048	3.46
447.403	3.47
447.757	3.46
448.112	3.46
448.466	3.45
448.82	3.44
449.175	3.44
449.529	3.43
449.883	3.42
450.238	3.4
450.592	3.4
450.946	3.38
451.3	3.37
451.654	3.38
452.008	3.38
452.362	3.36
452.716	3.37
453.07	3.34
453.424	3.35
453.778	3.34
454.132	3.31
454.486	3.3
454.839	3.3
455.193	3.29
455.547	3.3
455.9	3.29
456.254	3.29
456.607	3.3
456.961	3.3
457.314	3.31
457.668	3.32
458.021	3.33
458.375	3.34
458.728	3.34
459.081	3.35
459.434	3.35
459.787	3.36
460.141	3.36
460.494	3.37
460.847	3.37
461.2	3.38
461.553	3.39
461.906	3.4
462.259	3.4
462.611	3.43
462.964	3.44
463.317	3.43
463.67	3.43
464.022	3.44
464.375	3.44
464.728	3.47
465.08	3.45
465.433	3.44
465.785	3.45
466.138	3.46
466.49	3.46
466.843	3.46
467.195	3.47
467.547	3.49
467.899	3.5
468.252	3.52
468.604	3.53
468.956	3.54
469.308	3.56
469.66	3.57
470.012	3.57
470.364	3.59
470.716	3.64
471.068	3.67
471.42	3.65
471.772	3.69
472.123	3.68
472.475	3.71
472.827	3.73
473.178	3.75
473.53	3.75
473.882	3.77
474.233	3.79
474.585	3.78
474.936	3.78
475.288	3.78
475.639	3.77
475.99	3.75
476.342	3.76
476.693	3.75
477.044	3.74
477.395	3.74
477.746	3.72
478.097	3.71
478.448	3.69
478.8	3.7
479.15	3.68
479.501	3.68
479.852	3.68
480.203	3.67
480.554	3.66
480.905	3.66
481.255	3.66
481.606	3.65
481.957	3.64
482.307	3.64
482.658	3.65
483.009	3.63
483.359	3.63
483.709	3.64
484.06	3.63
484.41	3.64
484.761	3.63
485.111	3.64
485.461	3.64
485.811	3.64
486.162	3.64
486.512	3.65
486.862	3.64
487.212	3.63
487.562	3.62
487.912	3.62
488.262	3.62
488.612	3.62
488.961	3.62
489.311	3.63
489.661	3.63
490.011	3.63
490.36	3.63
490.71	3.64
491.06	3.64
491.409	3.65
491.759	3.65
492.108	3.66
492.458	3.66
492.807	3.65
493.157	3.67
493.506	3.67
493.855	3.67
494.204	3.7
494.554	3.72
494.903	3.73
495.252	3.75
495.601	3.76
495.95	3.78
496.299	3.81
496.648	3.83
496.997	3.85
497.346	3.87
497.695	3.92
498.043	3.96
498.392	3.98
498.741	4.03
499.09	4.06
499.438	4.1
499.787	4.13
500.135	4.2
500.484	4.26
500.832	4.31
501.181	4.39
501.529	4.45
501.878	4.54
502.226	4.61
502.574	4.7
502.923	4.78
503.271	4.87
503.619	4.99
503.967	5.05
504.315	5.14
504.663	5.25
505.011	5.38
505.359	5.48
505.707	5.61
506.055	5.72
506.403	5.86
506.751	6
507.098	6.11
507.446	6.26
507.794	6.4
508.141	6.53
508.489	6.67
508.837	6.85
509.184	6.99
509.531	7.17
509.879	7.35
510.226	7.55
510.574	7.71
510.921	7.86
511.268	8.05
511.616	8.26
511.963	8.46
512.31	8.66
512.657	8.89
513.004	9.14
513.351	9.4
513.698	9.65
514.045	9.94
514.392	10.24
514.739	10.54
515.086	10.84
515.432	11.12
515.779	11.41
516.126	11.69
516.473	11.99
516.819	12.29
517.166	12.54
517.512	12.8
517.859	13.06
518.205	13.31
518.552	13.6
518.898	13.85
519.245	14.12
519.591	14.38
519.937	14.66
520.283	14.94
520.629	15.25
520.976	15.55
521.322	15.86
521.668	16.18
522.014	16.51
522.36	16.88
522.706	17.26
523.052	17.64
523.398	18.08
523.743	18.49
524.089	18.87
524.435	19.29
524.781	19.64
525.126	20
525.472	20.33
525.817	20.61
526.163	20.89
526.509	21.15
526.854	21.41
527.199	21.63
527.545	21.84
527.89	22.03
528.235	22.26
528.581	22.46
528.926	22.68
529.271	22.91
529.616	23.13
529.961	23.35
530.306	23.58
530.651	23.78
530.996	24.03
531.341	24.28
531.686	24.52
532.031	24.78
532.376	25.03
532.721	25.34
533.065	25.62
533.41	25.9
533.755	26.18
534.099	26.45
534.444	26.74
534.788	27.04
535.133	27.33
535.477	27.61
535.822	27.94
536.166	28.24
536.51	28.56
536.855	28.88
537.199	29.22
537.543	29.56
537.887	29.91
538.231	30.23
538.576	30.57
538.92	30.92
539.264	31.24
539.608	31.53
539.951	31.77
540.295	32.04
540.639	32.27
540.983	32.53
541.327	32.77
541.671	33.01
542.014	33.23
542.358	33.45
542.701	33.67
543.045	33.87
543.389	34.1
543.732	34.32
544.075	34.52
544.419	34.77
544.762	35.02
545.105	35.26
545.449	35.54
545.792	35.83
546.135	36.08
546.478	36.37
546.821	36.67
547.165	36.96
547.508	37.27
547.851	37.59
548.194	37.86
548.536	38.16
548.879	38.43
549.222	38.72
549.565	39.01
549.908	39.26
550.25	39.54
550.593	39.81
550.936	40.05
551.278	40.32
551.621	40.57
551.963	40.83
552.306	41.1
552.648	41.26
552.991	41.52
553.333	41.69
553.675	41.92
554.017	42.13
554.36	42.27
554.702	42.43
555.044	42.59
555.386	42.76
555.728	42.95
556.07	43.09
556.412	43.31
556.754	43.54
557.096	43.71
557.438	43.88
557.78	44.12
558.121	44.35
558.463	44.57
558.805	44.75
559.147	44.87
559.488	45.04
559.83	45.26
560.171	45.39
560.513	45.55
560.854	45.67
561.196	45.84
561.537	46.07
561.878	46.2
562.22	46.4
562.561	46.51
562.902	46.62
563.243	46.8
563.584	46.94
563.925	47.07
564.266	47.21
564.607	47.37
564.948	47.44
565.289	47.53
565.63	47.7
565.971	47.77
566.312	47.91
566.653	48.01
566.993	48.09
567.334	48.14
567.675	48.29
568.015	48.44
568.356	48.48
568.696	48.53
569.037	48.69
569.377	48.81
569.718	49.02
570.058	49.13
570.398	49.27
570.739	49.37
571.079	49.47
571.419	49.61
571.759	49.7
572.099	49.8
572.439	49.91
572.779	49.94
573.119	50.08
573.459	50.15
573.799	50.28
574.139	50.41
574.479	50.52
574.819	50.58
575.158	50.64
575.498	50.8
575.838	50.95
576.177	51.03
576.517	51.09
576.856	51.11
577.196	51.22
577.535	51.3
577.875	51.43
578.214	51.51
578.553	51.6
578.893	51.68
579.232	51.79
579.571	51.87
579.91	51.95
580.25	52.04
580.589	52.16
580.928	52.21
581.267	52.31
581.606	52.37
581.945	52.49
582.283	52.58
582.622	52.63
582.961	52.73
583.3	52.78
583.639	52.92
583.977	53.03
584.316	53.14
584.654	53.22
584.993	53.17
585.332	53.21
585.67	53.31
586.008	53.4
586.347	53.41
586.685	53.52
587.024	53.64
587.362	53.73
587.7	53.85
588.038	53.91
588.376	53.91
588.715	54.05
589.053	54.1
589.391	54.14
589.729	54.24
590.067	54.27
590.404	54.38
590.742	54.41
591.08	54.44
591.418	54.56
591.756	54.62
592.093	54.72
592.431	54.81
592.769	54.9
593.106	54.97
593.444	55.04
593.781	55.11
594.119	55.15
594.456	55.22
594.793	55.19
595.131	55.26
595.468	55.34
595.805	55.41
596.143	55.47
596.48	55.57
596.817	55.63
597.154	55.7
597.491	55.72
597.828	55.65
598.165	55.71
598.502	55.73
598.839	55.82
599.176	55.86
599.512	56.02
599.849	56.05
600.186	56.11
600.523	56.22
600.859	56.3
601.196	56.34
601.532	56.32
601.869	56.36
602.205	56.39
602.542	56.43
602.878	56.45
603.215	56.47
603.551	56.54
603.887	56.57
604.223	56.59
604.56	56.62
604.896	56.7
605.232	56.72
605.568	56.73
605.904	56.76
606.24	56.87
606.576	56.85
606.912	56.85
607.248	56.83
607.583	56.87
607.919	56.83
608.255	56.87
608.591	56.93
608.926	57.02
609.262	57.09
609.597	57.21
609.933	57.28
610.268	57.36
610.604	57.33
610.939	57.37
611.275	57.38
611.61	57.45
611.945	57.55
612.281	57.67
612.616	57.77
612.951	57.77
613.286	57.78
613.621	57.75
613.956	57.87
614.291	57.99
614.626	58.04
614.961	58.12
615.296	58.16
615.631	58.17
615.966	58.23
616.3	58.22
616.635	58.16
616.97	58.18
617.304	58.17
617.639	58.28
617.973	58.33
618.308	58.36
618.642	58.42
618.977	58.47
619.311	58.37
619.646	58.37
619.98	58.38
620.314	58.46
620.648	58.49
620.983	58.54
621.317	58.48
621.651	58.58
621.985	58.55
622.319	58.63
622.653	58.7
622.987	58.66
623.321	58.68
623.655	58.63
623.988	58.68
624.322	58.78
624.656	58.76
624.99	58.74
625.323	58.83
625.657	58.9
625.99	58.93
626.324	58.95
626.657	59.05
626.991	59.17
627.324	59.12
627.658	59.22
627.991	59.21
628.324	59.3
628.657	59.29
628.991	59.31
629.324	59.32
629.657	59.38
629.99	59.38
630.323	59.44
630.656	59.54
630.989	59.44
631.322	59.34
631.655	59.38
631.987	59.4
632.32	59.4
632.653	59.38
632.986	59.31
633.318	59.36
633.651	59.16
633.984	58.93
634.316	58.97
634.649	58.92
634.981	58.94
635.313	58.93
635.646	58.86
635.978	59.03
636.31	59.07
636.643	59.06
636.975	59.14
637.307	59.04
637.639	59.06
637.971	59.27
638.303	59.33
638.635	59.28
638.967	59.25
639.299	59.29
639.631	59.24
639.963	59.38
640.295	59.45
640.626	59.55
640.958	59.77
641.29	59.69
641.621	59.71
641.953	59.61
642.285	59.72
642.616	59.82
642.948	59.7
643.279	59.75
643.61	59.79
643.942	59.85
644.273	59.93
644.604	59.87
644.936	59.81
645.267	59.82
645.598	59.9
645.929	60
646.26	59.87
646.591	59.91
646.922	59.79
647.253	59.83
647.584	59.92
647.915	59.92
648.245	60.08
648.576	60.11
648.907	60.09
649.238	59.97
649.568	60.06
649.899	60.2
650.229	60.14
650.56	60.04
650.89	60.05
651.221	60.13
651.551	60.3
651.882	60.24
652.212	60.32
652.542	60.4
652.872	60.47
653.203	60.6
653.533	60.66
653.863	60.68
654.193	60.64
654.523	60.7
654.853	60.78
655.183	60.73
655.513	60.84
655.843	61
656.172	61.11
656.502	61.09
656.832	60.99
657.162	60.95
657.491	60.93
657.821	60.84
658.15	60.76
658.48	60.77
658.809	60.81
659.139	60.84
659.468	60.85
659.798	60.81
660.127	60.87
660.456	60.89
660.785	60.98
661.115	61.04
661.444	61
661.773	61
662.102	61.05
662.431	61.03
662.76	61.02
663.089	60.99
663.418	60.94
663.747	61.08
664.076	61.18
664.404	61.2
664.733	61.32
665.062	61.41
665.39	61.37
665.719	61.48
666.048	61.41
666.376	61.34
666.705	61.32
667.033	61.2
667.362	61.24
667.69	61.3
668.018	61.33
668.347	61.35
668.675	61.34
669.003	61.21
669.331	61.16
669.659	61.2
669.987	61.27
670.315	61.34
670.643	61.24
670.971	61.26
671.299	61.39
671.627	61.45
671.955	61.38
672.283	61.44
672.61	61.35
672.938	61.4
673.266	61.46
673.593	61.48
673.921	61.54
674.249	61.52
674.576	61.47
674.904	61.44
675.231	61.34
675.558	61.32
675.886	61.4
676.213	61.42
676.54	61.42
676.867	61.37
677.195	61.37
677.522	61.38
677.849	61.35
678.176	61.32
678.503	61.33
678.83	61.39
679.157	61.38
679.484	61.5
679.81	61.55
680.137	61.47
680.464	61.51
680.791	61.4
681.117	61.44
681.444	61.4
681.771	61.48
682.097	61.46
682.424	61.47
682.75	61.51
683.077	61.52
683.403	61.51
683.729	61.61
684.056	61.6
684.382	61.61
684.708	61.64
685.034	61.66
685.36	61.59
685.686	61.67
686.012	61.71
686.339	61.62
686.664	61.46
686.99	61.62
687.316	61.59
687.642	61.74
687.968	61.62
688.294	61.64
688.619	61.55
688.945	61.64
689.271	61.47
689.596	61.46
689.922	61.44
690.247	61.4
690.573	61.33
690.898	61.25
691.224	61.16
691.549	61.07
691.874	61.14
692.2	61.3
692.525	61.26
692.85	61.09
693.175	61.13
693.5	61.3
693.825	61.15
694.15	61.27
694.475	61.3
694.8	61.31
695.125	61.28
695.45	61.29
695.775	61.31
696.099	61.43
696.424	61.55
696.749	61.63
697.073	61.79
697.398	61.75
697.723	61.72
698.047	61.94
698.372	62.02
698.696	62.01
699.02	61.91
699.345	61.9
699.669	62
699.993	61.9
700.318	62
700.642	62.12
700.966	62.01
701.29	62.08
701.614	62.06
701.938	62.41
702.262	62.46
702.586	62.52
702.91	62.65
703.234	62.6
703.557	62.53
703.881	62.39
704.205	62.32
704.529	62.34
704.852	62.31
705.176	62.45
705.499	62.37
705.823	62.3
706.146	62.25
706.47	62.31
706.793	62.56
707.117	62.27
707.44	62.27
707.763	62.36
708.086	62.23
708.409	62.19
708.733	61.83
709.056	61.88
709.379	61.79
709.702	61.77
710.025	61.71
710.348	61.8
710.671	61.83
710.993	61.93
711.316	62
711.639	62.02
711.962	61.94
712.284	61.88
712.607	61.99
712.93	62.11
713.252	61.92
713.575	61.7
713.897	61.83
714.22	61.86
714.542	61.97
714.864	61.99
715.187	62.14
715.509	62.2
715.831	62.14
716.153	62.26
716.475	62.22
716.798	62.32
717.12	62.34
717.442	62.39
717.764	62.61
718.085	62.71
718.407	62.56
718.729	62.37
719.051	62.36
719.373	62.23
719.695	62.06
720.016	62.2
720.338	62.4
720.659	62.27
720.981	62.23
721.302	62.01
721.624	62.13
721.945	62.14
722.267	62.19
722.588	62.2
722.909	62.26
723.231	62.22
723.552	62.15
723.873	62.16
724.194	62.29
724.515	62.05
724.836	62.13
725.157	62.19
725.478	62.48
725.799	62.62
726.12	62.69
726.441	62.95
726.762	63
727.083	62.87
727.403	63.19
727.724	63.15
728.045	63.32
728.365	63.35
728.686	63.11
729.006	63.19
729.327	62.98
729.647	62.91
729.967	63.05
730.288	63.26
730.608	63.09
730.928	63.13
731.249	63.12
731.569	63.13
731.889	63.22
732.209	62.98
732.529	63.04
732.849	62.98
733.169	62.84
733.489	63
733.809	63.12
734.129	63.11
734.448	63.26
734.768	63.02
735.088	62.93
735.408	63.08
735.727	62.89
736.047	63.2
736.366	63.23
736.686	63.44
737.005	63.24
737.325	63.58
737.644	63.34
737.963	63.51
738.283	63.3
738.602	63.13
738.921	63.19
739.24	63.28
739.56	63.59
739.879	63.68
740.198	63.69
740.517	63.31
740.836	63.11
741.155	63
741.473	62.96
741.792	62.96
742.111	63.14
742.43	63.23
742.748	63.21
743.067	63.26
743.386	63.08
743.704	63.28
744.023	63.21
744.341	63.34
744.66	63.22
744.978	63.48
745.297	63.89
745.615	64.1
745.933	63.83
746.252	63.84
746.57	63.98
746.888	63.77
747.206	64.16
747.524	64.15
747.842	64.09
748.16	64.61
748.478	64.5
748.796	64.35
749.114	64.57
749.432	64.52
749.749	64.4
750.067	64.29
750.385	64.14
750.703	64.36
751.02	64.2
751.338	64.02
751.655	63.9
751.973	63.72
752.29	63.77
752.608	63.56
752.925	63.23
753.242	63.12
753.56	63.07
753.877	63.1
754.194	63.12
754.511	63.46
754.828	63.31
755.145	63.51
755.462	63.47
755.779	63.3
756.096	63.16
756.413	63.21
756.73	63.49
757.047	63.54
757.364	63.15
757.68	63.26
757.997	63.45
758.314	63.36
758.63	63.04
758.947	62.84
759.264	63.28
759.58	63.35
759.896	63.45
760.213	63.46
760.529	63.36
760.846	63.32
761.162	62.8
761.478	62.75
761.794	62.52
762.11	62.57
762.426	62.5
762.743	62.66
763.059	62.43
763.375	62.37
763.69	62.31
764.006	62.32
764.322	62.47
764.638	62.54
764.954	62.72
765.27	62.67
765.585	62.54
765.901	62.38
766.216	62.21
766.532	61.95
766.848	61.8
767.163	61.75
767.478	61.88
767.794	62.01
768.109	61.89
768.424	62.2
768.74	62.45
769.055	62.39
769.37	62.3
769.685	62.54
770	62.09
770.315	62.15
770.63	62.2
770.945	62.07
771.26	61.93
771.575	62.22
771.89	62.37
772.205	62.99
772.52	63.15
772.834	63.55
773.149	63.77
773.464	64.24
773.778	64.29
774.093	64.21
774.407	64.31
774.722	64.14
775.036	63.99
775.351	63.45
775.665	63.49
775.979	63.46
776.293	63.59
776.608	64.09
776.922	63.65
777.236	63.71
777.55	63.87
777.864	63.95
778.178	63.36
778.492	63.44
778.806	63.06
779.12	63.1
779.434	63.4
779.747	63.37
780.061	63.06
780.375	63.27
780.689	63.58
781.002	63.75
781.316	63.93
781.629	63.99
781.943	64.08
782.256	64.18
782.57	64.36
782.883	64.37
783.196	64.21
783.51	64.56
783.823	63.91
784.136	64.15
784.449	64.46
784.762	64.82
785.075	64.64
785.388	65.06
785.701	64.92
786.014	64.48
786.327	64.23
786.64	64.13
786.953	64.1
787.266	64.02
787.578	63.75
787.891	63.98
788.204	64.08
788.516	64.55
788.829	64.92
789.141	64.54
789.454	64.69
789.766	64.66
790.079	64.61
790.391	65.5
790.703	64.88
791.016	64.94
791.328	64.95
791.64	65.53
791.952	64.85
792.264	64.67
792.576	64.68
792.888	64.76
793.2	65
793.512	64.78
793.824	64.54
794.136	64.59
794.448	64.23
794.76	64.03
795.071	63.97
795.383	63.57
795.695	64.07
796.006	63.81
796.318	64.04
796.629	64.47
796.941	63.98
797.252	64.14
797.564	63.81
797.875	63.29
798.186	62.8
798.497	62.86
798.809	62.66
799.12	62.41
799.431	62.4
799.742	62.52
800.053	63.01
800.364	62.96
800.675	63.58
800.986	64.04
801.297	63.71
801.608	63.83
801.918	64.35
802.229	64.14
802.54	63.89
802.851	63.57
803.161	63.18
803.472	63.54
803.782	64.04
804.093	63.61
804.403	63.88
804.714	64.12
805.024	64.35
805.334	64.95
805.645	65.1
805.955	65.41
806.265	65.53
806.575	65.29
806.885	64.95
807.195	64.11
807.505	64.37
807.815	65.03
808.125	64.25
808.435	64.45
808.745	64.42
809.055	64.54
809.365	64.65
809.674	64.66
809.984	64.72
810.294	64.28
810.603	65.15
810.913	65.31
811.222	65.64
811.532	65.45
811.841	64.89
812.151	65.76
812.46	65.65
812.769	66.32
813.079	66.25
813.388	66.9
813.697	67.17
814.006	66.19
814.315	66.34
814.624	67.37
814.933	66.88
815.242	67.29
815.551	67.65
815.86	68.23
816.169	67.99
816.478	67.41
816.786	66.81
817.095	66.37
817.404	66.23
817.712	66.22
818.021	66.75
818.33	67.76
818.638	66.61
818.947	66.88
819.255	66.75
819.563	66.73
819.872	66.31
820.18	66.45
820.488	66.69
820.796	66.13
821.105	65.82
821.413	65.48
821.721	65.2
822.029	65.24
822.337	65.24
822.645	65.43
822.953	65.3
823.26	65.5
823.568	65.49
823.876	65.42
824.184	65.27
824.491	65.31
824.799	65.1
825.107	65.29
825.414	65.21
825.722	64.98
826.029	64.77
826.337	64.73
826.644	64.78
826.951	64.63
827.259	64.98
827.566	65.08
827.873	65.21
828.18	65.2
828.488	65.08
828.795	64.87
829.102	64.83
829.409	64.91
829.716	64.7
830.023	64.42
830.329	64.58
830.636	64.75
830.943	64.63
831.25	64.58
831.557	64.32
831.863	64.57
832.17	64.65
832.476	65.09
832.783	65.28
833.089	64.94
833.396	65.19
833.702	64.29
834.009	63.97
834.315	64.35
834.621	64.64
834.928	64.99
835.234	65.24
835.54	65.17
835.846	65.15
836.152	65.72
836.458	66.55
836.764	66.48
837.07	66.35
837.376	66.26
837.682	66.45
837.988	66.63
838.293	66.03
838.599	66.18
838.905	66.52
839.211	66.36
839.516	65.83
839.822	65.32
840.127	66.99
840.433	66.94
840.738	66.04
841.044	66.71
841.349	66.09
841.654	65.48
841.959	65.47
842.265	66.18
842.57	64.77
842.875	63.77
843.18	63.33
843.485	64.4
843.79	64.67
844.095	64.75
844.4	64.82
844.705	65.37
845.01	65.72
845.315	63.83
845.619	64.85
845.924	66.61
846.229	67.79
846.533	64.48
846.838	65.05
847.142	66.15
847.447	66.04
847.751	65.7
848.056	66.66
848.36	66.34
848.664	65.54
848.969	68.6
849.273	68.55
849.577	70.02
849.881	68.6
850.185	68.66
850.489	71.19
850.794	70.85
851.097	71.67
851.401	70.27
851.705	71.79
852.009	71.98
852.313	70.52
852.617	69.79
852.92	73.72
853.224	73.54
853.528	72.27
853.831	72.34
854.135	75.79
854.438	76.28
854.742	76.73
855.045	77.22
855.349	74.88
855.652	74.19
855.955	74.58
856.259	74.35
856.562	72.57
856.865	71.1
857.168	71.46
857.471	69.05
857.774	67.42
858.077	67.81
858.38	67.3
858.683	64.32
858.986	65.49
859.289	63.27
859.592	62.22
859.894	63.2
860.197	60.76
860.5	57.99
860.802	57.91
861.105	58.41
861.407	57.95
861.71	56.35
862.012	58.78
862.315	57.3
862.617	58.62
862.919	59.79
863.222	59.25
863.524	58.86
863.826	59.3
864.128	61.1
864.43	60.6
864.732	60.99
865.034	65.09
865.336	65.91
865.638	68.07
865.94	69.52
866.242	70.68
866.544	72.06
866.846	73.84
867.147	74.59
867.449	73.65
867.751	76.03
868.052	77.58
868.354	72.78
868.655	72.37
868.957	71.81
869.258	71.18
869.56	71.99
869.861	73.83
870.162	75.08
870.463	74.99
870.765	75.91
871.066	73.84
871.367	74.56
871.668	73.49
871.969	72.14
872.27	70.92
872.571	66.4
872.872	65.4
873.173	65.04
873.473	64.7
873.774	65.43
874.075	64.74
874.376	64.33
874.676	67.84
874.977	71.54
875.277	69.33
875.578	73.93
875.878	71.93
876.179	70.88
876.479	71.44
876.78	72.16
877.08	72.43
877.38	74.58
877.68	73
877.981	71.7
878.281	73.2
878.581	76.17
