Data from BU26945_Reflection_00004.txt Node
Date: Tue Nov 19 10:49:24 EST 2019
User: vgr7
Spectrometer: USB2G7710
Scans to average: 3
Trigger mode: 4
Integration Time (sec): 2.000000E-2
Electric dark correction enabled: true
Boxcar width: 10
XAxis mode: Wavelengths
Number of Pixels in Spectrum: 2048
>>>>>Begin Spectral Data<<<<<
177.721	132.52
178.105	152.63
178.488	161.84
178.871	-278.13
179.254	-376
179.636	-185.71
180.019	-379.02
180.402	-80
180.785	-69.52
181.168	-64.59
181.55	-87.09
181.933	-131.74
182.316	-165.32
182.698	-127.27
183.081	-88.47
183.463	-109.12
183.846	-91.45
184.228	-120.58
184.611	-63.63
184.993	-44.04
185.376	-41
185.758	-34.17
186.14	-50.09
186.522	-64.08
186.904	-80.32
187.287	-84.59
187.669	-79
188.051	-77.04
188.433	-76.97
188.815	-67.22
189.197	-66.9
189.579	-60.75
189.961	-73.49
190.342	-56.96
190.724	-86.54
191.106	-85.43
191.488	-44.07
191.869	-49.82
192.251	-30.57
192.633	-26.64
193.014	-39.93
193.396	-39.25
193.777	-28.81
194.159	-22.52
194.54	-17.18
194.922	-4.34
195.303	-8.84
195.684	-13.42
196.065	-47.61
196.447	-29.69
196.828	-56.27
197.209	-42.91
197.59	-39.83
197.971	-28.39
198.352	-34.53
198.733	-28.79
199.114	-25.9
199.495	-35.72
199.876	-49.98
200.257	-58.38
200.638	-62.89
201.018	-63.49
201.399	-61.31
201.78	-61.59
202.16	-55.58
202.541	-47.72
202.922	-63.47
203.302	-53.47
203.683	-61.12
204.063	-48.04
204.444	-47.69
204.824	-37.85
205.204	-22.27
205.585	-17.4
205.965	-28.35
206.345	-33.49
206.725	-24.32
207.106	-22.59
207.486	-19.76
207.866	-2.83
208.246	-4.63
208.626	-25.24
209.006	-15.12
209.386	-9.53
209.766	0.62
210.145	4.05
210.525	-25.66
210.905	-18.92
211.285	-17.3
211.664	-14.58
212.044	-6.17
212.424	-18.66
212.803	-26.64
213.183	-60.55
213.562	-63.13
213.942	-65.99
214.321	-62.64
214.701	-75.16
215.08	-107.36
215.459	-67.03
215.838	-89.4
216.218	-72.24
216.597	-56.55
216.976	-78.74
217.355	-111.81
217.734	-154.8
218.113	-103.86
218.492	-121.78
218.871	-123.25
219.25	-113.52
219.629	-138.81
220.008	-115.34
220.387	-94.34
220.766	-66.44
221.144	-47.57
221.523	-54.77
221.902	-38.18
222.28	-31.45
222.659	-9.09
223.037	-3.3
223.416	-17.18
223.794	-6.84
224.173	-14.15
224.551	-11.66
224.929	-16.14
225.308	-17.17
225.686	-16.24
226.064	-14.61
226.442	-6.3
226.821	-1.29
227.199	-3.45
227.577	-1.36
227.955	0.9
228.333	-2.8
228.711	-6.14
229.089	-8.51
229.467	-10.2
229.845	-9.94
230.222	-8.63
230.6	-9.72
230.978	-5.34
231.356	-4.52
231.733	-6.2
232.111	-7.55
232.488	-7.6
232.866	-3.03
233.243	-2.22
233.621	-1.73
233.998	-4.69
234.376	-4.58
234.753	-3.8
235.13	-3.92
235.508	-4.16
235.885	-6
236.262	-3.66
236.639	-5.32
237.016	-5.14
237.393	-2.55
237.77	-0.95
238.147	-0.67
238.524	-0.95
238.901	-1.48
239.278	-1.75
239.655	-1.09
240.032	0.56
240.409	1.3
240.785	0.59
241.162	0.88
241.539	0.82
241.915	1.09
242.292	1.46
242.668	1.14
243.045	2.14
243.421	2.37
243.798	2.44
244.174	2.74
244.551	3.14
244.927	3.68
245.303	3.78
245.679	3.7
246.056	3.71
246.432	4.06
246.808	4.23
247.184	4.19
247.56	4.07
247.936	4.04
248.312	3.84
248.688	4.22
249.064	4.36
249.44	4.48
249.815	4.62
250.191	4.32
250.567	4.46
250.943	4.44
251.318	4.5
251.694	4.63
252.069	4.39
252.445	4.51
252.82	4.5
253.196	4.41
253.571	4.64
253.947	4.59
254.322	4.31
254.697	4.15
255.073	4.4
255.448	4.54
255.823	4.57
256.198	4.46
256.573	4.19
256.948	4.13
257.323	4.11
257.698	4.13
258.073	4.19
258.448	3.94
258.823	3.75
259.198	3.62
259.573	3.55
259.948	3.73
260.322	3.76
260.697	3.67
261.072	3.76
261.446	3.52
261.821	3.63
262.195	3.5
262.57	3.61
262.944	3.51
263.319	3.46
263.693	3.41
264.067	3.58
264.442	3.59
264.816	3.51
265.19	3.44
265.564	3.33
265.938	3.38
266.313	3.52
266.687	3.69
267.061	3.85
267.435	4.03
267.809	3.87
268.183	3.84
268.556	3.97
268.93	3.95
269.304	4.09
269.678	4.06
270.051	4.26
270.425	4.34
270.799	4.28
271.172	4.28
271.546	4.29
271.919	4.1
272.293	4.07
272.666	4.05
273.04	4.06
273.413	4.07
273.787	3.91
274.16	3.8
274.533	3.78
274.906	3.82
275.279	3.61
275.653	3.69
276.026	3.6
276.399	3.44
276.772	3.32
277.145	3.3
277.518	3.34
277.891	3.36
278.263	3.12
278.636	3.36
279.009	3.58
279.382	3.54
279.755	3.74
280.127	3.87
280.5	3.86
280.872	3.76
281.245	3.88
281.617	3.87
281.99	4.05
282.362	3.96
282.735	3.9
283.107	4.06
283.479	4.11
283.852	4.24
284.224	4.31
284.596	4.27
284.968	4.07
285.34	3.95
285.713	3.88
286.085	3.87
286.457	3.76
286.829	3.66
287.201	3.72
287.572	3.59
287.944	3.57
288.316	3.74
288.688	3.76
289.06	3.78
289.431	4.01
289.803	3.99
290.175	3.94
290.546	3.97
290.918	3.8
291.289	3.59
291.661	3.62
292.032	3.73
292.403	3.74
292.775	3.9
293.146	4.03
293.517	3.96
293.889	4.01
294.26	3.93
294.631	3.99
295.002	4
295.373	4.12
295.744	4.16
296.115	4.07
296.486	4.27
296.857	4.49
297.228	4.33
297.599	4.25
297.97	4.38
298.34	4.43
298.711	4.55
299.082	4.83
299.452	4.75
299.823	4.64
300.194	4.7
300.564	4.64
300.935	4.71
301.305	4.72
301.676	4.58
302.046	4.63
302.416	4.49
302.787	4.49
303.157	4.35
303.527	4.38
303.897	4.23
304.267	4.05
304.637	3.74
305.008	3.89
305.378	4.05
305.748	4.14
306.117	4.1
306.487	4
306.857	3.94
307.227	3.9
307.597	4
307.967	4.14
308.336	4.21
308.706	4.12
309.076	4.29
309.445	4.51
309.815	4.57
310.184	4.61
310.554	4.66
310.923	4.71
311.293	4.52
311.662	4.66
312.031	4.8
312.401	4.75
312.77	4.51
313.139	4.44
313.508	4.2
313.877	4.17
314.246	4.1
314.616	4.01
314.985	4.08
315.353	4.06
315.722	4.02
316.091	4.18
316.46	4.27
316.829	4.14
317.198	4.03
317.567	4.12
317.935	4.13
318.304	4.04
318.672	4.05
319.041	4.26
319.41	4.29
319.778	4.24
320.147	4.27
320.515	4.33
320.883	4.35
321.252	4.48
321.62	4.63
321.988	4.82
322.357	4.68
322.725	4.7
323.093	4.6
323.461	4.54
323.829	4.39
324.197	4.27
324.565	4.25
324.933	4.22
325.301	3.98
325.669	4.07
326.037	4.03
326.405	4.07
326.772	4.07
327.14	4.03
327.508	3.98
327.875	4.05
328.243	4.19
328.61	4.24
328.978	4.4
329.346	4.39
329.713	4.35
330.08	4.51
330.448	4.48
330.815	4.52
331.182	4.52
331.55	4.6
331.917	4.63
332.284	4.78
332.651	4.82
333.018	5.13
333.385	5.02
333.752	5.08
334.119	5.16
334.486	5.12
334.853	5.07
335.22	4.99
335.587	4.97
335.954	4.92
336.32	4.8
336.687	4.67
337.054	4.53
337.42	4.48
337.787	4.36
338.153	4.51
338.52	4.58
338.886	4.52
339.253	4.5
339.619	4.5
339.986	4.51
340.352	4.59
340.718	4.6
341.084	4.67
341.451	4.75
341.817	4.68
342.183	4.63
342.549	4.74
342.915	4.83
343.281	4.8
343.647	4.93
344.013	4.91
344.379	4.94
344.745	4.92
345.11	4.91
345.476	4.99
345.842	4.88
346.208	4.83
346.573	4.96
346.939	4.88
347.304	4.87
347.67	4.85
348.035	4.68
348.401	4.6
348.766	4.53
349.132	4.54
349.497	4.58
349.862	4.63
350.228	4.59
350.593	4.62
350.958	4.75
351.323	4.62
351.688	4.68
352.053	4.57
352.418	4.62
352.783	4.73
353.148	4.78
353.513	4.84
353.878	4.85
354.243	4.79
354.608	4.85
354.972	4.86
355.337	4.86
355.702	4.95
356.066	4.92
356.431	4.88
356.795	4.87
357.16	4.81
357.524	4.69
357.889	4.71
358.253	4.65
358.618	4.67
358.982	4.71
359.346	4.72
359.71	4.75
360.075	4.75
360.439	4.73
360.803	4.7
361.167	4.67
361.531	4.63
361.895	4.64
362.259	4.66
362.623	4.67
362.987	4.64
363.351	4.59
363.714	4.58
364.078	4.58
364.442	4.52
364.806	4.53
365.169	4.61
365.533	4.56
365.896	4.57
366.26	4.49
366.623	4.52
366.987	4.56
367.35	4.6
367.714	4.64
368.077	4.62
368.44	4.65
368.803	4.56
369.167	4.58
369.53	4.58
369.893	4.54
370.256	4.53
370.619	4.51
370.982	4.46
371.345	4.48
371.708	4.59
372.071	4.62
372.434	4.58
372.797	4.64
373.159	4.65
373.522	4.64
373.885	4.68
374.247	4.68
374.61	4.61
374.973	4.6
375.335	4.6
375.698	4.58
376.06	4.45
376.423	4.58
376.785	4.6
377.147	4.51
377.51	4.46
377.872	4.47
378.234	4.53
378.596	4.71
378.958	4.71
379.321	4.71
379.683	4.72
380.045	4.77
380.407	4.75
380.769	4.79
381.13	4.79
381.492	4.75
381.854	4.74
382.216	4.8
382.578	4.8
382.939	4.79
383.301	4.84
383.663	4.92
384.024	4.89
384.386	4.87
384.747	4.92
385.109	4.97
385.47	4.98
385.832	4.96
386.193	4.81
386.554	4.78
386.916	4.76
387.277	4.65
387.638	4.63
387.999	4.59
388.36	4.55
388.721	4.59
389.082	4.57
389.443	4.58
389.804	4.57
390.165	4.56
390.526	4.53
390.887	4.51
391.248	4.46
391.609	4.46
391.969	4.49
392.33	4.42
392.691	4.44
393.051	4.4
393.412	4.42
393.772	4.48
394.133	4.46
394.493	4.41
394.854	4.47
395.214	4.47
395.574	4.47
395.935	4.49
396.295	4.5
396.655	4.52
397.015	4.52
397.376	4.49
397.736	4.51
398.096	4.49
398.456	4.46
398.816	4.48
399.176	4.45
399.535	4.41
399.895	4.46
400.255	4.42
400.615	4.45
400.975	4.42
401.334	4.38
401.694	4.39
402.054	4.41
402.413	4.42
402.773	4.43
403.132	4.43
403.492	4.41
403.851	4.39
404.211	4.39
404.57	4.4
404.929	4.43
405.288	4.44
405.648	4.43
406.007	4.45
406.366	4.47
406.725	4.47
407.084	4.53
407.443	4.55
407.802	4.56
408.161	4.55
408.52	4.54
408.879	4.54
409.238	4.52
409.596	4.54
409.955	4.55
410.314	4.55
410.673	4.53
411.031	4.51
411.39	4.51
411.748	4.48
412.107	4.46
412.465	4.44
412.824	4.43
413.182	4.44
413.54	4.45
413.899	4.44
414.257	4.47
414.615	4.42
414.974	4.43
415.332	4.42
415.69	4.41
416.048	4.43
416.406	4.41
416.764	4.44
417.122	4.4
417.48	4.39
417.838	4.39
418.195	4.39
418.553	4.39
418.911	4.41
419.269	4.42
419.626	4.42
419.984	4.42
420.342	4.4
420.699	4.4
421.057	4.38
421.414	4.38
421.772	4.36
422.129	4.34
422.486	4.32
422.844	4.32
423.201	4.32
423.558	4.31
423.915	4.32
424.273	4.33
424.63	4.34
424.987	4.35
425.344	4.36
425.701	4.38
426.058	4.39
426.415	4.36
426.772	4.35
427.128	4.35
427.485	4.34
427.842	4.36
428.199	4.38
428.555	4.39
428.912	4.36
429.269	4.36
429.625	4.38
429.982	4.39
430.338	4.4
430.695	4.4
431.051	4.4
431.407	4.39
431.764	4.38
432.12	4.37
432.476	4.36
432.832	4.36
433.189	4.34
433.545	4.34
433.901	4.36
434.257	4.35
434.613	4.35
434.969	4.33
435.325	4.31
435.681	4.32
436.036	4.33
436.392	4.36
436.748	4.39
437.104	4.38
437.459	4.37
437.815	4.37
438.171	4.4
438.526	4.41
438.882	4.44
439.237	4.45
439.593	4.45
439.948	4.44
440.304	4.41
440.659	4.39
441.014	4.4
441.369	4.37
441.725	4.38
442.08	4.38
442.435	4.41
442.79	4.42
443.145	4.4
443.5	4.39
443.855	4.36
444.21	4.35
444.565	4.33
444.92	4.34
445.275	4.31
445.629	4.29
445.984	4.26
446.339	4.25
446.693	4.23
447.048	4.22
447.403	4.22
447.757	4.23
448.112	4.27
448.466	4.25
448.82	4.27
449.175	4.28
449.529	4.26
449.883	4.26
450.238	4.26
450.592	4.25
450.946	4.25
451.3	4.25
451.654	4.24
452.008	4.26
452.362	4.24
452.716	4.24
453.07	4.23
453.424	4.25
453.778	4.25
454.132	4.26
454.486	4.28
454.839	4.27
455.193	4.28
455.547	4.26
455.9	4.29
456.254	4.28
456.607	4.29
456.961	4.29
457.314	4.25
457.668	4.25
458.021	4.27
458.375	4.26
458.728	4.27
459.081	4.27
459.434	4.3
459.787	4.33
460.141	4.33
460.494	4.35
460.847	4.34
461.2	4.36
461.553	4.38
461.906	4.36
462.259	4.35
462.611	4.35
462.964	4.36
463.317	4.34
463.67	4.35
464.022	4.35
464.375	4.37
464.728	4.4
465.08	4.42
465.433	4.42
465.785	4.46
466.138	4.49
466.49	4.51
466.843	4.5
467.195	4.5
467.547	4.52
467.899	4.53
468.252	4.54
468.604	4.52
468.956	4.49
469.308	4.5
469.66	4.55
470.012	4.54
470.364	4.55
470.716	4.57
471.068	4.58
471.42	4.58
471.772	4.59
472.123	4.62
472.475	4.61
472.827	4.6
473.178	4.56
473.53	4.55
473.882	4.53
474.233	4.52
474.585	4.51
474.936	4.53
475.288	4.53
475.639	4.53
475.99	4.54
476.342	4.56
476.693	4.59
477.044	4.6
477.395	4.62
477.746	4.62
478.097	4.62
478.448	4.6
478.8	4.6
479.15	4.6
479.501	4.56
479.852	4.57
480.203	4.58
480.554	4.6
480.905	4.61
481.255	4.62
481.606	4.63
481.957	4.63
482.307	4.61
482.658	4.61
483.009	4.6
483.359	4.61
483.709	4.6
484.06	4.59
484.41	4.58
484.761	4.57
485.111	4.56
485.461	4.55
485.811	4.55
486.162	4.56
486.512	4.55
486.862	4.56
487.212	4.54
487.562	4.54
487.912	4.53
488.262	4.52
488.612	4.52
488.961	4.52
489.311	4.53
489.661	4.53
490.011	4.52
490.36	4.51
490.71	4.5
491.06	4.51
491.409	4.51
491.759	4.52
492.108	4.53
492.458	4.53
492.807	4.53
493.157	4.53
493.506	4.53
493.855	4.54
494.204	4.54
494.554	4.55
494.903	4.54
495.252	4.55
495.601	4.57
495.95	4.56
496.299	4.57
496.648	4.57
496.997	4.57
497.346	4.59
497.695	4.62
498.043	4.62
498.392	4.61
498.741	4.64
499.09	4.65
499.438	4.66
499.787	4.67
500.135	4.7
500.484	4.72
500.832	4.72
501.181	4.74
501.529	4.78
501.878	4.81
502.226	4.85
502.574	4.87
502.923	4.88
503.271	4.89
503.619	4.9
503.967	4.91
504.315	4.93
504.663	4.93
505.011	4.95
505.359	4.99
505.707	5.02
506.055	4.99
506.403	4.99
506.751	4.99
507.098	5.01
507.446	5.01
507.794	5.02
508.141	5.03
508.489	5.03
508.837	5.01
509.184	5.02
509.531	5.01
509.879	5
510.226	5.01
510.574	5.02
510.921	5.01
511.268	5.04
511.616	5.06
511.963	5.07
512.31	5.09
512.657	5.1
513.004	5.09
513.351	5.13
513.698	5.16
514.045	5.17
514.392	5.17
514.739	5.19
515.086	5.22
515.432	5.23
515.779	5.23
516.126	5.26
516.473	5.27
516.819	5.27
517.166	5.29
517.512	5.28
517.859	5.31
518.205	5.31
518.552	5.31
518.898	5.32
519.245	5.33
519.591	5.32
519.937	5.32
520.283	5.33
520.629	5.33
520.976	5.31
521.322	5.33
521.668	5.33
522.014	5.32
522.36	5.31
522.706	5.31
523.052	5.32
523.398	5.34
523.743	5.35
524.089	5.39
524.435	5.39
524.781	5.4
525.126	5.4
525.472	5.42
525.817	5.41
526.163	5.4
526.509	5.41
526.854	5.41
527.199	5.42
527.545	5.42
527.89	5.42
528.235	5.42
528.581	5.43
528.926	5.44
529.271	5.45
529.616	5.47
529.961	5.48
530.306	5.49
530.651	5.49
530.996	5.5
531.341	5.51
531.686	5.52
532.031	5.52
532.376	5.51
532.721	5.53
533.065	5.55
533.41	5.56
533.755	5.56
534.099	5.58
534.444	5.57
534.788	5.57
535.133	5.57
535.477	5.59
535.822	5.6
536.166	5.58
536.51	5.58
536.855	5.58
537.199	5.56
537.543	5.58
537.887	5.56
538.231	5.56
538.576	5.53
538.92	5.54
539.264	5.57
539.608	5.58
539.951	5.56
540.295	5.55
540.639	5.57
540.983	5.59
541.327	5.6
541.671	5.62
542.014	5.63
542.358	5.64
542.701	5.63
543.045	5.63
543.389	5.63
543.732	5.63
544.075	5.63
544.419	5.64
544.762	5.64
545.105	5.67
545.449	5.67
545.792	5.68
546.135	5.68
546.478	5.65
546.821	5.65
547.165	5.64
547.508	5.65
547.851	5.64
548.194	5.63
548.536	5.6
548.879	5.58
549.222	5.59
549.565	5.6
549.908	5.63
550.25	5.61
550.593	5.62
550.936	5.66
551.278	5.66
551.621	5.65
551.963	5.67
552.306	5.66
552.648	5.65
552.991	5.63
553.333	5.65
553.675	5.68
554.017	5.71
554.36	5.71
554.702	5.7
555.044	5.69
555.386	5.69
555.728	5.71
556.07	5.69
556.412	5.67
556.754	5.65
557.096	5.65
557.438	5.67
557.78	5.68
558.121	5.63
558.463	5.62
558.805	5.67
559.147	5.65
559.488	5.64
559.83	5.65
560.171	5.67
560.513	5.62
560.854	5.63
561.196	5.6
561.537	5.64
561.878	5.66
562.22	5.7
562.561	5.76
562.902	5.73
563.243	5.76
563.584	5.77
563.925	5.79
564.266	5.8
564.607	5.8
564.948	5.79
565.289	5.81
565.63	5.81
565.971	5.78
566.312	5.8
566.653	5.77
566.993	5.75
567.334	5.76
567.675	5.78
568.015	5.77
568.356	5.74
568.696	5.73
569.037	5.72
569.377	5.69
569.718	5.68
570.058	5.7
570.398	5.7
570.739	5.69
571.079	5.67
571.419	5.63
571.759	5.62
572.099	5.61
572.439	5.62
572.779	5.63
573.119	5.62
573.459	5.62
573.799	5.64
574.139	5.64
574.479	5.66
574.819	5.69
575.158	5.67
575.498	5.7
575.838	5.69
576.177	5.71
576.517	5.71
576.856	5.68
577.196	5.69
577.535	5.68
577.875	5.68
578.214	5.7
578.553	5.71
578.893	5.69
579.232	5.69
579.571	5.69
579.91	5.66
580.25	5.69
580.589	5.69
580.928	5.74
581.267	5.78
581.606	5.73
581.945	5.7
582.283	5.74
582.622	5.72
582.961	5.73
583.3	5.74
583.639	5.73
583.977	5.74
584.316	5.71
584.654	5.73
584.993	5.73
585.332	5.72
585.67	5.77
586.008	5.83
586.347	5.87
586.685	5.83
587.024	5.83
587.362	5.8
587.7	5.81
588.038	5.82
588.376	5.78
588.715	5.8
589.053	5.79
589.391	5.74
589.729	5.79
590.067	5.78
590.404	5.82
590.742	5.81
591.08	5.81
591.418	5.84
591.756	5.81
592.093	5.82
592.431	5.87
592.769	5.82
593.106	5.83
593.444	5.83
593.781	5.87
594.119	5.94
594.456	5.97
594.793	5.95
595.131	5.93
595.468	5.99
595.805	5.97
596.143	6
596.48	6.04
596.817	6
597.154	6.01
597.491	5.96
597.828	6
598.165	6.01
598.502	5.97
598.839	6.02
599.176	6.05
599.512	6
599.849	6.02
600.186	5.97
600.523	5.97
600.859	5.96
601.196	5.91
601.532	5.89
601.869	5.9
602.205	5.87
602.542	5.87
602.878	5.93
603.215	5.93
603.551	5.91
603.887	5.93
604.223	5.91
604.56	5.93
604.896	5.92
605.232	5.92
605.568	5.92
605.904	5.87
606.24	5.87
606.576	5.93
606.912	5.93
607.248	5.96
607.583	5.93
607.919	5.94
608.255	5.97
608.591	6.03
608.926	6.05
609.262	6.08
609.597	6.06
609.933	6.05
610.268	6.05
610.604	6.05
610.939	6.05
611.275	6.07
611.61	6.07
611.945	6.03
612.281	6.06
612.616	6.1
612.951	6.13
613.286	6.15
613.621	6.12
613.956	6.18
614.291	6.14
614.626	6.17
614.961	6.16
615.296	6.12
615.631	6.07
615.966	6.06
616.3	6.09
616.635	6.1
616.97	6.07
617.304	6.06
617.639	6.1
617.973	6.04
618.308	6.04
618.642	6.01
618.977	6.03
619.311	5.99
619.646	5.95
619.98	5.97
620.314	5.92
620.648	5.92
620.983	5.83
621.317	5.88
621.651	5.94
621.985	5.92
622.319	5.95
622.653	6.02
622.987	6.01
623.321	5.96
623.655	5.96
623.988	5.99
624.322	5.99
624.656	5.99
624.99	6.04
625.323	6.04
625.657	6.1
625.99	6.14
626.324	6.14
626.657	6.13
626.991	6.11
627.324	6.09
627.658	6.1
627.991	6.17
628.324	6.14
628.657	6.09
628.991	6.12
629.324	6.14
629.657	6.08
629.99	6.08
630.323	6.13
630.656	6.12
630.989	6.13
631.322	6.16
631.655	6.15
631.987	6.16
632.32	6.17
632.653	6.17
632.986	6.15
633.318	6.15
633.651	6.22
633.984	6.17
634.316	6.2
634.649	6.23
634.981	6.19
635.313	6.22
635.646	6.21
635.978	6.23
636.31	6.22
636.643	6.22
636.975	6.25
637.307	6.2
637.639	6.1
637.971	6.01
638.303	5.95
638.635	5.94
638.967	5.99
639.299	6.02
639.631	6
639.963	5.97
640.295	5.99
640.626	5.94
640.958	6.01
641.29	5.98
641.621	5.92
641.953	5.94
642.285	5.99
642.616	5.97
642.948	5.99
643.279	6.01
643.61	6.08
643.942	6.1
644.273	6.11
644.604	6.25
644.936	6.31
645.267	6.37
645.598	6.44
645.929	6.39
646.26	6.41
646.591	6.39
646.922	6.43
647.253	6.36
647.584	6.39
647.915	6.41
648.245	6.39
648.576	6.38
648.907	6.34
649.238	6.29
649.568	6.32
649.899	6.33
650.229	6.28
650.56	6.27
650.89	6.2
651.221	6.26
651.551	6.25
651.882	6.29
652.212	6.29
652.542	6.35
652.872	6.36
653.203	6.37
653.533	6.44
653.863	6.51
654.193	6.46
654.523	6.48
654.853	6.54
655.183	6.54
655.513	6.67
655.843	6.65
656.172	6.69
656.502	6.64
656.832	6.57
657.162	6.55
657.491	6.53
657.821	6.55
658.15	6.48
658.48	6.49
658.809	6.49
659.139	6.46
659.468	6.41
659.798	6.38
660.127	6.32
660.456	6.27
660.785	6.21
661.115	6.36
661.444	6.4
661.773	6.29
662.102	6.31
662.431	6.27
662.76	6.37
663.089	6.44
663.418	6.47
663.747	6.49
664.076	6.51
664.404	6.55
664.733	6.62
665.062	6.61
665.39	6.6
665.719	6.59
666.048	6.6
666.376	6.6
666.705	6.68
667.033	6.72
667.362	6.72
667.69	6.74
668.018	6.66
668.347	6.62
668.675	6.71
669.003	6.75
669.331	6.75
669.659	6.67
669.987	6.56
670.315	6.51
670.643	6.5
670.971	6.51
671.299	6.49
671.627	6.54
671.955	6.59
672.283	6.58
672.61	6.54
672.938	6.58
673.266	6.53
673.593	6.41
673.921	6.36
674.249	6.37
674.576	6.33
674.904	6.36
675.231	6.42
675.558	6.37
675.886	6.33
676.213	6.27
676.54	6.31
676.867	6.37
677.195	6.44
677.522	6.5
677.849	6.55
678.176	6.56
678.503	6.43
678.83	6.46
679.157	6.49
679.484	6.56
679.81	6.56
680.137	6.62
680.464	6.71
680.791	6.73
681.117	6.79
681.444	6.79
681.771	6.76
682.097	6.72
682.424	6.71
682.75	6.7
683.077	6.79
683.403	6.87
683.729	6.79
684.056	6.79
684.382	6.72
684.708	6.69
685.034	6.7
685.36	6.67
685.686	6.61
686.012	6.59
686.339	6.47
686.664	6.46
686.99	6.37
687.316	6.38
687.642	6.45
687.968	6.43
688.294	6.46
688.619	6.44
688.945	6.42
689.271	6.48
689.596	6.55
689.922	6.47
690.247	6.37
690.573	6.41
690.898	6.5
691.224	6.55
691.549	6.54
691.874	6.54
692.2	6.68
692.525	6.76
692.85	6.86
693.175	6.92
693.5	6.89
693.825	7.04
694.15	6.96
694.475	6.9
694.8	6.87
695.125	6.88
695.45	6.88
695.775	6.95
696.099	6.98
696.424	7.02
696.749	7.05
697.073	7.03
697.398	7.07
697.723	7.1
698.047	7.13
698.372	7.16
698.696	7.09
699.02	6.93
699.345	6.95
699.669	6.95
699.993	6.96
700.318	7.08
700.642	7.03
700.966	7.05
701.29	7.16
701.614	7.11
701.938	7.1
702.262	7.15
702.586	7.05
702.91	7.01
703.234	6.9
703.557	6.89
703.881	6.94
704.205	6.96
704.529	6.87
704.852	6.88
705.176	6.9
705.499	6.98
705.823	7.13
706.146	7.05
706.47	7.05
706.793	7.12
707.117	7.04
707.44	6.91
707.763	6.9
708.086	6.74
708.409	6.82
708.733	6.82
709.056	6.81
709.379	6.91
709.702	6.86
710.025	7.01
710.348	7.05
710.671	7.03
710.993	7.07
711.316	7.1
711.639	7.1
711.962	7.2
712.284	7.13
712.607	7.28
712.93	7.28
713.252	7.28
713.575	7.18
713.897	7.11
714.22	7.24
714.542	7.1
714.864	6.95
715.187	6.91
715.509	6.87
715.831	6.92
716.153	6.88
716.475	7.01
716.798	6.87
717.12	6.88
717.442	6.82
717.764	6.79
718.085	6.75
718.407	6.72
718.729	6.82
719.051	7.02
719.373	6.91
719.695	6.96
720.016	6.83
720.338	6.88
720.659	6.93
720.981	6.98
721.302	7.27
721.624	7.7
721.945	7.64
722.267	7.91
722.588	7.94
722.909	8.05
723.231	7.91
723.552	8.04
723.873	7.93
724.194	7.97
724.515	8.11
724.836	8.07
725.157	8.09
725.478	7.91
725.799	7.61
726.12	7.57
726.441	7.46
726.762	7.61
727.083	7.83
727.403	7.77
727.724	7.77
728.045	7.76
728.365	7.63
728.686	7.82
729.006	7.67
729.327	7.67
729.647	7.59
729.967	7.66
730.288	7.52
730.608	7.78
730.928	7.97
731.249	7.89
731.569	7.93
731.889	7.87
732.209	7.89
732.529	8.07
732.849	8.12
733.169	8.11
733.489	8.02
733.809	7.77
734.129	7.77
734.448	7.79
734.768	7.58
735.088	7.59
735.408	7.67
735.727	7.79
736.047	7.72
736.366	7.85
736.686	7.85
737.005	7.99
737.325	7.91
737.644	7.62
737.963	7.58
738.283	7.63
738.602	7.73
738.921	7.83
739.24	7.88
739.56	8.03
739.879	7.96
740.198	8.15
740.517	8.35
740.836	8.46
741.155	8.58
741.473	8.67
741.792	8.51
742.111	8.55
742.43	8.56
742.748	8.87
743.067	8.86
743.386	8.95
743.704	8.88
744.023	8.81
744.341	8.99
744.66	8.84
744.978	8.86
745.297	8.88
745.615	8.67
745.933	8.78
746.252	8.9
746.57	9.13
746.888	8.93
747.206	8.82
747.524	8.8
747.842	8.42
748.16	8.63
748.478	8.75
748.796	8.67
749.114	8.76
749.432	8.34
749.749	8.07
750.067	7.98
750.385	7.96
750.703	7.62
751.02	7.54
751.338	7.55
751.655	7.56
751.973	7.45
752.29	7.3
752.608	7.07
752.925	6.89
753.242	6.76
753.56	6.55
753.877	6.51
754.194	6.49
754.511	6.69
754.828	6.7
755.145	6.94
755.462	6.91
755.779	6.78
756.096	7.07
756.413	7.26
756.73	7.47
757.047	7.49
757.364	8
757.68	8.29
757.997	8.65
758.314	8.76
758.63	8.89
758.947	8.9
759.264	9.11
759.58	8.96
759.896	9.05
760.213	9.37
760.529	9.36
760.846	9.36
761.162	9.4
761.478	9.29
761.794	9.16
762.11	9.1
762.426	9.15
762.743	9.23
763.059	9.41
763.375	9.22
763.69	9.47
764.006	9.26
764.322	9.29
764.638	9.39
764.954	9.18
765.27	9.17
765.585	9.45
765.901	9.31
766.216	9.21
766.532	9.24
766.848	9.36
767.163	9.58
767.478	9.32
767.794	9.32
768.109	9.45
768.424	9.37
768.74	9.42
769.055	9.29
769.37	8.9
769.685	8.69
770	8.81
770.315	8.78
770.63	8.97
770.945	8.81
771.26	8.63
771.575	8.9
771.89	8.84
772.205	8.94
772.52	8.97
772.834	9.32
773.149	9.26
773.464	9.21
773.778	8.9
774.093	9.6
774.407	9.47
774.722	9.29
775.036	9.27
775.351	9.07
775.665	9.32
775.979	9.32
776.293	9.25
776.608	8.92
776.922	8.74
777.236	8.43
777.55	8.33
777.864	8.27
778.178	8.11
778.492	8.31
778.806	8.24
779.12	8.09
779.434	7.84
779.747	7.82
780.061	7.49
780.375	7.7
780.689	7.71
781.002	7.79
781.316	8.15
781.629	8.61
781.943	8.91
782.256	8.67
782.57	9.11
782.883	9.38
783.196	9.2
783.51	9.31
783.823	9.68
784.136	9.74
784.449	9.65
784.762	9.76
785.075	9.8
785.388	9.32
785.701	9.59
786.014	9.58
786.327	9.61
786.64	9.64
786.953	9.26
787.266	8.89
787.578	9.34
787.891	9.03
788.204	9.05
788.516	9.31
788.829	9.4
789.141	9.51
789.454	9.37
789.766	10.18
790.079	9.85
790.391	9.38
790.703	9.6
791.016	9.93
791.328	9.86
791.64	9.41
791.952	9.62
792.264	9.49
792.576	9.68
792.888	9.78
793.2	9.51
793.512	10.1
793.824	10.31
794.136	9.62
794.448	10.12
794.76	9.63
795.071	9.45
795.383	9.51
795.695	9.47
796.006	9.89
796.318	9.77
796.629	10.01
796.941	10.57
797.252	10.09
797.564	9.87
797.875	10.01
798.186	10.21
798.497	10.23
798.809	9.89
799.12	9.48
799.431	9.23
799.742	10.04
800.053	9.74
800.364	10.02
800.675	10.22
800.986	9.51
801.297	9.81
801.608	9.78
801.918	9.77
802.229	9.43
802.54	9.13
802.851	9.11
803.161	8.85
803.472	9.18
803.782	9.72
804.093	9.72
804.403	10.22
804.714	10.95
805.024	11.39
805.334	11.91
805.645	12.56
805.955	13.06
806.265	13.12
806.575	12.84
806.885	12.34
807.195	12.5
807.505	12.61
807.815	12.6
808.125	11.84
808.435	11.7
808.745	11.98
809.055	12.19
809.365	11.74
809.674	12.44
809.984	11.89
810.294	11.1
810.603	10.22
810.913	9.66
811.222	8.63
811.532	8.02
811.841	8.8
812.151	9.18
812.46	8.81
812.769	7.9
813.079	8.18
813.388	7.96
813.697	8.08
814.006	8.19
814.315	8.31
814.624	9.49
814.933	9.71
815.242	9.63
815.551	9.46
815.86	10.4
816.169	10.1
816.478	9.96
816.786	11.01
817.095	11.3
817.404	11.95
817.712	12.18
818.021	12.29
818.33	11.55
818.638	11.7
818.947	11.48
819.255	11.95
819.563	12.06
819.872	12
820.18	12.44
820.488	12.82
820.796	12.63
821.105	12.63
821.413	12.47
821.721	12.45
822.029	12.33
822.337	12.2
822.645	12.22
822.953	12.2
823.26	12.14
823.568	12.23
823.876	12.02
824.184	12.04
824.491	12.12
824.799	12.19
825.107	12.07
825.414	12.35
825.722	12.43
826.029	12.48
826.337	12.8
826.644	12.44
826.951	12.35
827.259	12.52
827.566	12.5
827.873	12.64
828.18	12.76
828.488	12.71
828.795	12.68
829.102	12.31
829.409	12.19
829.716	12.29
830.023	12.25
830.329	12.36
830.636	12.44
830.943	12.39
831.25	12.44
831.557	12.14
831.863	11.87
832.17	11.64
832.476	11.19
832.783	10.73
833.089	10.94
833.396	10.78
833.702	10.78
834.009	10.78
834.315	10.96
834.621	10.8
834.928	10.99
835.234	11.16
835.54	11.48
835.846	12.32
836.152	11.93
836.458	12.31
836.764	12.54
837.07	12.29
837.376	11.95
837.682	12.31
837.988	12.6
838.293	12.41
838.599	12.22
838.905	12.88
839.211	12.93
839.516	12.58
839.822	13.08
840.127	12.66
840.433	12.1
840.738	12.57
841.044	13.08
841.349	13.09
841.654	12.54
841.959	13.31
842.265	12.1
842.57	12.19
842.875	11.48
843.18	11.17
843.485	11.35
843.79	10.43
844.095	9.64
844.4	10.25
844.705	10.36
845.01	10.9
845.315	10.38
845.619	10.11
845.924	11
846.229	9.93
846.533	11.04
846.838	11.12
847.142	9.2
847.447	8.05
847.751	9.56
848.056	9.47
848.36	8.96
848.664	8.98
848.969	8.66
849.273	8.54
849.577	9.23
849.881	8.43
850.185	8.86
850.489	8.92
850.794	8.93
851.097	10.36
851.401	9.07
851.705	8.01
852.009	9.33
852.313	8.74
852.617	9.17
852.92	8.76
853.224	9.73
853.528	9.35
853.831	9.37
854.135	7.69
854.438	8
854.742	9.21
855.045	10.36
855.349	10.49
855.652	11.03
855.955	8.63
856.259	8.58
856.562	10.11
856.865	9.98
857.168	9.27
857.471	7.63
857.774	7.37
858.077	8.23
858.38	8.76
858.683	9.6
858.986	11.65
859.289	12.89
859.592	13.22
859.894	14.14
860.197	15.87
860.5	15.58
860.802	16.58
861.105	14.86
861.407	13.18
861.71	12.52
862.012	13.67
862.315	14.57
862.617	16.19
862.919	17.14
863.222	14.92
863.524	13.96
863.826	12.98
864.128	14.76
864.43	16.76
864.732	16.7
865.034	17.98
865.336	14.91
865.638	11.84
865.94	11.55
866.242	11.3
866.544	11.34
866.846	12.42
867.147	10.61
867.449	12.79
867.751	13.7
868.052	13.71
868.354	13.17
868.655	14.44
868.957	13.84
869.258	15.45
869.56	19.13
869.861	19.4
870.162	20.8
870.463	21.05
870.765	18.57
871.066	18.51
871.367	18.39
871.668	18.1
871.969	17.15
872.27	14.87
872.571	14.38
872.872	14.93
873.173	15.37
873.473	16.58
873.774	14.98
874.075	12.79
874.376	13.32
874.676	13.6
874.977	12.49
875.277	12.98
875.578	10.16
875.878	7.61
876.179	7.92
876.479	7.29
876.78	6.28
877.08	7.41
877.38	5.08
877.68	3.25
877.981	3.93
878.281	7.17
878.581	9.6
