Data from BU26942_Reflection_00006.txt Node
Date: Mon Nov 18 16:50:37 EST 2019
User: vgr7
Spectrometer: USB2G7710
Scans to average: 3
Trigger mode: 4
Integration Time (sec): 2.000000E-2
Electric dark correction enabled: true
Boxcar width: 10
XAxis mode: Wavelengths
Number of Pixels in Spectrum: 2048
>>>>>Begin Spectral Data<<<<<
177.721	46.68
178.105	-0.8
178.488	-32.7
178.871	-54.93
179.254	431.36
179.636	-669.23
180.019	-942.25
180.402	186.96
180.785	24.5
181.168	-105.45
181.55	-7.07
181.933	239.33
182.316	346.15
182.698	354.28
183.081	469.81
183.463	7176.92
183.846	95.73
184.228	129.46
184.611	356.6
184.993	-101.18
185.376	85.64
185.758	106.36
186.14	34.2
186.522	-33900
186.904	-242.25
187.287	154.05
187.669	122.35
188.051	7.78
188.433	0.78
188.815	273.91
189.197	171.81
189.579	45.39
189.961	55.43
190.342	52.56
190.724	72.44
191.106	142.03
191.488	122.88
191.869	81.77
192.251	-9.41
192.633	-15.24
193.014	-55.16
193.396	-101.44
193.777	-116.07
194.159	-137.55
194.54	-74.5
194.922	-42.18
195.303	-41.8
195.684	-60.72
196.065	-40.32
196.447	-22.42
196.828	-75.79
197.209	-99.88
197.59	-118.92
197.971	-65.31
198.352	-56.05
198.733	-25.62
199.114	-51.67
199.495	-25.87
199.876	-16.38
200.257	19.56
200.638	25.23
201.018	27.18
201.399	53.02
201.78	52.15
202.16	14.15
202.541	-29.78
202.922	-73.79
203.302	-85.29
203.683	-64.57
204.063	-121.06
204.444	-108.71
204.824	-45.7
205.204	-38.88
205.585	-68.47
205.965	-100.75
206.345	-106.3
206.725	-270.25
207.106	-136.86
207.486	-182.03
207.866	-192.23
208.246	-173.8
208.626	-194.97
209.006	-132.07
209.386	-122.02
209.766	-143.07
210.145	-135.17
210.525	-89.5
210.905	-75.9
211.285	-48.43
211.664	-36.21
212.044	-14.85
212.424	-21.13
212.803	-29.42
213.183	-25.67
213.562	-12.54
213.942	-10.58
214.321	-13.89
214.701	-17.65
215.08	-20.04
215.459	-17.72
215.838	-4.6
216.218	-22.17
216.597	3.15
216.976	-0.66
217.355	10.13
217.734	23.67
218.113	35.75
218.492	31.96
218.871	36.17
219.25	47.92
219.629	41.78
220.008	44.8
220.387	42.64
220.766	33.97
221.144	40.64
221.523	44.43
221.902	55.74
222.28	66.1
222.659	58.74
223.037	66.9
223.416	57.21
223.794	38.01
224.173	40.04
224.551	28.72
224.929	20.76
225.308	20.53
225.686	14.57
226.064	7.24
226.442	12.31
226.821	7.63
227.199	9.48
227.577	8.22
227.955	3.33
228.333	-0.8
228.711	1.23
229.089	0.92
229.467	-0.95
229.845	-1.59
230.222	1.65
230.6	0.95
230.978	-1.28
231.356	-0.27
231.733	1.62
232.111	2.64
232.488	3.36
232.866	6.19
233.243	4.9
233.621	5.86
233.998	9.25
234.376	7.92
234.753	8.79
235.13	6.87
235.508	7.91
235.885	9.75
236.262	9.89
236.639	9.36
237.016	7.92
237.393	8.23
237.77	8.96
238.147	7.31
238.524	7.55
238.901	8.24
239.278	8.66
239.655	8.86
240.032	8.08
240.409	7.22
240.785	6.35
241.162	6.59
241.539	6.98
241.915	6.34
242.292	5.83
242.668	5.71
243.045	5.97
243.421	5.65
243.798	5.45
244.174	5.69
244.551	5.91
244.927	6.05
245.303	6.23
245.679	6.28
246.056	6.29
246.432	6.25
246.808	6.1
247.184	5.81
247.56	5.57
247.936	5.59
248.312	5.61
248.688	5.94
249.064	5.86
249.44	5.55
249.815	5.46
250.191	5.68
250.567	5.62
250.943	5.32
251.318	5.33
251.694	5.33
252.069	5.23
252.445	4.9
252.82	4.86
253.196	4.7
253.571	4.5
253.947	4.74
254.322	4.72
254.697	4.5
255.073	4.46
255.448	4.45
255.823	4.48
256.198	4.34
256.573	4.09
256.948	3.9
257.323	3.97
257.698	3.94
258.073	3.92
258.448	4.05
258.823	4.21
259.198	4.03
259.573	3.86
259.948	3.8
260.322	4.04
260.697	4.03
261.072	4.07
261.446	3.98
261.821	3.86
262.195	3.83
262.57	3.96
262.944	3.94
263.319	3.91
263.693	3.97
264.067	4.14
264.442	4.34
264.816	4.4
265.19	4.38
265.564	4.59
265.938	4.42
266.313	4.25
266.687	4.27
267.061	4.59
267.435	4.83
267.809	4.79
268.183	4.67
268.556	4.68
268.93	4.65
269.304	4.61
269.678	4.58
270.051	4.47
270.425	4.38
270.799	4.51
271.172	4.5
271.546	4.36
271.919	4.34
272.293	4.17
272.666	4.33
273.04	4.43
273.413	4.37
273.787	4.5
274.16	4.51
274.533	4.45
274.906	4.29
275.279	4.38
275.653	4.44
276.026	4.49
276.399	4.6
276.772	4.57
277.145	4.46
277.518	4.45
277.891	4.67
278.263	4.61
278.636	4.42
279.009	4.41
279.382	4.68
279.755	4.57
280.127	4.74
280.5	4.77
280.872	4.65
281.245	4.59
281.617	4.81
281.99	4.81
282.362	4.75
282.735	4.75
283.107	4.64
283.479	4.65
283.852	4.61
284.224	4.5
284.596	4.63
284.968	4.79
285.34	4.85
285.713	4.79
286.085	4.91
286.457	5.08
286.829	5.1
287.201	5
287.572	5.08
287.944	4.93
288.316	4.86
288.688	4.77
289.06	4.82
289.431	4.69
289.803	4.8
290.175	4.9
290.546	5.02
290.918	5.06
291.289	5.07
291.661	5.09
292.032	5.17
292.403	5.09
292.775	5.11
293.146	5.03
293.517	5.1
293.889	5.24
294.26	5.19
294.631	5.19
295.002	5.25
295.373	5.17
295.744	5.17
296.115	5.2
296.486	5.19
296.857	5.15
297.228	5.21
297.599	5.11
297.97	5
298.34	4.92
298.711	4.97
299.082	4.96
299.452	4.98
299.823	5.1
300.194	5.15
300.564	5.04
300.935	5.15
301.305	5.12
301.676	5
302.046	5.02
302.416	5.09
302.787	5.01
303.157	4.96
303.527	4.97
303.897	4.93
304.267	5.16
304.637	5.25
305.008	5.19
305.378	5.2
305.748	5.31
306.117	5.22
306.487	5.28
306.857	5.26
307.227	5.38
307.597	5.24
307.967	5.22
308.336	5.37
308.706	5.45
309.076	5.44
309.445	5.45
309.815	5.37
310.184	5.25
310.554	5.3
310.923	5.29
311.293	5.35
311.662	5.3
312.031	5.21
312.401	5.17
312.77	5.18
313.139	5.21
313.508	5.33
313.877	5.43
314.246	5.38
314.616	5.41
314.985	5.36
315.353	5.34
315.722	5.32
316.091	5.39
316.46	5.17
316.829	5.03
317.198	5.09
317.567	5.02
317.935	5.08
318.304	5.04
318.672	5.12
319.041	5.24
319.41	5.42
319.778	5.6
320.147	5.47
320.515	5.4
320.883	5.43
321.252	5.34
321.62	5.26
321.988	5.17
322.357	5.13
322.725	4.9
323.093	5.05
323.461	5.1
323.829	4.93
324.197	5.13
324.565	5.22
324.933	5.18
325.301	5.34
325.669	5.29
326.037	5.24
326.405	5.23
326.772	5.11
327.14	5.07
327.508	4.87
327.875	4.94
328.243	4.93
328.61	4.88
328.978	4.91
329.346	5.08
329.713	5.15
330.08	5.14
330.448	5.27
330.815	5.04
331.182	4.96
331.55	5.09
331.917	5.03
332.284	5.19
332.651	5.13
333.018	5.04
333.385	5.09
333.752	5.16
334.119	5.24
334.486	5.27
334.853	5.22
335.22	5.3
335.587	5.23
335.954	5.25
336.32	5.29
336.687	5.28
337.054	5.18
337.42	5.18
337.787	5.3
338.153	5.26
338.52	5.52
338.886	5.49
339.253	5.38
339.619	5.38
339.986	5.38
340.352	5.35
340.718	5.31
341.084	5.37
341.451	5.49
341.817	5.51
342.183	5.47
342.549	5.42
342.915	5.48
343.281	5.5
343.647	5.51
344.013	5.5
344.379	5.44
344.745	5.55
345.11	5.6
345.476	5.56
345.842	5.64
346.208	5.46
346.573	5.65
346.939	5.8
347.304	5.7
347.67	5.47
348.035	5.61
348.401	5.59
348.766	5.59
349.132	5.54
349.497	5.46
349.862	5.5
350.228	5.6
350.593	5.48
350.958	5.6
351.323	5.56
351.688	5.62
352.053	5.62
352.418	5.52
352.783	5.51
353.148	5.45
353.513	5.38
353.878	5.36
354.243	5.28
354.608	5.16
354.972	5.23
355.337	5.41
355.702	5.29
356.066	5.45
356.431	5.42
356.795	5.32
357.16	5.31
357.524	5.3
357.889	5.19
358.253	5.27
358.618	5.25
358.982	5.23
359.346	5.16
359.71	5.15
360.075	5.15
360.439	5.18
360.803	5.17
361.167	5.16
361.531	5.18
361.895	5.15
362.259	5.16
362.623	5.13
362.987	5.15
363.351	5.17
363.714	5.1
364.078	5.05
364.442	5.06
364.806	5.08
365.169	5.09
365.533	5.09
365.896	5.1
366.26	5.08
366.623	5.17
366.987	5.2
367.35	5.22
367.714	5.23
368.077	5.14
368.44	5.16
368.803	5.16
369.167	5.17
369.53	5.18
369.893	5.21
370.256	5.23
370.619	5.19
370.982	5.17
371.345	5.2
371.708	5.26
372.071	5.26
372.434	5.29
372.797	5.25
373.159	5.31
373.522	5.32
373.885	5.36
374.247	5.36
374.61	5.39
374.973	5.44
375.335	5.48
375.698	5.52
376.06	5.52
376.423	5.56
376.785	5.65
377.147	5.67
377.51	5.63
377.872	5.61
378.234	5.61
378.596	5.61
378.958	5.58
379.321	5.61
379.683	5.63
380.045	5.63
380.407	5.64
380.769	5.64
381.13	5.6
381.492	5.57
381.854	5.53
382.216	5.54
382.578	5.5
382.939	5.43
383.301	5.43
383.663	5.45
384.024	5.4
384.386	5.33
384.747	5.33
385.109	5.36
385.47	5.38
385.832	5.41
386.193	5.46
386.554	5.44
386.916	5.39
387.277	5.39
387.638	5.4
387.999	5.4
388.36	5.41
388.721	5.44
389.082	5.47
389.443	5.42
389.804	5.42
390.165	5.44
390.526	5.48
390.887	5.44
391.248	5.45
391.609	5.52
391.969	5.49
392.33	5.48
392.691	5.49
393.051	5.45
393.412	5.44
393.772	5.41
394.133	5.44
394.493	5.45
394.854	5.46
395.214	5.44
395.574	5.44
395.935	5.46
396.295	5.47
396.655	5.43
397.015	5.47
397.376	5.46
397.736	5.47
398.096	5.49
398.456	5.53
398.816	5.56
399.176	5.5
399.535	5.54
399.895	5.53
400.255	5.51
400.615	5.55
400.975	5.56
401.334	5.59
401.694	5.6
402.054	5.55
402.413	5.55
402.773	5.54
403.132	5.54
403.492	5.52
403.851	5.51
404.211	5.51
404.57	5.53
404.929	5.55
405.288	5.52
405.648	5.47
406.007	5.46
406.366	5.44
406.725	5.49
407.084	5.49
407.443	5.5
407.802	5.55
408.161	5.54
408.52	5.51
408.879	5.48
409.238	5.46
409.596	5.5
409.955	5.49
410.314	5.52
410.673	5.52
411.031	5.48
411.39	5.47
411.748	5.51
412.107	5.5
412.465	5.47
412.824	5.47
413.182	5.49
413.54	5.44
413.899	5.43
414.257	5.4
414.615	5.37
414.974	5.38
415.332	5.36
415.69	5.37
416.048	5.38
416.406	5.4
416.764	5.4
417.122	5.37
417.48	5.36
417.838	5.35
418.195	5.32
418.553	5.32
418.911	5.34
419.269	5.32
419.626	5.31
419.984	5.31
420.342	5.32
420.699	5.32
421.057	5.34
421.414	5.33
421.772	5.32
422.129	5.33
422.486	5.32
422.844	5.32
423.201	5.29
423.558	5.28
423.915	5.27
424.273	5.27
424.63	5.28
424.987	5.27
425.344	5.27
425.701	5.29
426.058	5.29
426.415	5.28
426.772	5.28
427.128	5.29
427.485	5.3
427.842	5.28
428.199	5.29
428.555	5.28
428.912	5.3
429.269	5.3
429.625	5.3
429.982	5.3
430.338	5.3
430.695	5.32
431.051	5.31
431.407	5.28
431.764	5.29
432.12	5.28
432.476	5.32
432.832	5.29
433.189	5.27
433.545	5.26
433.901	5.27
434.257	5.26
434.613	5.26
434.969	5.27
435.325	5.29
435.681	5.27
436.036	5.28
436.392	5.27
436.748	5.28
437.104	5.27
437.459	5.27
437.815	5.25
438.171	5.24
438.526	5.29
438.882	5.31
439.237	5.33
439.593	5.35
439.948	5.33
440.304	5.35
440.659	5.36
441.014	5.37
441.369	5.33
441.725	5.33
442.08	5.33
442.435	5.33
442.79	5.34
443.145	5.35
443.5	5.34
443.855	5.35
444.21	5.35
444.565	5.35
444.92	5.35
445.275	5.34
445.629	5.34
445.984	5.33
446.339	5.31
446.693	5.3
447.048	5.27
447.403	5.25
447.757	5.26
448.112	5.26
448.466	5.26
448.82	5.27
449.175	5.27
449.529	5.26
449.883	5.24
450.238	5.2
450.592	5.21
450.946	5.19
451.3	5.16
451.654	5.18
452.008	5.18
452.362	5.17
452.716	5.18
453.07	5.19
453.424	5.18
453.778	5.19
454.132	5.18
454.486	5.2
454.839	5.2
455.193	5.2
455.547	5.18
455.9	5.19
456.254	5.19
456.607	5.2
456.961	5.21
457.314	5.2
457.668	5.21
458.021	5.19
458.375	5.18
458.728	5.21
459.081	5.22
459.434	5.23
459.787	5.25
460.141	5.26
460.494	5.26
460.847	5.26
461.2	5.26
461.553	5.27
461.906	5.27
462.259	5.28
462.611	5.29
462.964	5.29
463.317	5.29
463.67	5.29
464.022	5.27
464.375	5.27
464.728	5.3
465.08	5.32
465.433	5.34
465.785	5.36
466.138	5.34
466.49	5.31
466.843	5.31
467.195	5.3
467.547	5.31
467.899	5.32
468.252	5.32
468.604	5.33
468.956	5.3
469.308	5.32
469.66	5.31
470.012	5.31
470.364	5.32
470.716	5.32
471.068	5.34
471.42	5.38
471.772	5.42
472.123	5.42
472.475	5.4
472.827	5.4
473.178	5.4
473.53	5.42
473.882	5.41
474.233	5.41
474.585	5.4
474.936	5.4
475.288	5.39
475.639	5.39
475.99	5.4
476.342	5.41
476.693	5.39
477.044	5.41
477.395	5.42
477.746	5.44
478.097	5.44
478.448	5.44
478.8	5.43
479.15	5.42
479.501	5.4
479.852	5.41
480.203	5.41
480.554	5.42
480.905	5.42
481.255	5.44
481.606	5.45
481.957	5.47
482.307	5.48
482.658	5.48
483.009	5.48
483.359	5.49
483.709	5.51
484.06	5.51
484.41	5.52
484.761	5.52
485.111	5.53
485.461	5.54
485.811	5.53
486.162	5.53
486.512	5.54
486.862	5.54
487.212	5.54
487.562	5.56
487.912	5.56
488.262	5.55
488.612	5.55
488.961	5.54
489.311	5.54
489.661	5.53
490.011	5.54
490.36	5.53
490.71	5.53
491.06	5.52
491.409	5.52
491.759	5.51
492.108	5.5
492.458	5.49
492.807	5.5
493.157	5.5
493.506	5.52
493.855	5.52
494.204	5.52
494.554	5.52
494.903	5.52
495.252	5.52
495.601	5.55
495.95	5.57
496.299	5.58
496.648	5.59
496.997	5.58
497.346	5.59
497.695	5.6
498.043	5.61
498.392	5.62
498.741	5.62
499.09	5.63
499.438	5.65
499.787	5.65
500.135	5.65
500.484	5.67
500.832	5.68
501.181	5.7
501.529	5.73
501.878	5.76
502.226	5.77
502.574	5.78
502.923	5.77
503.271	5.76
503.619	5.78
503.967	5.79
504.315	5.82
504.663	5.81
505.011	5.84
505.359	5.86
505.707	5.89
506.055	5.9
506.403	5.91
506.751	5.91
507.098	5.93
507.446	5.94
507.794	5.94
508.141	5.94
508.489	5.95
508.837	5.96
509.184	5.97
509.531	5.99
509.879	6.02
510.226	6.07
510.574	6.08
510.921	6.06
511.268	6.06
511.616	6.07
511.963	6.1
512.31	6.13
512.657	6.14
513.004	6.14
513.351	6.15
513.698	6.16
514.045	6.17
514.392	6.17
514.739	6.19
515.086	6.18
515.432	6.2
515.779	6.17
516.126	6.19
516.473	6.18
516.819	6.19
517.166	6.15
517.512	6.14
517.859	6.15
518.205	6.17
518.552	6.18
518.898	6.19
519.245	6.18
519.591	6.16
519.937	6.16
520.283	6.17
520.629	6.18
520.976	6.17
521.322	6.18
521.668	6.21
522.014	6.22
522.36	6.25
522.706	6.25
523.052	6.28
523.398	6.29
523.743	6.28
524.089	6.3
524.435	6.31
524.781	6.34
525.126	6.36
525.472	6.37
525.817	6.37
526.163	6.37
526.509	6.39
526.854	6.4
527.199	6.41
527.545	6.4
527.89	6.4
528.235	6.42
528.581	6.42
528.926	6.41
529.271	6.42
529.616	6.41
529.961	6.4
530.306	6.41
530.651	6.41
530.996	6.41
531.341	6.42
531.686	6.42
532.031	6.41
532.376	6.4
532.721	6.4
533.065	6.41
533.41	6.42
533.755	6.41
534.099	6.4
534.444	6.4
534.788	6.4
535.133	6.4
535.477	6.38
535.822	6.37
536.166	6.37
536.51	6.36
536.855	6.35
537.199	6.37
537.543	6.35
537.887	6.34
538.231	6.35
538.576	6.36
538.92	6.37
539.264	6.38
539.608	6.37
539.951	6.37
540.295	6.35
540.639	6.36
540.983	6.37
541.327	6.39
541.671	6.39
542.014	6.39
542.358	6.39
542.701	6.41
543.045	6.42
543.389	6.44
543.732	6.45
544.075	6.46
544.419	6.45
544.762	6.46
545.105	6.49
545.449	6.49
545.792	6.47
546.135	6.47
546.478	6.46
546.821	6.48
547.165	6.49
547.508	6.53
547.851	6.52
548.194	6.51
548.536	6.52
548.879	6.54
549.222	6.56
549.565	6.57
549.908	6.55
550.25	6.56
550.593	6.51
550.936	6.53
551.278	6.54
551.621	6.55
551.963	6.58
552.306	6.55
552.648	6.59
552.991	6.62
553.333	6.6
553.675	6.59
554.017	6.6
554.36	6.58
554.702	6.59
555.044	6.59
555.386	6.62
555.728	6.61
556.07	6.58
556.412	6.56
556.754	6.57
557.096	6.6
557.438	6.61
557.78	6.63
558.121	6.61
558.463	6.57
558.805	6.58
559.147	6.57
559.488	6.57
559.83	6.56
560.171	6.54
560.513	6.57
560.854	6.57
561.196	6.57
561.537	6.59
561.878	6.57
562.22	6.55
562.561	6.54
562.902	6.54
563.243	6.55
563.584	6.56
563.925	6.57
564.266	6.53
564.607	6.54
564.948	6.54
565.289	6.56
565.63	6.58
565.971	6.57
566.312	6.58
566.653	6.59
566.993	6.6
567.334	6.59
567.675	6.59
568.015	6.6
568.356	6.6
568.696	6.6
569.037	6.6
569.377	6.63
569.718	6.64
570.058	6.64
570.398	6.64
570.739	6.65
571.079	6.66
571.419	6.68
571.759	6.67
572.099	6.67
572.439	6.66
572.779	6.65
573.119	6.68
573.459	6.7
573.799	6.7
574.139	6.7
574.479	6.71
574.819	6.71
575.158	6.68
575.498	6.69
575.838	6.7
576.177	6.67
576.517	6.66
576.856	6.67
577.196	6.65
577.535	6.62
577.875	6.61
578.214	6.6
578.553	6.62
578.893	6.63
579.232	6.66
579.571	6.68
579.91	6.68
580.25	6.65
580.589	6.63
580.928	6.63
581.267	6.64
581.606	6.63
581.945	6.67
582.283	6.68
582.622	6.67
582.961	6.67
583.3	6.66
583.639	6.7
583.977	6.68
584.316	6.67
584.654	6.7
584.993	6.7
585.332	6.71
585.67	6.68
586.008	6.67
586.347	6.67
586.685	6.59
587.024	6.6
587.362	6.62
587.7	6.64
588.038	6.69
588.376	6.65
588.715	6.69
589.053	6.68
589.391	6.69
589.729	6.73
590.067	6.68
590.404	6.73
590.742	6.72
591.08	6.74
591.418	6.81
591.756	6.8
592.093	6.81
592.431	6.81
592.769	6.79
593.106	6.81
593.444	6.79
593.781	6.85
594.119	6.9
594.456	6.9
594.793	6.88
595.131	6.83
595.468	6.91
595.805	6.91
596.143	6.88
596.48	6.89
596.817	6.9
597.154	6.99
597.491	6.98
597.828	6.96
598.165	6.93
598.502	6.89
598.839	6.87
599.176	6.84
599.512	6.87
599.849	6.87
600.186	6.87
600.523	6.93
600.859	7
601.196	6.98
601.532	6.98
601.869	6.97
602.205	7.01
602.542	6.98
602.878	6.94
603.215	7
603.551	7.03
603.887	7.02
604.223	6.99
604.56	7.03
604.896	7.07
605.232	7.11
605.568	7.12
605.904	7.13
606.24	7.2
606.576	7.21
606.912	7.26
607.248	7.27
607.583	7.29
607.919	7.22
608.255	7.19
608.591	7.2
608.926	7.26
609.262	7.23
609.597	7.24
609.933	7.28
610.268	7.26
610.604	7.22
610.939	7.24
611.275	7.21
611.61	7.16
611.945	7.17
612.281	7.18
612.616	7.15
612.951	7.23
613.286	7.18
613.621	7.14
613.956	7.11
614.291	7.11
614.626	7.04
614.961	7.06
615.296	7.09
615.631	7.11
615.966	7.07
616.3	7.04
616.635	7
616.97	7
617.304	7
617.639	7.01
617.973	6.96
618.308	7
618.642	7.04
618.977	7.04
619.311	7.04
619.646	7.13
619.98	7.06
620.314	7.09
620.648	7.15
620.983	7.19
621.317	7.2
621.651	7.17
621.985	7.14
622.319	7.14
622.653	7.16
622.987	7.17
623.321	7.22
623.655	7.24
623.988	7.3
624.322	7.25
624.656	7.28
624.99	7.27
625.323	7.26
625.657	7.23
625.99	7.22
626.324	7.19
626.657	7.18
626.991	7.22
627.324	7.22
627.658	7.2
627.991	7.17
628.324	7.14
628.657	7.19
628.991	7.26
629.324	7.28
629.657	7.28
629.99	7.3
630.323	7.27
630.656	7.27
630.989	7.26
631.322	7.26
631.655	7.25
631.987	7.29
632.32	7.29
632.653	7.32
632.986	7.32
633.318	7.29
633.651	7.29
633.984	7.31
634.316	7.28
634.649	7.23
634.981	7.23
635.313	7.27
635.646	7.23
635.978	7.2
636.31	7.16
636.643	7.14
636.975	7.04
637.307	7.09
637.639	7.17
637.971	7.15
638.303	7.24
638.635	7.21
638.967	7.24
639.299	7.23
639.631	7.23
639.963	7.25
640.295	7.29
640.626	7.26
640.958	7.28
641.29	7.3
641.621	7.36
641.953	7.4
642.285	7.42
642.616	7.41
642.948	7.44
643.279	7.44
643.61	7.42
643.942	7.51
644.273	7.5
644.604	7.49
644.936	7.44
645.267	7.48
645.598	7.53
645.929	7.5
646.26	7.61
646.591	7.56
646.922	7.48
647.253	7.5
647.584	7.48
647.915	7.47
648.245	7.44
648.576	7.51
648.907	7.49
649.238	7.5
649.568	7.54
649.899	7.53
650.229	7.6
650.56	7.68
650.89	7.66
651.221	7.72
651.551	7.64
651.882	7.67
652.212	7.64
652.542	7.66
652.872	7.63
653.203	7.6
653.533	7.63
653.863	7.74
654.193	7.74
654.523	7.77
654.853	7.8
655.183	7.84
655.513	7.77
655.843	7.69
656.172	7.69
656.502	7.74
656.832	7.7
657.162	7.62
657.491	7.55
657.821	7.58
658.15	7.55
658.48	7.59
658.809	7.55
659.139	7.54
659.468	7.52
659.798	7.53
660.127	7.54
660.456	7.54
660.785	7.52
661.115	7.57
661.444	7.6
661.773	7.56
662.102	7.59
662.431	7.61
662.76	7.67
663.089	7.67
663.418	7.64
663.747	7.66
664.076	7.71
664.404	7.71
664.733	7.72
665.062	7.75
665.39	7.69
665.719	7.7
666.048	7.74
666.376	7.66
666.705	7.66
667.033	7.59
667.362	7.64
667.69	7.6
668.018	7.51
668.347	7.5
668.675	7.51
669.003	7.5
669.331	7.58
669.659	7.58
669.987	7.57
670.315	7.55
670.643	7.63
670.971	7.71
671.299	7.85
671.627	7.83
671.955	7.82
672.283	7.87
672.61	7.86
672.938	7.82
673.266	7.91
673.593	8.02
673.921	8.05
674.249	8.06
674.576	8
674.904	7.98
675.231	8
675.558	8
675.886	8.01
676.213	7.85
676.54	7.86
676.867	7.87
677.195	7.86
677.522	7.79
677.849	7.74
678.176	7.61
678.503	7.67
678.83	7.68
679.157	7.68
679.484	7.68
679.81	7.64
680.137	7.61
680.464	7.5
680.791	7.44
681.117	7.42
681.444	7.49
681.771	7.5
682.097	7.51
682.424	7.54
682.75	7.52
683.077	7.58
683.403	7.62
683.729	7.63
684.056	7.7
684.382	7.8
684.708	7.76
685.034	7.76
685.36	7.72
685.686	7.72
686.012	7.65
686.339	7.71
686.664	7.78
686.99	7.85
687.316	7.84
687.642	7.93
687.968	7.93
688.294	7.92
688.619	7.97
688.945	7.9
689.271	7.84
689.596	7.88
689.922	7.91
690.247	7.93
690.573	7.85
690.898	7.76
691.224	7.68
691.549	7.68
691.874	7.69
692.2	7.69
692.525	7.62
692.85	7.72
693.175	7.67
693.5	7.63
693.825	7.56
694.15	7.6
694.475	7.51
694.8	7.53
695.125	7.48
695.45	7.48
695.775	7.47
696.099	7.5
696.424	7.43
696.749	7.4
697.073	7.36
697.398	7.43
697.723	7.45
698.047	7.43
698.372	7.42
698.696	7.47
699.02	7.44
699.345	7.46
699.669	7.49
699.993	7.6
700.318	7.65
700.642	7.63
700.966	7.72
701.29	7.84
701.614	7.86
701.938	7.89
702.262	7.96
702.586	8.05
702.91	8.09
703.234	8.15
703.557	8.22
703.881	8.25
704.205	8.28
704.529	8.29
704.852	8.35
705.176	8.41
705.499	8.41
705.823	8.4
706.146	8.32
706.47	8.23
706.793	8.07
707.117	8
707.44	8.14
707.763	7.95
708.086	7.85
708.409	7.75
708.733	7.88
709.056	7.94
709.379	7.98
709.702	7.94
710.025	7.94
710.348	7.82
710.671	7.78
710.993	7.87
711.316	7.94
711.639	7.88
711.962	7.87
712.284	7.92
712.607	8.01
712.93	8.18
713.252	8.23
713.575	8.34
713.897	8.37
714.22	8.47
714.542	8.63
714.864	8.65
715.187	8.74
715.509	8.62
715.831	8.52
716.153	8.51
716.475	8.64
716.798	8.65
717.12	8.71
717.442	8.7
717.764	8.63
718.085	8.57
718.407	8.59
718.729	8.54
719.051	8.57
719.373	8.58
719.695	8.42
720.016	8.47
720.338	8.41
720.659	8.38
720.981	8.27
721.302	8.25
721.624	8.41
721.945	8.44
722.267	8.59
722.588	8.63
722.909	8.62
723.231	8.53
723.552	8.41
723.873	8.51
724.194	8.45
724.515	8.43
724.836	8.55
725.157	8.65
725.478	8.65
725.799	8.61
726.12	8.56
726.441	8.58
726.762	8.54
727.083	8.67
727.403	8.82
727.724	8.93
728.045	8.97
728.365	8.79
728.686	8.54
729.006	8.62
729.327	8.53
729.647	8.46
729.967	8.48
730.288	8.73
730.608	8.64
730.928	8.65
731.249	8.64
731.569	8.72
731.889	8.53
732.209	8.64
732.529	8.64
732.849	8.82
733.169	9.06
733.489	9.15
733.809	9.07
734.129	8.98
734.448	9.02
734.768	8.99
735.088	9.02
735.408	9.4
735.727	9.35
736.047	9.5
736.366	9.48
736.686	9.56
737.005	9.39
737.325	9.39
737.644	9.63
737.963	9.66
738.283	9.52
738.602	9.64
738.921	9.72
739.24	9.79
739.56	9.59
739.879	9.33
740.198	9.4
740.517	9.4
740.836	9.49
741.155	9.23
741.473	9.34
741.792	9.29
742.111	9.15
742.43	9.07
742.748	8.72
743.067	9.02
743.386	8.89
743.704	8.84
744.023	9.11
744.341	8.77
744.66	9
744.978	8.84
745.297	8.97
745.615	8.87
745.933	8.8
746.252	8.76
746.57	8.97
746.888	8.81
747.206	8.92
747.524	8.83
747.842	8.98
748.16	8.97
748.478	9.25
748.796	9.35
749.114	9.54
749.432	9.8
749.749	9.68
750.067	9.43
750.385	9.48
750.703	9.15
751.02	9.3
751.338	9.17
751.655	9.38
751.973	9.61
752.29	9.36
752.608	9.5
752.925	9.46
753.242	9.32
753.56	9.01
753.877	9.03
754.194	9.25
754.511	8.99
754.828	8.61
755.145	8.52
755.462	8.07
755.779	7.78
756.096	8
756.413	8.06
756.73	8.53
757.047	8.68
757.364	8.91
757.68	9.25
757.997	9.12
758.314	9.36
758.63	8.92
758.947	9.13
759.264	9.24
759.58	9.28
759.896	9.55
760.213	9.93
760.529	9.63
760.846	9.41
761.162	9.72
761.478	9.85
761.794	9.7
762.11	10.05
762.426	10.14
762.743	10
763.059	9.99
763.375	9.79
763.69	9.55
764.006	9.64
764.322	9.54
764.638	9.69
764.954	9.62
765.27	9.78
765.585	9.79
765.901	9.73
766.216	9.88
766.532	9.63
766.848	9.52
767.163	9.73
767.478	9.79
767.794	9.7
768.109	9.89
768.424	9.95
768.74	9.74
769.055	9.81
769.37	9.86
769.685	9.69
770	9.92
770.315	10.04
770.63	9.75
770.945	9.37
771.26	9.27
771.575	9.31
771.89	9.43
772.205	9.46
772.52	9.23
772.834	9
773.149	9.31
773.464	9.37
773.778	9.29
774.093	9.12
774.407	9.12
774.722	9.28
775.036	9.33
775.351	9.7
775.665	10
775.979	9.75
776.293	10.01
776.608	9.89
776.922	9.94
777.236	9.99
777.55	10.27
777.864	10.29
778.178	10.22
778.492	10.29
778.806	9.92
779.12	10.28
779.434	10.41
779.747	10.48
780.061	10.77
780.375	10.69
780.689	10.91
781.002	10.64
781.316	10.31
781.629	10.22
781.943	9.78
782.256	9.46
782.57	9.66
782.883	9.46
783.196	9.16
783.51	9.33
783.823	9.15
784.136	9.67
784.449	9.81
784.762	10.15
785.075	9.88
785.388	10.07
785.701	9.67
786.014	9.37
786.327	8.69
786.64	8.69
786.953	9.18
787.266	8.6
787.578	8.57
787.891	8.26
788.204	8.13
788.516	8.62
788.829	8.72
789.141	9.05
789.454	8.93
789.766	9.49
790.079	9.34
790.391	9.91
790.703	9.65
791.016	9.56
791.328	9.21
791.64	9.02
791.952	9.24
792.264	8.98
792.576	9.05
792.888	9.49
793.2	9.47
793.512	9.03
793.824	9.45
794.136	9.86
794.448	10.39
794.76	10.56
795.071	10.55
795.383	9.85
795.695	9.37
796.006	9.55
796.318	9.36
796.629	9.34
796.941	9.22
797.252	9.16
797.564	9.1
797.875	8.77
798.186	8.85
798.497	8.4
798.809	8.8
799.12	9.19
799.431	9.14
799.742	8.83
800.053	9
800.364	9.18
800.675	9.07
800.986	8.79
801.297	8.8
801.608	8.24
801.918	8.64
802.229	8.99
802.54	9.25
802.851	9.38
803.161	9.85
803.472	9.57
803.782	9.77
804.093	9.94
804.403	10.06
804.714	10.12
805.024	9.95
805.334	10.01
805.645	10.06
805.955	10.32
806.265	10.94
806.575	11.24
806.885	11.15
807.195	11.26
807.505	11.33
807.815	11.21
808.125	11.23
808.435	11.28
808.745	11.19
809.055	10.89
809.365	10.73
809.674	10.33
809.984	10.41
810.294	10.46
810.603	10.59
810.913	11.11
811.222	11.5
811.532	12.2
811.841	12.47
812.151	13.34
812.46	12.57
812.769	11.82
813.079	11.22
813.388	11.49
813.697	12.01
814.006	12.12
814.315	12.03
814.624	12.54
814.933	12.68
815.242	12.8
815.551	13.36
815.86	13.43
816.169	13.95
816.478	13.5
816.786	13.03
817.095	12.61
817.404	12.54
817.712	12.12
818.021	12.54
818.33	12.25
818.638	11.54
818.947	12.45
819.255	12.76
819.563	12.99
819.872	12.94
820.18	12.66
820.488	12.62
820.796	12.95
821.105	12.83
821.413	12.73
821.721	12.39
822.029	12.36
822.337	12.15
822.645	12.18
822.953	12.34
823.26	12.4
823.568	12.3
823.876	12.3
824.184	12.33
824.491	12.28
824.799	12.43
825.107	12.33
825.414	12.3
825.722	12.26
826.029	12.24
826.337	12.25
826.644	12.41
826.951	12.44
827.259	12.27
827.566	12.29
827.873	12.5
828.18	12.81
828.488	12.62
828.795	12.86
829.102	12.72
829.409	12.92
829.716	12.94
830.023	13.3
830.329	13.01
830.636	13.22
830.943	13.03
831.25	12.72
831.557	12.94
831.863	12.88
832.17	12.59
832.476	12.8
832.783	12.85
833.089	12.51
833.396	12.72
833.702	12.95
834.009	12.86
834.315	12.33
834.621	12.52
834.928	12.43
835.234	12.47
835.54	12.47
835.846	12.12
836.152	12.24
836.458	12.32
836.764	12.71
837.07	12.67
837.376	12.53
837.682	12.45
837.988	12.76
838.293	12.13
838.599	12.19
838.905	12.07
839.211	11.52
839.516	10.85
839.822	10.47
840.127	9.79
840.433	10.14
840.738	10.7
841.044	10.01
841.349	10.51
841.654	11.01
841.959	10.79
842.265	10.74
842.57	10.54
842.875	10.56
843.18	10.68
843.485	10.56
843.79	10.44
844.095	10.25
844.4	9.98
844.705	9.92
845.01	9.8
845.315	9.31
845.619	9.39
845.924	12.38
846.229	13.83
846.533	14.22
846.838	14.24
847.142	12.49
847.447	12.05
847.751	11.17
848.056	8.92
848.36	9.16
848.664	7.72
848.969	8.32
849.273	7.25
849.577	6.24
849.881	6.09
850.185	8.03
850.489	9.14
850.794	8.98
851.097	12.2
851.401	15.05
851.705	13.94
852.009	16.47
852.313	13.83
852.617	11.58
852.92	13.34
853.224	13.57
853.528	15.92
853.831	15.7
854.135	16.75
854.438	15.99
854.742	16.56
855.045	18.73
855.349	17.8
855.652	18.5
855.955	20.3
856.259	18.53
856.562	18.01
856.865	18.76
857.168	17.72
857.471	15.95
857.774	15.73
858.077	17.92
858.38	17.21
858.683	16.92
858.986	17.49
859.289	17.72
859.592	17.91
859.894	18.58
860.197	20.82
860.5	21.25
860.802	23
861.105	24.86
861.407	24.21
861.71	23.98
862.012	21.85
862.315	20.67
862.617	21.22
862.919	21.92
863.222	20.62
863.524	21.11
863.826	22.87
864.128	20.7
864.43	19.35
864.732	20.22
865.034	20.82
865.336	19.6
865.638	17.84
865.94	16.18
866.242	14.64
866.544	12.91
866.846	12.1
867.147	11.69
867.449	10.67
867.751	10.59
868.052	12.8
868.354	12.17
868.655	13.54
868.957	15.63
869.258	15.09
869.56	15.23
869.861	13.61
870.162	12.16
870.463	14.01
870.765	14.23
871.066	10.89
871.367	10.07
871.668	10.31
871.969	10.78
872.27	12.87
872.571	11.99
872.872	14.12
873.173	13.76
873.473	14.3
873.774	12.82
874.075	13.75
874.376	10.15
874.676	15.94
874.977	14.12
875.277	12.97
875.578	14.67
875.878	15.28
876.179	17.41
876.479	17.6
876.78	16.28
877.08	16.61
877.38	17.82
877.68	18.72
877.981	20.22
878.281	21.6
878.581	20.21
