Data from BU26942_Reflection_00012.txt Node
Date: Mon Nov 18 16:50:52 EST 2019
User: vgr7
Spectrometer: USB2G7710
Scans to average: 3
Trigger mode: 4
Integration Time (sec): 2.000000E-2
Electric dark correction enabled: true
Boxcar width: 10
XAxis mode: Wavelengths
Number of Pixels in Spectrum: 2048
>>>>>Begin Spectral Data<<<<<
177.721	3.48
178.105	-22.02
178.488	118.96
178.871	22.54
179.254	443.2
179.636	61.54
180.019	-1815.49
180.402	139.13
180.785	-67.47
181.168	8.42
181.55	104.28
181.933	108.99
182.316	186.15
182.698	168.46
183.081	205.66
183.463	3638.46
183.846	40.23
184.228	-44.33
184.611	-156.6
184.993	-408.88
185.376	189.77
185.758	131.8
186.14	81.2
186.522	-163900
186.904	-777.01
187.287	-232.05
187.669	714.53
188.051	278.67
188.433	418.54
188.815	1304.97
189.197	319.03
189.579	83.76
189.961	79.87
190.342	119.89
190.724	123.21
191.106	146.97
191.488	269.34
191.869	151.05
192.251	65.31
192.633	60.58
193.014	71.9
193.396	65.99
193.777	68.94
194.159	101.75
194.54	39.08
194.922	30.8
195.303	50.16
195.684	79.91
196.065	72.41
196.447	73.71
196.828	85.94
197.209	141.69
197.59	293.41
197.971	243.17
198.352	225.98
198.733	171.4
199.114	199.59
199.495	176.83
199.876	130.08
200.257	173.41
200.638	179.25
201.018	175.3
201.399	123.87
201.78	127.66
202.16	104.97
202.541	111.17
202.922	181.29
203.302	115.06
203.683	87.87
204.063	109.16
204.444	106.57
204.824	90.37
205.204	39.36
205.585	63.57
205.965	56.23
206.345	4.89
206.725	-55.37
207.106	-68.47
207.486	-94.64
207.866	-65.36
208.246	-77.97
208.626	-97.11
209.006	-49.27
209.386	-33.93
209.766	-9.87
210.145	30.52
210.525	39.36
210.905	46.32
211.285	46.02
211.664	36.12
212.044	39.01
212.424	33.31
212.803	11.52
213.183	15.38
213.562	-0.4
213.942	2.62
214.321	15.27
214.701	-3.69
215.08	-6.02
215.459	-3.01
215.838	6.97
216.218	25.31
216.597	13.01
216.976	8.49
217.355	25.03
217.734	7.75
218.113	-2.45
218.492	-5.46
218.871	-8.26
219.25	-4.16
219.629	1.15
220.008	-3.72
220.387	9.86
220.766	4.4
221.144	5.38
221.523	-15.07
221.902	-25.14
222.28	-29.29
222.659	-6.87
223.037	12.13
223.416	3.47
223.794	-2.62
224.173	-6.92
224.551	-0.93
224.929	6.04
225.308	6.48
225.686	11.23
226.064	9.97
226.442	12.13
226.821	10.41
227.199	7.93
227.577	5.44
227.955	6.39
228.333	4.52
228.711	9.45
229.089	13.85
229.467	13.89
229.845	13.19
230.222	10.57
230.6	11.77
230.978	8.33
231.356	10.76
231.733	11.48
232.111	11.25
232.488	11.23
232.866	10.17
233.243	6.49
233.621	5.59
233.998	5.34
234.376	3.91
234.753	4.51
235.13	4.17
235.508	5.66
235.885	5.28
236.262	5.07
236.639	4.12
237.016	3.2
237.393	5.22
237.77	5.48
238.147	6.94
238.524	6.53
238.901	6.87
239.278	6.5
239.655	6.95
240.032	5.91
240.409	6.16
240.785	6.08
241.162	6.96
241.539	6.69
241.915	7.09
242.292	6.66
242.668	6.35
243.045	6.52
243.421	6.27
243.798	5.96
244.174	5.56
244.551	5.72
244.927	5.34
245.303	5.37
245.679	5.5
246.056	5.36
246.432	5.51
246.808	5.42
247.184	5.06
247.56	4.67
247.936	4.97
248.312	4.9
248.688	5.02
249.064	4.82
249.44	4.73
249.815	4.69
250.191	4.97
250.567	5.06
250.943	4.95
251.318	4.89
251.694	5.09
252.069	5.03
252.445	4.94
252.82	4.91
253.196	4.77
253.571	4.83
253.947	4.7
254.322	4.65
254.697	4.43
255.073	4.54
255.448	4.36
255.823	4.31
256.198	4.31
256.573	4.13
256.948	4.2
257.323	4.32
257.698	4.15
258.073	3.93
258.448	3.83
258.823	3.83
259.198	3.74
259.573	3.47
259.948	3.59
260.322	3.6
260.697	3.7
261.072	3.55
261.446	3.5
261.821	3.49
262.195	3.41
262.57	3.63
262.944	3.69
263.319	3.77
263.693	3.8
264.067	3.81
264.442	3.75
264.816	3.81
265.19	3.62
265.564	3.73
265.938	3.71
266.313	3.69
266.687	3.74
267.061	3.82
267.435	3.95
267.809	3.93
268.183	4.11
268.556	3.98
268.93	4.14
269.304	4.02
269.678	4.03
270.051	3.74
270.425	3.73
270.799	3.71
271.172	3.73
271.546	3.61
271.919	3.52
272.293	3.57
272.666	3.46
273.04	3.49
273.413	3.4
273.787	3.56
274.16	3.48
274.533	3.46
274.906	3.4
275.279	3.46
275.653	3.44
276.026	3.09
276.399	3.21
276.772	3.06
277.145	2.95
277.518	2.98
277.891	3.3
278.263	3.25
278.636	3.23
279.009	3.28
279.382	3.36
279.755	3.29
280.127	3.49
280.5	3.49
280.872	3.51
281.245	3.33
281.617	3.37
281.99	3.56
282.362	3.53
282.735	3.52
283.107	3.38
283.479	3.4
283.852	3.54
284.224	3.4
284.596	3.41
284.968	3.55
285.34	3.66
285.713	3.64
286.085	3.72
286.457	3.78
286.829	3.73
287.201	3.74
287.572	3.72
287.944	3.52
288.316	3.55
288.688	3.54
289.06	3.68
289.431	3.69
289.803	3.73
290.175	3.72
290.546	3.9
290.918	3.96
291.289	3.93
291.661	4.03
292.032	4.13
292.403	4.17
292.775	4.2
293.146	3.98
293.517	3.96
293.889	4.03
294.26	4.04
294.631	4.15
295.002	4.17
295.373	4.18
295.744	4.28
296.115	4.37
296.486	4.25
296.857	4.31
297.228	4.27
297.599	4.23
297.97	4.27
298.34	4.05
298.711	4.19
299.082	4.22
299.452	4.21
299.823	4.27
300.194	4.19
300.564	4.17
300.935	4.41
301.305	4.37
301.676	4.34
302.046	4.33
302.416	4.35
302.787	4.22
303.157	4.26
303.527	4.42
303.897	4.35
304.267	4.58
304.637	4.62
305.008	4.55
305.378	4.47
305.748	4.46
306.117	4.57
306.487	4.42
306.857	4.47
307.227	4.45
307.597	4.38
307.967	4.58
308.336	4.59
308.706	4.42
309.076	4.45
309.445	4.31
309.815	4.34
310.184	4.28
310.554	4.41
310.923	4.47
311.293	4.34
311.662	4.34
312.031	4.28
312.401	4.27
312.77	4.46
313.139	4.53
313.508	4.62
313.877	4.65
314.246	4.81
314.616	4.88
314.985	4.94
315.353	4.92
315.722	4.96
316.091	4.82
316.46	4.75
316.829	4.8
317.198	4.9
317.567	4.92
317.935	5.03
318.304	4.97
318.672	4.93
319.041	4.97
319.41	4.93
319.778	4.92
320.147	4.87
320.515	4.85
320.883	4.87
321.252	4.83
321.62	4.8
321.988	4.69
322.357	4.68
322.725	4.69
323.093	4.74
323.461	4.77
323.829	4.95
324.197	5.13
324.565	5.16
324.933	5.27
325.301	5.23
325.669	5.25
326.037	5.19
326.405	5.27
326.772	5.21
327.14	5.37
327.508	5.46
327.875	5.27
328.243	5.18
328.61	5.16
328.978	5.25
329.346	5.41
329.713	5.37
330.08	5.34
330.448	5.26
330.815	5.33
331.182	5.32
331.55	5.32
331.917	5.35
332.284	5.2
332.651	4.99
333.018	4.97
333.385	4.8
333.752	4.99
334.119	5.01
334.486	5.03
334.853	4.95
335.22	4.97
335.587	5.15
335.954	5.15
336.32	5.18
336.687	5.15
337.054	5.12
337.42	5.16
337.787	5.16
338.153	5.17
338.52	5.19
338.886	5.14
339.253	5.11
339.619	5.15
339.986	5.21
340.352	5.39
340.718	5.46
341.084	5.53
341.451	5.41
341.817	5.39
342.183	5.47
342.549	5.4
342.915	5.41
343.281	5.41
343.647	5.41
344.013	5.37
344.379	5.32
344.745	5.24
345.11	5.31
345.476	5.46
345.842	5.54
346.208	5.49
346.573	5.53
346.939	5.56
347.304	5.45
347.67	5.4
348.035	5.36
348.401	5.39
348.766	5.4
349.132	5.47
349.497	5.42
349.862	5.43
350.228	5.46
350.593	5.38
350.958	5.43
351.323	5.44
351.688	5.46
352.053	5.48
352.418	5.49
352.783	5.47
353.148	5.38
353.513	5.29
353.878	5.34
354.243	5.42
354.608	5.46
354.972	5.46
355.337	5.56
355.702	5.61
356.066	5.63
356.431	5.58
356.795	5.65
357.16	5.67
357.524	5.55
357.889	5.55
358.253	5.61
358.618	5.56
358.982	5.58
359.346	5.56
359.71	5.62
360.075	5.65
360.439	5.7
360.803	5.68
361.167	5.66
361.531	5.56
361.895	5.43
362.259	5.38
362.623	5.4
362.987	5.37
363.351	5.28
363.714	5.23
364.078	5.22
364.442	5.13
364.806	5.12
365.169	5.13
365.533	5.1
365.896	5.08
366.26	5.06
366.623	4.98
366.987	5.01
367.35	4.96
367.714	4.97
368.077	4.86
368.44	4.82
368.803	4.87
369.167	4.88
369.53	4.89
369.893	4.86
370.256	4.84
370.619	4.77
370.982	4.74
371.345	4.7
371.708	4.73
372.071	4.72
372.434	4.67
372.797	4.73
373.159	4.72
373.522	4.67
373.885	4.68
374.247	4.75
374.61	4.7
374.973	4.67
375.335	4.64
375.698	4.67
376.06	4.66
376.423	4.66
376.785	4.68
377.147	4.72
377.51	4.74
377.872	4.78
378.234	4.83
378.596	4.87
378.958	4.84
379.321	4.84
379.683	4.88
380.045	4.91
380.407	4.88
380.769	4.86
381.13	4.88
381.492	4.85
381.854	4.79
382.216	4.78
382.578	4.78
382.939	4.74
383.301	4.7
383.663	4.69
384.024	4.64
384.386	4.64
384.747	4.6
385.109	4.55
385.47	4.5
385.832	4.46
386.193	4.46
386.554	4.46
386.916	4.42
387.277	4.33
387.638	4.36
387.999	4.33
388.36	4.35
388.721	4.33
389.082	4.31
389.443	4.3
389.804	4.3
390.165	4.26
390.526	4.26
390.887	4.2
391.248	4.2
391.609	4.19
391.969	4.17
392.33	4.14
392.691	4.14
393.051	4.15
393.412	4.14
393.772	4.08
394.133	4.04
394.493	4.03
394.854	4
395.214	3.96
395.574	3.95
395.935	3.92
396.295	3.88
396.655	3.89
397.015	3.87
397.376	3.85
397.736	3.87
398.096	3.87
398.456	3.89
398.816	3.87
399.176	3.83
399.535	3.79
399.895	3.79
400.255	3.76
400.615	3.72
400.975	3.7
401.334	3.7
401.694	3.7
402.054	3.7
402.413	3.73
402.773	3.71
403.132	3.71
403.492	3.71
403.851	3.72
404.211	3.71
404.57	3.7
404.929	3.69
405.288	3.66
405.648	3.63
406.007	3.64
406.366	3.64
406.725	3.67
407.084	3.68
407.443	3.64
407.802	3.68
408.161	3.69
408.52	3.68
408.879	3.68
409.238	3.7
409.596	3.69
409.955	3.71
410.314	3.73
410.673	3.72
411.031	3.72
411.39	3.72
411.748	3.69
412.107	3.68
412.465	3.66
412.824	3.64
413.182	3.63
413.54	3.62
413.899	3.61
414.257	3.59
414.615	3.58
414.974	3.57
415.332	3.52
415.69	3.51
416.048	3.51
416.406	3.49
416.764	3.45
417.122	3.45
417.48	3.41
417.838	3.39
418.195	3.38
418.553	3.34
418.911	3.34
419.269	3.34
419.626	3.33
419.984	3.33
420.342	3.32
420.699	3.33
421.057	3.31
421.414	3.31
421.772	3.29
422.129	3.31
422.486	3.3
422.844	3.32
423.201	3.31
423.558	3.3
423.915	3.31
424.273	3.31
424.63	3.3
424.987	3.3
425.344	3.29
425.701	3.28
426.058	3.33
426.415	3.31
426.772	3.31
427.128	3.31
427.485	3.33
427.842	3.32
428.199	3.31
428.555	3.32
428.912	3.31
429.269	3.36
429.625	3.34
429.982	3.34
430.338	3.33
430.695	3.34
431.051	3.32
431.407	3.3
431.764	3.3
432.12	3.3
432.476	3.3
432.832	3.3
433.189	3.32
433.545	3.27
433.901	3.27
434.257	3.26
434.613	3.27
434.969	3.27
435.325	3.28
435.681	3.28
436.036	3.29
436.392	3.29
436.748	3.26
437.104	3.26
437.459	3.26
437.815	3.27
438.171	3.27
438.526	3.26
438.882	3.27
439.237	3.28
439.593	3.3
439.948	3.29
440.304	3.28
440.659	3.27
441.014	3.29
441.369	3.29
441.725	3.29
442.08	3.27
442.435	3.27
442.79	3.26
443.145	3.26
443.5	3.26
443.855	3.24
444.21	3.24
444.565	3.22
444.92	3.23
445.275	3.21
445.629	3.21
445.984	3.22
446.339	3.21
446.693	3.21
447.048	3.19
447.403	3.2
447.757	3.19
448.112	3.19
448.466	3.17
448.82	3.18
449.175	3.18
449.529	3.19
449.883	3.18
450.238	3.17
450.592	3.17
450.946	3.16
451.3	3.16
451.654	3.16
452.008	3.18
452.362	3.18
452.716	3.19
453.07	3.19
453.424	3.18
453.778	3.18
454.132	3.16
454.486	3.16
454.839	3.17
455.193	3.16
455.547	3.15
455.9	3.16
456.254	3.16
456.607	3.15
456.961	3.15
457.314	3.13
457.668	3.14
458.021	3.13
458.375	3.15
458.728	3.16
459.081	3.17
459.434	3.16
459.787	3.16
460.141	3.16
460.494	3.15
460.847	3.16
461.2	3.17
461.553	3.18
461.906	3.21
462.259	3.22
462.611	3.25
462.964	3.26
463.317	3.25
463.67	3.27
464.022	3.29
464.375	3.29
464.728	3.32
465.08	3.33
465.433	3.33
465.785	3.33
466.138	3.34
466.49	3.34
466.843	3.34
467.195	3.35
467.547	3.32
467.899	3.34
468.252	3.33
468.604	3.34
468.956	3.34
469.308	3.32
469.66	3.29
470.012	3.28
470.364	3.29
470.716	3.31
471.068	3.3
471.42	3.3
471.772	3.3
472.123	3.3
472.475	3.3
472.827	3.32
473.178	3.33
473.53	3.33
473.882	3.34
474.233	3.39
474.585	3.37
474.936	3.4
475.288	3.41
475.639	3.41
475.99	3.4
476.342	3.39
476.693	3.42
477.044	3.44
477.395	3.44
477.746	3.44
478.097	3.42
478.448	3.41
478.8	3.41
479.15	3.38
479.501	3.37
479.852	3.37
480.203	3.36
480.554	3.35
480.905	3.34
481.255	3.33
481.606	3.33
481.957	3.33
482.307	3.34
482.658	3.32
483.009	3.32
483.359	3.32
483.709	3.32
484.06	3.32
484.41	3.31
484.761	3.32
485.111	3.33
485.461	3.33
485.811	3.33
486.162	3.33
486.512	3.34
486.862	3.34
487.212	3.33
487.562	3.33
487.912	3.33
488.262	3.33
488.612	3.34
488.961	3.33
489.311	3.33
489.661	3.32
490.011	3.34
490.36	3.34
490.71	3.35
491.06	3.35
491.409	3.35
491.759	3.37
492.108	3.37
492.458	3.36
492.807	3.38
493.157	3.38
493.506	3.41
493.855	3.41
494.204	3.42
494.554	3.44
494.903	3.45
495.252	3.47
495.601	3.49
495.95	3.51
496.299	3.52
496.648	3.53
496.997	3.56
497.346	3.56
497.695	3.59
498.043	3.6
498.392	3.6
498.741	3.62
499.09	3.62
499.438	3.64
499.787	3.67
500.135	3.7
500.484	3.7
500.832	3.72
501.181	3.74
501.529	3.78
501.878	3.82
502.226	3.88
502.574	3.92
502.923	3.94
503.271	3.98
503.619	4.04
503.967	4.09
504.315	4.13
504.663	4.18
505.011	4.24
505.359	4.29
505.707	4.37
506.055	4.4
506.403	4.46
506.751	4.53
507.098	4.6
507.446	4.65
507.794	4.71
508.141	4.77
508.489	4.86
508.837	4.93
509.184	5.01
509.531	5.07
509.879	5.13
510.226	5.22
510.574	5.27
510.921	5.33
511.268	5.39
511.616	5.47
511.963	5.54
512.31	5.62
512.657	5.7
513.004	5.79
513.351	5.89
513.698	5.97
514.045	6.02
514.392	6.1
514.739	6.2
515.086	6.29
515.432	6.39
515.779	6.47
516.126	6.56
516.473	6.66
516.819	6.72
517.166	6.8
517.512	6.86
517.859	6.95
518.205	7.04
518.552	7.13
518.898	7.19
519.245	7.27
519.591	7.34
519.937	7.4
520.283	7.47
520.629	7.55
520.976	7.67
521.322	7.78
521.668	7.89
522.014	7.97
522.36	8.1
522.706	8.2
523.052	8.3
523.398	8.42
523.743	8.54
524.089	8.68
524.435	8.8
524.781	8.94
525.126	9.06
525.472	9.15
525.817	9.26
526.163	9.37
526.509	9.46
526.854	9.55
527.199	9.66
527.545	9.74
527.89	9.83
528.235	9.91
528.581	10
528.926	10.1
529.271	10.19
529.616	10.27
529.961	10.37
530.306	10.48
530.651	10.58
530.996	10.68
531.341	10.78
531.686	10.91
532.031	11.03
532.376	11.16
532.721	11.3
533.065	11.44
533.41	11.59
533.755	11.74
534.099	11.88
534.444	12.01
534.788	12.19
535.133	12.34
535.477	12.5
535.822	12.66
536.166	12.82
536.51	13.01
536.855	13.23
537.199	13.43
537.543	13.65
537.887	13.88
538.231	14.12
538.576	14.35
538.92	14.59
539.264	14.8
539.608	14.99
539.951	15.18
540.295	15.36
540.639	15.54
540.983	15.72
541.327	15.9
541.671	16.06
542.014	16.23
542.358	16.4
542.701	16.57
543.045	16.76
543.389	16.94
543.732	17.13
544.075	17.32
544.419	17.53
544.762	17.73
545.105	17.94
545.449	18.14
545.792	18.37
546.135	18.58
546.478	18.83
546.821	19.1
547.165	19.35
547.508	19.62
547.851	19.86
548.194	20.11
548.536	20.4
548.879	20.71
549.222	20.97
549.565	21.25
549.908	21.53
550.25	21.8
550.593	22.07
550.936	22.32
551.278	22.56
551.621	22.81
551.963	23.07
552.306	23.3
552.648	23.59
552.991	23.83
553.333	24.08
553.675	24.28
554.017	24.53
554.36	24.78
554.702	24.98
555.044	25.24
555.386	25.45
555.728	25.7
556.07	25.92
556.412	26.1
556.754	26.33
557.096	26.56
557.438	26.79
557.78	27.02
558.121	27.26
558.463	27.47
558.805	27.67
559.147	27.83
559.488	28.08
559.83	28.23
560.171	28.45
560.513	28.65
560.854	28.89
561.196	29.07
561.537	29.25
561.878	29.44
562.22	29.6
562.561	29.81
562.902	29.94
563.243	30.11
563.584	30.34
563.925	30.47
564.266	30.62
564.607	30.82
564.948	31.01
565.289	31.19
565.63	31.38
565.971	31.56
566.312	31.76
566.653	31.89
566.993	32.09
567.334	32.2
567.675	32.29
568.015	32.39
568.356	32.55
568.696	32.69
569.037	32.83
569.377	32.98
569.718	33.1
570.058	33.23
570.398	33.35
570.739	33.51
571.079	33.66
571.419	33.79
571.759	33.87
572.099	33.96
572.439	34.03
572.779	34.12
573.119	34.24
573.459	34.35
573.799	34.47
574.139	34.59
574.479	34.73
574.819	34.85
575.158	34.94
575.498	35.03
575.838	35.14
576.177	35.27
576.517	35.37
576.856	35.49
577.196	35.6
577.535	35.69
577.875	35.77
578.214	35.91
578.553	36
578.893	36.14
579.232	36.29
579.571	36.4
579.91	36.55
580.25	36.62
580.589	36.7
580.928	36.8
581.267	36.85
581.606	36.94
581.945	37.02
582.283	37.19
582.622	37.28
582.961	37.38
583.3	37.49
583.639	37.58
583.977	37.6
584.316	37.7
584.654	37.82
584.993	37.95
585.332	38.01
585.67	38.15
586.008	38.21
586.347	38.28
586.685	38.39
587.024	38.42
587.362	38.51
587.7	38.54
588.038	38.66
588.376	38.76
588.715	38.81
589.053	38.96
589.391	38.98
589.729	39.05
590.067	39.03
590.404	38.99
590.742	39.09
591.08	39.25
591.418	39.31
591.756	39.39
592.093	39.43
592.431	39.53
592.769	39.53
593.106	39.62
593.444	39.63
593.781	39.67
594.119	39.8
594.456	39.87
594.793	39.96
595.131	39.99
595.468	40.01
595.805	40.07
596.143	40.04
596.48	40.09
596.817	40.22
597.154	40.38
597.491	40.56
597.828	40.65
598.165	40.67
598.502	40.69
598.839	40.7
599.176	40.72
599.512	40.73
599.849	40.81
600.186	40.84
600.523	40.94
600.859	41.07
601.196	41.12
601.532	41.2
601.869	41.21
602.205	41.21
602.542	41.27
602.878	41.32
603.215	41.45
603.551	41.49
603.887	41.51
604.223	41.51
604.56	41.5
604.896	41.48
605.232	41.49
605.568	41.59
605.904	41.64
606.24	41.66
606.576	41.7
606.912	41.69
607.248	41.73
607.583	41.81
607.919	41.79
608.255	41.8
608.591	41.82
608.926	41.97
609.262	42.05
609.597	42.07
609.933	42.1
610.268	42.15
610.604	42.22
610.939	42.25
611.275	42.27
611.61	42.32
611.945	42.36
612.281	42.36
612.616	42.36
612.951	42.41
613.286	42.48
613.621	42.48
613.956	42.47
614.291	42.55
614.626	42.59
614.961	42.64
615.296	42.7
615.631	42.72
615.966	42.71
616.3	42.79
616.635	42.89
616.97	42.96
617.304	42.93
617.639	42.92
617.973	42.91
618.308	42.95
618.642	42.96
618.977	42.98
619.311	43.09
619.646	43.18
619.98	43.2
620.314	43.24
620.648	43.3
620.983	43.45
621.317	43.43
621.651	43.4
621.985	43.38
622.319	43.38
622.653	43.42
622.987	43.45
623.321	43.44
623.655	43.47
623.988	43.51
624.322	43.62
624.656	43.68
624.99	43.7
625.323	43.77
625.657	43.84
625.99	43.83
626.324	43.9
626.657	43.87
626.991	43.92
627.324	43.87
627.658	43.96
627.991	43.94
628.324	44.07
628.657	44.1
628.991	44.22
629.324	44.28
629.657	44.17
629.99	44.15
630.323	44.22
630.656	44.16
630.989	44.22
631.322	44.18
631.655	44.19
631.987	44.22
632.32	44.21
632.653	44.21
632.986	44.24
633.318	44.2
633.651	44.2
633.984	44.2
634.316	44.31
634.649	44.28
634.981	44.34
635.313	44.29
635.646	44.27
635.978	44.26
636.31	44.3
636.643	44.4
636.975	44.44
637.307	44.35
637.639	44.43
637.971	44.4
638.303	44.38
638.635	44.32
638.967	44.36
639.299	44.46
639.631	44.46
639.963	44.48
640.295	44.55
640.626	44.63
640.958	44.72
641.29	44.74
641.621	44.79
641.953	44.82
642.285	44.88
642.616	44.97
642.948	45.03
643.279	45.05
643.61	45.11
643.942	45.2
644.273	45.27
644.604	45.31
644.936	45.37
645.267	45.52
645.598	45.71
645.929	45.83
646.26	45.74
646.591	45.79
646.922	45.81
647.253	45.87
647.584	45.9
647.915	45.88
648.245	45.88
648.576	45.87
648.907	45.93
649.238	45.91
649.568	45.96
649.899	45.97
650.229	45.87
650.56	45.95
650.89	45.9
651.221	45.94
651.551	45.87
651.882	45.88
652.212	45.82
652.542	45.76
652.872	45.62
653.203	45.75
653.533	45.72
653.863	45.77
654.193	45.61
654.523	45.54
654.853	45.54
655.183	45.54
655.513	45.55
655.843	45.64
656.172	45.66
656.502	45.64
656.832	45.58
657.162	45.71
657.491	45.71
657.821	45.74
658.15	45.8
658.48	45.91
658.809	45.94
659.139	45.89
659.468	45.89
659.798	45.98
660.127	45.96
660.456	46
660.785	46.04
661.115	46.25
661.444	46.37
661.773	46.36
662.102	46.32
662.431	46.26
662.76	46.18
663.089	46.18
663.418	46.23
663.747	46.35
664.076	46.31
664.404	46.27
664.733	46.34
665.062	46.43
665.39	46.38
665.719	46.37
666.048	46.51
666.376	46.47
666.705	46.5
667.033	46.57
667.362	46.52
667.69	46.53
668.018	46.48
668.347	46.45
668.675	46.6
669.003	46.73
669.331	46.95
669.659	46.89
669.987	46.96
670.315	47
670.643	46.95
670.971	47.03
671.299	47.1
671.627	47.06
671.955	46.96
672.283	46.97
672.61	46.87
672.938	46.83
673.266	47.01
673.593	47.11
673.921	46.97
674.249	46.99
674.576	46.85
674.904	46.82
675.231	46.87
675.558	46.79
675.886	46.87
676.213	46.83
676.54	46.94
676.867	46.98
677.195	46.99
677.522	47.03
677.849	47.09
678.176	47.12
678.503	47.2
678.83	47.27
679.157	47.45
679.484	47.5
679.81	47.6
680.137	47.5
680.464	47.42
680.791	47.53
681.117	47.57
681.444	47.76
681.771	47.91
682.097	47.83
682.424	47.85
682.75	47.91
683.077	47.92
683.403	47.92
683.729	47.99
684.056	47.96
684.382	48.05
684.708	47.98
685.034	48
685.36	48.05
685.686	48.04
686.012	48.08
686.339	48.19
686.664	48.04
686.99	48.16
687.316	48.23
687.642	48.23
687.968	48.28
688.294	48.34
688.619	48.28
688.945	48.31
689.271	48.35
689.596	48.35
689.922	48.37
690.247	48.36
690.573	48.37
690.898	48.46
691.224	48.42
691.549	48.59
691.874	48.58
692.2	48.49
692.525	48.53
692.85	48.34
693.175	48.27
693.5	48.38
693.825	48.37
694.15	48.54
694.475	48.42
694.8	48.37
695.125	48.38
695.45	48.37
695.775	48.41
696.099	48.37
696.424	48.4
696.749	48.4
697.073	48.5
697.398	48.46
697.723	48.49
698.047	48.53
698.372	48.51
698.696	48.64
699.02	48.7
699.345	48.72
699.669	48.79
699.993	48.77
700.318	48.91
700.642	48.82
700.966	48.81
701.29	48.97
701.614	49.14
701.938	49.18
702.262	49.28
702.586	49.45
702.91	49.55
703.234	49.66
703.557	49.85
703.881	49.86
704.205	49.86
704.529	49.77
704.852	49.87
705.176	49.92
705.499	50.04
705.823	50.05
706.146	50.04
706.47	49.99
706.793	50.03
707.117	49.92
707.44	50.18
707.763	50.05
708.086	50.08
708.409	49.97
708.733	49.95
709.056	49.94
709.379	50.08
709.702	50.02
710.025	49.73
710.348	49.61
710.671	49.54
710.993	49.53
711.316	49.61
711.639	49.56
711.962	49.47
712.284	49.32
712.607	49.21
712.93	49.31
713.252	49.33
713.575	49.51
713.897	49.58
714.22	49.51
714.542	49.73
714.864	49.88
715.187	49.95
715.509	49.97
715.831	49.92
716.153	49.88
716.475	50.06
716.798	50.32
717.12	50.39
717.442	50.38
717.764	50.53
718.085	50.55
718.407	50.55
718.729	50.55
719.051	50.72
719.373	50.85
719.695	50.87
720.016	50.97
720.338	50.9
720.659	50.79
720.981	50.96
721.302	50.97
721.624	50.82
721.945	50.93
722.267	51.03
722.588	51.18
722.909	51
723.231	50.85
723.552	50.83
723.873	50.9
724.194	51.04
724.515	50.92
724.836	50.85
725.157	50.88
725.478	50.78
725.799	50.77
726.12	51.03
726.441	50.93
726.762	51.05
727.083	51.14
727.403	51.22
727.724	51.25
728.045	51.14
728.365	51.09
728.686	51.02
729.006	51.12
729.327	50.98
729.647	51.19
729.967	51.28
730.288	51.07
730.608	51.03
730.928	50.89
731.249	50.89
731.569	51.1
731.889	50.98
732.209	51.49
732.529	51.45
732.849	51.21
733.169	51.28
733.489	51.36
733.809	51.44
734.129	51.47
734.448	51.3
734.768	51.01
735.088	51.19
735.408	51.39
735.727	51.38
736.047	51.36
736.366	51.35
736.686	51.32
737.005	51.67
737.325	51.62
737.644	51.62
737.963	51.59
738.283	51.61
738.602	51.64
738.921	51.34
739.24	51.4
739.56	51.3
739.879	51.53
740.198	51.65
740.517	51.9
740.836	51.83
741.155	52.02
741.473	52.42
741.792	52.66
742.111	52.63
742.43	52.38
742.748	52.52
743.067	52.36
743.386	52.47
743.704	52.28
744.023	52.24
744.341	52.65
744.66	53.17
744.978	53.01
745.297	53.15
745.615	53.06
745.933	53.08
746.252	53.5
746.57	53.32
746.888	53.18
747.206	52.84
747.524	52.87
747.842	52.78
748.16	52.77
748.478	52.63
748.796	52.53
749.114	52.56
749.432	52.61
749.749	52.8
750.067	52.96
750.385	53.07
750.703	53.18
751.02	53.16
751.338	53.06
751.655	53.07
751.973	53.12
752.29	53.45
752.608	53.57
752.925	53.52
753.242	53.18
753.56	53.09
753.877	52.89
754.194	53.18
754.511	53.29
754.828	53.25
755.145	53.16
755.462	53.02
755.779	53.18
756.096	52.98
756.413	52.92
756.73	52.65
757.047	52.7
757.364	52.5
757.68	52.31
757.997	52.18
758.314	52.54
758.63	52.91
758.947	52.8
759.264	52.89
759.58	52.67
759.896	53.04
760.213	52.86
760.529	52.86
760.846	52.73
761.162	52.79
761.478	52.65
761.794	52.54
762.11	52.76
762.426	52.58
762.743	52.9
763.059	52.74
763.375	52.92
763.69	52.8
764.006	52.89
764.322	53.08
764.638	53.12
764.954	52.78
765.27	52.55
765.585	52.33
765.901	52.39
766.216	52.39
766.532	52.28
766.848	52.29
767.163	52.39
767.478	52.34
767.794	52.23
768.109	52.42
768.424	52.29
768.74	52.22
769.055	52.64
769.37	52.61
769.685	52.83
770	52.83
770.315	52.94
770.63	52.81
770.945	52.81
771.26	52.8
771.575	53.3
771.89	53.17
772.205	53.59
772.52	53.37
772.834	53.83
773.149	54.03
773.464	54.28
773.778	54.17
774.093	53.81
774.407	53.69
774.722	53.66
775.036	54.3
775.351	54.31
775.665	53.68
775.979	53.17
776.293	53.09
776.608	53.16
776.922	53.25
777.236	53.51
777.55	53.34
777.864	53.6
778.178	53.15
778.492	53.49
778.806	53.2
779.12	53.24
779.434	53.06
779.747	53.14
780.061	53.03
780.375	53.22
780.689	53.7
781.002	53.83
781.316	54.32
781.629	53.79
781.943	53.85
782.256	54.06
782.57	54.08
782.883	54.25
783.196	53.8
783.51	53.61
783.823	53.91
784.136	54.64
784.449	54.25
784.762	54.69
785.075	54.36
785.388	54.34
785.701	54.19
786.014	54.26
786.327	54.04
786.64	54.4
786.953	54.97
787.266	54.68
787.578	55.03
787.891	54.43
788.204	54.5
788.516	54.57
788.829	54.93
789.141	55.17
789.454	55.13
789.766	55.76
790.079	56.27
790.391	55.87
790.703	55.42
791.016	55.47
791.328	55.15
791.64	55.31
791.952	55.22
792.264	55
792.576	54.74
792.888	54.59
793.2	55.22
793.512	54.88
793.824	54.91
794.136	54.6
794.448	54.76
794.76	55.03
795.071	54.6
795.383	54.71
795.695	55.19
796.006	55.16
796.318	54.75
796.629	54.92
796.941	55.4
797.252	55.03
797.564	54.66
797.875	54.94
798.186	54.58
798.497	54.94
798.809	55.08
799.12	55.47
799.431	55.38
799.742	54.57
800.053	54.37
800.364	54.88
800.675	54.76
800.986	54.98
801.297	54.04
801.608	54.28
801.918	53.84
802.229	53.08
802.54	53.11
802.851	53.68
803.161	52.8
803.472	52.31
803.782	52.77
804.093	53.09
804.403	51.99
804.714	52.58
805.024	52.36
805.334	52.02
805.645	52.01
805.955	52.44
806.265	52.2
806.575	52.6
806.885	52.83
807.195	53.14
807.505	52.8
807.815	53.88
808.125	53.91
808.435	53.62
808.745	54.24
809.055	53.71
809.365	53.54
809.674	53.71
809.984	53.41
810.294	53.07
810.603	53.62
810.913	55.3
811.222	54.78
811.532	54.54
811.841	55.06
812.151	54.54
812.46	54.06
812.769	54.51
813.079	54.46
813.388	54.79
813.697	54.98
814.006	54.62
814.315	54.33
814.624	54.13
814.933	54.63
815.242	55.26
815.551	56.47
815.86	56.39
816.169	56.77
816.478	57.45
816.786	57.94
817.095	57.33
817.404	57.08
817.712	57.49
818.021	58.34
818.33	58.54
818.638	58.23
818.947	58.24
819.255	57.71
819.563	57.34
819.872	56.58
820.18	56.4
820.488	56.28
820.796	56.44
821.105	56.55
821.413	56.54
821.721	55.93
822.029	55.95
822.337	55.87
822.645	55.87
822.953	55.75
823.26	55.57
823.568	55.44
823.876	55.35
824.184	55.19
824.491	55.15
824.799	55.12
825.107	55.37
825.414	55.7
825.722	55.8
826.029	55.8
826.337	55.96
826.644	55.8
826.951	55.97
827.259	55.98
827.566	56.07
827.873	56.17
828.18	56.48
828.488	56.29
828.795	56.14
829.102	56.18
829.409	56.34
829.716	56.39
830.023	56.67
830.329	56.49
830.636	57.03
830.943	56.92
831.25	56.77
831.557	56.47
831.863	55.78
832.17	55.45
832.476	55.73
832.783	55.9
833.089	55.99
833.396	56.01
833.702	56.08
834.009	55.96
834.315	55.88
834.621	56.03
834.928	56.1
835.234	56.29
835.54	56.57
835.846	56.87
836.152	57.05
836.458	57
836.764	56.98
837.07	57.21
837.376	56.75
837.682	57.24
837.988	57.25
838.293	58.09
838.599	58.33
838.905	58.31
839.211	57.37
839.516	57.86
839.822	58.44
840.127	58.27
840.433	58.22
840.738	59.21
841.044	58.99
841.349	59.12
841.654	59.37
841.959	58.95
842.265	59.1
842.57	58.89
842.875	59.76
843.18	62.29
843.485	61.57
843.79	62.27
844.095	62.82
844.4	64.4
844.705	63.36
845.01	64.24
845.315	65.18
845.619	66.54
845.924	66.55
846.229	65.3
846.533	65.32
846.838	66.46
847.142	64.25
847.447	63.84
847.751	64.91
848.056	64.82
848.36	63.32
848.664	61.72
848.969	61.38
849.273	61.54
849.577	61.16
849.881	60.81
850.185	64.36
850.489	62.17
850.794	59.63
851.097	59.53
851.401	59.68
851.705	57.23
852.009	57.72
852.313	58.39
852.617	60.35
852.92	61.22
853.224	59.3
853.528	60.28
853.831	59.56
854.135	59.24
854.438	58.34
854.742	57.59
855.045	59.19
855.349	59.97
855.652	59.25
855.955	57.13
856.259	57.29
856.562	54.62
856.865	57.23
857.168	57.65
857.471	57.28
857.774	56.39
858.077	57.73
858.38	57.81
858.683	58.55
858.986	56.22
859.289	54.68
859.592	52.9
859.894	52.42
860.197	54.34
860.5	53.21
860.802	53.61
861.105	57.06
861.407	57.81
861.71	57.91
862.012	58.71
862.315	59.01
862.617	58.07
862.919	57.78
863.222	57.62
863.524	57.27
863.826	56.87
864.128	57.15
864.43	58.28
864.732	57.96
865.034	58.25
865.336	58.02
865.638	56.29
865.94	58.38
866.242	59.79
866.544	61.63
866.846	61.6
867.147	61.99
867.449	62.3
867.751	63.03
868.052	64.16
868.354	62.13
868.655	62.17
868.957	63.61
869.258	63.35
869.56	61.55
869.861	62.56
870.162	65.27
870.463	64.58
870.765	62.82
871.066	63.88
871.367	59.42
871.668	61.6
871.969	65.24
872.27	66.54
872.571	63.63
872.872	59.82
873.173	61.15
873.473	62.55
873.774	59.97
874.075	59.05
874.376	57.52
874.676	58.84
874.977	58.38
875.277	60.33
875.578	58.44
875.878	58.1
876.179	57.61
876.479	55.49
876.78	56.21
877.08	56.26
877.38	54.93
877.68	58.38
877.981	57.64
878.281	56.47
878.581	54.97
