Data from BU26942_Reflection_00007.txt Node
Date: Mon Nov 18 16:50:40 EST 2019
User: vgr7
Spectrometer: USB2G7710
Scans to average: 3
Trigger mode: 4
Integration Time (sec): 2.000000E-2
Electric dark correction enabled: true
Boxcar width: 10
XAxis mode: Wavelengths
Number of Pixels in Spectrum: 2048
>>>>>Begin Spectral Data<<<<<
177.721	-32.64
178.105	-35.28
178.488	-426.07
178.871	-47.89
179.254	188.76
179.636	-1515.38
180.019	-1378.87
180.402	108.7
180.785	15.58
181.168	-159.9
181.55	-86.3
181.933	349.44
182.316	663.08
182.698	386.06
183.081	518.87
183.463	7715.38
183.846	167.24
184.228	360.68
184.611	1039.62
184.993	1679.88
185.376	-551.71
185.758	-496.18
186.14	-382.96
186.522	327100
186.904	1784.49
187.287	1686.87
187.669	-2832.96
188.051	-1464.84
188.433	-1208.09
188.815	-3049.07
189.197	-831.78
189.579	-376.01
189.961	-346.44
190.342	-375.13
190.724	-332.92
191.106	-637.95
191.488	-1211.21
191.869	-444.21
192.251	-302.27
192.633	-302.58
193.014	-242.7
193.396	-294.38
193.777	-303.11
194.159	-421.4
194.54	-251.57
194.922	-161.4
195.303	-151.67
195.684	-184.78
196.065	-142.41
196.447	-144.46
196.828	-181.77
197.209	-218.21
197.59	-311.26
197.971	-225.46
198.352	-185.61
198.733	-137.23
199.114	-134.35
199.495	-121.9
199.876	-97.12
200.257	-114.37
200.638	-116.45
201.018	-114.73
201.399	-104.47
201.78	-89.53
202.16	-86.24
202.541	-115.3
202.922	-154.38
203.302	-148.41
203.683	-135.17
204.063	-211.97
204.444	-247.58
204.824	-212.46
205.204	-183.13
205.585	-250.03
205.965	-341.51
206.345	-299.87
206.725	-777.69
207.106	-392.91
207.486	-498.81
207.866	-368.28
208.246	-301.37
208.626	-332.12
209.006	-293.59
209.386	-219.55
209.766	-222.31
210.145	-225.49
210.525	-213.48
210.905	-192.98
211.285	-181.93
211.664	-143.78
212.044	-126.93
212.424	-99.05
212.803	-79.27
213.183	-58.19
213.562	-39.39
213.942	-26.88
214.321	-28.28
214.701	-36.99
215.08	-45.24
215.459	-39.37
215.838	-39.55
216.218	-48.04
216.597	-24.06
216.976	-31.89
217.355	-25.03
217.734	-27.14
218.113	-28.28
218.492	-25.66
218.871	-35.22
219.25	-30.43
219.629	-32.57
220.008	-36.88
220.387	-49.45
220.766	-57.38
221.144	-77.42
221.523	-108.89
221.902	-118.62
222.28	-109.3
222.659	-71.46
223.037	-74.24
223.416	-62.01
223.794	-56.44
224.173	-65.25
224.551	-61.33
224.929	-49
225.308	-45.73
225.686	-41.93
226.064	-32.12
226.442	-33.44
226.821	-30.22
227.199	-26
227.577	-21.67
227.955	-21.07
228.333	-18.35
228.711	-14.76
229.089	-5.82
229.467	-4.42
229.845	-4.55
230.222	-4.67
230.6	-5.33
230.978	-4.06
231.356	-3.86
231.733	-2.49
232.111	2.16
232.488	1.78
232.866	2.11
233.243	4.45
233.621	3.81
233.998	4.21
234.376	4.13
234.753	4.17
235.13	3.15
235.508	2.99
235.885	3.51
236.262	2.87
236.639	2.95
237.016	2.66
237.393	2.52
237.77	3.24
238.147	2.83
238.524	3.29
238.901	4.11
239.278	3.49
239.655	4.09
240.032	3.43
240.409	3.06
240.785	2.58
241.162	1.97
241.539	2.27
241.915	2.19
242.292	1.92
242.668	1.83
243.045	2.58
243.421	2.98
243.798	3.17
244.174	3.59
244.551	3.67
244.927	3.34
245.303	3.42
245.679	3.32
246.056	3.35
246.432	3.43
246.808	3.3
247.184	3.35
247.56	3.03
247.936	3.01
248.312	3.1
248.688	3.45
249.064	3.35
249.44	3.27
249.815	3.1
250.191	3.46
250.567	3.74
250.943	3.29
251.318	3.05
251.694	3.28
252.069	3.16
252.445	3.05
252.82	3.13
253.196	3.28
253.571	3.27
253.947	3.34
254.322	3.45
254.697	3.41
255.073	3.07
255.448	3.24
255.823	3.44
256.198	3.85
256.573	3.83
256.948	4.03
257.323	4.3
257.698	4.35
258.073	4.34
258.448	4.05
258.823	4.22
259.198	4.04
259.573	3.92
259.948	3.76
260.322	3.76
260.697	3.67
261.072	3.48
261.446	3.51
261.821	3.5
262.195	3.47
262.57	3.47
262.944	3.79
263.319	3.82
263.693	3.78
264.067	3.69
264.442	3.55
264.816	3.37
265.19	3.11
265.564	3.13
265.938	2.87
266.313	2.95
266.687	2.9
267.061	3
267.435	2.82
267.809	2.85
268.183	2.75
268.556	2.83
268.93	2.87
269.304	2.83
269.678	2.83
270.051	2.73
270.425	2.77
270.799	2.59
271.172	2.51
271.546	2.45
271.919	2.18
272.293	2.45
272.666	2.61
273.04	2.79
273.413	2.72
273.787	2.79
274.16	2.94
274.533	2.97
274.906	3
275.279	3.02
275.653	3
276.026	3.1
276.399	3.02
276.772	3.14
277.145	3.1
277.518	2.89
277.891	2.96
278.263	2.94
278.636	2.98
279.009	2.99
279.382	3.25
279.755	3.33
280.127	3.15
280.5	3.18
280.872	3.13
281.245	3.11
281.617	3.32
281.99	3.3
282.362	3.37
282.735	3.36
283.107	3.4
283.479	3.6
283.852	3.59
284.224	3.74
284.596	3.71
284.968	3.66
285.34	3.89
285.713	3.87
286.085	3.94
286.457	4.03
286.829	4.04
287.201	3.94
287.572	3.98
287.944	4.06
288.316	4.11
288.688	3.91
289.06	3.93
289.431	3.82
289.803	3.78
290.175	3.76
290.546	3.92
290.918	3.88
291.289	3.79
291.661	3.88
292.032	3.89
292.403	3.94
292.775	4.05
293.146	3.95
293.517	3.91
293.889	3.96
294.26	3.95
294.631	4.01
295.002	3.93
295.373	4
295.744	3.98
296.115	3.93
296.486	4.06
296.857	4.1
297.228	4.19
297.599	4.12
297.97	4.11
298.34	4.14
298.711	4.24
299.082	4.16
299.452	4.09
299.823	4.2
300.194	4.14
300.564	4.06
300.935	4.22
301.305	4.15
301.676	4.19
302.046	4.09
302.416	4.2
302.787	4.31
303.157	4.32
303.527	4.35
303.897	4.44
304.267	4.62
304.637	4.64
305.008	4.63
305.378	4.8
305.748	4.9
306.117	4.67
306.487	4.71
306.857	4.95
307.227	4.96
307.597	4.77
307.967	4.93
308.336	5.14
308.706	5.1
309.076	5.26
309.445	5.24
309.815	5.39
310.184	5.34
310.554	5.37
310.923	5.44
311.293	5.42
311.662	5.2
312.031	5.2
312.401	5.17
312.77	5.16
313.139	5.12
313.508	5.16
313.877	5.28
314.246	5.4
314.616	5.25
314.985	5.42
315.353	5.47
315.722	5.45
316.091	5.45
316.46	5.57
316.829	5.69
317.198	5.73
317.567	5.8
317.935	5.85
318.304	5.91
318.672	5.87
319.041	5.86
319.41	6.12
319.778	6.02
320.147	6.27
320.515	6.29
320.883	6.28
321.252	6.39
321.62	6.51
321.988	6.48
322.357	6.7
322.725	6.65
323.093	6.84
323.461	6.85
323.829	7.03
324.197	6.99
324.565	7.18
324.933	7.14
325.301	7.09
325.669	7.13
326.037	7.15
326.405	7.36
326.772	7.42
327.14	7.54
327.508	7.71
327.875	7.63
328.243	7.81
328.61	7.84
328.978	7.89
329.346	7.89
329.713	7.87
330.08	7.91
330.448	7.84
330.815	7.83
331.182	7.84
331.55	7.65
331.917	7.79
332.284	7.78
332.651	7.87
333.018	7.94
333.385	8.03
333.752	8.09
334.119	7.98
334.486	7.91
334.853	7.82
335.22	7.88
335.587	7.89
335.954	7.93
336.32	7.96
336.687	7.92
337.054	7.92
337.42	8.03
337.787	8.12
338.153	8.21
338.52	8.25
338.886	8.25
339.253	8.27
339.619	8.19
339.986	8.07
340.352	8.2
340.718	8.28
341.084	8.3
341.451	8.28
341.817	8.47
342.183	8.61
342.549	8.72
342.915	8.64
343.281	8.73
343.647	8.7
344.013	8.75
344.379	8.69
344.745	8.76
345.11	8.87
345.476	8.77
345.842	8.67
346.208	8.74
346.573	8.82
346.939	8.96
347.304	9.09
347.67	9.05
348.035	8.98
348.401	8.97
348.766	8.93
349.132	8.97
349.497	8.82
349.862	8.9
350.228	8.86
350.593	8.98
350.958	8.92
351.323	8.91
351.688	8.97
352.053	9.04
352.418	9.06
352.783	8.96
353.148	8.87
353.513	8.98
353.878	8.91
354.243	8.98
354.608	9.05
354.972	8.96
355.337	8.98
355.702	9.02
356.066	9.08
356.431	9.12
356.795	9.07
357.16	9.12
357.524	8.96
357.889	8.96
358.253	8.87
358.618	8.86
358.982	8.89
359.346	8.79
359.71	8.74
360.075	8.69
360.439	8.69
360.803	8.75
361.167	8.73
361.531	8.66
361.895	8.57
362.259	8.47
362.623	8.48
362.987	8.45
363.351	8.4
363.714	8.4
364.078	8.31
364.442	8.35
364.806	8.34
365.169	8.45
365.533	8.37
365.896	8.32
366.26	8.33
366.623	8.17
366.987	8.15
367.35	8.2
367.714	8.15
368.077	8.03
368.44	8.02
368.803	8.02
369.167	7.95
369.53	7.87
369.893	7.87
370.256	7.78
370.619	7.82
370.982	7.7
371.345	7.52
371.708	7.49
372.071	7.35
372.434	7.29
372.797	7.12
373.159	7.13
373.522	7.17
373.885	7.09
374.247	7.11
374.61	7.13
374.973	7.05
375.335	7.01
375.698	7.04
376.06	7
376.423	6.94
376.785	6.97
377.147	7.02
377.51	6.96
377.872	6.99
378.234	6.91
378.596	6.95
378.958	6.91
379.321	6.91
379.683	6.93
380.045	6.9
380.407	6.89
380.769	6.81
381.13	6.74
381.492	6.71
381.854	6.68
382.216	6.61
382.578	6.6
382.939	6.54
383.301	6.5
383.663	6.41
384.024	6.37
384.386	6.32
384.747	6.28
385.109	6.2
385.47	6.08
385.832	6.05
386.193	6.03
386.554	6.03
386.916	5.96
387.277	5.9
387.638	5.85
387.999	5.85
388.36	5.84
388.721	5.83
389.082	5.81
389.443	5.75
389.804	5.72
390.165	5.68
390.526	5.67
390.887	5.65
391.248	5.67
391.609	5.63
391.969	5.62
392.33	5.59
392.691	5.55
393.051	5.55
393.412	5.5
393.772	5.43
394.133	5.37
394.493	5.35
394.854	5.32
395.214	5.29
395.574	5.24
395.935	5.24
396.295	5.19
396.655	5.15
397.015	5.13
397.376	5.07
397.736	5.01
398.096	5.02
398.456	4.98
398.816	4.93
399.176	4.89
399.535	4.84
399.895	4.78
400.255	4.8
400.615	4.77
400.975	4.73
401.334	4.71
401.694	4.7
402.054	4.69
402.413	4.66
402.773	4.61
403.132	4.63
403.492	4.59
403.851	4.6
404.211	4.61
404.57	4.6
404.929	4.62
405.288	4.6
405.648	4.59
406.007	4.58
406.366	4.56
406.725	4.59
407.084	4.6
407.443	4.6
407.802	4.59
408.161	4.6
408.52	4.63
408.879	4.63
409.238	4.62
409.596	4.6
409.955	4.6
410.314	4.62
410.673	4.59
411.031	4.61
411.39	4.57
411.748	4.56
412.107	4.55
412.465	4.54
412.824	4.52
413.182	4.48
413.54	4.49
413.899	4.47
414.257	4.46
414.615	4.43
414.974	4.45
415.332	4.42
415.69	4.4
416.048	4.37
416.406	4.32
416.764	4.31
417.122	4.32
417.48	4.31
417.838	4.31
418.195	4.31
418.553	4.27
418.911	4.26
419.269	4.24
419.626	4.24
419.984	4.21
420.342	4.22
420.699	4.22
421.057	4.19
421.414	4.17
421.772	4.17
422.129	4.17
422.486	4.15
422.844	4.15
423.201	4.12
423.558	4.13
423.915	4.13
424.273	4.12
424.63	4.09
424.987	4.09
425.344	4.08
425.701	4.07
426.058	4.06
426.415	4.04
426.772	4.06
427.128	4.05
427.485	4.05
427.842	4.04
428.199	4.03
428.555	4.02
428.912	4.04
429.269	4.02
429.625	4.01
429.982	3.99
430.338	4
430.695	4.02
431.051	4
431.407	4
431.764	4.03
432.12	4.03
432.476	4.02
432.832	4
433.189	3.99
433.545	3.99
433.901	4.01
434.257	3.98
434.613	3.97
434.969	3.99
435.325	4.01
435.681	4
436.036	4.01
436.392	3.99
436.748	4
437.104	3.98
437.459	3.99
437.815	3.98
438.171	3.97
438.526	3.99
438.882	3.98
439.237	3.97
439.593	3.97
439.948	3.98
440.304	3.99
440.659	3.99
441.014	4
441.369	3.99
441.725	4
442.08	4.01
442.435	4.02
442.79	4.01
443.145	4.01
443.5	3.99
443.855	4
444.21	3.99
444.565	4
444.92	4.02
445.275	4.01
445.629	3.99
445.984	4
446.339	4
446.693	3.98
447.048	3.96
447.403	3.95
447.757	3.95
448.112	3.94
448.466	3.92
448.82	3.91
449.175	3.9
449.529	3.89
449.883	3.86
450.238	3.84
450.592	3.83
450.946	3.81
451.3	3.8
451.654	3.81
452.008	3.8
452.362	3.76
452.716	3.74
453.07	3.76
453.424	3.73
453.778	3.74
454.132	3.75
454.486	3.77
454.839	3.76
455.193	3.77
455.547	3.78
455.9	3.79
456.254	3.79
456.607	3.8
456.961	3.81
457.314	3.81
457.668	3.84
458.021	3.84
458.375	3.86
458.728	3.85
459.081	3.85
459.434	3.85
459.787	3.85
460.141	3.87
460.494	3.88
460.847	3.91
461.2	3.91
461.553	3.91
461.906	3.92
462.259	3.94
462.611	3.93
462.964	3.94
463.317	3.93
463.67	3.94
464.022	3.96
464.375	3.95
464.728	3.98
465.08	3.98
465.433	3.99
465.785	3.99
466.138	4.02
466.49	4.05
466.843	4.05
467.195	4.07
467.547	4.08
467.899	4.09
468.252	4.07
468.604	4.08
468.956	4.07
469.308	4.08
469.66	4.09
470.012	4.09
470.364	4.08
470.716	4.13
471.068	4.13
471.42	4.11
471.772	4.13
472.123	4.12
472.475	4.1
472.827	4.13
473.178	4.14
473.53	4.12
473.882	4.1
474.233	4.09
474.585	4.08
474.936	4.06
475.288	4.07
475.639	4.07
475.99	4.06
476.342	4.09
476.693	4.1
477.044	4.12
477.395	4.12
477.746	4.13
478.097	4.11
478.448	4.11
478.8	4.1
479.15	4.09
479.501	4.11
479.852	4.11
480.203	4.11
480.554	4.11
480.905	4.13
481.255	4.14
481.606	4.15
481.957	4.16
482.307	4.16
482.658	4.16
483.009	4.16
483.359	4.17
483.709	4.17
484.06	4.16
484.41	4.15
484.761	4.15
485.111	4.15
485.461	4.15
485.811	4.16
486.162	4.16
486.512	4.17
486.862	4.16
487.212	4.16
487.562	4.16
487.912	4.16
488.262	4.16
488.612	4.15
488.961	4.16
489.311	4.15
489.661	4.15
490.011	4.15
490.36	4.15
490.71	4.14
491.06	4.14
491.409	4.14
491.759	4.14
492.108	4.15
492.458	4.16
492.807	4.16
493.157	4.18
493.506	4.19
493.855	4.2
494.204	4.22
494.554	4.24
494.903	4.24
495.252	4.24
495.601	4.27
495.95	4.27
496.299	4.3
496.648	4.32
496.997	4.36
497.346	4.39
497.695	4.43
498.043	4.49
498.392	4.52
498.741	4.58
499.09	4.63
499.438	4.66
499.787	4.7
500.135	4.74
500.484	4.76
500.832	4.82
501.181	4.88
501.529	4.92
501.878	4.99
502.226	5.07
502.574	5.15
502.923	5.22
503.271	5.28
503.619	5.35
503.967	5.44
504.315	5.52
504.663	5.61
505.011	5.71
505.359	5.79
505.707	5.89
506.055	5.98
506.403	6.06
506.751	6.16
507.098	6.25
507.446	6.37
507.794	6.49
508.141	6.58
508.489	6.67
508.837	6.8
509.184	6.92
509.531	7.03
509.879	7.16
510.226	7.27
510.574	7.4
510.921	7.51
511.268	7.64
511.616	7.77
511.963	7.89
512.31	8.01
512.657	8.14
513.004	8.28
513.351	8.45
513.698	8.58
514.045	8.76
514.392	8.95
514.739	9.1
515.086	9.26
515.432	9.41
515.779	9.58
516.126	9.75
516.473	9.9
516.819	10.06
517.166	10.2
517.512	10.33
517.859	10.49
518.205	10.63
518.552	10.75
518.898	10.87
519.245	10.99
519.591	11.1
519.937	11.22
520.283	11.36
520.629	11.48
520.976	11.66
521.322	11.81
521.668	11.95
522.014	12.11
522.36	12.29
522.706	12.46
523.052	12.64
523.398	12.82
523.743	13
524.089	13.18
524.435	13.37
524.781	13.57
525.126	13.74
525.472	13.9
525.817	14.06
526.163	14.2
526.509	14.35
526.854	14.49
527.199	14.63
527.545	14.76
527.89	14.89
528.235	15.01
528.581	15.14
528.926	15.26
529.271	15.4
529.616	15.54
529.961	15.68
530.306	15.84
530.651	16
530.996	16.17
531.341	16.33
531.686	16.5
532.031	16.67
532.376	16.86
532.721	17.06
533.065	17.24
533.41	17.47
533.755	17.7
534.099	17.92
534.444	18.14
534.788	18.34
535.133	18.56
535.477	18.78
535.822	19.02
536.166	19.28
536.51	19.54
536.855	19.82
537.199	20.11
537.543	20.4
537.887	20.69
538.231	20.99
538.576	21.29
538.92	21.59
539.264	21.88
539.608	22.14
539.951	22.4
540.295	22.67
540.639	22.93
540.983	23.13
541.327	23.35
541.671	23.57
542.014	23.82
542.358	24.06
542.701	24.31
543.045	24.51
543.389	24.76
543.732	25.01
544.075	25.24
544.419	25.48
544.762	25.72
545.105	26
545.449	26.27
545.792	26.58
546.135	26.86
546.478	27.2
546.821	27.54
547.165	27.83
547.508	28.17
547.851	28.46
548.194	28.83
548.536	29.17
548.879	29.5
549.222	29.82
549.565	30.13
549.908	30.45
550.25	30.8
550.593	31.11
550.936	31.42
551.278	31.73
551.621	32.05
551.963	32.39
552.306	32.66
552.648	32.99
552.991	33.28
553.333	33.6
553.675	33.91
554.017	34.19
554.36	34.48
554.702	34.77
555.044	35.04
555.386	35.29
555.728	35.56
556.07	35.86
556.412	36.12
556.754	36.43
557.096	36.74
557.438	37.05
557.78	37.32
558.121	37.61
558.463	37.87
558.805	38.17
559.147	38.39
559.488	38.67
559.83	38.93
560.171	39.14
560.513	39.39
560.854	39.58
561.196	39.84
561.537	40.04
561.878	40.23
562.22	40.46
562.561	40.71
562.902	40.88
563.243	41.08
563.584	41.29
563.925	41.44
564.266	41.52
564.607	41.72
564.948	41.89
565.289	42.04
565.63	42.25
565.971	42.4
566.312	42.64
566.653	42.8
566.993	42.96
567.334	43.14
567.675	43.25
568.015	43.4
568.356	43.5
568.696	43.68
569.037	43.81
569.377	43.95
569.718	44.08
570.058	44.24
570.398	44.38
570.739	44.52
571.079	44.71
571.419	44.91
571.759	45.02
572.099	45.16
572.439	45.32
572.779	45.4
573.119	45.51
573.459	45.61
573.799	45.73
574.139	45.82
574.479	45.9
574.819	46.04
575.158	46.13
575.498	46.31
575.838	46.46
576.177	46.55
576.517	46.63
576.856	46.77
577.196	46.93
577.535	47.09
577.875	47.21
578.214	47.33
578.553	47.41
578.893	47.57
579.232	47.62
579.571	47.76
579.91	47.98
580.25	48.1
580.589	48.24
580.928	48.27
581.267	48.41
581.606	48.55
581.945	48.63
582.283	48.79
582.622	48.86
582.961	48.95
583.3	49.12
583.639	49.27
583.977	49.33
584.316	49.39
584.654	49.46
584.993	49.55
585.332	49.6
585.67	49.75
586.008	49.81
586.347	49.99
586.685	50.09
587.024	50.17
587.362	50.25
587.7	50.32
588.038	50.49
588.376	50.55
588.715	50.59
589.053	50.71
589.391	50.8
589.729	50.83
590.067	50.88
590.404	50.9
590.742	50.96
591.08	51.02
591.418	51.13
591.756	51.19
592.093	51.26
592.431	51.29
592.769	51.31
593.106	51.35
593.444	51.35
593.781	51.41
594.119	51.39
594.456	51.4
594.793	51.45
595.131	51.51
595.468	51.52
595.805	51.58
596.143	51.62
596.48	51.64
596.817	51.79
597.154	51.89
597.491	51.98
597.828	52.05
598.165	52.13
598.502	52.05
598.839	52.12
599.176	52.11
599.512	52.18
599.849	52.28
600.186	52.34
600.523	52.38
600.859	52.4
601.196	52.46
601.532	52.51
601.869	52.52
602.205	52.51
602.542	52.56
602.878	52.51
603.215	52.53
603.551	52.58
603.887	52.56
604.223	52.6
604.56	52.7
604.896	52.75
605.232	52.75
605.568	52.84
605.904	52.86
606.24	52.94
606.576	52.97
606.912	52.94
607.248	52.94
607.583	53.07
607.919	53.1
608.255	53.13
608.591	53.22
608.926	53.29
609.262	53.38
609.597	53.47
609.933	53.65
610.268	53.72
610.604	53.77
610.939	53.79
611.275	53.77
611.61	53.8
611.945	53.82
612.281	53.9
612.616	53.94
612.951	53.98
613.286	54
613.621	54.04
613.956	54.08
614.291	54.15
614.626	54.08
614.961	54.15
615.296	54.14
615.631	54.19
615.966	54.18
616.3	54.16
616.635	54.27
616.97	54.36
617.304	54.35
617.639	54.39
617.973	54.38
618.308	54.48
618.642	54.37
618.977	54.4
619.311	54.44
619.646	54.51
619.98	54.58
620.314	54.64
620.648	54.7
620.983	54.9
621.317	54.97
621.651	55.02
621.985	55.02
622.319	55.14
622.653	55.2
622.987	55.3
623.321	55.41
623.655	55.39
623.988	55.37
624.322	55.46
624.656	55.48
624.99	55.53
625.323	55.62
625.657	55.73
625.99	55.72
626.324	55.79
626.657	55.82
626.991	55.81
627.324	55.81
627.658	55.79
627.991	55.63
628.324	55.73
628.657	55.78
628.991	55.79
629.324	55.82
629.657	55.71
629.99	55.7
630.323	55.7
630.656	55.74
630.989	55.82
631.322	55.79
631.655	55.74
631.987	55.77
632.32	55.66
632.653	55.56
632.986	55.56
633.318	55.58
633.651	55.53
633.984	55.5
634.316	55.54
634.649	55.56
634.981	55.65
635.313	55.57
635.646	55.6
635.978	55.72
636.31	55.72
636.643	55.72
636.975	55.69
637.307	55.73
637.639	55.69
637.971	55.6
638.303	55.65
638.635	55.66
638.967	55.62
639.299	55.72
639.631	55.79
639.963	55.8
640.295	55.76
640.626	55.83
640.958	55.86
641.29	55.83
641.621	55.93
641.953	55.92
642.285	55.98
642.616	55.91
642.948	55.79
643.279	55.82
643.61	55.97
643.942	56.06
644.273	56.1
644.604	56.21
644.936	56.2
645.267	56.15
645.598	56.25
645.929	56.36
646.26	56.44
646.591	56.58
646.922	56.64
647.253	56.6
647.584	56.57
647.915	56.69
648.245	56.75
648.576	56.64
648.907	56.77
649.238	56.71
649.568	56.82
649.899	56.89
650.229	56.88
650.56	56.89
650.89	56.82
651.221	56.73
651.551	56.64
651.882	56.7
652.212	56.74
652.542	56.87
652.872	56.86
653.203	56.82
653.533	56.81
653.863	56.83
654.193	56.88
654.523	56.93
654.853	57.03
655.183	57.07
655.513	57.06
655.843	57.06
656.172	57.19
656.502	57.11
656.832	57.04
657.162	57.16
657.491	57.14
657.821	57.1
658.15	57.19
658.48	57.22
658.809	57.25
659.139	57.26
659.468	57.11
659.798	57.14
660.127	57.13
660.456	57.05
660.785	57.1
661.115	57.17
661.444	57.22
661.773	57.16
662.102	57.1
662.431	57.24
662.76	57.26
663.089	57.17
663.418	57.15
663.747	57.16
664.076	57.12
664.404	57.14
664.733	57.35
665.062	57.35
665.39	57.38
665.719	57.44
666.048	57.54
666.376	57.47
666.705	57.46
667.033	57.54
667.362	57.68
667.69	57.71
668.018	57.76
668.347	57.75
668.675	57.79
669.003	57.79
669.331	57.77
669.659	57.77
669.987	57.79
670.315	57.93
670.643	58.04
670.971	58.11
671.299	58.09
671.627	58.16
671.955	58.06
672.283	58.09
672.61	58.09
672.938	58.07
673.266	58.21
673.593	58.32
673.921	58.13
674.249	58.02
674.576	57.97
674.904	57.95
675.231	57.98
675.558	57.94
675.886	58.03
676.213	58.02
676.54	58.08
676.867	58.12
677.195	58.1
677.522	58.21
677.849	58.25
678.176	58.31
678.503	58.2
678.83	58.24
679.157	58.28
679.484	58.17
679.81	58.15
680.137	58.26
680.464	58.08
680.791	58.19
681.117	58.14
681.444	58.02
681.771	58.05
682.097	57.95
682.424	57.92
682.75	57.95
683.077	57.98
683.403	57.94
683.729	58.07
684.056	58.1
684.382	57.96
684.708	57.79
685.034	57.74
685.36	57.78
685.686	57.79
686.012	57.75
686.339	57.74
686.664	57.67
686.99	57.69
687.316	57.99
687.642	58.04
687.968	58.21
688.294	58.22
688.619	58.22
688.945	58.22
689.271	58.07
689.596	58.06
689.922	57.99
690.247	58.01
690.573	57.86
690.898	57.88
691.224	58
691.549	58.09
691.874	58.06
692.2	58.16
692.525	58.29
692.85	58.23
693.175	58.35
693.5	58.57
693.825	58.34
694.15	58.29
694.475	58.38
694.8	58.31
695.125	58.43
695.45	58.37
695.775	58.48
696.099	58.6
696.424	58.63
696.749	58.55
697.073	58.57
697.398	58.54
697.723	58.53
698.047	58.49
698.372	58.49
698.696	58.52
699.02	58.45
699.345	58.4
699.669	58.43
699.993	58.3
700.318	58.2
700.642	58.3
700.966	58.33
701.29	58.36
701.614	58.42
701.938	58.3
702.262	58.3
702.586	58.32
702.91	58.5
703.234	58.52
703.557	58.79
703.881	58.73
704.205	58.76
704.529	58.77
704.852	58.61
705.176	58.6
705.499	58.81
705.823	58.88
706.146	58.83
706.47	58.87
706.793	58.97
707.117	59.02
707.44	59.13
707.763	58.92
708.086	58.76
708.409	58.63
708.733	58.77
709.056	58.87
709.379	58.97
709.702	58.65
710.025	58.46
710.348	58.27
710.671	58.39
710.993	58.34
711.316	58.37
711.639	58.58
711.962	58.77
712.284	58.63
712.607	58.29
712.93	58.43
713.252	58.35
713.575	58.6
713.897	58.55
714.22	58.44
714.542	58.64
714.864	58.75
715.187	58.69
715.509	58.62
715.831	58.45
716.153	58.42
716.475	58.47
716.798	58.58
717.12	58.72
717.442	58.79
717.764	59
718.085	58.89
718.407	58.73
718.729	58.49
719.051	58.61
719.373	58.72
719.695	58.63
720.016	58.69
720.338	58.44
720.659	58.49
720.981	58.39
721.302	58.24
721.624	58.22
721.945	58.54
722.267	58.49
722.588	58.7
722.909	58.3
723.231	58.22
723.552	58.32
723.873	57.98
724.194	57.9
724.515	57.74
724.836	57.69
725.157	57.74
725.478	57.71
725.799	57.75
726.12	57.91
726.441	57.78
726.762	57.88
727.083	57.85
727.403	57.7
727.724	57.77
728.045	57.83
728.365	57.83
728.686	57.71
729.006	57.82
729.327	57.88
729.647	58.13
729.967	58.2
730.288	58.11
730.608	58.2
730.928	58.06
731.249	58.36
731.569	58.36
731.889	58.39
732.209	58.68
732.529	58.58
732.849	58.54
733.169	58.71
733.489	58.79
733.809	58.74
734.129	58.79
734.448	58.68
734.768	58.37
735.088	58.2
735.408	58.12
735.727	58.5
736.047	58.57
736.366	58.56
736.686	58.63
737.005	59.05
737.325	59.19
737.644	59.15
737.963	58.96
738.283	59.46
738.602	59.45
738.921	59.17
739.24	59.42
739.56	59.62
739.879	59.6
740.198	59.42
740.517	59.91
740.836	60.04
741.155	60.22
741.473	60.58
741.792	60.7
742.111	60.83
742.43	60.48
742.748	60.34
743.067	60.37
743.386	60.19
743.704	59.77
744.023	60.04
744.341	60.19
744.66	60.15
744.978	59.66
745.297	59.48
745.615	59.49
745.933	59.28
746.252	59.21
746.57	59.04
746.888	59.2
747.206	59.1
747.524	58.97
747.842	59.21
748.16	59.11
748.478	59.15
748.796	59.21
749.114	59.34
749.432	59.23
749.749	59.2
750.067	59.48
750.385	59.47
750.703	59.1
751.02	59.32
751.338	59.64
751.655	59.85
751.973	60.05
752.29	60.17
752.608	60.31
752.925	60.35
753.242	60.32
753.56	59.82
753.877	59.41
754.194	59.65
754.511	59.5
754.828	59.29
755.145	59.35
755.462	59.19
755.779	59.12
756.096	59.29
756.413	59.42
756.73	59.22
757.047	59.41
757.364	59.66
757.68	59.48
757.997	59.03
758.314	59.09
758.63	59.12
758.947	58.97
759.264	59.02
759.58	59.07
759.896	59.59
760.213	59.9
760.529	60.11
760.846	60.06
761.162	59.94
761.478	60.25
761.794	60.07
762.11	60.07
762.426	60.03
762.743	60.1
763.059	59.89
763.375	60
763.69	59.75
764.006	59.64
764.322	59.63
764.638	59.81
764.954	59.74
765.27	59.66
765.585	59.75
765.901	59.81
766.216	59.72
766.532	59.42
766.848	59.45
767.163	59.38
767.478	59.27
767.794	59.26
768.109	59.09
768.424	59
768.74	59.08
769.055	59.3
769.37	59.36
769.685	59.63
770	59.83
770.315	59.85
770.63	59.91
770.945	59.82
771.26	59.73
771.575	59.74
771.89	60.07
772.205	60.27
772.52	60.05
772.834	60.15
773.149	60.19
773.464	60.09
773.778	60.18
774.093	60.01
774.407	60.11
774.722	60.24
775.036	60.47
775.351	60.59
775.665	60.13
775.979	59.77
776.293	59.4
776.608	59.48
776.922	59.35
777.236	59.63
777.55	59.96
777.864	59.84
778.178	60.13
778.492	60.04
778.806	59.48
779.12	59.07
779.434	59.01
779.747	59.43
780.061	59.19
780.375	58.58
780.689	58.65
781.002	58.64
781.316	58.86
781.629	59.01
781.943	58.64
782.256	58.82
782.57	59.07
782.883	59.21
783.196	59.01
783.51	59.65
783.823	59.28
784.136	59.53
784.449	59.75
784.762	59.3
785.075	59.28
785.388	59.29
785.701	59.99
786.014	60.2
786.327	59.67
786.64	60.18
786.953	61.18
787.266	61.45
787.578	61.77
787.891	61.32
788.204	61.59
788.516	61.98
788.829	62.01
789.141	62
789.454	62.29
789.766	62.13
790.079	62.2
790.391	62.08
790.703	61.57
791.016	61.16
791.328	61.57
791.64	61.54
791.952	61.8
792.264	61.2
792.576	61.18
792.888	61.47
793.2	62.26
793.512	61.67
793.824	61.19
794.136	61.08
794.448	61.52
794.76	61.48
795.071	61.04
795.383	60.55
795.695	60.23
796.006	60.33
796.318	60.5
796.629	60.37
796.941	60.77
797.252	61.05
797.564	61.53
797.875	61.53
798.186	61.51
798.497	61.69
798.809	61.8
799.12	61.77
799.431	61.69
799.742	61.15
800.053	61.3
800.364	61.35
800.675	60.96
800.986	60.8
801.297	60.16
801.608	60.12
801.918	60.29
802.229	59.99
802.54	59.26
802.851	59.67
803.161	59.62
803.472	59.61
803.782	59.8
804.093	59.73
804.403	59.04
804.714	59.11
805.024	59.09
805.334	58.89
805.645	58.35
805.955	58.88
806.265	58.15
806.575	58.49
806.885	59.25
807.195	59.5
807.505	59.46
807.815	59.85
808.125	60.36
808.435	60.75
808.745	61.47
809.055	62.2
809.365	62.17
809.674	60.9
809.984	60.64
810.294	60.58
810.603	60.83
810.913	61.15
811.222	60.95
811.532	60.8
811.841	60.91
812.151	61.45
812.46	60.16
812.769	60.18
813.079	60.45
813.388	59.95
813.697	60.37
814.006	59.8
814.315	59.83
814.624	59.77
814.933	60.12
815.242	59.85
815.551	59.9
815.86	59.62
816.169	60.77
816.478	60.58
816.786	60.32
817.095	59.39
817.404	59.88
817.712	60.3
818.021	60.48
818.33	60.89
818.638	60.94
818.947	61.31
819.255	62.12
819.563	61.49
819.872	61.64
820.18	61.56
820.488	61.51
820.796	61.69
821.105	61.91
821.413	61.92
821.721	61.61
822.029	61.72
822.337	62.04
822.645	62.13
822.953	62.13
823.26	62.15
823.568	62.31
823.876	62.38
824.184	62.24
824.491	62.44
824.799	62.47
825.107	62.58
825.414	62.7
825.722	62.65
826.029	62.69
826.337	62.75
826.644	62.58
826.951	62.74
827.259	62.58
827.566	62.45
827.873	62.2
828.18	62.67
828.488	62.67
828.795	62.12
829.102	62.37
829.409	62.8
829.716	62.7
830.023	62.84
830.329	62.54
830.636	62.82
830.943	62.57
831.25	62.55
831.557	62.46
831.863	62.03
832.17	61.83
832.476	61.77
832.783	62.28
833.089	61.86
833.396	61.91
833.702	62.4
834.009	62.5
834.315	62.02
834.621	61.82
834.928	62.16
835.234	62.36
835.54	61.96
835.846	61.21
836.152	61.72
836.458	61.61
836.764	61.37
837.07	61.73
837.376	61.26
837.682	61.77
837.988	61.36
838.293	61.95
838.599	61.58
838.905	61.46
839.211	60.48
839.516	61.48
839.822	61.69
840.127	61.35
840.433	61.25
840.738	63.04
841.044	63.59
841.349	62.34
841.654	62.55
841.959	62.47
842.265	62.62
842.57	61.17
842.875	61.12
843.18	61.66
843.485	59.99
843.79	59.98
844.095	59.26
844.4	59.26
844.705	58.94
845.01	59.91
845.315	60.15
845.619	59.96
845.924	60.6
846.229	59.77
846.533	60.12
846.838	59.22
847.142	59.03
847.447	58.09
847.751	57.13
848.056	55.37
848.36	54.08
848.664	54.72
848.969	53.64
849.273	52.93
849.577	52.49
849.881	52.82
850.185	55.08
850.489	53.49
850.794	53.49
851.097	52.69
851.401	50.4
851.705	50.89
852.009	51.94
852.313	52.17
852.617	52.87
852.92	53.38
853.224	53.61
853.528	55.16
853.831	54.12
854.135	54.96
854.438	54.92
854.742	52.91
855.045	53.05
855.349	54.5
855.652	53.68
855.955	55.78
856.259	55.43
856.562	53.96
856.865	55.37
857.168	54.91
857.471	52.77
857.774	52.09
858.077	53.55
858.38	52.91
858.683	51.3
858.986	50.69
859.289	51.15
859.592	50.8
859.894	48.7
860.197	48.83
860.5	50.73
860.802	49.69
861.105	51.98
861.407	51.43
861.71	51.44
862.012	53.39
862.315	51.47
862.617	51.13
862.919	49.76
863.222	47.64
863.524	48.67
863.826	51.51
864.128	55.3
864.43	53.27
864.732	51.44
865.034	53.41
865.336	52.8
865.638	51.25
865.94	52.57
866.242	52.71
866.544	52.11
866.846	50.93
867.147	56.38
867.449	55.67
867.751	54.92
868.052	54.92
868.354	53.76
868.655	53.85
868.957	54.33
869.258	54.68
869.56	56.9
869.861	57.69
870.162	59.62
870.463	57.69
870.765	58.69
871.066	59.19
871.367	56.53
871.668	55.08
871.969	53.83
872.27	52.57
872.571	50.23
872.872	50.35
873.173	48.82
873.473	47.3
873.774	50.66
874.075	50.62
874.376	52.21
874.676	53.26
874.977	50.73
875.277	52.24
875.578	55.16
875.878	54.25
876.179	52.65
876.479	49.9
876.78	49.1
877.08	48.55
877.38	49.07
877.68	49.95
877.981	53.55
878.281	54.47
878.581	55.35
