Data from BU26940_Reflection_00013.txt Node
Date: Tue Nov 19 11:00:33 EST 2019
User: vgr7
Spectrometer: USB2G7710
Scans to average: 3
Trigger mode: 4
Integration Time (sec): 2.000000E-2
Electric dark correction enabled: true
Boxcar width: 10
XAxis mode: Wavelengths
Number of Pixels in Spectrum: 2048
>>>>>Begin Spectral Data<<<<<
177.721	-55.51
178.105	2600
178.488	-77.71
178.871	0
179.254	112.5
179.636	29.35
180.019	-123.21
180.402	250
180.785	71.05
181.168	53.39
181.55	19.87
181.933	119.66
182.316	230.95
182.698	102.16
183.081	66.55
183.463	95.4
183.846	151.53
184.228	140.58
184.611	183.33
184.993	155
185.376	181.44
185.758	195.53
186.14	135.71
186.522	212.39
186.904	303.33
187.287	196.15
187.669	257.69
188.051	457.84
188.433	917.31
188.815	-1290.63
189.197	-1688.46
189.579	-396.32
189.961	-783.93
190.342	-187.16
190.724	-232.39
191.106	-187.19
191.488	-120.41
191.869	-64.96
192.251	-73.18
192.633	-31.64
193.014	-15.69
193.396	-33.41
193.777	-15.31
194.159	-23.12
194.54	-30.95
194.922	-32.9
195.303	-38.68
195.684	-71.25
196.065	-72.52
196.447	-71.11
196.828	-72.59
197.209	-62.19
197.59	-29.4
197.971	-31.29
198.352	-53.65
198.733	-40.04
199.114	-52.62
199.495	-59.87
199.876	-82.69
200.257	-84.63
200.638	-118.93
201.018	-87.5
201.399	-71.81
201.78	-42.73
202.16	-49.14
202.541	-39.27
202.922	-39.06
203.302	-47.88
203.683	-38
204.063	-34.87
204.444	-49.55
204.824	-61.36
205.204	-56.98
205.585	-66.9
205.965	-74.76
206.345	-58.96
206.725	-47.86
207.106	-26.15
207.486	-32.39
207.866	-21.94
208.246	-9.18
208.626	-19.77
209.006	-22.8
209.386	-27.33
209.766	-45.11
210.145	-39.06
210.525	-44.02
210.905	-46.25
211.285	-39.35
211.664	-29.17
212.044	-26.07
212.424	-22.55
212.803	-16.17
213.183	-14.53
213.562	-1.74
213.942	-2.18
214.321	-5.66
214.701	-13.05
215.08	-28.05
215.459	-14.83
215.838	-26.32
216.218	-24.28
216.597	-11.33
216.976	-24.01
217.355	-28.43
217.734	-33.45
218.113	-16.96
218.492	-11.87
218.871	-6.32
219.25	-10.66
219.629	-9.65
220.008	-3.43
220.387	8.43
220.766	10.16
221.144	5.26
221.523	-7.85
221.902	-9.77
222.28	-6.7
222.659	-4.97
223.037	-9.69
223.416	-10.16
223.794	-6
224.173	-12.78
224.551	-14.58
224.929	-10.68
225.308	-2.85
225.686	3.29
226.064	-6.5
226.442	-8.24
226.821	-5.98
227.199	-6.11
227.577	-8.76
227.955	-6.13
228.333	-8.86
228.711	-11.01
229.089	-9.44
229.467	-7.5
229.845	-8.34
230.222	-8.5
230.6	-11.49
230.978	-6.66
231.356	-7.52
231.733	-7.35
232.111	-6.51
232.488	-6.29
232.866	-4.96
233.243	-5.75
233.621	-4.84
233.998	-3
234.376	-1.85
234.753	-2.85
235.13	-1.18
235.508	-1.11
235.885	-1.66
236.262	-1.8
236.639	-2.04
237.016	-2.75
237.393	-1.39
237.77	0.67
238.147	0.91
238.524	1.74
238.901	-0.12
239.278	-0.01
239.655	0.22
240.032	0.63
240.409	1.11
240.785	0.58
241.162	0.76
241.539	0.25
241.915	0.35
242.292	0.16
242.668	0.85
243.045	1.3
243.421	2.02
243.798	2.28
244.174	3.05
244.551	3.3
244.927	3.37
245.303	2.91
245.679	2.9
246.056	2.76
246.432	2.89
246.808	3.32
247.184	3.42
247.56	3.36
247.936	3.31
248.312	3.34
248.688	3.47
249.064	3.52
249.44	3.66
249.815	3.97
250.191	4.23
250.567	4.31
250.943	4.08
251.318	3.67
251.694	3.59
252.069	3.2
252.445	3.31
252.82	3.77
253.196	3.95
253.571	4.02
253.947	4.33
254.322	4.2
254.697	4.17
255.073	4.13
255.448	4.26
255.823	4.12
256.198	3.84
256.573	3.82
256.948	3.8
257.323	3.95
257.698	3.78
258.073	3.65
258.448	3.68
258.823	3.53
259.198	3.82
259.573	3.66
259.948	3.7
260.322	3.54
260.697	3.34
261.072	3.41
261.446	3.35
261.821	3.43
262.195	3.3
262.57	3.4
262.944	3.45
263.319	3.4
263.693	3.52
264.067	3.54
264.442	3.51
264.816	3.36
265.19	3.34
265.564	3.24
265.938	3.3
266.313	3.04
266.687	3.14
267.061	2.94
267.435	3.13
267.809	3.01
268.183	3.28
268.556	3.17
268.93	3.24
269.304	3.22
269.678	3.12
270.051	3.4
270.425	3.39
270.799	3.22
271.172	3.25
271.546	3.29
271.919	3.45
272.293	3.44
272.666	3.51
273.04	3.26
273.413	3.23
273.787	3.12
274.16	3.09
274.533	3.19
274.906	3.29
275.279	3.25
275.653	3.34
276.026	3.29
276.399	3.42
276.772	3.34
277.145	3.42
277.518	3.42
277.891	3.34
278.263	3.25
278.636	3.45
279.009	3.55
279.382	3.49
279.755	3.43
280.127	3.37
280.5	3.46
280.872	3.68
281.245	3.71
281.617	3.72
281.99	3.83
282.362	3.81
282.735	3.59
283.107	3.54
283.479	3.59
283.852	3.58
284.224	3.56
284.596	3.59
284.968	3.57
285.34	3.57
285.713	3.69
286.085	3.74
286.457	3.75
286.829	3.67
287.201	3.62
287.572	3.61
287.944	3.71
288.316	3.65
288.688	3.76
289.06	3.73
289.431	3.83
289.803	3.9
290.175	3.96
290.546	4.11
290.918	4.14
291.289	4.19
291.661	4.23
292.032	4.25
292.403	4.32
292.775	4.48
293.146	4.54
293.517	4.64
293.889	4.61
294.26	4.66
294.631	4.87
295.002	4.92
295.373	4.93
295.744	4.98
296.115	5.06
296.486	5.02
296.857	5.39
297.228	5.38
297.599	5.36
297.97	5.34
298.34	5.4
298.711	5.47
299.082	5.46
299.452	5.45
299.823	5.5
300.194	5.7
300.564	5.63
300.935	5.74
301.305	5.75
301.676	5.82
302.046	5.86
302.416	5.91
302.787	6.07
303.157	6.27
303.527	6.45
303.897	6.57
304.267	6.71
304.637	6.45
305.008	6.61
305.378	6.77
305.748	6.99
306.117	7.11
306.487	7.19
306.857	7.42
307.227	7.7
307.597	7.86
307.967	7.84
308.336	8
308.706	8
309.076	8.11
309.445	8.38
309.815	8.48
310.184	8.45
310.554	8.53
310.923	8.62
311.293	8.62
311.662	8.74
312.031	8.79
312.401	8.98
312.77	9.05
313.139	9.09
313.508	9.19
313.877	9.35
314.246	9.56
314.616	9.56
314.985	9.5
315.353	9.62
315.722	9.65
316.091	9.72
316.46	9.94
316.829	9.9
317.198	9.77
317.567	9.92
317.935	10.11
318.304	10.3
318.672	10.32
319.041	10.53
319.41	10.44
319.778	10.37
320.147	10.51
320.515	10.58
320.883	10.76
321.252	10.77
321.62	10.63
321.988	10.59
322.357	10.71
322.725	10.93
323.093	10.89
323.461	11.03
323.829	11.24
324.197	11.19
324.565	11.28
324.933	11.37
325.301	11.29
325.669	11.32
326.037	11.17
326.405	11.23
326.772	11.15
327.14	11.3
327.508	11.4
327.875	11.28
328.243	11.45
328.61	11.52
328.978	11.49
329.346	11.67
329.713	11.69
330.08	11.71
330.448	11.61
330.815	11.68
331.182	11.67
331.55	11.49
331.917	11.61
332.284	11.81
332.651	11.77
333.018	11.77
333.385	11.61
333.752	11.71
334.119	11.74
334.486	11.72
334.853	11.55
335.22	11.71
335.587	11.75
335.954	11.6
336.32	11.56
336.687	11.85
337.054	11.81
337.42	11.84
337.787	11.84
338.153	12.03
338.52	12.23
338.886	12.14
339.253	12.21
339.619	12.25
339.986	12.04
340.352	12.23
340.718	12.37
341.084	12.56
341.451	12.68
341.817	12.67
342.183	12.83
342.549	13.08
342.915	13.02
343.281	13.08
343.647	13.15
344.013	13.29
344.379	13.04
344.745	13.07
345.11	13.11
345.476	13.05
345.842	12.94
346.208	12.93
346.573	12.97
346.939	12.94
347.304	12.94
347.67	13.01
348.035	12.94
348.401	12.96
348.766	12.89
349.132	12.85
349.497	12.97
349.862	12.96
350.228	12.95
350.593	12.99
350.958	13.05
351.323	13
351.688	12.99
352.053	13.07
352.418	13.06
352.783	13.12
353.148	13.26
353.513	13.23
353.878	13.21
354.243	13.13
354.608	13.24
354.972	13.25
355.337	13.21
355.702	13.14
356.066	13.08
356.431	13.11
356.795	13.17
357.16	13.09
357.524	13.04
357.889	12.92
358.253	12.86
358.618	12.81
358.982	12.81
359.346	12.66
359.71	12.63
360.075	12.59
360.439	12.54
360.803	12.46
361.167	12.43
361.531	12.36
361.895	12.49
362.259	12.39
362.623	12.37
362.987	12.34
363.351	12.26
363.714	12.22
364.078	12.19
364.442	12.05
364.806	12.03
365.169	12.04
365.533	12.07
365.896	12.04
366.26	11.91
366.623	11.88
366.987	11.82
367.35	11.71
367.714	11.66
368.077	11.48
368.44	11.48
368.803	11.34
369.167	11.25
369.53	11.1
369.893	11
370.256	10.87
370.619	10.81
370.982	10.75
371.345	10.69
371.708	10.53
372.071	10.46
372.434	10.33
372.797	10.2
373.159	10.06
373.522	9.9
373.885	9.83
374.247	9.7
374.61	9.59
374.973	9.52
375.335	9.46
375.698	9.42
376.06	9.26
376.423	9.23
376.785	9.19
377.147	9.04
377.51	9.01
377.872	8.94
378.234	8.9
378.596	8.81
378.958	8.72
379.321	8.65
379.683	8.61
380.045	8.53
380.407	8.47
380.769	8.47
381.13	8.41
381.492	8.33
381.854	8.29
382.216	8.25
382.578	8.19
382.939	8.09
383.301	8.03
383.663	7.95
384.024	7.87
384.386	7.8
384.747	7.76
385.109	7.68
385.47	7.62
385.832	7.53
386.193	7.5
386.554	7.38
386.916	7.37
387.277	7.28
387.638	7.21
387.999	7.13
388.36	7.01
388.721	7.02
389.082	6.97
389.443	6.92
389.804	6.87
390.165	6.82
390.526	6.8
390.887	6.75
391.248	6.71
391.609	6.68
391.969	6.61
392.33	6.58
392.691	6.51
393.051	6.45
393.412	6.38
393.772	6.37
394.133	6.35
394.493	6.26
394.854	6.22
395.214	6.17
395.574	6.11
395.935	6.02
396.295	5.89
396.655	5.86
397.015	5.79
397.376	5.73
397.736	5.66
398.096	5.58
398.456	5.52
398.816	5.42
399.176	5.33
399.535	5.27
399.895	5.23
400.255	5.23
400.615	5.16
400.975	5.11
401.334	5.04
401.694	5.02
402.054	5
402.413	4.96
402.773	4.93
403.132	4.92
403.492	4.92
403.851	4.92
404.211	4.87
404.57	4.83
404.929	4.79
405.288	4.77
405.648	4.74
406.007	4.71
406.366	4.72
406.725	4.73
407.084	4.68
407.443	4.65
407.802	4.59
408.161	4.56
408.52	4.57
408.879	4.53
409.238	4.52
409.596	4.5
409.955	4.48
410.314	4.47
410.673	4.45
411.031	4.39
411.39	4.39
411.748	4.39
412.107	4.36
412.465	4.34
412.824	4.31
413.182	4.29
413.54	4.29
413.899	4.24
414.257	4.2
414.615	4.19
414.974	4.16
415.332	4.11
415.69	4.12
416.048	4.1
416.406	4.05
416.764	4.02
417.122	3.99
417.48	3.96
417.838	3.94
418.195	3.93
418.553	3.92
418.911	3.88
419.269	3.87
419.626	3.86
419.984	3.83
420.342	3.81
420.699	3.78
421.057	3.76
421.414	3.78
421.772	3.76
422.129	3.74
422.486	3.72
422.844	3.72
423.201	3.68
423.558	3.66
423.915	3.66
424.273	3.62
424.63	3.6
424.987	3.59
425.344	3.57
425.701	3.53
426.058	3.53
426.415	3.51
426.772	3.47
427.128	3.44
427.485	3.43
427.842	3.42
428.199	3.41
428.555	3.38
428.912	3.34
429.269	3.32
429.625	3.31
429.982	3.3
430.338	3.3
430.695	3.29
431.051	3.26
431.407	3.24
431.764	3.27
432.12	3.29
432.476	3.31
432.832	3.31
433.189	3.32
433.545	3.31
433.901	3.31
434.257	3.33
434.613	3.33
434.969	3.34
435.325	3.33
435.681	3.33
436.036	3.35
436.392	3.38
436.748	3.38
437.104	3.39
437.459	3.39
437.815	3.42
438.171	3.42
438.526	3.44
438.882	3.45
439.237	3.44
439.593	3.42
439.948	3.41
440.304	3.41
440.659	3.4
441.014	3.39
441.369	3.39
441.725	3.4
442.08	3.4
442.435	3.39
442.79	3.39
443.145	3.38
443.5	3.37
443.855	3.36
444.21	3.36
444.565	3.35
444.92	3.35
445.275	3.32
445.629	3.31
445.984	3.32
446.339	3.31
446.693	3.31
447.048	3.29
447.403	3.27
447.757	3.25
448.112	3.25
448.466	3.25
448.82	3.25
449.175	3.23
449.529	3.23
449.883	3.23
450.238	3.22
450.592	3.22
450.946	3.2
451.3	3.18
451.654	3.14
452.008	3.14
452.362	3.13
452.716	3.13
453.07	3.12
453.424	3.07
453.778	3.06
454.132	3.02
454.486	3.03
454.839	3.03
455.193	3.06
455.547	3.06
455.9	3.06
456.254	3.06
456.607	3.04
456.961	3.05
457.314	3.05
457.668	3.05
458.021	3.06
458.375	3.07
458.728	3.09
459.081	3.11
459.434	3.1
459.787	3.12
460.141	3.13
460.494	3.13
460.847	3.14
461.2	3.15
461.553	3.19
461.906	3.2
462.259	3.22
462.611	3.22
462.964	3.23
463.317	3.23
463.67	3.25
464.022	3.27
464.375	3.26
464.728	3.29
465.08	3.29
465.433	3.3
465.785	3.33
466.138	3.32
466.49	3.34
466.843	3.36
467.195	3.35
467.547	3.36
467.899	3.38
468.252	3.4
468.604	3.41
468.956	3.42
469.308	3.43
469.66	3.45
470.012	3.44
470.364	3.45
470.716	3.48
471.068	3.51
471.42	3.55
471.772	3.58
472.123	3.59
472.475	3.62
472.827	3.64
473.178	3.63
473.53	3.64
473.882	3.64
474.233	3.66
474.585	3.69
474.936	3.71
475.288	3.71
475.639	3.72
475.99	3.72
476.342	3.72
476.693	3.72
477.044	3.73
477.395	3.72
477.746	3.71
478.097	3.71
478.448	3.68
478.8	3.64
479.15	3.63
479.501	3.61
479.852	3.61
480.203	3.6
480.554	3.59
480.905	3.59
481.255	3.6
481.606	3.6
481.957	3.58
482.307	3.57
482.658	3.56
483.009	3.56
483.359	3.56
483.709	3.55
484.06	3.56
484.41	3.56
484.761	3.56
485.111	3.56
485.461	3.55
485.811	3.55
486.162	3.56
486.512	3.56
486.862	3.56
487.212	3.54
487.562	3.54
487.912	3.54
488.262	3.54
488.612	3.52
488.961	3.51
489.311	3.52
489.661	3.53
490.011	3.52
490.36	3.51
490.71	3.52
491.06	3.52
491.409	3.52
491.759	3.52
492.108	3.53
492.458	3.53
492.807	3.55
493.157	3.56
493.506	3.58
493.855	3.6
494.204	3.62
494.554	3.65
494.903	3.68
495.252	3.7
495.601	3.74
495.95	3.79
496.299	3.82
496.648	3.86
496.997	3.91
497.346	4
497.695	4.07
498.043	4.14
498.392	4.21
498.741	4.28
499.09	4.34
499.438	4.41
499.787	4.48
500.135	4.54
500.484	4.6
500.832	4.66
501.181	4.75
501.529	4.87
501.878	4.95
502.226	5.06
502.574	5.16
502.923	5.26
503.271	5.36
503.619	5.5
503.967	5.61
504.315	5.71
504.663	5.83
505.011	5.94
505.359	6.07
505.707	6.22
506.055	6.35
506.403	6.5
506.751	6.63
507.098	6.83
507.446	7
507.794	7.18
508.141	7.36
508.489	7.56
508.837	7.73
509.184	7.94
509.531	8.14
509.879	8.36
510.226	8.56
510.574	8.79
510.921	8.98
511.268	9.21
511.616	9.45
511.963	9.7
512.31	9.96
512.657	10.23
513.004	10.5
513.351	10.8
513.698	11.1
514.045	11.43
514.392	11.75
514.739	12.1
515.086	12.44
515.432	12.79
515.779	13.13
516.126	13.48
516.473	13.78
516.819	14.11
517.166	14.41
517.512	14.71
517.859	15.02
518.205	15.32
518.552	15.63
518.898	15.95
519.245	16.22
519.591	16.48
519.937	16.77
520.283	17.07
520.629	17.39
520.976	17.69
521.322	18.05
521.668	18.42
522.014	18.8
522.36	19.19
522.706	19.55
523.052	19.94
523.398	20.35
523.743	20.82
524.089	21.26
524.435	21.69
524.781	22.09
525.126	22.44
525.472	22.8
525.817	23.09
526.163	23.37
526.509	23.65
526.854	23.94
527.199	24.15
527.545	24.39
527.89	24.61
528.235	24.85
528.581	25.07
528.926	25.3
529.271	25.51
529.616	25.71
529.961	25.93
530.306	26.16
530.651	26.38
530.996	26.58
531.341	26.81
531.686	27.05
532.031	27.29
532.376	27.53
532.721	27.76
533.065	28.01
533.41	28.25
533.755	28.51
534.099	28.76
534.444	29.06
534.788	29.32
535.133	29.58
535.477	29.84
535.822	30.1
536.166	30.38
536.51	30.69
536.855	30.97
537.199	31.28
537.543	31.54
537.887	31.86
538.231	32.2
538.576	32.5
538.92	32.81
539.264	33.09
539.608	33.36
539.951	33.58
540.295	33.81
540.639	34.04
540.983	34.23
541.327	34.44
541.671	34.62
542.014	34.81
542.358	34.99
542.701	35.18
543.045	35.36
543.389	35.54
543.732	35.68
544.075	35.89
544.419	36.09
544.762	36.31
545.105	36.48
545.449	36.65
545.792	36.87
546.135	37.07
546.478	37.29
546.821	37.54
547.165	37.78
547.508	38.03
547.851	38.28
548.194	38.52
548.536	38.72
548.879	38.94
549.222	39.18
549.565	39.43
549.908	39.59
550.25	39.85
550.593	39.97
550.936	40.17
551.278	40.41
551.621	40.55
551.963	40.74
552.306	40.99
552.648	41.22
552.991	41.31
553.333	41.47
553.675	41.61
554.017	41.77
554.36	41.96
554.702	42.05
555.044	42.19
555.386	42.37
555.728	42.54
556.07	42.68
556.412	42.84
556.754	42.98
557.096	43.15
557.438	43.27
557.78	43.52
558.121	43.66
558.463	43.84
558.805	44.04
559.147	44.2
559.488	44.25
559.83	44.35
560.171	44.57
560.513	44.67
560.854	44.78
561.196	44.98
561.537	45.15
561.878	45.32
562.22	45.41
562.561	45.54
562.902	45.66
563.243	45.82
563.584	45.91
563.925	46
564.266	46.12
564.607	46.22
564.948	46.2
565.289	46.32
565.63	46.37
565.971	46.44
566.312	46.57
566.653	46.68
566.993	46.78
567.334	46.86
567.675	46.99
568.015	47.16
568.356	47.15
568.696	47.2
569.037	47.27
569.377	47.4
569.718	47.5
570.058	47.6
570.398	47.71
570.739	47.81
571.079	47.91
571.419	47.96
571.759	48
572.099	48.13
572.439	48.22
572.779	48.33
573.119	48.45
573.459	48.53
573.799	48.66
574.139	48.76
574.479	48.82
574.819	48.87
575.158	48.93
575.498	49
575.838	49.09
576.177	49.14
576.517	49.19
576.856	49.24
577.196	49.29
577.535	49.35
577.875	49.44
578.214	49.43
578.553	49.55
578.893	49.7
579.232	49.79
579.571	49.83
579.91	49.87
580.25	49.89
580.589	49.85
580.928	49.9
581.267	49.95
581.606	50.06
581.945	50.17
582.283	50.19
582.622	50.32
582.961	50.29
583.3	50.36
583.639	50.43
583.977	50.45
584.316	50.57
584.654	50.54
584.993	50.51
585.332	50.7
585.67	50.74
586.008	50.72
586.347	50.82
586.685	50.87
587.024	50.87
587.362	50.99
587.7	51.12
588.038	51.2
588.376	51.26
588.715	51.25
589.053	51.34
589.391	51.38
589.729	51.38
590.067	51.43
590.404	51.52
590.742	51.57
591.08	51.66
591.418	51.64
591.756	51.79
592.093	51.81
592.431	51.79
592.769	51.84
593.106	51.93
593.444	52
593.781	52.14
594.119	52.23
594.456	52.22
594.793	52.24
595.131	52.22
595.468	52.28
595.805	52.38
596.143	52.37
596.48	52.43
596.817	52.4
597.154	52.43
597.491	52.46
597.828	52.51
598.165	52.55
598.502	52.61
598.839	52.68
599.176	52.82
599.512	52.86
599.849	52.89
600.186	52.98
600.523	52.97
600.859	52.98
601.196	53.03
601.532	53.06
601.869	53.09
602.205	53.08
602.542	53.04
602.878	53.05
603.215	53.13
603.551	53.17
603.887	53.26
604.223	53.29
604.56	53.32
604.896	53.31
605.232	53.36
605.568	53.38
605.904	53.31
606.24	53.31
606.576	53.38
606.912	53.42
607.248	53.43
607.583	53.5
607.919	53.48
608.255	53.5
608.591	53.53
608.926	53.56
609.262	53.71
609.597	53.77
609.933	53.74
610.268	53.74
610.604	53.71
610.939	53.74
611.275	53.8
611.61	53.82
611.945	53.9
612.281	53.88
612.616	53.9
612.951	53.91
613.286	53.95
613.621	54.04
613.956	54.07
614.291	54.08
614.626	54.14
614.961	54.2
615.296	54.18
615.631	54.28
615.966	54.27
616.3	54.27
616.635	54.23
616.97	54.33
617.304	54.32
617.639	54.45
617.973	54.45
618.308	54.42
618.642	54.36
618.977	54.32
619.311	54.33
619.646	54.36
619.98	54.37
620.314	54.31
620.648	54.2
620.983	54.18
621.317	54.13
621.651	54.06
621.985	54.11
622.319	54.12
622.653	54.07
622.987	54.12
623.321	54.02
623.655	54.12
623.988	54.16
624.322	54.16
624.656	54.14
624.99	54.24
625.323	54.27
625.657	54.37
625.99	54.45
626.324	54.44
626.657	54.46
626.991	54.47
627.324	54.53
627.658	54.58
627.991	54.64
628.324	54.73
628.657	54.79
628.991	54.78
629.324	54.87
629.657	54.85
629.99	54.89
630.323	54.99
630.656	54.98
630.989	54.87
631.322	54.93
631.655	54.97
631.987	54.98
632.32	55
632.653	54.99
632.986	54.99
633.318	55
633.651	55.04
633.984	55.12
634.316	55.07
634.649	55.1
634.981	55.08
635.313	55.03
635.646	55.07
635.978	55.1
636.31	54.93
636.643	54.99
636.975	54.95
637.307	54.97
637.639	54.98
637.971	55.08
638.303	55.06
638.635	55.02
638.967	55.02
639.299	55.03
639.631	55.04
639.963	55.03
640.295	55.12
640.626	55.14
640.958	55.18
641.29	55.32
641.621	55.3
641.953	55.24
642.285	55.25
642.616	55.18
642.948	55.15
643.279	55.29
643.61	55.33
643.942	55.43
644.273	55.44
644.604	55.45
644.936	55.45
645.267	55.4
645.598	55.39
645.929	55.36
646.26	55.37
646.591	55.39
646.922	55.43
647.253	55.47
647.584	55.44
647.915	55.38
648.245	55.36
648.576	55.43
648.907	55.52
649.238	55.55
649.568	55.49
649.899	55.45
650.229	55.41
650.56	55.43
650.89	55.36
651.221	55.35
651.551	55.43
651.882	55.45
652.212	55.47
652.542	55.55
652.872	55.57
653.203	55.59
653.533	55.53
653.863	55.43
654.193	55.35
654.523	55.34
654.853	55.37
655.183	55.35
655.513	55.41
655.843	55.33
656.172	55.46
656.502	55.54
656.832	55.64
657.162	55.69
657.491	55.64
657.821	55.74
658.15	55.77
658.48	55.7
658.809	55.76
659.139	55.84
659.468	55.8
659.798	55.77
660.127	55.81
660.456	55.96
660.785	56.02
661.115	56.05
661.444	56.16
661.773	56.22
662.102	56.2
662.431	56.06
662.76	56.14
663.089	56.07
663.418	56.09
663.747	56.04
664.076	56.14
664.404	56.08
664.733	55.89
665.062	55.89
665.39	55.91
665.719	55.91
666.048	55.88
666.376	55.85
666.705	55.85
667.033	55.8
667.362	55.79
667.69	55.84
668.018	55.89
668.347	55.82
668.675	55.69
669.003	55.75
669.331	55.69
669.659	55.74
669.987	55.65
670.315	55.65
670.643	55.79
670.971	55.68
671.299	55.76
671.627	55.89
671.955	55.89
672.283	55.98
672.61	55.96
672.938	55.94
673.266	56.02
673.593	56.01
673.921	56.08
674.249	56.09
674.576	56.06
674.904	56.02
675.231	55.93
675.558	56.15
675.886	56.23
676.213	56.34
676.54	56.41
676.867	56.59
677.195	56.59
677.522	56.52
677.849	56.49
678.176	56.55
678.503	56.59
678.83	56.52
679.157	56.47
679.484	56.45
679.81	56.56
680.137	56.53
680.464	56.53
680.791	56.46
681.117	56.44
681.444	56.41
681.771	56.37
682.097	56.46
682.424	56.46
682.75	56.37
683.077	56.52
683.403	56.49
683.729	56.49
684.056	56.5
684.382	56.59
684.708	56.54
685.034	56.64
685.36	56.66
685.686	56.67
686.012	56.66
686.339	56.67
686.664	56.62
686.99	56.6
687.316	56.72
687.642	56.92
687.968	56.92
688.294	57.01
688.619	57.08
688.945	57.14
689.271	56.91
689.596	56.86
689.922	56.71
690.247	56.64
690.573	56.48
690.898	56.46
691.224	56.34
691.549	56.56
691.874	56.48
692.2	56.54
692.525	56.61
692.85	56.69
693.175	56.64
693.5	56.5
693.825	56.44
694.15	56.44
694.475	56.36
694.8	56.32
695.125	56.18
695.45	56.25
695.775	56.21
696.099	56.49
696.424	56.52
696.749	56.57
697.073	56.67
697.398	56.62
697.723	56.7
698.047	56.83
698.372	56.67
698.696	56.66
699.02	56.48
699.345	56.5
699.669	56.48
699.993	56.47
700.318	56.56
700.642	56.71
700.966	56.56
701.29	56.56
701.614	56.6
701.938	56.68
702.262	56.77
702.586	56.79
702.91	56.68
703.234	56.7
703.557	56.75
703.881	56.78
704.205	57.03
704.529	56.87
704.852	56.87
705.176	56.96
705.499	56.98
705.823	57.02
706.146	56.86
706.47	56.98
706.793	56.94
707.117	57.04
707.44	56.97
707.763	57.28
708.086	57.32
708.409	57.18
708.733	57.2
709.056	57.11
709.379	57.12
709.702	57
710.025	56.95
710.348	56.91
710.671	56.87
710.993	56.93
711.316	56.94
711.639	56.74
711.962	56.88
712.284	56.84
712.607	56.89
712.93	56.96
713.252	56.74
713.575	56.73
713.897	56.55
714.22	56.54
714.542	56.52
714.864	56.36
715.187	56.51
715.509	56.4
715.831	56.39
716.153	56.35
716.475	56.46
716.798	56.59
717.12	56.47
717.442	56.36
717.764	56.2
718.085	56.25
718.407	56.31
718.729	56.24
719.051	56.36
719.373	56.39
719.695	56.39
720.016	56.41
720.338	56.63
720.659	56.83
720.981	56.8
721.302	56.68
721.624	56.81
721.945	56.97
722.267	57.14
722.588	56.92
722.909	56.83
723.231	56.76
723.552	56.54
723.873	56.62
724.194	56.7
724.515	56.55
724.836	56.59
725.157	56.62
725.478	56.65
725.799	56.51
726.12	56.53
726.441	56.58
726.762	56.81
727.083	56.78
727.403	56.77
727.724	56.64
728.045	56.61
728.365	56.71
728.686	56.6
729.006	56.64
729.327	56.9
729.647	57.06
729.967	57.13
730.288	57.35
730.608	57.44
730.928	57.51
731.249	57.68
731.569	57.73
731.889	57.63
732.209	57.4
732.529	57.43
732.849	57.74
733.169	57.69
733.489	57.68
733.809	57.73
734.129	57.66
734.448	57.9
734.768	57.95
735.088	57.91
735.408	57.86
735.727	57.83
736.047	57.7
736.366	57.6
736.686	57.53
737.005	57.48
737.325	57.46
737.644	57.37
737.963	57.34
738.283	57.1
738.602	57.09
738.921	57.3
739.24	56.96
739.56	56.62
739.879	56.74
740.198	56.56
740.517	56.38
740.836	56.41
741.155	56.15
741.473	56.11
741.792	56.18
742.111	56.51
742.43	56.33
742.748	56.4
743.067	56.48
743.386	56.35
743.704	56.36
744.023	56.42
744.341	56.36
744.66	56.26
744.978	56.53
745.297	56.76
745.615	56.74
745.933	57.43
746.252	57.73
746.57	57.63
746.888	57.69
747.206	57.79
747.524	57.91
747.842	57.98
748.16	58.11
748.478	57.95
748.796	57.35
749.114	57.21
749.432	57.21
749.749	57.2
750.067	57.45
750.385	57.62
750.703	57.38
751.02	57.31
751.338	57.24
751.655	57.22
751.973	57.01
752.29	57.13
752.608	57.11
752.925	56.82
753.242	56.86
753.56	56.84
753.877	56.79
754.194	56.46
754.511	57.03
754.828	56.89
755.145	57.05
755.462	57.21
755.779	57.55
756.096	57.3
756.413	57.15
756.73	57.14
757.047	56.82
757.364	57.21
757.68	57.15
757.997	57.35
758.314	57.37
758.63	57.19
758.947	57.24
759.264	56.75
759.58	56.74
759.896	56.97
760.213	57.03
760.529	57.18
760.846	57.55
761.162	57.32
761.478	57.23
761.794	57.18
762.11	57.16
762.426	57.23
762.743	57.43
763.059	57.27
763.375	57.12
763.69	57.07
764.006	57.19
764.322	57.23
764.638	57.22
764.954	57.24
765.27	57.44
765.585	57.38
765.901	57.69
766.216	57.73
766.532	57.48
766.848	57.38
767.163	57.44
767.478	57.39
767.794	57.47
768.109	57.59
768.424	57.49
768.74	57.69
769.055	57.67
769.37	57.5
769.685	57.53
770	57.78
770.315	57.91
770.63	58.02
770.945	58.21
771.26	57.95
771.575	58.11
771.89	58
772.205	57.78
772.52	57.85
772.834	58.11
773.149	58.37
773.464	58.61
773.778	58.12
774.093	58
774.407	57.62
774.722	57.44
775.036	57.52
775.351	57.71
775.665	57.51
775.979	57.84
776.293	58.11
776.608	57.58
776.922	57.4
777.236	57.05
777.55	57.3
777.864	57.39
778.178	57.53
778.492	57.85
778.806	58.47
779.12	57.52
779.434	57.33
779.747	57.21
780.061	56.8
780.375	57.36
780.689	57.37
781.002	57.41
781.316	57.47
781.629	57.86
781.943	57.42
782.256	57.59
782.57	57.47
782.883	57.71
783.196	58.04
783.51	58.54
783.823	58.33
784.136	58.07
784.449	58.33
784.762	58.02
785.075	58.29
785.388	57.95
785.701	58.45
786.014	58.32
786.327	58.39
786.64	58.91
786.953	58.53
787.266	58.63
787.578	58.21
787.891	58.36
788.204	57.57
788.516	57.84
788.829	57.45
789.141	57.22
789.454	56.8
789.766	57.12
790.079	57.12
790.391	57.06
790.703	57.08
791.016	56.99
791.328	57.25
791.64	56.66
791.952	56.3
792.264	56.55
792.576	56.81
792.888	56.52
793.2	56.55
793.512	56.67
793.824	56.96
794.136	57.35
794.448	57.13
794.76	57.73
795.071	57.31
795.383	57.45
795.695	57.69
796.006	57.71
796.318	57.6
796.629	56.94
796.941	57.11
797.252	57.17
797.564	57.3
797.875	57.12
798.186	57.61
798.497	57.81
798.809	57.56
799.12	57.58
799.431	57.77
799.742	57.76
800.053	57.59
800.364	57.54
800.675	57.5
800.986	57.39
801.297	57.25
801.608	57.39
801.918	58.16
802.229	57.53
802.54	57.92
802.851	57.78
803.161	58.59
803.472	58.6
803.782	58.61
804.093	58.19
804.403	57.79
804.714	57.38
805.024	57.15
805.334	57.72
805.645	57.21
805.955	57.26
806.265	56.59
806.575	56.79
806.885	56.3
807.195	56.26
807.505	56.27
807.815	56.52
808.125	56.09
808.435	55.44
808.745	55.69
809.055	55.31
809.365	55.84
809.674	55.34
809.984	55.33
810.294	55.22
810.603	55.64
810.913	54.91
811.222	55.38
811.532	55.4
811.841	55.38
812.151	55.69
812.46	55.89
812.769	55.65
813.079	55.31
813.388	55.14
813.697	54.74
814.006	54.75
814.315	54.42
814.624	55.19
814.933	55.36
815.242	55.07
815.551	55.74
815.86	54.76
816.169	54.75
816.478	54.81
816.786	54.92
817.095	55.1
817.404	55.93
817.712	55.43
818.021	55.95
818.33	55.8
818.638	55.91
818.947	55.96
819.255	56.75
819.563	57.01
819.872	57.43
820.18	57.85
820.488	58.09
820.796	58.03
821.105	58.38
821.413	58.19
821.721	58.36
822.029	58.41
822.337	58.46
822.645	58.51
822.953	58.61
823.26	58.64
823.568	58.67
823.876	58.64
824.184	58.75
824.491	58.75
824.799	58.71
825.107	58.76
825.414	58.68
825.722	58.69
826.029	58.77
826.337	58.65
826.644	58.63
826.951	58.76
827.259	58.72
827.566	58.57
827.873	58.77
828.18	58.83
828.488	58.65
828.795	58.87
829.102	58.95
829.409	58.72
829.716	58.58
830.023	58.88
830.329	59.26
830.636	59.43
830.943	59.22
831.25	59.3
831.557	58.87
831.863	59.25
832.17	58.83
832.476	58.68
832.783	58.53
833.089	58.73
833.396	58.79
833.702	58.84
834.009	58.55
834.315	58.55
834.621	58.42
834.928	58.14
835.234	57.62
835.54	57.85
835.846	57.95
836.152	57.79
836.458	57.07
836.764	56.59
837.07	56.15
837.376	56.06
837.682	56.15
837.988	56.2
838.293	56.26
838.599	56.65
838.905	55.63
839.211	56.24
839.516	55.78
839.822	54.8
840.127	54.83
840.433	54.41
840.738	54.3
841.044	54.36
841.349	54.96
841.654	55.32
841.959	55.24
842.265	55.65
842.57	55.72
842.875	55.07
843.18	55.7
843.485	55.75
843.79	55.6
844.095	54.82
844.4	55.29
844.705	54.67
845.01	54.65
845.315	55.98
845.619	55.96
845.924	55.72
846.229	56.22
846.533	56.59
846.838	58.83
847.142	58.67
847.447	58.48
847.751	58.13
848.056	58.76
848.36	57.04
848.664	57.5
848.969	58.16
849.273	59.07
849.577	59.01
849.881	60.34
850.185	60.93
850.489	60.34
850.794	60.55
851.097	60.13
851.401	58.08
851.705	57.8
852.009	57.43
852.313	56.75
852.617	57.28
852.92	56.35
853.224	55.51
853.528	56.66
853.831	58.31
854.135	59.41
854.438	59.28
854.742	60.12
855.045	58.23
855.349	58.2
855.652	58.68
855.955	57.14
856.259	54.1
856.562	54.01
856.865	55.52
857.168	57.3
857.471	57.59
857.774	59.55
858.077	60.77
858.38	60.78
858.683	63.51
858.986	62.87
859.289	63.07
859.592	61.05
859.894	61.14
860.197	58.47
860.5	58.06
860.802	57.68
861.105	55.83
861.407	56.76
861.71	55.64
862.012	56.11
862.315	57.29
862.617	59.14
862.919	59.11
863.222	58.43
863.524	56.26
863.826	56.98
864.128	55.79
864.43	55.28
864.732	56.68
865.034	55.37
865.336	55.47
865.638	56.84
865.94	58.28
866.242	56.23
866.544	58.6
866.846	57.75
867.147	57.78
867.449	59.67
867.751	58.14
868.052	58.93
868.354	58.7
868.655	56.88
868.957	54.98
869.258	56.54
869.56	56.31
869.861	58.07
870.162	56.52
870.463	59.33
870.765	61.22
871.066	61.9
871.367	59.07
871.668	59.16
871.969	57.47
872.27	57.46
872.571	57.65
872.872	54.34
873.173	50.88
873.473	51.42
873.774	51.14
874.075	52.08
874.376	51.4
874.676	51.9
874.977	53.96
875.277	55.46
875.578	56
875.878	56.33
876.179	54.92
876.479	55.69
876.78	53.77
877.08	52.39
877.38	48.55
877.68	51.37
877.981	51.19
878.281	52.05
878.581	50.01
