Data from BU26851_Reflection_00012.txt Node
Date: Mon Nov 18 16:48:28 EST 2019
User: vgr7
Spectrometer: USB2G7710
Scans to average: 3
Trigger mode: 4
Integration Time (sec): 2.000000E-2
Electric dark correction enabled: true
Boxcar width: 10
XAxis mode: Wavelengths
Number of Pixels in Spectrum: 2048
>>>>>Begin Spectral Data<<<<<
177.721	16.54
178.105	-305.41
178.488	555.7
178.871	-11.57
179.254	405.08
179.636	31.56
180.019	-2035.59
180.402	52.78
180.785	73.78
181.168	16.04
181.55	-25.87
181.933	67.91
182.316	112.06
182.698	80.94
183.081	185.04
183.463	-642.27
183.846	-187.54
184.228	-2803.23
184.611	293.55
184.993	1116.95
185.376	74.75
185.758	152.06
186.14	325.94
186.522	196.46
186.904	-876.74
187.287	329.67
187.669	64.5
188.051	218.23
188.433	-937.59
188.815	-62.02
189.197	-151.38
189.579	-131.47
189.961	-141.89
190.342	-116.65
190.724	-127.9
191.106	-194.18
191.488	-944.53
191.869	2064.6
192.251	-896.54
192.633	30645.45
193.014	-2592.91
193.396	-402.91
193.777	-933.23
194.159	-1242.37
194.54	-757.14
194.922	-7246.94
195.303	-1197.81
195.684	-2419.34
196.065	-935.83
196.447	-705.11
196.828	-747.65
197.209	-1391.71
197.59	9617.24
197.971	1803.23
198.352	-818.57
198.733	-599.78
199.114	-305.95
199.495	-188.87
199.876	-138.35
200.257	-125.37
200.638	-61.1
201.018	-51.12
201.399	-32.69
201.78	-33.66
202.16	-8.42
202.541	-35.77
202.922	-47.47
203.302	-58.69
203.683	-58.92
204.063	-110.6
204.444	-124.93
204.824	-195.93
205.204	-69.77
205.585	-56.49
205.965	-18.21
206.345	-31.23
206.725	-15.66
207.106	-503.55
207.486	750.25
207.866	580.84
208.246	266.91
208.626	215.53
209.006	641.94
209.386	1008.11
209.766	3043.4
210.145	458
210.525	1484.62
210.905	-431.86
211.285	-314.16
211.664	-193.8
212.044	-82.69
212.424	-74.47
212.803	-71.93
213.183	-50.18
213.562	-39.76
213.942	-28.42
214.321	-24.96
214.701	-46.9
215.08	-28.5
215.459	-16.44
215.838	-28.56
216.218	-21.38
216.597	-13.18
216.976	-24.57
217.355	-7.12
217.734	-15.59
218.113	-7.31
218.492	-0.99
218.871	-12.49
219.25	-1.68
219.629	0.45
220.008	-6.09
220.387	-17.08
220.766	-16.5
221.144	-38.9
221.523	-64.83
221.902	-92.46
222.28	-85.37
222.659	-65.26
223.037	-62.35
223.416	-70.26
223.794	-52.3
224.173	-49.28
224.551	-33.92
224.929	-50.55
225.308	-40.5
225.686	-33.89
226.064	-35.72
226.442	-34.13
226.821	-28.7
227.199	-31.32
227.577	-35.38
227.955	-34.08
228.333	-31.71
228.711	-24.31
229.089	-17.56
229.467	-14.33
229.845	-14.08
230.222	-13.87
230.6	-13.56
230.978	-10.81
231.356	-4.87
231.733	-4.98
232.111	-2.95
232.488	-2.79
232.866	0.45
233.243	-0.26
233.621	0.44
233.998	2.52
234.376	0.98
234.753	0.37
235.13	1.99
235.508	4.56
235.885	4.83
236.262	6.57
236.639	5.17
237.016	2.9
237.393	3.78
237.77	4.01
238.147	4.61
238.524	4.37
238.901	4.54
239.278	4.03
239.655	4.33
240.032	4.22
240.409	3.46
240.785	4.34
241.162	4.65
241.539	4.86
241.915	4.89
242.292	4.64
242.668	4.73
243.045	4.96
243.421	4.63
243.798	4.48
244.174	4.52
244.551	4.44
244.927	4.26
245.303	4.39
245.679	4.53
246.056	4.34
246.432	3.99
246.808	3.89
247.184	3.56
247.56	3.37
247.936	3.29
248.312	3.34
248.688	3.07
249.064	2.79
249.44	2.63
249.815	2.57
250.191	2.8
250.567	3.01
250.943	2.77
251.318	2.95
251.694	2.72
252.069	2.4
252.445	2.7
252.82	2.98
253.196	2.56
253.571	2.4
253.947	2.45
254.322	3.31
254.697	2.85
255.073	3.06
255.448	2.99
255.823	3.1
256.198	3.05
256.573	2.98
256.948	3.06
257.323	3.15
257.698	3.1
258.073	3.19
258.448	3.09
258.823	3.17
259.198	3.02
259.573	3.29
259.948	3.42
260.322	3.24
260.697	3.13
261.072	2.9
261.446	2.89
261.821	2.83
262.195	2.79
262.57	2.9
262.944	2.63
263.319	2.7
263.693	2.63
264.067	2.78
264.442	2.77
264.816	2.76
265.19	2.67
265.564	2.74
265.938	2.43
266.313	2.39
266.687	2.22
267.061	2.4
267.435	2.28
267.809	2.18
268.183	2.13
268.556	2.24
268.93	2.51
269.304	2.59
269.678	2.69
270.051	2.56
270.425	2.51
270.799	2.72
271.172	2.81
271.546	2.86
271.919	2.71
272.293	2.79
272.666	2.9
273.04	2.9
273.413	2.84
273.787	2.9
274.16	2.77
274.533	2.85
274.906	2.7
275.279	2.65
275.653	2.58
276.026	2.61
276.399	2.64
276.772	2.86
277.145	2.72
277.518	2.6
277.891	2.67
278.263	2.71
278.636	2.61
279.009	2.44
279.382	2.5
279.755	2.46
280.127	2.4
280.5	2.34
280.872	2.38
281.245	2.24
281.617	2.42
281.99	2.65
282.362	2.73
282.735	2.69
283.107	2.75
283.479	2.87
283.852	2.85
284.224	2.73
284.596	2.51
284.968	2.63
285.34	2.84
285.713	2.83
286.085	3.03
286.457	3.04
286.829	3.15
287.201	3.16
287.572	3.15
287.944	3.16
288.316	3.2
288.688	3.15
289.06	3.27
289.431	3.08
289.803	3.04
290.175	3.04
290.546	3.16
290.918	3.22
291.289	3.24
291.661	3.33
292.032	3.5
292.403	3.61
292.775	3.61
293.146	3.57
293.517	3.47
293.889	3.35
294.26	3.43
294.631	3.32
295.002	3.28
295.373	3.4
295.744	3.47
296.115	3.41
296.486	3.35
296.857	3.34
297.228	3.49
297.599	3.53
297.97	3.54
298.34	3.66
298.711	3.66
299.082	3.57
299.452	3.63
299.823	3.71
300.194	3.76
300.564	3.83
300.935	3.85
301.305	3.89
301.676	3.91
302.046	4.02
302.416	4.16
302.787	4.17
303.157	4.3
303.527	4.26
303.897	4.39
304.267	4.7
304.637	4.72
305.008	4.88
305.378	4.95
305.748	5.05
306.117	4.94
306.487	4.91
306.857	5.15
307.227	5.22
307.597	5.24
307.967	5.32
308.336	5.43
308.706	5.51
309.076	5.61
309.445	5.7
309.815	5.65
310.184	5.69
310.554	5.88
310.923	5.9
311.293	6.04
311.662	6.13
312.031	6.15
312.401	6.34
312.77	6.39
313.139	6.47
313.508	6.52
313.877	6.65
314.246	6.83
314.616	6.78
314.985	6.88
315.353	6.82
315.722	6.84
316.091	6.75
316.46	6.79
316.829	6.78
317.198	6.85
317.567	7.12
317.935	7.21
318.304	7.27
318.672	7.24
319.041	7.34
319.41	7.38
319.778	7.29
320.147	7.3
320.515	7.26
320.883	7.38
321.252	7.44
321.62	7.42
321.988	7.58
322.357	7.69
322.725	7.75
323.093	7.95
323.461	7.96
323.829	8.14
324.197	8.21
324.565	8.42
324.933	8.53
325.301	8.49
325.669	8.48
326.037	8.4
326.405	8.47
326.772	8.57
327.14	8.53
327.508	8.58
327.875	8.66
328.243	8.71
328.61	8.73
328.978	8.82
329.346	9.12
329.713	9.14
330.08	9.25
330.448	9.09
330.815	9.07
331.182	9.06
331.55	9.17
331.917	9.4
332.284	9.58
332.651	9.6
333.018	9.59
333.385	9.63
333.752	9.77
334.119	9.77
334.486	9.68
334.853	9.79
335.22	9.85
335.587	10.04
335.954	10.07
336.32	10.09
336.687	10.11
337.054	9.97
337.42	9.95
337.787	10
338.153	10.12
338.52	10.26
338.886	10.34
339.253	10.35
339.619	10.31
339.986	10.25
340.352	10.24
340.718	10.37
341.084	10.53
341.451	10.55
341.817	10.76
342.183	10.81
342.549	10.86
342.915	11
343.281	10.88
343.647	10.96
344.013	10.98
344.379	11.03
344.745	11.19
345.11	11.18
345.476	11.18
345.842	11.22
346.208	11.18
346.573	11.27
346.939	11.39
347.304	11.3
347.67	11.28
348.035	11.42
348.401	11.39
348.766	11.39
349.132	11.37
349.497	11.27
349.862	11.36
350.228	11.36
350.593	11.29
350.958	11.27
351.323	11.29
351.688	11.22
352.053	11.24
352.418	11.22
352.783	11.23
353.148	11.27
353.513	11.23
353.878	11.23
354.243	11.27
354.608	11.21
354.972	11.32
355.337	11.33
355.702	11.33
356.066	11.38
356.431	11.4
356.795	11.4
357.16	11.33
357.524	11.24
357.889	11.27
358.253	11.31
358.618	11.29
358.982	11.27
359.346	11.23
359.71	11.17
360.075	11.19
360.439	11.24
360.803	11.22
361.167	11.2
361.531	11.23
361.895	11.15
362.259	11.05
362.623	10.99
362.987	10.96
363.351	10.91
363.714	10.8
364.078	10.73
364.442	10.69
364.806	10.71
365.169	10.72
365.533	10.63
365.896	10.57
366.26	10.53
366.623	10.43
366.987	10.47
367.35	10.45
367.714	10.36
368.077	10.23
368.44	10.15
368.803	10.1
369.167	9.94
369.53	9.91
369.893	9.96
370.256	9.9
370.619	9.81
370.982	9.67
371.345	9.61
371.708	9.51
372.071	9.44
372.434	9.34
372.797	9.27
373.159	9.16
373.522	9.12
373.885	9.15
374.247	9.13
374.61	9.03
374.973	8.89
375.335	8.73
375.698	8.69
376.06	8.63
376.423	8.51
376.785	8.54
377.147	8.46
377.51	8.34
377.872	8.26
378.234	8.2
378.596	8.17
378.958	8.12
379.321	8.05
379.683	8
380.045	7.92
380.407	7.92
380.769	7.92
381.13	7.79
381.492	7.68
381.854	7.65
382.216	7.63
382.578	7.66
382.939	7.61
383.301	7.53
383.663	7.41
384.024	7.36
384.386	7.28
384.747	7.25
385.109	7.21
385.47	7.15
385.832	7.05
386.193	6.99
386.554	6.94
386.916	6.86
387.277	6.81
387.638	6.78
387.999	6.61
388.36	6.54
388.721	6.51
389.082	6.43
389.443	6.32
389.804	6.26
390.165	6.19
390.526	6.14
390.887	6.09
391.248	6.1
391.609	6.1
391.969	6.03
392.33	5.95
392.691	5.91
393.051	5.84
393.412	5.83
393.772	5.78
394.133	5.76
394.493	5.77
394.854	5.72
395.214	5.66
395.574	5.66
395.935	5.58
396.295	5.59
396.655	5.54
397.015	5.51
397.376	5.47
397.736	5.37
398.096	5.35
398.456	5.29
398.816	5.22
399.176	5.16
399.535	5.11
399.895	5.08
400.255	5.02
400.615	4.99
400.975	4.94
401.334	4.9
401.694	4.81
402.054	4.76
402.413	4.74
402.773	4.69
403.132	4.65
403.492	4.62
403.851	4.53
404.211	4.51
404.57	4.47
404.929	4.44
405.288	4.42
405.648	4.34
406.007	4.33
406.366	4.31
406.725	4.29
407.084	4.27
407.443	4.25
407.802	4.24
408.161	4.2
408.52	4.17
408.879	4.18
409.238	4.17
409.596	4.14
409.955	4.1
410.314	4.12
410.673	4.06
411.031	4.04
411.39	4.03
411.748	4
412.107	4
412.465	3.97
412.824	3.93
413.182	3.91
413.54	3.91
413.899	3.89
414.257	3.89
414.615	3.84
414.974	3.82
415.332	3.78
415.69	3.75
416.048	3.74
416.406	3.69
416.764	3.67
417.122	3.65
417.48	3.63
417.838	3.59
418.195	3.59
418.553	3.58
418.911	3.57
419.269	3.55
419.626	3.54
419.984	3.52
420.342	3.53
420.699	3.52
421.057	3.49
421.414	3.47
421.772	3.45
422.129	3.44
422.486	3.42
422.844	3.41
423.201	3.38
423.558	3.38
423.915	3.37
424.273	3.36
424.63	3.34
424.987	3.33
425.344	3.33
425.701	3.32
426.058	3.32
426.415	3.3
426.772	3.27
427.128	3.26
427.485	3.23
427.842	3.19
428.199	3.18
428.555	3.18
428.912	3.18
429.269	3.17
429.625	3.16
429.982	3.16
430.338	3.13
430.695	3.14
431.051	3.11
431.407	3.09
431.764	3.08
432.12	3.08
432.476	3.04
432.832	3.04
433.189	3.04
433.545	3.03
433.901	3.01
434.257	3.01
434.613	3.01
434.969	3.04
435.325	3.06
435.681	3.08
436.036	3.06
436.392	3.07
436.748	3.05
437.104	3.05
437.459	3.04
437.815	3.07
438.171	3.06
438.526	3.07
438.882	3.08
439.237	3.09
439.593	3.1
439.948	3.11
440.304	3.11
440.659	3.1
441.014	3.1
441.369	3.1
441.725	3.1
442.08	3.11
442.435	3.09
442.79	3.07
443.145	3.04
443.5	3.06
443.855	3.04
444.21	3.03
444.565	3.03
444.92	3.03
445.275	2.99
445.629	2.99
445.984	2.99
446.339	2.99
446.693	2.97
447.048	2.96
447.403	2.94
447.757	2.92
448.112	2.91
448.466	2.89
448.82	2.89
449.175	2.9
449.529	2.87
449.883	2.88
450.238	2.87
450.592	2.88
450.946	2.86
451.3	2.84
451.654	2.85
452.008	2.84
452.362	2.82
452.716	2.85
453.07	2.84
453.424	2.82
453.778	2.8
454.132	2.79
454.486	2.77
454.839	2.76
455.193	2.75
455.547	2.74
455.9	2.75
456.254	2.74
456.607	2.72
456.961	2.72
457.314	2.71
457.668	2.72
458.021	2.7
458.375	2.71
458.728	2.73
459.081	2.73
459.434	2.71
459.787	2.74
460.141	2.73
460.494	2.74
460.847	2.75
461.2	2.74
461.553	2.76
461.906	2.79
462.259	2.81
462.611	2.83
462.964	2.85
463.317	2.87
463.67	2.88
464.022	2.9
464.375	2.92
464.728	2.93
465.08	2.95
465.433	2.96
465.785	2.95
466.138	2.96
466.49	2.98
466.843	3.01
467.195	3.01
467.547	3.03
467.899	3.04
468.252	3.03
468.604	3.05
468.956	3.05
469.308	3.06
469.66	3.06
470.012	3.06
470.364	3.08
470.716	3.07
471.068	3.09
471.42	3.1
471.772	3.11
472.123	3.14
472.475	3.15
472.827	3.18
473.178	3.19
473.53	3.15
473.882	3.15
474.233	3.17
474.585	3.17
474.936	3.17
475.288	3.18
475.639	3.21
475.99	3.21
476.342	3.21
476.693	3.21
477.044	3.22
477.395	3.23
477.746	3.21
478.097	3.19
478.448	3.19
478.8	3.18
479.15	3.18
479.501	3.16
479.852	3.14
480.203	3.13
480.554	3.12
480.905	3.13
481.255	3.13
481.606	3.11
481.957	3.1
482.307	3.11
482.658	3.11
483.009	3.11
483.359	3.11
483.709	3.11
484.06	3.12
484.41	3.11
484.761	3.11
485.111	3.11
485.461	3.11
485.811	3.11
486.162	3.11
486.512	3.11
486.862	3.11
487.212	3.12
487.562	3.13
487.912	3.14
488.262	3.15
488.612	3.15
488.961	3.17
489.311	3.18
489.661	3.18
490.011	3.19
490.36	3.19
490.71	3.19
491.06	3.2
491.409	3.2
491.759	3.22
492.108	3.23
492.458	3.24
492.807	3.26
493.157	3.27
493.506	3.3
493.855	3.32
494.204	3.33
494.554	3.35
494.903	3.36
495.252	3.38
495.601	3.41
495.95	3.44
496.299	3.45
496.648	3.47
496.997	3.5
497.346	3.53
497.695	3.56
498.043	3.59
498.392	3.64
498.741	3.67
499.09	3.69
499.438	3.73
499.787	3.77
500.135	3.82
500.484	3.88
500.832	3.92
501.181	3.95
501.529	4.01
501.878	4.07
502.226	4.13
502.574	4.2
502.923	4.26
503.271	4.33
503.619	4.39
503.967	4.46
504.315	4.52
504.663	4.61
505.011	4.71
505.359	4.81
505.707	4.85
506.055	4.95
506.403	5.06
506.751	5.16
507.098	5.27
507.446	5.38
507.794	5.46
508.141	5.56
508.489	5.66
508.837	5.75
509.184	5.84
509.531	5.95
509.879	6.05
510.226	6.19
510.574	6.28
510.921	6.39
511.268	6.49
511.616	6.62
511.963	6.71
512.31	6.82
512.657	6.94
513.004	7.07
513.351	7.2
513.698	7.34
514.045	7.48
514.392	7.62
514.739	7.78
515.086	7.96
515.432	8.09
515.779	8.26
516.126	8.4
516.473	8.55
516.819	8.71
517.166	8.85
517.512	8.98
517.859	9.15
518.205	9.29
518.552	9.45
518.898	9.6
519.245	9.74
519.591	9.9
519.937	10.04
520.283	10.2
520.629	10.36
520.976	10.53
521.322	10.69
521.668	10.86
522.014	11.01
522.36	11.19
522.706	11.39
523.052	11.6
523.398	11.82
523.743	12.04
524.089	12.26
524.435	12.47
524.781	12.67
525.126	12.85
525.472	13.02
525.817	13.19
526.163	13.35
526.509	13.51
526.854	13.63
527.199	13.78
527.545	13.88
527.89	14.03
528.235	14.16
528.581	14.32
528.926	14.47
529.271	14.64
529.616	14.78
529.961	14.92
530.306	15.08
530.651	15.23
530.996	15.42
531.341	15.58
531.686	15.76
532.031	15.96
532.376	16.15
532.721	16.37
533.065	16.57
533.41	16.76
533.755	16.98
534.099	17.2
534.444	17.41
534.788	17.65
535.133	17.84
535.477	18.05
535.822	18.24
536.166	18.47
536.51	18.7
536.855	18.98
537.199	19.28
537.543	19.54
537.887	19.85
538.231	20.12
538.576	20.39
538.92	20.68
539.264	20.92
539.608	21.19
539.951	21.42
540.295	21.63
540.639	21.85
540.983	22.06
541.327	22.3
541.671	22.53
542.014	22.73
542.358	22.95
542.701	23.16
543.045	23.38
543.389	23.6
543.732	23.83
544.075	24.09
544.419	24.29
544.762	24.55
545.105	24.79
545.449	25.06
545.792	25.36
546.135	25.64
546.478	25.94
546.821	26.25
547.165	26.5
547.508	26.85
547.851	27.16
548.194	27.48
548.536	27.81
548.879	28.17
549.222	28.54
549.565	28.88
549.908	29.17
550.25	29.5
550.593	29.79
550.936	30.11
551.278	30.36
551.621	30.69
551.963	30.95
552.306	31.26
552.648	31.55
552.991	31.88
553.333	32.17
553.675	32.44
554.017	32.73
554.36	33.09
554.702	33.41
555.044	33.76
555.386	34.06
555.728	34.33
556.07	34.63
556.412	34.88
556.754	35.19
557.096	35.49
557.438	35.85
557.78	36.22
558.121	36.54
558.463	36.85
558.805	37.12
559.147	37.4
559.488	37.67
559.83	37.91
560.171	38.13
560.513	38.45
560.854	38.74
561.196	39.04
561.537	39.31
561.878	39.51
562.22	39.76
562.561	40.02
562.902	40.22
563.243	40.45
563.584	40.7
563.925	40.92
564.266	41.15
564.607	41.35
564.948	41.52
565.289	41.75
565.63	41.98
565.971	42.23
566.312	42.44
566.653	42.59
566.993	42.78
567.334	42.99
567.675	43.18
568.015	43.38
568.356	43.49
568.696	43.69
569.037	43.87
569.377	44
569.718	44.17
570.058	44.38
570.398	44.54
570.739	44.72
571.079	44.92
571.419	45.12
571.759	45.34
572.099	45.5
572.439	45.59
572.779	45.73
573.119	45.86
573.459	46
573.799	46.27
574.139	46.43
574.479	46.59
574.819	46.76
575.158	46.91
575.498	47.12
575.838	47.26
576.177	47.42
576.517	47.62
576.856	47.8
577.196	47.91
577.535	48.06
577.875	48.14
578.214	48.27
578.553	48.38
578.893	48.45
579.232	48.62
579.571	48.85
579.91	49.02
580.25	49.24
580.589	49.37
580.928	49.42
581.267	49.56
581.606	49.68
581.945	49.7
582.283	49.8
582.622	49.88
582.961	50.01
583.3	50.12
583.639	50.17
583.977	50.24
584.316	50.35
584.654	50.45
584.993	50.65
585.332	50.75
585.67	50.94
586.008	51.08
586.347	51.14
586.685	51.15
587.024	51.22
587.362	51.23
587.7	51.35
588.038	51.51
588.376	51.65
588.715	51.7
589.053	51.94
589.391	52.02
589.729	52.14
590.067	52.22
590.404	52.32
590.742	52.47
591.08	52.56
591.418	52.65
591.756	52.67
592.093	52.67
592.431	52.73
592.769	52.75
593.106	52.77
593.444	52.85
593.781	52.91
594.119	52.96
594.456	53.02
594.793	53.11
595.131	53.11
595.468	53.16
595.805	53.2
596.143	53.2
596.48	53.24
596.817	53.31
597.154	53.29
597.491	53.4
597.828	53.43
598.165	53.48
598.502	53.6
598.839	53.67
599.176	53.78
599.512	53.84
599.849	53.94
600.186	54
600.523	54.13
600.859	54.24
601.196	54.31
601.532	54.35
601.869	54.41
602.205	54.43
602.542	54.43
602.878	54.52
603.215	54.45
603.551	54.48
603.887	54.48
604.223	54.59
604.56	54.57
604.896	54.55
605.232	54.55
605.568	54.49
605.904	54.55
606.24	54.62
606.576	54.72
606.912	54.73
607.248	54.8
607.583	54.78
607.919	54.82
608.255	54.87
608.591	54.95
608.926	54.95
609.262	55.05
609.597	55.11
609.933	55.1
610.268	55.2
610.604	55.27
610.939	55.31
611.275	55.36
611.61	55.43
611.945	55.48
612.281	55.56
612.616	55.61
612.951	55.63
613.286	55.66
613.621	55.58
613.956	55.62
614.291	55.69
614.626	55.75
614.961	55.76
615.296	55.72
615.631	55.76
615.966	55.78
616.3	55.76
616.635	55.75
616.97	55.82
617.304	55.91
617.639	55.99
617.973	55.98
618.308	55.91
618.642	55.89
618.977	55.93
619.311	55.97
619.646	56.14
619.98	56.17
620.314	56.3
620.648	56.32
620.983	56.36
621.317	56.38
621.651	56.43
621.985	56.55
622.319	56.73
622.653	56.78
622.987	56.82
623.321	56.96
623.655	57.04
623.988	57.02
624.322	56.86
624.656	56.77
624.99	56.78
625.323	56.86
625.657	56.83
625.99	56.76
626.324	56.78
626.657	56.74
626.991	56.8
627.324	56.7
627.658	56.79
627.991	56.84
628.324	56.74
628.657	56.68
628.991	56.63
629.324	56.58
629.657	56.55
629.99	56.53
630.323	56.38
630.656	56.33
630.989	56.44
631.322	56.54
631.655	56.58
631.987	56.66
632.32	56.58
632.653	56.63
632.986	56.82
633.318	56.79
633.651	56.83
633.984	56.86
634.316	56.95
634.649	56.96
634.981	56.91
635.313	57.02
635.646	57.13
635.978	57.18
636.31	57.14
636.643	57.09
636.975	57.15
637.307	57.24
637.639	57.34
637.971	57.34
638.303	57.35
638.635	57.42
638.967	57.43
639.299	57.53
639.631	57.49
639.963	57.45
640.295	57.5
640.626	57.46
640.958	57.41
641.29	57.5
641.621	57.46
641.953	57.49
642.285	57.46
642.616	57.57
642.948	57.54
643.279	57.55
643.61	57.61
643.942	57.64
644.273	57.71
644.604	57.65
644.936	57.62
645.267	57.74
645.598	57.65
645.929	57.67
646.26	57.7
646.591	57.79
646.922	57.8
647.253	57.83
647.584	57.87
647.915	57.93
648.245	57.75
648.576	57.76
648.907	57.81
649.238	57.93
649.568	57.87
649.899	57.91
650.229	57.96
650.56	58
650.89	58.02
651.221	57.93
651.551	58.08
651.882	58.07
652.212	58.1
652.542	58.14
652.872	58.16
653.203	58.18
653.533	58.1
653.863	58.11
654.193	58.13
654.523	58.15
654.853	58.1
655.183	58.27
655.513	58.25
655.843	58.33
656.172	58.35
656.502	58.45
656.832	58.36
657.162	58.39
657.491	58.41
657.821	58.39
658.15	58.5
658.48	58.46
658.809	58.53
659.139	58.56
659.468	58.53
659.798	58.56
660.127	58.58
660.456	58.66
660.785	58.66
661.115	58.64
661.444	58.61
661.773	58.71
662.102	58.64
662.431	58.74
662.76	58.65
663.089	58.65
663.418	58.69
663.747	58.79
664.076	58.73
664.404	58.78
664.733	58.94
665.062	59.03
665.39	58.92
665.719	58.87
666.048	58.73
666.376	58.8
666.705	58.82
667.033	58.81
667.362	58.78
667.69	58.88
668.018	58.99
668.347	58.84
668.675	58.75
669.003	58.66
669.331	58.6
669.659	58.61
669.987	58.56
670.315	58.41
670.643	58.48
670.971	58.54
671.299	58.51
671.627	58.35
671.955	58.34
672.283	58.44
672.61	58.31
672.938	58.32
673.266	58.32
673.593	58.37
673.921	58.46
674.249	58.56
674.576	58.49
674.904	58.43
675.231	58.77
675.558	58.79
675.886	58.85
676.213	58.76
676.54	58.81
676.867	58.91
677.195	58.93
677.522	58.89
677.849	58.77
678.176	58.73
678.503	58.79
678.83	58.72
679.157	58.64
679.484	58.78
679.81	58.86
680.137	58.88
680.464	58.78
680.791	58.58
681.117	58.49
681.444	58.49
681.771	58.53
682.097	58.34
682.424	58.41
682.75	58.42
683.077	58.53
683.403	58.42
683.729	58.34
684.056	58.15
684.382	58.15
684.708	58.3
685.034	58.35
685.36	58.27
685.686	58.2
686.012	58.36
686.339	58.4
686.664	58.38
686.99	58.5
687.316	58.56
687.642	58.75
687.968	58.93
688.294	58.91
688.619	58.8
688.945	58.88
689.271	58.81
689.596	58.83
689.922	58.9
690.247	59.15
690.573	59.3
690.898	59.53
691.224	59.55
691.549	59.62
691.874	59.62
692.2	59.78
692.525	59.8
692.85	59.65
693.175	59.66
693.5	59.64
693.825	59.61
694.15	59.66
694.475	59.57
694.8	59.55
695.125	59.7
695.45	59.76
695.775	59.74
696.099	59.74
696.424	59.76
696.749	59.65
697.073	59.47
697.398	59.46
697.723	59.56
698.047	59.6
698.372	59.58
698.696	59.57
699.02	59.62
699.345	59.62
699.669	59.7
699.993	59.71
700.318	59.85
700.642	59.75
700.966	59.68
701.29	59.67
701.614	59.6
701.938	59.6
702.262	59.7
702.586	59.82
702.91	59.86
703.234	59.91
703.557	60.11
703.881	60.11
704.205	60.01
704.529	59.87
704.852	59.98
705.176	60.01
705.499	60.09
705.823	59.98
706.146	60
706.47	59.77
706.793	59.73
707.117	59.46
707.44	59.64
707.763	59.67
708.086	59.88
708.409	59.85
708.733	59.65
709.056	59.55
709.379	59.47
709.702	59.63
710.025	59.6
710.348	59.58
710.671	59.83
710.993	59.93
711.316	59.87
711.639	59.8
711.962	59.72
712.284	59.82
712.607	59.78
712.93	59.73
713.252	59.92
713.575	59.96
713.897	60.09
714.22	60.26
714.542	60.38
714.864	60.31
715.187	60.39
715.509	60.57
715.831	60.63
716.153	60.63
716.475	60.54
716.798	60.54
717.12	60.45
717.442	60.27
717.764	60.22
718.085	60.19
718.407	60.05
718.729	60.23
719.051	60.1
719.373	60.08
719.695	60.13
720.016	59.9
720.338	59.84
720.659	60.08
720.981	59.63
721.302	59.53
721.624	59.46
721.945	59.5
722.267	59.28
722.588	59.17
722.909	59.22
723.231	59.35
723.552	59.45
723.873	59.76
724.194	59.97
724.515	60
724.836	59.94
725.157	60.24
725.478	59.99
725.799	59.91
726.12	59.97
726.441	60.17
726.762	60.6
727.083	60.62
727.403	60.32
727.724	60.64
728.045	60.69
728.365	60.59
728.686	60.5
729.006	60.56
729.327	60.46
729.647	60.55
729.967	60.53
730.288	60.52
730.608	60.54
730.928	60.47
731.249	60.34
731.569	60.63
731.889	60.45
732.209	60.32
732.529	60.56
732.849	60.44
733.169	60.26
733.489	60.15
733.809	60.18
734.129	59.96
734.448	59.75
734.768	59.67
735.088	60
735.408	59.97
735.727	60.02
736.047	60.2
736.366	60.25
736.686	60.04
737.005	59.79
737.325	59.31
737.644	59.19
737.963	59.25
738.283	59.23
738.602	59.22
738.921	59.57
739.24	59.36
739.56	59.47
739.879	59.4
740.198	59.33
740.517	59.28
740.836	59.81
741.155	59.75
741.473	59.87
741.792	59.8
742.111	59.75
742.43	59.91
742.748	60.15
743.067	60.06
743.386	60.13
743.704	60.65
744.023	61.02
744.341	61.12
744.66	61.38
744.978	61.13
745.297	61.38
745.615	61.21
745.933	61.33
746.252	61.26
746.57	61.45
746.888	61.44
747.206	61.3
747.524	61.1
747.842	61.46
748.16	61.48
748.478	61.24
748.796	61.42
749.114	61.36
749.432	61.12
749.749	61.06
750.067	60.99
750.385	60.53
750.703	60.31
751.02	60.17
751.338	60.05
751.655	60.26
751.973	59.88
752.29	59.95
752.608	59.88
752.925	60.29
753.242	60.11
753.56	60.08
753.877	60.44
754.194	60.43
754.511	60.42
754.828	60.33
755.145	60.39
755.462	60.3
755.779	60.46
756.096	60.4
756.413	60.5
756.73	60.94
757.047	61.17
757.364	61.45
757.68	61.66
757.997	61.7
758.314	61.62
758.63	61.68
758.947	61.48
759.264	61.47
759.58	61.08
759.896	61.59
760.213	61.92
760.529	61.85
760.846	61.82
761.162	61.69
761.478	61.8
761.794	61.64
762.11	61.71
762.426	61.54
762.743	61.54
763.059	61.56
763.375	61.09
763.69	60.88
764.006	60.87
764.322	60.73
764.638	60.51
764.954	60.44
765.27	60.49
765.585	60.25
765.901	60.25
766.216	60.49
766.532	60.13
766.848	59.89
767.163	59.98
767.478	60.11
767.794	60.18
768.109	60.09
768.424	60.32
768.74	60.05
769.055	60.14
769.37	60.37
769.685	60.35
770	60.76
770.315	60.86
770.63	60.75
770.945	61.01
771.26	61.17
771.575	61.57
771.89	61.89
772.205	62.37
772.52	62.46
772.834	62.43
773.149	62.47
773.464	62.69
773.778	62.51
774.093	62.34
774.407	62.46
774.722	62.5
775.036	62.53
775.351	62.61
775.665	62.42
775.979	62.48
776.293	62.3
776.608	62.37
776.922	62.87
777.236	62.63
777.55	61.97
777.864	62.18
778.178	62.43
778.492	62.46
778.806	62.25
779.12	62.34
779.434	62.1
779.747	62.02
780.061	61.94
780.375	62.11
780.689	62.5
781.002	62.48
781.316	62.67
781.629	62.88
781.943	62.96
782.256	62.75
782.57	62.23
782.883	62.27
783.196	61.9
783.51	61.6
783.823	61.81
784.136	62.21
784.449	62.22
784.762	62.12
785.075	62.16
785.388	62.46
785.701	62.86
786.014	62.94
786.327	63.03
786.64	63.26
786.953	62.93
787.266	62.38
787.578	62.26
787.891	62.21
788.204	62.21
788.516	62.65
788.829	62.93
789.141	63.33
789.454	63.5
789.766	64.09
790.079	64.01
790.391	64.3
790.703	64.39
791.016	64.05
791.328	64.05
791.64	63.51
791.952	64.19
792.264	64.05
792.576	63.81
792.888	63.98
793.2	63.6
793.512	63.69
793.824	63.94
794.136	63.86
794.448	63.59
794.76	63.04
795.071	62.75
795.383	63.08
795.695	62.71
796.006	63.04
796.318	62.43
796.629	62.53
796.941	62.24
797.252	62.52
797.564	62.86
797.875	62.43
798.186	62.37
798.497	61.72
798.809	60.61
799.12	60.92
799.431	60.97
799.742	60.97
800.053	61.44
800.364	61.5
800.675	61.7
800.986	61.45
801.297	61.81
801.608	61.78
801.918	61.67
802.229	61.88
802.54	61.36
802.851	61.87
803.161	62.19
803.472	62.29
803.782	61.79
804.093	61.38
804.403	61.47
804.714	61.77
805.024	61.5
805.334	62.19
805.645	62.13
805.955	62.18
806.265	62.61
806.575	61.98
806.885	61.56
807.195	61.43
807.505	61.97
807.815	61.45
808.125	61.69
808.435	61.34
808.745	61.09
809.055	61.24
809.365	60.34
809.674	59.75
809.984	59.69
810.294	59.6
810.603	60.03
810.913	60.19
811.222	60.33
811.532	60.58
811.841	60.78
812.151	61.18
812.46	60.95
812.769	60.43
813.079	60.13
813.388	61.17
813.697	60.97
814.006	60.83
814.315	61.38
814.624	60.9
814.933	60.94
815.242	61.13
815.551	60.72
815.86	60.78
816.169	60.46
816.478	60.51
816.786	60.81
817.095	61.06
817.404	60.57
817.712	60.53
818.021	60.22
818.33	60.37
818.638	60.54
818.947	60.83
819.255	61.45
819.563	61.91
819.872	61.54
820.18	61.66
820.488	61.67
820.796	61.77
821.105	62.02
821.413	62.17
821.721	62.4
822.029	62.47
822.337	62.83
822.645	63.03
822.953	63.19
823.26	63.35
823.568	63.29
823.876	63.55
824.184	63.49
824.491	63.55
824.799	63.56
825.107	63.37
825.414	63.37
825.722	63.36
826.029	63.38
826.337	63.47
826.644	63.5
826.951	63.35
827.259	63.3
827.566	63.18
827.873	63.59
828.18	63.48
828.488	63.44
828.795	63.21
829.102	63.15
829.409	63.12
829.716	62.58
830.023	62.51
830.329	61.97
830.636	61.85
830.943	61.94
831.25	61.6
831.557	61.91
831.863	62.03
832.17	61.78
832.476	61.99
832.783	61.84
833.089	61.79
833.396	62.42
833.702	62.25
834.009	62.05
834.315	61.48
834.621	61.51
834.928	61.77
835.234	61.99
835.54	60.99
835.846	60.9
836.152	61.69
836.458	61.24
836.764	61.51
837.07	61.91
837.376	61.57
837.682	62.24
837.988	61.9
838.293	61.46
838.599	61.49
838.905	60.71
839.211	60.48
839.516	60.31
839.822	60
840.127	59.93
840.433	60.69
840.738	59.83
841.044	59.68
841.349	59.26
841.654	58.07
841.959	59.85
842.265	59.43
842.57	58.58
842.875	59.37
843.18	59.12
843.485	58.42
843.79	58.15
844.095	57.35
844.4	58.15
844.705	58.74
845.01	58.45
845.315	59.75
845.619	60.77
845.924	61.33
846.229	60.89
846.533	61.34
846.838	60.83
847.142	61.98
847.447	61.74
847.751	62.49
848.056	64.14
848.36	65.24
848.664	64.74
848.969	65.02
849.273	65.18
849.577	65.74
849.881	66.87
850.185	69.6
850.489	68.76
850.794	69.91
851.097	67.49
851.401	67.21
851.705	65.99
852.009	64.2
852.313	63.5
852.617	65.23
852.92	64.16
853.224	62.53
853.528	62.35
853.831	59.9
854.135	58.7
854.438	59.54
854.742	59.4
855.045	59.07
855.349	57.33
855.652	55.65
855.955	53.67
856.259	52.34
856.562	49.73
856.865	50.36
857.168	47.34
857.471	50.13
857.774	51.39
858.077	49.93
858.38	49.46
858.683	50.22
858.986	48.06
859.289	48.56
859.592	49.71
859.894	47.83
860.197	50.72
860.5	51.87
860.802	51.52
861.105	49.88
861.407	49.04
861.71	51.34
862.012	53.28
862.315	55.92
862.617	55.01
862.919	57.14
863.222	56.24
863.524	57.64
863.826	55.93
864.128	57.7
864.43	57.14
864.732	59.49
865.034	58.47
865.336	59.39
865.638	57.62
865.94	57.4
866.242	58.33
866.544	56.85
866.846	56.08
867.147	54.34
867.449	55.32
867.751	55.88
868.052	57.79
868.354	57.8
868.655	55.21
868.957	57.54
869.258	55.17
869.56	56.16
869.861	53.39
870.162	52.41
870.463	48.35
870.765	49.91
871.066	48.28
871.367	49.8
871.668	48.5
871.969	50.02
872.27	50.42
872.571	50.38
872.872	51.31
873.173	53.8
873.473	54.66
873.774	53.46
874.075	52.28
874.376	49.66
874.676	48.8
874.977	48.93
875.277	47.2
875.578	49.33
875.878	48.22
876.179	50.88
876.479	52.01
876.78	53.26
877.08	53.13
877.38	52.83
877.68	50.92
877.981	52.45
878.281	52.23
878.581	52.08
