Data from BU26945_Reflection_00009.txt Node
Date: Tue Nov 19 10:49:35 EST 2019
User: vgr7
Spectrometer: USB2G7710
Scans to average: 3
Trigger mode: 4
Integration Time (sec): 2.000000E-2
Electric dark correction enabled: true
Boxcar width: 10
XAxis mode: Wavelengths
Number of Pixels in Spectrum: 2048
>>>>>Begin Spectral Data<<<<<
177.721	100.38
178.105	132.89
178.488	628.27
178.871	659.38
179.254	464
179.636	531.68
180.019	963.64
180.402	-350
180.785	39.57
181.168	15.44
181.55	2.87
181.933	-19.97
182.316	-36.25
182.698	-20.25
183.081	-14.88
183.463	1.81
183.846	-5.98
184.228	-34.21
184.611	-19.24
184.993	-8.99
185.376	3.87
185.758	6.47
186.14	2.62
186.522	14.34
186.904	23.36
187.287	12.74
187.669	8.71
188.051	4.89
188.433	-8.14
188.815	-9.43
189.197	-13.64
189.579	-29.8
189.961	-43.53
190.342	-56.96
190.724	-80.51
191.106	-81.21
191.488	-58.83
191.869	-31.63
192.251	-17.63
192.633	-16.43
193.014	-12.23
193.396	-27.34
193.777	-30.6
194.159	-33.35
194.54	-39.92
194.922	-83.48
195.303	-128.18
195.684	-79.61
196.065	-68.75
196.447	-77.23
196.828	-73.68
197.209	-75.18
197.59	-28.39
197.971	-13.06
198.352	-15.73
198.733	-27.81
199.114	-37.17
199.495	-58.16
199.876	-74.78
200.257	-66.52
200.638	-76.48
201.018	-69.99
201.399	-67.82
201.78	-60.35
202.16	-56.8
202.541	-68.86
202.922	-71.05
203.302	-56.26
203.683	-65.53
204.063	-67.44
204.444	-57.1
204.824	-57.8
205.204	-27.31
205.585	-40.94
205.965	-44.43
206.345	-14.96
206.725	-4.46
207.106	14.28
207.486	13.49
207.866	15.36
208.246	19.58
208.626	19.19
209.006	1.08
209.386	9.65
209.766	8
210.145	6.14
210.525	23.32
210.905	43.81
211.285	45.77
211.664	48.29
212.044	60.16
212.424	56.74
212.803	43.36
213.183	16.87
213.562	19.28
213.942	27.05
214.321	22.93
214.701	29.07
215.08	19.13
215.459	25.73
215.838	31.49
216.218	28.12
216.597	34.54
216.976	39.53
217.355	44.3
217.734	57.88
218.113	65.36
218.492	46.44
218.871	42.8
219.25	53.93
219.629	56.47
220.008	26.98
220.387	32.45
220.766	48.87
221.144	67.73
221.523	82.88
221.902	90.01
222.28	61.13
222.659	65.8
223.037	42.7
223.416	37.66
223.794	35.96
224.173	29.68
224.551	27.85
224.929	23.68
225.308	18.09
225.686	22.33
226.064	14.39
226.442	16.92
226.821	17.62
227.199	16.88
227.577	17
227.955	20.12
228.333	16.06
228.711	15.51
229.089	13.2
229.467	8.02
229.845	5.09
230.222	8.82
230.6	5.19
230.978	10.09
231.356	11.27
231.733	9.26
232.111	9.68
232.488	9.59
232.866	11.57
233.243	12.07
233.621	10.44
233.998	10.21
234.376	12.03
234.753	9.84
235.13	9.03
235.508	8.82
235.885	7.33
236.262	9.07
236.639	9.84
237.016	9.91
237.393	11.7
237.77	11.74
238.147	10.01
238.524	10.79
238.901	8.5
239.278	6.57
239.655	7.95
240.032	7.87
240.409	7.58
240.785	6.83
241.162	6.47
241.539	6.57
241.915	7.12
242.292	6.67
242.668	7.35
243.045	7.17
243.421	7.31
243.798	7.19
244.174	6.92
244.551	6.63
244.927	6.57
245.303	5.95
245.679	5.89
246.056	5.99
246.432	5.9
246.808	6.08
247.184	6.67
247.56	6.03
247.936	6.18
248.312	6.46
248.688	6.34
249.064	6.33
249.44	5.99
249.815	5.91
250.191	5.99
250.567	5.55
250.943	5.68
251.318	5.44
251.694	5.32
252.069	5.3
252.445	5.34
252.82	5.58
253.196	5.87
253.571	5.78
253.947	5.7
254.322	5.72
254.697	5.47
255.073	4.93
255.448	5.49
255.823	5.26
256.198	5.2
256.573	5.3
256.948	5.48
257.323	5.61
257.698	5.82
258.073	5.46
258.448	5.64
258.823	5.13
259.198	5.08
259.573	5.18
259.948	5.28
260.322	5.05
260.697	4.91
261.072	5.07
261.446	5.23
261.821	5.13
262.195	5.02
262.57	5.11
262.944	5.27
263.319	5.22
263.693	5.25
264.067	5.04
264.442	5.19
264.816	5.12
265.19	5.09
265.564	4.83
265.938	5.03
266.313	4.71
266.687	4.83
267.061	4.87
267.435	5.05
267.809	4.87
268.183	4.87
268.556	4.79
268.93	4.7
269.304	4.66
269.678	4.78
270.051	4.76
270.425	4.65
270.799	4.51
271.172	4.49
271.546	4.5
271.919	4.57
272.293	4.43
272.666	4.46
273.04	4.46
273.413	4.48
273.787	4.41
274.16	4.43
274.533	4.56
274.906	4.49
275.279	4.42
275.653	4.38
276.026	4.47
276.399	4.65
276.772	4.55
277.145	4.52
277.518	4.52
277.891	4.63
278.263	5.08
278.636	5.28
279.009	5.17
279.382	5.25
279.755	5.27
280.127	5.34
280.5	5.18
280.872	5.29
281.245	5.19
281.617	5.05
281.99	5.06
282.362	5.03
282.735	5.1
283.107	4.88
283.479	4.96
283.852	4.95
284.224	4.91
284.596	4.89
284.968	4.68
285.34	4.67
285.713	4.61
286.085	4.31
286.457	4.3
286.829	4.41
287.201	4.33
287.572	4.39
287.944	4.31
288.316	4.44
288.688	4.52
289.06	4.61
289.431	4.78
289.803	4.83
290.175	4.67
290.546	4.7
290.918	4.77
291.289	4.71
291.661	4.77
292.032	4.76
292.403	4.65
292.775	4.87
293.146	5.04
293.517	5.15
293.889	5.26
294.26	5.16
294.631	5.19
295.002	5.24
295.373	5.39
295.744	5.39
296.115	5.47
296.486	5.46
296.857	5.5
297.228	5.45
297.599	5.5
297.97	5.78
298.34	5.81
298.711	6.08
299.082	6.18
299.452	6.24
299.823	6.15
300.194	6.42
300.564	6.42
300.935	6.41
301.305	6.44
301.676	6.5
302.046	6.82
302.416	6.79
302.787	6.85
303.157	6.76
303.527	7
303.897	6.99
304.267	7.16
304.637	6.92
305.008	7.27
305.378	7.47
305.748	7.54
306.117	7.55
306.487	7.45
306.857	7.61
307.227	7.73
307.597	7.97
307.967	8.01
308.336	8.12
308.706	8.1
309.076	8.32
309.445	8.41
309.815	8.34
310.184	8.35
310.554	8.4
310.923	8.44
311.293	8.58
311.662	8.58
312.031	8.4
312.401	8.81
312.77	8.68
313.139	8.66
313.508	8.72
313.877	8.81
314.246	8.83
314.616	8.93
314.985	9.01
315.353	9.03
315.722	9.14
316.091	9.29
316.46	9.46
316.829	9.5
317.198	9.62
317.567	9.67
317.935	9.95
318.304	10.07
318.672	10.16
319.041	10.09
319.41	10.24
319.778	10.4
320.147	10.32
320.515	10.42
320.883	10.21
321.252	10.29
321.62	10.21
321.988	10.44
322.357	10.36
322.725	10.28
323.093	10.24
323.461	10.35
323.829	10.28
324.197	10.4
324.565	10.42
324.933	10.32
325.301	10.29
325.669	10.28
326.037	10.28
326.405	10.32
326.772	10.4
327.14	10.44
327.508	10.28
327.875	10.32
328.243	10.32
328.61	10.59
328.978	10.63
329.346	10.73
329.713	10.69
330.08	10.66
330.448	10.76
330.815	10.89
331.182	10.77
331.55	10.78
331.917	10.69
332.284	10.62
332.651	10.82
333.018	10.86
333.385	11.07
333.752	11.2
334.119	11.23
334.486	11.36
334.853	11.4
335.22	11.62
335.587	11.7
335.954	11.7
336.32	11.85
336.687	11.72
337.054	11.89
337.42	11.91
337.787	11.96
338.153	12.12
338.52	12.1
338.886	12.2
339.253	12.31
339.619	12.42
339.986	12.48
340.352	12.35
340.718	12.42
341.084	12.25
341.451	12.2
341.817	12.26
342.183	12.16
342.549	12.27
342.915	12.26
343.281	12.28
343.647	12.38
344.013	12.25
344.379	12.36
344.745	12.32
345.11	12.29
345.476	12.42
345.842	12.34
346.208	12.45
346.573	12.49
346.939	12.49
347.304	12.45
347.67	12.5
348.035	12.61
348.401	12.7
348.766	12.77
349.132	12.78
349.497	12.77
349.862	12.8
350.228	12.7
350.593	12.72
350.958	12.8
351.323	12.72
351.688	12.74
352.053	12.79
352.418	12.76
352.783	12.79
353.148	12.74
353.513	12.71
353.878	12.6
354.243	12.59
354.608	12.56
354.972	12.53
355.337	12.54
355.702	12.52
356.066	12.44
356.431	12.47
356.795	12.52
357.16	12.49
357.524	12.47
357.889	12.47
358.253	12.43
358.618	12.41
358.982	12.49
359.346	12.49
359.71	12.5
360.075	12.48
360.439	12.58
360.803	12.6
361.167	12.58
361.531	12.64
361.895	12.55
362.259	12.53
362.623	12.59
362.987	12.53
363.351	12.55
363.714	12.56
364.078	12.51
364.442	12.4
364.806	12.45
365.169	12.4
365.533	12.35
365.896	12.39
366.26	12.27
366.623	12.22
366.987	12.23
367.35	12.22
367.714	12.26
368.077	12.2
368.44	12.15
368.803	12.14
369.167	12.07
369.53	12.08
369.893	12.1
370.256	12.08
370.619	12.01
370.982	11.88
371.345	11.85
371.708	11.76
372.071	11.77
372.434	11.64
372.797	11.64
373.159	11.54
373.522	11.51
373.885	11.57
374.247	11.5
374.61	11.41
374.973	11.32
375.335	11.26
375.698	11.09
376.06	10.99
376.423	10.95
376.785	10.91
377.147	10.84
377.51	10.78
377.872	10.66
378.234	10.62
378.596	10.58
378.958	10.52
379.321	10.4
379.683	10.34
380.045	10.31
380.407	10.23
380.769	10.22
381.13	10.07
381.492	9.94
381.854	9.83
382.216	9.84
382.578	9.74
382.939	9.68
383.301	9.67
383.663	9.61
384.024	9.57
384.386	9.55
384.747	9.49
385.109	9.39
385.47	9.4
385.832	9.37
386.193	9.35
386.554	9.3
386.916	9.32
387.277	9.25
387.638	9.22
387.999	9.18
388.36	9.21
388.721	9.23
389.082	9.18
389.443	9.16
389.804	9.05
390.165	9.02
390.526	8.99
390.887	8.96
391.248	8.89
391.609	8.8
391.969	8.71
392.33	8.67
392.691	8.63
393.051	8.52
393.412	8.44
393.772	8.39
394.133	8.31
394.493	8.26
394.854	8.23
395.214	8.17
395.574	8.11
395.935	8.02
396.295	7.96
396.655	7.88
397.015	7.86
397.376	7.81
397.736	7.75
398.096	7.62
398.456	7.55
398.816	7.53
399.176	7.47
399.535	7.43
399.895	7.34
400.255	7.29
400.615	7.28
400.975	7.23
401.334	7.18
401.694	7.16
402.054	7.08
402.413	7.03
402.773	6.98
403.132	6.91
403.492	6.87
403.851	6.79
404.211	6.75
404.57	6.71
404.929	6.66
405.288	6.64
405.648	6.64
406.007	6.63
406.366	6.62
406.725	6.59
407.084	6.57
407.443	6.6
407.802	6.58
408.161	6.54
408.52	6.51
408.879	6.51
409.238	6.48
409.596	6.51
409.955	6.48
410.314	6.44
410.673	6.44
411.031	6.39
411.39	6.38
411.748	6.42
412.107	6.37
412.465	6.35
412.824	6.32
413.182	6.28
413.54	6.23
413.899	6.2
414.257	6.19
414.615	6.13
414.974	6.07
415.332	6.05
415.69	6.03
416.048	6.01
416.406	5.94
416.764	5.9
417.122	5.86
417.48	5.84
417.838	5.81
418.195	5.79
418.553	5.78
418.911	5.75
419.269	5.7
419.626	5.65
419.984	5.61
420.342	5.59
420.699	5.56
421.057	5.53
421.414	5.49
421.772	5.44
422.129	5.43
422.486	5.41
422.844	5.37
423.201	5.33
423.558	5.3
423.915	5.31
424.273	5.3
424.63	5.26
424.987	5.24
425.344	5.22
425.701	5.19
426.058	5.17
426.415	5.15
426.772	5.13
427.128	5.13
427.485	5.13
427.842	5.1
428.199	5.1
428.555	5.07
428.912	5.06
429.269	5.06
429.625	5.05
429.982	5.07
430.338	5.07
430.695	5.06
431.051	5.06
431.407	5.03
431.764	5.03
432.12	5.04
432.476	5.02
432.832	5.03
433.189	5.03
433.545	5.01
433.901	5.01
434.257	4.98
434.613	4.99
434.969	4.99
435.325	4.99
435.681	4.96
436.036	4.99
436.392	5.01
436.748	5.02
437.104	5.03
437.459	5
437.815	5.01
438.171	5.03
438.526	5.04
438.882	5.03
439.237	5.01
439.593	5.01
439.948	5
440.304	5
440.659	5.02
441.014	5.02
441.369	5.02
441.725	5.04
442.08	5.02
442.435	5
442.79	4.99
443.145	5
443.5	4.97
443.855	4.95
444.21	4.96
444.565	4.94
444.92	4.94
445.275	4.93
445.629	4.91
445.984	4.9
446.339	4.9
446.693	4.89
447.048	4.88
447.403	4.87
447.757	4.85
448.112	4.83
448.466	4.82
448.82	4.8
449.175	4.77
449.529	4.77
449.883	4.76
450.238	4.75
450.592	4.75
450.946	4.74
451.3	4.71
451.654	4.66
452.008	4.66
452.362	4.64
452.716	4.6
453.07	4.59
453.424	4.56
453.778	4.54
454.132	4.5
454.486	4.51
454.839	4.51
455.193	4.5
455.547	4.5
455.9	4.53
456.254	4.52
456.607	4.54
456.961	4.54
457.314	4.55
457.668	4.56
458.021	4.56
458.375	4.56
458.728	4.58
459.081	4.59
459.434	4.57
459.787	4.6
460.141	4.61
460.494	4.62
460.847	4.64
461.2	4.66
461.553	4.71
461.906	4.72
462.259	4.73
462.611	4.76
462.964	4.76
463.317	4.77
463.67	4.81
464.022	4.83
464.375	4.85
464.728	4.85
465.08	4.88
465.433	4.91
465.785	4.94
466.138	4.97
466.49	5
466.843	5.03
467.195	5.04
467.547	5.07
467.899	5.11
468.252	5.13
468.604	5.13
468.956	5.12
469.308	5.16
469.66	5.18
470.012	5.22
470.364	5.25
470.716	5.25
471.068	5.27
471.42	5.28
471.772	5.34
472.123	5.36
472.475	5.39
472.827	5.4
473.178	5.45
473.53	5.46
473.882	5.49
474.233	5.51
474.585	5.53
474.936	5.55
475.288	5.56
475.639	5.58
475.99	5.58
476.342	5.6
476.693	5.61
477.044	5.62
477.395	5.61
477.746	5.59
478.097	5.56
478.448	5.54
478.8	5.52
479.15	5.49
479.501	5.47
479.852	5.44
480.203	5.43
480.554	5.41
480.905	5.4
481.255	5.37
481.606	5.36
481.957	5.36
482.307	5.32
482.658	5.32
483.009	5.29
483.359	5.28
483.709	5.27
484.06	5.25
484.41	5.24
484.761	5.23
485.111	5.23
485.461	5.23
485.811	5.22
486.162	5.23
486.512	5.22
486.862	5.23
487.212	5.22
487.562	5.21
487.912	5.22
488.262	5.2
488.612	5.2
488.961	5.21
489.311	5.2
489.661	5.21
490.011	5.22
490.36	5.22
490.71	5.23
491.06	5.25
491.409	5.25
491.759	5.27
492.108	5.27
492.458	5.3
492.807	5.33
493.157	5.38
493.506	5.4
493.855	5.43
494.204	5.44
494.554	5.48
494.903	5.54
495.252	5.57
495.601	5.64
495.95	5.71
496.299	5.77
496.648	5.83
496.997	5.89
497.346	5.97
497.695	6.08
498.043	6.19
498.392	6.27
498.741	6.39
499.09	6.49
499.438	6.6
499.787	6.69
500.135	6.79
500.484	6.88
500.832	6.98
501.181	7.13
501.529	7.28
501.878	7.42
502.226	7.57
502.574	7.75
502.923	7.9
503.271	8.07
503.619	8.25
503.967	8.41
504.315	8.57
504.663	8.76
505.011	8.96
505.359	9.13
505.707	9.32
506.055	9.53
506.403	9.73
506.751	9.93
507.098	10.14
507.446	10.34
507.794	10.56
508.141	10.81
508.489	11.03
508.837	11.25
509.184	11.47
509.531	11.67
509.879	11.88
510.226	12.11
510.574	12.34
510.921	12.54
511.268	12.8
511.616	13.04
511.963	13.28
512.31	13.53
512.657	13.78
513.004	14.05
513.351	14.32
513.698	14.59
514.045	14.87
514.392	15.15
514.739	15.45
515.086	15.77
515.432	16.05
515.779	16.3
516.126	16.58
516.473	16.85
516.819	17.11
517.166	17.35
517.512	17.61
517.859	17.83
518.205	18.05
518.552	18.26
518.898	18.49
519.245	18.73
519.591	18.96
519.937	19.18
520.283	19.44
520.629	19.68
520.976	19.97
521.322	20.26
521.668	20.52
522.014	20.8
522.36	21.04
522.706	21.3
523.052	21.66
523.398	21.99
523.743	22.34
524.089	22.65
524.435	22.96
524.781	23.26
525.126	23.56
525.472	23.82
525.817	24.07
526.163	24.3
526.509	24.49
526.854	24.67
527.199	24.84
527.545	25
527.89	25.16
528.235	25.31
528.581	25.48
528.926	25.69
529.271	25.87
529.616	26.06
529.961	26.27
530.306	26.45
530.651	26.64
530.996	26.84
531.341	27.07
531.686	27.26
532.031	27.46
532.376	27.68
532.721	27.92
533.065	28.13
533.41	28.36
533.755	28.61
534.099	28.87
534.444	29.11
534.788	29.36
535.133	29.62
535.477	29.86
535.822	30.1
536.166	30.32
536.51	30.65
536.855	30.97
537.199	31.24
537.543	31.56
537.887	31.85
538.231	32.13
538.576	32.42
538.92	32.72
539.264	33
539.608	33.22
539.951	33.45
540.295	33.69
540.639	33.94
540.983	34.15
541.327	34.35
541.671	34.61
542.014	34.85
542.358	35.07
542.701	35.27
543.045	35.51
543.389	35.72
543.732	35.84
544.075	35.99
544.419	36.21
544.762	36.37
545.105	36.62
545.449	36.85
545.792	37.09
546.135	37.33
546.478	37.61
546.821	37.92
547.165	38.2
547.508	38.51
547.851	38.73
548.194	39.03
548.536	39.26
548.879	39.5
549.222	39.7
549.565	39.94
549.908	40.23
550.25	40.4
550.593	40.61
550.936	40.9
551.278	41.13
551.621	41.33
551.963	41.55
552.306	41.74
552.648	41.97
552.991	42.12
553.333	42.34
553.675	42.51
554.017	42.67
554.36	42.87
554.702	43.05
555.044	43.23
555.386	43.39
555.728	43.6
556.07	43.72
556.412	43.88
556.754	44.04
557.096	44.23
557.438	44.48
557.78	44.77
558.121	44.96
558.463	45.19
558.805	45.44
559.147	45.68
559.488	45.79
559.83	45.95
560.171	46.18
560.513	46.41
560.854	46.53
561.196	46.64
561.537	46.74
561.878	46.86
562.22	46.98
562.561	47.09
562.902	47.26
563.243	47.38
563.584	47.48
563.925	47.57
564.266	47.7
564.607	47.8
564.948	47.89
565.289	48.09
565.63	48.21
565.971	48.24
566.312	48.34
566.653	48.44
566.993	48.61
567.334	48.73
567.675	48.79
568.015	49
568.356	49.1
568.696	49.24
569.037	49.41
569.377	49.55
569.718	49.64
570.058	49.69
570.398	49.81
570.739	50
571.079	50.14
571.419	50.14
571.759	50.2
572.099	50.27
572.439	50.28
572.779	50.37
573.119	50.48
573.459	50.59
573.799	50.74
574.139	50.75
574.479	50.88
574.819	50.93
575.158	51.01
575.498	51.17
575.838	51.22
576.177	51.24
576.517	51.39
576.856	51.48
577.196	51.54
577.535	51.62
577.875	51.62
578.214	51.76
578.553	51.94
578.893	52.09
579.232	52.27
579.571	52.38
579.91	52.44
580.25	52.6
580.589	52.62
580.928	52.67
581.267	52.83
581.606	52.82
581.945	52.91
582.283	52.89
582.622	52.95
582.961	53.14
583.3	53.16
583.639	53.11
583.977	53.25
584.316	53.41
584.654	53.5
584.993	53.64
585.332	53.62
585.67	53.74
586.008	53.81
586.347	53.78
586.685	53.81
587.024	53.91
587.362	53.94
587.7	53.99
588.038	54.03
588.376	54.07
588.715	54.02
589.053	54.14
589.391	54.25
589.729	54.24
590.067	54.22
590.404	54.29
590.742	54.39
591.08	54.39
591.418	54.43
591.756	54.48
592.093	54.55
592.431	54.59
592.769	54.58
593.106	54.6
593.444	54.62
593.781	54.76
594.119	54.79
594.456	54.89
594.793	54.94
595.131	55.03
595.468	55.08
595.805	55.22
596.143	55.24
596.48	55.23
596.817	55.33
597.154	55.43
597.491	55.52
597.828	55.55
598.165	55.67
598.502	55.69
598.839	55.78
599.176	55.77
599.512	55.84
599.849	55.83
600.186	55.85
600.523	55.94
600.859	55.88
601.196	55.9
601.532	55.91
601.869	56.02
602.205	56.04
602.542	56.01
602.878	55.99
603.215	56.11
603.551	56.14
603.887	56.22
604.223	56.2
604.56	56.2
604.896	56.2
605.232	56.19
605.568	56.24
605.904	56.2
606.24	56.27
606.576	56.25
606.912	56.33
607.248	56.39
607.583	56.38
607.919	56.43
608.255	56.49
608.591	56.5
608.926	56.52
609.262	56.52
609.597	56.63
609.933	56.74
610.268	56.73
610.604	56.75
610.939	56.72
611.275	56.79
611.61	56.86
611.945	56.93
612.281	56.92
612.616	56.95
612.951	57.04
613.286	57.06
613.621	57.17
613.956	57.22
614.291	57.24
614.626	57.46
614.961	57.53
615.296	57.51
615.631	57.52
615.966	57.59
616.3	57.78
616.635	57.75
616.97	57.71
617.304	57.7
617.639	57.8
617.973	57.74
618.308	57.72
618.642	57.7
618.977	57.77
619.311	57.86
619.646	57.89
619.98	57.97
620.314	58
620.648	57.97
620.983	57.97
621.317	58.05
621.651	57.94
621.985	57.92
622.319	58.09
622.653	58.1
622.987	58.2
623.321	58.18
623.655	58.21
623.988	58.23
624.322	58.28
624.656	58.29
624.99	58.39
625.323	58.3
625.657	58.31
625.99	58.27
626.324	58.22
626.657	58.22
626.991	58.18
627.324	58.15
627.658	58.17
627.991	58.21
628.324	58.23
628.657	58.29
628.991	58.36
629.324	58.36
629.657	58.32
629.99	58.22
630.323	58.18
630.656	58.05
630.989	58.07
631.322	57.99
631.655	58.04
631.987	58.04
632.32	58.18
632.653	58.2
632.986	58.25
633.318	58.36
633.651	58.36
633.984	58.35
634.316	58.39
634.649	58.5
634.981	58.5
635.313	58.5
635.646	58.51
635.978	58.48
636.31	58.53
636.643	58.65
636.975	58.65
637.307	58.73
637.639	58.93
637.971	59.03
638.303	59.12
638.635	59.04
638.967	59.1
639.299	59.13
639.631	59.25
639.963	59.23
640.295	59.31
640.626	59.38
640.958	59.46
641.29	59.52
641.621	59.45
641.953	59.46
642.285	59.44
642.616	59.37
642.948	59.39
643.279	59.25
643.61	59.22
643.942	59.33
644.273	59.28
644.604	59.25
644.936	59.15
645.267	59.13
645.598	59.18
645.929	59.03
646.26	59.01
646.591	58.99
646.922	59.08
647.253	59.03
647.584	58.92
647.915	58.86
648.245	58.88
648.576	58.88
648.907	58.78
649.238	58.79
649.568	58.76
649.899	58.79
650.229	58.91
650.56	59
650.89	58.97
651.221	58.96
651.551	59.04
651.882	59.08
652.212	59.12
652.542	59.14
652.872	59.34
653.203	59.28
653.533	59.23
653.863	59.22
654.193	59.18
654.523	59.27
654.853	59.31
655.183	59.29
655.513	59.37
655.843	59.49
656.172	59.5
656.502	59.68
656.832	59.72
657.162	59.66
657.491	59.61
657.821	59.64
658.15	59.69
658.48	59.73
658.809	59.65
659.139	59.71
659.468	59.76
659.798	59.76
660.127	59.83
660.456	59.74
660.785	59.73
661.115	59.74
661.444	59.65
661.773	59.62
662.102	59.7
662.431	59.67
662.76	59.65
663.089	59.82
663.418	59.76
663.747	59.61
664.076	59.69
664.404	59.72
664.733	59.68
665.062	59.6
665.39	59.55
665.719	59.73
666.048	59.8
666.376	59.86
666.705	59.84
667.033	59.92
667.362	60.09
667.69	60.03
668.018	60.08
668.347	60.26
668.675	60.38
669.003	60.15
669.331	60.33
669.659	60.48
669.987	60.4
670.315	60.35
670.643	60.46
670.971	60.4
671.299	60.4
671.627	60.43
671.955	60.41
672.283	60.42
672.61	60.3
672.938	60.25
673.266	60.26
673.593	60.37
673.921	60.32
674.249	60.34
674.576	60.42
674.904	60.33
675.231	60.32
675.558	60.29
675.886	60.43
676.213	60.28
676.54	60.21
676.867	60.12
677.195	60.12
677.522	60.28
677.849	60.19
678.176	60.18
678.503	60.21
678.83	60.26
679.157	60.23
679.484	60.19
679.81	60.08
680.137	60.14
680.464	60.04
680.791	60.07
681.117	60.08
681.444	60.07
681.771	60.15
682.097	60.06
682.424	60.1
682.75	60.1
683.077	60.15
683.403	60.11
683.729	60.18
684.056	60.37
684.382	60.18
684.708	60.3
685.034	60.24
685.36	60.16
685.686	60.17
686.012	60.18
686.339	60.32
686.664	60.35
686.99	60.17
687.316	60.26
687.642	60.26
687.968	60.35
688.294	60.46
688.619	60.4
688.945	60.5
689.271	60.4
689.596	60.38
689.922	60.48
690.247	60.47
690.573	60.47
690.898	60.32
691.224	60.38
691.549	60.21
691.874	60.36
692.2	60.43
692.525	60.52
692.85	60.66
693.175	60.61
693.5	60.65
693.825	60.64
694.15	60.65
694.475	60.43
694.8	60.46
695.125	60.3
695.45	60.45
695.775	60.53
696.099	60.58
696.424	60.7
696.749	60.63
697.073	60.69
697.398	60.8
697.723	60.81
698.047	60.82
698.372	60.97
698.696	60.93
699.02	60.99
699.345	60.95
699.669	60.77
699.993	60.74
700.318	60.74
700.642	60.72
700.966	60.7
701.29	60.87
701.614	60.78
701.938	60.83
702.262	60.81
702.586	60.94
702.91	61.16
703.234	61.17
703.557	61.15
703.881	61.13
704.205	60.97
704.529	61
704.852	61.05
705.176	61.02
705.499	60.93
705.823	60.87
706.146	61.05
706.47	61.41
706.793	61.44
707.117	61.68
707.44	61.73
707.763	61.59
708.086	61.67
708.409	61.56
708.733	61.59
709.056	61.63
709.379	61.44
709.702	61.2
710.025	61.18
710.348	61.15
710.671	61.12
710.993	61.3
711.316	61.25
711.639	61.31
711.962	61.43
712.284	61.48
712.607	61.47
712.93	61.39
713.252	61.07
713.575	61.01
713.897	61.15
714.22	61.25
714.542	61.46
714.864	61.35
715.187	61.32
715.509	61.35
715.831	61.3
716.153	61.43
716.475	61.62
716.798	61.78
717.12	61.7
717.442	61.65
717.764	61.71
718.085	61.69
718.407	61.6
718.729	61.52
719.051	61.62
719.373	61.82
719.695	61.79
720.016	61.84
720.338	62.01
720.659	61.89
720.981	62.11
721.302	62.1
721.624	62.12
721.945	62.25
722.267	62.36
722.588	62.48
722.909	62.24
723.231	61.85
723.552	61.78
723.873	62.17
724.194	62.17
724.515	62.09
724.836	62.09
725.157	62.32
725.478	62.44
725.799	62.53
726.12	62.22
726.441	62.25
726.762	62.28
727.083	62.41
727.403	62.13
727.724	62.17
728.045	62.11
728.365	62.18
728.686	62.25
729.006	62.13
729.327	61.92
729.647	61.65
729.967	62.05
730.288	62.06
730.608	61.89
730.928	61.91
731.249	61.79
731.569	61.8
731.889	61.66
732.209	61.59
732.529	61.57
732.849	61.69
733.169	61.75
733.489	61.67
733.809	61.53
734.129	61.49
734.448	61.32
734.768	61.24
735.088	61.18
735.408	61.23
735.727	61.37
736.047	61.61
736.366	62.15
736.686	61.98
737.005	61.97
737.325	62.08
737.644	61.89
737.963	61.91
738.283	61.96
738.602	61.86
738.921	61.88
739.24	62.09
739.56	61.97
739.879	61.73
740.198	61.8
740.517	61.87
740.836	62.07
741.155	62.08
741.473	62.07
741.792	62.04
742.111	62.19
742.43	62.21
742.748	62.18
743.067	62.18
743.386	62.14
743.704	61.84
744.023	61.41
744.341	61.87
744.66	61.77
744.978	61.55
745.297	61.56
745.615	61.49
745.933	61.26
746.252	61.74
746.57	61.83
746.888	62.09
747.206	62.03
747.524	61.81
747.842	61.58
748.16	61.85
748.478	62.06
748.796	62.18
749.114	61.9
749.432	61.73
749.749	61.41
750.067	61.4
750.385	61.42
750.703	61.89
751.02	61.55
751.338	61.81
751.655	62.4
751.973	62.69
752.29	62.95
752.608	62.73
752.925	62.01
753.242	62.55
753.56	62.08
753.877	62.28
754.194	62.2
754.511	62.16
754.828	61.89
755.145	61.77
755.462	61.56
755.779	61.76
756.096	61.77
756.413	62.31
756.73	62.59
757.047	63.03
757.364	62.88
757.68	63.31
757.997	63.1
758.314	62.81
758.63	62.82
758.947	62.38
759.264	62.6
759.58	63.24
759.896	62.57
760.213	62.83
760.529	62.56
760.846	62.89
761.162	63.07
761.478	63.02
761.794	62.91
762.11	62.84
762.426	62.83
762.743	62.82
763.059	62.67
763.375	62.41
763.69	62.24
764.006	62.02
764.322	61.85
764.638	62.11
764.954	62.17
765.27	62.14
765.585	62.71
765.901	62.71
766.216	62.41
766.532	62.68
766.848	62.73
767.163	62.83
767.478	62.56
767.794	62.55
768.109	62.77
768.424	63.07
768.74	63.17
769.055	63.57
769.37	63.43
769.685	63.29
770	63.29
770.315	63.19
770.63	63.6
770.945	63.74
771.26	63.55
771.575	63.36
771.89	63.29
772.205	62.59
772.52	62.26
772.834	62.26
773.149	62.13
773.464	62.29
773.778	62.6
774.093	63.09
774.407	63.08
774.722	62.71
775.036	62.52
775.351	62.37
775.665	61.76
775.979	61.98
776.293	61.54
776.608	61.37
776.922	61.39
777.236	61.55
777.55	61.19
777.864	61.52
778.178	61.69
778.492	61.23
778.806	61.02
779.12	61.07
779.434	61.18
779.747	60.56
780.061	60.24
780.375	60.44
780.689	60.13
781.002	60.02
781.316	59.84
781.629	59.82
781.943	59.58
782.256	59.77
782.57	59.82
782.883	60.76
783.196	61.36
783.51	61.2
783.823	61.2
784.136	61.42
784.449	60.9
784.762	60.58
785.075	60.51
785.388	61.09
785.701	61.03
786.014	61.24
786.327	61.65
786.64	62.38
786.953	62.2
787.266	62.11
787.578	62.22
787.891	62.73
788.204	62.34
788.516	62.47
788.829	62.78
789.141	63.13
789.454	62.49
789.766	62.57
790.079	63.06
790.391	62.72
790.703	63
791.016	63.29
791.328	63.78
791.64	64.22
791.952	64.15
792.264	64.26
792.576	64.24
792.888	64.79
793.2	64.35
793.512	63.58
793.824	63.93
794.136	63.43
794.448	63.36
794.76	63.81
795.071	63.93
795.383	63.44
795.695	63.35
796.006	63.58
796.318	62.79
796.629	63.32
796.941	63.41
797.252	63.13
797.564	62.35
797.875	62.41
798.186	62.52
798.497	62.16
798.809	62.14
799.12	62.02
799.431	61.54
799.742	61.26
800.053	62.14
800.364	62.25
800.675	62.74
800.986	62.88
801.297	62.77
801.608	63.12
801.918	62.67
802.229	62.75
802.54	62.47
802.851	62.84
803.161	62.16
803.472	62.33
803.782	61.96
804.093	62.47
804.403	62.17
804.714	61.97
805.024	62.28
805.334	62.94
805.645	63.01
805.955	63.46
806.265	63.66
806.575	63.62
806.885	63.32
807.195	63.29
807.505	62.61
807.815	62.69
808.125	62.34
808.435	62.93
808.745	61.73
809.055	62.15
809.365	62.77
809.674	62.76
809.984	63.26
810.294	64.7
810.603	64.66
810.913	64.77
811.222	64.96
811.532	64.76
811.841	64.05
812.151	63.55
812.46	63.54
812.769	63.15
813.079	61.87
813.388	61.33
813.697	61.78
814.006	61.88
814.315	61.82
814.624	61.77
814.933	62.19
815.242	63.41
815.551	62.85
815.86	63.13
816.169	62.5
816.478	61.84
816.786	60.71
817.095	60.82
817.404	60.79
817.712	60.75
818.021	61.14
818.33	61.27
818.638	61.72
818.947	61.67
819.255	61.95
819.563	62.31
819.872	62.42
820.18	62.5
820.488	62.69
820.796	62.67
821.105	62.41
821.413	62.29
821.721	62.32
822.029	62.67
822.337	62.58
822.645	62.77
822.953	62.84
823.26	62.81
823.568	62.78
823.876	62.64
824.184	62.64
824.491	62.52
824.799	62.53
825.107	62.65
825.414	62.66
825.722	62.88
826.029	62.96
826.337	63.15
826.644	63.01
826.951	63.01
827.259	62.8
827.566	63.18
827.873	63.36
828.18	63.33
828.488	63.22
828.795	63.2
829.102	63.28
829.409	63.12
829.716	63.34
830.023	63.08
830.329	62.96
830.636	62.9
830.943	63.01
831.25	63.14
831.557	62.66
831.863	62.87
832.17	62.08
832.476	62.07
832.783	62.09
833.089	62.15
833.396	62.41
833.702	63.42
834.009	63.23
834.315	62.71
834.621	62.24
834.928	62.27
835.234	62.12
835.54	62.14
835.846	62.29
836.152	62.25
836.458	62.84
836.764	63.17
837.07	63.81
837.376	64.36
837.682	64.54
837.988	64.85
838.293	65.15
838.599	65.57
838.905	65.55
839.211	65.15
839.516	64.98
839.822	65.4
840.127	64.1
840.433	64.01
840.738	64.37
841.044	65.24
841.349	65.08
841.654	66.17
841.959	66
842.265	65.87
842.57	65.99
842.875	65.7
843.18	67.69
843.485	66.9
843.79	66.72
844.095	67.51
844.4	68.19
844.705	66.51
845.01	66.61
845.315	67.44
845.619	67.96
845.924	68.18
846.229	67.94
846.533	69.17
846.838	69.04
847.142	68.92
847.447	67.86
847.751	66.87
848.056	67.57
848.36	70.06
848.664	70.97
848.969	69.69
849.273	71.77
849.577	69.94
849.881	69.62
850.185	66.42
850.489	66.09
850.794	64.71
851.097	67.37
851.401	67.18
851.705	66.38
852.009	66.75
852.313	68.93
852.617	67.94
852.92	67.15
853.224	67.56
853.528	68.82
853.831	71.43
854.135	71.9
854.438	69.69
854.742	67.2
855.045	66.88
855.349	69.61
855.652	71.1
855.955	71.72
856.259	70.14
856.562	74.18
856.865	72.87
857.168	74.46
857.471	72.83
857.774	74.21
858.077	73.94
858.38	74.57
858.683	73.35
858.986	74.38
859.289	77.19
859.592	76.1
859.894	78.27
860.197	75.96
860.5	76.77
860.802	73.09
861.105	72.17
861.407	69.91
861.71	68.91
862.012	66.57
862.315	65.1
862.617	66.37
862.919	66.3
863.222	64.21
863.524	62.84
863.826	63.51
864.128	63.86
864.43	63.49
864.732	61.67
865.034	61.24
865.336	59.69
865.638	57.87
865.94	60.6
866.242	58.52
866.544	61.18
866.846	64.13
867.147	65.56
867.449	66.77
867.751	66.59
868.052	66.55
868.354	65.41
868.655	64.61
868.957	64.16
869.258	62.95
869.56	64.45
869.861	64.24
870.162	64.21
870.463	63.92
870.765	64.93
871.066	65.7
871.367	68.21
871.668	65.9
871.969	68.84
872.27	66.7
872.571	63.71
872.872	62.44
873.173	57.92
873.473	59.34
873.774	57.17
874.075	60.4
874.376	61.11
874.676	64.26
874.977	65.53
875.277	66.72
875.578	66.83
875.878	67.13
876.179	68.08
876.479	67.1
876.78	66.99
877.08	66.78
877.38	67.26
877.68	64.83
877.981	69.49
878.281	66.7
878.581	67.18
