Data from BU26938_Reflection_00012.txt Node
Date: Tue Nov 19 10:42:30 EST 2019
User: vgr7
Spectrometer: USB2G7710
Scans to average: 3
Trigger mode: 4
Integration Time (sec): 2.000000E-2
Electric dark correction enabled: true
Boxcar width: 10
XAxis mode: Wavelengths
Number of Pixels in Spectrum: 2048
>>>>>Begin Spectral Data<<<<<
177.721	229.55
178.105	-1092.31
178.488	840.6
178.871	3050
179.254	103.23
179.636	273.3
180.019	142.66
180.402	33.33
180.785	610.53
181.168	332.82
181.55	457.14
181.933	181.15
182.316	924.68
182.698	-2529.03
183.081	318.63
183.463	-492.02
183.846	-1039.34
184.228	-1121.52
184.611	-2911.63
184.993	-1847.06
185.376	-24828.57
185.758	650.47
186.14	760.66
186.522	511.06
186.904	1009.3
187.287	371.29
187.669	372.66
188.051	334.24
188.433	710.54
188.815	632.42
189.197	473.89
189.579	564.06
189.961	1373.4
190.342	325.86
190.724	636.12
191.106	748.25
191.488	371.32
191.869	258.65
192.251	201.04
192.633	228.59
193.014	187.95
193.396	166.07
193.777	136.48
194.159	107.79
194.54	120.02
194.922	121.37
195.303	110.51
195.684	98.67
196.065	102.31
196.447	62.54
196.828	52.04
197.209	43.44
197.59	35.64
197.971	21.19
198.352	16.06
198.733	6.64
199.114	2.26
199.495	5.98
199.876	-5.22
200.257	-8.93
200.638	-4.56
201.018	-2.59
201.399	-2.76
201.78	11.62
202.16	19.83
202.541	7.67
202.922	3.01
203.302	10.76
203.683	19.22
204.063	14.5
204.444	24.51
204.824	41.42
205.204	55.51
205.585	79.44
205.965	167.3
206.345	131.68
206.725	138.69
207.106	112.57
207.486	118.11
207.866	138.24
208.246	167.62
208.626	208.14
209.006	260.52
209.386	333.25
209.766	296.13
210.145	270.51
210.525	693.67
210.905	704.44
211.285	383.96
211.664	317.59
212.044	468.76
212.424	324.24
212.803	397.99
213.183	391.08
213.562	293.84
213.942	185.37
214.321	236.87
214.701	246.67
215.08	266.28
215.459	208.15
215.838	192.52
216.218	157.57
216.597	163.23
216.976	113.24
217.355	98.26
217.734	96.1
218.113	108.44
218.492	82.86
218.871	83.12
219.25	77.31
219.629	68.31
220.008	66.38
220.387	71.3
220.766	52.39
221.144	66.33
221.523	68.1
221.902	61.68
222.28	47.09
222.659	60.62
223.037	51.47
223.416	50.3
223.794	55.82
224.173	54.12
224.551	38.76
224.929	44.48
225.308	28.09
225.686	26.76
226.064	22.64
226.442	21.91
226.821	20.29
227.199	22.11
227.577	26.03
227.955	23.72
228.333	24.29
228.711	31.28
229.089	27.36
229.467	25.69
229.845	25.6
230.222	27.52
230.6	22.01
230.978	23
231.356	23.7
231.733	23.67
232.111	20.52
232.488	20.31
232.866	22.5
233.243	26.57
233.621	24.24
233.998	24.1
234.376	22.86
234.753	21.54
235.13	22.77
235.508	21.43
235.885	19.03
236.262	17.54
236.639	16.58
237.016	16.06
237.393	13.92
237.77	14.03
238.147	12.8
238.524	12.65
238.901	12.5
239.278	10.15
239.655	9.8
240.032	10.17
240.409	10.3
240.785	9.17
241.162	8.91
241.539	8.94
241.915	8.27
242.292	8.78
242.668	8.54
243.045	7.87
243.421	7.82
243.798	7.6
244.174	7.23
244.551	7.01
244.927	6.84
245.303	6.69
245.679	6.52
246.056	6.4
246.432	6.11
246.808	6.01
247.184	6.18
247.56	5.78
247.936	5.63
248.312	5.35
248.688	5.35
249.064	5.15
249.44	4.98
249.815	5.08
250.191	4.91
250.567	5.01
250.943	5.25
251.318	5.12
251.694	5.15
252.069	5.05
252.445	5.01
252.82	4.88
253.196	5.06
253.571	4.99
253.947	4.72
254.322	4.85
254.697	4.87
255.073	4.7
255.448	4.8
255.823	4.64
256.198	4.73
256.573	4.65
256.948	4.47
257.323	4.64
257.698	4.54
258.073	4.34
258.448	4.24
258.823	3.96
259.198	3.93
259.573	3.96
259.948	4.17
260.322	3.93
260.697	3.92
261.072	3.82
261.446	3.85
261.821	3.92
262.195	4.04
262.57	3.92
262.944	4.11
263.319	4.19
263.693	4.29
264.067	4.29
264.442	4.53
264.816	4.63
265.19	4.56
265.564	4.62
265.938	4.75
266.313	4.57
266.687	4.82
267.061	4.99
267.435	5.14
267.809	4.95
268.183	5.07
268.556	5.23
268.93	5.47
269.304	5.59
269.678	5.51
270.051	5.48
270.425	5.56
270.799	5.39
271.172	5.35
271.546	5.47
271.919	5.51
272.293	5.52
272.666	5.6
273.04	5.69
273.413	5.54
273.787	5.46
274.16	5.53
274.533	5.52
274.906	5.53
275.279	5.46
275.653	5.64
276.026	5.75
276.399	5.62
276.772	5.4
277.145	5.32
277.518	5.49
277.891	5.5
278.263	5.59
278.636	5.78
279.009	5.56
279.382	5.37
279.755	5.35
280.127	5.15
280.5	5.05
280.872	5.07
281.245	5.04
281.617	5.15
281.99	5.15
282.362	5.15
282.735	4.88
283.107	4.9
283.479	4.81
283.852	4.74
284.224	4.83
284.596	4.89
284.968	4.87
285.34	4.8
285.713	4.71
286.085	4.56
286.457	4.47
286.829	4.57
287.201	4.6
287.572	4.6
287.944	4.58
288.316	4.62
288.688	4.6
289.06	4.8
289.431	4.82
289.803	4.95
290.175	4.73
290.546	4.91
290.918	4.8
291.289	4.72
291.661	4.65
292.032	4.6
292.403	4.54
292.775	4.51
293.146	4.59
293.517	4.54
293.889	4.65
294.26	4.68
294.631	4.87
295.002	4.84
295.373	4.76
295.744	4.74
296.115	4.75
296.486	4.74
296.857	4.69
297.228	4.58
297.599	4.38
297.97	4.56
298.34	4.55
298.711	4.71
299.082	4.74
299.452	4.8
299.823	4.8
300.194	4.86
300.564	4.84
300.935	4.82
301.305	4.78
301.676	4.64
302.046	4.55
302.416	4.41
302.787	4.39
303.157	4.5
303.527	4.69
303.897	4.72
304.267	4.63
304.637	4.73
305.008	4.83
305.378	4.88
305.748	4.7
306.117	4.55
306.487	4.49
306.857	4.55
307.227	4.65
307.597	4.68
307.967	4.75
308.336	4.83
308.706	4.89
309.076	5.11
309.445	5.3
309.815	5.38
310.184	5.36
310.554	5.44
310.923	5.42
311.293	5.35
311.662	5.47
312.031	5.6
312.401	5.45
312.77	5.47
313.139	5.59
313.508	5.6
313.877	5.72
314.246	5.71
314.616	5.73
314.985	5.55
315.353	5.65
315.722	5.68
316.091	5.65
316.46	5.73
316.829	5.79
317.198	5.87
317.567	5.97
317.935	6.1
318.304	6.08
318.672	6.23
319.041	6.35
319.41	6.18
319.778	6.17
320.147	6.26
320.515	6.39
320.883	6.39
321.252	6.56
321.62	6.69
321.988	6.81
322.357	6.8
322.725	7.17
323.093	6.99
323.461	7
323.829	7.08
324.197	6.97
324.565	6.91
324.933	6.73
325.301	6.65
325.669	6.64
326.037	6.71
326.405	6.62
326.772	6.55
327.14	6.53
327.508	6.59
327.875	6.67
328.243	6.69
328.61	6.77
328.978	6.78
329.346	6.63
329.713	6.66
330.08	6.75
330.448	6.75
330.815	6.9
331.182	7.07
331.55	7.1
331.917	7.1
332.284	7.14
332.651	7.32
333.018	7.35
333.385	7.36
333.752	7.3
334.119	7.27
334.486	7.35
334.853	7.41
335.22	7.38
335.587	7.31
335.954	7.32
336.32	7.34
336.687	7.38
337.054	7.48
337.42	7.41
337.787	7.44
338.153	7.4
338.52	7.4
338.886	7.24
339.253	7.09
339.619	7.05
339.986	6.97
340.352	6.93
340.718	7.02
341.084	7.02
341.451	7.07
341.817	7.2
342.183	7.24
342.549	7.36
342.915	7.37
343.281	7.37
343.647	7.33
344.013	7.3
344.379	7.32
344.745	7.35
345.11	7.37
345.476	7.37
345.842	7.33
346.208	7.44
346.573	7.47
346.939	7.61
347.304	7.7
347.67	7.8
348.035	7.87
348.401	7.88
348.766	7.89
349.132	7.84
349.497	7.8
349.862	7.83
350.228	7.73
350.593	7.81
350.958	7.88
351.323	7.85
351.688	7.84
352.053	7.93
352.418	7.84
352.783	7.87
353.148	7.84
353.513	7.74
353.878	7.64
354.243	7.68
354.608	7.63
354.972	7.59
355.337	7.49
355.702	7.46
356.066	7.42
356.431	7.48
356.795	7.53
357.16	7.49
357.524	7.41
357.889	7.46
358.253	7.42
358.618	7.36
358.982	7.37
359.346	7.37
359.71	7.29
360.075	7.36
360.439	7.33
360.803	7.31
361.167	7.39
361.531	7.39
361.895	7.37
362.259	7.41
362.623	7.46
362.987	7.52
363.351	7.44
363.714	7.45
364.078	7.39
364.442	7.35
364.806	7.39
365.169	7.38
365.533	7.28
365.896	7.24
366.26	7.19
366.623	7.15
366.987	7.1
367.35	7.08
367.714	7.03
368.077	7.02
368.44	7.02
368.803	6.98
369.167	6.89
369.53	6.88
369.893	6.83
370.256	6.78
370.619	6.7
370.982	6.65
371.345	6.55
371.708	6.55
372.071	6.5
372.434	6.44
372.797	6.43
373.159	6.39
373.522	6.38
373.885	6.38
374.247	6.32
374.61	6.31
374.973	6.28
375.335	6.24
375.698	6.17
376.06	6.09
376.423	6.09
376.785	6.12
377.147	6.07
377.51	6.07
377.872	6.03
378.234	5.99
378.596	5.99
378.958	5.98
379.321	5.89
379.683	5.89
380.045	5.81
380.407	5.78
380.769	5.76
381.13	5.68
381.492	5.68
381.854	5.65
382.216	5.62
382.578	5.58
382.939	5.54
383.301	5.57
383.663	5.59
384.024	5.5
384.386	5.48
384.747	5.39
385.109	5.34
385.47	5.29
385.832	5.28
386.193	5.25
386.554	5.16
386.916	5.17
387.277	5.12
387.638	5.16
387.999	5.12
388.36	5.1
388.721	5.04
389.082	5.01
389.443	5.07
389.804	5
390.165	4.89
390.526	4.89
390.887	4.8
391.248	4.78
391.609	4.79
391.969	4.77
392.33	4.78
392.691	4.75
393.051	4.7
393.412	4.71
393.772	4.73
394.133	4.75
394.493	4.7
394.854	4.69
395.214	4.65
395.574	4.62
395.935	4.61
396.295	4.61
396.655	4.59
397.015	4.53
397.376	4.56
397.736	4.61
398.096	4.56
398.456	4.59
398.816	4.53
399.176	4.46
399.535	4.41
399.895	4.39
400.255	4.41
400.615	4.39
400.975	4.36
401.334	4.3
401.694	4.28
402.054	4.3
402.413	4.3
402.773	4.27
403.132	4.24
403.492	4.22
403.851	4.21
404.211	4.21
404.57	4.19
404.929	4.14
405.288	4.13
405.648	4.12
406.007	4.06
406.366	4.08
406.725	4.08
407.084	4.06
407.443	4.06
407.802	4
408.161	4.02
408.52	4.01
408.879	4.01
409.238	4.04
409.596	4
409.955	3.94
410.314	3.92
410.673	3.94
411.031	3.9
411.39	3.89
411.748	3.89
412.107	3.89
412.465	3.88
412.824	3.88
413.182	3.89
413.54	3.92
413.899	3.9
414.257	3.9
414.615	3.89
414.974	3.88
415.332	3.88
415.69	3.85
416.048	3.84
416.406	3.82
416.764	3.8
417.122	3.82
417.48	3.82
417.838	3.82
418.195	3.81
418.553	3.82
418.911	3.79
419.269	3.77
419.626	3.74
419.984	3.74
420.342	3.72
420.699	3.7
421.057	3.69
421.414	3.68
421.772	3.68
422.129	3.68
422.486	3.67
422.844	3.66
423.201	3.66
423.558	3.65
423.915	3.64
424.273	3.64
424.63	3.63
424.987	3.63
425.344	3.63
425.701	3.61
426.058	3.61
426.415	3.61
426.772	3.62
427.128	3.64
427.485	3.64
427.842	3.63
428.199	3.64
428.555	3.64
428.912	3.62
429.269	3.62
429.625	3.62
429.982	3.6
430.338	3.58
430.695	3.55
431.051	3.54
431.407	3.54
431.764	3.5
432.12	3.5
432.476	3.49
432.832	3.48
433.189	3.48
433.545	3.49
433.901	3.5
434.257	3.49
434.613	3.47
434.969	3.45
435.325	3.45
435.681	3.44
436.036	3.45
436.392	3.43
436.748	3.42
437.104	3.42
437.459	3.42
437.815	3.46
438.171	3.47
438.526	3.48
438.882	3.49
439.237	3.49
439.593	3.5
439.948	3.51
440.304	3.48
440.659	3.5
441.014	3.49
441.369	3.49
441.725	3.48
442.08	3.47
442.435	3.48
442.79	3.49
443.145	3.5
443.5	3.48
443.855	3.5
444.21	3.49
444.565	3.48
444.92	3.49
445.275	3.48
445.629	3.48
445.984	3.48
446.339	3.46
446.693	3.46
447.048	3.45
447.403	3.44
447.757	3.46
448.112	3.45
448.466	3.44
448.82	3.44
449.175	3.45
449.529	3.46
449.883	3.44
450.238	3.43
450.592	3.4
450.946	3.42
451.3	3.42
451.654	3.43
452.008	3.43
452.362	3.42
452.716	3.43
453.07	3.42
453.424	3.4
453.778	3.42
454.132	3.4
454.486	3.42
454.839	3.42
455.193	3.41
455.547	3.41
455.9	3.4
456.254	3.39
456.607	3.39
456.961	3.38
457.314	3.4
457.668	3.39
458.021	3.41
458.375	3.41
458.728	3.41
459.081	3.39
459.434	3.39
459.787	3.39
460.141	3.38
460.494	3.39
460.847	3.39
461.2	3.4
461.553	3.41
461.906	3.4
462.259	3.38
462.611	3.39
462.964	3.41
463.317	3.42
463.67	3.42
464.022	3.43
464.375	3.45
464.728	3.46
465.08	3.48
465.433	3.48
465.785	3.5
466.138	3.5
466.49	3.53
466.843	3.54
467.195	3.57
467.547	3.59
467.899	3.6
468.252	3.61
468.604	3.61
468.956	3.61
469.308	3.65
469.66	3.68
470.012	3.69
470.364	3.68
470.716	3.68
471.068	3.71
471.42	3.71
471.772	3.7
472.123	3.69
472.475	3.68
472.827	3.69
473.178	3.7
473.53	3.71
473.882	3.69
474.233	3.68
474.585	3.67
474.936	3.67
475.288	3.67
475.639	3.69
475.99	3.67
476.342	3.69
476.693	3.67
477.044	3.66
477.395	3.66
477.746	3.66
478.097	3.67
478.448	3.65
478.8	3.63
479.15	3.64
479.501	3.64
479.852	3.63
480.203	3.64
480.554	3.64
480.905	3.64
481.255	3.65
481.606	3.66
481.957	3.67
482.307	3.67
482.658	3.66
483.009	3.65
483.359	3.65
483.709	3.65
484.06	3.65
484.41	3.65
484.761	3.65
485.111	3.64
485.461	3.64
485.811	3.64
486.162	3.64
486.512	3.64
486.862	3.65
487.212	3.66
487.562	3.65
487.912	3.65
488.262	3.64
488.612	3.64
488.961	3.63
489.311	3.63
489.661	3.63
490.011	3.63
490.36	3.64
490.71	3.64
491.06	3.63
491.409	3.63
491.759	3.64
492.108	3.64
492.458	3.65
492.807	3.64
493.157	3.65
493.506	3.66
493.855	3.67
494.204	3.66
494.554	3.65
494.903	3.67
495.252	3.67
495.601	3.69
495.95	3.72
496.299	3.74
496.648	3.74
496.997	3.75
497.346	3.76
497.695	3.77
498.043	3.8
498.392	3.84
498.741	3.88
499.09	3.9
499.438	3.92
499.787	3.97
500.135	3.98
500.484	4.02
500.832	4.03
501.181	4.07
501.529	4.13
501.878	4.16
502.226	4.2
502.574	4.24
502.923	4.27
503.271	4.29
503.619	4.32
503.967	4.35
504.315	4.39
504.663	4.44
505.011	4.49
505.359	4.53
505.707	4.57
506.055	4.6
506.403	4.67
506.751	4.74
507.098	4.78
507.446	4.85
507.794	4.9
508.141	4.99
508.489	5.07
508.837	5.14
509.184	5.21
509.531	5.28
509.879	5.36
510.226	5.43
510.574	5.51
510.921	5.61
511.268	5.7
511.616	5.8
511.963	5.89
512.31	6.01
512.657	6.13
513.004	6.23
513.351	6.36
513.698	6.47
514.045	6.6
514.392	6.74
514.739	6.88
515.086	7.01
515.432	7.16
515.779	7.27
516.126	7.42
516.473	7.58
516.819	7.7
517.166	7.83
517.512	7.97
517.859	8.12
518.205	8.22
518.552	8.36
518.898	8.5
519.245	8.64
519.591	8.75
519.937	8.89
520.283	9.03
520.629	9.2
520.976	9.35
521.322	9.52
521.668	9.69
522.014	9.89
522.36	10.11
522.706	10.3
523.052	10.53
523.398	10.77
523.743	10.99
524.089	11.24
524.435	11.46
524.781	11.69
525.126	11.89
525.472	12.1
525.817	12.3
526.163	12.44
526.509	12.59
526.854	12.76
527.199	12.9
527.545	13.05
527.89	13.16
528.235	13.3
528.581	13.43
528.926	13.56
529.271	13.68
529.616	13.81
529.961	13.95
530.306	14.08
530.651	14.19
530.996	14.34
531.341	14.48
531.686	14.64
532.031	14.78
532.376	14.95
532.721	15.11
533.065	15.27
533.41	15.45
533.755	15.65
534.099	15.82
534.444	15.99
534.788	16.16
535.133	16.35
535.477	16.57
535.822	16.78
536.166	16.99
536.51	17.25
536.855	17.49
537.199	17.74
537.543	17.99
537.887	18.28
538.231	18.51
538.576	18.76
538.92	19.01
539.264	19.29
539.608	19.49
539.951	19.68
540.295	19.87
540.639	20.07
540.983	20.24
541.327	20.41
541.671	20.62
542.014	20.82
542.358	21
542.701	21.14
543.045	21.3
543.389	21.49
543.732	21.63
544.075	21.8
544.419	22.02
544.762	22.22
545.105	22.42
545.449	22.64
545.792	22.9
546.135	23.16
546.478	23.36
546.821	23.59
547.165	23.85
547.508	24.14
547.851	24.42
548.194	24.7
548.536	24.99
548.879	25.26
549.222	25.52
549.565	25.81
549.908	26.09
550.25	26.35
550.593	26.61
550.936	26.97
551.278	27.25
551.621	27.46
551.963	27.74
552.306	28.02
552.648	28.27
552.991	28.5
553.333	28.71
553.675	28.98
554.017	29.24
554.36	29.53
554.702	29.74
555.044	30.01
555.386	30.24
555.728	30.48
556.07	30.67
556.412	30.92
556.754	31.16
557.096	31.37
557.438	31.7
557.78	31.91
558.121	32.16
558.463	32.41
558.805	32.69
559.147	32.93
559.488	33.12
559.83	33.38
560.171	33.62
560.513	33.9
560.854	34.1
561.196	34.34
561.537	34.58
561.878	34.85
562.22	35.07
562.561	35.33
562.902	35.56
563.243	35.87
563.584	36.14
563.925	36.36
564.266	36.57
564.607	36.77
564.948	37.03
565.289	37.2
565.63	37.43
565.971	37.61
566.312	37.82
566.653	38.06
566.993	38.23
567.334	38.41
567.675	38.6
568.015	38.84
568.356	39.01
568.696	39.15
569.037	39.34
569.377	39.49
569.718	39.71
570.058	39.94
570.398	40.09
570.739	40.25
571.079	40.45
571.419	40.65
571.759	40.82
572.099	40.94
572.439	41.1
572.779	41.24
573.119	41.41
573.459	41.58
573.799	41.69
574.139	41.86
574.479	41.97
574.819	42.11
575.158	42.2
575.498	42.41
575.838	42.64
576.177	42.8
576.517	43.01
576.856	43.09
577.196	43.17
577.535	43.28
577.875	43.42
578.214	43.53
578.553	43.72
578.893	43.85
579.232	44.02
579.571	44.17
579.91	44.34
580.25	44.46
580.589	44.56
580.928	44.68
581.267	44.81
581.606	44.98
581.945	45.13
582.283	45.38
582.622	45.54
582.961	45.66
583.3	45.76
583.639	45.88
583.977	46.01
584.316	46.15
584.654	46.26
584.993	46.37
585.332	46.52
585.67	46.56
586.008	46.6
586.347	46.7
586.685	46.78
587.024	46.87
587.362	46.98
587.7	47.16
588.038	47.34
588.376	47.41
588.715	47.59
589.053	47.72
589.391	47.78
589.729	47.81
590.067	47.78
590.404	47.91
590.742	47.97
591.08	48.09
591.418	48.18
591.756	48.34
592.093	48.41
592.431	48.51
592.769	48.63
593.106	48.76
593.444	48.85
593.781	48.97
594.119	49.11
594.456	49.15
594.793	49.19
595.131	49.22
595.468	49.29
595.805	49.28
596.143	49.29
596.48	49.34
596.817	49.34
597.154	49.48
597.491	49.58
597.828	49.65
598.165	49.67
598.502	49.74
598.839	49.79
599.176	49.89
599.512	49.97
599.849	50.11
600.186	50.34
600.523	50.45
600.859	50.54
601.196	50.5
601.532	50.65
601.869	50.67
602.205	50.75
602.542	50.86
602.878	51.02
603.215	51.13
603.551	51.18
603.887	51.36
604.223	51.39
604.56	51.45
604.896	51.52
605.232	51.67
605.568	51.77
605.904	51.82
606.24	51.83
606.576	51.85
606.912	51.82
607.248	51.79
607.583	51.85
607.919	51.88
608.255	51.98
608.591	52.01
608.926	52.18
609.262	52.27
609.597	52.23
609.933	52.26
610.268	52.33
610.604	52.44
610.939	52.45
611.275	52.56
611.61	52.58
611.945	52.55
612.281	52.53
612.616	52.54
612.951	52.63
613.286	52.8
613.621	52.9
613.956	53.05
614.291	53.01
614.626	52.99
614.961	53.04
615.296	53.17
615.631	53.2
615.966	53.13
616.3	53.12
616.635	53.21
616.97	53.16
617.304	53.12
617.639	53.1
617.973	53.17
618.308	53.16
618.642	53.26
618.977	53.4
619.311	53.44
619.646	53.48
619.98	53.47
620.314	53.36
620.648	53.22
620.983	53.24
621.317	53.36
621.651	53.44
621.985	53.51
622.319	53.5
622.653	53.57
622.987	53.63
623.321	53.71
623.655	53.82
623.988	53.92
624.322	53.92
624.656	53.89
624.99	53.9
625.323	53.99
625.657	53.98
625.99	53.98
626.324	54.06
626.657	54
626.991	54.04
627.324	54.05
627.658	54.25
627.991	54.25
628.324	54.35
628.657	54.35
628.991	54.31
629.324	54.33
629.657	54.33
629.99	54.39
630.323	54.44
630.656	54.47
630.989	54.49
631.322	54.57
631.655	54.63
631.987	54.64
632.32	54.6
632.653	54.53
632.986	54.62
633.318	54.59
633.651	54.63
633.984	54.67
634.316	54.73
634.649	54.73
634.981	54.8
635.313	54.76
635.646	54.75
635.978	54.89
636.31	54.89
636.643	54.93
636.975	54.91
637.307	54.93
637.639	54.98
637.971	54.98
638.303	54.9
638.635	54.94
638.967	55.01
639.299	55.04
639.631	55.16
639.963	55.1
640.295	55.15
640.626	55.32
640.958	55.33
641.29	55.41
641.621	55.46
641.953	55.42
642.285	55.5
642.616	55.67
642.948	55.63
643.279	55.62
643.61	55.68
643.942	55.78
644.273	55.75
644.604	55.66
644.936	55.65
645.267	55.76
645.598	55.89
645.929	55.85
646.26	55.91
646.591	56.04
646.922	56.06
647.253	56.07
647.584	56.01
647.915	56.09
648.245	56.15
648.576	56.08
648.907	56.19
649.238	56.17
649.568	56.08
649.899	56.19
650.229	56.38
650.56	56.35
650.89	56.35
651.221	56.41
651.551	56.48
651.882	56.56
652.212	56.68
652.542	56.66
652.872	56.73
653.203	56.76
653.533	56.66
653.863	56.68
654.193	56.64
654.523	56.68
654.853	56.71
655.183	56.72
655.513	56.81
655.843	56.94
656.172	56.99
656.502	57.06
656.832	57.02
657.162	56.98
657.491	56.98
657.821	56.97
658.15	56.92
658.48	56.93
658.809	56.93
659.139	56.93
659.468	56.91
659.798	57.01
660.127	57.06
660.456	57.05
660.785	57.07
661.115	57.14
661.444	57.17
661.773	57.14
662.102	57.14
662.431	57.13
662.76	57
663.089	57
663.418	56.93
663.747	56.95
664.076	56.96
664.404	57.11
664.733	57.19
665.062	57.18
665.39	57.26
665.719	57.31
666.048	57.27
666.376	57.28
666.705	57.17
667.033	57.12
667.362	57.22
667.69	57.2
668.018	57.31
668.347	57.32
668.675	57.38
669.003	57.47
669.331	57.49
669.659	57.54
669.987	57.61
670.315	57.61
670.643	57.58
670.971	57.55
671.299	57.47
671.627	57.47
671.955	57.46
672.283	57.51
672.61	57.55
672.938	57.52
673.266	57.56
673.593	57.6
673.921	57.61
674.249	57.48
674.576	57.64
674.904	57.6
675.231	57.65
675.558	57.73
675.886	57.74
676.213	57.77
676.54	57.84
676.867	57.81
677.195	57.91
677.522	57.97
677.849	58.04
678.176	57.91
678.503	57.94
678.83	58.13
679.157	58.2
679.484	58.13
679.81	58.23
680.137	58.29
680.464	58.33
680.791	58.42
681.117	58.52
681.444	58.46
681.771	58.42
682.097	58.43
682.424	58.26
682.75	58.31
683.077	58.35
683.403	58.16
683.729	58.1
684.056	57.98
684.382	57.99
684.708	57.95
685.034	58.07
685.36	58
685.686	58.09
686.012	58.1
686.339	58.15
686.664	58.09
686.99	58.07
687.316	58.19
687.642	58.12
687.968	58.11
688.294	58.18
688.619	58.18
688.945	58.22
689.271	58.43
689.596	58.3
689.922	58.36
690.247	58.54
690.573	58.57
690.898	58.88
691.224	58.85
691.549	58.99
691.874	59.06
692.2	59.1
692.525	59
692.85	58.86
693.175	58.91
693.5	59.09
693.825	59.05
694.15	58.73
694.475	58.71
694.8	58.67
695.125	58.68
695.45	58.64
695.775	58.61
696.099	58.52
696.424	58.61
696.749	58.63
697.073	58.7
697.398	58.72
697.723	58.65
698.047	58.72
698.372	58.66
698.696	58.74
699.02	58.76
699.345	58.75
699.669	58.88
699.993	58.87
700.318	58.8
700.642	58.72
700.966	58.86
701.29	58.91
701.614	58.96
701.938	59.13
702.262	59.26
702.586	59.33
702.91	59.42
703.234	59.41
703.557	59.42
703.881	59.5
704.205	59.63
704.529	59.68
704.852	59.63
705.176	59.85
705.499	59.91
705.823	59.91
706.146	59.96
706.47	60.03
706.793	60.17
707.117	60.11
707.44	60.17
707.763	60.33
708.086	60.16
708.409	60.09
708.733	59.99
709.056	59.94
709.379	59.78
709.702	59.9
710.025	59.92
710.348	59.86
710.671	59.73
710.993	59.73
711.316	59.76
711.639	59.86
711.962	59.78
712.284	59.71
712.607	59.73
712.93	59.66
713.252	59.57
713.575	59.57
713.897	59.75
714.22	59.89
714.542	59.91
714.864	60.1
715.187	60.25
715.509	60.13
715.831	60.18
716.153	60.23
716.475	60.04
716.798	60.03
717.12	60.19
717.442	60.22
717.764	60.09
718.085	60.07
718.407	59.95
718.729	59.9
719.051	59.87
719.373	59.89
719.695	60.04
720.016	60.07
720.338	60.29
720.659	60.27
720.981	60.38
721.302	60.25
721.624	60.44
721.945	60.3
722.267	60.28
722.588	60.38
722.909	60.31
723.231	60.47
723.552	60.49
723.873	60.46
724.194	60.54
724.515	60.66
724.836	60.68
725.157	60.71
725.478	60.59
725.799	60.6
726.12	60.67
726.441	60.56
726.762	60.69
727.083	60.63
727.403	60.53
727.724	60.27
728.045	60.31
728.365	60.11
728.686	60.22
729.006	60.31
729.327	60.35
729.647	60.4
729.967	60.08
730.288	60.1
730.608	59.98
730.928	59.99
731.249	60.22
731.569	60.37
731.889	60.42
732.209	60.57
732.529	60.55
732.849	60.73
733.169	60.74
733.489	60.63
733.809	60.44
734.129	60.5
734.448	60.52
734.768	60.52
735.088	60.54
735.408	60.54
735.727	60.44
736.047	60.48
736.366	60.46
736.686	60.74
737.005	60.69
737.325	60.5
737.644	60.52
737.963	60.18
738.283	60.02
738.602	59.87
738.921	59.97
739.24	59.93
739.56	59.86
739.879	59.78
740.198	59.62
740.517	59.85
740.836	59.86
741.155	60.12
741.473	60.2
741.792	60.15
742.111	60.05
742.43	60.39
742.748	60.26
743.067	60.5
743.386	60.45
743.704	60.58
744.023	60.76
744.341	60.94
744.66	61.12
744.978	60.94
745.297	61.1
745.615	60.77
745.933	61.2
746.252	61.08
746.57	61.34
746.888	61.55
747.206	61.4
747.524	61.52
747.842	61.23
748.16	61.31
748.478	61.32
748.796	61.46
749.114	61.22
749.432	61.5
749.749	61.41
750.067	61.53
750.385	61.53
750.703	61.48
751.02	61.24
751.338	61.28
751.655	61.59
751.973	61.7
752.29	61.82
752.608	61.23
752.925	61.13
753.242	61.41
753.56	61.12
753.877	60.78
754.194	60.95
754.511	60.98
754.828	60.78
755.145	60.51
755.462	60.46
755.779	60.19
756.096	60.17
756.413	60.54
756.73	60.68
757.047	60.68
757.364	60.87
757.68	61.02
757.997	60.95
758.314	60.91
758.63	60.84
758.947	61
759.264	61.29
759.58	61.46
759.896	61.25
760.213	61.66
760.529	61.79
760.846	61.3
761.162	61.55
761.478	61.67
761.794	62.33
762.11	62.5
762.426	62.45
762.743	62.49
763.059	62.43
763.375	62.38
763.69	62.42
764.006	62.44
764.322	62.4
764.638	62.5
764.954	62.48
765.27	62.32
765.585	62.37
765.901	62.29
766.216	62.18
766.532	62.21
766.848	62.16
767.163	62.14
767.478	62.37
767.794	62.39
768.109	62.47
768.424	62.16
768.74	62.27
769.055	62.41
769.37	62.38
769.685	62.43
770	62.45
770.315	62.44
770.63	62.43
770.945	62.46
771.26	62.58
771.575	62.53
771.89	63.09
772.205	62.96
772.52	63.06
772.834	63.3
773.149	63.07
773.464	62.92
773.778	62.87
774.093	62.79
774.407	62.62
774.722	62.54
775.036	62.75
775.351	62.4
775.665	63
775.979	62.68
776.293	62.65
776.608	62.62
776.922	62.73
777.236	62.9
777.55	62.9
777.864	62.47
778.178	62.63
778.492	62.1
778.806	62.03
779.12	61.89
779.434	61.52
779.747	61.54
780.061	62.33
780.375	62.8
780.689	62.99
781.002	62.9
781.316	63.21
781.629	63.07
781.943	63.05
782.256	63
782.57	63.11
782.883	62.6
783.196	62.66
783.51	62.65
783.823	62.88
784.136	62.77
784.449	63.02
784.762	62.75
785.075	63.3
785.388	64
785.701	64.33
786.014	64.62
786.327	64.55
786.64	63.77
786.953	63.57
787.266	63.58
787.578	63.77
787.891	63.44
788.204	63.22
788.516	63.6
788.829	63.6
789.141	63.56
789.454	63.84
789.766	63.95
790.079	64.27
790.391	64.16
790.703	63.97
791.016	64.15
791.328	64.05
791.64	64.08
791.952	64.04
792.264	63.47
792.576	63.26
792.888	63.75
793.2	64.05
793.512	63.81
793.824	63.68
794.136	63.76
794.448	64.02
794.76	63.96
795.071	63.37
795.383	63.46
795.695	63.89
796.006	63.52
796.318	63.47
796.629	63.04
796.941	63.24
797.252	63.91
797.564	63.99
797.875	64.59
798.186	64.23
798.497	63.7
798.809	64.47
799.12	64.78
799.431	64.37
799.742	64.14
800.053	64.68
800.364	64.5
800.675	64.21
800.986	64.48
801.297	65.54
801.608	65.6
801.918	65.25
802.229	65.62
802.54	65.84
802.851	65.21
803.161	65.48
803.472	65.07
803.782	65.12
804.093	64.8
804.403	64.45
804.714	64.76
805.024	64.7
805.334	64.76
805.645	64.5
805.955	64.4
806.265	63.68
806.575	62.73
806.885	63.09
807.195	63.69
807.505	63.27
807.815	62.31
808.125	62.41
808.435	61.77
808.745	61.13
809.055	61.23
809.365	62.41
809.674	62.37
809.984	62.54
810.294	61.84
810.603	61.87
810.913	62.77
811.222	62.73
811.532	63.36
811.841	62.75
812.151	62.85
812.46	63.24
812.769	64.4
813.079	65.59
813.388	65.36
813.697	64.69
814.006	65.5
814.315	65.35
814.624	66.22
814.933	67.52
815.242	67.97
815.551	67.35
815.86	66.86
816.169	66.07
816.478	65.83
816.786	66.23
817.095	66.23
817.404	65.47
817.712	64.89
818.021	65.04
818.33	64.99
818.638	65.22
818.947	64.96
819.255	64.77
819.563	64.92
819.872	64.94
820.18	64.63
820.488	64.57
820.796	64.39
821.105	64.29
821.413	64.14
821.721	64.02
822.029	64.39
822.337	64.22
822.645	64.13
822.953	64.1
823.26	64.2
823.568	64.25
823.876	64.28
824.184	64.23
824.491	63.84
824.799	63.98
825.107	63.82
825.414	63.68
825.722	63.62
826.029	63.76
826.337	63.72
826.644	63.7
826.951	63.6
827.259	63.92
827.566	63.8
827.873	63.83
828.18	63.77
828.488	63.67
828.795	63.82
829.102	64.18
829.409	64.08
829.716	64.02
830.023	63.81
830.329	63.8
830.636	64.19
830.943	64.32
831.25	64.36
831.557	64.34
831.863	64.88
832.17	64.7
832.476	64.29
832.783	64.67
833.089	64.95
833.396	64.59
833.702	64.02
834.009	63.83
834.315	63.86
834.621	64.07
834.928	63.55
835.234	63.28
835.54	63.28
835.846	63.73
836.152	63.96
836.458	64.2
836.764	63.91
837.07	63.66
837.376	63.98
837.682	64.2
837.988	64.67
838.293	64.25
838.599	64.74
838.905	64.69
839.211	64.39
839.516	64.73
839.822	64.67
840.127	65.68
840.433	66.57
840.738	65.97
841.044	65.93
841.349	65.65
841.654	65.97
841.959	66.02
842.265	66.28
842.57	64.87
842.875	64.76
843.18	66.57
843.485	67.03
843.79	68.61
844.095	68.19
844.4	68.6
844.705	70.07
845.01	69.87
845.315	68.65
845.619	68.44
845.924	68.06
846.229	68.23
846.533	67.79
846.838	67.96
847.142	69.93
847.447	69.4
847.751	71.16
848.056	72.01
848.36	72.22
848.664	69.7
848.969	70.79
849.273	69.91
849.577	68.21
849.881	67.85
850.185	66.51
850.489	66.13
850.794	65.77
851.097	65.76
851.401	65.36
851.705	65.68
852.009	66.74
852.313	68.96
852.617	67.55
852.92	68.64
853.224	67.24
853.528	66.16
853.831	66.17
854.135	68.26
854.438	67.38
854.742	67.49
855.045	68.27
855.349	67.95
855.652	70.09
855.955	70.21
856.259	70.76
856.562	70.55
856.865	70.87
857.168	70.08
857.471	69.55
857.774	71.03
858.077	70.81
858.38	70.65
858.683	68.77
858.986	70.82
859.289	69.46
859.592	71.19
859.894	71.96
860.197	72.44
860.5	70.3
860.802	71.56
861.105	72.39
861.407	74.48
861.71	74.56
862.012	73.39
862.315	72.31
862.617	70.29
862.919	70.15
863.222	67.4
863.524	67.88
863.826	67.45
864.128	67.45
864.43	70.52
864.732	70.61
865.034	72.96
865.336	71.66
865.638	72.45
865.94	70.15
866.242	66.91
866.544	67.96
866.846	66.91
867.147	64.37
867.449	62.07
867.751	62.47
868.052	61.97
868.354	61.65
868.655	60.99
868.957	62.88
869.258	62.46
869.56	66.06
869.861	65.12
870.162	63.97
870.463	63.33
870.765	61.24
871.066	61.14
871.367	58.12
871.668	60.58
871.969	59.45
872.27	58.53
872.571	63.14
872.872	62.83
873.173	64.06
873.473	66
873.774	67.04
874.075	66.11
874.376	64.26
874.676	64.48
874.977	66.27
875.277	66.78
875.578	67.58
875.878	65.66
876.179	66.52
876.479	68.12
876.78	67.76
877.08	68.3
877.38	67.31
877.68	68.85
877.981	67.94
878.281	67.55
878.581	72.54
