Data from BU26843_Reflection_00006.txt Node
Date: Mon Nov 18 16:31:03 EST 2019
User: vgr7
Spectrometer: USB2G7710
Scans to average: 3
Trigger mode: 4
Integration Time (sec): 2.000000E-2
Electric dark correction enabled: true
Boxcar width: 10
XAxis mode: Wavelengths
Number of Pixels in Spectrum: 2048
>>>>>Begin Spectral Data<<<<<
177.721	98.52
178.105	380.7
178.488	-70.43
178.871	-9.14
179.254	-30.13
179.636	-207.29
180.019	3.01
180.402	65.52
180.785	-48.04
181.168	41.82
181.55	106.6
181.933	114.98
182.316	116.51
182.698	223.83
183.081	246.86
183.463	700.66
183.846	1298.07
184.228	708.41
184.611	361.33
184.993	-551.34
185.376	-253.47
185.758	-143.2
186.14	-187.14
186.522	-248.65
186.904	-148.61
187.287	-234.87
187.669	-80.25
188.051	-135.48
188.433	-40.35
188.815	-40.65
189.197	-36.91
189.579	-19.33
189.961	-9.9
190.342	-2.47
190.724	9.83
191.106	18.36
191.488	7.7
191.869	-5.67
192.251	-13.68
192.633	-26.5
193.014	-13.46
193.396	-35.96
193.777	-33.13
194.159	-27.61
194.54	-15.83
194.922	-32.04
195.303	-76.63
195.684	-82.33
196.065	-75.62
196.447	-111.27
196.828	-128.13
197.209	-110
197.59	-146.76
197.971	-158.29
198.352	-136.54
198.733	-164.62
199.114	-169.15
199.495	-148.64
199.876	-156.99
200.257	-150.54
200.638	-129.77
201.018	-140.12
201.399	-125.17
201.78	-85.59
202.16	-116.69
202.541	-160.19
202.922	-151.04
203.302	-152.46
203.683	-139.36
204.063	-172.25
204.444	-176.55
204.824	-179.87
205.204	-190.02
205.585	-206.11
205.965	-273.33
206.345	-444.13
206.725	-431.28
207.106	-602.15
207.486	-491.94
207.866	-309.46
208.246	-226.77
208.626	-206.65
209.006	-152.3
209.386	-174.75
209.766	-243.85
210.145	-179.04
210.525	-135.37
210.905	-104.09
211.285	-72.42
211.664	-72.66
212.044	-64.28
212.424	-56.02
212.803	-57.17
213.183	-45.5
213.562	-46.48
213.942	-41.72
214.321	-36.18
214.701	-42.84
215.08	-40.75
215.459	-42.28
215.838	-51.4
216.218	-53.74
216.597	-45.26
216.976	-52.67
217.355	-49.26
217.734	-43.48
218.113	-41.66
218.492	-50.99
218.871	-55.52
219.25	-67.26
219.629	-82.38
220.008	-70.96
220.387	-72.74
220.766	-65.62
221.144	-82.37
221.523	-80.53
221.902	-91.82
222.28	-105.88
222.659	-78.43
223.037	-69.58
223.416	-68.56
223.794	-55.11
224.173	-57.89
224.551	-49.63
224.929	-57.71
225.308	-45.5
225.686	-37.45
226.064	-31.94
226.442	-30.84
226.821	-20.51
227.199	-19.79
227.577	-14.07
227.955	-12.95
228.333	-13.04
228.711	-7.42
229.089	-2.2
229.467	-4.5
229.845	-4.61
230.222	-2.61
230.6	-6.52
230.978	-6.62
231.356	-2.21
231.733	-3.2
232.111	-2.39
232.488	-0.76
232.866	3.21
233.243	0.71
233.621	0.41
233.998	-0.14
234.376	1.13
234.753	-0.35
235.13	1.07
235.508	0.66
235.885	-1.3
236.262	0.06
236.639	-1.58
237.016	-2.78
237.393	-0.91
237.77	0.66
238.147	0.68
238.524	1.32
238.901	2.12
239.278	1.92
239.655	2.91
240.032	3.08
240.409	3.01
240.785	2.75
241.162	3.81
241.539	4.05
241.915	4.01
242.292	3.27
242.668	3.39
243.045	3.43
243.421	3.76
243.798	3.85
244.174	3.63
244.551	3.65
244.927	3.78
245.303	3.96
245.679	4.07
246.056	4.29
246.432	4.45
246.808	4.33
247.184	4.04
247.56	3.4
247.936	3.05
248.312	2.84
248.688	2.76
249.064	2.47
249.44	2.42
249.815	2.33
250.191	2.51
250.567	2.53
250.943	2.7
251.318	2.52
251.694	2.54
252.069	2.43
252.445	2.42
252.82	2.18
253.196	1.95
253.571	1.91
253.947	1.65
254.322	1.82
254.697	1.95
255.073	1.84
255.448	2.23
255.823	2.59
256.198	2.79
256.573	2.94
256.948	3.21
257.323	3.27
257.698	3.56
258.073	3.66
258.448	3.77
258.823	3.41
259.198	3.31
259.573	3.27
259.948	3.31
260.322	3.33
260.697	3.28
261.072	3.14
261.446	3.15
261.821	3.01
262.195	2.87
262.57	2.84
262.944	2.87
263.319	3.01
263.693	2.97
264.067	2.92
264.442	2.98
264.816	2.95
265.19	2.8
265.564	2.62
265.938	2.5
266.313	2.26
266.687	2.31
267.061	2.67
267.435	2.64
267.809	2.74
268.183	2.76
268.556	2.67
268.93	2.77
269.304	2.67
269.678	3.02
270.051	2.92
270.425	2.89
270.799	3.12
271.172	2.99
271.546	3.09
271.919	3.04
272.293	2.88
272.666	2.92
273.04	3.01
273.413	3.05
273.787	3.17
274.16	3.08
274.533	3.22
274.906	2.95
275.279	3
275.653	3.01
276.026	2.96
276.399	3.1
276.772	3.29
277.145	3.35
277.518	3.24
277.891	3.32
278.263	3.16
278.636	3.15
279.009	3.23
279.382	3.21
279.755	3.19
280.127	3.34
280.5	3.25
280.872	3.22
281.245	3.18
281.617	3.08
281.99	3.22
282.362	3.26
282.735	3.27
283.107	3.25
283.479	3.15
283.852	3.23
284.224	3.32
284.596	3.15
284.968	3.23
285.34	3.28
285.713	3.08
286.085	3.16
286.457	3.14
286.829	3.15
287.201	3.13
287.572	3.22
287.944	3.19
288.316	3.03
288.688	2.98
289.06	2.91
289.431	2.99
289.803	2.98
290.175	3.09
290.546	3.24
290.918	3.38
291.289	3.57
291.661	3.58
292.032	3.68
292.403	3.83
292.775	3.76
293.146	3.72
293.517	3.98
293.889	4.28
294.26	4.15
294.631	4.09
295.002	4.03
295.373	4.06
295.744	4.05
296.115	4.08
296.486	4.08
296.857	4.3
297.228	4.21
297.599	4.21
297.97	4.01
298.34	3.87
298.711	3.81
299.082	3.78
299.452	3.8
299.823	3.69
300.194	3.63
300.564	3.52
300.935	3.51
301.305	3.36
301.676	3.15
302.046	3.18
302.416	3.28
302.787	3.23
303.157	3.11
303.527	3.08
303.897	3.27
304.267	3.4
304.637	3.2
305.008	3.35
305.378	3.25
305.748	3.41
306.117	3.46
306.487	3.42
306.857	3.32
307.227	3.43
307.597	3.43
307.967	3.5
308.336	3.67
308.706	3.64
309.076	3.9
309.445	3.91
309.815	3.94
310.184	3.75
310.554	3.79
310.923	3.82
311.293	3.87
311.662	3.78
312.031	3.77
312.401	3.8
312.77	3.82
313.139	4.05
313.508	4.04
313.877	4
314.246	4.04
314.616	3.94
314.985	3.83
315.353	3.78
315.722	3.71
316.091	3.55
316.46	3.56
316.829	3.4
317.198	3.35
317.567	3.35
317.935	3.45
318.304	3.45
318.672	3.45
319.041	3.45
319.41	3.44
319.778	3.45
320.147	3.51
320.515	3.39
320.883	3.23
321.252	3.17
321.62	3.22
321.988	3.3
322.357	3.42
322.725	3.3
323.093	3.41
323.461	3.39
323.829	3.52
324.197	3.55
324.565	3.53
324.933	3.58
325.301	3.55
325.669	3.56
326.037	3.63
326.405	3.52
326.772	3.53
327.14	3.46
327.508	3.29
327.875	3.25
328.243	3.19
328.61	3.22
328.978	3.27
329.346	3.39
329.713	3.21
330.08	3.23
330.448	3.21
330.815	3.14
331.182	3.11
331.55	3.02
331.917	3.04
332.284	3.06
332.651	2.93
333.018	2.96
333.385	2.97
333.752	2.93
334.119	3.13
334.486	3.03
334.853	3.28
335.22	3.21
335.587	3.21
335.954	3.18
336.32	3.16
336.687	3.19
337.054	3.07
337.42	3.11
337.787	3
338.153	3.05
338.52	3.1
338.886	3.19
339.253	3.26
339.619	3.21
339.986	3.19
340.352	3.33
340.718	3.34
341.084	3.33
341.451	3.41
341.817	3.38
342.183	3.4
342.549	3.23
342.915	3.37
343.281	3.3
343.647	3.35
344.013	3.3
344.379	3.31
344.745	3.35
345.11	3.5
345.476	3.62
345.842	3.72
346.208	3.74
346.573	3.66
346.939	3.66
347.304	3.6
347.67	3.6
348.035	3.44
348.401	3.42
348.766	3.47
349.132	3.4
349.497	3.35
349.862	3.4
350.228	3.51
350.593	3.43
350.958	3.47
351.323	3.52
351.688	3.56
352.053	3.5
352.418	3.56
352.783	3.48
353.148	3.42
353.513	3.36
353.878	3.25
354.243	3.3
354.608	3.28
354.972	3.23
355.337	3.26
355.702	3.42
356.066	3.43
356.431	3.34
356.795	3.4
357.16	3.35
357.524	3.28
357.889	3.22
358.253	3.32
358.618	3.37
358.982	3.34
359.346	3.25
359.71	3.27
360.075	3.25
360.439	3.24
360.803	3.23
361.167	3.17
361.531	3.24
361.895	3.26
362.259	3.25
362.623	3.31
362.987	3.28
363.351	3.24
363.714	3.27
364.078	3.26
364.442	3.19
364.806	3.16
365.169	3.23
365.533	3.21
365.896	3.18
366.26	3.11
366.623	3.03
366.987	3.1
367.35	3.08
367.714	3.05
368.077	3.02
368.44	3.01
368.803	3.1
369.167	3.06
369.53	2.97
369.893	3.02
370.256	3.05
370.619	3.09
370.982	3.07
371.345	3.05
371.708	3.09
372.071	3.13
372.434	3.18
372.797	3.06
373.159	3.08
373.522	3.09
373.885	3.15
374.247	3.23
374.61	3.29
374.973	3.28
375.335	3.28
375.698	3.31
376.06	3.31
376.423	3.31
376.785	3.34
377.147	3.38
377.51	3.35
377.872	3.35
378.234	3.3
378.596	3.29
378.958	3.26
379.321	3.31
379.683	3.33
380.045	3.3
380.407	3.39
380.769	3.38
381.13	3.41
381.492	3.37
381.854	3.33
382.216	3.28
382.578	3.3
382.939	3.25
383.301	3.21
383.663	3.22
384.024	3.16
384.386	3.15
384.747	3.13
385.109	3.14
385.47	3.12
385.832	3.14
386.193	3.19
386.554	3.24
386.916	3.18
387.277	3.17
387.638	3.19
387.999	3.18
388.36	3.2
388.721	3.19
389.082	3.18
389.443	3.21
389.804	3.21
390.165	3.15
390.526	3.2
390.887	3.2
391.248	3.22
391.609	3.22
391.969	3.22
392.33	3.24
392.691	3.23
393.051	3.21
393.412	3.22
393.772	3.19
394.133	3.19
394.493	3.21
394.854	3.17
395.214	3.14
395.574	3.13
395.935	3.09
396.295	3.12
396.655	3.1
397.015	3.09
397.376	3.1
397.736	3.16
398.096	3.1
398.456	3.1
398.816	3.1
399.176	3.09
399.535	3.09
399.895	3.07
400.255	3.07
400.615	3.08
400.975	3.05
401.334	3.01
401.694	3.03
402.054	3.01
402.413	3.03
402.773	3.04
403.132	3.05
403.492	3.06
403.851	3.02
404.211	3.04
404.57	3.02
404.929	3.07
405.288	3.04
405.648	3.06
406.007	3.07
406.366	3.07
406.725	3.11
407.084	3.12
407.443	3.13
407.802	3.15
408.161	3.15
408.52	3.15
408.879	3.14
409.238	3.1
409.596	3.11
409.955	3.13
410.314	3.15
410.673	3.14
411.031	3.14
411.39	3.15
411.748	3.15
412.107	3.17
412.465	3.14
412.824	3.14
413.182	3.15
413.54	3.16
413.899	3.16
414.257	3.12
414.615	3.11
414.974	3.11
415.332	3.09
415.69	3.1
416.048	3.09
416.406	3.1
416.764	3.11
417.122	3.13
417.48	3.11
417.838	3.14
418.195	3.16
418.553	3.15
418.911	3.15
419.269	3.16
419.626	3.16
419.984	3.16
420.342	3.17
420.699	3.16
421.057	3.16
421.414	3.16
421.772	3.17
422.129	3.19
422.486	3.18
422.844	3.18
423.201	3.17
423.558	3.18
423.915	3.18
424.273	3.19
424.63	3.16
424.987	3.16
425.344	3.15
425.701	3.13
426.058	3.14
426.415	3.14
426.772	3.12
427.128	3.12
427.485	3.11
427.842	3.12
428.199	3.13
428.555	3.1
428.912	3.09
429.269	3.11
429.625	3.08
429.982	3.08
430.338	3.08
430.695	3.09
431.051	3.09
431.407	3.12
431.764	3.12
432.12	3.13
432.476	3.14
432.832	3.12
433.189	3.13
433.545	3.12
433.901	3.12
434.257	3.11
434.613	3.12
434.969	3.11
435.325	3.1
435.681	3.12
436.036	3.13
436.392	3.14
436.748	3.12
437.104	3.1
437.459	3.1
437.815	3.1
438.171	3.11
438.526	3.12
438.882	3.11
439.237	3.11
439.593	3.11
439.948	3.11
440.304	3.11
440.659	3.11
441.014	3.13
441.369	3.11
441.725	3.11
442.08	3.11
442.435	3.13
442.79	3.11
443.145	3.1
443.5	3.11
443.855	3.1
444.21	3.1
444.565	3.12
444.92	3.14
445.275	3.13
445.629	3.13
445.984	3.12
446.339	3.11
446.693	3.11
447.048	3.11
447.403	3.11
447.757	3.11
448.112	3.12
448.466	3.11
448.82	3.12
449.175	3.14
449.529	3.13
449.883	3.11
450.238	3.12
450.592	3.12
450.946	3.11
451.3	3.12
451.654	3.12
452.008	3.11
452.362	3.08
452.716	3.1
453.07	3.08
453.424	3.09
453.778	3.08
454.132	3.07
454.486	3.05
454.839	3.03
455.193	3.03
455.547	3.01
455.9	3.02
456.254	3.02
456.607	3.01
456.961	3.03
457.314	3.03
457.668	3.04
458.021	3.03
458.375	3.04
458.728	3.04
459.081	3.04
459.434	3.04
459.787	3.06
460.141	3.05
460.494	3.06
460.847	3.07
461.2	3.07
461.553	3.08
461.906	3.09
462.259	3.1
462.611	3.12
462.964	3.13
463.317	3.15
463.67	3.14
464.022	3.15
464.375	3.14
464.728	3.13
465.08	3.14
465.433	3.16
465.785	3.15
466.138	3.15
466.49	3.15
466.843	3.16
467.195	3.16
467.547	3.19
467.899	3.19
468.252	3.18
468.604	3.2
468.956	3.2
469.308	3.2
469.66	3.18
470.012	3.16
470.364	3.16
470.716	3.11
471.068	3.14
471.42	3.15
471.772	3.17
472.123	3.21
472.475	3.21
472.827	3.18
473.178	3.2
473.53	3.22
473.882	3.21
474.233	3.23
474.585	3.23
474.936	3.22
475.288	3.23
475.639	3.25
475.99	3.24
476.342	3.26
476.693	3.27
477.044	3.26
477.395	3.26
477.746	3.26
478.097	3.28
478.448	3.26
478.8	3.24
479.15	3.23
479.501	3.23
479.852	3.25
480.203	3.26
480.554	3.26
480.905	3.25
481.255	3.26
481.606	3.26
481.957	3.26
482.307	3.26
482.658	3.25
483.009	3.25
483.359	3.25
483.709	3.24
484.06	3.25
484.41	3.25
484.761	3.25
485.111	3.25
485.461	3.26
485.811	3.26
486.162	3.27
486.512	3.27
486.862	3.26
487.212	3.24
487.562	3.24
487.912	3.24
488.262	3.25
488.612	3.24
488.961	3.24
489.311	3.23
489.661	3.23
490.011	3.23
490.36	3.23
490.71	3.22
491.06	3.22
491.409	3.22
491.759	3.23
492.108	3.23
492.458	3.23
492.807	3.23
493.157	3.23
493.506	3.23
493.855	3.22
494.204	3.22
494.554	3.24
494.903	3.24
495.252	3.24
495.601	3.23
495.95	3.24
496.299	3.25
496.648	3.27
496.997	3.27
497.346	3.28
497.695	3.3
498.043	3.31
498.392	3.31
498.741	3.32
499.09	3.32
499.438	3.32
499.787	3.33
500.135	3.33
500.484	3.35
500.832	3.35
501.181	3.36
501.529	3.37
501.878	3.38
502.226	3.38
502.574	3.39
502.923	3.39
503.271	3.38
503.619	3.4
503.967	3.37
504.315	3.35
504.663	3.36
505.011	3.37
505.359	3.35
505.707	3.38
506.055	3.37
506.403	3.38
506.751	3.4
507.098	3.42
507.446	3.44
507.794	3.44
508.141	3.44
508.489	3.46
508.837	3.47
509.184	3.47
509.531	3.49
509.879	3.52
510.226	3.53
510.574	3.54
510.921	3.54
511.268	3.55
511.616	3.57
511.963	3.58
512.31	3.58
512.657	3.61
513.004	3.62
513.351	3.64
513.698	3.64
514.045	3.63
514.392	3.61
514.739	3.63
515.086	3.66
515.432	3.68
515.779	3.66
516.126	3.67
516.473	3.69
516.819	3.71
517.166	3.7
517.512	3.71
517.859	3.71
518.205	3.71
518.552	3.75
518.898	3.76
519.245	3.78
519.591	3.8
519.937	3.79
520.283	3.79
520.629	3.8
520.976	3.81
521.322	3.82
521.668	3.85
522.014	3.85
522.36	3.82
522.706	3.83
523.052	3.84
523.398	3.85
523.743	3.85
524.089	3.84
524.435	3.83
524.781	3.83
525.126	3.84
525.472	3.84
525.817	3.84
526.163	3.84
526.509	3.85
526.854	3.86
527.199	3.86
527.545	3.85
527.89	3.87
528.235	3.87
528.581	3.88
528.926	3.87
529.271	3.87
529.616	3.88
529.961	3.88
530.306	3.89
530.651	3.88
530.996	3.88
531.341	3.88
531.686	3.88
532.031	3.89
532.376	3.9
532.721	3.91
533.065	3.9
533.41	3.89
533.755	3.87
534.099	3.87
534.444	3.87
534.788	3.89
535.133	3.88
535.477	3.88
535.822	3.87
536.166	3.87
536.51	3.88
536.855	3.89
537.199	3.9
537.543	3.9
537.887	3.91
538.231	3.91
538.576	3.93
538.92	3.93
539.264	3.93
539.608	3.93
539.951	3.94
540.295	3.94
540.639	3.97
540.983	3.99
541.327	3.98
541.671	3.99
542.014	3.98
542.358	3.98
542.701	3.99
543.045	3.99
543.389	3.99
543.732	3.98
544.075	3.99
544.419	3.99
544.762	3.99
545.105	4
545.449	4.01
545.792	4
546.135	4.01
546.478	4.01
546.821	4.03
547.165	4.02
547.508	4.04
547.851	4.03
548.194	4.01
548.536	4.04
548.879	4.05
549.222	4.05
549.565	4.04
549.908	4.03
550.25	4.08
550.593	4.1
550.936	4.12
551.278	4.11
551.621	4.09
551.963	4.11
552.306	4.11
552.648	4.09
552.991	4.12
553.333	4.11
553.675	4.11
554.017	4.1
554.36	4.09
554.702	4.1
555.044	4.08
555.386	4.13
555.728	4.09
556.07	4.11
556.412	4.1
556.754	4.09
557.096	4.12
557.438	4.09
557.78	4.09
558.121	4.09
558.463	4.09
558.805	4.1
559.147	4.1
559.488	4.09
559.83	4.08
560.171	4.08
560.513	4.11
560.854	4.1
561.196	4.07
561.537	4.09
561.878	4.07
562.22	4.09
562.561	4.04
562.902	4.03
563.243	4.06
563.584	4.08
563.925	4.09
564.266	4.08
564.607	4.08
564.948	4.09
565.289	4.1
565.63	4.1
565.971	4.05
566.312	4.04
566.653	4.06
566.993	4.1
567.334	4.09
567.675	4.07
568.015	4.08
568.356	4.13
568.696	4.14
569.037	4.15
569.377	4.16
569.718	4.2
570.058	4.24
570.398	4.2
570.739	4.21
571.079	4.21
571.419	4.22
571.759	4.22
572.099	4.21
572.439	4.21
572.779	4.22
573.119	4.27
573.459	4.3
573.799	4.32
574.139	4.28
574.479	4.26
574.819	4.29
575.158	4.3
575.498	4.26
575.838	4.23
576.177	4.21
576.517	4.18
576.856	4.15
577.196	4.12
577.535	4.13
577.875	4.13
578.214	4.14
578.553	4.13
578.893	4.08
579.232	4.06
579.571	4.06
579.91	4.06
580.25	4.02
580.589	4
580.928	3.98
581.267	4.04
581.606	4.07
581.945	4.04
582.283	4.01
582.622	4.04
582.961	4.06
583.3	4.1
583.639	4.16
583.977	4.15
584.316	4.16
584.654	4.17
584.993	4.19
585.332	4.18
585.67	4.12
586.008	4.17
586.347	4.14
586.685	4.16
587.024	4.17
587.362	4.17
587.7	4.21
588.038	4.26
588.376	4.25
588.715	4.21
589.053	4.25
589.391	4.3
589.729	4.32
590.067	4.29
590.404	4.27
590.742	4.28
591.08	4.28
591.418	4.3
591.756	4.3
592.093	4.3
592.431	4.26
592.769	4.3
593.106	4.28
593.444	4.27
593.781	4.25
594.119	4.23
594.456	4.26
594.793	4.22
595.131	4.16
595.468	4.17
595.805	4.19
596.143	4.17
596.48	4.18
596.817	4.14
597.154	4.17
597.491	4.2
597.828	4.15
598.165	4.14
598.502	4.13
598.839	4.1
599.176	4.08
599.512	4.14
599.849	4.17
600.186	4.21
600.523	4.26
600.859	4.26
601.196	4.27
601.532	4.25
601.869	4.25
602.205	4.24
602.542	4.23
602.878	4.2
603.215	4.21
603.551	4.17
603.887	4.2
604.223	4.18
604.56	4.17
604.896	4.16
605.232	4.22
605.568	4.22
605.904	4.2
606.24	4.23
606.576	4.22
606.912	4.21
607.248	4.2
607.583	4.18
607.919	4.18
608.255	4.16
608.591	4.2
608.926	4.23
609.262	4.26
609.597	4.24
609.933	4.27
610.268	4.29
610.604	4.3
610.939	4.31
611.275	4.27
611.61	4.28
611.945	4.32
612.281	4.3
612.616	4.3
612.951	4.37
613.286	4.36
613.621	4.36
613.956	4.37
614.291	4.34
614.626	4.38
614.961	4.32
615.296	4.32
615.631	4.31
615.966	4.3
616.3	4.29
616.635	4.27
616.97	4.29
617.304	4.26
617.639	4.2
617.973	4.23
618.308	4.27
618.642	4.25
618.977	4.24
619.311	4.22
619.646	4.26
619.98	4.27
620.314	4.22
620.648	4.24
620.983	4.24
621.317	4.28
621.651	4.25
621.985	4.31
622.319	4.34
622.653	4.31
622.987	4.27
623.321	4.29
623.655	4.37
623.988	4.36
624.322	4.32
624.656	4.42
624.99	4.41
625.323	4.4
625.657	4.42
625.99	4.43
626.324	4.49
626.657	4.46
626.991	4.46
627.324	4.49
627.658	4.53
627.991	4.53
628.324	4.51
628.657	4.52
628.991	4.56
629.324	4.55
629.657	4.58
629.99	4.61
630.323	4.6
630.656	4.58
630.989	4.59
631.322	4.63
631.655	4.59
631.987	4.59
632.32	4.64
632.653	4.62
632.986	4.62
633.318	4.57
633.651	4.61
633.984	4.57
634.316	4.61
634.649	4.56
634.981	4.53
635.313	4.55
635.646	4.54
635.978	4.54
636.31	4.55
636.643	4.57
636.975	4.58
637.307	4.56
637.639	4.57
637.971	4.55
638.303	4.59
638.635	4.56
638.967	4.55
639.299	4.5
639.631	4.51
639.963	4.5
640.295	4.46
640.626	4.4
640.958	4.46
641.29	4.44
641.621	4.39
641.953	4.44
642.285	4.38
642.616	4.4
642.948	4.37
643.279	4.38
643.61	4.38
643.942	4.37
644.273	4.42
644.604	4.37
644.936	4.34
645.267	4.3
645.598	4.36
645.929	4.37
646.26	4.4
646.591	4.42
646.922	4.41
647.253	4.43
647.584	4.45
647.915	4.33
648.245	4.33
648.576	4.43
648.907	4.49
649.238	4.53
649.568	4.57
649.899	4.54
650.229	4.55
650.56	4.52
650.89	4.57
651.221	4.6
651.551	4.62
651.882	4.7
652.212	4.67
652.542	4.63
652.872	4.66
653.203	4.65
653.533	4.68
653.863	4.68
654.193	4.68
654.523	4.66
654.853	4.76
655.183	4.75
655.513	4.69
655.843	4.62
656.172	4.63
656.502	4.59
656.832	4.64
657.162	4.71
657.491	4.7
657.821	4.66
658.15	4.6
658.48	4.64
658.809	4.57
659.139	4.55
659.468	4.53
659.798	4.48
660.127	4.51
660.456	4.47
660.785	4.5
661.115	4.5
661.444	4.47
661.773	4.46
662.102	4.45
662.431	4.5
662.76	4.49
663.089	4.51
663.418	4.5
663.747	4.46
664.076	4.38
664.404	4.36
664.733	4.35
665.062	4.32
665.39	4.27
665.719	4.28
666.048	4.37
666.376	4.4
666.705	4.41
667.033	4.32
667.362	4.31
667.69	4.26
668.018	4.28
668.347	4.29
668.675	4.26
669.003	4.24
669.331	4.27
669.659	4.32
669.987	4.3
670.315	4.39
670.643	4.31
670.971	4.35
671.299	4.43
671.627	4.42
671.955	4.46
672.283	4.49
672.61	4.5
672.938	4.47
673.266	4.46
673.593	4.51
673.921	4.54
674.249	4.56
674.576	4.67
674.904	4.7
675.231	4.75
675.558	4.7
675.886	4.77
676.213	4.65
676.54	4.64
676.867	4.6
677.195	4.61
677.522	4.75
677.849	4.74
678.176	4.7
678.503	4.77
678.83	4.73
679.157	4.74
679.484	4.69
679.81	4.72
680.137	4.72
680.464	4.67
680.791	4.67
681.117	4.69
681.444	4.59
681.771	4.56
682.097	4.55
682.424	4.61
682.75	4.54
683.077	4.56
683.403	4.54
683.729	4.49
684.056	4.44
684.382	4.43
684.708	4.31
685.034	4.24
685.36	4.24
685.686	4.25
686.012	4.2
686.339	4.37
686.664	4.32
686.99	4.26
687.316	4.38
687.642	4.44
687.968	4.34
688.294	4.4
688.619	4.47
688.945	4.45
689.271	4.4
689.596	4.46
689.922	4.5
690.247	4.44
690.573	4.52
690.898	4.5
691.224	4.46
691.549	4.58
691.874	4.61
692.2	4.57
692.525	4.6
692.85	4.72
693.175	4.68
693.5	4.63
693.825	4.8
694.15	4.73
694.475	4.76
694.8	4.93
695.125	4.95
695.45	4.87
695.775	4.84
696.099	4.85
696.424	4.91
696.749	4.88
697.073	4.98
697.398	5.03
697.723	5.09
698.047	5.08
698.372	5.1
698.696	5.14
699.02	5.21
699.345	5.27
699.669	5.31
699.993	5.16
700.318	5.3
700.642	5.23
700.966	5.12
701.29	5.04
701.614	4.96
701.938	4.96
702.262	5.08
702.586	5.19
702.91	5.17
703.234	5.1
703.557	5.16
703.881	5.25
704.205	5.21
704.529	5
704.852	5.02
705.176	5.09
705.499	5.13
705.823	4.98
706.146	4.81
706.47	4.7
706.793	4.85
707.117	4.76
707.44	4.7
707.763	4.84
708.086	4.83
708.409	4.81
708.733	4.8
709.056	4.75
709.379	4.85
709.702	4.88
710.025	4.98
710.348	4.96
710.671	4.83
710.993	4.91
711.316	4.99
711.639	5.11
711.962	5.01
712.284	5.02
712.607	5.04
712.93	5.2
713.252	5.08
713.575	4.99
713.897	5.01
714.22	5.07
714.542	5.1
714.864	5.12
715.187	5.19
715.509	5.27
715.831	5.28
716.153	5.26
716.475	5.31
716.798	5.37
717.12	5.3
717.442	5.27
717.764	5.15
718.085	5.25
718.407	5.23
718.729	5.29
719.051	5.21
719.373	5.16
719.695	5.12
720.016	5.39
720.338	5.55
720.659	5.64
720.981	5.5
721.302	5.6
721.624	5.64
721.945	5.78
722.267	5.75
722.588	5.67
722.909	5.58
723.231	5.53
723.552	5.37
723.873	5.65
724.194	5.82
724.515	5.93
724.836	5.88
725.157	5.92
725.478	5.98
725.799	5.95
726.12	5.98
726.441	5.94
726.762	5.88
727.083	5.83
727.403	5.8
727.724	6.06
728.045	5.98
728.365	5.94
728.686	5.72
729.006	5.68
729.327	5.73
729.647	5.87
729.967	5.86
730.288	5.95
730.608	5.62
730.928	5.41
731.249	5.38
731.569	5.49
731.889	5.27
732.209	5.15
732.529	5.18
732.849	5.36
733.169	5.41
733.489	5.32
733.809	5.43
734.129	5.38
734.448	5.44
734.768	5.46
735.088	5.63
735.408	5.75
735.727	5.82
736.047	5.87
736.366	5.59
736.686	5.7
737.005	5.68
737.325	5.66
737.644	5.73
737.963	5.76
738.283	5.46
738.602	5.74
738.921	5.77
739.24	5.63
739.56	5.55
739.879	5.52
740.198	5.72
740.517	5.56
740.836	5.53
741.155	5.39
741.473	5.46
741.792	5.36
742.111	5.22
742.43	5.05
742.748	4.86
743.067	4.98
743.386	4.91
743.704	4.94
744.023	5.2
744.341	5.2
744.66	5.28
744.978	5.38
745.297	5.41
745.615	5.46
745.933	5.51
746.252	5.56
746.57	5.45
746.888	5.49
747.206	5.27
747.524	5.24
747.842	5.11
748.16	5.22
748.478	5.3
748.796	5.47
749.114	5.74
749.432	6.01
749.749	6.14
750.067	6.17
750.385	5.88
750.703	5.76
751.02	5.65
751.338	5.55
751.655	5.38
751.973	5.23
752.29	5.28
752.608	5.52
752.925	5.41
753.242	5.59
753.56	5.42
753.877	5.91
754.194	6
754.511	6.32
754.828	6.11
755.145	5.94
755.462	5.59
755.779	5.64
756.096	5.58
756.413	5.61
756.73	5.73
757.047	6.03
757.364	6.12
757.68	6.48
757.997	6.38
758.314	6.52
758.63	6.29
758.947	6.38
759.264	6.4
759.58	6.27
759.896	6.23
760.213	6.22
760.529	5.93
760.846	6.04
761.162	5.96
761.478	5.97
761.794	5.83
762.11	6.12
762.426	6.02
762.743	5.97
763.059	5.85
763.375	5.97
763.69	5.86
764.006	6.01
764.322	6.02
764.638	6.14
764.954	6.39
765.27	6.37
765.585	6.25
765.901	6.26
766.216	6.39
766.532	6.43
766.848	6.42
767.163	6.5
767.478	6.42
767.794	6.17
768.109	6.17
768.424	6.49
768.74	6.69
769.055	6.71
769.37	6.73
769.685	6.89
770	6.74
770.315	6.88
770.63	6.76
770.945	6.53
771.26	6.54
771.575	6.32
771.89	6.6
772.205	6.59
772.52	6.46
772.834	6.55
773.149	6.43
773.464	6.37
773.778	6.59
774.093	6.6
774.407	6.65
774.722	6.84
775.036	6.71
775.351	6.39
775.665	6.35
775.979	6.51
776.293	6.58
776.608	6.6
776.922	6.53
777.236	6.68
777.55	6.88
777.864	6.69
778.178	6.77
778.492	7.12
778.806	7.04
779.12	7.23
779.434	7.23
779.747	7.31
780.061	7.05
780.375	6.98
780.689	7.04
781.002	7.56
781.316	7.48
781.629	7.83
781.943	8.05
782.256	8.12
782.57	8.08
782.883	7.9
783.196	7.7
783.51	7.67
783.823	7.31
784.136	7.19
784.449	7.29
784.762	7.78
785.075	7.42
785.388	7.48
785.701	7.18
786.014	6.87
786.327	7.16
786.64	7.72
786.953	8.14
787.266	7.87
787.578	7.47
787.891	7.26
788.204	7.08
788.516	7.52
788.829	7.41
789.141	7.3
789.454	7.5
789.766	7.97
790.079	8.16
790.391	8.22
790.703	7.99
791.016	7.9
791.328	7.64
791.64	7.79
791.952	7.61
792.264	7.95
792.576	8.11
792.888	7.75
793.2	7.48
793.512	6.66
793.824	7.23
794.136	7.49
794.448	7.4
794.76	7.34
795.071	6.98
795.383	7.21
795.695	6.97
796.006	6.77
796.318	6.57
796.629	6.8
796.941	7.27
797.252	7.85
797.564	7.91
797.875	7.71
798.186	7.48
798.497	7.98
798.809	7.68
799.12	7.51
799.431	7.39
799.742	7.51
800.053	7.83
800.364	7.35
800.675	7.34
800.986	7.58
801.297	7.37
801.608	6.9
801.918	6.66
802.229	7.14
802.54	7.13
802.851	6.65
803.161	5.65
803.472	5.13
803.782	4.55
804.093	5.21
804.403	5.12
804.714	5.53
805.024	5.09
805.334	5.41
805.645	5.91
805.955	5.79
806.265	5.83
806.575	6.19
806.885	6.12
807.195	6.32
807.505	6.63
807.815	7.06
808.125	7.29
808.435	7.14
808.745	6.43
809.055	7.2
809.365	7.29
809.674	7.83
809.984	8.22
810.294	8.26
810.603	7.84
810.913	8.46
811.222	8.6
811.532	9.22
811.841	9.27
812.151	9.61
812.46	9.86
812.769	9.95
813.079	9.45
813.388	10.19
813.697	9.92
814.006	9.3
814.315	8.96
814.624	8.79
814.933	9.02
815.242	9.5
815.551	8.53
815.86	8.48
816.169	8.35
816.478	7.92
816.786	8.51
817.095	8.77
817.404	8.68
817.712	8.36
818.021	8.26
818.33	8.3
818.638	7.83
818.947	8.17
819.255	8.28
819.563	8.32
819.872	7.97
820.18	8.07
820.488	8.03
820.796	8.27
821.105	8.31
821.413	8.49
821.721	8.49
822.029	8.67
822.337	8.77
822.645	9.1
822.953	9.11
823.26	9.08
823.568	8.91
823.876	8.77
824.184	8.78
824.491	8.73
824.799	8.74
825.107	8.85
825.414	8.83
825.722	8.8
826.029	8.85
826.337	8.92
826.644	8.84
826.951	8.98
827.259	8.87
827.566	8.77
827.873	8.75
828.18	8.77
828.488	8.59
828.795	8.57
829.102	8.21
829.409	8.2
829.716	8
830.023	8.31
830.329	8.48
830.636	8.64
830.943	8.61
831.25	8.42
831.557	8.69
831.863	8.73
832.17	8.55
832.476	8.67
832.783	8.72
833.089	8.95
833.396	9.2
833.702	9.33
834.009	9.99
834.315	9.86
834.621	9.84
834.928	9.8
835.234	9.66
835.54	9.35
835.846	9.39
836.152	9.76
836.458	9.3
836.764	9
837.07	8.3
837.376	7.44
837.682	7.97
837.988	7.2
838.293	7.07
838.599	6.79
838.905	6.16
839.211	5.76
839.516	5.82
839.822	5.18
840.127	4.48
840.433	3.42
840.738	3.52
841.044	2.7
841.349	2.69
841.654	2.86
841.959	3.08
842.265	2.88
842.57	3.24
842.875	2.57
843.18	2.85
843.485	4.28
843.79	4.92
844.095	3.78
844.4	3.55
844.705	2.64
845.01	3.86
845.315	3.69
845.619	2.98
845.924	2.42
846.229	2.14
846.533	3.13
846.838	3.72
847.142	2.95
847.447	3.67
847.751	4.42
848.056	3.7
848.36	3.19
848.664	2.12
848.969	-0.04
849.273	1.72
849.577	1.23
849.881	0.25
850.185	1.35
850.489	1.36
850.794	1.68
851.097	3.55
851.401	3.12
851.705	4.24
852.009	6.07
852.313	4.62
852.617	5.26
852.92	5.89
853.224	5.68
853.528	5.43
853.831	5.67
854.135	4.41
854.438	4.51
854.742	3.64
855.045	4.36
855.349	4.38
855.652	4.51
855.955	5.74
856.259	3.64
856.562	3.86
856.865	1.55
857.168	2.01
857.471	1.24
857.774	0.94
858.077	1.79
858.38	3.92
858.683	6.76
858.986	7
859.289	6.68
859.592	6.31
859.894	7.23
860.197	7.39
860.5	7.62
860.802	8.82
861.105	11.56
861.407	9.39
861.71	11.8
862.012	10.9
862.315	10.03
862.617	9.98
862.919	12.26
863.222	15.23
863.524	14.35
863.826	14.22
864.128	17.07
864.43	15.51
864.732	13.28
865.034	12
865.336	9.77
865.638	8.1
865.94	7.85
866.242	5.64
866.544	6.16
866.846	6.98
867.147	7.9
867.449	8.38
867.751	11.74
868.052	10.37
868.354	9.67
868.655	9.67
868.957	10.24
869.258	7.03
869.56	5.81
869.861	6.19
870.162	5.99
870.463	4.79
870.765	5.91
871.066	4.78
871.367	6.09
871.668	8.45
871.969	9.15
872.27	8.33
872.571	9.55
872.872	9.69
873.173	9.77
873.473	6.06
873.774	4.45
874.075	3.6
874.376	-0.06
874.676	2.59
874.977	1.63
875.277	6.2
875.578	8.02
875.878	8.13
876.179	8.93
876.479	9.64
876.78	7.39
877.08	6.58
877.38	7.79
877.68	5.71
877.981	5.35
878.281	5.26
878.581	7.61
