Data from BU26848_Reflection_00005.txt Node
Date: Mon Nov 18 16:25:33 EST 2019
User: vgr7
Spectrometer: USB2G7710
Scans to average: 3
Trigger mode: 4
Integration Time (sec): 2.000000E-2
Electric dark correction enabled: true
Boxcar width: 10
XAxis mode: Wavelengths
Number of Pixels in Spectrum: 2048
>>>>>Begin Spectral Data<<<<<
177.721	-57.47
178.105	-602.13
178.488	520.94
178.871	129.61
179.254	224.26
179.636	100
180.019	-6.28
180.402	300
180.785	1565.12
181.168	195.74
181.55	963.01
181.933	88.86
182.316	81.89
182.698	72.72
183.081	93.45
183.463	84.12
183.846	78.22
184.228	102.06
184.611	179.83
184.993	244.34
185.376	-612.06
185.758	-565.65
186.14	-2029.77
186.522	1257.68
186.904	1624.06
187.287	899.47
187.669	-1592.74
188.051	2558.65
188.433	-661.99
188.815	-315.65
189.197	-198.84
189.579	-208.99
189.961	-152.16
190.342	-162.67
190.724	-113.22
191.106	-112.88
191.488	-129.35
191.869	-153.56
192.251	-203.98
192.633	-191.78
193.014	-173.88
193.396	-320.25
193.777	-281.1
194.159	-236.19
194.54	-141.63
194.922	-142.48
195.303	-118.88
195.684	-125.17
196.065	-75.52
196.447	-55.38
196.828	-82.59
197.209	-103.88
197.59	-151.23
197.971	-301.32
198.352	-119.11
198.733	-204.5
199.114	-84.15
199.495	-55.67
199.876	-39.47
200.257	-53.68
200.638	-55.4
201.018	-50.14
201.399	-44.91
201.78	-41.56
202.16	-53.95
202.541	-88.16
202.922	-105.26
203.302	-88.43
203.683	-123.93
204.063	-203.56
204.444	-273.53
204.824	-191.11
205.204	-103.02
205.585	-51.33
205.965	-25.82
206.345	-69.99
206.725	-59.35
207.106	-87.66
207.486	-240.47
207.866	-122.14
208.246	-173.57
208.626	-30.43
209.006	-51.08
209.386	-23.29
209.766	10.76
210.145	33.02
210.525	53.91
210.905	22.74
211.285	32.05
211.664	40.43
212.044	31.84
212.424	28.93
212.803	21.99
213.183	12.62
213.562	-0.18
213.942	-2.5
214.321	5.63
214.701	15.38
215.08	-1.71
215.459	-4.72
215.838	-2.63
216.218	3.23
216.597	-1.64
216.976	-10.87
217.355	-6.31
217.734	-12.65
218.113	-12.38
218.492	-15.98
218.871	-15.26
219.25	-10.43
219.629	-16.48
220.008	-15.4
220.387	-19.74
220.766	-19.96
221.144	-21.85
221.523	-37.85
221.902	-49.97
222.28	-40.37
222.659	-43.29
223.037	-33.71
223.416	-34.48
223.794	-27.99
224.173	-30.66
224.551	-36.01
224.929	-20.14
225.308	-23.68
225.686	-21.99
226.064	-19.54
226.442	-19.95
226.821	-17.43
227.199	-16.84
227.577	-18.27
227.955	-12.4
228.333	-15.15
228.711	-9.43
229.089	-6.19
229.467	-6.04
229.845	-4.04
230.222	-3.19
230.6	-6.94
230.978	-6.29
231.356	-3.11
231.733	-2.72
232.111	-2.6
232.488	0.02
232.866	0.98
233.243	2.98
233.621	3.01
233.998	4.57
234.376	3.96
234.753	3.48
235.13	3.64
235.508	4.56
235.885	2.92
236.262	3.89
236.639	1.7
237.016	0.56
237.393	2.49
237.77	4.48
238.147	4.24
238.524	5.07
238.901	5.33
239.278	4.71
239.655	5.51
240.032	5.78
240.409	5.51
240.785	5.34
241.162	4.57
241.539	4.83
241.915	4.61
242.292	4.87
242.668	5.35
243.045	5.26
243.421	5.08
243.798	5.08
244.174	5.17
244.551	5.39
244.927	5.19
245.303	5.1
245.679	4.79
246.056	4.47
246.432	4.4
246.808	4.08
247.184	3.68
247.56	3.2
247.936	3.15
248.312	3.15
248.688	3.04
249.064	3.14
249.44	2.97
249.815	2.98
250.191	2.93
250.567	3.01
250.943	2.82
251.318	2.97
251.694	3.09
252.069	3.01
252.445	2.9
252.82	2.92
253.196	2.61
253.571	2.61
253.947	2.85
254.322	3.21
254.697	3.66
255.073	3.7
255.448	4.03
255.823	3.88
256.198	3.79
256.573	4.01
256.948	4.36
257.323	4.42
257.698	4.5
258.073	4.69
258.448	4.42
258.823	4.42
259.198	4.26
259.573	4.12
259.948	4.18
260.322	4.25
260.697	4.21
261.072	4.13
261.446	4.12
261.821	4
262.195	3.92
262.57	3.8
262.944	3.85
263.319	3.69
263.693	3.76
264.067	3.84
264.442	3.74
264.816	3.39
265.19	3.28
265.564	3.05
265.938	2.9
266.313	2.77
266.687	2.84
267.061	3.01
267.435	3.19
267.809	3.04
268.183	2.94
268.556	2.8
268.93	3.15
269.304	3.07
269.678	3.3
270.051	3.18
270.425	3.14
270.799	3.28
271.172	3.34
271.546	3.32
271.919	3.1
272.293	2.96
272.666	3.3
273.04	3.5
273.413	3.53
273.787	3.5
274.16	3.68
274.533	3.56
274.906	3.54
275.279	3.3
275.653	3.25
276.026	3.21
276.399	3.21
276.772	3.01
277.145	2.97
277.518	2.93
277.891	3.14
278.263	3.05
278.636	3.1
279.009	3.04
279.382	3.18
279.755	3.24
280.127	3.72
280.5	3.68
280.872	3.55
281.245	3.57
281.617	3.6
281.99	3.58
282.362	3.54
282.735	3.36
283.107	3.52
283.479	3.56
283.852	3.58
284.224	3.77
284.596	3.71
284.968	3.81
285.34	3.79
285.713	3.75
286.085	3.91
286.457	3.89
286.829	3.94
287.201	3.82
287.572	3.74
287.944	3.42
288.316	3.25
288.688	3.28
289.06	3.34
289.431	3.32
289.803	3.36
290.175	3.43
290.546	3.58
290.918	3.53
291.289	3.61
291.661	3.61
292.032	3.64
292.403	3.89
292.775	3.97
293.146	3.95
293.517	3.88
293.889	3.82
294.26	3.79
294.631	3.84
295.002	3.85
295.373	3.91
295.744	3.97
296.115	3.98
296.486	3.87
296.857	3.76
297.228	3.76
297.599	3.68
297.97	3.73
298.34	3.78
298.711	3.87
299.082	3.89
299.452	3.97
299.823	3.96
300.194	3.77
300.564	3.62
300.935	3.66
301.305	3.65
301.676	3.72
302.046	3.67
302.416	3.69
302.787	3.69
303.157	3.73
303.527	3.84
303.897	3.78
304.267	4
304.637	4.03
305.008	4.11
305.378	4.13
305.748	4.08
306.117	3.92
306.487	3.94
306.857	3.92
307.227	4.01
307.597	3.98
307.967	3.99
308.336	4.08
308.706	3.94
309.076	3.94
309.445	3.82
309.815	3.98
310.184	3.96
310.554	4.04
310.923	3.92
311.293	3.8
311.662	3.78
312.031	3.6
312.401	3.52
312.77	3.59
313.139	3.66
313.508	3.68
313.877	3.61
314.246	3.35
314.616	3.33
314.985	3.16
315.353	3.09
315.722	3.11
316.091	2.92
316.46	2.96
316.829	2.98
317.198	3.03
317.567	2.91
317.935	2.73
318.304	2.62
318.672	2.78
319.041	2.93
319.41	2.91
319.778	3.11
320.147	3.27
320.515	3.12
320.883	2.9
321.252	3.02
321.62	3.22
321.988	3.34
322.357	3.32
322.725	3.2
323.093	3.29
323.461	3.26
323.829	3.43
324.197	3.53
324.565	3.52
324.933	3.58
325.301	3.55
325.669	3.64
326.037	3.64
326.405	3.56
326.772	3.59
327.14	3.67
327.508	3.64
327.875	3.56
328.243	3.67
328.61	3.77
328.978	3.71
329.346	3.7
329.713	3.64
330.08	3.55
330.448	3.66
330.815	3.54
331.182	3.58
331.55	3.52
331.917	3.47
332.284	3.46
332.651	3.43
333.018	3.47
333.385	3.4
333.752	3.54
334.119	3.61
334.486	3.43
334.853	3.46
335.22	3.29
335.587	3.38
335.954	3.34
336.32	3.32
336.687	3.25
337.054	3.31
337.42	3.33
337.787	3.43
338.153	3.4
338.52	3.53
338.886	3.57
339.253	3.52
339.619	3.45
339.986	3.44
340.352	3.45
340.718	3.35
341.084	3.44
341.451	3.44
341.817	3.38
342.183	3.44
342.549	3.37
342.915	3.5
343.281	3.43
343.647	3.36
344.013	3.41
344.379	3.3
344.745	3.29
345.11	3.35
345.476	3.34
345.842	3.35
346.208	3.27
346.573	3.32
346.939	3.49
347.304	3.47
347.67	3.4
348.035	3.41
348.401	3.52
348.766	3.54
349.132	3.48
349.497	3.49
349.862	3.52
350.228	3.58
350.593	3.5
350.958	3.49
351.323	3.49
351.688	3.44
352.053	3.52
352.418	3.51
352.783	3.46
353.148	3.46
353.513	3.54
353.878	3.57
354.243	3.55
354.608	3.54
354.972	3.64
355.337	3.71
355.702	3.69
356.066	3.73
356.431	3.64
356.795	3.61
357.16	3.61
357.524	3.54
357.889	3.49
358.253	3.55
358.618	3.55
358.982	3.53
359.346	3.52
359.71	3.55
360.075	3.54
360.439	3.57
360.803	3.55
361.167	3.48
361.531	3.44
361.895	3.35
362.259	3.29
362.623	3.25
362.987	3.19
363.351	3.2
363.714	3.16
364.078	3.18
364.442	3.17
364.806	3.18
365.169	3.26
365.533	3.3
365.896	3.26
366.26	3.28
366.623	3.35
366.987	3.38
367.35	3.38
367.714	3.43
368.077	3.42
368.44	3.4
368.803	3.47
369.167	3.47
369.53	3.52
369.893	3.54
370.256	3.54
370.619	3.61
370.982	3.58
371.345	3.56
371.708	3.62
372.071	3.61
372.434	3.55
372.797	3.51
373.159	3.44
373.522	3.47
373.885	3.49
374.247	3.49
374.61	3.49
374.973	3.46
375.335	3.33
375.698	3.32
376.06	3.31
376.423	3.26
376.785	3.3
377.147	3.34
377.51	3.31
377.872	3.29
378.234	3.3
378.596	3.35
378.958	3.33
379.321	3.26
379.683	3.24
380.045	3.29
380.407	3.28
380.769	3.34
381.13	3.32
381.492	3.31
381.854	3.3
382.216	3.25
382.578	3.28
382.939	3.32
383.301	3.35
383.663	3.35
384.024	3.39
384.386	3.39
384.747	3.4
385.109	3.42
385.47	3.4
385.832	3.4
386.193	3.37
386.554	3.37
386.916	3.39
387.277	3.39
387.638	3.41
387.999	3.36
388.36	3.35
388.721	3.38
389.082	3.34
389.443	3.28
389.804	3.31
390.165	3.28
390.526	3.29
390.887	3.29
391.248	3.28
391.609	3.26
391.969	3.24
392.33	3.22
392.691	3.22
393.051	3.23
393.412	3.22
393.772	3.24
394.133	3.27
394.493	3.26
394.854	3.34
395.214	3.31
395.574	3.34
395.935	3.34
396.295	3.34
396.655	3.37
397.015	3.41
397.376	3.43
397.736	3.44
398.096	3.45
398.456	3.45
398.816	3.48
399.176	3.47
399.535	3.46
399.895	3.42
400.255	3.41
400.615	3.45
400.975	3.44
401.334	3.41
401.694	3.4
402.054	3.39
402.413	3.35
402.773	3.36
403.132	3.39
403.492	3.39
403.851	3.36
404.211	3.36
404.57	3.33
404.929	3.33
405.288	3.29
405.648	3.25
406.007	3.27
406.366	3.27
406.725	3.31
407.084	3.35
407.443	3.38
407.802	3.4
408.161	3.37
408.52	3.36
408.879	3.33
409.238	3.33
409.596	3.32
409.955	3.29
410.314	3.29
410.673	3.28
411.031	3.27
411.39	3.3
411.748	3.27
412.107	3.3
412.465	3.28
412.824	3.33
413.182	3.34
413.54	3.34
413.899	3.34
414.257	3.3
414.615	3.27
414.974	3.28
415.332	3.25
415.69	3.21
416.048	3.22
416.406	3.26
416.764	3.28
417.122	3.31
417.48	3.32
417.838	3.3
418.195	3.29
418.553	3.29
418.911	3.28
419.269	3.3
419.626	3.3
419.984	3.3
420.342	3.3
420.699	3.31
421.057	3.31
421.414	3.3
421.772	3.3
422.129	3.3
422.486	3.29
422.844	3.31
423.201	3.32
423.558	3.32
423.915	3.3
424.273	3.3
424.63	3.29
424.987	3.3
425.344	3.31
425.701	3.32
426.058	3.33
426.415	3.33
426.772	3.33
427.128	3.31
427.485	3.31
427.842	3.31
428.199	3.32
428.555	3.3
428.912	3.35
429.269	3.36
429.625	3.37
429.982	3.37
430.338	3.36
430.695	3.38
431.051	3.37
431.407	3.39
431.764	3.38
432.12	3.35
432.476	3.35
432.832	3.33
433.189	3.32
433.545	3.31
433.901	3.28
434.257	3.28
434.613	3.29
434.969	3.29
435.325	3.28
435.681	3.27
436.036	3.28
436.392	3.24
436.748	3.23
437.104	3.21
437.459	3.21
437.815	3.21
438.171	3.22
438.526	3.24
438.882	3.25
439.237	3.26
439.593	3.28
439.948	3.26
440.304	3.28
440.659	3.29
441.014	3.29
441.369	3.29
441.725	3.29
442.08	3.28
442.435	3.27
442.79	3.29
443.145	3.29
443.5	3.27
443.855	3.28
444.21	3.29
444.565	3.3
444.92	3.3
445.275	3.28
445.629	3.29
445.984	3.27
446.339	3.25
446.693	3.23
447.048	3.22
447.403	3.22
447.757	3.21
448.112	3.21
448.466	3.2
448.82	3.19
449.175	3.2
449.529	3.21
449.883	3.21
450.238	3.19
450.592	3.19
450.946	3.2
451.3	3.2
451.654	3.21
452.008	3.22
452.362	3.21
452.716	3.22
453.07	3.2
453.424	3.19
453.778	3.19
454.132	3.2
454.486	3.19
454.839	3.2
455.193	3.2
455.547	3.2
455.9	3.22
456.254	3.24
456.607	3.25
456.961	3.24
457.314	3.24
457.668	3.24
458.021	3.24
458.375	3.24
458.728	3.23
459.081	3.23
459.434	3.23
459.787	3.23
460.141	3.22
460.494	3.23
460.847	3.23
461.2	3.24
461.553	3.24
461.906	3.25
462.259	3.26
462.611	3.27
462.964	3.28
463.317	3.27
463.67	3.27
464.022	3.26
464.375	3.26
464.728	3.27
465.08	3.28
465.433	3.3
465.785	3.28
466.138	3.3
466.49	3.29
466.843	3.27
467.195	3.28
467.547	3.29
467.899	3.29
468.252	3.31
468.604	3.33
468.956	3.31
469.308	3.3
469.66	3.3
470.012	3.29
470.364	3.29
470.716	3.31
471.068	3.3
471.42	3.29
471.772	3.31
472.123	3.3
472.475	3.3
472.827	3.29
473.178	3.29
473.53	3.29
473.882	3.28
474.233	3.3
474.585	3.28
474.936	3.29
475.288	3.26
475.639	3.24
475.99	3.22
476.342	3.23
476.693	3.25
477.044	3.24
477.395	3.24
477.746	3.25
478.097	3.24
478.448	3.25
478.8	3.26
479.15	3.26
479.501	3.26
479.852	3.28
480.203	3.3
480.554	3.33
480.905	3.34
481.255	3.33
481.606	3.34
481.957	3.35
482.307	3.36
482.658	3.36
483.009	3.36
483.359	3.37
483.709	3.37
484.06	3.37
484.41	3.37
484.761	3.37
485.111	3.37
485.461	3.38
485.811	3.37
486.162	3.37
486.512	3.39
486.862	3.39
487.212	3.38
487.562	3.38
487.912	3.38
488.262	3.38
488.612	3.38
488.961	3.37
489.311	3.38
489.661	3.38
490.011	3.38
490.36	3.38
490.71	3.38
491.06	3.38
491.409	3.37
491.759	3.38
492.108	3.39
492.458	3.39
492.807	3.38
493.157	3.39
493.506	3.39
493.855	3.38
494.204	3.36
494.554	3.36
494.903	3.34
495.252	3.34
495.601	3.33
495.95	3.35
496.299	3.36
496.648	3.36
496.997	3.35
497.346	3.37
497.695	3.4
498.043	3.4
498.392	3.4
498.741	3.41
499.09	3.4
499.438	3.4
499.787	3.41
500.135	3.41
500.484	3.4
500.832	3.41
501.181	3.42
501.529	3.45
501.878	3.45
502.226	3.47
502.574	3.49
502.923	3.48
503.271	3.47
503.619	3.47
503.967	3.45
504.315	3.45
504.663	3.46
505.011	3.46
505.359	3.46
505.707	3.47
506.055	3.48
506.403	3.49
506.751	3.49
507.098	3.49
507.446	3.5
507.794	3.51
508.141	3.49
508.489	3.5
508.837	3.48
509.184	3.5
509.531	3.51
509.879	3.5
510.226	3.52
510.574	3.53
510.921	3.54
511.268	3.55
511.616	3.55
511.963	3.55
512.31	3.54
512.657	3.55
513.004	3.56
513.351	3.56
513.698	3.57
514.045	3.57
514.392	3.58
514.739	3.57
515.086	3.6
515.432	3.63
515.779	3.61
516.126	3.63
516.473	3.62
516.819	3.64
517.166	3.63
517.512	3.63
517.859	3.63
518.205	3.62
518.552	3.62
518.898	3.64
519.245	3.63
519.591	3.64
519.937	3.63
520.283	3.63
520.629	3.66
520.976	3.68
521.322	3.69
521.668	3.68
522.014	3.7
522.36	3.7
522.706	3.71
523.052	3.73
523.398	3.73
523.743	3.73
524.089	3.71
524.435	3.73
524.781	3.73
525.126	3.76
525.472	3.77
525.817	3.78
526.163	3.76
526.509	3.79
526.854	3.79
527.199	3.8
527.545	3.8
527.89	3.79
528.235	3.78
528.581	3.79
528.926	3.8
529.271	3.81
529.616	3.79
529.961	3.79
530.306	3.78
530.651	3.78
530.996	3.79
531.341	3.79
531.686	3.8
532.031	3.8
532.376	3.79
532.721	3.79
533.065	3.79
533.41	3.8
533.755	3.78
534.099	3.78
534.444	3.79
534.788	3.79
535.133	3.79
535.477	3.79
535.822	3.78
536.166	3.78
536.51	3.78
536.855	3.8
537.199	3.8
537.543	3.81
537.887	3.81
538.231	3.81
538.576	3.83
538.92	3.83
539.264	3.84
539.608	3.85
539.951	3.84
540.295	3.85
540.639	3.87
540.983	3.88
541.327	3.88
541.671	3.88
542.014	3.88
542.358	3.89
542.701	3.9
543.045	3.91
543.389	3.9
543.732	3.91
544.075	3.91
544.419	3.92
544.762	3.91
545.105	3.92
545.449	3.93
545.792	3.93
546.135	3.93
546.478	3.92
546.821	3.91
547.165	3.92
547.508	3.92
547.851	3.93
548.194	3.91
548.536	3.89
548.879	3.9
549.222	3.87
549.565	3.87
549.908	3.87
550.25	3.88
550.593	3.91
550.936	3.91
551.278	3.94
551.621	3.91
551.963	3.94
552.306	3.93
552.648	3.91
552.991	3.92
553.333	3.97
553.675	3.95
554.017	3.97
554.36	3.98
554.702	4.01
555.044	3.99
555.386	3.99
555.728	4.01
556.07	4.01
556.412	4
556.754	4.02
557.096	4
557.438	3.97
557.78	3.97
558.121	3.98
558.463	3.97
558.805	3.98
559.147	3.96
559.488	3.97
559.83	3.97
560.171	3.97
560.513	3.97
560.854	3.99
561.196	3.99
561.537	3.97
561.878	3.93
562.22	3.91
562.561	3.93
562.902	3.95
563.243	3.94
563.584	3.96
563.925	3.95
564.266	3.96
564.607	3.96
564.948	3.98
565.289	3.98
565.63	3.97
565.971	3.95
566.312	3.96
566.653	3.97
566.993	3.99
567.334	3.97
567.675	3.95
568.015	3.92
568.356	3.9
568.696	3.93
569.037	3.96
569.377	3.98
569.718	4.01
570.058	4.02
570.398	4
570.739	4
571.079	4
571.419	4.02
571.759	4.04
572.099	4
572.439	3.97
572.779	3.97
573.119	4
573.459	4.01
573.799	4.03
574.139	4.03
574.479	4.01
574.819	4.01
575.158	4.02
575.498	4.02
575.838	4.01
576.177	3.99
576.517	3.99
576.856	3.96
577.196	3.92
577.535	3.93
577.875	3.93
578.214	3.94
578.553	3.95
578.893	3.9
579.232	3.92
579.571	3.95
579.91	3.98
580.25	3.97
580.589	3.99
580.928	3.96
581.267	3.95
581.606	3.99
581.945	3.99
582.283	3.94
582.622	3.98
582.961	3.99
583.3	4.01
583.639	4.04
583.977	4.08
584.316	4.11
584.654	4.11
584.993	4.12
585.332	4.1
585.67	4.1
586.008	4.11
586.347	4.13
586.685	4.13
587.024	4.09
587.362	4.08
587.7	4.07
588.038	4.1
588.376	4.07
588.715	4.07
589.053	4.1
589.391	4.16
589.729	4.17
590.067	4.16
590.404	4.1
590.742	4.1
591.08	4
591.418	4.02
591.756	4.04
592.093	4.05
592.431	4.04
592.769	4.04
593.106	4.07
593.444	4.02
593.781	4.03
594.119	4.07
594.456	4.07
594.793	4.05
595.131	3.99
595.468	4
595.805	3.99
596.143	3.98
596.48	3.99
596.817	3.98
597.154	4
597.491	4.05
597.828	4.05
598.165	4.1
598.502	4.07
598.839	4.06
599.176	4.07
599.512	4.1
599.849	4.09
600.186	4.08
600.523	4.16
600.859	4.17
601.196	4.16
601.532	4.14
601.869	4.11
602.205	4.16
602.542	4.19
602.878	4.21
603.215	4.2
603.551	4.2
603.887	4.2
604.223	4.18
604.56	4.17
604.896	4.16
605.232	4.19
605.568	4.19
605.904	4.2
606.24	4.19
606.576	4.18
606.912	4.19
607.248	4.17
607.583	4.14
607.919	4.11
608.255	4.09
608.591	4.13
608.926	4.15
609.262	4.15
609.597	4.1
609.933	4.12
610.268	4.12
610.604	4.13
610.939	4.08
611.275	4.11
611.61	4.13
611.945	4.1
612.281	4.07
612.616	4.06
612.951	4.08
613.286	4.12
613.621	4.09
613.956	4.11
614.291	4.11
614.626	4.1
614.961	4.12
615.296	4.15
615.631	4.12
615.966	4.14
616.3	4.13
616.635	4.18
616.97	4.16
617.304	4.17
617.639	4.15
617.973	4.19
618.308	4.15
618.642	4.14
618.977	4.14
619.311	4.16
619.646	4.19
619.98	4.17
620.314	4.09
620.648	4.1
620.983	4.11
621.317	4.13
621.651	4.14
621.985	4.15
622.319	4.13
622.653	4.14
622.987	4.17
623.321	4.16
623.655	4.14
623.988	4.14
624.322	4.12
624.656	4.18
624.99	4.15
625.323	4.19
625.657	4.17
625.99	4.2
626.324	4.2
626.657	4.21
626.991	4.23
627.324	4.26
627.658	4.3
627.991	4.29
628.324	4.31
628.657	4.32
628.991	4.28
629.324	4.31
629.657	4.32
629.99	4.35
630.323	4.35
630.656	4.38
630.989	4.39
631.322	4.44
631.655	4.37
631.987	4.44
632.32	4.45
632.653	4.47
632.986	4.45
633.318	4.46
633.651	4.43
633.984	4.42
634.316	4.41
634.649	4.39
634.981	4.37
635.313	4.38
635.646	4.36
635.978	4.35
636.31	4.35
636.643	4.31
636.975	4.28
637.307	4.3
637.639	4.28
637.971	4.26
638.303	4.25
638.635	4.24
638.967	4.24
639.299	4.25
639.631	4.26
639.963	4.24
640.295	4.23
640.626	4.27
640.958	4.34
641.29	4.33
641.621	4.32
641.953	4.29
642.285	4.27
642.616	4.25
642.948	4.34
643.279	4.32
643.61	4.39
643.942	4.39
644.273	4.34
644.604	4.37
644.936	4.38
645.267	4.32
645.598	4.35
645.929	4.39
646.26	4.37
646.591	4.35
646.922	4.36
647.253	4.32
647.584	4.36
647.915	4.29
648.245	4.33
648.576	4.37
648.907	4.42
649.238	4.39
649.568	4.44
649.899	4.45
650.229	4.46
650.56	4.42
650.89	4.4
651.221	4.46
651.551	4.42
651.882	4.4
652.212	4.39
652.542	4.36
652.872	4.27
653.203	4.29
653.533	4.34
653.863	4.38
654.193	4.38
654.523	4.33
654.853	4.35
655.183	4.36
655.513	4.34
655.843	4.35
656.172	4.39
656.502	4.4
656.832	4.35
657.162	4.34
657.491	4.35
657.821	4.36
658.15	4.31
658.48	4.31
658.809	4.34
659.139	4.38
659.468	4.36
659.798	4.36
660.127	4.33
660.456	4.35
660.785	4.31
661.115	4.35
661.444	4.36
661.773	4.33
662.102	4.27
662.431	4.3
662.76	4.31
663.089	4.35
663.418	4.33
663.747	4.32
664.076	4.31
664.404	4.31
664.733	4.39
665.062	4.45
665.39	4.45
665.719	4.44
666.048	4.48
666.376	4.52
666.705	4.52
667.033	4.54
667.362	4.52
667.69	4.6
668.018	4.62
668.347	4.57
668.675	4.59
669.003	4.68
669.331	4.71
669.659	4.64
669.987	4.63
670.315	4.67
670.643	4.66
670.971	4.68
671.299	4.68
671.627	4.59
671.955	4.53
672.283	4.53
672.61	4.5
672.938	4.45
673.266	4.5
673.593	4.62
673.921	4.58
674.249	4.58
674.576	4.54
674.904	4.48
675.231	4.47
675.558	4.48
675.886	4.45
676.213	4.41
676.54	4.45
676.867	4.35
677.195	4.3
677.522	4.26
677.849	4.32
678.176	4.41
678.503	4.43
678.83	4.49
679.157	4.46
679.484	4.44
679.81	4.47
680.137	4.38
680.464	4.27
680.791	4.29
681.117	4.23
681.444	4.2
681.771	4.22
682.097	4.28
682.424	4.33
682.75	4.37
683.077	4.33
683.403	4.37
683.729	4.46
684.056	4.48
684.382	4.5
684.708	4.42
685.034	4.43
685.36	4.4
685.686	4.38
686.012	4.4
686.339	4.43
686.664	4.48
686.99	4.55
687.316	4.57
687.642	4.66
687.968	4.72
688.294	4.85
688.619	4.92
688.945	4.94
689.271	4.88
689.596	4.79
689.922	4.9
690.247	4.85
690.573	4.87
690.898	4.84
691.224	4.92
691.549	4.99
691.874	4.86
692.2	4.88
692.525	4.95
692.85	5.06
693.175	5.18
693.5	5.08
693.825	5.1
694.15	5.18
694.475	5.05
694.8	5.05
695.125	4.91
695.45	4.77
695.775	4.73
696.099	4.82
696.424	4.86
696.749	4.8
697.073	4.8
697.398	4.75
697.723	4.83
698.047	4.74
698.372	4.8
698.696	4.82
699.02	4.82
699.345	4.79
699.669	4.81
699.993	4.69
700.318	4.7
700.642	4.68
700.966	4.61
701.29	4.65
701.614	4.64
701.938	4.66
702.262	4.76
702.586	4.79
702.91	4.65
703.234	4.68
703.557	4.75
703.881	4.65
704.205	4.68
704.529	4.55
704.852	4.48
705.176	4.43
705.499	4.56
705.823	4.59
706.146	4.55
706.47	4.48
706.793	4.54
707.117	4.64
707.44	4.67
707.763	4.74
708.086	4.7
708.409	4.78
708.733	4.83
709.056	4.85
709.379	4.96
709.702	5.04
710.025	4.99
710.348	4.82
710.671	4.87
710.993	4.92
711.316	4.95
711.639	5.05
711.962	4.94
712.284	4.87
712.607	4.9
712.93	4.98
713.252	4.99
713.575	5.05
713.897	5.06
714.22	5.02
714.542	5.02
714.864	5.06
715.187	5.08
715.509	5.15
715.831	5.1
716.153	5.07
716.475	4.95
716.798	5.03
717.12	5.1
717.442	5.14
717.764	5.06
718.085	5.15
718.407	5.1
718.729	5.18
719.051	5.18
719.373	5.18
719.695	5.1
720.016	5.16
720.338	5.15
720.659	5.11
720.981	5.06
721.302	4.98
721.624	4.94
721.945	4.92
722.267	4.81
722.588	4.87
722.909	4.78
723.231	4.81
723.552	4.68
723.873	4.77
724.194	4.83
724.515	4.95
724.836	4.86
725.157	5.17
725.478	5.22
725.799	5.31
726.12	5.13
726.441	5.2
726.762	5.22
727.083	5.15
727.403	5.12
727.724	5.28
728.045	5.42
728.365	5.43
728.686	5.21
729.006	5.32
729.327	5.31
729.647	5.42
729.967	5.5
730.288	5.41
730.608	5.31
730.928	5.3
731.249	5.15
731.569	5.33
731.889	5.19
732.209	5.04
732.529	4.96
732.849	5.14
733.169	5.11
733.489	5.13
733.809	5.21
734.129	5.2
734.448	5.19
734.768	4.99
735.088	5.05
735.408	5.23
735.727	5.29
736.047	5.2
736.366	5.18
736.686	5.07
737.005	5.2
737.325	5.28
737.644	5.12
737.963	5.24
738.283	4.85
738.602	4.85
738.921	5.13
739.24	5.06
739.56	5
739.879	4.97
740.198	4.84
740.517	4.77
740.836	4.81
741.155	4.74
741.473	5.01
741.792	5
742.111	5.05
742.43	5.02
742.748	5.01
743.067	4.97
743.386	5.14
743.704	4.91
744.023	4.97
744.341	5.15
744.66	5.33
744.978	5.43
745.297	5.5
745.615	5.34
745.933	5.32
746.252	5.46
746.57	5.48
746.888	5.54
747.206	5.58
747.524	5.5
747.842	5.39
748.16	5.42
748.478	5.54
748.796	5.58
749.114	5.53
749.432	5.54
749.749	5.47
750.067	5.38
750.385	5.57
750.703	5.6
751.02	5.6
751.338	5.38
751.655	5.31
751.973	5.46
752.29	5.51
752.608	5.73
752.925	5.73
753.242	5.66
753.56	5.72
753.877	5.59
754.194	5.96
754.511	5.97
754.828	5.72
755.145	5.53
755.462	5.29
755.779	5.34
756.096	5.49
756.413	5.58
756.73	5.76
757.047	6.03
757.364	5.92
757.68	5.79
757.997	5.82
758.314	6.01
758.63	5.7
758.947	5.52
759.264	5.32
759.58	5.03
759.896	4.99
760.213	4.93
760.529	5.11
760.846	4.88
761.162	4.98
761.478	4.89
761.794	5.02
762.11	5.03
762.426	5.12
762.743	5.27
763.059	5.39
763.375	5.41
763.69	5.26
764.006	5.24
764.322	5.55
764.638	5.58
764.954	5.87
765.27	5.89
765.585	6.07
765.901	5.89
766.216	5.87
766.532	5.88
766.848	5.72
767.163	5.71
767.478	5.64
767.794	5.76
768.109	5.77
768.424	5.81
768.74	5.9
769.055	5.73
769.37	5.6
769.685	5.5
770	5.39
770.315	5.36
770.63	5.37
770.945	4.85
771.26	5
771.575	4.62
771.89	4.55
772.205	4.3
772.52	4.59
772.834	4.48
773.149	4.43
773.464	4.73
773.778	4.75
774.093	4.51
774.407	4.27
774.722	4.27
775.036	4.42
775.351	4.58
775.665	4.73
775.979	4.49
776.293	4.46
776.608	4.53
776.922	4.42
777.236	4.23
777.55	4.73
777.864	4.53
778.178	4.68
778.492	5.38
778.806	5.35
779.12	5.39
779.434	6
779.747	6.35
780.061	6.23
780.375	6.13
780.689	6.64
781.002	7.2
781.316	7.43
781.629	7.35
781.943	7.19
782.256	7.2
782.57	7.01
782.883	6.73
783.196	6.62
783.51	6.68
783.823	6.85
784.136	6.47
784.449	6.58
784.762	6.41
785.075	5.74
785.388	5.69
785.701	5.49
786.014	5.38
786.327	5.12
786.64	5.52
786.953	5.77
787.266	5.39
787.578	4.89
787.891	5.12
788.204	5.08
788.516	5.38
788.829	5.53
789.141	6.1
789.454	6.36
789.766	6.51
790.079	6.53
790.391	6.48
790.703	7.04
791.016	7.1
791.328	7.25
791.64	7.55
791.952	7.71
792.264	7.56
792.576	7.67
792.888	7.82
793.2	7.39
793.512	7.29
793.824	7.44
794.136	7.56
794.448	7.46
794.76	7.07
795.071	6.56
795.383	5.79
795.695	5.43
796.006	5.29
796.318	5.44
796.629	5.75
796.941	6.26
797.252	6
797.564	6.09
797.875	5.62
798.186	5.17
798.497	5.52
798.809	6.03
799.12	6.09
799.431	6.42
799.742	6.63
800.053	6.9
800.364	7.16
800.675	6.94
800.986	6.81
801.297	7.34
801.608	7.61
801.918	8.2
802.229	8.66
802.54	8.73
802.851	8.53
803.161	8.63
803.472	8.08
803.782	7.32
804.093	7.17
804.403	7.95
804.714	8.13
805.024	7.56
805.334	7.48
805.645	7.08
805.955	6.93
806.265	7.19
806.575	7.24
806.885	7.17
807.195	7.66
807.505	7.84
807.815	7.48
808.125	7.15
808.435	6.54
808.745	6.04
809.055	6.5
809.365	6.48
809.674	6.2
809.984	6.4
810.294	7.09
810.603	7.24
810.913	7.46
811.222	7.6
811.532	8.56
811.841	9.39
812.151	10.35
812.46	9.58
812.769	9.35
813.079	8.54
813.388	8.28
813.697	8.21
814.006	8.16
814.315	8.06
814.624	8.02
814.933	9.11
815.242	8.96
815.551	8.89
815.86	8.94
816.169	8.24
816.478	8.17
816.786	8.35
817.095	7.94
817.404	7.85
817.712	7.63
818.021	7.19
818.33	6.8
818.638	5.99
818.947	6.74
819.255	6.94
819.563	7.33
819.872	7.43
820.18	7.36
820.488	7.25
820.796	7.28
821.105	7.52
821.413	7.43
821.721	7.64
822.029	7.42
822.337	7.37
822.645	7.66
822.953	7.53
823.26	7.58
823.568	7.53
823.876	7.48
824.184	7.59
824.491	7.64
824.799	7.54
825.107	7.61
825.414	7.55
825.722	7.56
826.029	7.62
826.337	7.74
826.644	7.88
826.951	7.9
827.259	7.92
827.566	7.89
827.873	7.9
828.18	7.79
828.488	7.97
828.795	7.94
829.102	7.81
829.409	8.06
829.716	7.82
830.023	8.03
830.329	7.89
830.636	7.85
830.943	7.75
831.25	7.8
831.557	7.74
831.863	7.81
832.17	7.69
832.476	7.64
832.783	7.5
833.089	6.99
833.396	7.06
833.702	7.33
834.009	7.24
834.315	7.13
834.621	7.52
834.928	7.65
835.234	8.16
835.54	8.4
835.846	8.76
836.152	9.12
836.458	9.2
836.764	8.86
837.07	8.6
837.376	8.44
837.682	8.71
837.988	8.26
838.293	8.8
838.599	8.85
838.905	8.63
839.211	8.69
839.516	8.87
839.822	8.76
840.127	8.58
840.433	8.64
840.738	9.02
841.044	8.8
841.349	8.88
841.654	7.91
841.959	7.34
842.265	6.14
842.57	6.3
842.875	5.75
843.18	7.02
843.485	7.77
843.79	8.46
844.095	7.88
844.4	9.31
844.705	7.16
845.01	7.05
845.315	6.18
845.619	5.41
845.924	4.78
846.229	5.4
846.533	4.4
846.838	4.42
847.142	2.68
847.447	2.57
847.751	1.15
848.056	1.91
848.36	1.7
848.664	2.67
848.969	1.02
849.273	-0.78
849.577	-2.18
849.881	-2.79
850.185	-2.26
850.489	-1.61
850.794	-2.15
851.097	0.66
851.401	0.01
851.705	2.5
852.009	3.22
852.313	5.27
852.617	5.51
852.92	8.45
853.224	7.08
853.528	8.33
853.831	7.33
854.135	8.18
854.438	7.28
854.742	7.52
855.045	6.87
855.349	5.82
855.652	7.44
855.955	9.11
856.259	9.85
856.562	9.03
856.865	7.51
857.168	7.96
857.471	4.98
857.774	5.9
858.077	4.73
858.38	6.99
858.683	7.4
858.986	7.84
859.289	6.8
859.592	8.65
859.894	9.83
860.197	10.72
860.5	11.33
860.802	10.43
861.105	9.55
861.407	9.06
861.71	9.46
862.012	8.76
862.315	7.35
862.617	6.8
862.919	8.78
863.222	9.36
863.524	10.63
863.826	12.68
864.128	12.75
864.43	13.14
864.732	12.74
865.034	10.42
865.336	7.77
865.638	5.64
865.94	5.52
866.242	3.67
866.544	4.12
866.846	4.55
867.147	6.06
867.449	8.71
867.751	8.59
868.052	11.95
868.354	12.03
868.655	11.98
868.957	11.95
869.258	10.06
869.56	10.79
869.861	9.85
870.162	8.46
870.463	8.09
870.765	8.16
871.066	5.27
871.367	5.8
871.668	6.86
871.969	5.66
872.27	5.25
872.571	6.45
872.872	7.3
873.173	4.67
873.473	4.02
873.774	3.75
874.075	4.16
874.376	1.58
874.676	2.71
874.977	1.11
875.277	1.44
875.578	0.64
875.878	-0.17
876.179	-1.02
876.479	-0.43
876.78	-0.35
877.08	-1.24
877.38	-0.46
877.68	0.11
877.981	0.66
878.281	3.88
878.581	4.44
