Data from BU26851_Reflection_00002.txt Node
Date: Mon Nov 18 16:48:06 EST 2019
User: vgr7
Spectrometer: USB2G7710
Scans to average: 3
Trigger mode: 4
Integration Time (sec): 2.000000E-2
Electric dark correction enabled: true
Boxcar width: 10
XAxis mode: Wavelengths
Number of Pixels in Spectrum: 2048
>>>>>Begin Spectral Data<<<<<
177.721	-144.2
178.105	-8.11
178.488	1568.35
178.871	-441.32
179.254	1184.75
179.636	-101.52
180.019	2811.86
180.402	86.11
180.785	72.32
181.168	113.06
181.55	211.89
181.933	174.87
182.316	200.5
182.698	165.13
183.081	333.07
183.463	-1611.34
183.846	-449.52
184.228	-2158.06
184.611	900
184.993	1998.31
185.376	97.19
185.758	147.72
186.14	242.26
186.522	325.08
186.904	-3341.86
187.287	836.84
187.669	-633.73
188.051	208.37
188.433	205.26
188.815	96.4
189.197	82.36
189.579	120.3
189.961	206.92
190.342	145.69
190.724	171.59
191.106	236.87
191.488	836.84
191.869	-2041.59
192.251	646.71
192.633	-19172.73
193.014	1155.12
193.396	144.24
193.777	305.44
194.159	167.8
194.54	48.48
194.922	385.71
195.303	31.03
195.684	111.05
196.065	-128.01
196.447	29.71
196.828	-110.53
197.209	77.9
197.59	2720.69
197.971	822.58
198.352	-343
198.733	-297.41
199.114	-181.46
199.495	-210.93
199.876	-200.99
200.257	-149.47
200.638	-119.18
201.018	-111.79
201.399	-122.53
201.78	-44.31
202.16	-36.62
202.541	-26.14
202.922	-35.64
203.302	-44.06
203.683	-78.93
204.063	-122.55
204.444	-201.66
204.824	-267.45
205.204	-126.37
205.585	-97.98
205.965	-120.9
206.345	-269.38
206.725	-690.36
207.106	-1592.31
207.486	1183.74
207.866	762.02
208.246	439.68
208.626	413.22
209.006	1519.35
209.386	1548.65
209.766	5949.06
210.145	825.54
210.525	2687.41
210.905	-1024.65
211.285	-544.25
211.664	-243.85
212.044	-120.9
212.424	-94.18
212.803	-65.13
213.183	-49.39
213.562	-38.97
213.942	-19.86
214.321	3.77
214.701	-2.38
215.08	-7.09
215.459	-5.91
215.838	-0.93
216.218	14.58
216.597	31.36
216.976	31.86
217.355	39.97
217.734	44.29
218.113	46.12
218.492	54.98
218.871	51.13
219.25	41.63
219.629	24.35
220.008	34.65
220.387	44.14
220.766	32.63
221.144	24.19
221.523	23.56
221.902	31.49
222.28	13.39
222.659	25.28
223.037	23.57
223.416	11.71
223.794	9.52
224.173	8
224.551	5.29
224.929	-7.77
225.308	-3.47
225.686	-0.18
226.064	-0.75
226.442	-8.25
226.821	-2.3
227.199	-3.35
227.577	-5.85
227.955	-8.19
228.333	-10.4
228.711	-14.08
229.089	-6.79
229.467	-7.84
229.845	-12.73
230.222	-10.51
230.6	-9.88
230.978	-7.82
231.356	-3.09
231.733	-3.7
232.111	-4.24
232.488	-2.27
232.866	1.74
233.243	-0.59
233.621	-1.07
233.998	1.25
234.376	1.23
234.753	2.44
235.13	3.46
235.508	6.82
235.885	6.67
236.262	5.67
236.639	6.74
237.016	5.97
237.393	8.42
237.77	9.77
238.147	8.99
238.524	6.85
238.901	6.6
239.278	6.88
239.655	7.16
240.032	7.5
240.409	6.07
240.785	5.46
241.162	6.05
241.539	5.75
241.915	5.06
242.292	5.41
242.668	4.92
243.045	4.72
243.421	4.03
243.798	3.75
244.174	3.91
244.551	4.02
244.927	3.9
245.303	3.51
245.679	3.13
246.056	3.12
246.432	3.5
246.808	3.42
247.184	2.93
247.56	2.94
247.936	2.59
248.312	2.66
248.688	2.76
249.064	2.68
249.44	2.63
249.815	2.56
250.191	2.63
250.567	2.64
250.943	2.62
251.318	2.7
251.694	2.82
252.069	2.93
252.445	3.15
252.82	3.26
253.196	3.3
253.571	3.53
253.947	3.62
254.322	3.92
254.697	3.67
255.073	3.65
255.448	3.22
255.823	3.27
256.198	3.31
256.573	2.92
256.948	2.93
257.323	3.12
257.698	3.18
258.073	2.88
258.448	2.75
258.823	2.64
259.198	2.71
259.573	2.59
259.948	2.48
260.322	2.31
260.697	2.23
261.072	2.03
261.446	2.05
261.821	2.02
262.195	1.84
262.57	1.73
262.944	1.57
263.319	1.56
263.693	1.55
264.067	1.75
264.442	1.96
264.816	1.88
265.19	1.76
265.564	1.73
265.938	1.87
266.313	1.95
266.687	1.98
267.061	1.88
267.435	1.93
267.809	1.89
268.183	1.97
268.556	2.03
268.93	2.11
269.304	2.23
269.678	2.35
270.051	2.41
270.425	2.5
270.799	2.66
271.172	2.73
271.546	2.68
271.919	2.27
272.293	2.2
272.666	2.33
273.04	2.36
273.413	2.42
273.787	2.38
274.16	2.39
274.533	2.45
274.906	2.38
275.279	2.33
275.653	2.33
276.026	2.19
276.399	1.98
276.772	2.06
277.145	1.94
277.518	1.86
277.891	1.89
278.263	1.97
278.636	2.07
279.009	2.08
279.382	2.24
279.755	2.47
280.127	2.62
280.5	2.74
280.872	2.81
281.245	2.7
281.617	2.9
281.99	2.99
282.362	2.99
282.735	2.93
283.107	3.04
283.479	3.02
283.852	3.07
284.224	3.09
284.596	3.16
284.968	3.09
285.34	3.16
285.713	3.17
286.085	3.21
286.457	3.34
286.829	3.29
287.201	3.13
287.572	3.08
287.944	2.94
288.316	2.72
288.688	2.55
289.06	2.62
289.431	2.57
289.803	2.51
290.175	2.53
290.546	2.69
290.918	2.67
291.289	2.62
291.661	2.77
292.032	2.86
292.403	2.8
292.775	3.06
293.146	2.95
293.517	2.97
293.889	2.99
294.26	2.93
294.631	3.09
295.002	3.17
295.373	3.18
295.744	3.19
296.115	3.28
296.486	3.3
296.857	3.32
297.228	3.34
297.599	3.2
297.97	3.23
298.34	3.27
298.711	3.34
299.082	3.41
299.452	3.28
299.823	3.29
300.194	3.26
300.564	3.11
300.935	3.2
301.305	3.17
301.676	3.27
302.046	3.29
302.416	3.43
302.787	3.54
303.157	3.55
303.527	3.59
303.897	3.69
304.267	3.85
304.637	3.84
305.008	3.81
305.378	3.95
305.748	3.97
306.117	3.91
306.487	3.92
306.857	3.87
307.227	3.94
307.597	3.89
307.967	3.81
308.336	3.76
308.706	3.78
309.076	3.77
309.445	3.56
309.815	3.46
310.184	3.23
310.554	3.2
310.923	3.25
311.293	3.35
311.662	3.21
312.031	3.16
312.401	3.2
312.77	3.15
313.139	3.12
313.508	3.09
313.877	2.97
314.246	2.9
314.616	2.98
314.985	2.89
315.353	2.81
315.722	2.99
316.091	3.01
316.46	2.81
316.829	2.73
317.198	2.83
317.567	2.86
317.935	2.96
318.304	2.77
318.672	2.69
319.041	2.59
319.41	2.61
319.778	2.56
320.147	2.43
320.515	2.57
320.883	2.58
321.252	2.69
321.62	2.85
321.988	2.79
322.357	2.64
322.725	2.71
323.093	2.92
323.461	2.84
323.829	2.87
324.197	3.04
324.565	3.25
324.933	3.26
325.301	3.26
325.669	3.15
326.037	3.31
326.405	3.38
326.772	3.43
327.14	3.46
327.508	3.42
327.875	3.55
328.243	3.53
328.61	3.69
328.978	3.64
329.346	3.63
329.713	3.55
330.08	3.69
330.448	3.55
330.815	3.38
331.182	3.43
331.55	3.43
331.917	3.47
332.284	3.28
332.651	3.32
333.018	3.44
333.385	3.58
333.752	3.65
334.119	3.69
334.486	3.7
334.853	3.67
335.22	3.75
335.587	3.75
335.954	3.64
336.32	3.41
336.687	3.39
337.054	3.36
337.42	3.5
337.787	3.6
338.153	3.72
338.52	3.83
338.886	3.78
339.253	3.74
339.619	3.77
339.986	3.78
340.352	3.77
340.718	3.56
341.084	3.54
341.451	3.5
341.817	3.47
342.183	3.45
342.549	3.48
342.915	3.45
343.281	3.43
343.647	3.53
344.013	3.66
344.379	3.58
344.745	3.65
345.11	3.59
345.476	3.5
345.842	3.44
346.208	3.37
346.573	3.5
346.939	3.51
347.304	3.48
347.67	3.4
348.035	3.33
348.401	3.4
348.766	3.36
349.132	3.31
349.497	3.21
349.862	3.29
350.228	3.31
350.593	3.34
350.958	3.28
351.323	3.26
351.688	3.25
352.053	3.29
352.418	3.25
352.783	3.26
353.148	3.12
353.513	3.19
353.878	3.27
354.243	3.33
354.608	3.38
354.972	3.34
355.337	3.37
355.702	3.45
356.066	3.47
356.431	3.46
356.795	3.53
357.16	3.61
357.524	3.44
357.889	3.44
358.253	3.39
358.618	3.47
358.982	3.4
359.346	3.38
359.71	3.33
360.075	3.38
360.439	3.38
360.803	3.49
361.167	3.46
361.531	3.42
361.895	3.3
362.259	3.26
362.623	3.24
362.987	3.27
363.351	3.24
363.714	3.29
364.078	3.29
364.442	3.24
364.806	3.24
365.169	3.35
365.533	3.38
365.896	3.44
366.26	3.38
366.623	3.41
366.987	3.48
367.35	3.55
367.714	3.54
368.077	3.59
368.44	3.56
368.803	3.63
369.167	3.61
369.53	3.59
369.893	3.67
370.256	3.74
370.619	3.78
370.982	3.7
371.345	3.66
371.708	3.67
372.071	3.71
372.434	3.7
372.797	3.62
373.159	3.56
373.522	3.57
373.885	3.62
374.247	3.64
374.61	3.62
374.973	3.6
375.335	3.58
375.698	3.53
376.06	3.52
376.423	3.45
376.785	3.5
377.147	3.54
377.51	3.5
377.872	3.48
378.234	3.46
378.596	3.55
378.958	3.55
379.321	3.54
379.683	3.54
380.045	3.56
380.407	3.62
380.769	3.64
381.13	3.63
381.492	3.59
381.854	3.59
382.216	3.56
382.578	3.58
382.939	3.52
383.301	3.57
383.663	3.58
384.024	3.6
384.386	3.61
384.747	3.64
385.109	3.66
385.47	3.64
385.832	3.65
386.193	3.65
386.554	3.65
386.916	3.69
387.277	3.68
387.638	3.69
387.999	3.64
388.36	3.63
388.721	3.63
389.082	3.63
389.443	3.6
389.804	3.64
390.165	3.63
390.526	3.66
390.887	3.61
391.248	3.62
391.609	3.63
391.969	3.63
392.33	3.61
392.691	3.59
393.051	3.61
393.412	3.63
393.772	3.63
394.133	3.65
394.493	3.62
394.854	3.63
395.214	3.59
395.574	3.64
395.935	3.65
396.295	3.64
396.655	3.65
397.015	3.65
397.376	3.66
397.736	3.68
398.096	3.71
398.456	3.74
398.816	3.78
399.176	3.75
399.535	3.73
399.895	3.72
400.255	3.74
400.615	3.75
400.975	3.75
401.334	3.73
401.694	3.73
402.054	3.73
402.413	3.74
402.773	3.73
403.132	3.73
403.492	3.72
403.851	3.7
404.211	3.71
404.57	3.73
404.929	3.7
405.288	3.69
405.648	3.66
406.007	3.67
406.366	3.64
406.725	3.67
407.084	3.7
407.443	3.72
407.802	3.74
408.161	3.74
408.52	3.74
408.879	3.75
409.238	3.72
409.596	3.74
409.955	3.74
410.314	3.78
410.673	3.76
411.031	3.78
411.39	3.79
411.748	3.8
412.107	3.8
412.465	3.8
412.824	3.78
413.182	3.82
413.54	3.82
413.899	3.81
414.257	3.81
414.615	3.8
414.974	3.8
415.332	3.79
415.69	3.77
416.048	3.75
416.406	3.75
416.764	3.75
417.122	3.75
417.48	3.74
417.838	3.74
418.195	3.74
418.553	3.73
418.911	3.72
419.269	3.72
419.626	3.71
419.984	3.71
420.342	3.7
420.699	3.7
421.057	3.68
421.414	3.7
421.772	3.7
422.129	3.69
422.486	3.68
422.844	3.68
423.201	3.67
423.558	3.66
423.915	3.65
424.273	3.67
424.63	3.66
424.987	3.67
425.344	3.67
425.701	3.67
426.058	3.67
426.415	3.69
426.772	3.69
427.128	3.7
427.485	3.71
427.842	3.72
428.199	3.72
428.555	3.71
428.912	3.69
429.269	3.69
429.625	3.68
429.982	3.7
430.338	3.72
430.695	3.74
431.051	3.75
431.407	3.76
431.764	3.75
432.12	3.74
432.476	3.74
432.832	3.74
433.189	3.75
433.545	3.74
433.901	3.72
434.257	3.7
434.613	3.7
434.969	3.68
435.325	3.68
435.681	3.68
436.036	3.7
436.392	3.72
436.748	3.72
437.104	3.72
437.459	3.72
437.815	3.72
438.171	3.71
438.526	3.71
438.882	3.7
439.237	3.72
439.593	3.74
439.948	3.73
440.304	3.73
440.659	3.73
441.014	3.74
441.369	3.73
441.725	3.76
442.08	3.77
442.435	3.78
442.79	3.78
443.145	3.78
443.5	3.77
443.855	3.77
444.21	3.76
444.565	3.78
444.92	3.78
445.275	3.76
445.629	3.77
445.984	3.76
446.339	3.76
446.693	3.74
447.048	3.73
447.403	3.73
447.757	3.73
448.112	3.72
448.466	3.72
448.82	3.74
449.175	3.74
449.529	3.72
449.883	3.73
450.238	3.73
450.592	3.72
450.946	3.73
451.3	3.72
451.654	3.71
452.008	3.71
452.362	3.71
452.716	3.72
453.07	3.74
453.424	3.72
453.778	3.72
454.132	3.72
454.486	3.71
454.839	3.71
455.193	3.7
455.547	3.71
455.9	3.71
456.254	3.7
456.607	3.71
456.961	3.71
457.314	3.71
457.668	3.7
458.021	3.7
458.375	3.69
458.728	3.7
459.081	3.71
459.434	3.71
459.787	3.71
460.141	3.71
460.494	3.71
460.847	3.73
461.2	3.74
461.553	3.77
461.906	3.76
462.259	3.77
462.611	3.79
462.964	3.8
463.317	3.8
463.67	3.79
464.022	3.78
464.375	3.77
464.728	3.78
465.08	3.81
465.433	3.82
465.785	3.84
466.138	3.84
466.49	3.84
466.843	3.84
467.195	3.82
467.547	3.83
467.899	3.84
468.252	3.85
468.604	3.87
468.956	3.83
469.308	3.86
469.66	3.87
470.012	3.87
470.364	3.87
470.716	3.88
471.068	3.89
471.42	3.89
471.772	3.92
472.123	3.91
472.475	3.9
472.827	3.89
473.178	3.87
473.53	3.86
473.882	3.87
474.233	3.87
474.585	3.89
474.936	3.87
475.288	3.86
475.639	3.85
475.99	3.83
476.342	3.86
476.693	3.85
477.044	3.87
477.395	3.88
477.746	3.87
478.097	3.86
478.448	3.86
478.8	3.86
479.15	3.84
479.501	3.85
479.852	3.84
480.203	3.85
480.554	3.87
480.905	3.87
481.255	3.89
481.606	3.9
481.957	3.89
482.307	3.91
482.658	3.9
483.009	3.9
483.359	3.91
483.709	3.91
484.06	3.91
484.41	3.92
484.761	3.92
485.111	3.92
485.461	3.93
485.811	3.93
486.162	3.93
486.512	3.94
486.862	3.94
487.212	3.95
487.562	3.95
487.912	3.95
488.262	3.96
488.612	3.95
488.961	3.95
489.311	3.96
489.661	3.95
490.011	3.96
490.36	3.96
490.71	3.95
491.06	3.96
491.409	3.96
491.759	3.94
492.108	3.94
492.458	3.93
492.807	3.94
493.157	3.94
493.506	3.94
493.855	3.94
494.204	3.93
494.554	3.94
494.903	3.93
495.252	3.93
495.601	3.94
495.95	3.95
496.299	3.94
496.648	3.94
496.997	3.97
497.346	3.99
497.695	4
498.043	4.01
498.392	3.99
498.741	4.01
499.09	4.02
499.438	4.03
499.787	4.03
500.135	4.03
500.484	4.03
500.832	4.03
501.181	4.03
501.529	4.04
501.878	4.05
502.226	4.06
502.574	4.07
502.923	4.07
503.271	4.05
503.619	4.07
503.967	4.07
504.315	4.03
504.663	4.02
505.011	4.01
505.359	4
505.707	4.02
506.055	4.01
506.403	4
506.751	3.99
507.098	4
507.446	3.98
507.794	3.97
508.141	4
508.489	3.98
508.837	4
509.184	4
509.531	4.02
509.879	4.04
510.226	4.05
510.574	4.05
510.921	4.03
511.268	4.05
511.616	4.06
511.963	4.07
512.31	4.08
512.657	4.1
513.004	4.1
513.351	4.09
513.698	4.11
514.045	4.12
514.392	4.12
514.739	4.15
515.086	4.17
515.432	4.16
515.779	4.17
516.126	4.17
516.473	4.18
516.819	4.18
517.166	4.16
517.512	4.15
517.859	4.15
518.205	4.15
518.552	4.14
518.898	4.16
519.245	4.16
519.591	4.16
519.937	4.16
520.283	4.16
520.629	4.17
520.976	4.16
521.322	4.17
521.668	4.18
522.014	4.17
522.36	4.15
522.706	4.15
523.052	4.16
523.398	4.17
523.743	4.16
524.089	4.17
524.435	4.18
524.781	4.18
525.126	4.2
525.472	4.2
525.817	4.21
526.163	4.19
526.509	4.2
526.854	4.2
527.199	4.21
527.545	4.21
527.89	4.22
528.235	4.23
528.581	4.23
528.926	4.22
529.271	4.23
529.616	4.24
529.961	4.24
530.306	4.24
530.651	4.24
530.996	4.23
531.341	4.23
531.686	4.22
532.031	4.23
532.376	4.23
532.721	4.23
533.065	4.23
533.41	4.24
533.755	4.24
534.099	4.24
534.444	4.23
534.788	4.24
535.133	4.24
535.477	4.22
535.822	4.2
536.166	4.22
536.51	4.22
536.855	4.22
537.199	4.23
537.543	4.23
537.887	4.23
538.231	4.24
538.576	4.25
538.92	4.28
539.264	4.27
539.608	4.27
539.951	4.27
540.295	4.26
540.639	4.28
540.983	4.29
541.327	4.29
541.671	4.29
542.014	4.26
542.358	4.25
542.701	4.26
543.045	4.28
543.389	4.28
543.732	4.29
544.075	4.3
544.419	4.28
544.762	4.28
545.105	4.28
545.449	4.27
545.792	4.26
546.135	4.24
546.478	4.26
546.821	4.26
547.165	4.26
547.508	4.27
547.851	4.25
548.194	4.24
548.536	4.26
548.879	4.29
549.222	4.3
549.565	4.33
549.908	4.35
550.25	4.33
550.593	4.32
550.936	4.3
551.278	4.3
551.621	4.35
551.963	4.38
552.306	4.38
552.648	4.37
552.991	4.4
553.333	4.4
553.675	4.38
554.017	4.38
554.36	4.4
554.702	4.42
555.044	4.43
555.386	4.46
555.728	4.45
556.07	4.45
556.412	4.44
556.754	4.42
557.096	4.4
557.438	4.43
557.78	4.45
558.121	4.47
558.463	4.45
558.805	4.43
559.147	4.4
559.488	4.42
559.83	4.46
560.171	4.48
560.513	4.49
560.854	4.5
561.196	4.5
561.537	4.49
561.878	4.47
562.22	4.47
562.561	4.44
562.902	4.43
563.243	4.42
563.584	4.44
563.925	4.47
564.266	4.48
564.607	4.49
564.948	4.47
565.289	4.48
565.63	4.52
565.971	4.53
566.312	4.52
566.653	4.53
566.993	4.52
567.334	4.48
567.675	4.46
568.015	4.46
568.356	4.47
568.696	4.49
569.037	4.52
569.377	4.54
569.718	4.54
570.058	4.55
570.398	4.58
570.739	4.6
571.079	4.61
571.419	4.62
571.759	4.61
572.099	4.61
572.439	4.6
572.779	4.58
573.119	4.6
573.459	4.63
573.799	4.64
574.139	4.65
574.479	4.67
574.819	4.67
575.158	4.68
575.498	4.69
575.838	4.66
576.177	4.62
576.517	4.61
576.856	4.62
577.196	4.61
577.535	4.58
577.875	4.58
578.214	4.57
578.553	4.59
578.893	4.59
579.232	4.62
579.571	4.62
579.91	4.6
580.25	4.59
580.589	4.54
580.928	4.53
581.267	4.54
581.606	4.55
581.945	4.57
582.283	4.55
582.622	4.54
582.961	4.55
583.3	4.57
583.639	4.56
583.977	4.57
584.316	4.59
584.654	4.57
584.993	4.55
585.332	4.56
585.67	4.54
586.008	4.54
586.347	4.5
586.685	4.51
587.024	4.54
587.362	4.57
587.7	4.58
588.038	4.58
588.376	4.53
588.715	4.54
589.053	4.56
589.391	4.61
589.729	4.59
590.067	4.58
590.404	4.61
590.742	4.62
591.08	4.6
591.418	4.59
591.756	4.58
592.093	4.62
592.431	4.58
592.769	4.62
593.106	4.6
593.444	4.63
593.781	4.62
594.119	4.65
594.456	4.63
594.793	4.65
595.131	4.65
595.468	4.67
595.805	4.72
596.143	4.7
596.48	4.72
596.817	4.73
597.154	4.73
597.491	4.76
597.828	4.77
598.165	4.77
598.502	4.78
598.839	4.8
599.176	4.79
599.512	4.82
599.849	4.78
600.186	4.8
600.523	4.83
600.859	4.85
601.196	4.8
601.532	4.79
601.869	4.76
602.205	4.76
602.542	4.77
602.878	4.71
603.215	4.69
603.551	4.66
603.887	4.67
604.223	4.66
604.56	4.62
604.896	4.66
605.232	4.69
605.568	4.68
605.904	4.69
606.24	4.71
606.576	4.68
606.912	4.69
607.248	4.69
607.583	4.66
607.919	4.66
608.255	4.66
608.591	4.72
608.926	4.73
609.262	4.78
609.597	4.77
609.933	4.79
610.268	4.81
610.604	4.8
610.939	4.8
611.275	4.86
611.61	4.86
611.945	4.81
612.281	4.81
612.616	4.8
612.951	4.82
613.286	4.81
613.621	4.82
613.956	4.82
614.291	4.83
614.626	4.83
614.961	4.83
615.296	4.78
615.631	4.75
615.966	4.77
616.3	4.73
616.635	4.73
616.97	4.73
617.304	4.74
617.639	4.79
617.973	4.73
618.308	4.69
618.642	4.71
618.977	4.7
619.311	4.72
619.646	4.75
619.98	4.71
620.314	4.72
620.648	4.75
620.983	4.8
621.317	4.84
621.651	4.82
621.985	4.85
622.319	4.92
622.653	4.92
622.987	4.88
623.321	4.85
623.655	4.89
623.988	4.89
624.322	4.93
624.656	4.93
624.99	5
625.323	5.04
625.657	5.08
625.99	5.12
626.324	5.11
626.657	5.1
626.991	5.13
627.324	5.12
627.658	5.16
627.991	5.15
628.324	5.08
628.657	5.07
628.991	5.06
629.324	5.09
629.657	5.13
629.99	5.11
630.323	5.14
630.656	5.12
630.989	5.11
631.322	5.06
631.655	5.08
631.987	5.08
632.32	5.05
632.653	5
632.986	4.99
633.318	5.01
633.651	5.04
633.984	5.09
634.316	5.08
634.649	5.04
634.981	5.03
635.313	5.08
635.646	5.1
635.978	5.08
636.31	5.05
636.643	5.01
636.975	5.06
637.307	5.05
637.639	5.06
637.971	5.07
638.303	5.11
638.635	5.03
638.967	5.02
639.299	5.08
639.631	5.08
639.963	5.04
640.295	5.06
640.626	5.06
640.958	5.04
641.29	5.09
641.621	5.02
641.953	4.98
642.285	4.98
642.616	5.08
642.948	5.11
643.279	5.13
643.61	5.15
643.942	5.15
644.273	5.15
644.604	5.18
644.936	5.16
645.267	5.18
645.598	5.18
645.929	5.18
646.26	5.17
646.591	5.19
646.922	5.18
647.253	5.14
647.584	5.15
647.915	5.05
648.245	5
648.576	5.07
648.907	5.13
649.238	5.18
649.568	5.12
649.899	5.08
650.229	5.07
650.56	5.09
650.89	5.14
651.221	5.15
651.551	5.11
651.882	5.15
652.212	5.16
652.542	5.18
652.872	5.18
653.203	5.16
653.533	5.21
653.863	5.25
654.193	5.24
654.523	5.2
654.853	5.27
655.183	5.33
655.513	5.3
655.843	5.31
656.172	5.28
656.502	5.25
656.832	5.25
657.162	5.25
657.491	5.24
657.821	5.19
658.15	5.17
658.48	5.16
658.809	5.16
659.139	5.16
659.468	5.17
659.798	5.19
660.127	5.19
660.456	5.22
660.785	5.19
661.115	5.23
661.444	5.2
661.773	5.25
662.102	5.14
662.431	5.2
662.76	5.22
663.089	5.19
663.418	5.21
663.747	5.28
664.076	5.28
664.404	5.28
664.733	5.37
665.062	5.38
665.39	5.41
665.719	5.39
666.048	5.36
666.376	5.34
666.705	5.28
667.033	5.26
667.362	5.2
667.69	5.23
668.018	5.23
668.347	5.34
668.675	5.25
669.003	5.29
669.331	5.3
669.659	5.23
669.987	5.22
670.315	5.19
670.643	5.1
670.971	5.09
671.299	5.14
671.627	5.08
671.955	5.1
672.283	5.06
672.61	5.01
672.938	4.98
673.266	5.02
673.593	5.17
673.921	5.24
674.249	5.23
674.576	5.25
674.904	5.26
675.231	5.19
675.558	5.26
675.886	5.36
676.213	5.27
676.54	5.34
676.867	5.37
677.195	5.4
677.522	5.44
677.849	5.47
678.176	5.43
678.503	5.4
678.83	5.45
679.157	5.41
679.484	5.45
679.81	5.49
680.137	5.42
680.464	5.3
680.791	5.27
681.117	5.22
681.444	5.2
681.771	5.18
682.097	5.17
682.424	5.12
682.75	5.07
683.077	5.1
683.403	5.09
683.729	5.07
684.056	5.13
684.382	5.26
684.708	5.22
685.034	5.17
685.36	5.2
685.686	5.13
686.012	5.17
686.339	5.29
686.664	5.29
686.99	5.36
687.316	5.42
687.642	5.46
687.968	5.46
688.294	5.51
688.619	5.58
688.945	5.64
689.271	5.65
689.596	5.53
689.922	5.56
690.247	5.48
690.573	5.56
690.898	5.49
691.224	5.4
691.549	5.43
691.874	5.42
692.2	5.35
692.525	5.44
692.85	5.5
693.175	5.39
693.5	5.47
693.825	5.52
694.15	5.56
694.475	5.57
694.8	5.59
695.125	5.59
695.45	5.49
695.775	5.5
696.099	5.41
696.424	5.52
696.749	5.43
697.073	5.51
697.398	5.41
697.723	5.37
698.047	5.33
698.372	5.24
698.696	5.36
699.02	5.46
699.345	5.39
699.669	5.43
699.993	5.32
700.318	5.26
700.642	5.19
700.966	5.06
701.29	4.95
701.614	5
701.938	5.13
702.262	5.18
702.586	5.22
702.91	5.21
703.234	5.23
703.557	5.38
703.881	5.32
704.205	5.47
704.529	5.44
704.852	5.52
705.176	5.7
705.499	5.65
705.823	5.5
706.146	5.56
706.47	5.56
706.793	5.64
707.117	5.66
707.44	5.77
707.763	5.8
708.086	5.84
708.409	5.82
708.733	5.61
709.056	5.57
709.379	5.56
709.702	5.78
710.025	5.92
710.348	5.74
710.671	5.67
710.993	5.81
711.316	5.96
711.639	5.96
711.962	5.91
712.284	6
712.607	6.09
712.93	6.07
713.252	5.97
713.575	6.09
713.897	6.17
714.22	6.08
714.542	6.29
714.864	6.29
715.187	6.33
715.509	6.44
715.831	6.39
716.153	6.44
716.475	6.37
716.798	6.33
717.12	6.35
717.442	6.45
717.764	6.17
718.085	6.14
718.407	6.08
718.729	6.15
719.051	6.01
719.373	6.13
719.695	6.12
720.016	6.11
720.338	6.13
720.659	6.05
720.981	6.11
721.302	6.12
721.624	6.03
721.945	5.99
722.267	5.9
722.588	6.04
722.909	5.91
723.231	5.86
723.552	5.76
723.873	6.16
724.194	6.21
724.515	6.4
724.836	6.34
725.157	6.4
725.478	6.2
725.799	6.33
726.12	6.23
726.441	6.26
726.762	6.47
727.083	6.32
727.403	6.39
727.724	6.42
728.045	6.47
728.365	6.57
728.686	6.58
729.006	6.57
729.327	6.43
729.647	6.41
729.967	6.37
730.288	6.34
730.608	5.99
730.928	5.79
731.249	5.78
731.569	5.85
731.889	5.92
732.209	6.01
732.529	5.93
732.849	6.02
733.169	6.06
733.489	5.81
733.809	6.01
734.129	5.91
734.448	5.84
734.768	5.65
735.088	5.81
735.408	5.74
735.727	5.76
736.047	5.91
736.366	5.85
736.686	6.13
737.005	6.29
737.325	6.43
737.644	6.78
737.963	6.75
738.283	6.58
738.602	6.66
738.921	6.74
739.24	6.81
739.56	6.72
739.879	6.61
740.198	6.88
740.517	6.85
740.836	6.89
741.155	6.93
741.473	6.93
741.792	6.76
742.111	6.88
742.43	6.8
742.748	6.76
743.067	6.89
743.386	6.62
743.704	6.51
744.023	6.73
744.341	6.32
744.66	6.41
744.978	6.65
745.297	6.44
745.615	6.33
745.933	6.21
746.252	6.38
746.57	6.4
746.888	6.37
747.206	6.26
747.524	6.42
747.842	6.53
748.16	6.86
748.478	7.03
748.796	6.82
749.114	7.11
749.432	6.88
749.749	7.05
750.067	7
750.385	7.08
750.703	6.74
751.02	7.11
751.338	7.02
751.655	6.96
751.973	6.96
752.29	7.11
752.608	7.19
752.925	7.27
753.242	7.18
753.56	7.01
753.877	6.95
754.194	6.98
754.511	7.11
754.828	6.88
755.145	6.75
755.462	7.09
755.779	7.14
756.096	7.44
756.413	7.48
756.73	7.63
757.047	7.63
757.364	8.03
757.68	8.2
757.997	8.23
758.314	8.18
758.63	8.21
758.947	7.97
759.264	7.85
759.58	7.72
759.896	8
760.213	8.27
760.529	8.43
760.846	8.28
761.162	8.16
761.478	8.01
761.794	7.78
762.11	7.47
762.426	7.42
762.743	7.41
763.059	7.47
763.375	7.68
763.69	7.65
764.006	7.72
764.322	7.55
764.638	7.63
764.954	7.76
765.27	7.74
765.585	7.81
765.901	7.99
766.216	7.94
766.532	7.95
766.848	7.67
767.163	7.5
767.478	7.58
767.794	7.63
768.109	7.55
768.424	7.95
768.74	8.19
769.055	8.34
769.37	8.54
769.685	8.38
770	8.19
770.315	7.97
770.63	7.81
770.945	7.68
771.26	7.6
771.575	7.61
771.89	7.6
772.205	7.91
772.52	7.78
772.834	7.7
773.149	7.81
773.464	7.93
773.778	8.43
774.093	8.09
774.407	7.86
774.722	8.11
775.036	7.87
775.351	7.98
775.665	7.68
775.979	7.37
776.293	7.44
776.608	7.36
776.922	7.84
777.236	7.74
777.55	7.79
777.864	8.09
778.178	8.49
778.492	8.79
778.806	8.36
779.12	8.67
779.434	9.14
779.747	8.87
780.061	9.06
780.375	8.46
780.689	8.83
781.002	8.98
781.316	9.28
781.629	9.71
781.943	9.78
782.256	9.52
782.57	9.54
782.883	9.37
783.196	9.53
783.51	9.18
783.823	9.29
784.136	9.53
784.449	9.12
784.762	8.62
785.075	8.59
785.388	8.91
785.701	8.6
786.014	7.97
786.327	8.05
786.64	8.07
786.953	8.44
787.266	8.23
787.578	8.08
787.891	7.74
788.204	7.31
788.516	7.22
788.829	7.75
789.141	7.76
789.454	8.01
789.766	7.94
790.079	8.27
790.391	8.27
790.703	8.21
791.016	8.38
791.328	8.41
791.64	7.89
791.952	7.82
792.264	7.65
792.576	7.9
792.888	7.94
793.2	8.12
793.512	7.91
793.824	8.29
794.136	8.84
794.448	9.2
794.76	9.27
795.071	9.6
795.383	9.41
795.695	9.29
796.006	9.06
796.318	9.29
796.629	9.31
796.941	9.55
797.252	9.9
797.564	9.88
797.875	10.24
798.186	10.75
798.497	10.79
798.809	10.94
799.12	10.73
799.431	10.79
799.742	10.93
800.053	11.09
800.364	11.13
800.675	10.67
800.986	10.54
801.297	10.4
801.608	9.73
801.918	9.84
802.229	10.23
802.54	10.15
802.851	10.1
803.161	9.9
803.472	9.45
803.782	9.32
804.093	9.01
804.403	8.58
804.714	8.12
805.024	8.27
805.334	8.42
805.645	8.71
805.955	9.21
806.265	9.54
806.575	9.41
806.885	9.3
807.195	9.76
807.505	10.22
807.815	10.65
808.125	11.1
808.435	10.86
808.745	10.75
809.055	10.82
809.365	10.89
809.674	11.26
809.984	11.44
810.294	11.16
810.603	11.77
810.913	12.19
811.222	12.97
811.532	12.78
811.841	12.73
812.151	12.78
812.46	11.44
812.769	10.58
813.079	10.8
813.388	10.49
813.697	9.93
814.006	9.39
814.315	8.88
814.624	9
814.933	9.75
815.242	9.96
815.551	10.11
815.86	10.28
816.169	10.11
816.478	9.6
816.786	9.16
817.095	9.17
817.404	8.5
817.712	8.2
818.021	8.78
818.33	8.63
818.638	8.49
818.947	9.01
819.255	9.05
819.563	9.16
819.872	9.14
820.18	9.34
820.488	9.45
820.796	9.63
821.105	9.36
821.413	9.18
821.721	9.16
822.029	9.13
822.337	9.06
822.645	8.99
822.953	9
823.26	9.2
823.568	9.1
823.876	9.34
824.184	9.34
824.491	9.28
824.799	9.36
825.107	9.51
825.414	9.54
825.722	9.65
826.029	9.64
826.337	9.78
826.644	9.71
826.951	9.8
827.259	9.81
827.566	9.95
827.873	10.01
828.18	10
828.488	9.98
828.795	9.85
829.102	10.34
829.409	10.69
829.716	10.64
830.023	10.86
830.329	10.56
830.636	11.14
830.943	11
831.25	10.82
831.557	10.66
831.863	10.93
832.17	10.67
832.476	10.72
832.783	10.93
833.089	10.89
833.396	10.34
833.702	10.56
834.009	10.74
834.315	10.73
834.621	10.55
834.928	10.81
835.234	11
835.54	10.11
835.846	10.1
836.152	10.31
836.458	10.46
836.764	10.34
837.07	9.29
837.376	9.23
837.682	9.09
837.988	8.99
838.293	8.7
838.599	9.06
838.905	8.85
839.211	7.74
839.516	7.76
839.822	8.49
840.127	7.92
840.433	7.93
840.738	7.66
841.044	7.76
841.349	6.93
841.654	7.57
841.959	8.14
842.265	8.3
842.57	8.16
842.875	7.6
843.18	8.29
843.485	8.83
843.79	9.13
844.095	9.12
844.4	9.31
844.705	8.84
845.01	8.3
845.315	8.6
845.619	8.54
845.924	8.08
846.229	7.05
846.533	8.28
846.838	7.43
847.142	7.21
847.447	7.85
847.751	9.06
848.056	7.31
848.36	7.35
848.664	5.57
848.969	5.84
849.273	4.21
849.577	3.92
849.881	2.38
850.185	4
850.489	4.96
850.794	4.54
851.097	5.28
851.401	5.36
851.705	5.82
852.009	6.3
852.313	7.22
852.617	6.68
852.92	5.96
853.224	7.87
853.528	9.73
853.831	8.11
854.135	7.95
854.438	7.51
854.742	8.09
855.045	10.12
855.349	10.09
855.652	11.03
855.955	11.75
856.259	13.77
856.562	12.04
856.865	13.07
857.168	13.23
857.471	12.62
857.774	14.73
858.077	14.92
858.38	18.13
858.683	16.22
858.986	15.82
859.289	15.44
859.592	12.1
859.894	11.47
860.197	13.69
860.5	12.01
860.802	11.98
861.105	11.45
861.407	9.65
861.71	7.61
862.012	8.71
862.315	7.59
862.617	6.94
862.919	6.65
863.222	6.92
863.524	7.37
863.826	9.16
864.128	6.97
864.43	6.49
864.732	6.56
865.034	8.87
865.336	8.48
865.638	6.47
865.94	9.88
866.242	9.05
866.544	7.64
866.846	9.14
867.147	9.99
867.449	10.07
867.751	11.2
868.052	12.14
868.354	10.57
868.655	10.68
868.957	10.5
869.258	12.4
869.56	10.77
869.861	9.23
870.162	8.59
870.463	8.91
870.765	9.02
871.066	7.1
871.367	6.42
871.668	6.69
871.969	4.65
872.27	2.08
872.571	2.4
872.872	4.3
873.173	4.11
873.473	6.06
873.774	8.21
874.075	6.85
874.376	6.76
874.676	8.67
874.977	7.29
875.277	8.57
875.578	7.51
875.878	8.31
876.179	9.55
876.479	9.5
876.78	8.87
877.08	8.73
877.38	8.53
877.68	9.21
877.981	11.51
878.281	18.66
878.581	22.07
