Data from BU26940_Reflection_00001.txt Node
Date: Tue Nov 19 11:00:07 EST 2019
User: vgr7
Spectrometer: USB2G7710
Scans to average: 3
Trigger mode: 4
Integration Time (sec): 2.000000E-2
Electric dark correction enabled: true
Boxcar width: 10
XAxis mode: Wavelengths
Number of Pixels in Spectrum: 2048
>>>>>Begin Spectral Data<<<<<
177.721	-145.41
178.105	4433.33
178.488	-72.69
178.871	37.18
179.254	-83.33
179.636	-17.75
180.019	-227.38
180.402	90
180.785	-56.14
181.168	-24.29
181.55	-19.66
181.933	34.46
182.316	94.71
182.698	79.89
183.081	69.48
183.463	73.42
183.846	78.37
184.228	58.87
184.611	72.9
184.993	27.78
185.376	44.44
185.758	24.12
186.14	15.24
186.522	-3.98
186.904	2.22
187.287	19.41
187.669	10.26
188.051	34.64
188.433	-143.59
188.815	152.08
189.197	394.87
189.579	90.2
189.961	58.33
190.342	16.67
190.724	41.29
191.106	-21.21
191.488	-1.58
191.869	-7.24
192.251	-25.87
192.633	-36.07
193.014	-41.84
193.396	-64.26
193.777	-49.87
194.159	-49.12
194.54	-36.14
194.922	-27.01
195.303	-25.16
195.684	-21.49
196.065	-32.92
196.447	-46.17
196.828	-40.86
197.209	-47.38
197.59	-60.8
197.971	-35.74
198.352	-46.41
198.733	-47.24
199.114	-31.71
199.495	-38.05
199.876	-76.74
200.257	-65.9
200.638	-56.31
201.018	-44.13
201.399	-15.91
201.78	-23.41
202.16	-19.54
202.541	-42.45
202.922	-40.32
203.302	-51.64
203.683	-56.44
204.063	-54.39
204.444	-37.4
204.824	-44.44
205.204	-30.92
205.585	-24.08
205.965	-25.91
206.345	-9.71
206.725	-8.47
207.106	2.84
207.486	3.03
207.866	21.68
208.246	32.14
208.626	19.11
209.006	2.8
209.386	1.74
209.766	7.25
210.145	1.27
210.525	1.81
210.905	5.81
211.285	6.3
211.664	9.13
212.044	8.44
212.424	-19.1
212.803	-19.2
213.183	-12.02
213.562	7.75
213.942	7.33
214.321	10.7
214.701	6.55
215.08	-7.5
215.459	-4.11
215.838	-20.81
216.218	-31.23
216.597	-22.83
216.976	-6.54
217.355	-8.97
217.734	-9.1
218.113	7.61
218.492	6.16
218.871	19.16
219.25	22.33
219.629	19.38
220.008	25.97
220.387	28.84
220.766	34.98
221.144	19.31
221.523	3.25
221.902	0.91
222.28	-1.19
222.659	12.03
223.037	7.01
223.416	11.11
223.794	14.13
224.173	8.29
224.551	16.44
224.929	10.66
225.308	8.78
225.686	6.17
226.064	4.33
226.442	12.06
226.821	7.97
227.199	6.77
227.577	7.95
227.955	9.54
228.333	8.78
228.711	5.72
229.089	5.21
229.467	4.89
229.845	4.69
230.222	4.92
230.6	3.44
230.978	4.44
231.356	-0.03
231.733	0.55
232.111	2.58
232.488	0.23
232.866	3.31
233.243	3.29
233.621	4.63
233.998	4.01
234.376	2.67
234.753	1.78
235.13	2.85
235.508	2.45
235.885	-0.12
236.262	0.5
236.639	1.52
237.016	0.62
237.393	1.2
237.77	1.55
238.147	0.7
238.524	0.75
238.901	1.31
239.278	1.92
239.655	1.44
240.032	1.69
240.409	1.75
240.785	1.57
241.162	1.81
241.539	1.75
241.915	1.61
242.292	1.53
242.668	2.07
243.045	2.29
243.421	2.61
243.798	2.95
244.174	2.82
244.551	2.86
244.927	3.14
245.303	3.09
245.679	2.94
246.056	3.1
246.432	3
246.808	3.08
247.184	3.22
247.56	3.29
247.936	3.38
248.312	3.63
248.688	3.55
249.064	3.5
249.44	3.27
249.815	3.28
250.191	3.22
250.567	3.1
250.943	3.04
251.318	2.8
251.694	2.65
252.069	2.59
252.445	2.38
252.82	2.51
253.196	2.64
253.571	2.99
253.947	2.92
254.322	2.93
254.697	2.9
255.073	2.99
255.448	3.11
255.823	2.84
256.198	2.69
256.573	2.76
256.948	2.82
257.323	3.16
257.698	3.26
258.073	3.37
258.448	3.43
258.823	3.53
259.198	3.72
259.573	3.79
259.948	3.98
260.322	3.91
260.697	3.86
261.072	3.79
261.446	3.62
261.821	3.65
262.195	3.72
262.57	3.6
262.944	3.63
263.319	3.59
263.693	3.57
264.067	3.65
264.442	3.68
264.816	3.69
265.19	3.54
265.564	3.44
265.938	3.43
266.313	3.39
266.687	3.16
267.061	3.21
267.435	3.3
267.809	3.29
268.183	3.41
268.556	3.28
268.93	3.19
269.304	3.22
269.678	3.26
270.051	3.18
270.425	3.2
270.799	2.98
271.172	3
271.546	3.07
271.919	3
272.293	2.94
272.666	3.04
273.04	3.12
273.413	3.2
273.787	3.15
274.16	3.09
274.533	3.35
274.906	3.3
275.279	3.21
275.653	3.14
276.026	3.2
276.399	3.18
276.772	3.31
277.145	3.26
277.518	3.08
277.891	3.12
278.263	3.21
278.636	3.29
279.009	3.34
279.382	3.32
279.755	3.27
280.127	3.34
280.5	3.29
280.872	3.27
281.245	3.33
281.617	3.33
281.99	3.44
282.362	3.36
282.735	3.35
283.107	3.3
283.479	3.21
283.852	3.18
284.224	3.3
284.596	3.34
284.968	3.24
285.34	3.29
285.713	3.38
286.085	3.18
286.457	3.23
286.829	3.18
287.201	3.12
287.572	3.2
287.944	3.15
288.316	3.14
288.688	3.16
289.06	3.07
289.431	3.21
289.803	3.29
290.175	3.26
290.546	3.2
290.918	3.24
291.289	3.31
291.661	3.22
292.032	3.1
292.403	3.04
292.775	3.29
293.146	3.24
293.517	3.28
293.889	3.42
294.26	3.39
294.631	3.49
295.002	3.52
295.373	3.39
295.744	3.36
296.115	3.39
296.486	3.4
296.857	3.44
297.228	3.27
297.599	3.12
297.97	3.13
298.34	3.13
298.711	3.18
299.082	3.12
299.452	3.15
299.823	3.23
300.194	3.23
300.564	3.01
300.935	3.05
301.305	2.94
301.676	3.09
302.046	2.99
302.416	2.88
302.787	2.84
303.157	2.89
303.527	3.07
303.897	3.02
304.267	3.06
304.637	3.01
305.008	3.14
305.378	3.15
305.748	3.16
306.117	3.13
306.487	2.89
306.857	2.97
307.227	2.98
307.597	3
307.967	2.93
308.336	2.94
308.706	3.09
309.076	3.12
309.445	3.09
309.815	3.21
310.184	3.22
310.554	3.3
310.923	3.4
311.293	3.21
311.662	3.21
312.031	3.07
312.401	3.11
312.77	3.02
313.139	3.1
313.508	3.13
313.877	3.15
314.246	3.27
314.616	3.27
314.985	3.2
315.353	3.19
315.722	3.28
316.091	3.23
316.46	3.08
316.829	2.99
317.198	2.84
317.567	2.72
317.935	2.74
318.304	2.85
318.672	2.84
319.041	2.83
319.41	2.8
319.778	2.84
320.147	2.83
320.515	2.92
320.883	2.8
321.252	2.62
321.62	2.59
321.988	2.65
322.357	2.58
322.725	2.64
323.093	2.55
323.461	2.46
323.829	2.54
324.197	2.55
324.565	2.52
324.933	2.61
325.301	2.47
325.669	2.48
326.037	2.34
326.405	2.16
326.772	2.18
327.14	2.12
327.508	2.17
327.875	2.12
328.243	2.09
328.61	2.04
328.978	2.05
329.346	2.01
329.713	2.05
330.08	2.1
330.448	2.1
330.815	2.19
331.182	2.18
331.55	2.3
331.917	2.39
332.284	2.44
332.651	2.38
333.018	2.56
333.385	2.54
333.752	2.55
334.119	2.69
334.486	2.75
334.853	2.69
335.22	2.65
335.587	2.67
335.954	2.61
336.32	2.67
336.687	2.7
337.054	2.69
337.42	2.55
337.787	2.58
338.153	2.57
338.52	2.55
338.886	2.55
339.253	2.48
339.619	2.48
339.986	2.45
340.352	2.39
340.718	2.4
341.084	2.43
341.451	2.42
341.817	2.46
342.183	2.43
342.549	2.58
342.915	2.56
343.281	2.46
343.647	2.39
344.013	2.42
344.379	2.38
344.745	2.46
345.11	2.55
345.476	2.61
345.842	2.64
346.208	2.64
346.573	2.72
346.939	2.78
347.304	2.78
347.67	2.9
348.035	2.85
348.401	2.87
348.766	2.79
349.132	2.94
349.497	2.9
349.862	2.87
350.228	2.86
350.593	2.84
350.958	2.98
351.323	3.07
351.688	3
352.053	3.03
352.418	2.97
352.783	2.95
353.148	2.88
353.513	2.86
353.878	2.83
354.243	2.75
354.608	2.77
354.972	2.79
355.337	2.77
355.702	2.87
356.066	2.87
356.431	2.93
356.795	2.86
357.16	2.89
357.524	2.91
357.889	2.85
358.253	2.82
358.618	2.76
358.982	2.79
359.346	2.84
359.71	2.86
360.075	2.9
360.439	2.93
360.803	3.01
361.167	2.97
361.531	3.01
361.895	3.03
362.259	2.98
362.623	2.97
362.987	2.9
363.351	2.87
363.714	2.85
364.078	2.87
364.442	2.82
364.806	2.84
365.169	2.82
365.533	2.82
365.896	2.86
366.26	2.81
366.623	2.81
366.987	2.77
367.35	2.83
367.714	2.79
368.077	2.8
368.44	2.75
368.803	2.72
369.167	2.67
369.53	2.69
369.893	2.68
370.256	2.65
370.619	2.68
370.982	2.7
371.345	2.75
371.708	2.71
372.071	2.68
372.434	2.61
372.797	2.68
373.159	2.69
373.522	2.68
373.885	2.75
374.247	2.74
374.61	2.75
374.973	2.69
375.335	2.77
375.698	2.77
376.06	2.76
376.423	2.84
376.785	2.9
377.147	2.89
377.51	2.93
377.872	2.97
378.234	2.98
378.596	2.99
378.958	2.95
379.321	2.96
379.683	3.01
380.045	3.02
380.407	3.02
380.769	3.05
381.13	3.12
381.492	3.11
381.854	3.12
382.216	3.19
382.578	3.22
382.939	3.18
383.301	3.13
383.663	3.15
384.024	3.15
384.386	3.13
384.747	3.09
385.109	3.06
385.47	3.02
385.832	3.02
386.193	2.96
386.554	2.93
386.916	2.93
387.277	2.95
387.638	2.98
387.999	2.94
388.36	2.92
388.721	2.92
389.082	2.91
389.443	2.89
389.804	2.84
390.165	2.83
390.526	2.83
390.887	2.86
391.248	2.84
391.609	2.85
391.969	2.87
392.33	2.9
392.691	2.93
393.051	2.91
393.412	2.9
393.772	2.94
394.133	2.98
394.493	2.96
394.854	2.91
395.214	2.93
395.574	2.94
395.935	2.95
396.295	2.94
396.655	2.94
397.015	2.99
397.376	2.98
397.736	2.95
398.096	2.97
398.456	2.97
398.816	2.95
399.176	2.91
399.535	2.88
399.895	2.86
400.255	2.84
400.615	2.86
400.975	2.86
401.334	2.86
401.694	2.87
402.054	2.9
402.413	2.95
402.773	2.92
403.132	2.91
403.492	2.93
403.851	2.94
404.211	2.97
404.57	2.95
404.929	2.94
405.288	2.96
405.648	2.92
406.007	2.91
406.366	2.91
406.725	2.94
407.084	2.95
407.443	2.97
407.802	2.96
408.161	2.98
408.52	3.01
408.879	3.03
409.238	3.02
409.596	3
409.955	3
410.314	3.01
410.673	3
411.031	2.97
411.39	2.96
411.748	2.93
412.107	2.91
412.465	2.94
412.824	2.9
413.182	2.92
413.54	2.94
413.899	2.96
414.257	2.96
414.615	2.95
414.974	2.97
415.332	2.97
415.69	2.98
416.048	2.98
416.406	2.96
416.764	2.94
417.122	2.94
417.48	2.95
417.838	2.95
418.195	2.95
418.553	2.98
418.911	2.97
419.269	2.97
419.626	2.99
419.984	3
420.342	3.02
420.699	3.02
421.057	3.02
421.414	3.03
421.772	3.04
422.129	3.05
422.486	3.05
422.844	3.06
423.201	3.05
423.558	3.05
423.915	3.05
424.273	3.06
424.63	3.07
424.987	3.07
425.344	3.07
425.701	3.08
426.058	3.06
426.415	3.07
426.772	3.09
427.128	3.09
427.485	3.08
427.842	3.09
428.199	3.09
428.555	3.1
428.912	3.08
429.269	3.07
429.625	3.05
429.982	3.05
430.338	3.04
430.695	3.03
431.051	3.05
431.407	3.06
431.764	3.06
432.12	3.06
432.476	3.07
432.832	3.09
433.189	3.09
433.545	3.11
433.901	3.11
434.257	3.1
434.613	3.08
434.969	3.09
435.325	3.09
435.681	3.09
436.036	3.07
436.392	3.06
436.748	3.07
437.104	3.08
437.459	3.08
437.815	3.07
438.171	3.08
438.526	3.06
438.882	3.07
439.237	3.07
439.593	3.06
439.948	3.05
440.304	3.03
440.659	3.03
441.014	3.01
441.369	3.01
441.725	3.01
442.08	3.02
442.435	3.02
442.79	3
443.145	3.01
443.5	3.01
443.855	3.01
444.21	3.01
444.565	3.01
444.92	3.01
445.275	3.02
445.629	3.01
445.984	3.01
446.339	3.02
446.693	3.03
447.048	3.05
447.403	3.06
447.757	3.06
448.112	3.08
448.466	3.08
448.82	3.1
449.175	3.11
449.529	3.11
449.883	3.12
450.238	3.14
450.592	3.14
450.946	3.16
451.3	3.18
451.654	3.17
452.008	3.2
452.362	3.21
452.716	3.23
453.07	3.23
453.424	3.23
453.778	3.2
454.132	3.18
454.486	3.18
454.839	3.17
455.193	3.18
455.547	3.17
455.9	3.18
456.254	3.17
456.607	3.16
456.961	3.17
457.314	3.17
457.668	3.18
458.021	3.18
458.375	3.17
458.728	3.16
459.081	3.17
459.434	3.14
459.787	3.16
460.141	3.14
460.494	3.14
460.847	3.15
461.2	3.15
461.553	3.17
461.906	3.18
462.259	3.18
462.611	3.17
462.964	3.2
463.317	3.19
463.67	3.19
464.022	3.18
464.375	3.16
464.728	3.16
465.08	3.16
465.433	3.17
465.785	3.18
466.138	3.18
466.49	3.18
466.843	3.22
467.195	3.2
467.547	3.21
467.899	3.22
468.252	3.22
468.604	3.2
468.956	3.2
469.308	3.2
469.66	3.2
470.012	3.2
470.364	3.2
470.716	3.2
471.068	3.23
471.42	3.24
471.772	3.26
472.123	3.26
472.475	3.24
472.827	3.23
473.178	3.21
473.53	3.21
473.882	3.2
474.233	3.17
474.585	3.16
474.936	3.17
475.288	3.18
475.639	3.19
475.99	3.21
476.342	3.22
476.693	3.2
477.044	3.19
477.395	3.2
477.746	3.18
478.097	3.17
478.448	3.15
478.8	3.14
479.15	3.14
479.501	3.13
479.852	3.16
480.203	3.17
480.554	3.2
480.905	3.19
481.255	3.21
481.606	3.22
481.957	3.24
482.307	3.23
482.658	3.24
483.009	3.24
483.359	3.24
483.709	3.25
484.06	3.25
484.41	3.25
484.761	3.26
485.111	3.27
485.461	3.28
485.811	3.28
486.162	3.29
486.512	3.28
486.862	3.29
487.212	3.3
487.562	3.3
487.912	3.29
488.262	3.3
488.612	3.29
488.961	3.3
489.311	3.29
489.661	3.29
490.011	3.29
490.36	3.29
490.71	3.29
491.06	3.28
491.409	3.27
491.759	3.27
492.108	3.27
492.458	3.25
492.807	3.24
493.157	3.25
493.506	3.25
493.855	3.26
494.204	3.26
494.554	3.25
494.903	3.26
495.252	3.26
495.601	3.27
495.95	3.26
496.299	3.25
496.648	3.27
496.997	3.27
497.346	3.28
497.695	3.28
498.043	3.28
498.392	3.3
498.741	3.3
499.09	3.31
499.438	3.34
499.787	3.34
500.135	3.35
500.484	3.33
500.832	3.34
501.181	3.34
501.529	3.34
501.878	3.34
502.226	3.33
502.574	3.33
502.923	3.34
503.271	3.35
503.619	3.36
503.967	3.32
504.315	3.33
504.663	3.34
505.011	3.32
505.359	3.31
505.707	3.3
506.055	3.32
506.403	3.3
506.751	3.29
507.098	3.32
507.446	3.34
507.794	3.36
508.141	3.34
508.489	3.34
508.837	3.34
509.184	3.34
509.531	3.32
509.879	3.34
510.226	3.32
510.574	3.34
510.921	3.34
511.268	3.38
511.616	3.4
511.963	3.39
512.31	3.41
512.657	3.43
513.004	3.43
513.351	3.44
513.698	3.44
514.045	3.44
514.392	3.43
514.739	3.43
515.086	3.43
515.432	3.45
515.779	3.43
516.126	3.46
516.473	3.45
516.819	3.47
517.166	3.46
517.512	3.47
517.859	3.45
518.205	3.44
518.552	3.43
518.898	3.42
519.245	3.41
519.591	3.41
519.937	3.41
520.283	3.42
520.629	3.41
520.976	3.4
521.322	3.41
521.668	3.41
522.014	3.41
522.36	3.42
522.706	3.44
523.052	3.47
523.398	3.45
523.743	3.47
524.089	3.49
524.435	3.48
524.781	3.49
525.126	3.49
525.472	3.5
525.817	3.51
526.163	3.51
526.509	3.53
526.854	3.53
527.199	3.54
527.545	3.54
527.89	3.54
528.235	3.56
528.581	3.57
528.926	3.56
529.271	3.57
529.616	3.55
529.961	3.54
530.306	3.53
530.651	3.53
530.996	3.53
531.341	3.53
531.686	3.54
532.031	3.53
532.376	3.54
532.721	3.54
533.065	3.54
533.41	3.55
533.755	3.54
534.099	3.54
534.444	3.53
534.788	3.52
535.133	3.53
535.477	3.52
535.822	3.51
536.166	3.53
536.51	3.52
536.855	3.54
537.199	3.55
537.543	3.56
537.887	3.57
538.231	3.57
538.576	3.57
538.92	3.58
539.264	3.58
539.608	3.58
539.951	3.58
540.295	3.58
540.639	3.58
540.983	3.59
541.327	3.6
541.671	3.61
542.014	3.65
542.358	3.65
542.701	3.68
543.045	3.68
543.389	3.68
543.732	3.68
544.075	3.67
544.419	3.67
544.762	3.68
545.105	3.69
545.449	3.71
545.792	3.71
546.135	3.71
546.478	3.71
546.821	3.74
547.165	3.75
547.508	3.77
547.851	3.79
548.194	3.76
548.536	3.75
548.879	3.75
549.222	3.73
549.565	3.72
549.908	3.68
550.25	3.68
550.593	3.68
550.936	3.67
551.278	3.67
551.621	3.67
551.963	3.65
552.306	3.66
552.648	3.63
552.991	3.62
553.333	3.64
553.675	3.65
554.017	3.62
554.36	3.61
554.702	3.6
555.044	3.59
555.386	3.6
555.728	3.62
556.07	3.6
556.412	3.59
556.754	3.59
557.096	3.62
557.438	3.61
557.78	3.6
558.121	3.62
558.463	3.63
558.805	3.66
559.147	3.69
559.488	3.68
559.83	3.69
560.171	3.71
560.513	3.68
560.854	3.67
561.196	3.69
561.537	3.69
561.878	3.67
562.22	3.7
562.561	3.71
562.902	3.68
563.243	3.69
563.584	3.7
563.925	3.72
564.266	3.72
564.607	3.7
564.948	3.68
565.289	3.68
565.63	3.63
565.971	3.65
566.312	3.6
566.653	3.6
566.993	3.59
567.334	3.6
567.675	3.6
568.015	3.64
568.356	3.62
568.696	3.64
569.037	3.67
569.377	3.65
569.718	3.65
570.058	3.66
570.398	3.7
570.739	3.72
571.079	3.71
571.419	3.68
571.759	3.69
572.099	3.71
572.439	3.73
572.779	3.76
573.119	3.75
573.459	3.77
573.799	3.78
574.139	3.79
574.479	3.77
574.819	3.76
575.158	3.73
575.498	3.76
575.838	3.75
576.177	3.72
576.517	3.73
576.856	3.73
577.196	3.73
577.535	3.71
577.875	3.66
578.214	3.7
578.553	3.71
578.893	3.72
579.232	3.72
579.571	3.74
579.91	3.74
580.25	3.76
580.589	3.74
580.928	3.77
581.267	3.76
581.606	3.78
581.945	3.81
582.283	3.82
582.622	3.75
582.961	3.76
583.3	3.76
583.639	3.76
583.977	3.76
584.316	3.75
584.654	3.75
584.993	3.8
585.332	3.78
585.67	3.8
586.008	3.8
586.347	3.83
586.685	3.79
587.024	3.8
587.362	3.77
587.7	3.81
588.038	3.84
588.376	3.85
588.715	3.82
589.053	3.86
589.391	3.85
589.729	3.89
590.067	3.87
590.404	3.89
590.742	3.88
591.08	3.89
591.418	3.9
591.756	3.92
592.093	3.86
592.431	3.87
592.769	3.89
593.106	3.88
593.444	3.87
593.781	3.89
594.119	3.9
594.456	3.93
594.793	3.91
595.131	3.88
595.468	3.9
595.805	3.93
596.143	3.91
596.48	3.91
596.817	3.91
597.154	3.94
597.491	3.95
597.828	3.94
598.165	3.92
598.502	3.92
598.839	3.93
599.176	3.98
599.512	3.91
599.849	3.89
600.186	3.9
600.523	3.92
600.859	3.9
601.196	3.88
601.532	3.83
601.869	3.83
602.205	3.83
602.542	3.81
602.878	3.82
603.215	3.83
603.551	3.82
603.887	3.81
604.223	3.83
604.56	3.85
604.896	3.89
605.232	3.91
605.568	3.93
605.904	3.9
606.24	3.91
606.576	3.97
606.912	3.97
607.248	3.99
607.583	3.99
607.919	4.01
608.255	4.04
608.591	4.06
608.926	4.07
609.262	4.08
609.597	4.09
609.933	4.07
610.268	4.08
610.604	4.1
610.939	4.1
611.275	4.05
611.61	4
611.945	3.95
612.281	3.93
612.616	3.9
612.951	3.93
613.286	3.91
613.621	3.86
613.956	3.87
614.291	3.84
614.626	3.83
614.961	3.87
615.296	3.87
615.631	3.9
615.966	3.87
616.3	3.86
616.635	3.86
616.97	3.89
617.304	3.86
617.639	3.89
617.973	3.87
618.308	3.91
618.642	3.95
618.977	3.95
619.311	3.98
619.646	4.02
619.98	4.03
620.314	4.03
620.648	4.05
620.983	4.06
621.317	4.09
621.651	4.06
621.985	4.04
622.319	4.04
622.653	4
622.987	4.01
623.321	4.03
623.655	4.03
623.988	4.06
624.322	4.07
624.656	4.07
624.99	4.12
625.323	4.09
625.657	4.11
625.99	4.12
626.324	4.12
626.657	4.13
626.991	4.13
627.324	4.12
627.658	4.12
627.991	4.13
628.324	4.13
628.657	4.13
628.991	4.13
629.324	4.12
629.657	4.13
629.99	4.16
630.323	4.13
630.656	4.09
630.989	4.03
631.322	4.03
631.655	4.03
631.987	4.02
632.32	4.03
632.653	4.05
632.986	4.04
633.318	4.07
633.651	4.03
633.984	3.99
634.316	4
634.649	4.03
634.981	4.03
635.313	4.05
635.646	4.04
635.978	4.09
636.31	4.12
636.643	4.13
636.975	4.16
637.307	4.21
637.639	4.23
637.971	4.23
638.303	4.23
638.635	4.22
638.967	4.22
639.299	4.29
639.631	4.16
639.963	4.15
640.295	4.12
640.626	4.13
640.958	4.19
641.29	4.21
641.621	4.17
641.953	4.18
642.285	4.19
642.616	4.21
642.948	4.18
643.279	4.11
643.61	4.16
643.942	4.17
644.273	4.17
644.604	4.17
644.936	4.19
645.267	4.19
645.598	4.14
645.929	4.14
646.26	4.1
646.591	4.16
646.922	4.2
647.253	4.2
647.584	4.21
647.915	4.25
648.245	4.23
648.576	4.29
648.907	4.24
649.238	4.18
649.568	4.17
649.899	4.12
650.229	4.2
650.56	4.16
650.89	4.14
651.221	4.1
651.551	4.14
651.882	4.16
652.212	4.18
652.542	4.19
652.872	4.22
653.203	4.21
653.533	4.26
653.863	4.31
654.193	4.29
654.523	4.26
654.853	4.26
655.183	4.28
655.513	4.31
655.843	4.31
656.172	4.35
656.502	4.38
656.832	4.46
657.162	4.4
657.491	4.42
657.821	4.44
658.15	4.45
658.48	4.45
658.809	4.45
659.139	4.46
659.468	4.52
659.798	4.55
660.127	4.56
660.456	4.54
660.785	4.47
661.115	4.49
661.444	4.48
661.773	4.43
662.102	4.44
662.431	4.38
662.76	4.4
663.089	4.41
663.418	4.4
663.747	4.36
664.076	4.35
664.404	4.37
664.733	4.35
665.062	4.33
665.39	4.27
665.719	4.25
666.048	4.27
666.376	4.21
666.705	4.22
667.033	4.19
667.362	4.19
667.69	4.22
668.018	4.26
668.347	4.23
668.675	4.25
669.003	4.25
669.331	4.28
669.659	4.27
669.987	4.26
670.315	4.26
670.643	4.23
670.971	4.3
671.299	4.22
671.627	4.25
671.955	4.28
672.283	4.32
672.61	4.27
672.938	4.28
673.266	4.31
673.593	4.25
673.921	4.39
674.249	4.43
674.576	4.43
674.904	4.41
675.231	4.43
675.558	4.44
675.886	4.46
676.213	4.48
676.54	4.56
676.867	4.57
677.195	4.61
677.522	4.65
677.849	4.6
678.176	4.72
678.503	4.64
678.83	4.71
679.157	4.7
679.484	4.79
679.81	4.8
680.137	4.77
680.464	4.86
680.791	4.84
681.117	4.88
681.444	4.9
681.771	4.85
682.097	4.89
682.424	4.83
682.75	4.82
683.077	4.83
683.403	4.79
683.729	4.8
684.056	4.77
684.382	4.79
684.708	4.89
685.034	4.84
685.36	4.9
685.686	4.85
686.012	4.89
686.339	4.77
686.664	4.71
686.99	4.65
687.316	4.49
687.642	4.43
687.968	4.4
688.294	4.4
688.619	4.43
688.945	4.46
689.271	4.43
689.596	4.4
689.922	4.37
690.247	4.37
690.573	4.46
690.898	4.5
691.224	4.51
691.549	4.48
691.874	4.54
692.2	4.47
692.525	4.48
692.85	4.47
693.175	4.49
693.5	4.46
693.825	4.58
694.15	4.56
694.475	4.6
694.8	4.69
695.125	4.71
695.45	4.79
695.775	4.65
696.099	4.73
696.424	4.7
696.749	4.7
697.073	4.63
697.398	4.57
697.723	4.52
698.047	4.53
698.372	4.56
698.696	4.43
699.02	4.51
699.345	4.56
699.669	4.56
699.993	4.67
700.318	4.74
700.642	4.72
700.966	4.85
701.29	4.82
701.614	4.72
701.938	4.64
702.262	4.55
702.586	4.69
702.91	4.73
703.234	4.83
703.557	4.82
703.881	4.96
704.205	4.91
704.529	4.94
704.852	4.85
705.176	4.87
705.499	5.02
705.823	4.89
706.146	4.82
706.47	4.85
706.793	4.82
707.117	4.78
707.44	4.77
707.763	4.62
708.086	4.61
708.409	4.68
708.733	4.73
709.056	4.86
709.379	4.86
709.702	4.83
710.025	4.83
710.348	4.79
710.671	4.81
710.993	4.86
711.316	4.94
711.639	5.04
711.962	5.07
712.284	5.04
712.607	5.1
712.93	5.1
713.252	4.98
713.575	5.04
713.897	5.01
714.22	4.93
714.542	4.91
714.864	4.95
715.187	4.92
715.509	4.92
715.831	4.89
716.153	4.94
716.475	4.98
716.798	4.99
717.12	5.1
717.442	5.06
717.764	5.15
718.085	5.18
718.407	5.09
718.729	5
719.051	5.05
719.373	5.14
719.695	5.15
720.016	5.21
720.338	5.31
720.659	5.41
720.981	5.5
721.302	5.72
721.624	5.75
721.945	5.66
722.267	5.74
722.588	5.71
722.909	5.59
723.231	5.37
723.552	5.32
723.873	5.27
724.194	5.17
724.515	5.05
724.836	4.92
725.157	4.85
725.478	4.8
725.799	4.77
726.12	4.72
726.441	4.76
726.762	4.98
727.083	4.89
727.403	4.87
727.724	4.89
728.045	4.95
728.365	4.86
728.686	4.92
729.006	4.95
729.327	5.01
729.647	5.15
729.967	5.32
730.288	5.44
730.608	5.58
730.928	5.65
731.249	5.69
731.569	5.66
731.889	5.74
732.209	5.68
732.529	5.58
732.849	5.67
733.169	5.63
733.489	5.37
733.809	5.35
734.129	5.43
734.448	5.51
734.768	5.53
735.088	5.54
735.408	5.58
735.727	5.67
736.047	5.66
736.366	5.54
736.686	5.4
737.005	5.36
737.325	5.24
737.644	5.09
737.963	5.06
738.283	5.26
738.602	5.31
738.921	5.59
739.24	5.82
739.56	5.67
739.879	5.64
740.198	5.75
740.517	5.75
740.836	5.75
741.155	5.69
741.473	5.58
741.792	5.79
742.111	5.83
742.43	5.54
742.748	5.52
743.067	5.74
743.386	5.87
743.704	5.67
744.023	5.55
744.341	5.74
744.66	5.7
744.978	5.57
745.297	5.58
745.615	5.3
745.933	5.28
746.252	5.4
746.57	5.42
746.888	5.63
747.206	5.65
747.524	5.62
747.842	5.58
748.16	5.75
748.478	5.64
748.796	5.78
749.114	5.93
749.432	5.88
749.749	5.53
750.067	5.51
750.385	5.79
750.703	5.75
751.02	5.79
751.338	5.65
751.655	5.58
751.973	5.43
752.29	5.61
752.608	5.45
752.925	5.36
753.242	5.44
753.56	5.36
753.877	5.19
754.194	5.26
754.511	5.26
754.828	5.12
755.145	5.05
755.462	4.98
755.779	4.89
756.096	5.09
756.413	5.37
756.73	5.48
757.047	5.41
757.364	5.73
757.68	5.8
757.997	6.07
758.314	6.1
758.63	6.19
758.947	6.15
759.264	6.05
759.58	6.11
759.896	6.17
760.213	6.26
760.529	6.39
760.846	6.27
761.162	6.2
761.478	6.19
761.794	6.3
762.11	6.1
762.426	6.14
762.743	6
763.059	5.94
763.375	5.94
763.69	5.95
764.006	5.87
764.322	5.78
764.638	5.81
764.954	5.97
765.27	6.14
765.585	6.07
765.901	6.23
766.216	6.21
766.532	6.05
766.848	5.77
767.163	5.78
767.478	5.64
767.794	5.91
768.109	5.63
768.424	5.59
768.74	5.63
769.055	5.9
769.37	5.78
769.685	5.9
770	5.87
770.315	5.88
770.63	5.68
770.945	5.84
771.26	5.73
771.575	5.38
771.89	5.45
772.205	5.3
772.52	5.18
772.834	5.19
773.149	5.26
773.464	5.35
773.778	5.04
774.093	5.18
774.407	5
774.722	5.36
775.036	5.13
775.351	5.07
775.665	4.73
775.979	4.96
776.293	5.05
776.608	4.76
776.922	4.79
777.236	5.01
777.55	4.66
777.864	4.57
778.178	4.52
778.492	4.4
778.806	4.65
779.12	4.59
779.434	4.81
779.747	4.89
780.061	5.28
780.375	5.35
780.689	5.61
781.002	5.43
781.316	5.34
781.629	5.46
781.943	5.72
782.256	5.61
782.57	5.64
782.883	5.42
783.196	5.69
783.51	5.75
783.823	5.87
784.136	6.03
784.449	6.2
784.762	6.82
785.075	6.59
785.388	7.03
785.701	7.13
786.014	7.07
786.327	7.09
786.64	7.55
786.953	8
787.266	7.82
787.578	7.71
787.891	7.92
788.204	8.06
788.516	8.03
788.829	8.21
789.141	8.06
789.454	7.94
789.766	7.88
790.079	7.62
790.391	7.35
790.703	7.52
791.016	7.61
791.328	7.17
791.64	7.01
791.952	6.73
792.264	6.67
792.576	6.97
792.888	6.97
793.2	6.35
793.512	6.44
793.824	6.77
794.136	6.97
794.448	6.94
794.76	6.77
795.071	6.69
795.383	7.21
795.695	7.47
796.006	7.24
796.318	7.31
796.629	7.49
796.941	7.49
797.252	7.31
797.564	7.55
797.875	7.94
798.186	8.05
798.497	7.9
798.809	8.27
799.12	7.8
799.431	8.16
799.742	8.24
800.053	7.85
800.364	8.03
800.675	8.26
800.986	8.26
801.297	8.28
801.608	8.61
801.918	8.75
802.229	8.4
802.54	8.77
802.851	8.81
803.161	9.13
803.472	9
803.782	9.61
804.093	9.26
804.403	8.88
804.714	8.85
805.024	9.24
805.334	9.01
805.645	9.07
805.955	9.05
806.265	9.15
806.575	9.28
806.885	8.89
807.195	8.98
807.505	9.12
807.815	9.56
808.125	9.44
808.435	8.93
808.745	8.96
809.055	9.14
809.365	9.21
809.674	8.96
809.984	9.97
810.294	9.39
810.603	9.25
810.913	9.42
811.222	9.4
811.532	9.42
811.841	9.72
812.151	9.84
812.46	9.47
812.769	8.9
813.079	8.78
813.388	8.98
813.697	8.07
814.006	7.48
814.315	8.15
814.624	7.77
814.933	8.29
815.242	8.28
815.551	8.42
815.86	9.11
816.169	8.86
816.478	8.55
816.786	8.39
817.095	8.34
817.404	8.39
817.712	8.98
818.021	8.88
818.33	8.57
818.638	8.89
818.947	8.89
819.255	9.03
819.563	8.99
819.872	8.73
820.18	9.03
820.488	8.94
820.796	8.4
821.105	8.54
821.413	8.2
821.721	8.42
822.029	8.3
822.337	8.11
822.645	8.27
822.953	8.27
823.26	8.35
823.568	8.4
823.876	8.45
824.184	8.14
824.491	8.11
824.799	8.04
825.107	7.9
825.414	7.91
825.722	7.9
826.029	7.79
826.337	7.91
826.644	8.01
826.951	8.08
827.259	8.23
827.566	8.23
827.873	8.3
828.18	8.18
828.488	8.24
828.795	8.06
829.102	7.94
829.409	7.78
829.716	7.67
830.023	7.6
830.329	7.59
830.636	8.05
830.943	7.72
831.25	8.06
831.557	7.78
831.863	7.7
832.17	7.8
832.476	7.91
832.783	7.64
833.089	7.8
833.396	8.16
833.702	7.87
834.009	7.87
834.315	7.82
834.621	7.76
834.928	7.78
835.234	8.06
835.54	7.86
835.846	7.66
836.152	7.96
836.458	8.18
836.764	8.01
837.07	7.58
837.376	7.86
837.682	7.28
837.988	7.88
838.293	7.75
838.599	7.11
838.905	7.11
839.211	7.46
839.516	6.78
839.822	6.29
840.127	6.4
840.433	6.63
840.738	6.7
841.044	7
841.349	6.99
841.654	6.46
841.959	7.66
842.265	7.6
842.57	8.23
842.875	8.35
843.18	8.25
843.485	8.69
843.79	9.43
844.095	9.99
844.4	10.18
844.705	10.57
845.01	12.1
845.315	12.02
845.619	12.11
845.924	12.18
846.229	11.93
846.533	11.93
846.838	10.03
847.142	9.57
847.447	10.08
847.751	10.13
848.056	11.23
848.36	10.38
848.664	11.33
848.969	10.17
849.273	10.42
849.577	11.11
849.881	11.73
850.185	10.81
850.489	10.5
850.794	8.77
851.097	9.02
851.401	7.41
851.705	9.49
852.009	9.39
852.313	9.17
852.617	9.5
852.92	10.03
853.224	13.09
853.528	12.45
853.831	11.75
854.135	11.73
854.438	12.05
854.742	11.71
855.045	9.43
855.349	8.11
855.652	5.78
855.955	4.41
856.259	4
856.562	4.15
856.865	4.72
857.168	6.18
857.471	6.39
857.774	7.19
858.077	6.52
858.38	5.93
858.683	7.51
858.986	7.53
859.289	7.38
859.592	7.07
859.894	8.38
860.197	6.88
860.5	7.14
860.802	6.43
861.105	7.03
861.407	10.7
861.71	11.23
862.012	12.91
862.315	13.57
862.617	13.95
862.919	12.82
863.222	13.44
863.524	11.24
863.826	10.26
864.128	13.33
864.43	13.79
864.732	12.9
865.034	11.06
865.336	11.64
865.638	9.94
865.94	9.5
866.242	10.26
866.544	12.8
866.846	12.35
867.147	14.17
867.449	13.44
867.751	10.37
868.052	10.81
868.354	11.61
868.655	9.56
868.957	7.45
869.258	8.08
869.56	7.36
869.861	8.27
870.162	9.03
870.463	6.46
870.765	5.37
871.066	7.69
871.367	7.28
871.668	7.72
871.969	7.61
872.27	4.34
872.571	3.08
872.872	3.29
873.173	1.89
873.473	-1.42
873.774	0.21
874.075	1.69
874.376	1.92
874.676	1.36
874.977	4.25
875.277	6.48
875.578	6.57
875.878	6.56
876.179	7.21
876.479	6.48
876.78	6.51
877.08	6.47
877.38	3.9
877.68	4.79
877.981	3.56
878.281	5.63
878.581	9.25
