Data from BU26942_Reflection_00008.txt Node
Date: Mon Nov 18 16:50:42 EST 2019
User: vgr7
Spectrometer: USB2G7710
Scans to average: 3
Trigger mode: 4
Integration Time (sec): 2.000000E-2
Electric dark correction enabled: true
Boxcar width: 10
XAxis mode: Wavelengths
Number of Pixels in Spectrum: 2048
>>>>>Begin Spectral Data<<<<<
177.721	42.63
178.105	-16.71
178.488	-402.37
178.871	-414.08
179.254	218.34
179.636	2330.77
180.019	-604.23
180.402	121.74
180.785	-8.44
181.168	-201.98
181.55	-186.94
181.933	387.64
182.316	660
182.698	412.96
183.081	469.81
183.463	6253.85
183.846	82.92
184.228	129.46
184.611	492.45
184.993	537.87
185.376	-269.84
185.758	-256.12
186.14	-290.13
186.522	338100
186.904	1586.63
187.287	1034.36
187.669	-983.8
188.051	-631.99
188.433	-359.53
188.815	-1142.24
189.197	-269.84
189.579	-65.31
189.961	-56.72
190.342	-112.7
190.724	-101.6
191.106	-221.38
191.488	-330.21
191.869	-109.66
192.251	-101.47
192.633	-115.31
193.014	-99.14
193.396	-109.29
193.777	-140.38
194.159	-142.79
194.54	-18.74
194.922	-30.86
195.303	-52.33
195.684	-81.82
196.065	-35.59
196.447	-40.44
196.828	-33.6
197.209	-26.3
197.59	-144.42
197.971	-118.45
198.352	-73.23
198.733	-39.18
199.114	-10.55
199.495	-13.61
199.876	-32.07
200.257	-29.64
200.638	-24.11
201.018	-27.43
201.399	-16.29
201.78	-28.6
202.16	-32.67
202.541	-73.61
202.922	-99.02
203.302	-74.87
203.683	-72.37
204.063	-168.15
204.444	-286.2
204.824	-179.35
205.204	-147.43
205.585	-112.86
205.965	-159.62
206.345	-146.48
206.725	-349.59
207.106	-171.89
207.486	-247.57
207.866	-115.25
208.246	-99.13
208.626	-83.32
209.006	-37.61
209.386	-49.21
209.766	-14.73
210.145	-26.14
210.525	-5.04
210.905	-24.5
211.285	-2.17
211.664	34.24
212.044	30.3
212.424	48.28
212.803	28.03
213.183	17.9
213.562	12.68
213.942	21.6
214.321	27.49
214.701	20.64
215.08	10.19
215.459	11.29
215.838	11.99
216.218	22.65
216.597	9.58
216.976	-11.4
217.355	1.75
217.734	5.41
218.113	12.31
218.492	6.44
218.871	-3.95
219.25	-7.88
219.629	-17.28
220.008	-16.63
220.387	-28.53
220.766	-23.15
221.144	-26.31
221.523	-53.64
221.902	-67.87
222.28	-82.89
222.659	-75.18
223.037	-36.02
223.416	-47.67
223.794	-42.41
224.173	-45.57
224.551	-31.84
224.929	-17.45
225.308	-17.26
225.686	-17.39
226.064	-16.2
226.442	-14.32
226.821	-9.05
227.199	-10.08
227.577	-12.39
227.955	-12.23
228.333	-8.96
228.711	-5.6
229.089	-1.76
229.467	-3.75
229.845	-3.34
230.222	-2.17
230.6	-0.87
230.978	-3.27
231.356	-0.51
231.733	0.03
232.111	1.52
232.488	3.14
232.866	-0.63
233.243	-0.72
233.621	-0.6
233.998	0.39
234.376	0.4
234.753	1.26
235.13	1.24
235.508	3.69
235.885	3.21
236.262	2.9
236.639	1.49
237.016	2.54
237.393	3.97
237.77	4.57
238.147	4.7
238.524	4.88
238.901	5.64
239.278	5.47
239.655	6.29
240.032	5.79
240.409	5.08
240.785	5.8
241.162	5.62
241.539	5.59
241.915	5.89
242.292	5.03
242.668	4.84
243.045	5.12
243.421	4.64
243.798	4.8
244.174	4.71
244.551	4.78
244.927	4.49
245.303	4.3
245.679	4.12
246.056	4.22
246.432	4.14
246.808	3.93
247.184	3.84
247.56	3.44
247.936	3.24
248.312	3.32
248.688	3.32
249.064	3.64
249.44	3.78
249.815	3.69
250.191	4.06
250.567	4.14
250.943	3.75
251.318	3.88
251.694	3.85
252.069	3.75
252.445	3.66
252.82	3.61
253.196	3.56
253.571	3.53
253.947	3.37
254.322	3.57
254.697	3.39
255.073	3.64
255.448	3.36
255.823	3.65
256.198	3.73
256.573	3.93
256.948	3.67
257.323	3.66
257.698	3.49
258.073	3.46
258.448	3.45
258.823	3.59
259.198	3.53
259.573	3.49
259.948	3.67
260.322	3.68
260.697	3.81
261.072	3.9
261.446	4
261.821	4.04
262.195	3.96
262.57	4.1
262.944	4.06
263.319	4.21
263.693	4.33
264.067	4.24
264.442	4.23
264.816	4.16
265.19	4.01
265.564	4.06
265.938	4.05
266.313	3.85
266.687	3.9
267.061	3.95
267.435	4.28
267.809	4.13
268.183	4.15
268.556	3.75
268.93	3.79
269.304	3.68
269.678	3.68
270.051	3.82
270.425	3.63
270.799	3.61
271.172	3.57
271.546	3.3
271.919	3.22
272.293	3.12
272.666	3.24
273.04	3.32
273.413	3.29
273.787	3.16
274.16	3.24
274.533	3.29
274.906	3.35
275.279	3.22
275.653	3.23
276.026	3.23
276.399	3.51
276.772	3.62
277.145	3.73
277.518	3.74
277.891	3.63
278.263	3.69
278.636	3.76
279.009	3.91
279.382	4.27
279.755	4.31
280.127	4.43
280.5	4.36
280.872	4.4
281.245	4.29
281.617	4.61
281.99	4.81
282.362	4.82
282.735	4.68
283.107	4.69
283.479	4.72
283.852	4.79
284.224	4.65
284.596	4.53
284.968	4.52
285.34	4.44
285.713	4.45
286.085	4.51
286.457	4.53
286.829	4.49
287.201	4.4
287.572	4.35
287.944	4.34
288.316	4.25
288.688	4.21
289.06	4.23
289.431	4.12
289.803	4.13
290.175	4.11
290.546	4.33
290.918	4.11
291.289	4.07
291.661	4.07
292.032	4.17
292.403	4.22
292.775	4.3
293.146	4.31
293.517	4.31
293.889	4.4
294.26	4.4
294.631	4.49
295.002	4.45
295.373	4.57
295.744	4.65
296.115	4.76
296.486	4.63
296.857	4.63
297.228	4.68
297.599	4.62
297.97	4.64
298.34	4.59
298.711	4.76
299.082	4.84
299.452	4.81
299.823	4.93
300.194	4.92
300.564	4.88
300.935	5.03
301.305	5.07
301.676	5.02
302.046	5.11
302.416	5.06
302.787	5.15
303.157	5.27
303.527	5.13
303.897	5.23
304.267	5.58
304.637	5.67
305.008	5.64
305.378	5.78
305.748	5.82
306.117	5.64
306.487	5.65
306.857	5.69
307.227	5.7
307.597	5.67
307.967	5.64
308.336	5.68
308.706	5.76
309.076	5.67
309.445	5.82
309.815	5.62
310.184	5.6
310.554	5.59
310.923	5.55
311.293	5.48
311.662	5.48
312.031	5.31
312.401	5.35
312.77	5.44
313.139	5.45
313.508	5.41
313.877	5.55
314.246	5.64
314.616	5.76
314.985	5.88
315.353	5.82
315.722	6.04
316.091	6
316.46	5.85
316.829	6.08
317.198	5.98
317.567	6.07
317.935	6.3
318.304	6.37
318.672	6.52
319.041	6.82
319.41	6.88
319.778	7
320.147	7.13
320.515	7.12
320.883	7.17
321.252	7.38
321.62	7.45
321.988	7.37
322.357	7.32
322.725	7.35
323.093	7.62
323.461	7.47
323.829	7.61
324.197	7.7
324.565	7.72
324.933	7.73
325.301	7.95
325.669	7.91
326.037	7.96
326.405	8.03
326.772	8
327.14	8.09
327.508	8.08
327.875	7.92
328.243	8.04
328.61	8.04
328.978	7.92
329.346	7.99
329.713	8.12
330.08	8.14
330.448	8.01
330.815	7.83
331.182	8
331.55	8.04
331.917	8.17
332.284	8.16
332.651	8.27
333.018	8.31
333.385	8.32
333.752	8.37
334.119	8.29
334.486	8.43
334.853	8.48
335.22	8.64
335.587	8.89
335.954	8.97
336.32	8.97
336.687	9.1
337.054	9.12
337.42	9.16
337.787	9.23
338.153	9.42
338.52	9.56
338.886	9.52
339.253	9.49
339.619	9.5
339.986	9.61
340.352	9.52
340.718	9.51
341.084	9.5
341.451	9.61
341.817	9.62
342.183	9.66
342.549	9.67
342.915	9.76
343.281	9.78
343.647	9.75
344.013	9.84
344.379	9.79
344.745	9.89
345.11	9.85
345.476	9.84
345.842	9.89
346.208	9.83
346.573	9.93
346.939	10.05
347.304	9.92
347.67	9.73
348.035	9.88
348.401	9.88
348.766	9.94
349.132	9.93
349.497	9.98
349.862	10.03
350.228	10.03
350.593	9.88
350.958	9.9
351.323	9.94
351.688	9.88
352.053	9.96
352.418	9.91
352.783	9.94
353.148	9.91
353.513	9.79
353.878	9.83
354.243	9.75
354.608	9.6
354.972	9.66
355.337	9.79
355.702	9.8
356.066	9.86
356.431	9.85
356.795	9.82
357.16	9.74
357.524	9.68
357.889	9.57
358.253	9.59
358.618	9.52
358.982	9.47
359.346	9.4
359.71	9.33
360.075	9.38
360.439	9.43
360.803	9.44
361.167	9.46
361.531	9.38
361.895	9.38
362.259	9.41
362.623	9.37
362.987	9.32
363.351	9.22
363.714	9.16
364.078	9.05
364.442	8.98
364.806	8.96
365.169	8.88
365.533	8.93
365.896	8.94
366.26	8.9
366.623	8.83
366.987	8.81
367.35	8.84
367.714	8.76
368.077	8.7
368.44	8.64
368.803	8.58
369.167	8.53
369.53	8.42
369.893	8.45
370.256	8.47
370.619	8.43
370.982	8.38
371.345	8.38
371.708	8.41
372.071	8.33
372.434	8.21
372.797	8.22
373.159	8.15
373.522	8.11
373.885	8.09
374.247	8.12
374.61	8.08
374.973	8.01
375.335	7.93
375.698	7.77
376.06	7.7
376.423	7.66
376.785	7.66
377.147	7.66
377.51	7.54
377.872	7.51
378.234	7.45
378.596	7.48
378.958	7.37
379.321	7.33
379.683	7.33
380.045	7.32
380.407	7.24
380.769	7.18
381.13	7.03
381.492	6.91
381.854	6.84
382.216	6.8
382.578	6.7
382.939	6.62
383.301	6.61
383.663	6.57
384.024	6.49
384.386	6.46
384.747	6.42
385.109	6.39
385.47	6.36
385.832	6.32
386.193	6.24
386.554	6.2
386.916	6.12
387.277	6.04
387.638	6.04
387.999	5.98
388.36	5.95
388.721	5.98
389.082	5.95
389.443	5.87
389.804	5.84
390.165	5.83
390.526	5.84
390.887	5.8
391.248	5.81
391.609	5.79
391.969	5.79
392.33	5.75
392.691	5.71
393.051	5.62
393.412	5.57
393.772	5.54
394.133	5.5
394.493	5.5
394.854	5.48
395.214	5.46
395.574	5.47
395.935	5.45
396.295	5.43
396.655	5.39
397.015	5.39
397.376	5.36
397.736	5.35
398.096	5.31
398.456	5.28
398.816	5.25
399.176	5.19
399.535	5.12
399.895	5.06
400.255	5.02
400.615	5.06
400.975	5.05
401.334	5.01
401.694	4.97
402.054	4.93
402.413	4.88
402.773	4.81
403.132	4.75
403.492	4.72
403.851	4.7
404.211	4.73
404.57	4.72
404.929	4.66
405.288	4.61
405.648	4.59
406.007	4.57
406.366	4.53
406.725	4.55
407.084	4.55
407.443	4.55
407.802	4.57
408.161	4.53
408.52	4.49
408.879	4.5
409.238	4.52
409.596	4.53
409.955	4.55
410.314	4.61
410.673	4.6
411.031	4.6
411.39	4.57
411.748	4.53
412.107	4.51
412.465	4.51
412.824	4.51
413.182	4.49
413.54	4.47
413.899	4.46
414.257	4.47
414.615	4.46
414.974	4.46
415.332	4.42
415.69	4.39
416.048	4.41
416.406	4.37
416.764	4.34
417.122	4.35
417.48	4.31
417.838	4.26
418.195	4.23
418.553	4.2
418.911	4.2
419.269	4.19
419.626	4.18
419.984	4.16
420.342	4.15
420.699	4.13
421.057	4.13
421.414	4.12
421.772	4.1
422.129	4.08
422.486	4.06
422.844	4.06
423.201	4.04
423.558	4.03
423.915	4.03
424.273	4.01
424.63	3.97
424.987	3.95
425.344	3.96
425.701	3.97
426.058	3.97
426.415	3.94
426.772	3.93
427.128	3.91
427.485	3.92
427.842	3.92
428.199	3.93
428.555	3.91
428.912	3.9
429.269	3.9
429.625	3.9
429.982	3.91
430.338	3.91
430.695	3.92
431.051	3.91
431.407	3.92
431.764	3.93
432.12	3.95
432.476	3.97
432.832	3.94
433.189	3.94
433.545	3.92
433.901	3.93
434.257	3.93
434.613	3.95
434.969	3.95
435.325	3.95
435.681	3.96
436.036	3.98
436.392	3.97
436.748	3.97
437.104	3.99
437.459	3.98
437.815	3.99
438.171	3.98
438.526	3.97
438.882	3.98
439.237	3.97
439.593	3.98
439.948	3.98
440.304	3.99
440.659	3.99
441.014	4
441.369	3.99
441.725	3.98
442.08	3.97
442.435	3.97
442.79	3.96
443.145	3.95
443.5	3.93
443.855	3.92
444.21	3.9
444.565	3.91
444.92	3.91
445.275	3.88
445.629	3.88
445.984	3.87
446.339	3.86
446.693	3.84
447.048	3.82
447.403	3.83
447.757	3.81
448.112	3.81
448.466	3.79
448.82	3.79
449.175	3.8
449.529	3.79
449.883	3.78
450.238	3.77
450.592	3.77
450.946	3.76
451.3	3.76
451.654	3.74
452.008	3.73
452.362	3.71
452.716	3.73
453.07	3.71
453.424	3.72
453.778	3.72
454.132	3.73
454.486	3.72
454.839	3.71
455.193	3.71
455.547	3.71
455.9	3.71
456.254	3.7
456.607	3.7
456.961	3.7
457.314	3.7
457.668	3.71
458.021	3.69
458.375	3.71
458.728	3.72
459.081	3.73
459.434	3.72
459.787	3.74
460.141	3.74
460.494	3.76
460.847	3.77
461.2	3.76
461.553	3.78
461.906	3.8
462.259	3.82
462.611	3.85
462.964	3.87
463.317	3.9
463.67	3.94
464.022	3.95
464.375	3.95
464.728	3.99
465.08	3.99
465.433	4.02
465.785	4.04
466.138	4.03
466.49	4.04
466.843	4.06
467.195	4.06
467.547	4.07
467.899	4.07
468.252	4.05
468.604	4.05
468.956	4.05
469.308	4.05
469.66	4.05
470.012	4.06
470.364	4.07
470.716	4.07
471.068	4.05
471.42	4.05
471.772	4.06
472.123	4.06
472.475	4.09
472.827	4.1
473.178	4.1
473.53	4.1
473.882	4.1
474.233	4.11
474.585	4.07
474.936	4.07
475.288	4.06
475.639	4.08
475.99	4.09
476.342	4.06
476.693	4.06
477.044	4.06
477.395	4.06
477.746	4.02
478.097	4
478.448	4.01
478.8	4.02
479.15	4.02
479.501	4
479.852	4
480.203	3.99
480.554	4
480.905	4
481.255	4.01
481.606	4
481.957	4.03
482.307	4.05
482.658	4.05
483.009	4.06
483.359	4.06
483.709	4.06
484.06	4.06
484.41	4.06
484.761	4.06
485.111	4.07
485.461	4.08
485.811	4.08
486.162	4.08
486.512	4.09
486.862	4.09
487.212	4.09
487.562	4.09
487.912	4.09
488.262	4.09
488.612	4.09
488.961	4.11
489.311	4.1
489.661	4.1
490.011	4.11
490.36	4.11
490.71	4.11
491.06	4.12
491.409	4.12
491.759	4.12
492.108	4.13
492.458	4.14
492.807	4.13
493.157	4.15
493.506	4.15
493.855	4.16
494.204	4.18
494.554	4.19
494.903	4.21
495.252	4.22
495.601	4.25
495.95	4.28
496.299	4.3
496.648	4.32
496.997	4.35
497.346	4.37
497.695	4.4
498.043	4.44
498.392	4.45
498.741	4.5
499.09	4.54
499.438	4.6
499.787	4.65
500.135	4.7
500.484	4.75
500.832	4.82
501.181	4.87
501.529	4.92
501.878	5.01
502.226	5.11
502.574	5.2
502.923	5.28
503.271	5.34
503.619	5.43
503.967	5.5
504.315	5.61
504.663	5.71
505.011	5.8
505.359	5.9
505.707	6.03
506.055	6.14
506.403	6.26
506.751	6.34
507.098	6.47
507.446	6.61
507.794	6.73
508.141	6.84
508.489	6.98
508.837	7.12
509.184	7.25
509.531	7.36
509.879	7.49
510.226	7.6
510.574	7.75
510.921	7.88
511.268	8.02
511.616	8.15
511.963	8.29
512.31	8.43
512.657	8.6
513.004	8.77
513.351	8.95
513.698	9.12
514.045	9.31
514.392	9.47
514.739	9.64
515.086	9.82
515.432	10
515.779	10.15
516.126	10.31
516.473	10.47
516.819	10.64
517.166	10.8
517.512	10.97
517.859	11.1
518.205	11.26
518.552	11.41
518.898	11.55
519.245	11.69
519.591	11.84
519.937	11.97
520.283	12.11
520.629	12.27
520.976	12.43
521.322	12.61
521.668	12.78
522.014	12.96
522.36	13.13
522.706	13.31
523.052	13.52
523.398	13.76
523.743	13.99
524.089	14.18
524.435	14.4
524.781	14.62
525.126	14.83
525.472	14.98
525.817	15.14
526.163	15.31
526.509	15.46
526.854	15.59
527.199	15.74
527.545	15.86
527.89	15.98
528.235	16.1
528.581	16.25
528.926	16.39
529.271	16.53
529.616	16.7
529.961	16.85
530.306	17.01
530.651	17.16
530.996	17.32
531.341	17.5
531.686	17.67
532.031	17.84
532.376	18.03
532.721	18.24
533.065	18.44
533.41	18.65
533.755	18.87
534.099	19.09
534.444	19.31
534.788	19.56
535.133	19.77
535.477	20.04
535.822	20.24
536.166	20.5
536.51	20.76
536.855	21.02
537.199	21.29
537.543	21.6
537.887	21.9
538.231	22.18
538.576	22.51
538.92	22.8
539.264	23.07
539.608	23.36
539.951	23.64
540.295	23.91
540.639	24.16
540.983	24.4
541.327	24.66
541.671	24.89
542.014	25.1
542.358	25.34
542.701	25.54
543.045	25.75
543.389	26
543.732	26.25
544.075	26.51
544.419	26.77
544.762	26.99
545.105	27.24
545.449	27.53
545.792	27.78
546.135	28.08
546.478	28.41
546.821	28.68
547.165	28.96
547.508	29.27
547.851	29.59
548.194	29.88
548.536	30.17
548.879	30.5
549.222	30.84
549.565	31.15
549.908	31.49
550.25	31.84
550.593	32.06
550.936	32.32
551.278	32.58
551.621	32.9
551.963	33.2
552.306	33.53
552.648	33.79
552.991	34.1
553.333	34.41
553.675	34.71
554.017	34.95
554.36	35.21
554.702	35.43
555.044	35.66
555.386	35.93
555.728	36.16
556.07	36.44
556.412	36.64
556.754	36.89
557.096	37.11
557.438	37.34
557.78	37.64
558.121	37.91
558.463	38.13
558.805	38.37
559.147	38.58
559.488	38.8
559.83	39.01
560.171	39.25
560.513	39.43
560.854	39.56
561.196	39.83
561.537	40.03
561.878	40.24
562.22	40.47
562.561	40.62
562.902	40.79
563.243	40.97
563.584	41.18
563.925	41.27
564.266	41.42
564.607	41.63
564.948	41.8
565.289	41.9
565.63	42.08
565.971	42.24
566.312	42.42
566.653	42.54
566.993	42.72
567.334	42.79
567.675	42.93
568.015	43.09
568.356	43.17
568.696	43.31
569.037	43.37
569.377	43.53
569.718	43.65
570.058	43.76
570.398	43.83
570.739	43.95
571.079	44.14
571.419	44.33
571.759	44.43
572.099	44.61
572.439	44.7
572.779	44.77
573.119	44.88
573.459	44.95
573.799	45.06
574.139	45.18
574.479	45.31
574.819	45.44
575.158	45.48
575.498	45.64
575.838	45.77
576.177	45.91
576.517	45.95
576.856	46.07
577.196	46.26
577.535	46.4
577.875	46.5
578.214	46.56
578.553	46.63
578.893	46.71
579.232	46.72
579.571	46.88
579.91	47.06
580.25	47.17
580.589	47.24
580.928	47.3
581.267	47.31
581.606	47.37
581.945	47.41
582.283	47.59
582.622	47.65
582.961	47.78
583.3	47.91
583.639	47.92
583.977	47.95
584.316	48.04
584.654	48.2
584.993	48.32
585.332	48.44
585.67	48.44
586.008	48.46
586.347	48.56
586.685	48.69
587.024	48.73
587.362	48.82
587.7	48.97
588.038	49.03
588.376	49.15
588.715	49.3
589.053	49.4
589.391	49.41
589.729	49.42
590.067	49.35
590.404	49.37
590.742	49.51
591.08	49.61
591.418	49.57
591.756	49.54
592.093	49.57
592.431	49.6
592.769	49.66
593.106	49.73
593.444	49.81
593.781	49.82
594.119	49.83
594.456	49.82
594.793	49.85
595.131	49.92
595.468	49.95
595.805	49.96
596.143	49.96
596.48	50.01
596.817	50.11
597.154	50.22
597.491	50.29
597.828	50.33
598.165	50.31
598.502	50.34
598.839	50.34
599.176	50.34
599.512	50.37
599.849	50.41
600.186	50.45
600.523	50.45
600.859	50.48
601.196	50.57
601.532	50.55
601.869	50.58
602.205	50.52
602.542	50.53
602.878	50.51
603.215	50.53
603.551	50.61
603.887	50.59
604.223	50.63
604.56	50.67
604.896	50.69
605.232	50.76
605.568	50.82
605.904	50.93
606.24	50.97
606.576	51.02
606.912	51.09
607.248	51.14
607.583	51.23
607.919	51.26
608.255	51.23
608.591	51.38
608.926	51.46
609.262	51.61
609.597	51.68
609.933	51.72
610.268	51.79
610.604	51.78
610.939	51.87
611.275	51.88
611.61	51.9
611.945	51.92
612.281	51.97
612.616	51.97
612.951	51.95
613.286	52.02
613.621	51.96
613.956	51.98
614.291	52
614.626	51.96
614.961	52.01
615.296	52.11
615.631	52.11
615.966	52.1
616.3	52.21
616.635	52.2
616.97	52.27
617.304	52.26
617.639	52.3
617.973	52.28
618.308	52.27
618.642	52.36
618.977	52.38
619.311	52.37
619.646	52.43
619.98	52.47
620.314	52.47
620.648	52.55
620.983	52.66
621.317	52.71
621.651	52.71
621.985	52.74
622.319	52.75
622.653	52.77
622.987	52.81
623.321	52.72
623.655	52.8
623.988	52.84
624.322	52.92
624.656	52.97
624.99	52.96
625.323	53.04
625.657	52.98
625.99	52.97
626.324	53.05
626.657	53.09
626.991	53.12
627.324	53.14
627.658	53.13
627.991	53.02
628.324	53.1
628.657	53.16
628.991	53.21
629.324	53.3
629.657	53.28
629.99	53.28
630.323	53.38
630.656	53.35
630.989	53.43
631.322	53.4
631.655	53.41
631.987	53.52
632.32	53.44
632.653	53.44
632.986	53.52
633.318	53.51
633.651	53.59
633.984	53.61
634.316	53.65
634.649	53.67
634.981	53.87
635.313	53.81
635.646	53.76
635.978	53.8
636.31	53.66
636.643	53.68
636.975	53.65
637.307	53.66
637.639	53.72
637.971	53.73
638.303	53.74
638.635	53.75
638.967	53.67
639.299	53.77
639.631	53.76
639.963	53.77
640.295	53.73
640.626	53.63
640.958	53.61
641.29	53.59
641.621	53.69
641.953	53.53
642.285	53.64
642.616	53.67
642.948	53.62
643.279	53.79
643.61	53.93
643.942	53.91
644.273	53.85
644.604	53.89
644.936	53.81
645.267	53.9
645.598	53.91
645.929	53.97
646.26	53.95
646.591	54.01
646.922	54
647.253	54.12
647.584	54.19
647.915	54.25
648.245	54.29
648.576	54.36
648.907	54.5
649.238	54.42
649.568	54.44
649.899	54.43
650.229	54.41
650.56	54.35
650.89	54.35
651.221	54.35
651.551	54.24
651.882	54.36
652.212	54.36
652.542	54.37
652.872	54.38
653.203	54.54
653.533	54.58
653.863	54.68
654.193	54.61
654.523	54.63
654.853	54.72
655.183	54.79
655.513	54.65
655.843	54.66
656.172	54.78
656.502	54.81
656.832	54.78
657.162	54.86
657.491	54.87
657.821	54.91
658.15	54.91
658.48	54.98
658.809	54.94
659.139	54.92
659.468	54.91
659.798	54.92
660.127	54.85
660.456	54.89
660.785	54.93
661.115	55.09
661.444	55.13
661.773	55.05
662.102	55.11
662.431	55.16
662.76	55.17
663.089	55.14
663.418	55.16
663.747	55.29
664.076	55.25
664.404	55.22
664.733	55.29
665.062	55.32
665.39	55.23
665.719	55.33
666.048	55.31
666.376	55.26
666.705	55.22
667.033	55.13
667.362	55.08
667.69	55.1
668.018	54.92
668.347	54.82
668.675	54.85
669.003	54.74
669.331	54.92
669.659	54.85
669.987	54.8
670.315	54.72
670.643	54.78
670.971	54.83
671.299	54.82
671.627	54.9
671.955	54.98
672.283	55.15
672.61	55
672.938	55.06
673.266	55.2
673.593	55.23
673.921	55.39
674.249	55.45
674.576	55.32
674.904	55.34
675.231	55.42
675.558	55.52
675.886	55.59
676.213	55.47
676.54	55.54
676.867	55.66
677.195	55.77
677.522	55.66
677.849	55.61
678.176	55.68
678.503	55.72
678.83	55.64
679.157	55.69
679.484	55.69
679.81	55.71
680.137	55.69
680.464	55.76
680.791	55.68
681.117	55.65
681.444	55.78
681.771	55.93
682.097	55.81
682.424	55.79
682.75	55.82
683.077	55.85
683.403	55.96
683.729	55.96
684.056	55.96
684.382	56.06
684.708	56.05
685.034	55.89
685.36	55.89
685.686	56
686.012	55.93
686.339	55.89
686.664	55.73
686.99	55.8
687.316	55.92
687.642	56
687.968	56.03
688.294	55.99
688.619	55.83
688.945	55.8
689.271	55.76
689.596	55.75
689.922	55.71
690.247	55.52
690.573	55.36
690.898	55.36
691.224	55.33
691.549	55.31
691.874	55.37
692.2	55.39
692.525	55.42
692.85	55.32
693.175	55.46
693.5	55.69
693.825	55.67
694.15	55.52
694.475	55.44
694.8	55.31
695.125	55.34
695.45	55.23
695.775	55.42
696.099	55.32
696.424	55.24
696.749	55.27
697.073	55.46
697.398	55.55
697.723	55.52
698.047	55.54
698.372	55.61
698.696	55.65
699.02	55.55
699.345	55.57
699.669	55.65
699.993	55.6
700.318	55.53
700.642	55.4
700.966	55.43
701.29	55.45
701.614	55.52
701.938	55.5
702.262	55.66
702.586	55.66
702.91	55.75
703.234	55.87
703.557	55.85
703.881	55.64
704.205	55.52
704.529	55.55
704.852	55.65
705.176	55.66
705.499	55.85
705.823	55.69
706.146	55.41
706.47	55.44
706.793	55.33
707.117	55.27
707.44	55.48
707.763	55.42
708.086	55.55
708.409	55.47
708.733	55.47
709.056	55.46
709.379	55.57
709.702	55.56
710.025	55.48
710.348	55.51
710.671	55.41
710.993	55.37
711.316	55.47
711.639	55.26
711.962	55.31
712.284	55.15
712.607	55.11
712.93	55.33
713.252	55.32
713.575	55.59
713.897	55.78
714.22	55.78
714.542	55.92
714.864	55.73
715.187	55.85
715.509	55.68
715.831	55.59
716.153	55.53
716.475	55.44
716.798	55.38
717.12	55.42
717.442	55.58
717.764	55.79
718.085	55.66
718.407	55.68
718.729	55.64
719.051	55.72
719.373	55.83
719.695	55.75
720.016	55.59
720.338	55.38
720.659	55.44
720.981	55.39
721.302	55.05
721.624	55.11
721.945	55.05
722.267	55.27
722.588	55.5
722.909	55.42
723.231	55.43
723.552	55.61
723.873	55.73
724.194	55.89
724.515	55.68
724.836	55.79
725.157	55.9
725.478	55.68
725.799	55.83
726.12	56.01
726.441	56.09
726.762	56.38
727.083	56.32
727.403	56.17
727.724	56.22
728.045	56.31
728.365	56.61
728.686	56.63
729.006	56.69
729.327	56.31
729.647	56.38
729.967	56.41
730.288	56.58
730.608	56.46
730.928	56.22
731.249	56.47
731.569	56.5
731.889	56.45
732.209	56.58
732.529	56.6
732.849	56.58
733.169	56.63
733.489	56.54
733.809	56.58
734.129	56.67
734.448	56.52
734.768	56.42
735.088	56.09
735.408	56.07
735.727	56.23
736.047	56.6
736.366	56.52
736.686	56.63
737.005	56.69
737.325	56.67
737.644	56.88
737.963	56.84
738.283	56.88
738.602	56.92
738.921	56.88
739.24	56.73
739.56	56.89
739.879	56.9
740.198	56.76
740.517	57.03
740.836	57.01
741.155	57.21
741.473	57.55
741.792	57.9
742.111	58.09
742.43	57.83
742.748	57.49
743.067	57.77
743.386	57.69
743.704	57.42
744.023	57.17
744.341	57.21
744.66	57.38
744.978	57.09
745.297	56.95
745.615	57.26
745.933	57.08
746.252	57.11
746.57	57.19
746.888	57.33
747.206	57.17
747.524	57.14
747.842	56.98
748.16	57.01
748.478	57.02
748.796	56.76
749.114	56.95
749.432	57
749.749	56.67
750.067	57.09
750.385	57.06
750.703	57.31
751.02	57.52
751.338	57.48
751.655	57.96
751.973	58.31
752.29	57.92
752.608	58.03
752.925	57.71
753.242	57.51
753.56	57.58
753.877	57.49
754.194	57.61
754.511	57.85
754.828	57.61
755.145	57.41
755.462	57.54
755.779	57.7
756.096	57.9
756.413	57.95
756.73	57.38
757.047	57.39
757.364	57.63
757.68	57.39
757.997	57.16
758.314	56.85
758.63	56.78
758.947	56.87
759.264	57.06
759.58	57.28
759.896	57.2
760.213	57.2
760.529	57.46
760.846	57.16
761.162	57.07
761.478	56.98
761.794	56.98
762.11	57.1
762.426	56.78
762.743	56.77
763.059	56.92
763.375	57.15
763.69	57.04
764.006	56.89
764.322	57.07
764.638	57.02
764.954	57.14
765.27	57.16
765.585	57.26
765.901	57.31
766.216	57.32
766.532	57.3
766.848	57.21
767.163	57.27
767.478	57.16
767.794	57.09
768.109	57.23
768.424	57.35
768.74	57.21
769.055	57.38
769.37	57.61
769.685	57.76
770	57.92
770.315	58.12
770.63	58.17
770.945	57.7
771.26	58.03
771.575	57.93
771.89	57.95
772.205	57.76
772.52	57.46
772.834	57.6
773.149	57.9
773.464	58.17
773.778	58.07
774.093	58.39
774.407	58.6
774.722	58.56
775.036	58.37
775.351	58.41
775.665	57.91
775.979	57.36
776.293	57.23
776.608	57.17
776.922	56.99
777.236	56.85
777.55	56.87
777.864	57.23
778.178	57.24
778.492	57.01
778.806	56.87
779.12	57.22
779.434	56.96
779.747	57.28
780.061	57.13
780.375	56.72
780.689	56.95
781.002	56.68
781.316	56.74
781.629	57.13
781.943	57.24
782.256	57.77
782.57	58.23
782.883	58
783.196	57.6
783.51	57.62
783.823	57.95
784.136	58.46
784.449	57.72
784.762	57.76
785.075	58.17
785.388	58.02
785.701	58.17
786.014	57.96
786.327	57.63
786.64	57.24
786.953	57.78
787.266	57.45
787.578	57.3
787.891	57.33
788.204	57.02
788.516	56.98
788.829	57.34
789.141	57.78
789.454	58.24
789.766	58.4
790.079	58.61
790.391	58.37
790.703	58.14
791.016	58.21
791.328	58.33
791.64	57.81
791.952	58
792.264	57.76
792.576	57.81
792.888	58.12
793.2	58.98
793.512	58.57
793.824	58.61
794.136	58.9
794.448	59.23
794.76	59.06
795.071	58.86
795.383	57.87
795.695	58
796.006	57.67
796.318	58.12
796.629	58.34
796.941	58.31
797.252	58.45
797.564	58.21
797.875	58.08
798.186	58.16
798.497	58.74
798.809	58.8
799.12	58.98
799.431	58.15
799.742	57.65
800.053	57.54
800.364	57.59
800.675	57.62
800.986	57.74
801.297	57.4
801.608	57.44
801.918	57.7
802.229	56.62
802.54	56.06
802.851	55.39
803.161	55.13
803.472	55.32
803.782	55.52
804.093	56.37
804.403	56.04
804.714	56.03
805.024	55.29
805.334	54.9
805.645	55.1
805.955	55.2
806.265	55.31
806.575	55.91
806.885	56.1
807.195	55.93
807.505	55.43
807.815	56.06
808.125	56.34
808.435	57.2
808.745	57.5
809.055	58.21
809.365	58.92
809.674	58.75
809.984	58.69
810.294	58.51
810.603	58.14
810.913	59.05
811.222	58.8
811.532	58.96
811.841	59.07
812.151	58.66
812.46	58.53
812.769	59.05
813.079	58.56
813.388	58.52
813.697	59.32
814.006	59.34
814.315	59.25
814.624	59.19
814.933	58.83
815.242	59.51
815.551	59.85
815.86	59.57
816.169	59.84
816.478	59.35
816.786	58.36
817.095	58.49
817.404	57.66
817.712	58.17
818.021	58.15
818.33	58.71
818.638	58.87
818.947	59.46
819.255	59.16
819.563	58.93
819.872	59.07
820.18	58.66
820.488	58.58
820.796	58.54
821.105	58.72
821.413	58.94
821.721	58.65
822.029	58.51
822.337	58.56
822.645	58.7
822.953	58.87
823.26	58.92
823.568	58.8
823.876	58.78
824.184	58.87
824.491	59.1
824.799	58.89
825.107	58.92
825.414	58.8
825.722	58.78
826.029	58.85
826.337	58.83
826.644	58.91
826.951	58.99
827.259	59.1
827.566	59.06
827.873	58.79
828.18	59.06
828.488	58.91
828.795	58.81
829.102	58.48
829.409	58.36
829.716	58.57
830.023	58.82
830.329	59.13
830.636	59
830.943	58.62
831.25	58.84
831.557	58.79
831.863	58.72
832.17	58.57
832.476	58.53
832.783	58.69
833.089	58.48
833.396	58.47
833.702	58.33
834.009	57.9
834.315	57.8
834.621	57.5
834.928	57.85
835.234	57.98
835.54	58.23
835.846	58.28
836.152	58.91
836.458	58.6
836.764	58.4
837.07	58.46
837.376	57.85
837.682	58.52
837.988	58.26
838.293	58.89
838.599	58.96
838.905	58.87
839.211	58.57
839.516	58.94
839.822	58.83
840.127	58.94
840.433	59.61
840.738	60.82
841.044	60.52
841.349	59.78
841.654	59.8
841.959	59.31
842.265	59.72
842.57	58.74
842.875	58.27
843.18	58.92
843.485	58.59
843.79	59.52
844.095	58.18
844.4	60.29
844.705	59.47
845.01	58.44
845.315	58.97
845.619	57.81
845.924	57.46
846.229	57.86
846.533	58.89
846.838	59.11
847.142	59.18
847.447	59.66
847.751	60.04
848.056	58.8
848.36	59.48
848.664	58.41
848.969	58.17
849.273	59.99
849.577	59.25
849.881	58.86
850.185	61.14
850.489	61.88
850.794	59.69
851.097	58.9
851.401	60.43
851.705	58.66
852.009	61.02
852.313	61.23
852.617	61.84
852.92	61.8
853.224	59.71
853.528	58.96
853.831	58.93
854.135	59.98
854.438	59.09
854.742	57.82
855.045	59.07
855.349	59.67
855.652	58.43
855.955	58.91
856.259	59.06
856.562	57.6
856.865	55.57
857.168	53.72
857.471	54.37
857.774	54.02
858.077	56.56
858.38	55.58
858.683	55.06
858.986	54.72
859.289	52.6
859.592	52.43
859.894	50.88
860.197	50.29
860.5	49.69
860.802	49.19
861.105	50.19
861.407	48.17
861.71	47.2
862.012	48.25
862.315	46.02
862.617	44
862.919	43.43
863.222	42.86
863.524	44
863.826	43.53
864.128	42.53
864.43	39.87
864.732	38.75
865.034	38.44
865.336	36.5
865.638	37.19
865.94	39.75
866.242	39.91
866.544	41.19
866.846	43.23
867.147	45.94
867.449	46.42
867.751	49.06
868.052	49.51
868.354	49.28
868.655	51.03
868.957	53.33
869.258	54.09
869.56	56.09
869.861	56.66
870.162	56.59
870.463	58.59
870.765	59.38
871.066	60.36
871.367	61.06
871.668	63.04
871.969	61.2
872.27	58.58
872.571	58.92
872.872	57.69
873.173	56.28
873.473	55.65
873.774	55.15
874.075	53.04
874.376	52.92
874.676	50.7
874.977	48.79
875.277	50.3
875.578	49.66
875.878	49.16
876.179	48.27
876.479	48.63
876.78	47.7
877.08	49.1
877.38	48.71
877.68	47.92
877.981	47.46
878.281	49.07
878.581	50.06
