Data from BU26943_Reflection_00007.txt Node
Date: Tue Nov 19 11:02:27 EST 2019
User: vgr7
Spectrometer: USB2G7710
Scans to average: 3
Trigger mode: 4
Integration Time (sec): 2.000000E-2
Electric dark correction enabled: true
Boxcar width: 10
XAxis mode: Wavelengths
Number of Pixels in Spectrum: 2048
>>>>>Begin Spectral Data<<<<<
177.721	-174.51
178.105	-58.47
178.488	-58.98
178.871	-56.74
179.254	-45.68
179.636	-668.12
180.019	186.02
180.402	120
180.785	366.67
181.168	266.67
181.55	157.47
181.933	664.1
182.316	29.82
182.698	-332.1
183.081	90.54
183.463	84.34
183.846	13.09
184.228	-2.29
184.611	17.33
184.993	24.29
185.376	-1.06
185.758	32.22
186.14	19.63
186.522	28.3
186.904	12.21
187.287	8.1
187.669	13.9
188.051	3.25
188.433	-6.47
188.815	-9.86
189.197	-10.76
189.579	-2.88
189.961	3.39
190.342	4.54
190.724	-12.13
191.106	-16.2
191.488	-17.08
191.869	-15.52
192.251	-8.12
192.633	-10.44
193.014	-9.05
193.396	2.58
193.777	4.54
194.159	13.46
194.54	18.01
194.922	14.37
195.303	12.79
195.684	15.81
196.065	19.98
196.447	17.93
196.828	29.67
197.209	31.83
197.59	35.96
197.971	40.58
198.352	30.05
198.733	26.64
199.114	19.75
199.495	22.03
199.876	16.56
200.257	26.03
200.638	30.25
201.018	33.6
201.399	34.21
201.78	32.34
202.16	15.62
202.541	19.05
202.922	29.27
203.302	25.67
203.683	16.19
204.063	5.59
204.444	3.97
204.824	-5.72
205.204	-8.09
205.585	-4.37
205.965	-18.26
206.345	-10.15
206.725	-1.8
207.106	12.01
207.486	5.3
207.866	4.63
208.246	-0.03
208.626	-8.46
209.006	-18.5
209.386	-12.66
209.766	-12.95
210.145	-3.47
210.525	-10.31
210.905	-13.89
211.285	-10.49
211.664	3.73
212.044	7.47
212.424	10.84
212.803	8.55
213.183	4.96
213.562	-2.48
213.942	4.13
214.321	1.2
214.701	-2.51
215.08	-10.83
215.459	-5.54
215.838	-8.39
216.218	-6.88
216.597	0.85
216.976	2.79
217.355	-4.12
217.734	-4.89
218.113	-5.75
218.492	-6.87
218.871	-1.45
219.25	-7.68
219.629	-22.98
220.008	-17.08
220.387	-17.32
220.766	-7.79
221.144	-0.03
221.523	3.94
221.902	5.11
222.28	3.08
222.659	14.02
223.037	11
223.416	11.31
223.794	14.97
224.173	12.72
224.551	5.48
224.929	5.18
225.308	5.51
225.686	5.9
226.064	5.21
226.442	6.82
226.821	3.87
227.199	3.35
227.577	6.82
227.955	6.95
228.333	6.45
228.711	5.29
229.089	3.08
229.467	3.48
229.845	3.27
230.222	4.4
230.6	1.37
230.978	3.07
231.356	3.36
231.733	2.51
232.111	2.08
232.488	5.3
232.866	6.85
233.243	6.62
233.621	7.77
233.998	7.11
234.376	7.01
234.753	8.27
235.13	11.33
235.508	8.94
235.885	8.75
236.262	8.91
236.639	6.93
237.016	6.85
237.393	6.39
237.77	5.92
238.147	5.19
238.524	5.31
238.901	4.24
239.278	4.71
239.655	5.27
240.032	5.22
240.409	4.58
240.785	4.7
241.162	4.7
241.539	4.25
241.915	4.06
242.292	3.79
242.668	4.07
243.045	3.55
243.421	3.99
243.798	4.06
244.174	3.79
244.551	3.96
244.927	3.96
245.303	3.89
245.679	4.02
246.056	4.32
246.432	4.32
246.808	4.44
247.184	3.97
247.56	3.54
247.936	3.53
248.312	3.7
248.688	3.48
249.064	3.49
249.44	3.37
249.815	3.44
250.191	3.38
250.567	3.23
250.943	3.28
251.318	3.11
251.694	2.7
252.069	3.08
252.445	3.31
252.82	3.56
253.196	3.65
253.571	3.64
253.947	3.55
254.322	3.38
254.697	3.42
255.073	3.96
255.448	4.08
255.823	3.89
256.198	3.52
256.573	3.37
256.948	3.25
257.323	3.49
257.698	3.43
258.073	3.54
258.448	3.56
258.823	3.47
259.198	3.49
259.573	3.67
259.948	3.71
260.322	3.49
260.697	3.41
261.072	3.41
261.446	3.3
261.821	3.17
262.195	3.36
262.57	3.33
262.944	3.16
263.319	3.29
263.693	3.4
264.067	3.41
264.442	3.58
264.816	3.48
265.19	3.48
265.564	3.46
265.938	3.49
266.313	3.36
266.687	3.42
267.061	3.47
267.435	3.33
267.809	3.07
268.183	3.19
268.556	3.1
268.93	2.98
269.304	3.2
269.678	3.33
270.051	3.35
270.425	3.43
270.799	3.32
271.172	3.19
271.546	3.33
271.919	3.45
272.293	3.54
272.666	3.77
273.04	3.75
273.413	3.82
273.787	3.83
274.16	3.87
274.533	3.99
274.906	4.03
275.279	4.21
275.653	4.33
276.026	4.33
276.399	4.31
276.772	4.38
277.145	4.14
277.518	3.85
277.891	3.72
278.263	3.73
278.636	4.13
279.009	4.28
279.382	4.06
279.755	3.98
280.127	3.88
280.5	3.74
280.872	3.65
281.245	3.63
281.617	3.54
281.99	3.46
282.362	3.35
282.735	3.25
283.107	3.17
283.479	3.2
283.852	3.19
284.224	3.24
284.596	3.27
284.968	3.36
285.34	3.51
285.713	3.5
286.085	3.4
286.457	3.2
286.829	3.1
287.201	3.19
287.572	3.31
287.944	3.35
288.316	3.34
288.688	3.41
289.06	3.34
289.431	3.46
289.803	3.6
290.175	3.53
290.546	3.47
290.918	3.59
291.289	3.43
291.661	3.55
292.032	3.49
292.403	3.53
292.775	3.59
293.146	3.69
293.517	3.68
293.889	3.76
294.26	3.77
294.631	3.79
295.002	3.76
295.373	3.7
295.744	3.7
296.115	3.74
296.486	3.85
296.857	3.9
297.228	3.76
297.599	3.72
297.97	3.86
298.34	3.96
298.711	3.96
299.082	4.07
299.452	3.96
299.823	4.02
300.194	4.14
300.564	4.02
300.935	3.94
301.305	4.01
301.676	3.92
302.046	3.94
302.416	4.1
302.787	4.16
303.157	4.14
303.527	4.08
303.897	4.08
304.267	4.02
304.637	4.03
305.008	4.18
305.378	4.3
305.748	4.3
306.117	4.29
306.487	4.26
306.857	4.44
307.227	4.64
307.597	4.63
307.967	4.49
308.336	4.52
308.706	4.63
309.076	4.74
309.445	4.85
309.815	4.89
310.184	4.9
310.554	4.9
310.923	4.83
311.293	4.92
311.662	5
312.031	4.96
312.401	4.95
312.77	4.91
313.139	4.87
313.508	4.93
313.877	4.93
314.246	4.88
314.616	4.91
314.985	4.83
315.353	4.92
315.722	5.15
316.091	5.2
316.46	5.17
316.829	5.08
317.198	5.26
317.567	5.42
317.935	5.35
318.304	5.42
318.672	5.55
319.041	5.58
319.41	5.62
319.778	5.68
320.147	5.91
320.515	6
320.883	6.06
321.252	6.04
321.62	6.19
321.988	6.25
322.357	6.13
322.725	6.19
323.093	6.07
323.461	5.95
323.829	6.08
324.197	6.13
324.565	6.22
324.933	6.13
325.301	6.01
325.669	6.07
326.037	6.06
326.405	6.19
326.772	6.24
327.14	6.14
327.508	6.2
327.875	6.18
328.243	6.12
328.61	6.04
328.978	6.01
329.346	5.93
329.713	6.02
330.08	6.08
330.448	6.01
330.815	6.05
331.182	6.06
331.55	6.13
331.917	6.11
332.284	6.15
332.651	6.15
333.018	6.15
333.385	6.1
333.752	6.22
334.119	6.1
334.486	6.06
334.853	6.11
335.22	6.11
335.587	6.03
335.954	6.07
336.32	6.16
336.687	6.41
337.054	6.42
337.42	6.39
337.787	6.31
338.153	6.52
338.52	6.68
338.886	6.7
339.253	6.62
339.619	6.66
339.986	6.59
340.352	6.64
340.718	6.68
341.084	6.73
341.451	6.64
341.817	6.7
342.183	6.66
342.549	6.76
342.915	6.8
343.281	6.9
343.647	7.05
344.013	7.12
344.379	6.86
344.745	6.98
345.11	6.96
345.476	6.99
345.842	6.87
346.208	6.79
346.573	6.76
346.939	6.79
347.304	6.84
347.67	6.92
348.035	6.82
348.401	6.81
348.766	6.81
349.132	6.9
349.497	6.93
349.862	6.97
350.228	6.91
350.593	6.82
350.958	6.79
351.323	6.75
351.688	6.67
352.053	6.77
352.418	6.67
352.783	6.68
353.148	6.69
353.513	6.62
353.878	6.64
354.243	6.61
354.608	6.6
354.972	6.51
355.337	6.44
355.702	6.52
356.066	6.57
356.431	6.53
356.795	6.44
357.16	6.47
357.524	6.47
357.889	6.46
358.253	6.52
358.618	6.46
358.982	6.43
359.346	6.41
359.71	6.38
360.075	6.36
360.439	6.39
360.803	6.43
361.167	6.48
361.531	6.49
361.895	6.5
362.259	6.51
362.623	6.55
362.987	6.57
363.351	6.54
363.714	6.53
364.078	6.5
364.442	6.49
364.806	6.46
365.169	6.48
365.533	6.43
365.896	6.4
366.26	6.39
366.623	6.36
366.987	6.37
367.35	6.34
367.714	6.34
368.077	6.27
368.44	6.23
368.803	6.17
369.167	6.06
369.53	6.05
369.893	6.04
370.256	5.95
370.619	5.89
370.982	5.82
371.345	5.84
371.708	5.86
372.071	5.84
372.434	5.75
372.797	5.71
373.159	5.66
373.522	5.6
373.885	5.62
374.247	5.58
374.61	5.51
374.973	5.5
375.335	5.5
375.698	5.51
376.06	5.44
376.423	5.43
376.785	5.47
377.147	5.44
377.51	5.37
377.872	5.37
378.234	5.38
378.596	5.34
378.958	5.28
379.321	5.18
379.683	5.19
380.045	5.23
380.407	5.15
380.769	5.14
381.13	5.12
381.492	5.08
381.854	5.03
382.216	5.02
382.578	5.02
382.939	4.95
383.301	4.87
383.663	4.87
384.024	4.86
384.386	4.85
384.747	4.83
385.109	4.79
385.47	4.79
385.832	4.68
386.193	4.66
386.554	4.61
386.916	4.63
387.277	4.56
387.638	4.52
387.999	4.51
388.36	4.49
388.721	4.44
389.082	4.4
389.443	4.44
389.804	4.42
390.165	4.36
390.526	4.35
390.887	4.32
391.248	4.27
391.609	4.22
391.969	4.17
392.33	4.15
392.691	4.14
393.051	4.13
393.412	4.17
393.772	4.14
394.133	4.13
394.493	4.09
394.854	4.07
395.214	4.05
395.574	4.04
395.935	4
396.295	4.01
396.655	4
397.015	3.94
397.376	3.9
397.736	3.86
398.096	3.85
398.456	3.85
398.816	3.84
399.176	3.78
399.535	3.76
399.895	3.74
400.255	3.72
400.615	3.69
400.975	3.66
401.334	3.68
401.694	3.66
402.054	3.65
402.413	3.66
402.773	3.65
403.132	3.64
403.492	3.67
403.851	3.63
404.211	3.61
404.57	3.64
404.929	3.61
405.288	3.63
405.648	3.6
406.007	3.6
406.366	3.6
406.725	3.61
407.084	3.6
407.443	3.58
407.802	3.57
408.161	3.56
408.52	3.55
408.879	3.52
409.238	3.48
409.596	3.45
409.955	3.43
410.314	3.42
410.673	3.42
411.031	3.39
411.39	3.43
411.748	3.42
412.107	3.37
412.465	3.38
412.824	3.37
413.182	3.37
413.54	3.35
413.899	3.3
414.257	3.31
414.615	3.3
414.974	3.3
415.332	3.29
415.69	3.27
416.048	3.25
416.406	3.22
416.764	3.23
417.122	3.23
417.48	3.22
417.838	3.2
418.195	3.18
418.553	3.16
418.911	3.13
419.269	3.13
419.626	3.12
419.984	3.13
420.342	3.12
420.699	3.1
421.057	3.09
421.414	3.08
421.772	3.07
422.129	3.05
422.486	3.05
422.844	3.03
423.201	3.01
423.558	3.01
423.915	3.01
424.273	3
424.63	3.01
424.987	3.01
425.344	2.99
425.701	2.99
426.058	3
426.415	2.99
426.772	2.97
427.128	2.96
427.485	2.92
427.842	2.92
428.199	2.92
428.555	2.92
428.912	2.92
429.269	2.92
429.625	2.93
429.982	2.92
430.338	2.9
430.695	2.91
431.051	2.9
431.407	2.9
431.764	2.88
432.12	2.87
432.476	2.88
432.832	2.88
433.189	2.85
433.545	2.84
433.901	2.85
434.257	2.87
434.613	2.84
434.969	2.84
435.325	2.83
435.681	2.82
436.036	2.81
436.392	2.83
436.748	2.83
437.104	2.82
437.459	2.83
437.815	2.85
438.171	2.86
438.526	2.89
438.882	2.91
439.237	2.92
439.593	2.93
439.948	2.91
440.304	2.9
440.659	2.92
441.014	2.93
441.369	2.94
441.725	2.94
442.08	2.97
442.435	2.98
442.79	2.98
443.145	2.99
443.5	3
443.855	2.98
444.21	2.99
444.565	3.01
444.92	3.01
445.275	3
445.629	2.98
445.984	2.95
446.339	2.94
446.693	2.95
447.048	2.92
447.403	2.92
447.757	2.93
448.112	2.93
448.466	2.92
448.82	2.91
449.175	2.9
449.529	2.89
449.883	2.89
450.238	2.9
450.592	2.89
450.946	2.88
451.3	2.89
451.654	2.87
452.008	2.85
452.362	2.84
452.716	2.84
453.07	2.83
453.424	2.85
453.778	2.84
454.132	2.83
454.486	2.85
454.839	2.85
455.193	2.85
455.547	2.85
455.9	2.86
456.254	2.85
456.607	2.86
456.961	2.87
457.314	2.86
457.668	2.86
458.021	2.87
458.375	2.86
458.728	2.84
459.081	2.86
459.434	2.87
459.787	2.88
460.141	2.88
460.494	2.89
460.847	2.87
461.2	2.87
461.553	2.87
461.906	2.88
462.259	2.88
462.611	2.89
462.964	2.9
463.317	2.9
463.67	2.9
464.022	2.91
464.375	2.89
464.728	2.9
465.08	2.89
465.433	2.89
465.785	2.93
466.138	2.94
466.49	2.96
466.843	2.97
467.195	2.97
467.547	2.99
467.899	2.99
468.252	3.02
468.604	3.04
468.956	3.04
469.308	3.04
469.66	3.06
470.012	3.06
470.364	3.07
470.716	3.06
471.068	3.08
471.42	3.1
471.772	3.11
472.123	3.13
472.475	3.14
472.827	3.14
473.178	3.15
473.53	3.14
473.882	3.13
474.233	3.12
474.585	3.13
474.936	3.12
475.288	3.13
475.639	3.13
475.99	3.11
476.342	3.13
476.693	3.13
477.044	3.12
477.395	3.1
477.746	3.07
478.097	3.07
478.448	3.05
478.8	3.04
479.15	3.03
479.501	3.01
479.852	3.01
480.203	3.03
480.554	3.04
480.905	3.03
481.255	3.03
481.606	3.04
481.957	3.03
482.307	3.02
482.658	3.02
483.009	3.01
483.359	3.02
483.709	3.02
484.06	3.01
484.41	3.01
484.761	3.02
485.111	3.03
485.461	3.03
485.811	3.02
486.162	3.03
486.512	3.03
486.862	3.03
487.212	3.03
487.562	3.02
487.912	3.01
488.262	3.01
488.612	3.01
488.961	3.01
489.311	3.01
489.661	3.02
490.011	3.02
490.36	3.01
490.71	3.01
491.06	3.01
491.409	3.02
491.759	3.02
492.108	3.02
492.458	3.01
492.807	3.01
493.157	3.03
493.506	3.02
493.855	3.04
494.204	3.05
494.554	3.05
494.903	3.07
495.252	3.09
495.601	3.11
495.95	3.1
496.299	3.11
496.648	3.14
496.997	3.15
497.346	3.2
497.695	3.23
498.043	3.26
498.392	3.29
498.741	3.3
499.09	3.33
499.438	3.38
499.787	3.43
500.135	3.46
500.484	3.48
500.832	3.51
501.181	3.53
501.529	3.59
501.878	3.66
502.226	3.69
502.574	3.72
502.923	3.77
503.271	3.84
503.619	3.9
503.967	3.94
504.315	4
504.663	4.05
505.011	4.1
505.359	4.14
505.707	4.19
506.055	4.25
506.403	4.32
506.751	4.37
507.098	4.45
507.446	4.54
507.794	4.63
508.141	4.72
508.489	4.82
508.837	4.9
509.184	4.99
509.531	5.09
509.879	5.19
510.226	5.29
510.574	5.4
510.921	5.49
511.268	5.6
511.616	5.7
511.963	5.81
512.31	5.94
512.657	6.08
513.004	6.21
513.351	6.37
513.698	6.53
514.045	6.71
514.392	6.84
514.739	7.02
515.086	7.17
515.432	7.33
515.779	7.5
516.126	7.65
516.473	7.8
516.819	7.95
517.166	8.1
517.512	8.24
517.859	8.39
518.205	8.53
518.552	8.67
518.898	8.83
519.245	8.97
519.591	9.11
519.937	9.27
520.283	9.44
520.629	9.59
520.976	9.75
521.322	9.93
521.668	10.11
522.014	10.29
522.36	10.5
522.706	10.69
523.052	10.91
523.398	11.13
523.743	11.36
524.089	11.6
524.435	11.85
524.781	12.07
525.126	12.27
525.472	12.49
525.817	12.67
526.163	12.83
526.509	13.01
526.854	13.17
527.199	13.33
527.545	13.48
527.89	13.64
528.235	13.79
528.581	13.94
528.926	14.11
529.271	14.26
529.616	14.41
529.961	14.58
530.306	14.73
530.651	14.91
530.996	15.08
531.341	15.28
531.686	15.48
532.031	15.69
532.376	15.9
532.721	16.09
533.065	16.3
533.41	16.51
533.755	16.72
534.099	16.95
534.444	17.16
534.788	17.38
535.133	17.61
535.477	17.82
535.822	18.07
536.166	18.32
536.51	18.59
536.855	18.89
537.199	19.16
537.543	19.49
537.887	19.83
538.231	20.14
538.576	20.45
538.92	20.72
539.264	21
539.608	21.28
539.951	21.54
540.295	21.83
540.639	22.09
540.983	22.33
541.327	22.57
541.671	22.8
542.014	23.01
542.358	23.21
542.701	23.44
543.045	23.64
543.389	23.84
543.732	24.09
544.075	24.31
544.419	24.56
544.762	24.75
545.105	24.97
545.449	25.21
545.792	25.44
546.135	25.71
546.478	25.97
546.821	26.24
547.165	26.55
547.508	26.8
547.851	27.15
548.194	27.39
548.536	27.69
548.879	27.99
549.222	28.28
549.565	28.6
549.908	28.84
550.25	29.15
550.593	29.41
550.936	29.67
551.278	29.96
551.621	30.23
551.963	30.55
552.306	30.83
552.648	31.11
552.991	31.41
553.333	31.7
553.675	31.96
554.017	32.2
554.36	32.45
554.702	32.68
555.044	32.85
555.386	33.11
555.728	33.29
556.07	33.54
556.412	33.83
556.754	34.06
557.096	34.37
557.438	34.54
557.78	34.77
558.121	35.02
558.463	35.23
558.805	35.45
559.147	35.69
559.488	35.88
559.83	36.1
560.171	36.28
560.513	36.46
560.854	36.61
561.196	36.82
561.537	37.02
561.878	37.28
562.22	37.53
562.561	37.73
562.902	37.94
563.243	38.12
563.584	38.24
563.925	38.39
564.266	38.6
564.607	38.84
564.948	38.99
565.289	39.18
565.63	39.35
565.971	39.54
566.312	39.71
566.653	39.88
566.993	39.97
567.334	40.14
567.675	40.34
568.015	40.5
568.356	40.62
568.696	40.77
569.037	40.85
569.377	41.01
569.718	41.19
570.058	41.4
570.398	41.57
570.739	41.75
571.079	41.87
571.419	41.91
571.759	42.07
572.099	42.22
572.439	42.35
572.779	42.46
573.119	42.54
573.459	42.69
573.799	42.89
574.139	43.08
574.479	43.2
574.819	43.28
575.158	43.4
575.498	43.56
575.838	43.61
576.177	43.74
576.517	43.8
576.856	43.92
577.196	43.97
577.535	44.08
577.875	44.18
578.214	44.31
578.553	44.52
578.893	44.6
579.232	44.74
579.571	44.86
579.91	45.02
580.25	45.2
580.589	45.29
580.928	45.35
581.267	45.44
581.606	45.54
581.945	45.67
582.283	45.84
582.622	45.91
582.961	46.06
583.3	46.24
583.639	46.38
583.977	46.49
584.316	46.61
584.654	46.68
584.993	46.81
585.332	46.92
585.67	47.03
586.008	47.14
586.347	47.27
586.685	47.33
587.024	47.42
587.362	47.49
587.7	47.55
588.038	47.63
588.376	47.71
588.715	47.86
589.053	47.9
589.391	47.91
589.729	48.02
590.067	48.1
590.404	48.19
590.742	48.27
591.08	48.3
591.418	48.38
591.756	48.5
592.093	48.57
592.431	48.71
592.769	48.8
593.106	48.91
593.444	48.96
593.781	49.04
594.119	49.06
594.456	49.17
594.793	49.22
595.131	49.26
595.468	49.36
595.805	49.41
596.143	49.48
596.48	49.57
596.817	49.59
597.154	49.66
597.491	49.65
597.828	49.75
598.165	49.79
598.502	49.85
598.839	49.91
599.176	49.97
599.512	49.99
599.849	50.02
600.186	50.04
600.523	50.14
600.859	50.24
601.196	50.34
601.532	50.36
601.869	50.5
602.205	50.56
602.542	50.61
602.878	50.62
603.215	50.66
603.551	50.71
603.887	50.8
604.223	50.89
604.56	50.95
604.896	51.02
605.232	51.08
605.568	51.09
605.904	51.13
606.24	51.18
606.576	51.32
606.912	51.36
607.248	51.43
607.583	51.46
607.919	51.47
608.255	51.5
608.591	51.54
608.926	51.53
609.262	51.63
609.597	51.69
609.933	51.71
610.268	51.75
610.604	51.76
610.939	51.72
611.275	51.73
611.61	51.77
611.945	51.72
612.281	51.78
612.616	51.85
612.951	51.93
613.286	52
613.621	51.92
613.956	52.01
614.291	52.09
614.626	52.08
614.961	52.11
615.296	52.17
615.631	52.13
615.966	52.23
616.3	52.23
616.635	52.18
616.97	52.32
617.304	52.42
617.639	52.53
617.973	52.61
618.308	52.65
618.642	52.72
618.977	52.8
619.311	52.81
619.646	52.91
619.98	52.86
620.314	52.83
620.648	52.87
620.983	52.78
621.317	52.76
621.651	52.81
621.985	52.95
622.319	53.01
622.653	53.16
622.987	53.14
623.321	53.2
623.655	53.21
623.988	53.19
624.322	53.24
624.656	53.31
624.99	53.3
625.323	53.33
625.657	53.32
625.99	53.37
626.324	53.42
626.657	53.32
626.991	53.42
627.324	53.55
627.658	53.56
627.991	53.72
628.324	53.75
628.657	53.78
628.991	53.71
629.324	53.76
629.657	53.74
629.99	53.8
630.323	53.76
630.656	53.87
630.989	53.88
631.322	53.86
631.655	53.9
631.987	54.02
632.32	53.98
632.653	54.01
632.986	54.09
633.318	54.11
633.651	54.18
633.984	54.15
634.316	54.08
634.649	54.2
634.981	54.27
635.313	54.31
635.646	54.38
635.978	54.45
636.31	54.49
636.643	54.48
636.975	54.41
637.307	54.47
637.639	54.39
637.971	54.41
638.303	54.48
638.635	54.47
638.967	54.56
639.299	54.61
639.631	54.68
639.963	54.67
640.295	54.76
640.626	54.84
640.958	54.8
641.29	54.87
641.621	54.75
641.953	54.66
642.285	54.67
642.616	54.63
642.948	54.82
643.279	54.75
643.61	54.75
643.942	54.77
644.273	54.8
644.604	54.92
644.936	55.05
645.267	55.08
645.598	55.08
645.929	54.96
646.26	55.07
646.591	55
646.922	55.02
647.253	54.96
647.584	55
647.915	55.1
648.245	55.11
648.576	55.25
648.907	55.23
649.238	55.21
649.568	55.2
649.899	54.92
650.229	54.95
650.56	55.08
650.89	55.17
651.221	55.23
651.551	55.21
651.882	55.27
652.212	55.28
652.542	55.35
652.872	55.43
653.203	55.41
653.533	55.54
653.863	55.49
654.193	55.42
654.523	55.46
654.853	55.48
655.183	55.47
655.513	55.53
655.843	55.63
656.172	55.77
656.502	55.8
656.832	56.03
657.162	56.09
657.491	56.01
657.821	55.96
658.15	55.95
658.48	56.09
658.809	55.99
659.139	56.04
659.468	56.03
659.798	55.98
660.127	55.96
660.456	55.92
660.785	56
661.115	56.19
661.444	56.21
661.773	56.28
662.102	56.33
662.431	56.24
662.76	56.29
663.089	56.31
663.418	56.39
663.747	56.37
664.076	56.34
664.404	56.56
664.733	56.68
665.062	56.75
665.39	56.71
665.719	56.67
666.048	56.59
666.376	56.46
666.705	56.62
667.033	56.64
667.362	56.69
667.69	56.68
668.018	56.69
668.347	56.66
668.675	56.64
669.003	56.57
669.331	56.57
669.659	56.45
669.987	56.43
670.315	56.46
670.643	56.52
670.971	56.63
671.299	56.54
671.627	56.56
671.955	56.58
672.283	56.48
672.61	56.61
672.938	56.7
673.266	56.86
673.593	56.83
673.921	56.97
674.249	57.07
674.576	57.06
674.904	57.05
675.231	57.11
675.558	57.19
675.886	57.38
676.213	57.38
676.54	57.46
676.867	57.49
677.195	57.4
677.522	57.21
677.849	57.15
678.176	57.14
678.503	57.02
678.83	56.97
679.157	56.88
679.484	56.84
679.81	56.74
680.137	56.75
680.464	56.68
680.791	56.64
681.117	56.62
681.444	56.62
681.771	56.47
682.097	56.44
682.424	56.35
682.75	56.3
683.077	56.38
683.403	56.33
683.729	56.29
684.056	56.39
684.382	56.41
684.708	56.45
685.034	56.43
685.36	56.56
685.686	56.51
686.012	56.66
686.339	56.74
686.664	56.83
686.99	56.83
687.316	56.78
687.642	56.75
687.968	56.61
688.294	56.68
688.619	56.82
688.945	56.76
689.271	56.79
689.596	56.73
689.922	56.7
690.247	56.81
690.573	56.8
690.898	56.86
691.224	57
691.549	57
691.874	57.19
692.2	57.12
692.525	57.19
692.85	57.23
693.175	57.17
693.5	57.11
693.825	57.12
694.15	57.34
694.475	57.27
694.8	57.41
695.125	57.28
695.45	57.13
695.775	57.23
696.099	57.32
696.424	57.41
696.749	57.48
697.073	57.41
697.398	57.34
697.723	57.24
698.047	57.28
698.372	57.23
698.696	57.13
699.02	57.24
699.345	57.18
699.669	57.26
699.993	57.29
700.318	57.42
700.642	57.45
700.966	57.42
701.29	57.45
701.614	57.65
701.938	57.75
702.262	57.98
702.586	57.92
702.91	57.95
703.234	57.9
703.557	57.85
703.881	58.02
704.205	58.1
704.529	58.12
704.852	58.16
705.176	58.27
705.499	58.33
705.823	58.17
706.146	58.37
706.47	58.33
706.793	58.2
707.117	58.13
707.44	57.97
707.763	58.05
708.086	58.24
708.409	57.98
708.733	57.97
709.056	58.04
709.379	58.18
709.702	58
710.025	58.1
710.348	58.12
710.671	57.98
710.993	57.92
711.316	58
711.639	58.03
711.962	58.07
712.284	58.04
712.607	58.09
712.93	57.95
713.252	57.95
713.575	58.14
713.897	58.15
714.22	58.29
714.542	58.23
714.864	58.05
715.187	58.11
715.509	58.04
715.831	58.07
716.153	58.04
716.475	58.09
716.798	57.95
717.12	57.96
717.442	58.03
717.764	58.17
718.085	58.24
718.407	58.3
718.729	58.22
719.051	58.1
719.373	58.17
719.695	57.99
720.016	58.12
720.338	58.11
720.659	58.28
720.981	58.09
721.302	58.08
721.624	58.19
721.945	58.17
722.267	58.27
722.588	58.04
722.909	58.14
723.231	58.24
723.552	58.43
723.873	58.52
724.194	58.45
724.515	58.31
724.836	58.43
725.157	58.3
725.478	58.27
725.799	58.39
726.12	58.2
726.441	58.47
726.762	58.31
727.083	58.29
727.403	58.16
727.724	58.3
728.045	58.27
728.365	58.42
728.686	58.21
729.006	58.11
729.327	58.15
729.647	57.96
729.967	57.99
730.288	57.97
730.608	57.86
730.928	57.85
731.249	58.01
731.569	57.96
731.889	57.93
732.209	58.07
732.529	58.03
732.849	58.16
733.169	58.11
733.489	58.2
733.809	58.3
734.129	58.21
734.448	58.33
734.768	58.47
735.088	58.53
735.408	58.68
735.727	58.88
736.047	59.11
736.366	59.46
736.686	59.41
737.005	59.42
737.325	59.47
737.644	59.66
737.963	59.49
738.283	59.24
738.602	59.41
738.921	59.34
739.24	59.51
739.56	59.65
739.879	59.76
740.198	59.6
740.517	59.64
740.836	59.71
741.155	59.83
741.473	59.67
741.792	59.59
742.111	59.68
742.43	59.6
742.748	59.21
743.067	58.98
743.386	58.97
743.704	58.96
744.023	59.13
744.341	59.04
744.66	58.98
744.978	59.13
745.297	59.06
745.615	59.21
745.933	59.06
746.252	58.92
746.57	59.14
746.888	59.15
747.206	59.11
747.524	59.14
747.842	58.67
748.16	58.61
748.478	58.47
748.796	58.41
749.114	58.5
749.432	58.62
749.749	58.45
750.067	58.34
750.385	58.35
750.703	58.19
751.02	58.05
751.338	58.27
751.655	58.22
751.973	57.92
752.29	57.89
752.608	57.99
752.925	58.02
753.242	57.76
753.56	58
753.877	58.09
754.194	57.97
754.511	58.33
754.828	58.69
755.145	58.69
755.462	58.62
755.779	58.83
756.096	59.15
756.413	59.5
756.73	59.53
757.047	59.49
757.364	59.34
757.68	59.23
757.997	59.43
758.314	59.59
758.63	59.73
758.947	59.82
759.264	60.08
759.58	59.91
759.896	59.97
760.213	60
760.529	59.98
760.846	59.93
761.162	60.2
761.478	59.66
761.794	59.91
762.11	59.87
762.426	59.33
762.743	59.25
763.059	58.98
763.375	59.06
763.69	59.2
764.006	59.04
764.322	59.25
764.638	59.05
764.954	58.89
765.27	59.14
765.585	59.1
765.901	58.91
766.216	59
766.532	59.16
766.848	59.06
767.163	58.9
767.478	58.86
767.794	58.46
768.109	59.11
768.424	58.9
768.74	59.07
769.055	59.45
769.37	58.99
769.685	58.92
770	58.42
770.315	58.3
770.63	58.37
770.945	58.54
771.26	58.35
771.575	58.39
771.89	57.82
772.205	57.73
772.52	57.28
772.834	57.48
773.149	57.33
773.464	57.39
773.778	57.17
774.093	57.59
774.407	57.52
774.722	57.23
775.036	56.87
775.351	56.95
775.665	57.01
775.979	57.57
776.293	58.1
776.608	58.67
776.922	58.95
777.236	59.08
777.55	58.88
777.864	59.01
778.178	59.08
778.492	59.25
778.806	58.98
779.12	59.15
779.434	58.92
779.747	59.1
780.061	58.96
780.375	59.5
780.689	58.92
781.002	58.79
781.316	58.67
781.629	59.1
781.943	58.62
782.256	58.42
782.57	58.99
782.883	58.33
783.196	58.65
783.51	58.25
783.823	58.52
784.136	58.27
784.449	58.36
784.762	58.45
785.075	58.49
785.388	58.53
785.701	58.66
786.014	58.69
786.327	58.6
786.64	59.1
786.953	58.86
787.266	59.43
787.578	59.78
787.891	59.92
788.204	60.09
788.516	60.25
788.829	60.32
789.141	59.8
789.454	60.24
789.766	59.72
790.079	59.76
790.391	59.99
790.703	60.5
791.016	60.63
791.328	60.7
791.64	60.81
791.952	60.98
792.264	60.74
792.576	60.73
792.888	60.62
793.2	59.63
793.512	59.9
793.824	59.62
794.136	59.24
794.448	59.32
794.76	59.14
795.071	59.58
795.383	59.41
795.695	58.98
796.006	58.69
796.318	59.35
796.629	59.44
796.941	59.33
797.252	58.62
797.564	59.26
797.875	59.12
798.186	59.47
798.497	59.37
798.809	59.63
799.12	59.53
799.431	59.53
799.742	60.52
800.053	60.43
800.364	60.91
800.675	60.89
800.986	60.53
801.297	60.27
801.608	59.96
801.918	60.1
802.229	60.44
802.54	60.94
802.851	60.56
803.161	60.24
803.472	60.06
803.782	60.67
804.093	59.85
804.403	60.31
804.714	60.05
805.024	60.51
805.334	61.2
805.645	61.32
805.955	61.34
806.265	61.3
806.575	60.82
806.885	60.24
807.195	60.96
807.505	61.14
807.815	61.95
808.125	62.49
808.435	62.03
808.745	61.72
809.055	61.92
809.365	61.37
809.674	62.05
809.984	62.19
810.294	61.86
810.603	61.87
810.913	60.98
811.222	61.03
811.532	60.92
811.841	60.3
812.151	59.75
812.46	59.6
812.769	58.24
813.079	59.02
813.388	59.21
813.697	58.57
814.006	58.11
814.315	57.45
814.624	56.88
814.933	57.36
815.242	57.63
815.551	57.07
815.86	57.8
816.169	57
816.478	56.57
816.786	57.39
817.095	57.47
817.404	58.15
817.712	58.47
818.021	58.34
818.33	58.56
818.638	59.26
818.947	59.4
819.255	59.31
819.563	58.89
819.872	59.01
820.18	59.02
820.488	59.04
820.796	59.07
821.105	59.12
821.413	58.98
821.721	59
822.029	59.01
822.337	59.02
822.645	59.22
822.953	59.29
823.26	59.31
823.568	59.44
823.876	59.6
824.184	59.51
824.491	59.32
824.799	59.54
825.107	59.64
825.414	59.57
825.722	59.68
826.029	59.72
826.337	59.73
826.644	59.89
826.951	60.07
827.259	60.11
827.566	60.2
827.873	60.43
828.18	60.65
828.488	60.86
828.795	60.89
829.102	60.69
829.409	60.86
829.716	60.74
830.023	60.46
830.329	59.83
830.636	59.85
830.943	60.07
831.25	59.48
831.557	58.9
831.863	59.03
832.17	59.34
832.476	59.31
832.783	59.2
833.089	59.55
833.396	59.16
833.702	58.93
834.009	58.72
834.315	58.74
834.621	58.29
834.928	57.9
835.234	58.16
835.54	58.71
835.846	58.69
836.152	58.33
836.458	58.9
836.764	59.39
837.07	59.07
837.376	59.19
837.682	59.85
837.988	60.62
838.293	60.37
838.599	60.32
838.905	60.54
839.211	61.3
839.516	60.3
839.822	60.93
840.127	61.46
840.433	61.45
840.738	60.95
841.044	61.46
841.349	61.67
841.654	60.92
841.959	60.42
842.265	59.99
842.57	60.24
842.875	60.24
843.18	60.63
843.485	61.69
843.79	62.18
844.095	60.66
844.4	59.71
844.705	60.15
845.01	60.31
845.315	59.9
845.619	59.98
845.924	60.49
846.229	60.76
846.533	60.68
846.838	61.18
847.142	61.79
847.447	62.12
847.751	61.84
848.056	62.43
848.36	62.85
848.664	61.95
848.969	62.07
849.273	59.67
849.577	56.73
849.881	56.61
850.185	55.39
850.489	57.09
850.794	59.92
851.097	59.73
851.401	59.25
851.705	61.74
852.009	60.61
852.313	59.87
852.617	58.88
852.92	59.27
853.224	59.75
853.528	60.5
853.831	61.01
854.135	61.07
854.438	60.21
854.742	60.72
855.045	61.59
855.349	61.66
855.652	61.77
855.955	62.77
856.259	62.5
856.562	63.26
856.865	62.22
857.168	58.95
857.471	57.37
857.774	59.43
858.077	57.97
858.38	58.41
858.683	59.21
858.986	59.82
859.289	61.32
859.592	60.01
859.894	60.11
860.197	60.64
860.5	61.73
860.802	63.05
861.105	61.99
861.407	63.89
861.71	63.25
862.012	64.85
862.315	65.85
862.617	66.09
862.919	66.94
863.222	67.94
863.524	68.95
863.826	70.38
864.128	68.68
864.43	67.87
864.732	66.78
865.034	67.59
865.336	66.67
865.638	65.87
865.94	65.95
866.242	66.27
866.544	66.18
866.846	66.06
867.147	66.64
867.449	67.68
867.751	66.11
868.052	67.18
868.354	67.26
868.655	66.82
868.957	68.04
869.258	65.6
869.56	63.92
869.861	64.51
870.162	66.19
870.463	66.9
870.765	64.79
871.066	66.11
871.367	63.91
871.668	63.99
871.969	62.89
872.27	64.63
872.571	64.24
872.872	59
873.173	57.77
873.473	56.62
873.774	57.13
874.075	57.92
874.376	55.08
874.676	54.69
874.977	56.8
875.277	56.05
875.578	59.04
875.878	59.58
876.179	58.81
876.479	56.94
876.78	55.6
877.08	57.91
877.38	56.01
877.68	57.64
877.981	58.6
878.281	58.57
878.581	56.45
