Data from BU26939_Reflection_00004.txt Node
Date: Tue Nov 19 10:56:39 EST 2019
User: vgr7
Spectrometer: USB2G7710
Scans to average: 3
Trigger mode: 4
Integration Time (sec): 2.000000E-2
Electric dark correction enabled: true
Boxcar width: 10
XAxis mode: Wavelengths
Number of Pixels in Spectrum: 2048
>>>>>Begin Spectral Data<<<<<
177.721	-20.89
178.105	-15.25
178.488	-12.22
178.871	-10.61
179.254	59.26
179.636	65.17
180.019	-23.66
180.402	229.41
180.785	85.53
181.168	132.91
181.55	785.19
181.933	-117.17
182.316	187.57
182.698	-461.73
183.081	726.98
183.463	519.54
183.846	220.16
184.228	92.88
184.611	5.64
184.993	1.83
185.376	13.72
185.758	60.99
186.14	49.77
186.522	75.33
186.904	91.28
187.287	91.49
187.669	97.72
188.051	58.43
188.433	48.12
188.815	35.4
189.197	11.2
189.579	11.58
189.961	21.63
190.342	13.12
190.724	-5.35
191.106	-14.8
191.488	-13.7
191.869	-10.28
192.251	4.33
192.633	7.23
193.014	-0.89
193.396	-3.03
193.777	-1.79
194.159	3
194.54	3.26
194.922	2.7
195.303	2.88
195.684	4.74
196.065	13.26
196.447	26.08
196.828	11.72
197.209	6.42
197.59	9.33
197.971	-2.28
198.352	4.03
198.733	3.2
199.114	-1.13
199.495	-14.57
199.876	-10.36
200.257	-28.84
200.638	-22.29
201.018	-22.12
201.399	-9.91
201.78	-20.55
202.16	-33.98
202.541	-40.85
202.922	-60.2
203.302	-55.06
203.683	-54.14
204.063	-50.77
204.444	-55.12
204.824	-45.7
205.204	-27.33
205.585	-21.93
205.965	-24.46
206.345	-22.4
206.725	-18.09
207.106	-17.72
207.486	1.8
207.866	5.18
208.246	29.97
208.626	15.06
209.006	11.93
209.386	-15.15
209.766	-14.9
210.145	-5.67
210.525	-9.02
210.905	8.42
211.285	2.81
211.664	0.55
212.044	1.44
212.424	11.64
212.803	0.06
213.183	-0.3
213.562	7.07
213.942	15.97
214.321	12.5
214.701	6.2
215.08	7.16
215.459	8.4
215.838	-7.39
216.218	-30.6
216.597	-23.45
216.976	-19.17
217.355	-14.36
217.734	-15.89
218.113	-18.19
218.492	-9.2
218.871	-5.42
219.25	-1.67
219.629	-28.95
220.008	-53.43
220.387	-70.41
220.766	-28.75
221.144	-43.28
221.523	-63.85
221.902	-69.76
222.28	-51.45
222.659	-27.15
223.037	-22.49
223.416	-22.22
223.794	-8.65
224.173	-5.54
224.551	-0.38
224.929	-3.78
225.308	2.05
225.686	-0.49
226.064	1.89
226.442	3.29
226.821	-5.62
227.199	-4.86
227.577	0.79
227.955	3.12
228.333	6.27
228.711	4.18
229.089	6.69
229.467	9.67
229.845	7.7
230.222	6.22
230.6	3.35
230.978	1.59
231.356	1.4
231.733	-0.59
232.111	0.38
232.488	-0.64
232.866	2.28
233.243	2.65
233.621	4.3
233.998	3.89
234.376	2.57
234.753	4.35
235.13	3.42
235.508	1.65
235.885	2.32
236.262	0.48
236.639	1.49
237.016	0.04
237.393	1.15
237.77	1.98
238.147	1.88
238.524	1.94
238.901	2.27
239.278	2.04
239.655	2.42
240.032	2.76
240.409	2.89
240.785	2.33
241.162	2.35
241.539	2.71
241.915	3.03
242.292	3.39
242.668	3.18
243.045	3.49
243.421	4.09
243.798	4.26
244.174	4.52
244.551	4.58
244.927	4.88
245.303	4.71
245.679	4.81
246.056	4.96
246.432	5.26
246.808	5.29
247.184	5.24
247.56	5.09
247.936	5.11
248.312	5.2
248.688	5.24
249.064	5.34
249.44	5.13
249.815	4.74
250.191	4.77
250.567	4.69
250.943	4.67
251.318	4.58
251.694	4.42
252.069	4.47
252.445	4.44
252.82	4.42
253.196	4.32
253.571	4.37
253.947	4.27
254.322	4.13
254.697	4.02
255.073	4.17
255.448	4.47
255.823	4.25
256.198	3.91
256.573	4.06
256.948	3.92
257.323	3.77
257.698	4.08
258.073	4.05
258.448	4.27
258.823	4.28
259.198	4.43
259.573	4.37
259.948	4.41
260.322	4.32
260.697	4.3
261.072	4.32
261.446	4.21
261.821	4.03
262.195	3.97
262.57	4.09
262.944	4.08
263.319	3.97
263.693	3.99
264.067	4.28
264.442	4.05
264.816	4
265.19	4.28
265.564	4.31
265.938	4.25
266.313	4.15
266.687	4.06
267.061	3.92
267.435	4
267.809	3.83
268.183	3.82
268.556	3.89
268.93	3.97
269.304	3.98
269.678	4.19
270.051	4.3
270.425	4.21
270.799	4.25
271.172	4.23
271.546	4.21
271.919	4.2
272.293	4.42
272.666	4.33
273.04	4.27
273.413	4.18
273.787	4.26
274.16	4.23
274.533	4.28
274.906	4.28
275.279	4.26
275.653	4.29
276.026	4.26
276.399	4.24
276.772	4.15
277.145	4.17
277.518	4.03
277.891	4
278.263	4.16
278.636	4.23
279.009	4.23
279.382	4.29
279.755	4.19
280.127	3.97
280.5	4.12
280.872	4.13
281.245	4.2
281.617	4.07
281.99	4.11
282.362	4.03
282.735	4.05
283.107	3.92
283.479	3.99
283.852	4.07
284.224	4.02
284.596	3.9
284.968	3.99
285.34	4.11
285.713	4.09
286.085	3.96
286.457	4.06
286.829	4.15
287.201	4.08
287.572	4.06
287.944	4.21
288.316	4.24
288.688	4.21
289.06	4.25
289.431	4.4
289.803	4.42
290.175	4.42
290.546	4.32
290.918	4.45
291.289	4.38
291.661	4.46
292.032	4.49
292.403	4.59
292.775	4.45
293.146	4.39
293.517	4.39
293.889	4.38
294.26	4.27
294.631	4.31
295.002	4.4
295.373	4.44
295.744	4.43
296.115	4.54
296.486	4.6
296.857	4.68
297.228	4.58
297.599	4.65
297.97	4.71
298.34	4.73
298.711	4.81
299.082	4.68
299.452	4.59
299.823	4.6
300.194	4.59
300.564	4.63
300.935	4.75
301.305	4.64
301.676	4.68
302.046	4.56
302.416	4.57
302.787	4.65
303.157	4.7
303.527	4.69
303.897	4.54
304.267	4.41
304.637	4.14
305.008	4.16
305.378	4.18
305.748	4.25
306.117	4.36
306.487	4.28
306.857	4.57
307.227	4.75
307.597	4.66
307.967	4.75
308.336	4.76
308.706	4.61
309.076	4.87
309.445	4.95
309.815	4.92
310.184	4.82
310.554	4.72
310.923	4.58
311.293	4.63
311.662	4.58
312.031	4.67
312.401	4.81
312.77	4.94
313.139	4.97
313.508	4.93
313.877	4.92
314.246	4.79
314.616	4.68
314.985	4.68
315.353	4.74
315.722	4.71
316.091	4.72
316.46	4.75
316.829	4.62
317.198	4.55
317.567	4.75
317.935	4.77
318.304	4.84
318.672	4.92
319.041	4.98
319.41	5
319.778	4.98
320.147	4.84
320.515	4.68
320.883	4.53
321.252	4.56
321.62	4.38
321.988	4.56
322.357	4.58
322.725	4.44
323.093	4.3
323.461	4.31
323.829	4.32
324.197	4.46
324.565	4.39
324.933	4.41
325.301	4.36
325.669	4.37
326.037	4.37
326.405	4.46
326.772	4.33
327.14	4.28
327.508	4.14
327.875	4.15
328.243	4.15
328.61	4.21
328.978	4.16
329.346	4.36
329.713	4.44
330.08	4.5
330.448	4.55
330.815	4.61
331.182	4.73
331.55	4.71
331.917	4.76
332.284	4.88
332.651	4.83
333.018	4.81
333.385	4.85
333.752	4.89
334.119	4.75
334.486	4.75
334.853	4.79
335.22	4.9
335.587	5.06
335.954	5.12
336.32	5.17
336.687	5.25
337.054	5.28
337.42	5.18
337.787	5.02
338.153	5.07
338.52	5.25
338.886	5.22
339.253	5.26
339.619	5.21
339.986	5.12
340.352	5.16
340.718	5.23
341.084	5.2
341.451	5.18
341.817	5.27
342.183	5.16
342.549	5.23
342.915	5.21
343.281	5.1
343.647	5.14
344.013	5.12
344.379	5
344.745	4.9
345.11	4.94
345.476	5.08
345.842	5.05
346.208	5.02
346.573	4.92
346.939	4.9
347.304	4.95
347.67	5.07
348.035	5.07
348.401	5.07
348.766	5.09
349.132	5
349.497	5.02
349.862	5.13
350.228	5.05
350.593	5.2
350.958	5.26
351.323	5.17
351.688	5.12
352.053	5.19
352.418	5.15
352.783	5.17
353.148	5.16
353.513	5.17
353.878	5.1
354.243	5.07
354.608	5.1
354.972	5
355.337	4.9
355.702	4.84
356.066	4.8
356.431	4.75
356.795	4.82
357.16	4.79
357.524	4.81
357.889	4.87
358.253	4.78
358.618	4.82
358.982	4.87
359.346	4.93
359.71	4.92
360.075	4.97
360.439	4.98
360.803	4.94
361.167	4.91
361.531	4.98
361.895	5.07
362.259	5.08
362.623	5.11
362.987	5.1
363.351	5.15
363.714	5.17
364.078	5.23
364.442	5.27
364.806	5.28
365.169	5.31
365.533	5.31
365.896	5.31
366.26	5.25
366.623	5.18
366.987	5.14
367.35	5.19
367.714	5.13
368.077	5.12
368.44	5.16
368.803	5.15
369.167	5.08
369.53	5.1
369.893	5.15
370.256	5.13
370.619	5.16
370.982	5.13
371.345	5.13
371.708	5.09
372.071	5.03
372.434	4.99
372.797	4.98
373.159	4.96
373.522	5.01
373.885	5.03
374.247	5.07
374.61	5.15
374.973	5.15
375.335	5.2
375.698	5.22
376.06	5.23
376.423	5.24
376.785	5.22
377.147	5.16
377.51	5.11
377.872	5.12
378.234	5.11
378.596	5.16
378.958	5.18
379.321	5.21
379.683	5.2
380.045	5.2
380.407	5.23
380.769	5.27
381.13	5.22
381.492	5.23
381.854	5.24
382.216	5.2
382.578	5.19
382.939	5.2
383.301	5.14
383.663	5.16
384.024	5.17
384.386	5.17
384.747	5.17
385.109	5.14
385.47	5.19
385.832	5.17
386.193	5.16
386.554	5.11
386.916	5.12
387.277	5.13
387.638	5.16
387.999	5.11
388.36	5.11
388.721	5.12
389.082	5.17
389.443	5.18
389.804	5.19
390.165	5.21
390.526	5.21
390.887	5.24
391.248	5.23
391.609	5.25
391.969	5.28
392.33	5.3
392.691	5.34
393.051	5.29
393.412	5.32
393.772	5.29
394.133	5.33
394.493	5.32
394.854	5.32
395.214	5.33
395.574	5.33
395.935	5.3
396.295	5.32
396.655	5.26
397.015	5.29
397.376	5.3
397.736	5.24
398.096	5.22
398.456	5.21
398.816	5.18
399.176	5.13
399.535	5.09
399.895	5.06
400.255	5.01
400.615	5.02
400.975	5.02
401.334	5.03
401.694	5.02
402.054	5.01
402.413	4.99
402.773	5
403.132	4.99
403.492	5.03
403.851	5
404.211	4.98
404.57	4.96
404.929	4.92
405.288	4.94
405.648	4.96
406.007	4.96
406.366	4.96
406.725	4.99
407.084	5
407.443	5
407.802	5.03
408.161	5.07
408.52	5.05
408.879	5.03
409.238	5.02
409.596	5.04
409.955	5.03
410.314	5
410.673	5.05
411.031	5.02
411.39	5.02
411.748	5.05
412.107	5.04
412.465	5.05
412.824	5.05
413.182	5.02
413.54	5.02
413.899	5.05
414.257	5.04
414.615	5.02
414.974	5.05
415.332	5.03
415.69	5
416.048	5
416.406	5
416.764	5.01
417.122	4.99
417.48	4.99
417.838	5.01
418.195	4.99
418.553	4.98
418.911	4.98
419.269	4.97
419.626	4.99
419.984	4.96
420.342	4.96
420.699	4.97
421.057	4.98
421.414	4.96
421.772	4.96
422.129	4.97
422.486	4.95
422.844	4.94
423.201	4.94
423.558	4.95
423.915	4.96
424.273	4.96
424.63	4.95
424.987	4.96
425.344	4.94
425.701	4.94
426.058	4.94
426.415	4.94
426.772	4.93
427.128	4.91
427.485	4.92
427.842	4.92
428.199	4.93
428.555	4.92
428.912	4.91
429.269	4.92
429.625	4.92
429.982	4.94
430.338	4.95
430.695	4.94
431.051	4.91
431.407	4.92
431.764	4.9
432.12	4.9
432.476	4.91
432.832	4.92
433.189	4.91
433.545	4.9
433.901	4.9
434.257	4.89
434.613	4.9
434.969	4.9
435.325	4.9
435.681	4.87
436.036	4.86
436.392	4.86
436.748	4.87
437.104	4.87
437.459	4.85
437.815	4.86
438.171	4.87
438.526	4.89
438.882	4.89
439.237	4.9
439.593	4.93
439.948	4.9
440.304	4.9
440.659	4.93
441.014	4.94
441.369	4.95
441.725	4.97
442.08	4.97
442.435	4.97
442.79	4.96
443.145	4.96
443.5	4.98
443.855	4.99
444.21	4.98
444.565	4.99
444.92	4.99
445.275	4.98
445.629	4.97
445.984	4.96
446.339	4.97
446.693	4.97
447.048	4.96
447.403	4.96
447.757	4.96
448.112	4.93
448.466	4.93
448.82	4.92
449.175	4.91
449.529	4.89
449.883	4.87
450.238	4.87
450.592	4.87
450.946	4.86
451.3	4.87
451.654	4.87
452.008	4.88
452.362	4.87
452.716	4.87
453.07	4.88
453.424	4.87
453.778	4.87
454.132	4.86
454.486	4.85
454.839	4.84
455.193	4.84
455.547	4.83
455.9	4.84
456.254	4.84
456.607	4.86
456.961	4.87
457.314	4.89
457.668	4.87
458.021	4.88
458.375	4.89
458.728	4.87
459.081	4.86
459.434	4.85
459.787	4.85
460.141	4.86
460.494	4.86
460.847	4.87
461.2	4.85
461.553	4.87
461.906	4.86
462.259	4.87
462.611	4.88
462.964	4.89
463.317	4.89
463.67	4.9
464.022	4.88
464.375	4.89
464.728	4.88
465.08	4.9
465.433	4.91
465.785	4.91
466.138	4.92
466.49	4.95
466.843	4.94
467.195	4.96
467.547	4.97
467.899	5
468.252	5.02
468.604	5.03
468.956	5.03
469.308	5.04
469.66	5.06
470.012	5.07
470.364	5.08
470.716	5.09
471.068	5.09
471.42	5.11
471.772	5.13
472.123	5.15
472.475	5.17
472.827	5.17
473.178	5.19
473.53	5.18
473.882	5.17
474.233	5.18
474.585	5.21
474.936	5.21
475.288	5.2
475.639	5.18
475.99	5.17
476.342	5.19
476.693	5.2
477.044	5.19
477.395	5.17
477.746	5.16
478.097	5.16
478.448	5.17
478.8	5.18
479.15	5.17
479.501	5.16
479.852	5.17
480.203	5.17
480.554	5.17
480.905	5.18
481.255	5.19
481.606	5.2
481.957	5.2
482.307	5.2
482.658	5.19
483.009	5.2
483.359	5.21
483.709	5.21
484.06	5.21
484.41	5.22
484.761	5.23
485.111	5.23
485.461	5.23
485.811	5.24
486.162	5.23
486.512	5.23
486.862	5.24
487.212	5.25
487.562	5.25
487.912	5.24
488.262	5.24
488.612	5.24
488.961	5.24
489.311	5.23
489.661	5.23
490.011	5.23
490.36	5.22
490.71	5.21
491.06	5.2
491.409	5.19
491.759	5.19
492.108	5.18
492.458	5.18
492.807	5.2
493.157	5.2
493.506	5.21
493.855	5.21
494.204	5.21
494.554	5.2
494.903	5.21
495.252	5.24
495.601	5.24
495.95	5.25
496.299	5.26
496.648	5.26
496.997	5.26
497.346	5.3
497.695	5.32
498.043	5.35
498.392	5.38
498.741	5.41
499.09	5.45
499.438	5.49
499.787	5.52
500.135	5.52
500.484	5.54
500.832	5.55
501.181	5.56
501.529	5.57
501.878	5.6
502.226	5.62
502.574	5.64
502.923	5.66
503.271	5.69
503.619	5.72
503.967	5.72
504.315	5.75
504.663	5.76
505.011	5.81
505.359	5.82
505.707	5.82
506.055	5.85
506.403	5.85
506.751	5.84
507.098	5.86
507.446	5.88
507.794	5.91
508.141	5.92
508.489	5.93
508.837	5.97
509.184	5.99
509.531	5.99
509.879	5.97
510.226	6
510.574	6
510.921	6.01
511.268	6.07
511.616	6.11
511.963	6.13
512.31	6.11
512.657	6.11
513.004	6.12
513.351	6.11
513.698	6.14
514.045	6.16
514.392	6.17
514.739	6.17
515.086	6.16
515.432	6.17
515.779	6.21
516.126	6.23
516.473	6.23
516.819	6.26
517.166	6.29
517.512	6.31
517.859	6.32
518.205	6.31
518.552	6.29
518.898	6.28
519.245	6.3
519.591	6.32
519.937	6.34
520.283	6.36
520.629	6.37
520.976	6.39
521.322	6.4
521.668	6.4
522.014	6.41
522.36	6.42
522.706	6.43
523.052	6.43
523.398	6.45
523.743	6.48
524.089	6.53
524.435	6.54
524.781	6.56
525.126	6.58
525.472	6.6
525.817	6.61
526.163	6.63
526.509	6.65
526.854	6.67
527.199	6.69
527.545	6.71
527.89	6.72
528.235	6.73
528.581	6.73
528.926	6.74
529.271	6.74
529.616	6.76
529.961	6.76
530.306	6.77
530.651	6.76
530.996	6.77
531.341	6.76
531.686	6.76
532.031	6.77
532.376	6.78
532.721	6.78
533.065	6.8
533.41	6.79
533.755	6.78
534.099	6.77
534.444	6.76
534.788	6.75
535.133	6.76
535.477	6.75
535.822	6.75
536.166	6.78
536.51	6.79
536.855	6.8
537.199	6.82
537.543	6.83
537.887	6.82
538.231	6.82
538.576	6.82
538.92	6.84
539.264	6.82
539.608	6.83
539.951	6.84
540.295	6.85
540.639	6.86
540.983	6.88
541.327	6.89
541.671	6.9
542.014	6.9
542.358	6.91
542.701	6.9
543.045	6.93
543.389	6.92
543.732	6.93
544.075	6.92
544.419	6.91
544.762	6.92
545.105	6.95
545.449	6.95
545.792	6.96
546.135	6.95
546.478	6.96
546.821	6.97
547.165	6.98
547.508	6.97
547.851	6.97
548.194	6.99
548.536	6.97
548.879	6.96
549.222	6.97
549.565	6.96
549.908	6.97
550.25	6.98
550.593	6.99
550.936	6.98
551.278	7
551.621	7.03
551.963	7.03
552.306	7.03
552.648	7.04
552.991	7
553.333	7.02
553.675	7.04
554.017	7.02
554.36	7.02
554.702	7.02
555.044	7.01
555.386	7
555.728	7.01
556.07	7.03
556.412	7.02
556.754	7.02
557.096	6.99
557.438	6.95
557.78	6.97
558.121	6.97
558.463	6.97
558.805	6.98
559.147	6.98
559.488	6.99
559.83	7
560.171	7.02
560.513	7.03
560.854	7.04
561.196	7.02
561.537	7.03
561.878	7.07
562.22	7.05
562.561	7.06
562.902	7.08
563.243	7.1
563.584	7.11
563.925	7.14
564.266	7.16
564.607	7.19
564.948	7.2
565.289	7.22
565.63	7.2
565.971	7.18
566.312	7.16
566.653	7.14
566.993	7.11
567.334	7.12
567.675	7.12
568.015	7.06
568.356	7.07
568.696	7.07
569.037	7.02
569.377	7.07
569.718	7.06
570.058	7.06
570.398	7.05
570.739	7.06
571.079	7.05
571.419	7.05
571.759	7.05
572.099	7.02
572.439	7
572.779	7.03
573.119	7.04
573.459	7.06
573.799	7.09
574.139	7.13
574.479	7.12
574.819	7.14
575.158	7.2
575.498	7.22
575.838	7.25
576.177	7.26
576.517	7.24
576.856	7.23
577.196	7.24
577.535	7.26
577.875	7.23
578.214	7.23
578.553	7.24
578.893	7.28
579.232	7.27
579.571	7.32
579.91	7.31
580.25	7.31
580.589	7.31
580.928	7.31
581.267	7.29
581.606	7.31
581.945	7.27
582.283	7.25
582.622	7.2
582.961	7.17
583.3	7.22
583.639	7.23
583.977	7.25
584.316	7.23
584.654	7.23
584.993	7.23
585.332	7.22
585.67	7.25
586.008	7.24
586.347	7.26
586.685	7.24
587.024	7.24
587.362	7.24
587.7	7.23
588.038	7.23
588.376	7.23
588.715	7.25
589.053	7.27
589.391	7.3
589.729	7.34
590.067	7.39
590.404	7.41
590.742	7.39
591.08	7.38
591.418	7.4
591.756	7.43
592.093	7.48
592.431	7.54
592.769	7.53
593.106	7.52
593.444	7.57
593.781	7.55
594.119	7.55
594.456	7.57
594.793	7.58
595.131	7.61
595.468	7.63
595.805	7.65
596.143	7.67
596.48	7.7
596.817	7.74
597.154	7.71
597.491	7.68
597.828	7.69
598.165	7.67
598.502	7.66
598.839	7.64
599.176	7.63
599.512	7.62
599.849	7.64
600.186	7.66
600.523	7.67
600.859	7.71
601.196	7.71
601.532	7.67
601.869	7.69
602.205	7.65
602.542	7.63
602.878	7.61
603.215	7.59
603.551	7.56
603.887	7.53
604.223	7.47
604.56	7.49
604.896	7.52
605.232	7.54
605.568	7.56
605.904	7.52
606.24	7.54
606.576	7.56
606.912	7.56
607.248	7.55
607.583	7.51
607.919	7.5
608.255	7.52
608.591	7.56
608.926	7.53
609.262	7.55
609.597	7.58
609.933	7.58
610.268	7.59
610.604	7.56
610.939	7.53
611.275	7.6
611.61	7.61
611.945	7.57
612.281	7.56
612.616	7.56
612.951	7.6
613.286	7.56
613.621	7.57
613.956	7.56
614.291	7.57
614.626	7.53
614.961	7.62
615.296	7.57
615.631	7.56
615.966	7.55
616.3	7.61
616.635	7.61
616.97	7.6
617.304	7.6
617.639	7.71
617.973	7.76
618.308	7.75
618.642	7.75
618.977	7.77
619.311	7.8
619.646	7.79
619.98	7.82
620.314	7.81
620.648	7.77
620.983	7.75
621.317	7.8
621.651	7.8
621.985	7.74
622.319	7.75
622.653	7.8
622.987	7.81
623.321	7.79
623.655	7.76
623.988	7.78
624.322	7.85
624.656	7.78
624.99	7.77
625.323	7.76
625.657	7.78
625.99	7.75
626.324	7.76
626.657	7.73
626.991	7.74
627.324	7.73
627.658	7.72
627.991	7.73
628.324	7.7
628.657	7.75
628.991	7.77
629.324	7.8
629.657	7.75
629.99	7.81
630.323	7.82
630.656	7.86
630.989	7.85
631.322	7.79
631.655	7.84
631.987	7.89
632.32	7.93
632.653	7.91
632.986	7.94
633.318	7.95
633.651	7.99
633.984	7.99
634.316	8.03
634.649	8.07
634.981	8.09
635.313	8.08
635.646	8.13
635.978	8.17
636.31	8.14
636.643	8.2
636.975	8.16
637.307	8.11
637.639	8.14
637.971	8.13
638.303	8.12
638.635	8.05
638.967	8.03
639.299	8.03
639.631	8.06
639.963	8.07
640.295	8.09
640.626	8.13
640.958	8.12
641.29	8.14
641.621	8.15
641.953	8.12
642.285	8.12
642.616	8.04
642.948	8
643.279	8
643.61	8.04
643.942	8.06
644.273	8.1
644.604	8.07
644.936	8.09
645.267	8.14
645.598	8.15
645.929	8.08
646.26	8.01
646.591	7.98
646.922	8.03
647.253	7.99
647.584	7.99
647.915	7.97
648.245	7.99
648.576	7.94
648.907	7.99
649.238	8.04
649.568	8.05
649.899	8.06
650.229	8.13
650.56	8.12
650.89	8.12
651.221	8.08
651.551	8.09
651.882	8.08
652.212	8.07
652.542	8.1
652.872	8.16
653.203	8.27
653.533	8.32
653.863	8.34
654.193	8.36
654.523	8.38
654.853	8.45
655.183	8.45
655.513	8.54
655.843	8.53
656.172	8.55
656.502	8.51
656.832	8.49
657.162	8.4
657.491	8.44
657.821	8.47
658.15	8.49
658.48	8.46
658.809	8.53
659.139	8.59
659.468	8.59
659.798	8.56
660.127	8.53
660.456	8.45
660.785	8.39
661.115	8.44
661.444	8.38
661.773	8.35
662.102	8.32
662.431	8.33
662.76	8.3
663.089	8.3
663.418	8.32
663.747	8.38
664.076	8.5
664.404	8.44
664.733	8.41
665.062	8.46
665.39	8.52
665.719	8.44
666.048	8.41
666.376	8.49
666.705	8.55
667.033	8.56
667.362	8.66
667.69	8.65
668.018	8.65
668.347	8.63
668.675	8.65
669.003	8.61
669.331	8.57
669.659	8.56
669.987	8.59
670.315	8.61
670.643	8.52
670.971	8.45
671.299	8.48
671.627	8.47
671.955	8.37
672.283	8.38
672.61	8.42
672.938	8.44
673.266	8.4
673.593	8.35
673.921	8.36
674.249	8.38
674.576	8.37
674.904	8.39
675.231	8.44
675.558	8.47
675.886	8.62
676.213	8.56
676.54	8.62
676.867	8.56
677.195	8.61
677.522	8.66
677.849	8.71
678.176	8.74
678.503	8.69
678.83	8.71
679.157	8.66
679.484	8.66
679.81	8.69
680.137	8.69
680.464	8.81
680.791	8.69
681.117	8.7
681.444	8.75
681.771	8.72
682.097	8.72
682.424	8.7
682.75	8.67
683.077	8.7
683.403	8.71
683.729	8.77
684.056	8.83
684.382	8.82
684.708	8.78
685.034	8.77
685.36	8.8
685.686	8.88
686.012	8.89
686.339	8.96
686.664	9.05
686.99	8.99
687.316	9
687.642	9.08
687.968	9.14
688.294	9.15
688.619	9.15
688.945	9.16
689.271	9.17
689.596	9.22
689.922	9.2
690.247	9.2
690.573	9.23
690.898	9.26
691.224	9.34
691.549	9.28
691.874	9.28
692.2	9.26
692.525	9.31
692.85	9.35
693.175	9.31
693.5	9.17
693.825	9.27
694.15	9.28
694.475	9.3
694.8	9.22
695.125	9.23
695.45	9.22
695.775	9.22
696.099	9.28
696.424	9.23
696.749	9.33
697.073	9.23
697.398	9.26
697.723	9.24
698.047	9.21
698.372	9.35
698.696	9.37
699.02	9.39
699.345	9.33
699.669	9.38
699.993	9.45
700.318	9.5
700.642	9.48
700.966	9.32
701.29	9.35
701.614	9.29
701.938	9.28
702.262	9.36
702.586	9.37
702.91	9.19
703.234	9.21
703.557	9.18
703.881	9.27
704.205	9.19
704.529	9.09
704.852	9.07
705.176	9.09
705.499	9.15
705.823	9.23
706.146	9.27
706.47	9.29
706.793	9.13
707.117	9.09
707.44	9.09
707.763	9.18
708.086	9.22
708.409	9.42
708.733	9.33
709.056	9.24
709.379	9.33
709.702	9.5
710.025	9.64
710.348	9.58
710.671	9.6
710.993	9.55
711.316	9.54
711.639	9.66
711.962	9.61
712.284	9.62
712.607	9.66
712.93	9.63
713.252	9.62
713.575	9.75
713.897	9.79
714.22	9.81
714.542	9.89
714.864	9.85
715.187	9.7
715.509	9.84
715.831	9.77
716.153	9.75
716.475	9.78
716.798	9.5
717.12	9.6
717.442	9.54
717.764	9.66
718.085	9.73
718.407	9.66
718.729	9.68
719.051	9.66
719.373	9.68
719.695	9.78
720.016	9.85
720.338	9.77
720.659	9.87
720.981	9.78
721.302	9.83
721.624	9.98
721.945	10.06
722.267	10.11
722.588	10.15
722.909	10.17
723.231	10.21
723.552	10.47
723.873	10.48
724.194	10.65
724.515	10.65
724.836	10.58
725.157	10.62
725.478	10.62
725.799	10.49
726.12	10.4
726.441	10.35
726.762	10.26
727.083	10.44
727.403	10.32
727.724	10.29
728.045	10.35
728.365	10.29
728.686	10.35
729.006	10.45
729.327	10.57
729.647	10.43
729.967	10.32
730.288	10.28
730.608	10.27
730.928	10.19
731.249	10.29
731.569	10.14
731.889	10.1
732.209	10.05
732.529	10.03
732.849	10.06
733.169	9.88
733.489	9.94
733.809	9.88
734.129	9.75
734.448	9.87
734.768	9.65
735.088	9.6
735.408	9.6
735.727	9.49
736.047	9.36
736.366	9.54
736.686	9.39
737.005	9.53
737.325	9.58
737.644	9.58
737.963	9.37
738.283	9.54
738.602	9.62
738.921	9.74
739.24	9.78
739.56	9.76
739.879	10.07
740.198	10.01
740.517	9.92
740.836	10.06
741.155	10.23
741.473	10.32
741.792	10.45
742.111	10.39
742.43	10.4
742.748	10.56
743.067	10.64
743.386	10.61
743.704	10.44
744.023	10.42
744.341	10.57
744.66	10.54
744.978	10.61
745.297	10.45
745.615	10.24
745.933	10.26
746.252	10.41
746.57	10.25
746.888	10.3
747.206	10.3
747.524	10.39
747.842	10.26
748.16	10.4
748.478	10.4
748.796	10.46
749.114	10.19
749.432	10.18
749.749	10.12
750.067	10.36
750.385	10.48
750.703	10.6
751.02	10.42
751.338	10.55
751.655	10.51
751.973	10.62
752.29	10.72
752.608	10.72
752.925	10.64
753.242	10.79
753.56	10.97
753.877	10.95
754.194	10.97
754.511	10.81
754.828	10.82
755.145	10.88
755.462	10.83
755.779	11.22
756.096	11.39
756.413	11.42
756.73	11.49
757.047	11.34
757.364	11.35
757.68	11.35
757.997	11.7
758.314	11.61
758.63	11.65
758.947	11.74
759.264	11.7
759.58	11.86
759.896	11.62
760.213	11.56
760.529	11.75
760.846	11.76
761.162	11.92
761.478	11.72
761.794	11.68
762.11	11.71
762.426	11.72
762.743	11.54
763.059	11.78
763.375	11.77
763.69	11.74
764.006	11.78
764.322	11.9
764.638	11.75
764.954	12.05
765.27	12.18
765.585	12.11
765.901	12.09
766.216	12.09
766.532	12.11
766.848	12.15
767.163	12.1
767.478	12.25
767.794	12.4
768.109	12.59
768.424	12.69
768.74	12.77
769.055	12.79
769.37	13.01
769.685	12.52
770	12.56
770.315	12.8
770.63	12.69
770.945	12.99
771.26	12.9
771.575	12.74
771.89	12.61
772.205	12.66
772.52	13.11
772.834	12.74
773.149	12.96
773.464	12.85
773.778	12.94
774.093	12.86
774.407	12.92
774.722	13.1
775.036	13.06
775.351	13.54
775.665	13.6
775.979	13.52
776.293	13.82
776.608	13.84
776.922	13.47
777.236	13.24
777.55	13
777.864	12.69
778.178	12.69
778.492	12.85
778.806	12.87
779.12	12.6
779.434	12.97
779.747	12.87
780.061	12.78
780.375	12.7
780.689	12.86
781.002	12.24
781.316	12.19
781.629	12.31
781.943	11.52
782.256	11.32
782.57	11.4
782.883	11.67
783.196	11.62
783.51	12.16
783.823	12.2
784.136	12.18
784.449	12.46
784.762	12.59
785.075	12.32
785.388	12.47
785.701	12.42
786.014	12.28
786.327	12.18
786.64	12.48
786.953	12.74
787.266	12.5
787.578	12.89
787.891	12.79
788.204	12.48
788.516	12.75
788.829	13.1
789.141	13.37
789.454	13.09
789.766	13.24
790.079	13.16
790.391	13.19
790.703	13.27
791.016	13.47
791.328	13.03
791.64	13.05
791.952	13.22
792.264	13.28
792.576	13.58
792.888	13.93
793.2	13.88
793.512	13.17
793.824	13.15
794.136	13.06
794.448	13.13
794.76	13.14
795.071	13.1
795.383	12.81
795.695	12.9
796.006	12.87
796.318	12.62
796.629	12.69
796.941	12.79
797.252	12.44
797.564	12.25
797.875	12.69
798.186	12.63
798.497	12.26
798.809	12.04
799.12	11.7
799.431	11.4
799.742	11.23
800.053	11.57
800.364	11.6
800.675	11.91
800.986	11.69
801.297	11.62
801.608	11.48
801.918	11.67
802.229	11.09
802.54	10.77
802.851	10.97
803.161	10.82
803.472	10.78
803.782	11.16
804.093	11.15
804.403	11.23
804.714	11.41
805.024	11.88
805.334	11.96
805.645	12.74
805.955	13.12
806.265	13.13
806.575	13.1
806.885	13.01
807.195	12.85
807.505	12.61
807.815	13.27
808.125	13.64
808.435	13.17
808.745	13.21
809.055	13.97
809.365	13.94
809.674	14.17
809.984	14.2
810.294	13.83
810.603	13.61
810.913	13.54
811.222	13.75
811.532	13.05
811.841	13.38
812.151	12.39
812.46	12.73
812.769	12.62
813.079	12.95
813.388	12.93
813.697	12.16
814.006	12.83
814.315	12.56
814.624	12.71
814.933	13.1
815.242	14.01
815.551	13.54
815.86	13.86
816.169	13.46
816.478	13.68
816.786	13.57
817.095	13.93
817.404	13.23
817.712	13.58
818.021	14.43
818.33	13.98
818.638	14.48
818.947	14.01
819.255	14.43
819.563	14.63
819.872	14.87
820.18	15.36
820.488	15.02
820.796	14.96
821.105	14.72
821.413	14.69
821.721	14.42
822.029	14.45
822.337	14.55
822.645	14.69
822.953	14.47
823.26	14.6
823.568	14.65
823.876	14.75
824.184	14.55
824.491	14.46
824.799	14.56
825.107	14.38
825.414	14.33
825.722	14.25
826.029	14.11
826.337	14.01
826.644	14.01
826.951	14.15
827.259	14.16
827.566	14.2
827.873	14.14
828.18	14.21
828.488	14.25
828.795	13.92
829.102	13.76
829.409	13.76
829.716	13.95
830.023	13.96
830.329	14.21
830.636	14.38
830.943	14.22
831.25	14.51
831.557	14.98
831.863	15.19
832.17	15.03
832.476	15.12
832.783	14.82
833.089	14.69
833.396	14.62
833.702	14.77
834.009	14.81
834.315	15.01
834.621	15
834.928	15.28
835.234	15.74
835.54	15.47
835.846	15.95
836.152	15.66
836.458	15.4
836.764	15.28
837.07	15.23
837.376	15.36
837.682	14.87
837.988	14.68
838.293	14.29
838.599	14.52
838.905	14.34
839.211	14.49
839.516	14.64
839.822	14.83
840.127	14.38
840.433	15.05
840.738	14.97
841.044	14.69
841.349	14.11
841.654	13.3
841.959	13.14
842.265	12.52
842.57	12.17
842.875	11.39
843.18	10.59
843.485	10.17
843.79	9.64
844.095	10.18
844.4	10.02
844.705	10.73
845.01	11.17
845.315	11.15
845.619	11.45
845.924	9.97
846.229	9.23
846.533	9.56
846.838	8.02
847.142	7.55
847.447	7.47
847.751	6.91
848.056	7.12
848.36	8.84
848.664	9.43
848.969	8.4
849.273	9.87
849.577	9.52
849.881	10.83
850.185	13.4
850.489	11.54
850.794	10.91
851.097	10.86
851.401	7.97
851.705	9.28
852.009	11.6
852.313	10.24
852.617	9.48
852.92	9.38
853.224	9.29
853.528	7.95
853.831	8.45
854.135	8.49
854.438	7.02
854.742	5.45
855.045	7.08
855.349	7.06
855.652	8.52
855.955	10.42
856.259	9.42
856.562	7.93
856.865	9.44
857.168	9.89
857.471	10.75
857.774	11.79
858.077	11.6
858.38	8.75
858.683	12.77
858.986	12.11
859.289	11.93
859.592	13.21
859.894	14.84
860.197	14.72
860.5	14.83
860.802	16.76
861.105	17.26
861.407	15.8
861.71	16.89
862.012	15.37
862.315	15.02
862.617	15.32
862.919	16.05
863.222	17.4
863.524	18.11
863.826	15.65
864.128	17.76
864.43	17.75
864.732	19.66
865.034	17.94
865.336	20.22
865.638	19.79
865.94	18.89
866.242	18.34
866.544	19.67
866.846	19.54
867.147	20.54
867.449	19.9
867.751	19.64
868.052	19.55
868.354	18.7
868.655	18.36
868.957	17.97
869.258	15.77
869.56	13.96
869.861	11.83
870.162	13.39
870.463	10.95
870.765	10.68
871.066	9.72
871.367	9.79
871.668	8
871.969	6.76
872.27	8.31
872.571	7.45
872.872	6.56
873.173	5.38
873.473	2.25
873.774	2.66
874.075	5.38
874.376	7.25
874.676	7.9
874.977	6.99
875.277	6.51
875.578	8.12
875.878	8.29
876.179	9.78
876.479	9.79
876.78	11.21
877.08	10.5
877.38	10.2
877.68	9.57
877.981	10.99
878.281	13.5
878.581	10.22
