Data from BU26849_Reflection_00004.txt Node
Date: Mon Nov 18 16:43:09 EST 2019
User: vgr7
Spectrometer: USB2G7710
Scans to average: 3
Trigger mode: 4
Integration Time (sec): 2.000000E-2
Electric dark correction enabled: true
Boxcar width: 10
XAxis mode: Wavelengths
Number of Pixels in Spectrum: 2048
>>>>>Begin Spectral Data<<<<<
177.721	62.69
178.105	78.04
178.488	68.87
178.871	29.95
179.254	35.18
179.636	45.42
180.019	21.7
180.402	77.42
180.785	65.89
181.168	493.2
181.55	331.76
181.933	103.69
182.316	53.25
182.698	56.61
183.081	59.06
183.463	87.05
183.846	84.98
184.228	78.78
184.611	123
184.993	159.33
185.376	234.83
185.758	131.28
186.14	84.9
186.522	170.96
186.904	81.64
187.287	89.99
187.669	381.52
188.051	-892.13
188.433	-208.75
188.815	-45.73
189.197	-69.37
189.579	-57.1
189.961	-48.26
190.342	-73.06
190.724	-51.73
191.106	-84.25
191.488	-69.92
191.869	-62.5
192.251	-81.93
192.633	-64.62
193.014	-109.8
193.396	-120.01
193.777	-146.58
194.159	-159.4
194.54	-176.21
194.922	-169.06
195.303	-146.28
195.684	-147.79
196.065	-115.92
196.447	-99.45
196.828	-123.4
197.209	-133.02
197.59	-153.38
197.971	-153
198.352	-117.47
198.733	-102.37
199.114	-68.67
199.495	-71.9
199.876	-64.43
200.257	-54.52
200.638	-61.26
201.018	-55.48
201.399	-50.08
201.78	-35.4
202.16	-38.04
202.541	-37.98
202.922	-48.2
203.302	-52.73
203.683	-52.44
204.063	-57.78
204.444	-39.02
204.824	-24.63
205.204	-0.74
205.585	1.78
205.965	-5.37
206.345	-25.91
206.725	-50.52
207.106	-83.19
207.486	-75.92
207.866	-82.76
208.246	-105.75
208.626	-117.19
209.006	-85.74
209.386	-124.5
209.766	-155.5
210.145	-110.91
210.525	-76.16
210.905	-78.43
211.285	-70.08
211.664	-58.12
212.044	-57.69
212.424	-67.86
212.803	-107.97
213.183	-134.09
213.562	-170.16
213.942	-105.75
214.321	-61.15
214.701	-70.94
215.08	-58.2
215.459	-83.73
215.838	-75.26
216.218	-70.62
216.597	-48.5
216.976	-41.04
217.355	-27.51
217.734	-12.23
218.113	-15.61
218.492	-38.38
218.871	-32.03
219.25	-32.61
219.629	-29.11
220.008	-29.49
220.387	-31.73
220.766	-23.53
221.144	-24.28
221.523	-30.34
221.902	-39.43
222.28	-52.75
222.659	-31.74
223.037	-37.72
223.416	-35.65
223.794	-36.6
224.173	-37.34
224.551	-34.23
224.929	-44.85
225.308	-44.31
225.686	-41.08
226.064	-35.4
226.442	-26.93
226.821	-23.97
227.199	-22.74
227.577	-28.77
227.955	-26.66
228.333	-22.31
228.711	-19.08
229.089	-14.77
229.467	-15.45
229.845	-18.11
230.222	-17.97
230.6	-18.1
230.978	-15.02
231.356	-12.48
231.733	-9.8
232.111	-5.85
232.488	-6.04
232.866	-6.15
233.243	-4.82
233.621	-8.48
233.998	-8.11
234.376	-7.99
234.753	-7.01
235.13	-6.45
235.508	-3.73
235.885	-3.43
236.262	-5.59
236.639	-4.65
237.016	-4.23
237.393	-2.2
237.77	0.78
238.147	2.51
238.524	2.4
238.901	3.21
239.278	4.08
239.655	3.75
240.032	3.42
240.409	2.84
240.785	3.91
241.162	3.86
241.539	4.85
241.915	4.89
242.292	4.54
242.668	4.7
243.045	4.46
243.421	4.14
243.798	3.83
244.174	4.24
244.551	4.14
244.927	4.2
245.303	4.53
245.679	4.65
246.056	4.45
246.432	4.63
246.808	4.63
247.184	4.39
247.56	4.49
247.936	4.66
248.312	4.67
248.688	4.63
249.064	4.45
249.44	4.09
249.815	3.91
250.191	4.12
250.567	3.97
250.943	4.07
251.318	4.42
251.694	4.52
252.069	4.51
252.445	4.74
252.82	4.32
253.196	4.06
253.571	3.89
253.947	3.71
254.322	3.71
254.697	3.62
255.073	3.58
255.448	3.25
255.823	3.12
256.198	3.35
256.573	3.11
256.948	3.31
257.323	3.68
257.698	3.97
258.073	3.91
258.448	3.94
258.823	4.06
259.198	3.81
259.573	3.83
259.948	3.66
260.322	3.68
260.697	3.76
261.072	3.74
261.446	3.67
261.821	3.75
262.195	3.72
262.57	3.77
262.944	3.56
263.319	3.47
263.693	3.53
264.067	3.57
264.442	3.81
264.816	3.8
265.19	3.57
265.564	3.4
265.938	3.27
266.313	3.2
266.687	3.13
267.061	3.15
267.435	3.16
267.809	3.21
268.183	3.28
268.556	3.6
268.93	3.51
269.304	3.53
269.678	3.51
270.051	3.54
270.425	3.55
270.799	3.78
271.172	4.01
271.546	3.95
271.919	3.9
272.293	3.84
272.666	3.87
273.04	4.04
273.413	3.96
273.787	3.99
274.16	3.99
274.533	3.95
274.906	3.91
275.279	3.84
275.653	3.96
276.026	3.86
276.399	3.66
276.772	3.74
277.145	3.74
277.518	3.68
277.891	3.57
278.263	3.49
278.636	3.42
279.009	3.44
279.382	3.41
279.755	3.3
280.127	3.45
280.5	3.57
280.872	3.61
281.245	3.7
281.617	3.87
281.99	4.15
282.362	4.15
282.735	4.09
283.107	4.14
283.479	4.19
283.852	4.14
284.224	4.13
284.596	4.1
284.968	4.11
285.34	4.28
285.713	4.34
286.085	4.39
286.457	4.48
286.829	4.44
287.201	4.53
287.572	4.56
287.944	4.45
288.316	4.37
288.688	4.23
289.06	4.21
289.431	4.13
289.803	4.1
290.175	4.19
290.546	4.45
290.918	4.39
291.289	4.36
291.661	4.45
292.032	4.46
292.403	4.47
292.775	4.61
293.146	4.45
293.517	4.37
293.889	4.34
294.26	4.33
294.631	4.3
295.002	4.17
295.373	4.11
295.744	4.11
296.115	4.15
296.486	4.19
296.857	4.16
297.228	4.25
297.599	4.17
297.97	4.13
298.34	4.08
298.711	4.31
299.082	4.21
299.452	4.23
299.823	4.31
300.194	4.41
300.564	4.26
300.935	4.36
301.305	4.42
301.676	4.55
302.046	4.53
302.416	4.58
302.787	4.69
303.157	4.7
303.527	4.65
303.897	4.56
304.267	4.67
304.637	4.75
305.008	4.61
305.378	4.6
305.748	4.61
306.117	4.5
306.487	4.42
306.857	4.46
307.227	4.39
307.597	4.24
307.967	4.23
308.336	4.31
308.706	4.28
309.076	4.28
309.445	4.19
309.815	4.18
310.184	4.12
310.554	4.1
310.923	4.24
311.293	4.24
311.662	4.28
312.031	4.2
312.401	4.14
312.77	4.38
313.139	4.32
313.508	4.29
313.877	4.25
314.246	4.22
314.616	4.22
314.985	4.1
315.353	4
315.722	3.92
316.091	3.94
316.46	3.93
316.829	3.97
317.198	3.98
317.567	3.99
317.935	4.11
318.304	4.09
318.672	3.94
319.041	3.85
319.41	3.79
319.778	3.6
320.147	3.6
320.515	3.2
320.883	3.36
321.252	3.48
321.62	3.58
321.988	3.4
322.357	3.43
322.725	3.51
323.093	3.68
323.461	3.63
323.829	3.51
324.197	3.5
324.565	3.48
324.933	3.4
325.301	3.37
325.669	3.32
326.037	3.29
326.405	3.39
326.772	3.56
327.14	3.67
327.508	3.83
327.875	3.82
328.243	3.89
328.61	3.68
328.978	3.65
329.346	3.68
329.713	3.66
330.08	3.68
330.448	3.63
330.815	3.42
331.182	3.55
331.55	3.59
331.917	3.66
332.284	3.63
332.651	3.65
333.018	3.77
333.385	3.82
333.752	3.95
334.119	3.93
334.486	3.91
334.853	3.85
335.22	3.96
335.587	4.02
335.954	4.02
336.32	4.13
336.687	4.13
337.054	4.05
337.42	4.14
337.787	4.2
338.153	4.22
338.52	4.47
338.886	4.39
339.253	4.29
339.619	4.33
339.986	4.26
340.352	4.44
340.718	4.32
341.084	4.17
341.451	4.19
341.817	4.23
342.183	4.09
342.549	4.11
342.915	4.11
343.281	4.13
343.647	4.15
344.013	4.08
344.379	3.97
344.745	3.97
345.11	3.98
345.476	3.88
345.842	3.81
346.208	3.78
346.573	3.86
346.939	4.05
347.304	3.93
347.67	4.02
348.035	3.96
348.401	3.98
348.766	4.07
349.132	3.97
349.497	3.87
349.862	3.92
350.228	3.83
350.593	3.7
350.958	3.63
351.323	3.64
351.688	3.7
352.053	3.84
352.418	3.86
352.783	3.89
353.148	3.9
353.513	3.98
353.878	3.94
354.243	3.91
354.608	3.75
354.972	3.76
355.337	3.68
355.702	3.72
356.066	3.78
356.431	3.83
356.795	3.8
357.16	3.83
357.524	3.85
357.889	3.87
358.253	3.89
358.618	3.98
358.982	3.94
359.346	3.89
359.71	3.83
360.075	3.8
360.439	3.77
360.803	3.78
361.167	3.76
361.531	3.79
361.895	3.77
362.259	3.8
362.623	3.85
362.987	3.87
363.351	3.83
363.714	3.8
364.078	3.69
364.442	3.66
364.806	3.65
365.169	3.62
365.533	3.65
365.896	3.67
366.26	3.59
366.623	3.6
366.987	3.63
367.35	3.6
367.714	3.68
368.077	3.63
368.44	3.57
368.803	3.57
369.167	3.6
369.53	3.58
369.893	3.6
370.256	3.6
370.619	3.6
370.982	3.55
371.345	3.52
371.708	3.65
372.071	3.66
372.434	3.67
372.797	3.72
373.159	3.64
373.522	3.68
373.885	3.73
374.247	3.75
374.61	3.75
374.973	3.74
375.335	3.66
375.698	3.76
376.06	3.77
376.423	3.77
376.785	3.77
377.147	3.83
377.51	3.82
377.872	3.84
378.234	3.82
378.596	3.83
378.958	3.81
379.321	3.76
379.683	3.78
380.045	3.82
380.407	3.8
380.769	3.83
381.13	3.77
381.492	3.72
381.854	3.75
382.216	3.76
382.578	3.83
382.939	3.89
383.301	3.8
383.663	3.82
384.024	3.85
384.386	3.86
384.747	3.78
385.109	3.81
385.47	3.77
385.832	3.8
386.193	3.81
386.554	3.83
386.916	3.85
387.277	3.86
387.638	3.84
387.999	3.86
388.36	3.89
388.721	3.91
389.082	3.92
389.443	3.91
389.804	3.89
390.165	3.86
390.526	3.83
390.887	3.84
391.248	3.89
391.609	3.89
391.969	3.88
392.33	3.93
392.691	3.91
393.051	3.91
393.412	3.91
393.772	3.88
394.133	3.9
394.493	3.87
394.854	3.85
395.214	3.82
395.574	3.83
395.935	3.81
396.295	3.81
396.655	3.86
397.015	3.83
397.376	3.82
397.736	3.83
398.096	3.83
398.456	3.85
398.816	3.84
399.176	3.79
399.535	3.77
399.895	3.74
400.255	3.72
400.615	3.75
400.975	3.75
401.334	3.77
401.694	3.76
402.054	3.76
402.413	3.78
402.773	3.76
403.132	3.75
403.492	3.76
403.851	3.73
404.211	3.71
404.57	3.71
404.929	3.73
405.288	3.71
405.648	3.76
406.007	3.74
406.366	3.7
406.725	3.75
407.084	3.74
407.443	3.77
407.802	3.8
408.161	3.74
408.52	3.73
408.879	3.74
409.238	3.76
409.596	3.79
409.955	3.78
410.314	3.83
410.673	3.79
411.031	3.79
411.39	3.81
411.748	3.8
412.107	3.82
412.465	3.81
412.824	3.79
413.182	3.76
413.54	3.76
413.899	3.79
414.257	3.76
414.615	3.77
414.974	3.78
415.332	3.76
415.69	3.8
416.048	3.8
416.406	3.79
416.764	3.76
417.122	3.77
417.48	3.78
417.838	3.79
418.195	3.79
418.553	3.79
418.911	3.8
419.269	3.8
419.626	3.79
419.984	3.81
420.342	3.82
420.699	3.81
421.057	3.81
421.414	3.79
421.772	3.79
422.129	3.79
422.486	3.77
422.844	3.78
423.201	3.76
423.558	3.76
423.915	3.74
424.273	3.76
424.63	3.73
424.987	3.72
425.344	3.71
425.701	3.71
426.058	3.72
426.415	3.69
426.772	3.7
427.128	3.7
427.485	3.68
427.842	3.69
428.199	3.71
428.555	3.68
428.912	3.7
429.269	3.71
429.625	3.71
429.982	3.72
430.338	3.72
430.695	3.74
431.051	3.72
431.407	3.75
431.764	3.74
432.12	3.72
432.476	3.72
432.832	3.74
433.189	3.75
433.545	3.74
433.901	3.75
434.257	3.73
434.613	3.74
434.969	3.73
435.325	3.74
435.681	3.72
436.036	3.76
436.392	3.77
436.748	3.77
437.104	3.78
437.459	3.79
437.815	3.79
438.171	3.8
438.526	3.82
438.882	3.84
439.237	3.85
439.593	3.88
439.948	3.88
440.304	3.86
440.659	3.86
441.014	3.87
441.369	3.87
441.725	3.88
442.08	3.87
442.435	3.89
442.79	3.89
443.145	3.9
443.5	3.89
443.855	3.88
444.21	3.87
444.565	3.87
444.92	3.87
445.275	3.86
445.629	3.85
445.984	3.84
446.339	3.81
446.693	3.8
447.048	3.78
447.403	3.79
447.757	3.79
448.112	3.78
448.466	3.77
448.82	3.77
449.175	3.77
449.529	3.76
449.883	3.74
450.238	3.73
450.592	3.72
450.946	3.69
451.3	3.69
451.654	3.69
452.008	3.68
452.362	3.67
452.716	3.68
453.07	3.68
453.424	3.71
453.778	3.71
454.132	3.71
454.486	3.69
454.839	3.67
455.193	3.66
455.547	3.67
455.9	3.69
456.254	3.69
456.607	3.68
456.961	3.68
457.314	3.68
457.668	3.69
458.021	3.71
458.375	3.73
458.728	3.72
459.081	3.73
459.434	3.74
459.787	3.74
460.141	3.74
460.494	3.73
460.847	3.72
461.2	3.71
461.553	3.71
461.906	3.72
462.259	3.75
462.611	3.78
462.964	3.78
463.317	3.77
463.67	3.77
464.022	3.77
464.375	3.78
464.728	3.78
465.08	3.79
465.433	3.77
465.785	3.76
466.138	3.76
466.49	3.77
466.843	3.77
467.195	3.78
467.547	3.77
467.899	3.78
468.252	3.76
468.604	3.79
468.956	3.8
469.308	3.8
469.66	3.79
470.012	3.8
470.364	3.82
470.716	3.82
471.068	3.82
471.42	3.82
471.772	3.82
472.123	3.83
472.475	3.83
472.827	3.84
473.178	3.82
473.53	3.84
473.882	3.85
474.233	3.85
474.585	3.83
474.936	3.86
475.288	3.85
475.639	3.86
475.99	3.86
476.342	3.89
476.693	3.89
477.044	3.9
477.395	3.86
477.746	3.85
478.097	3.84
478.448	3.86
478.8	3.88
479.15	3.88
479.501	3.89
479.852	3.9
480.203	3.91
480.554	3.94
480.905	3.95
481.255	3.95
481.606	3.96
481.957	3.97
482.307	3.96
482.658	3.96
483.009	3.96
483.359	3.96
483.709	3.95
484.06	3.96
484.41	3.96
484.761	3.98
485.111	3.98
485.461	3.98
485.811	3.97
486.162	3.97
486.512	3.98
486.862	3.98
487.212	3.97
487.562	3.97
487.912	3.95
488.262	3.95
488.612	3.94
488.961	3.93
489.311	3.94
489.661	3.93
490.011	3.92
490.36	3.93
490.71	3.92
491.06	3.91
491.409	3.9
491.759	3.89
492.108	3.88
492.458	3.88
492.807	3.88
493.157	3.89
493.506	3.9
493.855	3.89
494.204	3.88
494.554	3.88
494.903	3.87
495.252	3.87
495.601	3.88
495.95	3.89
496.299	3.87
496.648	3.86
496.997	3.87
497.346	3.88
497.695	3.89
498.043	3.89
498.392	3.91
498.741	3.94
499.09	3.93
499.438	3.95
499.787	3.96
500.135	3.98
500.484	3.98
500.832	3.97
501.181	4.01
501.529	4.02
501.878	4.04
502.226	4.06
502.574	4.06
502.923	4.06
503.271	4.05
503.619	4.09
503.967	4.1
504.315	4.09
504.663	4.08
505.011	4.09
505.359	4.09
505.707	4.08
506.055	4.06
506.403	4.09
506.751	4.09
507.098	4.09
507.446	4.09
507.794	4.09
508.141	4.1
508.489	4.1
508.837	4.13
509.184	4.15
509.531	4.14
509.879	4.15
510.226	4.18
510.574	4.19
510.921	4.16
511.268	4.18
511.616	4.22
511.963	4.23
512.31	4.23
512.657	4.25
513.004	4.27
513.351	4.29
513.698	4.27
514.045	4.27
514.392	4.29
514.739	4.29
515.086	4.31
515.432	4.3
515.779	4.29
516.126	4.28
516.473	4.27
516.819	4.29
517.166	4.3
517.512	4.29
517.859	4.29
518.205	4.3
518.552	4.3
518.898	4.29
519.245	4.29
519.591	4.28
519.937	4.27
520.283	4.28
520.629	4.3
520.976	4.31
521.322	4.3
521.668	4.3
522.014	4.29
522.36	4.3
522.706	4.3
523.052	4.31
523.398	4.3
523.743	4.3
524.089	4.31
524.435	4.31
524.781	4.32
525.126	4.33
525.472	4.35
525.817	4.36
526.163	4.38
526.509	4.4
526.854	4.41
527.199	4.41
527.545	4.41
527.89	4.41
528.235	4.42
528.581	4.43
528.926	4.43
529.271	4.43
529.616	4.42
529.961	4.43
530.306	4.43
530.651	4.44
530.996	4.45
531.341	4.44
531.686	4.45
532.031	4.46
532.376	4.46
532.721	4.46
533.065	4.45
533.41	4.45
533.755	4.45
534.099	4.46
534.444	4.48
534.788	4.47
535.133	4.45
535.477	4.45
535.822	4.45
536.166	4.46
536.51	4.47
536.855	4.47
537.199	4.47
537.543	4.48
537.887	4.48
538.231	4.47
538.576	4.5
538.92	4.48
539.264	4.47
539.608	4.47
539.951	4.47
540.295	4.47
540.639	4.48
540.983	4.48
541.327	4.46
541.671	4.45
542.014	4.46
542.358	4.46
542.701	4.46
543.045	4.46
543.389	4.46
543.732	4.44
544.075	4.46
544.419	4.47
544.762	4.47
545.105	4.47
545.449	4.47
545.792	4.45
546.135	4.46
546.478	4.47
546.821	4.47
547.165	4.46
547.508	4.47
547.851	4.46
548.194	4.45
548.536	4.45
548.879	4.46
549.222	4.45
549.565	4.47
549.908	4.47
550.25	4.47
550.593	4.47
550.936	4.47
551.278	4.47
551.621	4.47
551.963	4.48
552.306	4.46
552.648	4.44
552.991	4.48
553.333	4.49
553.675	4.48
554.017	4.48
554.36	4.49
554.702	4.51
555.044	4.5
555.386	4.53
555.728	4.53
556.07	4.55
556.412	4.57
556.754	4.54
557.096	4.53
557.438	4.52
557.78	4.55
558.121	4.56
558.463	4.56
558.805	4.54
559.147	4.55
559.488	4.55
559.83	4.58
560.171	4.56
560.513	4.58
560.854	4.55
561.196	4.54
561.537	4.57
561.878	4.52
562.22	4.51
562.561	4.49
562.902	4.5
563.243	4.5
563.584	4.48
563.925	4.51
564.266	4.49
564.607	4.51
564.948	4.51
565.289	4.51
565.63	4.52
565.971	4.51
566.312	4.52
566.653	4.53
566.993	4.5
567.334	4.49
567.675	4.49
568.015	4.53
568.356	4.53
568.696	4.5
569.037	4.5
569.377	4.52
569.718	4.52
570.058	4.51
570.398	4.51
570.739	4.51
571.079	4.51
571.419	4.54
571.759	4.53
572.099	4.52
572.439	4.52
572.779	4.53
573.119	4.54
573.459	4.53
573.799	4.54
574.139	4.54
574.479	4.55
574.819	4.54
575.158	4.53
575.498	4.53
575.838	4.54
576.177	4.56
576.517	4.55
576.856	4.58
577.196	4.58
577.535	4.57
577.875	4.56
578.214	4.54
578.553	4.55
578.893	4.54
579.232	4.56
579.571	4.56
579.91	4.55
580.25	4.56
580.589	4.53
580.928	4.54
581.267	4.56
581.606	4.54
581.945	4.52
582.283	4.51
582.622	4.53
582.961	4.54
583.3	4.58
583.639	4.57
583.977	4.58
584.316	4.58
584.654	4.56
584.993	4.6
585.332	4.61
585.67	4.6
586.008	4.61
586.347	4.6
586.685	4.61
587.024	4.61
587.362	4.6
587.7	4.64
588.038	4.66
588.376	4.71
588.715	4.73
589.053	4.74
589.391	4.75
589.729	4.73
590.067	4.73
590.404	4.66
590.742	4.71
591.08	4.66
591.418	4.69
591.756	4.69
592.093	4.72
592.431	4.71
592.769	4.74
593.106	4.77
593.444	4.72
593.781	4.73
594.119	4.74
594.456	4.75
594.793	4.77
595.131	4.72
595.468	4.69
595.805	4.68
596.143	4.71
596.48	4.72
596.817	4.75
597.154	4.74
597.491	4.78
597.828	4.75
598.165	4.79
598.502	4.77
598.839	4.79
599.176	4.77
599.512	4.77
599.849	4.77
600.186	4.76
600.523	4.83
600.859	4.85
601.196	4.84
601.532	4.81
601.869	4.73
602.205	4.76
602.542	4.76
602.878	4.76
603.215	4.76
603.551	4.76
603.887	4.74
604.223	4.74
604.56	4.78
604.896	4.76
605.232	4.73
605.568	4.71
605.904	4.71
606.24	4.71
606.576	4.73
606.912	4.72
607.248	4.71
607.583	4.73
607.919	4.7
608.255	4.71
608.591	4.74
608.926	4.82
609.262	4.82
609.597	4.82
609.933	4.84
610.268	4.9
610.604	4.93
610.939	4.94
611.275	4.95
611.61	4.93
611.945	4.97
612.281	5.01
612.616	5.07
612.951	5.1
613.286	5.11
613.621	5.15
613.956	5.18
614.291	5.14
614.626	5.16
614.961	5.15
615.296	5.13
615.631	5.12
615.966	5.1
616.3	5.09
616.635	5.08
616.97	5.05
617.304	4.96
617.639	4.93
617.973	4.93
618.308	4.89
618.642	4.92
618.977	4.94
619.311	4.91
619.646	4.88
619.98	4.85
620.314	4.83
620.648	4.81
620.983	4.81
621.317	4.9
621.651	4.86
621.985	4.91
622.319	4.97
622.653	5
622.987	5.02
623.321	5.04
623.655	5.03
623.988	5.08
624.322	5.05
624.656	5.1
624.99	5.11
625.323	5.17
625.657	5.16
625.99	5.15
626.324	5.16
626.657	5.15
626.991	5.17
627.324	5.18
627.658	5.16
627.991	5.18
628.324	5.17
628.657	5.17
628.991	5.15
629.324	5.09
629.657	5.09
629.99	5.06
630.323	5.04
630.656	5.07
630.989	5.05
631.322	5.11
631.655	5.08
631.987	5.13
632.32	5.13
632.653	5.12
632.986	5.15
633.318	5.19
633.651	5.2
633.984	5.2
634.316	5.23
634.649	5.27
634.981	5.24
635.313	5.24
635.646	5.24
635.978	5.27
636.31	5.29
636.643	5.26
636.975	5.29
637.307	5.31
637.639	5.3
637.971	5.3
638.303	5.28
638.635	5.29
638.967	5.28
639.299	5.29
639.631	5.24
639.963	5.15
640.295	5.14
640.626	5.08
640.958	5.14
641.29	5.14
641.621	5.09
641.953	5.08
642.285	5.08
642.616	5.09
642.948	5.07
643.279	5.16
643.61	5.18
643.942	5.13
644.273	5.14
644.604	5.14
644.936	5.09
645.267	5.12
645.598	5.12
645.929	5.08
646.26	5.06
646.591	5.12
646.922	5.15
647.253	5.14
647.584	5.24
647.915	5.17
648.245	5.13
648.576	5.13
648.907	5.15
649.238	5.18
649.568	5.19
649.899	5.21
650.229	5.12
650.56	5.2
650.89	5.24
651.221	5.26
651.551	5.21
651.882	5.28
652.212	5.28
652.542	5.27
652.872	5.3
653.203	5.34
653.533	5.36
653.863	5.34
654.193	5.36
654.523	5.37
654.853	5.42
655.183	5.43
655.513	5.38
655.843	5.35
656.172	5.35
656.502	5.4
656.832	5.34
657.162	5.38
657.491	5.36
657.821	5.33
658.15	5.34
658.48	5.43
658.809	5.39
659.139	5.36
659.468	5.31
659.798	5.3
660.127	5.31
660.456	5.33
660.785	5.38
661.115	5.39
661.444	5.29
661.773	5.2
662.102	5.22
662.431	5.33
662.76	5.33
663.089	5.33
663.418	5.26
663.747	5.26
664.076	5.22
664.404	5.17
664.733	5.3
665.062	5.29
665.39	5.27
665.719	5.22
666.048	5.23
666.376	5.29
666.705	5.29
667.033	5.22
667.362	5.18
667.69	5.15
668.018	5.12
668.347	5.19
668.675	5.27
669.003	5.33
669.331	5.35
669.659	5.36
669.987	5.28
670.315	5.42
670.643	5.48
670.971	5.53
671.299	5.58
671.627	5.51
671.955	5.52
672.283	5.56
672.61	5.65
672.938	5.7
673.266	5.79
673.593	5.94
673.921	5.94
674.249	5.84
674.576	5.89
674.904	5.86
675.231	5.88
675.558	5.85
675.886	5.81
676.213	5.79
676.54	5.78
676.867	5.8
677.195	5.69
677.522	5.66
677.849	5.59
678.176	5.59
678.503	5.51
678.83	5.57
679.157	5.44
679.484	5.36
679.81	5.43
680.137	5.36
680.464	5.24
680.791	5.25
681.117	5.24
681.444	5.15
681.771	5.21
682.097	5.31
682.424	5.31
682.75	5.34
683.077	5.29
683.403	5.34
683.729	5.39
684.056	5.41
684.382	5.46
684.708	5.49
685.034	5.46
685.36	5.56
685.686	5.5
686.012	5.57
686.339	5.66
686.664	5.67
686.99	5.69
687.316	5.75
687.642	5.84
687.968	5.97
688.294	6.14
688.619	6.11
688.945	5.94
689.271	5.94
689.596	5.89
689.922	5.91
690.247	5.88
690.573	5.84
690.898	5.88
691.224	5.78
691.549	5.83
691.874	5.83
692.2	5.82
692.525	5.8
692.85	5.87
693.175	5.92
693.5	5.78
693.825	5.75
694.15	5.7
694.475	5.6
694.8	5.68
695.125	5.48
695.45	5.47
695.775	5.59
696.099	5.54
696.424	5.54
696.749	5.55
697.073	5.57
697.398	5.66
697.723	5.73
698.047	5.75
698.372	5.75
698.696	5.83
699.02	5.82
699.345	5.84
699.669	5.84
699.993	5.79
700.318	5.86
700.642	5.92
700.966	5.95
701.29	6.04
701.614	5.99
701.938	6.16
702.262	6.26
702.586	6.25
702.91	6.27
703.234	6.24
703.557	6.23
703.881	6.18
704.205	6.25
704.529	6.06
704.852	6.12
705.176	6.14
705.499	6.11
705.823	6.05
706.146	6.13
706.47	6.33
706.793	6.31
707.117	6.32
707.44	6.25
707.763	6.14
708.086	6.06
708.409	6.03
708.733	5.99
709.056	6
709.379	6.06
709.702	6.14
710.025	6.19
710.348	6.12
710.671	6.17
710.993	6.09
711.316	6.21
711.639	6.16
711.962	6.17
712.284	6.08
712.607	6.17
712.93	6.13
713.252	5.9
713.575	5.96
713.897	5.95
714.22	6.01
714.542	6.11
714.864	6.12
715.187	6.22
715.509	6.25
715.831	6.3
716.153	6.23
716.475	6.2
716.798	6.33
717.12	6.38
717.442	6.46
717.764	6.45
718.085	6.37
718.407	6.33
718.729	6.33
719.051	6.43
719.373	6.39
719.695	6.36
720.016	6.44
720.338	6.45
720.659	6.52
720.981	6.59
721.302	6.57
721.624	6.56
721.945	6.37
722.267	6.18
722.588	6.03
722.909	6.19
723.231	6.21
723.552	6.14
723.873	6.3
724.194	6.16
724.515	6.14
724.836	6.14
725.157	6.33
725.478	6.3
725.799	6.21
726.12	6.07
726.441	6.23
726.762	6.29
727.083	6.44
727.403	6.4
727.724	6.33
728.045	6.36
728.365	6.35
728.686	6.39
729.006	6.57
729.327	6.52
729.647	6.46
729.967	6.48
730.288	6.48
730.608	6.32
730.928	6.3
731.249	6.29
731.569	6.46
731.889	6.44
732.209	6.43
732.529	6.4
732.849	6.46
733.169	6.39
733.489	6.31
733.809	6.14
734.129	6.2
734.448	6.24
734.768	6.29
735.088	6.32
735.408	6.36
735.727	6.29
736.047	6.4
736.366	6.28
736.686	6.27
737.005	6.4
737.325	6.48
737.644	6.6
737.963	6.72
738.283	6.47
738.602	6.5
738.921	6.41
739.24	6.61
739.56	6.58
739.879	6.46
740.198	6.56
740.517	6.61
740.836	6.68
741.155	6.66
741.473	6.73
741.792	6.68
742.111	6.79
742.43	6.93
742.748	6.92
743.067	7.01
743.386	7.2
743.704	7.05
744.023	7.1
744.341	6.99
744.66	7.19
744.978	7.28
745.297	7.3
745.615	7.6
745.933	7.45
746.252	7.74
746.57	7.85
746.888	7.75
747.206	7.99
747.524	7.62
747.842	7.67
748.16	7.58
748.478	7.74
748.796	7.85
749.114	8.02
749.432	7.83
749.749	7.87
750.067	7.76
750.385	7.6
750.703	7.68
751.02	7.81
751.338	7.44
751.655	7.28
751.973	7.06
752.29	7.02
752.608	7.22
752.925	7.02
753.242	6.89
753.56	6.84
753.877	6.57
754.194	6.78
754.511	6.79
754.828	6.71
755.145	6.58
755.462	6.4
755.779	6.22
756.096	6.66
756.413	6.81
756.73	6.83
757.047	7
757.364	6.78
757.68	6.8
757.997	6.96
758.314	7.11
758.63	7.18
758.947	7.13
759.264	6.87
759.58	6.87
759.896	7.15
760.213	7.61
760.529	7.69
760.846	7.48
761.162	7.39
761.478	7.46
761.794	7.37
762.11	7.32
762.426	7.32
762.743	7.11
763.059	6.9
763.375	6.89
763.69	7.02
764.006	7.32
764.322	7.38
764.638	7.28
764.954	7.55
765.27	7.43
765.585	7.39
765.901	7.56
766.216	7.6
766.532	7.48
766.848	7.02
767.163	6.89
767.478	7.01
767.794	7.06
768.109	7.21
768.424	7.26
768.74	7.28
769.055	7.21
769.37	7.22
769.685	7.07
770	7.05
770.315	6.94
770.63	6.76
770.945	6.67
771.26	6.97
771.575	6.91
771.89	7.25
772.205	7.47
772.52	7.39
772.834	7.44
773.149	7.48
773.464	7.7
773.778	8.22
774.093	8.08
774.407	8.4
774.722	8.16
775.036	8.49
775.351	8.36
775.665	8.39
775.979	8.29
776.293	8.44
776.608	8.2
776.922	7.47
777.236	7.46
777.55	7.61
777.864	7.47
778.178	7.25
778.492	7.4
778.806	6.95
779.12	7.12
779.434	6.95
779.747	7.01
780.061	6.9
780.375	6.46
780.689	6.59
781.002	6.2
781.316	5.99
781.629	5.86
781.943	5.98
782.256	5.91
782.57	6.42
782.883	6.61
783.196	6.8
783.51	7.54
783.823	7.53
784.136	7.64
784.449	7.77
784.762	7.72
785.075	7.42
785.388	7.68
785.701	7.44
786.014	7.72
786.327	7.81
786.64	8.31
786.953	8.41
787.266	8.25
787.578	8.2
787.891	8.42
788.204	8.23
788.516	8.21
788.829	8.29
789.141	8.16
789.454	8.47
789.766	8.71
790.079	8.47
790.391	8.45
790.703	8.73
791.016	8.69
791.328	8.82
791.64	8.94
791.952	8.95
792.264	8.83
792.576	8.62
792.888	8.4
793.2	8.06
793.512	7.95
793.824	8.35
794.136	8.41
794.448	8.42
794.76	8.54
795.071	8.71
795.383	8.89
795.695	8.48
796.006	8.29
796.318	7.97
796.629	8.46
796.941	8.03
797.252	7.56
797.564	7.12
797.875	6.96
798.186	6.75
798.497	6.78
798.809	7.09
799.12	7.11
799.431	7.06
799.742	7.29
800.053	7.51
800.364	7.3
800.675	7.2
800.986	7.04
801.297	6.78
801.608	6.86
801.918	6.73
802.229	6.85
802.54	6.74
802.851	6.71
803.161	6.61
803.472	6.8
803.782	6.95
804.093	7.31
804.403	7.67
804.714	7.47
805.024	7.35
805.334	7.75
805.645	7.7
805.955	7.57
806.265	7.95
806.575	7.43
806.885	7.19
807.195	7.51
807.505	7.95
807.815	8
808.125	7.8
808.435	7.72
808.745	7.42
809.055	7.75
809.365	7.93
809.674	7.59
809.984	7.22
810.294	6.68
810.603	6.82
810.913	6.66
811.222	7.58
811.532	8.5
811.841	8.07
812.151	8.18
812.46	8.39
812.769	8.03
813.079	8.86
813.388	9.15
813.697	8.76
814.006	8.4
814.315	8.9
814.624	8.6
814.933	9.16
815.242	9.5
815.551	9.56
815.86	9.46
816.169	9.5
816.478	10.15
816.786	10.4
817.095	10.02
817.404	9.93
817.712	9.78
818.021	9.49
818.33	9.66
818.638	9.99
818.947	10.57
819.255	10.26
819.563	10.07
819.872	10.29
820.18	10.6
820.488	10.78
820.796	10.59
821.105	10.74
821.413	10.7
821.721	10.62
822.029	10.73
822.337	10.73
822.645	10.82
822.953	10.85
823.26	10.9
823.568	10.94
823.876	10.93
824.184	10.92
824.491	10.87
824.799	10.82
825.107	10.84
825.414	10.71
825.722	10.85
826.029	10.85
826.337	10.72
826.644	10.63
826.951	10.47
827.259	10.49
827.566	10.35
827.873	10.14
828.18	10.4
828.488	10.37
828.795	10.36
829.102	10.24
829.409	10.13
829.716	9.8
830.023	9.55
830.329	9.34
830.636	9.28
830.943	9.1
831.25	8.95
831.557	8.65
831.863	8.68
832.17	8.41
832.476	8.4
832.783	8.88
833.089	9.14
833.396	9.66
833.702	9.8
834.009	10.09
834.315	10.29
834.621	9.97
834.928	9.67
835.234	9.46
835.54	9.6
835.846	9.53
836.152	9.85
836.458	10.09
836.764	10.36
837.07	10.14
837.376	9.75
837.682	9.92
837.988	10.13
838.293	10.3
838.599	10.31
838.905	9.96
839.211	9.42
839.516	9.66
839.822	9.37
840.127	9.21
840.433	9.48
840.738	9.48
841.044	8.8
841.349	8.71
841.654	9.9
841.959	9.54
842.265	9.96
842.57	10.22
842.875	10.12
843.18	9.88
843.485	10.44
843.79	11.39
844.095	11.7
844.4	12.32
844.705	11.1
845.01	10.62
845.315	11.21
845.619	10.05
845.924	8.89
846.229	8.08
846.533	8.28
846.838	7.78
847.142	7.74
847.447	8.12
847.751	6.58
848.056	5.94
848.36	7.23
848.664	7.51
848.969	7.79
849.273	7.45
849.577	7.61
849.881	6.14
850.185	6.2
850.489	4.99
850.794	3.46
851.097	5.38
851.401	4.86
851.705	4.39
852.009	6.7
852.313	6.41
852.617	6.24
852.92	6.27
853.224	5.86
853.528	5.76
853.831	6.69
854.135	7.39
854.438	5.28
854.742	4.38
855.045	2.32
855.349	2.36
855.652	3.6
855.955	3.68
856.259	2.93
856.562	2.36
856.865	1.36
857.168	1.42
857.471	1.08
857.774	1.7
858.077	1.56
858.38	0.97
858.683	1.8
858.986	2.02
859.289	2.79
859.592	4.23
859.894	3.64
860.197	2.4
860.5	4.58
860.802	5.76
861.105	5.74
861.407	7.82
861.71	7.41
862.012	8.03
862.315	7.76
862.617	9.01
862.919	8.05
863.222	9.52
863.524	10.26
863.826	9.45
864.128	10.77
864.43	11.42
864.732	11.78
865.034	11.17
865.336	9.23
865.638	7.83
865.94	7.55
866.242	6.95
866.544	8.1
866.846	7.76
867.147	7.63
867.449	8.09
867.751	8.68
868.052	8.09
868.354	6.08
868.655	6.25
868.957	4.64
869.258	6.51
869.56	5.43
869.861	5.53
870.162	5.74
870.463	4.53
870.765	5.73
871.066	4.95
871.367	5.89
871.668	8.37
871.969	8.64
872.27	6.69
872.571	7.7
872.872	6.72
873.173	4.77
873.473	4.38
873.774	3.96
874.075	1.88
874.376	1.39
874.676	4.12
874.977	2.51
875.277	4.71
875.578	4.05
875.878	5.09
876.179	4.43
876.479	4.13
876.78	4.15
877.08	2.75
877.38	2.94
877.68	1.05
877.981	0.4
878.281	0.02
878.581	1.65
