Data from BU26851_Reflection_00006.txt Node
Date: Mon Nov 18 16:48:14 EST 2019
User: vgr7
Spectrometer: USB2G7710
Scans to average: 3
Trigger mode: 4
Integration Time (sec): 2.000000E-2
Electric dark correction enabled: true
Boxcar width: 10
XAxis mode: Wavelengths
Number of Pixels in Spectrum: 2048
>>>>>Begin Spectral Data<<<<<
177.721	180.37
178.105	-413.51
178.488	2327.85
178.871	-317.36
179.254	676.27
179.636	63.88
180.019	269.49
180.402	122.22
180.785	41.73
181.168	68.28
181.55	127.97
181.933	123.53
182.316	110.05
182.698	22.16
183.081	-35.43
183.463	1419.59
183.846	298.08
184.228	4035.48
184.611	-764.52
184.993	-2679.66
185.376	-264.66
185.758	-346.85
186.14	-761.92
186.522	-543.09
186.904	4332.56
187.287	-885.65
187.669	1141.42
188.051	-944.33
188.433	1648.87
188.815	253.02
189.197	353.58
189.579	333.5
189.961	301.58
190.342	207.59
190.724	211.03
191.106	285.9
191.488	788.26
191.869	-1776.11
192.251	709
192.633	-16445.45
193.014	1155.12
193.396	109.31
193.777	287.31
194.159	269.49
194.54	203.04
194.922	1610.2
195.303	294.36
195.684	641.44
196.065	516.94
196.447	508.95
196.828	238.5
197.209	243.65
197.59	31.03
197.971	164.52
198.352	8.79
198.733	-90.06
199.114	-75.91
199.495	65.9
199.876	9.85
200.257	-34.66
200.638	-13.97
201.018	-49.97
201.399	-47.89
201.78	-9.44
202.16	-12.83
202.541	-37.7
202.922	-65.68
203.302	-77.83
203.683	-64.8
204.063	-118.07
204.444	-159.81
204.824	-186.07
205.204	-80.06
205.585	-55.31
205.965	-49.25
206.345	-6.93
206.725	-140.96
207.106	-775.74
207.486	917.73
207.866	364.81
208.246	141
208.626	120.54
209.006	551.61
209.386	802.7
209.766	1873.58
210.145	310.02
210.525	589.51
210.905	-60.66
211.285	-119.47
211.664	-15.34
212.044	-20.6
212.424	-14.34
212.803	1.89
213.183	4.58
213.562	17.88
213.942	23.61
214.321	12.39
214.701	20.51
215.08	30.71
215.459	24.04
215.838	17.68
216.218	4.47
216.597	7.78
216.976	19.08
217.355	32.21
217.734	20.85
218.113	25.74
218.492	22.15
218.871	17
219.25	22.43
219.629	2.94
220.008	6.98
220.387	7.4
220.766	1.72
221.144	-17.02
221.523	-44.52
221.902	-61.94
222.28	-64.25
222.659	-84.35
223.037	-71.85
223.416	-68.32
223.794	-54.35
224.173	-41.4
224.551	-39.04
224.929	-47.34
225.308	-37.78
225.686	-34.36
226.064	-36.82
226.442	-39.69
226.821	-34.33
227.199	-36.59
227.577	-28.25
227.955	-28.06
228.333	-27.76
228.711	-21.85
229.089	-12.63
229.467	-12.95
229.845	-9.93
230.222	-4.58
230.6	-1.06
230.978	-0.7
231.356	0.57
231.733	1.36
232.111	2.35
232.488	3.49
232.866	4.6
233.243	3.01
233.621	2.08
233.998	5.64
234.376	4.92
234.753	5.36
235.13	6.83
235.508	8
235.885	9.91
236.262	9.95
236.639	8.4
237.016	6.98
237.393	8.68
237.77	7.86
238.147	5.84
238.524	6.36
238.901	6.96
239.278	6.48
239.655	6.65
240.032	6.18
240.409	5.75
240.785	5.77
241.162	6.05
241.539	6.89
241.915	6.89
242.292	6.7
242.668	6.51
243.045	6.56
243.421	6.31
243.798	5.65
244.174	5.82
244.551	5.63
244.927	5.69
245.303	5.67
245.679	5.8
246.056	5.87
246.432	5.73
246.808	5.6
247.184	5.38
247.56	5.08
247.936	5.11
248.312	5.14
248.688	5.39
249.064	5.29
249.44	5.16
249.815	5.08
250.191	5.42
250.567	5.43
250.943	5.34
251.318	5.41
251.694	5.64
252.069	5.62
252.445	5.79
252.82	5.76
253.196	5.64
253.571	5.33
253.947	5.59
254.322	5.61
254.697	5.31
255.073	5.22
255.448	5.14
255.823	5.08
256.198	5.11
256.573	4.92
256.948	5.05
257.323	5.03
257.698	5.14
258.073	5.02
258.448	5.12
258.823	5
259.198	4.92
259.573	4.76
259.948	4.68
260.322	4.74
260.697	4.7
261.072	4.71
261.446	4.86
261.821	4.75
262.195	4.77
262.57	4.73
262.944	4.7
263.319	4.69
263.693	4.67
264.067	4.69
264.442	4.68
264.816	4.59
265.19	4.56
265.564	4.34
265.938	4.15
266.313	3.89
266.687	4.19
267.061	4.24
267.435	4.36
267.809	4.47
268.183	4.52
268.556	4.49
268.93	4.64
269.304	4.65
269.678	4.75
270.051	4.69
270.425	4.88
270.799	5.1
271.172	5.24
271.546	5.23
271.919	5.13
272.293	5.06
272.666	5.13
273.04	5.06
273.413	5.05
273.787	5.08
274.16	5.26
274.533	5
274.906	4.78
275.279	4.84
275.653	4.74
276.026	4.54
276.399	4.59
276.772	4.46
277.145	4.37
277.518	4.39
277.891	4.46
278.263	4.35
278.636	4.04
279.009	3.87
279.382	3.96
279.755	3.99
280.127	4.02
280.5	4.08
280.872	4.11
281.245	4.17
281.617	4.26
281.99	4.22
282.362	4.33
282.735	4.37
283.107	4.3
283.479	4.2
283.852	4.27
284.224	4.28
284.596	4.38
284.968	4.5
285.34	4.39
285.713	4.33
286.085	4.36
286.457	4.66
286.829	4.72
287.201	4.78
287.572	4.78
287.944	4.68
288.316	4.6
288.688	4.6
289.06	4.56
289.431	4.51
289.803	4.49
290.175	4.61
290.546	4.72
290.918	4.74
291.289	4.93
291.661	5.03
292.032	4.93
292.403	4.9
292.775	4.93
293.146	5.02
293.517	5.09
293.889	5.16
294.26	5.04
294.631	5.04
295.002	4.93
295.373	4.96
295.744	4.97
296.115	4.94
296.486	4.9
296.857	4.82
297.228	4.86
297.599	4.85
297.97	4.83
298.34	4.84
298.711	4.91
299.082	4.78
299.452	4.68
299.823	4.71
300.194	4.7
300.564	4.63
300.935	4.56
301.305	4.48
301.676	4.56
302.046	4.48
302.416	4.58
302.787	4.58
303.157	4.59
303.527	4.68
303.897	4.73
304.267	5.07
304.637	5.16
305.008	5.24
305.378	5.35
305.748	5.29
306.117	5.17
306.487	5.09
306.857	5.14
307.227	5.13
307.597	5.15
307.967	5.18
308.336	5.26
308.706	5.28
309.076	5.35
309.445	5.16
309.815	5.14
310.184	5.01
310.554	5.02
310.923	4.98
311.293	4.85
311.662	4.94
312.031	4.61
312.401	4.6
312.77	4.64
313.139	4.69
313.508	4.6
313.877	4.53
314.246	4.61
314.616	4.64
314.985	4.68
315.353	4.71
315.722	4.78
316.091	4.55
316.46	4.42
316.829	4.27
317.198	4.37
317.567	4.44
317.935	4.51
318.304	4.57
318.672	4.52
319.041	4.75
319.41	4.56
319.778	4.76
320.147	4.71
320.515	4.44
320.883	4.39
321.252	4.5
321.62	4.68
321.988	4.56
322.357	4.57
322.725	4.48
323.093	4.53
323.461	4.41
323.829	4.57
324.197	4.71
324.565	4.89
324.933	4.77
325.301	4.73
325.669	4.71
326.037	4.67
326.405	4.68
326.772	4.6
327.14	4.66
327.508	4.54
327.875	4.61
328.243	4.8
328.61	4.79
328.978	4.83
329.346	4.97
329.713	4.91
330.08	4.88
330.448	4.86
330.815	4.74
331.182	4.73
331.55	4.69
331.917	4.7
332.284	4.59
332.651	4.77
333.018	4.79
333.385	4.72
333.752	4.73
334.119	4.83
334.486	4.98
334.853	4.99
335.22	4.99
335.587	4.98
335.954	4.84
336.32	4.76
336.687	4.64
337.054	4.58
337.42	4.65
337.787	4.68
338.153	4.77
338.52	4.9
338.886	4.8
339.253	4.72
339.619	4.67
339.986	4.78
340.352	4.7
340.718	4.73
341.084	4.77
341.451	4.82
341.817	4.8
342.183	4.69
342.549	4.6
342.915	4.7
343.281	4.64
343.647	4.73
344.013	4.68
344.379	4.73
344.745	4.73
345.11	4.74
345.476	4.76
345.842	4.78
346.208	4.6
346.573	4.73
346.939	4.78
347.304	4.78
347.67	4.72
348.035	4.68
348.401	4.64
348.766	4.65
349.132	4.6
349.497	4.48
349.862	4.48
350.228	4.54
350.593	4.4
350.958	4.4
351.323	4.43
351.688	4.53
352.053	4.56
352.418	4.47
352.783	4.43
353.148	4.38
353.513	4.34
353.878	4.44
354.243	4.47
354.608	4.44
354.972	4.49
355.337	4.54
355.702	4.62
356.066	4.65
356.431	4.67
356.795	4.68
357.16	4.77
357.524	4.7
357.889	4.68
358.253	4.67
358.618	4.7
358.982	4.61
359.346	4.53
359.71	4.5
360.075	4.53
360.439	4.53
360.803	4.52
361.167	4.5
361.531	4.45
361.895	4.33
362.259	4.36
362.623	4.36
362.987	4.31
363.351	4.27
363.714	4.29
364.078	4.25
364.442	4.16
364.806	4.1
365.169	4.1
365.533	4.12
365.896	4.2
366.26	4.15
366.623	4.17
366.987	4.15
367.35	4.18
367.714	4.17
368.077	4.17
368.44	4.22
368.803	4.26
369.167	4.23
369.53	4.2
369.893	4.25
370.256	4.26
370.619	4.21
370.982	4.22
371.345	4.15
371.708	4.21
372.071	4.3
372.434	4.37
372.797	4.43
373.159	4.41
373.522	4.37
373.885	4.37
374.247	4.4
374.61	4.45
374.973	4.37
375.335	4.37
375.698	4.39
376.06	4.32
376.423	4.36
376.785	4.45
377.147	4.54
377.51	4.49
377.872	4.49
378.234	4.55
378.596	4.54
378.958	4.57
379.321	4.54
379.683	4.53
380.045	4.46
380.407	4.41
380.769	4.34
381.13	4.36
381.492	4.4
381.854	4.35
382.216	4.31
382.578	4.35
382.939	4.31
383.301	4.29
383.663	4.28
384.024	4.25
384.386	4.25
384.747	4.26
385.109	4.23
385.47	4.15
385.832	4.13
386.193	4.19
386.554	4.18
386.916	4.16
387.277	4.16
387.638	4.19
387.999	4.18
388.36	4.23
388.721	4.21
389.082	4.21
389.443	4.2
389.804	4.24
390.165	4.19
390.526	4.21
390.887	4.19
391.248	4.23
391.609	4.21
391.969	4.18
392.33	4.15
392.691	4.17
393.051	4.19
393.412	4.2
393.772	4.18
394.133	4.19
394.493	4.19
394.854	4.19
395.214	4.16
395.574	4.2
395.935	4.21
396.295	4.26
396.655	4.27
397.015	4.29
397.376	4.29
397.736	4.32
398.096	4.34
398.456	4.36
398.816	4.37
399.176	4.36
399.535	4.35
399.895	4.36
400.255	4.37
400.615	4.41
400.975	4.38
401.334	4.36
401.694	4.35
402.054	4.36
402.413	4.36
402.773	4.34
403.132	4.31
403.492	4.31
403.851	4.29
404.211	4.28
404.57	4.27
404.929	4.26
405.288	4.24
405.648	4.24
406.007	4.22
406.366	4.23
406.725	4.24
407.084	4.25
407.443	4.26
407.802	4.25
408.161	4.23
408.52	4.21
408.879	4.2
409.238	4.21
409.596	4.21
409.955	4.2
410.314	4.25
410.673	4.24
411.031	4.2
411.39	4.21
411.748	4.2
412.107	4.19
412.465	4.21
412.824	4.25
413.182	4.25
413.54	4.25
413.899	4.25
414.257	4.25
414.615	4.28
414.974	4.28
415.332	4.28
415.69	4.26
416.048	4.27
416.406	4.28
416.764	4.24
417.122	4.25
417.48	4.23
417.838	4.2
418.195	4.22
418.553	4.21
418.911	4.2
419.269	4.18
419.626	4.19
419.984	4.17
420.342	4.16
420.699	4.18
421.057	4.18
421.414	4.17
421.772	4.16
422.129	4.15
422.486	4.14
422.844	4.16
423.201	4.15
423.558	4.16
423.915	4.16
424.273	4.16
424.63	4.14
424.987	4.15
425.344	4.16
425.701	4.15
426.058	4.17
426.415	4.17
426.772	4.18
427.128	4.18
427.485	4.19
427.842	4.2
428.199	4.18
428.555	4.18
428.912	4.19
429.269	4.21
429.625	4.2
429.982	4.2
430.338	4.18
430.695	4.19
431.051	4.17
431.407	4.16
431.764	4.2
432.12	4.19
432.476	4.19
432.832	4.17
433.189	4.17
433.545	4.18
433.901	4.16
434.257	4.16
434.613	4.17
434.969	4.15
435.325	4.15
435.681	4.14
436.036	4.15
436.392	4.14
436.748	4.12
437.104	4.12
437.459	4.11
437.815	4.1
438.171	4.1
438.526	4.1
438.882	4.12
439.237	4.11
439.593	4.13
439.948	4.12
440.304	4.13
440.659	4.13
441.014	4.13
441.369	4.13
441.725	4.12
442.08	4.13
442.435	4.11
442.79	4.11
443.145	4.11
443.5	4.1
443.855	4.1
444.21	4.12
444.565	4.13
444.92	4.12
445.275	4.12
445.629	4.13
445.984	4.12
446.339	4.11
446.693	4.12
447.048	4.1
447.403	4.1
447.757	4.09
448.112	4.08
448.466	4.09
448.82	4.09
449.175	4.1
449.529	4.09
449.883	4.11
450.238	4.1
450.592	4.12
450.946	4.1
451.3	4.08
451.654	4.09
452.008	4.1
452.362	4.11
452.716	4.1
453.07	4.11
453.424	4.12
453.778	4.12
454.132	4.1
454.486	4.1
454.839	4.13
455.193	4.12
455.547	4.13
455.9	4.13
456.254	4.14
456.607	4.13
456.961	4.12
457.314	4.12
457.668	4.12
458.021	4.11
458.375	4.13
458.728	4.15
459.081	4.13
459.434	4.12
459.787	4.12
460.141	4.12
460.494	4.11
460.847	4.14
461.2	4.14
461.553	4.16
461.906	4.18
462.259	4.18
462.611	4.19
462.964	4.2
463.317	4.19
463.67	4.19
464.022	4.18
464.375	4.2
464.728	4.21
465.08	4.2
465.433	4.21
465.785	4.19
466.138	4.19
466.49	4.2
466.843	4.19
467.195	4.19
467.547	4.23
467.899	4.22
468.252	4.2
468.604	4.21
468.956	4.19
469.308	4.18
469.66	4.15
470.012	4.18
470.364	4.18
470.716	4.19
471.068	4.2
471.42	4.2
471.772	4.21
472.123	4.22
472.475	4.24
472.827	4.23
473.178	4.25
473.53	4.22
473.882	4.22
474.233	4.23
474.585	4.22
474.936	4.2
475.288	4.2
475.639	4.22
475.99	4.22
476.342	4.23
476.693	4.24
477.044	4.26
477.395	4.26
477.746	4.24
478.097	4.25
478.448	4.25
478.8	4.26
479.15	4.25
479.501	4.26
479.852	4.28
480.203	4.27
480.554	4.27
480.905	4.29
481.255	4.29
481.606	4.27
481.957	4.28
482.307	4.29
482.658	4.3
483.009	4.3
483.359	4.29
483.709	4.28
484.06	4.28
484.41	4.28
484.761	4.28
485.111	4.29
485.461	4.28
485.811	4.28
486.162	4.28
486.512	4.29
486.862	4.29
487.212	4.28
487.562	4.29
487.912	4.3
488.262	4.28
488.612	4.29
488.961	4.28
489.311	4.29
489.661	4.28
490.011	4.27
490.36	4.26
490.71	4.28
491.06	4.28
491.409	4.28
491.759	4.29
492.108	4.27
492.458	4.27
492.807	4.29
493.157	4.29
493.506	4.29
493.855	4.29
494.204	4.3
494.554	4.29
494.903	4.27
495.252	4.26
495.601	4.29
495.95	4.29
496.299	4.31
496.648	4.31
496.997	4.33
497.346	4.34
497.695	4.35
498.043	4.34
498.392	4.33
498.741	4.34
499.09	4.33
499.438	4.34
499.787	4.35
500.135	4.35
500.484	4.35
500.832	4.35
501.181	4.35
501.529	4.35
501.878	4.36
502.226	4.39
502.574	4.39
502.923	4.38
503.271	4.37
503.619	4.38
503.967	4.38
504.315	4.38
504.663	4.38
505.011	4.39
505.359	4.37
505.707	4.38
506.055	4.4
506.403	4.41
506.751	4.44
507.098	4.45
507.446	4.46
507.794	4.48
508.141	4.5
508.489	4.52
508.837	4.52
509.184	4.53
509.531	4.53
509.879	4.55
510.226	4.59
510.574	4.61
510.921	4.6
511.268	4.59
511.616	4.61
511.963	4.62
512.31	4.61
512.657	4.63
513.004	4.65
513.351	4.64
513.698	4.64
514.045	4.6
514.392	4.6
514.739	4.6
515.086	4.59
515.432	4.58
515.779	4.56
516.126	4.55
516.473	4.56
516.819	4.56
517.166	4.57
517.512	4.55
517.859	4.55
518.205	4.56
518.552	4.58
518.898	4.59
519.245	4.58
519.591	4.58
519.937	4.58
520.283	4.59
520.629	4.6
520.976	4.62
521.322	4.65
521.668	4.66
522.014	4.66
522.36	4.66
522.706	4.67
523.052	4.69
523.398	4.7
523.743	4.7
524.089	4.72
524.435	4.72
524.781	4.73
525.126	4.73
525.472	4.74
525.817	4.74
526.163	4.73
526.509	4.73
526.854	4.74
527.199	4.75
527.545	4.74
527.89	4.75
528.235	4.75
528.581	4.74
528.926	4.75
529.271	4.76
529.616	4.76
529.961	4.75
530.306	4.75
530.651	4.74
530.996	4.76
531.341	4.74
531.686	4.74
532.031	4.74
532.376	4.75
532.721	4.74
533.065	4.75
533.41	4.76
533.755	4.77
534.099	4.77
534.444	4.79
534.788	4.8
535.133	4.79
535.477	4.8
535.822	4.81
536.166	4.82
536.51	4.8
536.855	4.82
537.199	4.83
537.543	4.84
537.887	4.85
538.231	4.82
538.576	4.84
538.92	4.84
539.264	4.85
539.608	4.84
539.951	4.85
540.295	4.86
540.639	4.86
540.983	4.86
541.327	4.86
541.671	4.85
542.014	4.85
542.358	4.84
542.701	4.86
543.045	4.84
543.389	4.84
543.732	4.85
544.075	4.85
544.419	4.83
544.762	4.84
545.105	4.85
545.449	4.86
545.792	4.87
546.135	4.88
546.478	4.88
546.821	4.88
547.165	4.88
547.508	4.9
547.851	4.86
548.194	4.86
548.536	4.85
548.879	4.86
549.222	4.86
549.565	4.87
549.908	4.86
550.25	4.87
550.593	4.86
550.936	4.86
551.278	4.86
551.621	4.89
551.963	4.92
552.306	4.93
552.648	4.96
552.991	4.98
553.333	5
553.675	5
554.017	5.01
554.36	5.01
554.702	4.98
555.044	5.01
555.386	5.03
555.728	5.07
556.07	5.05
556.412	5.05
556.754	5.04
557.096	5.01
557.438	5.03
557.78	5.04
558.121	5.04
558.463	5.07
558.805	5.1
559.147	5.08
559.488	5.07
559.83	5.03
560.171	4.99
560.513	5.01
560.854	5
561.196	4.97
561.537	4.98
561.878	4.96
562.22	4.96
562.561	4.94
562.902	4.94
563.243	4.96
563.584	4.96
563.925	4.98
564.266	5.01
564.607	5.01
564.948	5
565.289	4.99
565.63	4.95
565.971	4.91
566.312	4.91
566.653	4.9
566.993	4.91
567.334	4.89
567.675	4.88
568.015	4.9
568.356	4.91
568.696	4.91
569.037	4.93
569.377	4.95
569.718	4.95
570.058	4.96
570.398	4.96
570.739	4.98
571.079	4.96
571.419	4.94
571.759	4.94
572.099	4.92
572.439	4.9
572.779	4.94
573.119	4.97
573.459	4.96
573.799	4.98
574.139	4.98
574.479	5.03
574.819	5
575.158	4.98
575.498	5.01
575.838	5.01
576.177	5.02
576.517	4.96
576.856	4.97
577.196	4.95
577.535	4.96
577.875	4.93
578.214	4.94
578.553	4.99
578.893	4.98
579.232	5.02
579.571	5.05
579.91	5.03
580.25	5.04
580.589	5.03
580.928	5.05
581.267	5.07
581.606	5.06
581.945	5.04
582.283	5.06
582.622	5.07
582.961	5.07
583.3	5.06
583.639	5.1
583.977	5.09
584.316	5.1
584.654	5.1
584.993	5.12
585.332	5.12
585.67	5.12
586.008	5.11
586.347	5.11
586.685	5.12
587.024	5.11
587.362	5.13
587.7	5.15
588.038	5.12
588.376	5.09
588.715	5.04
589.053	5.11
589.391	5.1
589.729	5.11
590.067	5.08
590.404	5.08
590.742	5.11
591.08	5.13
591.418	5.14
591.756	5.12
592.093	5.13
592.431	5.12
592.769	5.11
593.106	5.16
593.444	5.17
593.781	5.18
594.119	5.21
594.456	5.18
594.793	5.2
595.131	5.17
595.468	5.16
595.805	5.2
596.143	5.19
596.48	5.18
596.817	5.16
597.154	5.17
597.491	5.16
597.828	5.14
598.165	5.13
598.502	5.13
598.839	5.14
599.176	5.12
599.512	5.14
599.849	5.12
600.186	5.1
600.523	5.12
600.859	5.14
601.196	5.14
601.532	5.15
601.869	5.11
602.205	5.14
602.542	5.16
602.878	5.13
603.215	5.14
603.551	5.18
603.887	5.18
604.223	5.21
604.56	5.2
604.896	5.2
605.232	5.21
605.568	5.19
605.904	5.19
606.24	5.19
606.576	5.19
606.912	5.2
607.248	5.2
607.583	5.18
607.919	5.15
608.255	5.12
608.591	5.12
608.926	5.16
609.262	5.2
609.597	5.19
609.933	5.23
610.268	5.23
610.604	5.23
610.939	5.26
611.275	5.26
611.61	5.27
611.945	5.28
612.281	5.26
612.616	5.27
612.951	5.31
613.286	5.36
613.621	5.32
613.956	5.3
614.291	5.31
614.626	5.3
614.961	5.3
615.296	5.33
615.631	5.32
615.966	5.26
616.3	5.26
616.635	5.28
616.97	5.26
617.304	5.24
617.639	5.22
617.973	5.16
618.308	5.17
618.642	5.17
618.977	5.22
619.311	5.19
619.646	5.24
619.98	5.21
620.314	5.19
620.648	5.24
620.983	5.24
621.317	5.27
621.651	5.29
621.985	5.33
622.319	5.38
622.653	5.39
622.987	5.43
623.321	5.44
623.655	5.48
623.988	5.51
624.322	5.52
624.656	5.5
624.99	5.55
625.323	5.54
625.657	5.55
625.99	5.54
626.324	5.59
626.657	5.58
626.991	5.6
627.324	5.59
627.658	5.58
627.991	5.57
628.324	5.56
628.657	5.56
628.991	5.55
629.324	5.52
629.657	5.52
629.99	5.56
630.323	5.46
630.656	5.44
630.989	5.48
631.322	5.46
631.655	5.48
631.987	5.49
632.32	5.49
632.653	5.46
632.986	5.48
633.318	5.45
633.651	5.45
633.984	5.45
634.316	5.53
634.649	5.5
634.981	5.5
635.313	5.48
635.646	5.51
635.978	5.55
636.31	5.58
636.643	5.61
636.975	5.62
637.307	5.68
637.639	5.73
637.971	5.65
638.303	5.65
638.635	5.63
638.967	5.61
639.299	5.62
639.631	5.63
639.963	5.59
640.295	5.65
640.626	5.66
640.958	5.64
641.29	5.61
641.621	5.64
641.953	5.67
642.285	5.71
642.616	5.73
642.948	5.67
643.279	5.69
643.61	5.63
643.942	5.64
644.273	5.64
644.604	5.52
644.936	5.48
645.267	5.47
645.598	5.45
645.929	5.46
646.26	5.46
646.591	5.5
646.922	5.5
647.253	5.49
647.584	5.44
647.915	5.39
648.245	5.38
648.576	5.43
648.907	5.42
649.238	5.39
649.568	5.35
649.899	5.35
650.229	5.32
650.56	5.32
650.89	5.25
651.221	5.29
651.551	5.37
651.882	5.4
652.212	5.43
652.542	5.45
652.872	5.45
653.203	5.4
653.533	5.39
653.863	5.44
654.193	5.43
654.523	5.43
654.853	5.52
655.183	5.53
655.513	5.44
655.843	5.46
656.172	5.47
656.502	5.42
656.832	5.42
657.162	5.44
657.491	5.43
657.821	5.43
658.15	5.43
658.48	5.42
658.809	5.43
659.139	5.42
659.468	5.43
659.798	5.42
660.127	5.45
660.456	5.49
660.785	5.47
661.115	5.49
661.444	5.56
661.773	5.57
662.102	5.55
662.431	5.67
662.76	5.69
663.089	5.67
663.418	5.69
663.747	5.68
664.076	5.67
664.404	5.66
664.733	5.81
665.062	5.78
665.39	5.81
665.719	5.84
666.048	5.86
666.376	5.85
666.705	5.86
667.033	5.87
667.362	5.86
667.69	5.89
668.018	5.76
668.347	5.69
668.675	5.66
669.003	5.7
669.331	5.68
669.659	5.62
669.987	5.66
670.315	5.69
670.643	5.74
670.971	5.71
671.299	5.81
671.627	5.72
671.955	5.74
672.283	5.7
672.61	5.71
672.938	5.74
673.266	5.8
673.593	5.89
673.921	5.9
674.249	5.91
674.576	5.88
674.904	5.96
675.231	5.99
675.558	6.06
675.886	6.13
676.213	6.02
676.54	6.07
676.867	6.03
677.195	6.09
677.522	6.07
677.849	6.11
678.176	6.02
678.503	6.03
678.83	6.02
679.157	5.93
679.484	5.85
679.81	5.84
680.137	5.78
680.464	5.68
680.791	5.62
681.117	5.54
681.444	5.49
681.771	5.54
682.097	5.51
682.424	5.51
682.75	5.38
683.077	5.41
683.403	5.46
683.729	5.45
684.056	5.43
684.382	5.46
684.708	5.48
685.034	5.51
685.36	5.54
685.686	5.54
686.012	5.77
686.339	5.87
686.664	5.92
686.99	5.98
687.316	6.04
687.642	6.09
687.968	6.17
688.294	6.28
688.619	6.27
688.945	6.27
689.271	6.13
689.596	6.15
689.922	6.27
690.247	6.07
690.573	6.12
690.898	6.11
691.224	6.18
691.549	6.05
691.874	6.02
692.2	5.98
692.525	5.97
692.85	5.88
693.175	5.83
693.5	5.78
693.825	5.79
694.15	5.75
694.475	5.72
694.8	5.66
695.125	5.62
695.45	5.6
695.775	5.65
696.099	5.66
696.424	5.67
696.749	5.55
697.073	5.64
697.398	5.73
697.723	5.75
698.047	5.67
698.372	5.74
698.696	5.7
699.02	5.64
699.345	5.62
699.669	5.7
699.993	5.71
700.318	5.77
700.642	5.78
700.966	5.8
701.29	5.85
701.614	5.89
701.938	5.85
702.262	5.95
702.586	5.99
702.91	6.02
703.234	6.05
703.557	6.19
703.881	6.18
704.205	6.12
704.529	5.97
704.852	5.99
705.176	6.07
705.499	6.09
705.823	6.1
706.146	6.23
706.47	6.14
706.793	6.09
707.117	6.03
707.44	6.01
707.763	6.12
708.086	6.19
708.409	6.12
708.733	6.22
709.056	6.19
709.379	6.24
709.702	6.31
710.025	6.25
710.348	6.24
710.671	6.29
710.993	6.29
711.316	6.49
711.639	6.55
711.962	6.55
712.284	6.62
712.607	6.69
712.93	6.62
713.252	6.57
713.575	6.62
713.897	6.52
714.22	6.5
714.542	6.34
714.864	6.31
715.187	6.33
715.509	6.32
715.831	6.31
716.153	6.29
716.475	6.23
716.798	6.37
717.12	6.25
717.442	6.34
717.764	6.24
718.085	6.12
718.407	6.13
718.729	6.14
719.051	6.21
719.373	6.19
719.695	6.16
720.016	6.18
720.338	6.43
720.659	6.67
720.981	6.74
721.302	6.81
721.624	6.72
721.945	6.79
722.267	6.79
722.588	6.65
722.909	6.63
723.231	6.66
723.552	6.5
723.873	6.75
724.194	6.61
724.515	6.63
724.836	6.67
725.157	6.66
725.478	6.57
725.799	6.6
726.12	6.53
726.441	6.53
726.762	6.62
727.083	6.31
727.403	6.24
727.724	6.28
728.045	6.46
728.365	6.47
728.686	6.47
729.006	6.6
729.327	6.64
729.647	6.51
729.967	6.58
730.288	6.69
730.608	6.47
730.928	6.57
731.249	6.65
731.569	6.78
731.889	6.8
732.209	6.8
732.529	6.67
732.849	6.78
733.169	6.78
733.489	6.71
733.809	6.72
734.129	6.67
734.448	6.67
734.768	6.36
735.088	6.46
735.408	6.53
735.727	6.4
736.047	6.62
736.366	6.63
736.686	6.63
737.005	6.62
737.325	6.5
737.644	6.49
737.963	6.45
738.283	6.2
738.602	6.29
738.921	6.35
739.24	6.57
739.56	6.55
739.879	6.65
740.198	6.76
740.517	6.76
740.836	6.71
741.155	6.61
741.473	6.86
741.792	7
742.111	6.95
742.43	6.95
742.748	6.74
743.067	6.85
743.386	6.75
743.704	6.9
744.023	7.22
744.341	7.23
744.66	7.39
744.978	7.5
745.297	7.28
745.615	7.31
745.933	7.2
746.252	7.16
746.57	7.19
746.888	7.07
747.206	7.09
747.524	7.3
747.842	7.54
748.16	7.6
748.478	7.35
748.796	7.45
749.114	7.85
749.432	7.97
749.749	8.17
750.067	8.14
750.385	7.67
750.703	7.57
751.02	7.46
751.338	7.51
751.655	7.43
751.973	7.56
752.29	7.51
752.608	7.62
752.925	7.61
753.242	7.79
753.56	7.71
753.877	7.7
754.194	7.71
754.511	7.43
754.828	7.13
755.145	7.21
755.462	7.23
755.779	6.93
756.096	7.02
756.413	6.99
756.73	7.23
757.047	7.73
757.364	7.58
757.68	7.8
757.997	7.43
758.314	7.39
758.63	7.33
758.947	7.4
759.264	7.08
759.58	7.12
759.896	7.02
760.213	7.03
760.529	7.05
760.846	6.97
761.162	7.03
761.478	7.31
761.794	7.39
762.11	7.33
762.426	7.46
762.743	7.52
763.059	7.69
763.375	7.79
763.69	7.74
764.006	7.9
764.322	7.71
764.638	7.94
764.954	8.13
765.27	8.23
765.585	8.15
765.901	8.42
766.216	8.59
766.532	8.49
766.848	8.44
767.163	8.52
767.478	8.59
767.794	8.54
768.109	8.25
768.424	8.19
768.74	8.32
769.055	8.21
769.37	7.92
769.685	7.48
770	7.53
770.315	7.57
770.63	7.61
770.945	7.63
771.26	7.65
771.575	7.7
771.89	7.49
772.205	7.57
772.52	7.32
772.834	6.94
773.149	6.86
773.464	6.94
773.778	6.92
774.093	6.84
774.407	7.13
774.722	7.71
775.036	7.81
775.351	7.7
775.665	7.53
775.979	7.76
776.293	8.12
776.608	7.78
776.922	7.45
777.236	7.38
777.55	7.66
777.864	7.82
778.178	8.09
778.492	8.42
778.806	8.29
779.12	8.26
779.434	8.26
779.747	8.6
780.061	9.09
780.375	9.33
780.689	9.77
781.002	9.79
781.316	9.46
781.629	10.03
781.943	9.89
782.256	10.13
782.57	10.2
782.883	9.96
783.196	9.68
783.51	9.74
783.823	9.78
784.136	10.17
784.449	10.04
784.762	9.53
785.075	9.21
785.388	9.4
785.701	9.87
786.014	9.89
786.327	9.75
786.64	9.38
786.953	9.51
787.266	8.88
787.578	8.69
787.891	9.03
788.204	8.37
788.516	8.47
788.829	8.2
789.141	8.06
789.454	8.12
789.766	8.78
790.079	8.96
790.391	8.73
790.703	8.67
791.016	8.57
791.328	8.8
791.64	9.18
791.952	9.04
792.264	8.6
792.576	8.87
792.888	9.11
793.2	9.3
793.512	9.02
793.824	9.49
794.136	9.76
794.448	9.58
794.76	9.73
795.071	10.32
795.383	10.21
795.695	10.02
796.006	10.34
796.318	10.11
796.629	10.21
796.941	10.15
797.252	10.16
797.564	10.31
797.875	10.5
798.186	10.54
798.497	10.74
798.809	10.6
799.12	10.13
799.431	9.62
799.742	9.36
800.053	9.6
800.364	9.11
800.675	8.68
800.986	8.84
801.297	8.07
801.608	7.37
801.918	7.78
802.229	8.21
802.54	8.17
802.851	7.81
803.161	7.5
803.472	8.41
803.782	8.37
804.093	8.34
804.403	7.81
804.714	7.6
805.024	7.98
805.334	8.28
805.645	8.61
805.955	9.45
806.265	9.79
806.575	9.31
806.885	9.2
807.195	9.86
807.505	9.97
807.815	10.75
808.125	11.04
808.435	11.27
808.745	10.7
809.055	10.61
809.365	10.52
809.674	10.52
809.984	9.9
810.294	9.01
810.603	9.28
810.913	9.26
811.222	9.31
811.532	9.05
811.841	9.64
812.151	9.89
812.46	9.11
812.769	8.95
813.079	9.51
813.388	10.55
813.697	10.56
814.006	9.73
814.315	10.32
814.624	10.38
814.933	10.15
815.242	11.16
815.551	10.96
815.86	11.02
816.169	10.85
816.478	10.17
816.786	10.67
817.095	10.54
817.404	11.19
817.712	11.37
818.021	11.08
818.33	10.49
818.638	10.41
818.947	11.22
819.255	11.36
819.563	11.15
819.872	11
820.18	10.75
820.488	10.95
820.796	10.5
821.105	10.45
821.413	10.28
821.721	10.1
822.029	9.97
822.337	10.04
822.645	10.19
822.953	10.31
823.26	10.4
823.568	10.47
823.876	10.36
824.184	10.28
824.491	10.3
824.799	10.34
825.107	10.37
825.414	10.27
825.722	10.17
826.029	10.24
826.337	10.28
826.644	10.24
826.951	10.23
827.259	10.22
827.566	10.07
827.873	10.19
828.18	10.23
828.488	10.48
828.795	10.54
829.102	10.59
829.409	10.89
829.716	10.64
830.023	10.38
830.329	10.42
830.636	10.43
830.943	10.47
831.25	10.28
831.557	10.6
831.863	10.54
832.17	10.4
832.476	10.59
832.783	10.58
833.089	10.57
833.396	10.66
833.702	11.45
834.009	11.72
834.315	11.9
834.621	11.69
834.928	11.46
835.234	11.77
835.54	11.35
835.846	10.93
836.152	11.14
836.458	11.14
836.764	11.58
837.07	10.98
837.376	10.5
837.682	11.22
837.988	10.63
838.293	10.6
838.599	10.43
838.905	9.43
839.211	9.33
839.516	9.48
839.822	10
840.127	8.49
840.433	7.86
840.738	7.66
841.044	7.54
841.349	7.83
841.654	7.42
841.959	8.22
842.265	8.47
842.57	9.65
842.875	9.99
843.18	9.68
843.485	11.22
843.79	12.19
844.095	11.46
844.4	12.53
844.705	11.01
845.01	12.12
845.315	12.66
845.619	11.83
845.924	13.29
846.229	12.48
846.533	14.9
846.838	16.06
847.142	17.1
847.447	18.26
847.751	17.74
848.056	16.38
848.36	16.68
848.664	18.56
848.969	17.65
849.273	16.9
849.577	15.56
849.881	15.87
850.185	17.38
850.489	16.91
850.794	15.04
851.097	17.56
851.401	18.79
851.705	17.28
852.009	18.23
852.313	18.1
852.617	17.61
852.92	17.96
853.224	17.72
853.528	15.95
853.831	15.83
854.135	16.61
854.438	19.66
854.742	21.11
855.045	21.13
855.349	20.37
855.652	19.15
855.955	19.44
856.259	17.62
856.562	17.12
856.865	17.04
857.168	17.06
857.471	17.53
857.774	17
858.077	18.76
858.38	19.02
858.683	17.62
858.986	17.03
859.289	14.38
859.592	14.63
859.894	14.21
860.197	13.12
860.5	13.31
860.802	10.69
861.105	8.4
861.407	6.37
861.71	4.8
862.012	7.76
862.315	6.42
862.617	6.15
862.919	7.04
863.222	8.67
863.524	9.51
863.826	10.94
864.128	11.22
864.43	12.93
864.732	11.6
865.034	11.11
865.336	11.59
865.638	11
865.94	10.71
866.242	11.54
866.544	11.32
866.846	10.38
867.147	12.25
867.449	13.48
867.751	14.13
868.052	16.88
868.354	18.11
868.655	19.76
868.957	20.61
869.258	18.58
869.56	19.09
869.861	19.19
870.162	15.81
870.463	15.27
870.765	14.65
871.066	14.6
871.367	13.76
871.668	13.97
871.969	15.71
872.27	15.52
872.571	14.66
872.872	16.17
873.173	16.02
873.473	16.67
873.774	15.8
874.075	15.74
874.376	11.26
874.676	9.27
874.977	9.33
875.277	9.99
875.578	11.19
875.878	9.74
876.179	9.17
876.479	10.24
876.78	8.79
877.08	8.26
877.38	8.83
877.68	10.04
877.981	10.6
878.281	9.78
878.581	11.24
