Data from BU26847_Reflection_00009.txt Node
Date: Mon Nov 18 16:40:59 EST 2019
User: vgr7
Spectrometer: USB2G7710
Scans to average: 3
Trigger mode: 4
Integration Time (sec): 2.000000E-2
Electric dark correction enabled: true
Boxcar width: 10
XAxis mode: Wavelengths
Number of Pixels in Spectrum: 2048
>>>>>Begin Spectral Data<<<<<
177.721	76.22
178.105	218.64
178.488	2688.24
178.871	86.49
179.254	-39.53
179.636	10.96
180.019	80.3
180.402	94.74
180.785	441.46
181.168	912.5
181.55	2100
181.933	216.36
182.316	201.33
182.698	254.8
183.081	182.24
183.463	393.84
183.846	282.89
184.228	493.78
184.611	1554.55
184.993	28766.67
185.376	454.61
185.758	-21900
186.14	1588.37
186.522	1631.91
186.904	-1152.75
187.287	-1571.64
187.669	-209.47
188.051	-323.79
188.433	-149.31
188.815	-89.75
189.197	-112.94
189.579	-101.77
189.961	-94.11
190.342	-67.41
190.724	-27.66
191.106	-19.67
191.488	-13.77
191.869	-14.09
192.251	-68.63
192.633	-91.97
193.014	-97.18
193.396	-117.11
193.777	-131.26
194.159	-121.38
194.54	-114.54
194.922	-106.19
195.303	-115.34
195.684	-152.84
196.065	-139.76
196.447	-205.6
196.828	-261.27
197.209	-242.64
197.59	-265.34
197.971	-359.02
198.352	-193.14
198.733	-254.38
199.114	-272.21
199.495	-191.12
199.876	-155.16
200.257	-85.14
200.638	-66.42
201.018	-85.98
201.399	-78.62
201.78	-46.21
202.16	-116.4
202.541	-212.35
202.922	-1900
203.302	-3486.21
203.683	749.68
204.063	434.38
204.444	406.05
204.824	444.32
205.204	517.78
205.585	573.03
205.965	606.12
206.345	418.77
206.725	343.3
207.106	418.5
207.486	362.7
207.866	396.85
208.246	691.64
208.626	1302.45
209.006	655.93
209.386	604.62
209.766	1127.62
210.145	930.6
210.525	1235.14
210.905	-791.72
211.285	-678.38
211.664	-249.87
212.044	-208.43
212.424	-182.56
212.803	-181.98
213.183	-155.4
213.562	-120.88
213.942	-69.61
214.321	-69.34
214.701	-61.24
215.08	-84.35
215.459	-29.03
215.838	-32.82
216.218	-50.7
216.597	-52.09
216.976	-50.64
217.355	-30.14
217.734	-63.11
218.113	-75.48
218.492	-95.12
218.871	-85.9
219.25	-81.01
219.629	-90.22
220.008	-97.91
220.387	-81.98
220.766	-81.1
221.144	-85.34
221.523	-86.88
221.902	-97.04
222.28	-115.98
222.659	-90.27
223.037	-78.44
223.416	-93.34
223.794	-79.62
224.173	-60.1
224.551	-59.38
224.929	-47.17
225.308	-48.78
225.686	-31.38
226.064	-19.6
226.442	-13.07
226.821	-5.8
227.199	-5.99
227.577	-11.81
227.955	-9.85
228.333	-10.89
228.711	-10.56
229.089	-4.5
229.467	-4.82
229.845	-6.47
230.222	-2.43
230.6	-2.78
230.978	-4.42
231.356	-3.97
231.733	-3.12
232.111	-5.19
232.488	-5.39
232.866	-5.91
233.243	-5.17
233.621	-5.9
233.998	-5.8
234.376	-6.29
234.753	-9.16
235.13	-7.57
235.508	-4.12
235.885	-5.69
236.262	-6.22
236.639	-5.49
237.016	-6.06
237.393	-3.58
237.77	-1.29
238.147	-0.87
238.524	0.05
238.901	1.56
239.278	1.54
239.655	1.68
240.032	1.84
240.409	2.1
240.785	2.14
241.162	2.9
241.539	3.15
241.915	3.18
242.292	2.51
242.668	2.7
243.045	2.62
243.421	2.29
243.798	2.57
244.174	2.45
244.551	2.74
244.927	2.76
245.303	2.55
245.679	2.55
246.056	2.46
246.432	2.29
246.808	2.06
247.184	2.27
247.56	2.02
247.936	2.31
248.312	2.52
248.688	2.62
249.064	2.47
249.44	2.36
249.815	2.09
250.191	2.27
250.567	2.53
250.943	2.27
251.318	2.37
251.694	2.4
252.069	2.42
252.445	2.23
252.82	2.15
253.196	2.26
253.571	2.17
253.947	1.96
254.322	1.8
254.697	1.86
255.073	1.62
255.448	1.86
255.823	1.94
256.198	1.94
256.573	2.1
256.948	2.24
257.323	2.77
257.698	2.95
258.073	3.08
258.448	2.99
258.823	3.31
259.198	3.22
259.573	3.25
259.948	3.22
260.322	3.38
260.697	3.43
261.072	3.32
261.446	3.36
261.821	3.42
262.195	3.61
262.57	3.54
262.944	3.4
263.319	3.57
263.693	3.51
264.067	3.66
264.442	3.63
264.816	3.68
265.19	3.24
265.564	3.3
265.938	3.04
266.313	2.93
266.687	2.71
267.061	2.86
267.435	2.83
267.809	2.56
268.183	2.48
268.556	2.51
268.93	2.64
269.304	2.66
269.678	2.77
270.051	2.83
270.425	3
270.799	3.01
271.172	2.9
271.546	2.95
271.919	2.8
272.293	2.8
272.666	2.73
273.04	2.85
273.413	2.73
273.787	2.77
274.16	2.89
274.533	2.98
274.906	2.86
275.279	2.92
275.653	3.16
276.026	3.08
276.399	3.14
276.772	3.12
277.145	2.93
277.518	2.88
277.891	2.85
278.263	2.59
278.636	2.78
279.009	2.77
279.382	2.87
279.755	2.9
280.127	3
280.5	3
280.872	3.06
281.245	2.86
281.617	3.04
281.99	3.12
282.362	3.1
282.735	3.14
283.107	3.09
283.479	3.18
283.852	3.23
284.224	3.13
284.596	3.03
284.968	3.24
285.34	3.34
285.713	3.35
286.085	3.47
286.457	3.65
286.829	3.73
287.201	3.74
287.572	3.66
287.944	3.58
288.316	3.53
288.688	3.38
289.06	3.61
289.431	3.64
289.803	3.64
290.175	3.75
290.546	3.75
290.918	3.84
291.289	3.82
291.661	3.83
292.032	3.95
292.403	4.12
292.775	4.12
293.146	4.07
293.517	3.95
293.889	4.11
294.26	4
294.631	4
295.002	3.98
295.373	4.05
295.744	4.02
296.115	4.22
296.486	4.39
296.857	4.34
297.228	4.39
297.599	4.42
297.97	4.31
298.34	4.36
298.711	4.42
299.082	4.46
299.452	4.54
299.823	4.56
300.194	4.62
300.564	4.61
300.935	4.69
301.305	4.84
301.676	4.88
302.046	4.89
302.416	4.92
302.787	5.05
303.157	5.16
303.527	5.35
303.897	5.22
304.267	5.47
304.637	5.65
305.008	5.64
305.378	5.74
305.748	5.98
306.117	6
306.487	6.05
306.857	6.21
307.227	6.21
307.597	6.28
307.967	6.38
308.336	6.41
308.706	6.5
309.076	6.46
309.445	6.49
309.815	6.56
310.184	6.66
310.554	6.74
310.923	6.93
311.293	7
311.662	7.15
312.031	7.05
312.401	7.13
312.77	7.32
313.139	7.33
313.508	7.33
313.877	7.58
314.246	7.63
314.616	7.68
314.985	7.82
315.353	7.87
315.722	8.03
316.091	8.12
316.46	8.13
316.829	8.33
317.198	8.42
317.567	8.5
317.935	8.53
318.304	8.68
318.672	8.48
319.041	8.56
319.41	8.51
319.778	8.65
320.147	8.66
320.515	8.54
320.883	8.61
321.252	8.73
321.62	8.73
321.988	8.71
322.357	8.73
322.725	8.74
323.093	8.69
323.461	8.54
323.829	8.65
324.197	8.83
324.565	8.94
324.933	8.96
325.301	9.05
325.669	9.24
326.037	9.02
326.405	9.2
326.772	9.28
327.14	9.46
327.508	9.45
327.875	9.56
328.243	9.69
328.61	9.8
328.978	9.81
329.346	9.91
329.713	10.05
330.08	10.13
330.448	10.29
330.815	10.48
331.182	10.55
331.55	10.63
331.917	10.65
332.284	10.66
332.651	10.85
333.018	10.89
333.385	10.85
333.752	11.05
334.119	11.04
334.486	11.08
334.853	11.05
335.22	11.17
335.587	11.21
335.954	11.27
336.32	11.19
336.687	11.25
337.054	11.12
337.42	11.21
337.787	11.24
338.153	11.15
338.52	11.22
338.886	11.3
339.253	11.34
339.619	11.31
339.986	11.22
340.352	11.17
340.718	11.18
341.084	11.24
341.451	11.36
341.817	11.39
342.183	11.35
342.549	11.46
342.915	11.45
343.281	11.47
343.647	11.51
344.013	11.62
344.379	11.68
344.745	11.74
345.11	11.64
345.476	11.66
345.842	11.8
346.208	11.76
346.573	11.81
346.939	11.83
347.304	11.79
347.67	11.86
348.035	11.89
348.401	11.96
348.766	11.97
349.132	12.01
349.497	12.11
349.862	12.23
350.228	12.29
350.593	12.28
350.958	12.23
351.323	12.25
351.688	12.24
352.053	12.15
352.418	12.26
352.783	12.4
353.148	12.35
353.513	12.21
353.878	12.19
354.243	12.27
354.608	12.28
354.972	12.4
355.337	12.48
355.702	12.56
356.066	12.58
356.431	12.53
356.795	12.4
357.16	12.3
357.524	12.21
357.889	12.11
358.253	12.17
358.618	12.2
358.982	12.16
359.346	12.05
359.71	12.05
360.075	12.07
360.439	12.04
360.803	12.07
361.167	12.14
361.531	12.17
361.895	12.1
362.259	12.12
362.623	12.08
362.987	12.04
363.351	12.03
363.714	12.04
364.078	12.04
364.442	11.99
364.806	12.03
365.169	12.04
365.533	12
365.896	11.92
366.26	11.9
366.623	11.93
366.987	11.98
367.35	11.99
367.714	11.84
368.077	11.74
368.44	11.76
368.803	11.66
369.167	11.6
369.53	11.49
369.893	11.38
370.256	11.38
370.619	11.32
370.982	11.14
371.345	10.98
371.708	10.93
372.071	10.94
372.434	10.88
372.797	10.84
373.159	10.81
373.522	10.75
373.885	10.73
374.247	10.63
374.61	10.56
374.973	10.47
375.335	10.42
375.698	10.42
376.06	10.29
376.423	10.24
376.785	10.25
377.147	10.16
377.51	10.12
377.872	10.03
378.234	9.91
378.596	9.94
378.958	9.93
379.321	9.91
379.683	9.9
380.045	9.82
380.407	9.76
380.769	9.69
381.13	9.63
381.492	9.48
381.854	9.45
382.216	9.43
382.578	9.37
382.939	9.33
383.301	9.25
383.663	9.21
384.024	9.1
384.386	9.05
384.747	9.07
385.109	9.03
385.47	8.96
385.832	9.01
386.193	8.97
386.554	8.87
386.916	8.82
387.277	8.71
387.638	8.7
387.999	8.68
388.36	8.66
388.721	8.67
389.082	8.69
389.443	8.58
389.804	8.5
390.165	8.47
390.526	8.4
390.887	8.37
391.248	8.32
391.609	8.34
391.969	8.31
392.33	8.28
392.691	8.25
393.051	8.26
393.412	8.18
393.772	8.08
394.133	8.05
394.493	7.96
394.854	7.92
395.214	7.85
395.574	7.78
395.935	7.75
396.295	7.66
396.655	7.56
397.015	7.54
397.376	7.54
397.736	7.48
398.096	7.45
398.456	7.4
398.816	7.33
399.176	7.26
399.535	7.18
399.895	7.1
400.255	7.04
400.615	6.98
400.975	6.91
401.334	6.9
401.694	6.85
402.054	6.83
402.413	6.81
402.773	6.74
403.132	6.7
403.492	6.62
403.851	6.6
404.211	6.59
404.57	6.56
404.929	6.5
405.288	6.46
405.648	6.42
406.007	6.4
406.366	6.37
406.725	6.37
407.084	6.35
407.443	6.33
407.802	6.32
408.161	6.29
408.52	6.27
408.879	6.24
409.238	6.25
409.596	6.23
409.955	6.23
410.314	6.23
410.673	6.19
411.031	6.22
411.39	6.2
411.748	6.2
412.107	6.19
412.465	6.15
412.824	6.14
413.182	6.14
413.54	6.1
413.899	6.1
414.257	6.06
414.615	6.03
414.974	5.99
415.332	5.95
415.69	5.91
416.048	5.89
416.406	5.88
416.764	5.84
417.122	5.84
417.48	5.79
417.838	5.78
418.195	5.74
418.553	5.7
418.911	5.7
419.269	5.66
419.626	5.64
419.984	5.62
420.342	5.6
420.699	5.57
421.057	5.56
421.414	5.54
421.772	5.53
422.129	5.52
422.486	5.5
422.844	5.48
423.201	5.46
423.558	5.44
423.915	5.42
424.273	5.42
424.63	5.37
424.987	5.35
425.344	5.33
425.701	5.32
426.058	5.32
426.415	5.29
426.772	5.27
427.128	5.26
427.485	5.25
427.842	5.23
428.199	5.22
428.555	5.19
428.912	5.19
429.269	5.2
429.625	5.17
429.982	5.16
430.338	5.14
430.695	5.13
431.051	5.11
431.407	5.08
431.764	5.07
432.12	5.07
432.476	5.06
432.832	5.04
433.189	5.05
433.545	5.04
433.901	5.04
434.257	5.01
434.613	5.02
434.969	4.99
435.325	5
435.681	5
436.036	5
436.392	4.99
436.748	4.96
437.104	4.95
437.459	4.95
437.815	4.97
438.171	4.97
438.526	4.98
438.882	4.98
439.237	4.98
439.593	4.98
439.948	4.98
440.304	4.99
440.659	5
441.014	4.99
441.369	4.98
441.725	5
442.08	4.98
442.435	4.99
442.79	4.99
443.145	4.99
443.5	4.98
443.855	4.96
444.21	4.95
444.565	4.95
444.92	4.96
445.275	4.93
445.629	4.94
445.984	4.94
446.339	4.93
446.693	4.89
447.048	4.87
447.403	4.87
447.757	4.85
448.112	4.82
448.466	4.8
448.82	4.8
449.175	4.79
449.529	4.79
449.883	4.78
450.238	4.75
450.592	4.73
450.946	4.72
451.3	4.73
451.654	4.71
452.008	4.7
452.362	4.68
452.716	4.67
453.07	4.65
453.424	4.64
453.778	4.63
454.132	4.65
454.486	4.65
454.839	4.64
455.193	4.65
455.547	4.66
455.9	4.69
456.254	4.69
456.607	4.7
456.961	4.68
457.314	4.7
457.668	4.72
458.021	4.71
458.375	4.73
458.728	4.72
459.081	4.75
459.434	4.72
459.787	4.73
460.141	4.73
460.494	4.74
460.847	4.75
461.2	4.76
461.553	4.78
461.906	4.79
462.259	4.81
462.611	4.82
462.964	4.83
463.317	4.82
463.67	4.83
464.022	4.81
464.375	4.83
464.728	4.82
465.08	4.84
465.433	4.86
465.785	4.86
466.138	4.87
466.49	4.84
466.843	4.89
467.195	4.89
467.547	4.92
467.899	4.92
468.252	4.93
468.604	4.96
468.956	4.94
469.308	4.94
469.66	4.94
470.012	4.96
470.364	4.98
470.716	5.01
471.068	5.02
471.42	5.06
471.772	5.1
472.123	5.13
472.475	5.14
472.827	5.15
473.178	5.16
473.53	5.18
473.882	5.22
474.233	5.24
474.585	5.26
474.936	5.26
475.288	5.27
475.639	5.28
475.99	5.28
476.342	5.29
476.693	5.29
477.044	5.3
477.395	5.29
477.746	5.29
478.097	5.28
478.448	5.29
478.8	5.27
479.15	5.26
479.501	5.25
479.852	5.26
480.203	5.28
480.554	5.29
480.905	5.3
481.255	5.3
481.606	5.3
481.957	5.3
482.307	5.29
482.658	5.29
483.009	5.28
483.359	5.27
483.709	5.27
484.06	5.26
484.41	5.26
484.761	5.26
485.111	5.25
485.461	5.25
485.811	5.25
486.162	5.26
486.512	5.26
486.862	5.26
487.212	5.24
487.562	5.24
487.912	5.23
488.262	5.23
488.612	5.23
488.961	5.22
489.311	5.23
489.661	5.23
490.011	5.25
490.36	5.25
490.71	5.27
491.06	5.29
491.409	5.31
491.759	5.33
492.108	5.35
492.458	5.37
492.807	5.38
493.157	5.39
493.506	5.4
493.855	5.43
494.204	5.47
494.554	5.51
494.903	5.54
495.252	5.57
495.601	5.61
495.95	5.64
496.299	5.67
496.648	5.7
496.997	5.77
497.346	5.82
497.695	5.88
498.043	5.9
498.392	5.92
498.741	5.97
499.09	6
499.438	6.05
499.787	6.12
500.135	6.17
500.484	6.24
500.832	6.31
501.181	6.35
501.529	6.4
501.878	6.48
502.226	6.57
502.574	6.63
502.923	6.7
503.271	6.76
503.619	6.86
503.967	6.94
504.315	7.01
504.663	7.07
505.011	7.16
505.359	7.25
505.707	7.37
506.055	7.47
506.403	7.59
506.751	7.68
507.098	7.77
507.446	7.89
507.794	7.99
508.141	8.08
508.489	8.16
508.837	8.27
509.184	8.35
509.531	8.44
509.879	8.56
510.226	8.69
510.574	8.8
510.921	8.92
511.268	9.03
511.616	9.16
511.963	9.29
512.31	9.42
512.657	9.58
513.004	9.75
513.351	9.88
513.698	10.05
514.045	10.22
514.392	10.38
514.739	10.52
515.086	10.68
515.432	10.85
515.779	11.04
516.126	11.18
516.473	11.36
516.819	11.49
517.166	11.63
517.512	11.76
517.859	11.92
518.205	12.04
518.552	12.2
518.898	12.33
519.245	12.47
519.591	12.57
519.937	12.67
520.283	12.78
520.629	12.93
520.976	13.04
521.322	13.21
521.668	13.38
522.014	13.55
522.36	13.72
522.706	13.9
523.052	14.09
523.398	14.3
523.743	14.52
524.089	14.75
524.435	14.96
524.781	15.16
525.126	15.33
525.472	15.49
525.817	15.62
526.163	15.74
526.509	15.87
526.854	16
527.199	16.14
527.545	16.25
527.89	16.35
528.235	16.47
528.581	16.57
528.926	16.67
529.271	16.8
529.616	16.9
529.961	17.02
530.306	17.13
530.651	17.25
530.996	17.36
531.341	17.47
531.686	17.6
532.031	17.72
532.376	17.85
532.721	17.99
533.065	18.13
533.41	18.29
533.755	18.43
534.099	18.6
534.444	18.77
534.788	18.94
535.133	19.11
535.477	19.27
535.822	19.44
536.166	19.62
536.51	19.81
536.855	20.03
537.199	20.22
537.543	20.44
537.887	20.67
538.231	20.91
538.576	21.14
538.92	21.35
539.264	21.53
539.608	21.73
539.951	21.92
540.295	22.12
540.639	22.3
540.983	22.47
541.327	22.64
541.671	22.78
542.014	22.94
542.358	23.11
542.701	23.28
543.045	23.46
543.389	23.64
543.732	23.81
544.075	24
544.419	24.18
544.762	24.37
545.105	24.55
545.449	24.73
545.792	24.95
546.135	25.22
546.478	25.48
546.821	25.73
547.165	25.97
547.508	26.21
547.851	26.49
548.194	26.77
548.536	27.03
548.879	27.32
549.222	27.6
549.565	27.88
549.908	28.2
550.25	28.48
550.593	28.71
550.936	29.02
551.278	29.29
551.621	29.6
551.963	29.89
552.306	30.23
552.648	30.55
552.991	30.82
553.333	31.05
553.675	31.28
554.017	31.54
554.36	31.87
554.702	32.18
555.044	32.45
555.386	32.8
555.728	33.08
556.07	33.39
556.412	33.71
556.754	34.01
557.096	34.26
557.438	34.61
557.78	34.9
558.121	35.14
558.463	35.45
558.805	35.75
559.147	36.08
559.488	36.36
559.83	36.62
560.171	36.91
560.513	37.15
560.854	37.44
561.196	37.75
561.537	38
561.878	38.21
562.22	38.44
562.561	38.61
562.902	38.86
563.243	39.12
563.584	39.36
563.925	39.55
564.266	39.8
564.607	39.96
564.948	40.24
565.289	40.48
565.63	40.69
565.971	40.91
566.312	41.11
566.653	41.26
566.993	41.52
567.334	41.77
567.675	42.05
568.015	42.25
568.356	42.43
568.696	42.67
569.037	42.93
569.377	43.16
569.718	43.43
570.058	43.61
570.398	43.78
570.739	43.99
571.079	44.19
571.419	44.38
571.759	44.63
572.099	44.78
572.439	44.94
572.779	45.19
573.119	45.42
573.459	45.64
573.799	45.88
574.139	46.03
574.479	46.14
574.819	46.29
575.158	46.5
575.498	46.67
575.838	46.86
576.177	46.98
576.517	47.17
576.856	47.28
577.196	47.56
577.535	47.78
577.875	47.96
578.214	48.19
578.553	48.36
578.893	48.54
579.232	48.75
579.571	49
579.91	49.11
580.25	49.22
580.589	49.35
580.928	49.45
581.267	49.66
581.606	49.86
581.945	50.05
582.283	50.24
582.622	50.45
582.961	50.54
583.3	50.69
583.639	50.8
583.977	50.99
584.316	51.04
584.654	51.13
584.993	51.3
585.332	51.39
585.67	51.5
586.008	51.61
586.347	51.71
586.685	51.89
587.024	51.94
587.362	51.98
587.7	52.15
588.038	52.24
588.376	52.32
588.715	52.52
589.053	52.62
589.391	52.66
589.729	52.78
590.067	52.96
590.404	53.12
590.742	53.25
591.08	53.37
591.418	53.46
591.756	53.57
592.093	53.62
592.431	53.72
592.769	53.81
593.106	53.9
593.444	54.04
593.781	54.1
594.119	54.31
594.456	54.51
594.793	54.57
595.131	54.71
595.468	54.77
595.805	54.75
596.143	54.84
596.48	54.94
596.817	54.98
597.154	54.96
597.491	55.03
597.828	55.07
598.165	55.09
598.502	55.15
598.839	55.21
599.176	55.25
599.512	55.37
599.849	55.5
600.186	55.58
600.523	55.66
600.859	55.67
601.196	55.73
601.532	55.75
601.869	55.7
602.205	55.78
602.542	55.86
602.878	55.97
603.215	56.05
603.551	56.11
603.887	56.21
604.223	56.29
604.56	56.36
604.896	56.45
605.232	56.58
605.568	56.67
605.904	56.76
606.24	56.86
606.576	56.84
606.912	56.89
607.248	56.98
607.583	57.01
607.919	57.09
608.255	57.11
608.591	57.15
608.926	57.29
609.262	57.32
609.597	57.32
609.933	57.3
610.268	57.27
610.604	57.28
610.939	57.29
611.275	57.36
611.61	57.39
611.945	57.44
612.281	57.45
612.616	57.53
612.951	57.54
613.286	57.55
613.621	57.7
613.956	57.74
614.291	57.76
614.626	57.86
614.961	57.91
615.296	58.03
615.631	58.18
615.966	58.26
616.3	58.33
616.635	58.45
616.97	58.54
617.304	58.69
617.639	58.82
617.973	58.81
618.308	58.78
618.642	58.83
618.977	58.82
619.311	58.79
619.646	58.7
619.98	58.67
620.314	58.85
620.648	58.84
620.983	58.87
621.317	58.92
621.651	58.88
621.985	59
622.319	59
622.653	58.96
622.987	58.95
623.321	59.01
623.655	58.95
623.988	58.95
624.322	59.03
624.656	59.03
624.99	59.09
625.323	59.18
625.657	59.13
625.99	59.17
626.324	59.26
626.657	59.36
626.991	59.43
627.324	59.31
627.658	59.4
627.991	59.4
628.324	59.35
628.657	59.42
628.991	59.3
629.324	59.29
629.657	59.33
629.99	59.34
630.323	59.36
630.656	59.5
630.989	59.59
631.322	59.53
631.655	59.52
631.987	59.55
632.32	59.55
632.653	59.64
632.986	59.6
633.318	59.64
633.651	59.58
633.984	59.6
634.316	59.63
634.649	59.58
634.981	59.49
635.313	59.52
635.646	59.58
635.978	59.71
636.31	59.69
636.643	59.79
636.975	59.84
637.307	59.86
637.639	59.83
637.971	59.81
638.303	59.77
638.635	59.86
638.967	59.96
639.299	59.94
639.631	59.99
639.963	60.05
640.295	60.07
640.626	60.12
640.958	60.1
641.29	60.15
641.621	60.12
641.953	60.32
642.285	60.35
642.616	60.37
642.948	60.4
643.279	60.45
643.61	60.36
643.942	60.37
644.273	60.34
644.604	60.29
644.936	60.29
645.267	60.27
645.598	60.22
645.929	60.23
646.26	60.28
646.591	60.3
646.922	60.36
647.253	60.26
647.584	60.34
647.915	60.41
648.245	60.48
648.576	60.53
648.907	60.49
649.238	60.46
649.568	60.37
649.899	60.37
650.229	60.27
650.56	60.38
650.89	60.39
651.221	60.45
651.551	60.45
651.882	60.54
652.212	60.5
652.542	60.52
652.872	60.47
653.203	60.51
653.533	60.41
653.863	60.5
654.193	60.6
654.523	60.51
654.853	60.41
655.183	60.38
655.513	60.41
655.843	60.41
656.172	60.49
656.502	60.52
656.832	60.45
657.162	60.7
657.491	60.66
657.821	60.66
658.15	60.64
658.48	60.64
658.809	60.53
659.139	60.6
659.468	60.56
659.798	60.53
660.127	60.53
660.456	60.71
660.785	60.61
661.115	60.63
661.444	60.61
661.773	60.78
662.102	60.84
662.431	60.87
662.76	60.95
663.089	61
663.418	60.98
663.747	61.01
664.076	60.91
664.404	60.89
664.733	61
665.062	61.08
665.39	61.29
665.719	61.39
666.048	61.39
666.376	61.5
666.705	61.43
667.033	61.59
667.362	61.51
667.69	61.54
668.018	61.57
668.347	61.62
668.675	61.53
669.003	61.55
669.331	61.62
669.659	61.55
669.987	61.48
670.315	61.49
670.643	61.53
670.971	61.46
671.299	61.51
671.627	61.39
671.955	61.34
672.283	61.28
672.61	61.19
672.938	61.27
673.266	61.12
673.593	61.22
673.921	61.05
674.249	61
674.576	61.08
674.904	61.2
675.231	61.25
675.558	61.21
675.886	61.19
676.213	61.19
676.54	61.19
676.867	61.31
677.195	61.22
677.522	61.3
677.849	61.33
678.176	61.38
678.503	61.38
678.83	61.4
679.157	61.34
679.484	61.46
679.81	61.37
680.137	61.42
680.464	61.45
680.791	61.43
681.117	61.42
681.444	61.35
681.771	61.26
682.097	61.29
682.424	61.44
682.75	61.33
683.077	61.3
683.403	61.37
683.729	61.18
684.056	61.3
684.382	61.21
684.708	61.21
685.034	61.2
685.36	61.2
685.686	61.08
686.012	61.08
686.339	61.1
686.664	61.2
686.99	61.29
687.316	61.31
687.642	61.37
687.968	61.32
688.294	61.5
688.619	61.31
688.945	61.23
689.271	61.25
689.596	61.29
689.922	61.24
690.247	61.1
690.573	61.19
690.898	61.2
691.224	61.16
691.549	61.16
691.874	60.98
692.2	61.12
692.525	61.11
692.85	61.02
693.175	60.89
693.5	60.93
693.825	60.78
694.15	60.98
694.475	61
694.8	61.09
695.125	60.92
695.45	60.92
695.775	60.96
696.099	60.99
696.424	61
696.749	60.98
697.073	61.2
697.398	61.35
697.723	61.28
698.047	61.47
698.372	61.52
698.696	61.57
699.02	61.42
699.345	61.48
699.669	61.52
699.993	61.57
700.318	61.61
700.642	61.63
700.966	61.51
701.29	61.58
701.614	61.54
701.938	61.68
702.262	61.8
702.586	61.76
702.91	61.52
703.234	61.53
703.557	61.71
703.881	61.46
704.205	61.32
704.529	61.26
704.852	61.16
705.176	61.03
705.499	61.12
705.823	61.24
706.146	61.2
706.47	61.09
706.793	61.11
707.117	61
707.44	61.09
707.763	61.2
708.086	61.1
708.409	60.94
708.733	60.7
709.056	60.87
709.379	60.98
709.702	61.14
710.025	61.19
710.348	61.03
710.671	61.15
710.993	61.22
711.316	61.39
711.639	61.47
711.962	61.6
712.284	61.62
712.607	61.66
712.93	61.79
713.252	61.95
713.575	61.95
713.897	61.94
714.22	61.75
714.542	61.68
714.864	61.67
715.187	61.82
715.509	61.93
715.831	61.69
716.153	61.56
716.475	61.61
716.798	61.83
717.12	61.87
717.442	61.87
717.764	61.88
718.085	61.92
718.407	61.6
718.729	61.63
719.051	61.7
719.373	61.39
719.695	61.42
720.016	61.36
720.338	61.28
720.659	61.49
720.981	61.63
721.302	61.43
721.624	61.39
721.945	61.53
722.267	61.54
722.588	61.61
722.909	61.77
723.231	61.6
723.552	61.29
723.873	61.16
724.194	61.27
724.515	61.3
724.836	61.48
725.157	61.59
725.478	61.59
725.799	61.49
726.12	61.69
726.441	61.62
726.762	61.58
727.083	61.75
727.403	61.6
727.724	61.48
728.045	61.57
728.365	61.47
728.686	61.42
729.006	61.32
729.327	61.3
729.647	61.21
729.967	61.48
730.288	61.41
730.608	61.48
730.928	61.39
731.249	61.13
731.569	60.8
731.889	60.99
732.209	60.84
732.529	60.69
732.849	60.67
733.169	60.77
733.489	60.67
733.809	60.44
734.129	60.4
734.448	60.65
734.768	60.79
735.088	60.94
735.408	60.81
735.727	60.86
736.047	60.75
736.366	61.04
736.686	60.74
737.005	60.98
737.325	60.92
737.644	61.03
737.963	61.44
738.283	61.6
738.602	61.44
738.921	61.3
739.24	61.48
739.56	61.43
739.879	61.31
740.198	61.37
740.517	61.67
740.836	61.59
741.155	61.33
741.473	61.21
741.792	61.18
742.111	61.13
742.43	61.14
742.748	61.35
743.067	61.09
743.386	61.16
743.704	61.18
744.023	61.34
744.341	61.13
744.66	61.29
744.978	61.28
745.297	61.07
745.615	61.39
745.933	61.33
746.252	61.47
746.57	61.38
746.888	61.27
747.206	61.24
747.524	61.25
747.842	61.68
748.16	61.71
748.478	61.51
748.796	61.72
749.114	61.9
749.432	62.06
749.749	62.25
750.067	62.32
750.385	62.03
750.703	62.03
751.02	62.33
751.338	62.18
751.655	62.24
751.973	62.39
752.29	62.26
752.608	62.09
752.925	62.1
753.242	62.14
753.56	62.44
753.877	62.12
754.194	61.94
754.511	61.69
754.828	61.25
755.145	61.51
755.462	61.37
755.779	61.21
756.096	61.26
756.413	61.07
756.73	60.95
757.047	61.22
757.364	61.09
757.68	60.98
757.997	60.47
758.314	60.52
758.63	60.69
758.947	60.54
759.264	60.33
759.58	60.28
759.896	60.17
760.213	60.23
760.529	60.28
760.846	60.8
761.162	61.1
761.478	61.36
761.794	61.23
762.11	61.52
762.426	61.69
762.743	61.58
763.059	61.39
763.375	61.43
763.69	61.2
764.006	61.18
764.322	61.28
764.638	61.53
764.954	61.57
765.27	61.65
765.585	61.77
765.901	61.98
766.216	62.08
766.532	62.25
766.848	62.29
767.163	62.58
767.478	62.32
767.794	62.14
768.109	62.24
768.424	62.32
768.74	62.02
769.055	62.11
769.37	61.92
769.685	61.93
770	61.71
770.315	61.87
770.63	61.98
770.945	61.8
771.26	61.7
771.575	61.55
771.89	61.55
772.205	61.41
772.52	61.7
772.834	61.49
773.149	61.26
773.464	60.89
773.778	61.13
774.093	61.31
774.407	61.37
774.722	61.11
775.036	61.06
775.351	61.17
775.665	61.24
775.979	61.28
776.293	61.54
776.608	61.74
776.922	61.84
777.236	61.89
777.55	61.91
777.864	61.88
778.178	61.89
778.492	61.41
778.806	61.1
779.12	60.78
779.434	61.14
779.747	61.27
780.061	61.44
780.375	60.39
780.689	60.33
781.002	60.26
781.316	60.23
781.629	60.56
781.943	60.13
782.256	59.82
782.57	60.2
782.883	60.3
783.196	60.83
783.51	60.89
783.823	61.15
784.136	61.28
784.449	61.01
784.762	61.19
785.075	61.59
785.388	62.01
785.701	62.61
786.014	62.38
786.327	62.62
786.64	62.81
786.953	63.17
787.266	63.1
787.578	62.88
787.891	63.39
788.204	63.18
788.516	63.27
788.829	62.92
789.141	62.73
789.454	63.01
789.766	62.64
790.079	62.25
790.391	62.07
790.703	61.83
791.016	62.18
791.328	61.84
791.64	62.27
791.952	62.68
792.264	61.69
792.576	61.17
792.888	60.9
793.2	61.01
793.512	61.26
793.824	61.19
794.136	61.76
794.448	61.5
794.76	61.73
795.071	61.73
795.383	62.1
795.695	62.14
796.006	61.48
796.318	61.25
796.629	61.56
796.941	61.81
797.252	61.78
797.564	61.52
797.875	61.84
798.186	61.31
798.497	61.02
798.809	61.14
799.12	61.67
799.431	61.56
799.742	61.47
800.053	61.46
800.364	61.53
800.675	61.23
800.986	61.25
801.297	60.93
801.608	61.31
801.918	61.35
802.229	61.96
802.54	62.73
802.851	63.51
803.161	63.95
803.472	63.8
803.782	64.43
804.093	65.41
804.403	65.15
804.714	65.35
805.024	65.14
805.334	66.3
805.645	66.17
805.955	65.38
806.265	65.43
806.575	65.15
806.885	64.97
807.195	64.93
807.505	64.11
807.815	64.32
808.125	64.79
808.435	64.58
808.745	63.79
809.055	63.41
809.365	62.28
809.674	61.91
809.984	61.18
810.294	60.05
810.603	59.96
810.913	60.13
811.222	59.87
811.532	60.1
811.841	59.8
812.151	60.2
812.46	61.32
812.769	60.61
813.079	60.82
813.388	60.44
813.697	60.21
814.006	60.97
814.315	60.47
814.624	60.8
814.933	61.02
815.242	61.15
815.551	61.19
815.86	63.03
816.169	62.4
816.478	62.69
816.786	63.49
817.095	62.75
817.404	63.14
817.712	63.63
818.021	63.66
818.33	63.21
818.638	64.13
818.947	64.42
819.255	64.69
819.563	64.63
819.872	65.21
820.18	65.21
820.488	64.96
820.796	64.9
821.105	64.37
821.413	64.23
821.721	64.6
822.029	64.41
822.337	63.94
822.645	64.37
822.953	64.26
823.26	64.09
823.568	64.15
823.876	64.28
824.184	64.21
824.491	64.22
824.799	64.35
825.107	64.25
825.414	64.13
825.722	64.21
826.029	64.43
826.337	64.23
826.644	64.19
826.951	64.35
827.259	64.47
827.566	64.58
827.873	64.31
828.18	63.88
828.488	63.84
828.795	63.93
829.102	63.28
829.409	63.2
829.716	63.06
830.023	62.98
830.329	62.41
830.636	62.67
830.943	62.72
831.25	62.42
831.557	62.12
831.863	62.35
832.17	61.8
832.476	61.16
832.783	61.25
833.089	60.97
833.396	61.23
833.702	61.37
834.009	61.82
834.315	62.78
834.621	62.58
834.928	62.84
835.234	62.81
835.54	63.05
835.846	63.43
836.152	63.72
836.458	63.82
836.764	63.88
837.07	63.15
837.376	63.18
837.682	62.8
837.988	62.42
838.293	62.47
838.599	62.52
838.905	62.06
839.211	61.53
839.516	61.55
839.822	60.95
840.127	59.99
840.433	59.88
840.738	59.55
841.044	59.84
841.349	59.79
841.654	59.96
841.959	60.48
842.265	60.56
842.57	60.37
842.875	60.29
843.18	59.81
843.485	60.52
843.79	60.14
844.095	61.37
844.4	61.42
844.705	61.26
845.01	61.09
845.315	62.06
845.619	63.58
845.924	64.26
846.229	64.62
846.533	65.62
846.838	62.97
847.142	61.76
847.447	60.89
847.751	59.41
848.056	59.54
848.36	59.45
848.664	58.96
848.969	59.13
849.273	58.79
849.577	59.87
849.881	60
850.185	59.67
850.489	59.77
850.794	60.17
851.097	58.7
851.401	61.84
851.705	62.37
852.009	60.38
852.313	58.93
852.617	58.33
852.92	60.28
853.224	61.41
853.528	61.19
853.831	63.46
854.135	64.59
854.438	65.55
854.742	65
855.045	66.18
855.349	67.59
855.652	69.29
855.955	68.88
856.259	68.06
856.562	67.51
856.865	67.83
857.168	68
857.471	69.29
857.774	67.49
858.077	67.02
858.38	66.72
858.683	67.59
858.986	65.76
859.289	63.57
859.592	63.68
859.894	63.17
860.197	58.82
860.5	57.6
860.802	55.4
861.105	55.71
861.407	56.34
861.71	54.92
862.012	52.61
862.315	52.22
862.617	50.74
862.919	52.6
863.222	51.17
863.524	50.89
863.826	53.83
864.128	54.06
864.43	55.15
864.732	56.65
865.034	56.89
865.336	56.02
865.638	56.23
865.94	57.09
866.242	56.65
866.544	58.71
866.846	59.79
867.147	60.68
867.449	60.45
867.751	60.09
868.052	61.57
868.354	62.01
868.655	62
868.957	64.88
869.258	63.27
869.56	64.36
869.861	63.11
870.162	58.95
870.463	57.81
870.765	58.61
871.066	56.05
871.367	55.22
871.668	58.59
871.969	56.83
872.27	57.02
872.571	59.23
872.872	57.77
873.173	58.36
873.473	60.01
873.774	57.54
874.075	59.9
874.376	58.38
874.676	60.64
874.977	60.07
875.277	59.3
875.578	59.93
875.878	59.88
876.179	61.81
876.479	61.77
876.78	62.35
877.08	60.26
877.38	63.11
877.68	64.49
877.981	62.82
878.281	64.54
878.581	63.25
