Data from BU26845_Reflection_00002.txt Node
Date: Mon Nov 18 16:27:50 EST 2019
User: vgr7
Spectrometer: USB2G7710
Scans to average: 3
Trigger mode: 4
Integration Time (sec): 2.000000E-2
Electric dark correction enabled: true
Boxcar width: 10
XAxis mode: Wavelengths
Number of Pixels in Spectrum: 2048
>>>>>Begin Spectral Data<<<<<
177.721	58.9
178.105	72.14
178.488	76.63
178.871	-39.41
179.254	-26.95
179.636	524.78
180.019	-60.77
180.402	88
180.785	246.85
181.168	-368.75
181.55	323.88
181.933	62.13
182.316	97.63
182.698	96.97
183.081	36.41
183.463	-107.42
183.846	-92.53
184.228	-70.19
184.611	-86.72
184.993	-154.5
185.376	-191.2
185.758	113.87
186.14	38.78
186.522	3.5
186.904	26
187.287	30.03
187.669	35.48
188.051	27.74
188.433	16.58
188.815	35.81
189.197	39.85
189.579	21.65
189.961	13.84
190.342	20.18
190.724	18.7
191.106	13.34
191.488	7.89
191.869	4.79
192.251	7.83
192.633	3.1
193.014	10.33
193.396	4.84
193.777	8.08
194.159	19.22
194.54	23.13
194.922	30.02
195.303	28.34
195.684	33.54
196.065	35.31
196.447	45.94
196.828	33.53
197.209	23.8
197.59	31.03
197.971	37.93
198.352	52.76
198.733	39.78
199.114	37.36
199.495	47.48
199.876	54.56
200.257	28.5
200.638	34.31
201.018	18.89
201.399	25.56
201.78	26.5
202.16	28.06
202.541	31.8
202.922	27.19
203.302	17.37
203.683	18.92
204.063	2.59
204.444	5.81
204.824	-0.97
205.204	9.56
205.585	20.39
205.965	49.37
206.345	21.02
206.725	27.41
207.106	13.03
207.486	7.81
207.866	6.52
208.246	31.49
208.626	17.95
209.006	35.84
209.386	14.29
209.766	8.3
210.145	-10.05
210.525	5.55
210.905	10.38
211.285	12.27
211.664	16.08
212.044	33.87
212.424	36.22
212.803	33.38
213.183	36.02
213.562	37.81
213.942	32.05
214.321	28.21
214.701	27.35
215.08	26.19
215.459	17.44
215.838	15.12
216.218	11.98
216.597	24.07
216.976	22.82
217.355	29.27
217.734	35.19
218.113	34.18
218.492	22.28
218.871	12.65
219.25	17.19
219.629	12.73
220.008	-1.02
220.387	-1.43
220.766	-5.05
221.144	-17.71
221.523	-25.1
221.902	-38.56
222.28	-35.89
222.659	-30.77
223.037	-22.17
223.416	-20.56
223.794	-17
224.173	-12.28
224.551	-18.73
224.929	-18.79
225.308	-10.35
225.686	-10.31
226.064	-3.1
226.442	-3.77
226.821	0.36
227.199	-4.41
227.577	-6.69
227.955	-7.73
228.333	-11.63
228.711	-8.73
229.089	-1.31
229.467	-3.61
229.845	-3.4
230.222	-1.01
230.6	-3.76
230.978	-5.94
231.356	-2.24
231.733	-1.41
232.111	0.81
232.488	2.62
232.866	3.04
233.243	2.18
233.621	1.49
233.998	1.28
234.376	1.46
234.753	1.87
235.13	3.12
235.508	4.7
235.885	7.27
236.262	7.47
236.639	6.56
237.016	4.68
237.393	6.13
237.77	6.45
238.147	5.06
238.524	5.65
238.901	6.16
239.278	5.05
239.655	4.69
240.032	3.74
240.409	3.11
240.785	3.01
241.162	3.1
241.539	3.32
241.915	3.42
242.292	3.33
242.668	2.85
243.045	3.04
243.421	2.75
243.798	2.33
244.174	2.34
244.551	2.52
244.927	2.35
245.303	2.21
245.679	2.11
246.056	2.04
246.432	2.3
246.808	2.18
247.184	1.95
247.56	2.03
247.936	2.02
248.312	1.95
248.688	1.92
249.064	1.84
249.44	1.71
249.815	1.6
250.191	1.7
250.567	1.77
250.943	1.39
251.318	1.55
251.694	1.61
252.069	1.68
252.445	1.65
252.82	1.85
253.196	1.95
253.571	1.89
253.947	2.04
254.322	1.8
254.697	1.47
255.073	1.56
255.448	1.32
255.823	1.29
256.198	1.63
256.573	1.6
256.948	1.62
257.323	1.84
257.698	2.11
258.073	2.13
258.448	2.15
258.823	2.32
259.198	2.1
259.573	2.07
259.948	2.04
260.322	1.99
260.697	1.96
261.072	1.92
261.446	1.86
261.821	1.75
262.195	1.78
262.57	1.82
262.944	1.88
263.319	2.02
263.693	2
264.067	2.03
264.442	2
264.816	2
265.19	1.91
265.564	1.71
265.938	1.49
266.313	1.39
266.687	1.25
267.061	1.35
267.435	1.39
267.809	1.31
268.183	1.31
268.556	1.21
268.93	1.3
269.304	1.44
269.678	1.57
270.051	1.52
270.425	1.58
270.799	1.69
271.172	1.7
271.546	1.72
271.919	1.58
272.293	1.62
272.666	1.62
273.04	1.65
273.413	1.72
273.787	1.79
274.16	1.85
274.533	1.94
274.906	1.9
275.279	1.76
275.653	1.86
276.026	1.78
276.399	1.78
276.772	1.78
277.145	1.65
277.518	1.59
277.891	1.46
278.263	1.39
278.636	1.36
279.009	1.37
279.382	1.54
279.755	1.42
280.127	1.54
280.5	1.68
280.872	1.64
281.245	1.42
281.617	1.51
281.99	1.73
282.362	1.76
282.735	1.71
283.107	1.66
283.479	1.55
283.852	1.77
284.224	1.73
284.596	1.66
284.968	1.81
285.34	1.82
285.713	1.92
286.085	2.09
286.457	2.17
286.829	2.18
287.201	2.21
287.572	2.19
287.944	2.15
288.316	2.19
288.688	2.19
289.06	2.23
289.431	2.26
289.803	2.13
290.175	2.12
290.546	2.23
290.918	2.3
291.289	2.34
291.661	2.24
292.032	2.44
292.403	2.53
292.775	2.56
293.146	2.44
293.517	2.35
293.889	2.37
294.26	2.24
294.631	2.2
295.002	1.99
295.373	2.13
295.744	2.21
296.115	2.09
296.486	2.09
296.857	2.13
297.228	2.12
297.599	2.01
297.97	1.93
298.34	2
298.711	2.17
299.082	2.12
299.452	2.06
299.823	2.04
300.194	2.01
300.564	2
300.935	2.26
301.305	2.29
301.676	2.22
302.046	2.2
302.416	2.18
302.787	2.24
303.157	2.27
303.527	2.21
303.897	2.15
304.267	2.34
304.637	2.42
305.008	2.49
305.378	2.63
305.748	2.69
306.117	2.52
306.487	2.35
306.857	2.44
307.227	2.52
307.597	2.44
307.967	2.35
308.336	2.36
308.706	2.19
309.076	2.17
309.445	2.09
309.815	2.13
310.184	1.97
310.554	1.91
310.923	1.9
311.293	1.74
311.662	1.8
312.031	1.58
312.401	1.56
312.77	1.5
313.139	1.58
313.508	1.59
313.877	1.6
314.246	1.65
314.616	1.6
314.985	1.61
315.353	1.48
315.722	1.54
316.091	1.47
316.46	1.43
316.829	1.39
317.198	1.41
317.567	1.41
317.935	1.51
318.304	1.58
318.672	1.55
319.041	1.7
319.41	1.54
319.778	1.65
320.147	1.45
320.515	1.35
320.883	1.12
321.252	1.18
321.62	1.11
321.988	1.03
322.357	1.08
322.725	0.96
323.093	1.19
323.461	1.15
323.829	1.22
324.197	1.37
324.565	1.44
324.933	1.42
325.301	1.44
325.669	1.54
326.037	1.52
326.405	1.53
326.772	1.56
327.14	1.72
327.508	1.6
327.875	1.7
328.243	1.76
328.61	1.89
328.978	1.86
329.346	2.01
329.713	2.09
330.08	2.12
330.448	2.14
330.815	2.06
331.182	1.99
331.55	1.96
331.917	1.85
332.284	2.01
332.651	2.02
333.018	2.05
333.385	2.06
333.752	2.16
334.119	2.21
334.486	2.12
334.853	2.08
335.22	2.2
335.587	2.2
335.954	2.28
336.32	2.16
336.687	2.25
337.054	2.35
337.42	2.3
337.787	2.32
338.153	2.37
338.52	2.43
338.886	2.4
339.253	2.43
339.619	2.54
339.986	2.48
340.352	2.52
340.718	2.54
341.084	2.46
341.451	2.42
341.817	2.36
342.183	2.36
342.549	2.37
342.915	2.42
343.281	2.38
343.647	2.3
344.013	2.42
344.379	2.34
344.745	2.29
345.11	2.34
345.476	2.32
345.842	2.27
346.208	2.15
346.573	2.24
346.939	2.25
347.304	2.12
347.67	2.1
348.035	2.11
348.401	2.01
348.766	2.06
349.132	2.09
349.497	2.03
349.862	2.16
350.228	2.15
350.593	2.01
350.958	2.02
351.323	2.02
351.688	1.96
352.053	2.01
352.418	1.99
352.783	2
353.148	2
353.513	2
353.878	2.09
354.243	2.13
354.608	2.12
354.972	2.18
355.337	2.18
355.702	2.26
356.066	2.33
356.431	2.28
356.795	2.26
357.16	2.25
357.524	2.16
357.889	2.18
358.253	2.25
358.618	2.34
358.982	2.33
359.346	2.29
359.71	2.23
360.075	2.23
360.439	2.27
360.803	2.24
361.167	2.24
361.531	2.23
361.895	2.18
362.259	2.16
362.623	2.16
362.987	2.08
363.351	2.05
363.714	2.04
364.078	2.06
364.442	2.06
364.806	2.08
365.169	2.1
365.533	2.09
365.896	2.1
366.26	2.02
366.623	2.05
366.987	2.13
367.35	2.16
367.714	2.2
368.077	2.13
368.44	2.16
368.803	2.22
369.167	2.21
369.53	2.19
369.893	2.23
370.256	2.29
370.619	2.39
370.982	2.36
371.345	2.33
371.708	2.39
372.071	2.42
372.434	2.43
372.797	2.46
373.159	2.48
373.522	2.46
373.885	2.55
374.247	2.56
374.61	2.5
374.973	2.46
375.335	2.39
375.698	2.41
376.06	2.42
376.423	2.39
376.785	2.44
377.147	2.44
377.51	2.4
377.872	2.38
378.234	2.32
378.596	2.31
378.958	2.31
379.321	2.21
379.683	2.22
380.045	2.24
380.407	2.23
380.769	2.24
381.13	2.25
381.492	2.21
381.854	2.19
382.216	2.2
382.578	2.23
382.939	2.25
383.301	2.27
383.663	2.18
384.024	2.15
384.386	2.13
384.747	2.15
385.109	2.19
385.47	2.18
385.832	2.2
386.193	2.23
386.554	2.21
386.916	2.22
387.277	2.25
387.638	2.26
387.999	2.24
388.36	2.22
388.721	2.2
389.082	2.2
389.443	2.17
389.804	2.15
390.165	2.13
390.526	2.16
390.887	2.13
391.248	2.2
391.609	2.23
391.969	2.25
392.33	2.24
392.691	2.22
393.051	2.21
393.412	2.24
393.772	2.23
394.133	2.28
394.493	2.31
394.854	2.28
395.214	2.27
395.574	2.29
395.935	2.29
396.295	2.28
396.655	2.3
397.015	2.3
397.376	2.31
397.736	2.32
398.096	2.3
398.456	2.32
398.816	2.3
399.176	2.28
399.535	2.24
399.895	2.24
400.255	2.22
400.615	2.24
400.975	2.25
401.334	2.27
401.694	2.26
402.054	2.26
402.413	2.28
402.773	2.25
403.132	2.23
403.492	2.26
403.851	2.28
404.211	2.27
404.57	2.3
404.929	2.31
405.288	2.32
405.648	2.3
406.007	2.28
406.366	2.29
406.725	2.33
407.084	2.34
407.443	2.36
407.802	2.37
408.161	2.38
408.52	2.37
408.879	2.36
409.238	2.36
409.596	2.36
409.955	2.34
410.314	2.36
410.673	2.35
411.031	2.34
411.39	2.33
411.748	2.35
412.107	2.36
412.465	2.34
412.824	2.33
413.182	2.37
413.54	2.4
413.899	2.42
414.257	2.41
414.615	2.4
414.974	2.4
415.332	2.4
415.69	2.38
416.048	2.38
416.406	2.35
416.764	2.38
417.122	2.39
417.48	2.37
417.838	2.39
418.195	2.41
418.553	2.41
418.911	2.41
419.269	2.39
419.626	2.4
419.984	2.4
420.342	2.42
420.699	2.41
421.057	2.41
421.414	2.4
421.772	2.39
422.129	2.4
422.486	2.39
422.844	2.4
423.201	2.4
423.558	2.41
423.915	2.42
424.273	2.42
424.63	2.41
424.987	2.42
425.344	2.41
425.701	2.41
426.058	2.41
426.415	2.43
426.772	2.44
427.128	2.44
427.485	2.44
427.842	2.43
428.199	2.44
428.555	2.43
428.912	2.45
429.269	2.47
429.625	2.48
429.982	2.5
430.338	2.49
430.695	2.49
431.051	2.46
431.407	2.46
431.764	2.44
432.12	2.43
432.476	2.45
432.832	2.44
433.189	2.43
433.545	2.42
433.901	2.41
434.257	2.41
434.613	2.41
434.969	2.41
435.325	2.42
435.681	2.43
436.036	2.45
436.392	2.46
436.748	2.47
437.104	2.46
437.459	2.46
437.815	2.46
438.171	2.48
438.526	2.49
438.882	2.5
439.237	2.51
439.593	2.51
439.948	2.49
440.304	2.5
440.659	2.5
441.014	2.5
441.369	2.48
441.725	2.49
442.08	2.49
442.435	2.49
442.79	2.48
443.145	2.47
443.5	2.46
443.855	2.45
444.21	2.42
444.565	2.44
444.92	2.45
445.275	2.45
445.629	2.45
445.984	2.45
446.339	2.45
446.693	2.43
447.048	2.44
447.403	2.44
447.757	2.44
448.112	2.45
448.466	2.45
448.82	2.45
449.175	2.47
449.529	2.46
449.883	2.47
450.238	2.47
450.592	2.49
450.946	2.49
451.3	2.49
451.654	2.49
452.008	2.48
452.362	2.47
452.716	2.47
453.07	2.48
453.424	2.47
453.778	2.47
454.132	2.47
454.486	2.45
454.839	2.47
455.193	2.46
455.547	2.48
455.9	2.49
456.254	2.5
456.607	2.49
456.961	2.5
457.314	2.5
457.668	2.5
458.021	2.49
458.375	2.48
458.728	2.48
459.081	2.48
459.434	2.49
459.787	2.49
460.141	2.49
460.494	2.48
460.847	2.5
461.2	2.48
461.553	2.49
461.906	2.5
462.259	2.52
462.611	2.53
462.964	2.51
463.317	2.51
463.67	2.52
464.022	2.53
464.375	2.52
464.728	2.52
465.08	2.53
465.433	2.52
465.785	2.53
466.138	2.53
466.49	2.54
466.843	2.53
467.195	2.55
467.547	2.55
467.899	2.56
468.252	2.56
468.604	2.59
468.956	2.58
469.308	2.58
469.66	2.54
470.012	2.53
470.364	2.55
470.716	2.56
471.068	2.57
471.42	2.55
471.772	2.57
472.123	2.58
472.475	2.58
472.827	2.6
473.178	2.6
473.53	2.57
473.882	2.57
474.233	2.59
474.585	2.57
474.936	2.57
475.288	2.55
475.639	2.55
475.99	2.56
476.342	2.56
476.693	2.58
477.044	2.61
477.395	2.62
477.746	2.61
478.097	2.6
478.448	2.59
478.8	2.6
479.15	2.6
479.501	2.6
479.852	2.6
480.203	2.59
480.554	2.6
480.905	2.62
481.255	2.62
481.606	2.61
481.957	2.62
482.307	2.62
482.658	2.63
483.009	2.63
483.359	2.62
483.709	2.63
484.06	2.63
484.41	2.63
484.761	2.63
485.111	2.64
485.461	2.65
485.811	2.66
486.162	2.66
486.512	2.66
486.862	2.67
487.212	2.67
487.562	2.67
487.912	2.68
488.262	2.67
488.612	2.68
488.961	2.69
489.311	2.7
489.661	2.71
490.011	2.7
490.36	2.7
490.71	2.72
491.06	2.71
491.409	2.71
491.759	2.72
492.108	2.72
492.458	2.71
492.807	2.7
493.157	2.7
493.506	2.69
493.855	2.69
494.204	2.69
494.554	2.69
494.903	2.69
495.252	2.69
495.601	2.68
495.95	2.68
496.299	2.67
496.648	2.68
496.997	2.66
497.346	2.69
497.695	2.7
498.043	2.69
498.392	2.69
498.741	2.7
499.09	2.69
499.438	2.68
499.787	2.7
500.135	2.7
500.484	2.69
500.832	2.7
501.181	2.7
501.529	2.7
501.878	2.73
502.226	2.73
502.574	2.72
502.923	2.75
503.271	2.74
503.619	2.74
503.967	2.74
504.315	2.77
504.663	2.77
505.011	2.76
505.359	2.78
505.707	2.78
506.055	2.79
506.403	2.81
506.751	2.8
507.098	2.79
507.446	2.79
507.794	2.8
508.141	2.8
508.489	2.82
508.837	2.82
509.184	2.79
509.531	2.79
509.879	2.8
510.226	2.79
510.574	2.79
510.921	2.8
511.268	2.79
511.616	2.78
511.963	2.77
512.31	2.77
512.657	2.76
513.004	2.77
513.351	2.76
513.698	2.75
514.045	2.75
514.392	2.77
514.739	2.77
515.086	2.78
515.432	2.76
515.779	2.75
516.126	2.76
516.473	2.78
516.819	2.8
517.166	2.82
517.512	2.81
517.859	2.81
518.205	2.82
518.552	2.83
518.898	2.83
519.245	2.84
519.591	2.86
519.937	2.85
520.283	2.86
520.629	2.87
520.976	2.87
521.322	2.86
521.668	2.85
522.014	2.87
522.36	2.86
522.706	2.9
523.052	2.92
523.398	2.92
523.743	2.91
524.089	2.9
524.435	2.9
524.781	2.91
525.126	2.93
525.472	2.93
525.817	2.93
526.163	2.93
526.509	2.93
526.854	2.93
527.199	2.94
527.545	2.93
527.89	2.93
528.235	2.93
528.581	2.94
528.926	2.94
529.271	2.93
529.616	2.92
529.961	2.91
530.306	2.9
530.651	2.9
530.996	2.91
531.341	2.9
531.686	2.9
532.031	2.9
532.376	2.89
532.721	2.88
533.065	2.88
533.41	2.89
533.755	2.88
534.099	2.87
534.444	2.87
534.788	2.89
535.133	2.88
535.477	2.9
535.822	2.9
536.166	2.9
536.51	2.91
536.855	2.93
537.199	2.93
537.543	2.94
537.887	2.95
538.231	2.94
538.576	2.95
538.92	2.94
539.264	2.93
539.608	2.94
539.951	2.94
540.295	2.95
540.639	2.96
540.983	2.97
541.327	2.98
541.671	2.97
542.014	2.97
542.358	2.98
542.701	2.99
543.045	3
543.389	3
543.732	3
544.075	2.99
544.419	3
544.762	2.99
545.105	2.99
545.449	3
545.792	3.01
546.135	3.03
546.478	3.03
546.821	3.04
547.165	3.03
547.508	3.04
547.851	3.01
548.194	2.99
548.536	2.99
548.879	2.99
549.222	3
549.565	3.02
549.908	3
550.25	2.99
550.593	2.99
550.936	3.01
551.278	3.04
551.621	3.05
551.963	3.09
552.306	3.07
552.648	3.08
552.991	3.08
553.333	3.09
553.675	3.12
554.017	3.12
554.36	3.15
554.702	3.15
555.044	3.15
555.386	3.16
555.728	3.18
556.07	3.21
556.412	3.18
556.754	3.17
557.096	3.12
557.438	3.1
557.78	3.12
558.121	3.1
558.463	3.08
558.805	3.08
559.147	3.05
559.488	3.08
559.83	3.08
560.171	3.06
560.513	3.08
560.854	3.03
561.196	3.04
561.537	3.02
561.878	3
562.22	3
562.561	2.99
562.902	3
563.243	2.98
563.584	2.96
563.925	2.97
564.266	2.99
564.607	3.01
564.948	3.01
565.289	3.03
565.63	3.01
565.971	3
566.312	3.01
566.653	2.99
566.993	2.99
567.334	3
567.675	3
568.015	3.04
568.356	3.05
568.696	3.06
569.037	3.09
569.377	3.12
569.718	3.11
570.058	3.1
570.398	3.1
570.739	3.11
571.079	3.12
571.419	3.16
571.759	3.14
572.099	3.16
572.439	3.15
572.779	3.17
573.119	3.19
573.459	3.2
573.799	3.22
574.139	3.22
574.479	3.21
574.819	3.2
575.158	3.18
575.498	3.16
575.838	3.16
576.177	3.15
576.517	3.12
576.856	3.13
577.196	3.15
577.535	3.17
577.875	3.2
578.214	3.19
578.553	3.2
578.893	3.22
579.232	3.2
579.571	3.2
579.91	3.2
580.25	3.17
580.589	3.16
580.928	3.12
581.267	3.12
581.606	3.13
581.945	3.11
582.283	3.1
582.622	3.11
582.961	3.15
583.3	3.15
583.639	3.17
583.977	3.2
584.316	3.17
584.654	3.14
584.993	3.11
585.332	3.13
585.67	3.09
586.008	3.08
586.347	3.05
586.685	3.07
587.024	3.08
587.362	3.1
587.7	3.08
588.038	3.13
588.376	3.15
588.715	3.14
589.053	3.17
589.391	3.2
589.729	3.21
590.067	3.12
590.404	3.18
590.742	3.19
591.08	3.18
591.418	3.18
591.756	3.22
592.093	3.24
592.431	3.26
592.769	3.28
593.106	3.28
593.444	3.3
593.781	3.29
594.119	3.31
594.456	3.27
594.793	3.29
595.131	3.25
595.468	3.25
595.805	3.26
596.143	3.26
596.48	3.23
596.817	3.25
597.154	3.3
597.491	3.27
597.828	3.24
598.165	3.23
598.502	3.24
598.839	3.22
599.176	3.22
599.512	3.21
599.849	3.2
600.186	3.22
600.523	3.23
600.859	3.25
601.196	3.24
601.532	3.29
601.869	3.31
602.205	3.32
602.542	3.31
602.878	3.3
603.215	3.32
603.551	3.34
603.887	3.35
604.223	3.34
604.56	3.34
604.896	3.36
605.232	3.38
605.568	3.39
605.904	3.41
606.24	3.43
606.576	3.46
606.912	3.48
607.248	3.48
607.583	3.51
607.919	3.48
608.255	3.5
608.591	3.5
608.926	3.51
609.262	3.52
609.597	3.5
609.933	3.54
610.268	3.56
610.604	3.52
610.939	3.48
611.275	3.49
611.61	3.47
611.945	3.46
612.281	3.47
612.616	3.47
612.951	3.48
613.286	3.46
613.621	3.41
613.956	3.38
614.291	3.36
614.626	3.35
614.961	3.39
615.296	3.33
615.631	3.3
615.966	3.26
616.3	3.24
616.635	3.28
616.97	3.27
617.304	3.25
617.639	3.31
617.973	3.3
618.308	3.3
618.642	3.32
618.977	3.29
619.311	3.26
619.646	3.3
619.98	3.32
620.314	3.38
620.648	3.45
620.983	3.44
621.317	3.44
621.651	3.42
621.985	3.42
622.319	3.48
622.653	3.53
622.987	3.53
623.321	3.56
623.655	3.59
623.988	3.6
624.322	3.58
624.656	3.61
624.99	3.65
625.323	3.69
625.657	3.69
625.99	3.76
626.324	3.79
626.657	3.8
626.991	3.76
627.324	3.73
627.658	3.7
627.991	3.71
628.324	3.73
628.657	3.7
628.991	3.69
629.324	3.67
629.657	3.67
629.99	3.69
630.323	3.71
630.656	3.67
630.989	3.7
631.322	3.69
631.655	3.67
631.987	3.7
632.32	3.69
632.653	3.67
632.986	3.67
633.318	3.62
633.651	3.58
633.984	3.59
634.316	3.55
634.649	3.53
634.981	3.58
635.313	3.61
635.646	3.66
635.978	3.65
636.31	3.7
636.643	3.7
636.975	3.69
637.307	3.65
637.639	3.68
637.971	3.62
638.303	3.63
638.635	3.62
638.967	3.6
639.299	3.61
639.631	3.57
639.963	3.53
640.295	3.56
640.626	3.58
640.958	3.58
641.29	3.62
641.621	3.6
641.953	3.57
642.285	3.5
642.616	3.5
642.948	3.55
643.279	3.5
643.61	3.46
643.942	3.45
644.273	3.49
644.604	3.46
644.936	3.44
645.267	3.44
645.598	3.44
645.929	3.4
646.26	3.45
646.591	3.45
646.922	3.47
647.253	3.46
647.584	3.44
647.915	3.44
648.245	3.46
648.576	3.47
648.907	3.49
649.238	3.51
649.568	3.52
649.899	3.51
650.229	3.47
650.56	3.53
650.89	3.59
651.221	3.59
651.551	3.6
651.882	3.7
652.212	3.68
652.542	3.73
652.872	3.7
653.203	3.69
653.533	3.75
653.863	3.77
654.193	3.75
654.523	3.76
654.853	3.77
655.183	3.74
655.513	3.76
655.843	3.72
656.172	3.79
656.502	3.81
656.832	3.81
657.162	3.92
657.491	3.89
657.821	3.87
658.15	3.89
658.48	3.89
658.809	3.87
659.139	3.9
659.468	3.84
659.798	3.87
660.127	3.85
660.456	3.86
660.785	3.79
661.115	3.88
661.444	3.92
661.773	3.93
662.102	3.96
662.431	4.08
662.76	4.12
663.089	4.06
663.418	4.02
663.747	4.02
664.076	3.98
664.404	4.01
664.733	3.97
665.062	3.93
665.39	3.9
665.719	3.77
666.048	3.8
666.376	3.81
666.705	3.81
667.033	3.85
667.362	3.85
667.69	3.96
668.018	3.83
668.347	3.79
668.675	3.83
669.003	3.8
669.331	3.77
669.659	3.74
669.987	3.66
670.315	3.69
670.643	3.68
670.971	3.7
671.299	3.69
671.627	3.76
671.955	3.78
672.283	3.86
672.61	3.94
672.938	3.95
673.266	3.98
673.593	4.12
673.921	4.05
674.249	4.04
674.576	4.01
674.904	4.07
675.231	4.11
675.558	4.06
675.886	4.08
676.213	3.99
676.54	4.02
676.867	4.12
677.195	4.12
677.522	4.09
677.849	4.05
678.176	4.04
678.503	3.99
678.83	4
679.157	3.97
679.484	3.97
679.81	3.91
680.137	3.93
680.464	3.87
680.791	3.93
681.117	3.87
681.444	3.86
681.771	3.89
682.097	3.87
682.424	3.96
682.75	3.94
683.077	3.98
683.403	4.04
683.729	4.1
684.056	4.09
684.382	4.16
684.708	4.14
685.034	4.15
685.36	4.16
685.686	4.16
686.012	4.13
686.339	4.16
686.664	4.2
686.99	4.29
687.316	4.23
687.642	4.29
687.968	4.38
688.294	4.51
688.619	4.54
688.945	4.53
689.271	4.4
689.596	4.41
689.922	4.45
690.247	4.46
690.573	4.39
690.898	4.32
691.224	4.36
691.549	4.42
691.874	4.42
692.2	4.41
692.525	4.42
692.85	4.49
693.175	4.48
693.5	4.5
693.825	4.41
694.15	4.43
694.475	4.26
694.8	4.22
695.125	4.08
695.45	3.99
695.775	3.93
696.099	3.91
696.424	3.96
696.749	3.93
697.073	3.83
697.398	3.91
697.723	3.99
698.047	3.97
698.372	3.89
698.696	3.96
699.02	4.04
699.345	4.01
699.669	4.03
699.993	4.02
700.318	4.04
700.642	4.02
700.966	4.02
701.29	4.08
701.614	4.16
701.938	4.23
702.262	4.34
702.586	4.48
702.91	4.47
703.234	4.49
703.557	4.55
703.881	4.53
704.205	4.46
704.529	4.5
704.852	4.58
705.176	4.72
705.499	4.75
705.823	4.7
706.146	4.76
706.47	4.91
706.793	4.9
707.117	4.91
707.44	4.85
707.763	4.82
708.086	4.81
708.409	4.69
708.733	4.58
709.056	4.55
709.379	4.61
709.702	4.64
710.025	4.66
710.348	4.54
710.671	4.55
710.993	4.58
711.316	4.6
711.639	4.53
711.962	4.48
712.284	4.31
712.607	4.28
712.93	4.23
713.252	4.04
713.575	4.07
713.897	4.09
714.22	4.12
714.542	4.13
714.864	4.13
715.187	4.17
715.509	4.17
715.831	4.14
716.153	4.05
716.475	4.17
716.798	4.26
717.12	4.27
717.442	4.32
717.764	4.3
718.085	4.32
718.407	4.23
718.729	4.19
719.051	4.34
719.373	4.38
719.695	4.47
720.016	4.66
720.338	4.83
720.659	4.79
720.981	4.69
721.302	4.8
721.624	4.76
721.945	4.7
722.267	4.77
722.588	4.77
722.909	4.75
723.231	4.47
723.552	4.41
723.873	4.51
724.194	4.54
724.515	4.52
724.836	4.4
725.157	4.6
725.478	4.68
725.799	4.6
726.12	4.4
726.441	4.3
726.762	4.15
727.083	4.06
727.403	4.1
727.724	4.28
728.045	4.2
728.365	4.19
728.686	4.27
729.006	4.24
729.327	4.32
729.647	4.45
729.967	4.61
730.288	4.69
730.608	4.56
730.928	4.49
731.249	4.53
731.569	4.64
731.889	4.52
732.209	4.48
732.529	4.55
732.849	4.76
733.169	4.79
733.489	4.81
733.809	4.93
734.129	5.05
734.448	5.08
734.768	5.14
735.088	5.35
735.408	5.35
735.727	5.47
736.047	5.49
736.366	5.46
736.686	5.63
737.005	5.6
737.325	5.68
737.644	5.75
737.963	5.79
738.283	5.75
738.602	5.76
738.921	6
739.24	6.01
739.56	6.06
739.879	6.13
740.198	6.36
740.517	6.08
740.836	5.94
741.155	5.91
741.473	5.85
741.792	5.66
742.111	5.86
742.43	5.76
742.748	5.67
743.067	5.52
743.386	5.51
743.704	5.5
744.023	5.44
744.341	5.44
744.66	5.58
744.978	5.54
745.297	5.53
745.615	5.26
745.933	5.15
746.252	5.27
746.57	5.02
746.888	4.82
747.206	4.95
747.524	4.88
747.842	4.99
748.16	5.29
748.478	5.45
748.796	5.3
749.114	5.59
749.432	5.54
749.749	5.65
750.067	5.5
750.385	5.16
750.703	5.07
751.02	4.99
751.338	4.98
751.655	5.09
751.973	5.25
752.29	5.45
752.608	5.58
752.925	5.52
753.242	5.76
753.56	5.8
753.877	5.74
754.194	5.79
754.511	5.66
754.828	5.48
755.145	5.31
755.462	5.2
755.779	4.75
756.096	4.78
756.413	4.85
756.73	4.96
757.047	4.97
757.364	5.11
757.68	5.03
757.997	4.88
758.314	4.94
758.63	4.81
758.947	4.49
759.264	4.29
759.58	4.17
759.896	4.27
760.213	4.33
760.529	4.48
760.846	4.49
761.162	4.61
761.478	4.67
761.794	4.69
762.11	4.86
762.426	5.17
762.743	5.33
763.059	5.35
763.375	5.38
763.69	5.54
764.006	5.62
764.322	5.87
764.638	5.93
764.954	5.91
765.27	6.01
765.585	6.35
765.901	6.76
766.216	6.82
766.532	6.89
766.848	6.64
767.163	6.62
767.478	6.62
767.794	6.53
768.109	6.74
768.424	6.93
768.74	7.08
769.055	6.98
769.37	6.97
769.685	6.74
770	6.79
770.315	6.85
770.63	7.06
770.945	7.05
771.26	7.1
771.575	7.22
771.89	7.14
772.205	6.84
772.52	6.29
772.834	6.07
773.149	5.68
773.464	6.09
773.778	6.09
774.093	6.16
774.407	6.4
774.722	6.06
775.036	6.22
775.351	5.68
775.665	5.66
775.979	5.46
776.293	5.8
776.608	6.06
776.922	6
777.236	5.95
777.55	5.6
777.864	5.5
778.178	5.56
778.492	5.91
778.806	6.04
779.12	6.17
779.434	6.4
779.747	7.2
780.061	6.99
780.375	6.81
780.689	6.86
781.002	6.8
781.316	7.04
781.629	6.99
781.943	7.77
782.256	7.87
782.57	7.72
782.883	7.71
783.196	7.23
783.51	7.08
783.823	6.8
784.136	7.46
784.449	7.73
784.762	7.39
785.075	7.02
785.388	6.69
785.701	6.76
786.014	6.65
786.327	6.12
786.64	6.44
786.953	7.08
787.266	6.9
787.578	6.9
787.891	7.07
788.204	6.8
788.516	6.28
788.829	6.28
789.141	6.68
789.454	6.76
789.766	6.91
790.079	7.25
790.391	7.43
790.703	7.17
791.016	6.92
791.328	7.03
791.64	7.19
791.952	8.05
792.264	7.75
792.576	7.8
792.888	7.73
793.2	7.7
793.512	7.23
793.824	7.21
794.136	6.78
794.448	6.57
794.76	6.51
795.071	6.4
795.383	6.1
795.695	5.66
796.006	5.66
796.318	5.56
796.629	5.76
796.941	5.77
797.252	6.12
797.564	6.47
797.875	6.76
798.186	6.64
798.497	6.09
798.809	6.41
799.12	6.72
799.431	6.36
799.742	6.23
800.053	6.4
800.364	6.65
800.675	6.93
800.986	6.87
801.297	6.83
801.608	6.64
801.918	6.68
802.229	7.03
802.54	6.36
802.851	6.56
803.161	6.09
803.472	5.91
803.782	5.84
804.093	5.84
804.403	5.44
804.714	5.46
805.024	5.48
805.334	5.97
805.645	5.78
805.955	6.55
806.265	7.3
806.575	6.81
806.885	7.1
807.195	7.32
807.505	7.2
807.815	7.23
808.125	7.97
808.435	8.03
808.745	8.19
809.055	8.96
809.365	8.61
809.674	8.26
809.984	8.37
810.294	7.85
810.603	7.82
810.913	8.11
811.222	8
811.532	8.5
811.841	8.08
812.151	8.3
812.46	7.32
812.769	6.46
813.079	7.05
813.388	6.67
813.697	6.78
814.006	6.59
814.315	6.12
814.624	5.89
814.933	5.65
815.242	5.98
815.551	5.86
815.86	6.92
816.169	6.8
816.478	6.7
816.786	6.83
817.095	7.03
817.404	6.67
817.712	7.09
818.021	6.65
818.33	6.25
818.638	6.56
818.947	7.28
819.255	7.08
819.563	6.71
819.872	6.76
820.18	6.84
820.488	7.18
820.796	7.7
821.105	7.68
821.413	8.02
821.721	7.83
822.029	7.79
822.337	7.64
822.645	7.85
822.953	7.72
823.26	7.79
823.568	7.64
823.876	7.63
824.184	7.6
824.491	7.52
824.799	7.8
825.107	7.64
825.414	7.67
825.722	7.8
826.029	8.01
826.337	8.18
826.644	8.14
826.951	8.03
827.259	7.99
827.566	7.95
827.873	7.87
828.18	7.95
828.488	7.83
828.795	7.7
829.102	7.68
829.409	7.95
829.716	8.06
830.023	8.1
830.329	8.26
830.636	8.21
830.943	8.38
831.25	8.32
831.557	8.64
831.863	8.4
832.17	8.16
832.476	7.99
832.783	7.93
833.089	8.07
833.396	8.14
833.702	8.32
834.009	8.33
834.315	8.06
834.621	8.18
834.928	8.56
835.234	8.39
835.54	8.36
835.846	8.35
836.152	8.15
836.458	8.19
836.764	8.14
837.07	8.14
837.376	8.23
837.682	7.73
837.988	7.14
838.293	7.47
838.599	7.59
838.905	7.03
839.211	6.77
839.516	6.75
839.822	6.61
840.127	5.9
840.433	5.8
840.738	5.99
841.044	5.34
841.349	5.07
841.654	5.73
841.959	5.65
842.265	5.78
842.57	5.87
842.875	5.39
843.18	5.32
843.485	5.66
843.79	5.14
844.095	5.55
844.4	6.39
844.705	4.99
845.01	5.66
845.315	6.8
845.619	6.22
845.924	6.56
846.229	7.95
846.533	8.45
846.838	9.75
847.142	10.08
847.447	10.11
847.751	10.18
848.056	10.41
848.36	11.37
848.664	11.53
848.969	12.18
849.273	13.13
849.577	13.95
849.881	14.31
850.185	15.35
850.489	14.85
850.794	13.41
851.097	14.94
851.401	16.53
851.705	16.38
852.009	19
852.313	17.41
852.617	15.6
852.92	16.43
853.224	14.57
853.528	14.76
853.831	15.11
854.135	15.52
854.438	15.24
854.742	15.09
855.045	15.07
855.349	13.38
855.652	11.93
855.955	11.31
856.259	9.75
856.562	9.04
856.865	9.53
857.168	9.96
857.471	9.74
857.774	6.47
858.077	6.75
858.38	5.56
858.683	6.68
858.986	7.83
859.289	6.41
859.592	7.02
859.894	6.99
860.197	6.77
860.5	6.41
860.802	5.3
861.105	4.81
861.407	2.8
861.71	1.99
862.012	3.82
862.315	2.19
862.617	2.29
862.919	1.39
863.222	1.09
863.524	2.85
863.826	3.78
864.128	5.63
864.43	5.56
864.732	5.75
865.034	5.37
865.336	2.01
865.638	0.37
865.94	-1.16
866.242	-2.03
866.544	-3.09
866.846	-3.14
867.147	-1.92
867.449	-1.77
867.751	0.04
868.052	1.83
868.354	-0.26
868.655	2.05
868.957	2.04
869.258	2.98
869.56	2.45
869.861	1.78
870.162	1.92
870.463	0.69
870.765	0.73
871.066	-0.24
871.367	-0.53
871.668	1.54
871.969	2.2
872.27	1.49
872.571	2.13
872.872	5.1
873.173	3.48
873.473	4.99
873.774	6.64
874.075	5.1
874.376	3.63
874.676	6.74
874.977	4.42
875.277	6.23
875.578	5.73
875.878	5.81
876.179	5.58
876.479	4.63
876.78	5.37
877.08	5.48
877.38	4.73
877.68	4.29
877.981	4.87
878.281	6.33
878.581	11.14
