Data from BU26940_Reflection_00012.txt Node
Date: Tue Nov 19 11:00:31 EST 2019
User: vgr7
Spectrometer: USB2G7710
Scans to average: 3
Trigger mode: 4
Integration Time (sec): 2.000000E-2
Electric dark correction enabled: true
Boxcar width: 10
XAxis mode: Wavelengths
Number of Pixels in Spectrum: 2048
>>>>>Begin Spectral Data<<<<<
177.721	166.93
178.105	-2900
178.488	87.95
178.871	96.15
179.254	50
179.636	72.83
180.019	82.14
180.402	400
180.785	-115.79
181.168	-94.92
181.55	-66.67
181.933	-23.6
182.316	36.51
182.698	-29.31
183.081	-51.41
183.463	-56.44
183.846	-106.11
184.228	-111.04
184.611	-188.62
184.993	-153.33
185.376	-153.79
185.758	-176.42
186.14	-85.71
186.522	-184.4
186.904	-300
187.287	-207.69
187.669	-338.46
188.051	-439.22
188.433	-630.77
188.815	881.25
189.197	1369.23
189.579	247.06
189.961	742.86
190.342	309.46
190.724	242.05
191.106	161.98
191.488	123.67
191.869	97.95
192.251	105.21
192.633	100
193.014	115.96
193.396	95.19
193.777	47.67
194.159	66.17
194.54	43.22
194.922	34.94
195.303	30.19
195.684	12.09
196.065	4.96
196.447	36.48
196.828	37.24
197.209	21.49
197.59	27.82
197.971	8.81
198.352	6.25
198.733	6.02
199.114	8.24
199.495	-9.44
199.876	-37.36
200.257	-23.85
200.638	-38.42
201.018	-39.34
201.399	-29.63
201.78	-9
202.16	-3.45
202.541	-21.11
202.922	-38.3
203.302	-31.3
203.683	-28
204.063	-35.53
204.444	-44.35
204.824	-37.88
205.204	-14.99
205.585	-16.76
205.965	-17.55
206.345	-17.65
206.725	-12.83
207.106	-16.36
207.486	-7.95
207.866	-10.24
208.246	-9.7
208.626	-11.92
209.006	-4.7
209.386	2.99
209.766	10.87
210.145	-4.42
210.525	1.09
210.905	31.57
211.285	42.58
211.664	39.29
212.044	44.21
212.424	49.89
212.803	46.47
213.183	36.05
213.562	39.53
213.942	32.57
214.321	31.87
214.701	41.86
215.08	48.51
215.459	43.57
215.838	45.77
216.218	46.84
216.597	51.82
216.976	41.64
217.355	35.44
217.734	11.84
218.113	24.61
218.492	21.22
218.871	20.69
219.25	12.18
219.629	12.28
220.008	8.63
220.387	5.62
220.766	12.73
221.144	14.68
221.523	3.58
221.902	13.87
222.28	25.89
222.659	21.59
223.037	20.53
223.416	23.58
223.794	26.4
224.173	26.68
224.551	22.04
224.929	20.08
225.308	21.72
225.686	27.54
226.064	22.03
226.442	30.32
226.821	27.75
227.199	25.7
227.577	27.1
227.955	27.88
228.333	27.55
228.711	23.91
229.089	23.15
229.467	21.04
229.845	18.35
230.222	17.55
230.6	19.79
230.978	19.97
231.356	17.59
231.733	17.94
232.111	18.1
232.488	17.6
232.866	20.27
233.243	16.67
233.621	16.33
233.998	16.28
234.376	14.7
234.753	12.13
235.13	10.73
235.508	10.46
235.885	9
236.262	7.53
236.639	6.17
237.016	4.75
237.393	5.56
237.77	4.88
238.147	4.54
238.524	3.9
238.901	3.03
239.278	3.25
239.655	3.32
240.032	2.46
240.409	2.67
240.785	2.17
241.162	2.56
241.539	2.92
241.915	3.68
242.292	3.26
242.668	3.44
243.045	3.72
243.421	3.81
243.798	3.88
244.174	4.01
244.551	4.01
244.927	4.04
245.303	4.08
245.679	4.21
246.056	4.1
246.432	4.25
246.808	4.74
247.184	4.68
247.56	4.61
247.936	4.57
248.312	4.69
248.688	4.8
249.064	4.83
249.44	4.85
249.815	4.51
250.191	4.73
250.567	4.81
250.943	4.85
251.318	4.6
251.694	4.55
252.069	4.74
252.445	4.85
252.82	5.01
253.196	5.2
253.571	5.31
253.947	5.62
254.322	5.28
254.697	4.61
255.073	4.61
255.448	4.36
255.823	4.86
256.198	4.63
256.573	4.42
256.948	4.51
257.323	4.19
257.698	4.28
258.073	4.08
258.448	4.02
258.823	3.98
259.198	4.27
259.573	4.08
259.948	4.08
260.322	4.17
260.697	4.07
261.072	3.93
261.446	3.82
261.821	3.72
262.195	3.66
262.57	3.87
262.944	3.79
263.319	3.81
263.693	3.38
264.067	3.5
264.442	3.6
264.816	3.49
265.19	3.57
265.564	3.64
265.938	3.76
266.313	3.79
266.687	3.6
267.061	3.5
267.435	3.69
267.809	3.41
268.183	3.2
268.556	3.29
268.93	3.26
269.304	3.17
269.678	3.21
270.051	3.3
270.425	3.2
270.799	3.04
271.172	3.11
271.546	3.25
271.919	3.24
272.293	3.19
272.666	3.18
273.04	3.04
273.413	2.87
273.787	2.85
274.16	2.7
274.533	2.96
274.906	2.97
275.279	3.04
275.653	2.99
276.026	3.05
276.399	3.11
276.772	3.17
277.145	3.22
277.518	3.06
277.891	3.03
278.263	2.92
278.636	3.1
279.009	3.13
279.382	3.26
279.755	3.26
280.127	3.16
280.5	3.26
280.872	3.36
281.245	3.42
281.617	3.4
281.99	3.48
282.362	3.46
282.735	3.26
283.107	3.22
283.479	3.29
283.852	3.28
284.224	3.09
284.596	3.13
284.968	3.15
285.34	3.12
285.713	3.16
286.085	3.23
286.457	3.26
286.829	3.22
287.201	3.22
287.572	3.18
287.944	3.24
288.316	3.17
288.688	3.27
289.06	3.38
289.431	3.42
289.803	3.53
290.175	3.52
290.546	3.64
290.918	3.73
291.289	3.75
291.661	3.81
292.032	3.94
292.403	3.93
292.775	3.92
293.146	4.02
293.517	3.89
293.889	3.94
294.26	4.02
294.631	4.03
295.002	4.1
295.373	4.18
295.744	4.23
296.115	4.33
296.486	4.25
296.857	4.24
297.228	4.24
297.599	4.14
297.97	4.18
298.34	4.29
298.711	4.35
299.082	4.38
299.452	4.34
299.823	4.28
300.194	4.39
300.564	4.41
300.935	4.63
301.305	4.82
301.676	4.8
302.046	4.84
302.416	4.81
302.787	4.76
303.157	4.7
303.527	4.83
303.897	4.8
304.267	4.93
304.637	5.03
305.008	5.1
305.378	5.23
305.748	5.24
306.117	5.23
306.487	5.27
306.857	5.5
307.227	5.65
307.597	5.77
307.967	5.66
308.336	5.7
308.706	5.72
309.076	5.86
309.445	6.09
309.815	6.07
310.184	6.09
310.554	6.2
310.923	6.21
311.293	6.23
311.662	6.23
312.031	6.22
312.401	6.08
312.77	6.03
313.139	6.09
313.508	6.18
313.877	6.13
314.246	6.01
314.616	5.9
314.985	5.99
315.353	6.09
315.722	6.27
316.091	6.37
316.46	6.34
316.829	6.29
317.198	6.19
317.567	6.44
317.935	6.69
318.304	6.82
318.672	6.93
319.041	6.98
319.41	7.16
319.778	7.17
320.147	7.31
320.515	7.34
320.883	7.32
321.252	7.37
321.62	7.32
321.988	7.4
322.357	7.54
322.725	7.52
323.093	7.58
323.461	7.5
323.829	7.65
324.197	7.71
324.565	7.73
324.933	7.97
325.301	7.87
325.669	7.74
326.037	7.66
326.405	7.84
326.772	7.94
327.14	7.87
327.508	7.91
327.875	7.98
328.243	8.01
328.61	8.1
328.978	8.07
329.346	8.15
329.713	8.31
330.08	8.27
330.448	8.27
330.815	8.3
331.182	8.39
331.55	8.33
331.917	8.32
332.284	8.36
332.651	8.23
333.018	8.2
333.385	8.31
333.752	8.4
334.119	8.3
334.486	8.34
334.853	8.36
335.22	8.44
335.587	8.46
335.954	8.56
336.32	8.6
336.687	8.69
337.054	8.85
337.42	8.78
337.787	8.8
338.153	8.86
338.52	8.96
338.886	9.02
339.253	9.14
339.619	9.23
339.986	9.27
340.352	9.25
340.718	9.32
341.084	9.39
341.451	9.43
341.817	9.5
342.183	9.43
342.549	9.6
342.915	9.64
343.281	9.71
343.647	9.69
344.013	9.61
344.379	9.64
344.745	9.54
345.11	9.54
345.476	9.63
345.842	9.6
346.208	9.61
346.573	9.64
346.939	9.58
347.304	9.57
347.67	9.54
348.035	9.58
348.401	9.63
348.766	9.53
349.132	9.51
349.497	9.54
349.862	9.54
350.228	9.44
350.593	9.36
350.958	9.34
351.323	9.38
351.688	9.44
352.053	9.38
352.418	9.48
352.783	9.54
353.148	9.48
353.513	9.56
353.878	9.51
354.243	9.45
354.608	9.52
354.972	9.55
355.337	9.61
355.702	9.58
356.066	9.55
356.431	9.56
356.795	9.6
357.16	9.54
357.524	9.56
357.889	9.55
358.253	9.64
358.618	9.62
358.982	9.6
359.346	9.58
359.71	9.61
360.075	9.63
360.439	9.64
360.803	9.7
361.167	9.66
361.531	9.68
361.895	9.66
362.259	9.66
362.623	9.58
362.987	9.53
363.351	9.53
363.714	9.49
364.078	9.5
364.442	9.42
364.806	9.41
365.169	9.34
365.533	9.31
365.896	9.25
366.26	9.22
366.623	9.14
366.987	9.12
367.35	9.07
367.714	8.93
368.077	8.89
368.44	8.75
368.803	8.58
369.167	8.47
369.53	8.45
369.893	8.36
370.256	8.28
370.619	8.24
370.982	8.11
371.345	8.08
371.708	8.03
372.071	7.93
372.434	7.91
372.797	7.92
373.159	7.85
373.522	7.82
373.885	7.73
374.247	7.74
374.61	7.67
374.973	7.59
375.335	7.61
375.698	7.51
376.06	7.47
376.423	7.54
376.785	7.53
377.147	7.5
377.51	7.45
377.872	7.46
378.234	7.46
378.596	7.49
378.958	7.42
379.321	7.35
379.683	7.39
380.045	7.3
380.407	7.25
380.769	7.2
381.13	7.15
381.492	7.1
381.854	7.06
382.216	7.06
382.578	7.06
382.939	6.94
383.301	6.94
383.663	6.9
384.024	6.85
384.386	6.78
384.747	6.67
385.109	6.59
385.47	6.52
385.832	6.44
386.193	6.35
386.554	6.25
386.916	6.24
387.277	6.16
387.638	6.15
387.999	6.13
388.36	6.06
388.721	6.02
389.082	6.01
389.443	5.93
389.804	5.91
390.165	5.85
390.526	5.89
390.887	5.87
391.248	5.82
391.609	5.78
391.969	5.75
392.33	5.73
392.691	5.68
393.051	5.64
393.412	5.63
393.772	5.65
394.133	5.67
394.493	5.62
394.854	5.55
395.214	5.51
395.574	5.44
395.935	5.43
396.295	5.37
396.655	5.33
397.015	5.3
397.376	5.27
397.736	5.19
398.096	5.1
398.456	5.01
398.816	4.99
399.176	4.97
399.535	4.92
399.895	4.93
400.255	4.91
400.615	4.9
400.975	4.84
401.334	4.79
401.694	4.78
402.054	4.73
402.413	4.73
402.773	4.71
403.132	4.67
403.492	4.62
403.851	4.6
404.211	4.57
404.57	4.57
404.929	4.52
405.288	4.52
405.648	4.55
406.007	4.55
406.366	4.51
406.725	4.49
407.084	4.47
407.443	4.45
407.802	4.43
408.161	4.41
408.52	4.4
408.879	4.37
409.238	4.35
409.596	4.35
409.955	4.35
410.314	4.31
410.673	4.33
411.031	4.34
411.39	4.32
411.748	4.31
412.107	4.28
412.465	4.27
412.824	4.26
413.182	4.2
413.54	4.19
413.899	4.17
414.257	4.17
414.615	4.16
414.974	4.12
415.332	4.11
415.69	4.08
416.048	4.05
416.406	4.02
416.764	3.99
417.122	3.96
417.48	3.94
417.838	3.92
418.195	3.89
418.553	3.87
418.911	3.87
419.269	3.85
419.626	3.83
419.984	3.79
420.342	3.76
420.699	3.74
421.057	3.72
421.414	3.73
421.772	3.69
422.129	3.66
422.486	3.66
422.844	3.65
423.201	3.63
423.558	3.61
423.915	3.6
424.273	3.59
424.63	3.6
424.987	3.59
425.344	3.57
425.701	3.56
426.058	3.56
426.415	3.53
426.772	3.52
427.128	3.52
427.485	3.53
427.842	3.55
428.199	3.57
428.555	3.55
428.912	3.52
429.269	3.52
429.625	3.54
429.982	3.52
430.338	3.53
430.695	3.52
431.051	3.52
431.407	3.52
431.764	3.52
432.12	3.51
432.476	3.51
432.832	3.51
433.189	3.52
433.545	3.48
433.901	3.47
434.257	3.46
434.613	3.44
434.969	3.44
435.325	3.42
435.681	3.41
436.036	3.44
436.392	3.45
436.748	3.46
437.104	3.47
437.459	3.47
437.815	3.48
438.171	3.48
438.526	3.48
438.882	3.51
439.237	3.51
439.593	3.51
439.948	3.5
440.304	3.5
440.659	3.51
441.014	3.52
441.369	3.52
441.725	3.53
442.08	3.53
442.435	3.53
442.79	3.53
443.145	3.52
443.5	3.5
443.855	3.51
444.21	3.5
444.565	3.48
444.92	3.47
445.275	3.46
445.629	3.47
445.984	3.46
446.339	3.43
446.693	3.42
447.048	3.4
447.403	3.41
447.757	3.41
448.112	3.4
448.466	3.39
448.82	3.38
449.175	3.37
449.529	3.36
449.883	3.34
450.238	3.34
450.592	3.34
450.946	3.32
451.3	3.31
451.654	3.29
452.008	3.29
452.362	3.3
452.716	3.3
453.07	3.29
453.424	3.27
453.778	3.26
454.132	3.26
454.486	3.26
454.839	3.25
455.193	3.24
455.547	3.23
455.9	3.23
456.254	3.23
456.607	3.23
456.961	3.24
457.314	3.25
457.668	3.25
458.021	3.25
458.375	3.23
458.728	3.24
459.081	3.25
459.434	3.25
459.787	3.24
460.141	3.23
460.494	3.25
460.847	3.25
461.2	3.25
461.553	3.26
461.906	3.27
462.259	3.28
462.611	3.29
462.964	3.31
463.317	3.33
463.67	3.36
464.022	3.36
464.375	3.37
464.728	3.38
465.08	3.38
465.433	3.4
465.785	3.45
466.138	3.44
466.49	3.46
466.843	3.49
467.195	3.5
467.547	3.51
467.899	3.52
468.252	3.56
468.604	3.6
468.956	3.61
469.308	3.61
469.66	3.62
470.012	3.64
470.364	3.66
470.716	3.67
471.068	3.7
471.42	3.71
471.772	3.72
472.123	3.73
472.475	3.76
472.827	3.76
473.178	3.78
473.53	3.78
473.882	3.77
474.233	3.76
474.585	3.74
474.936	3.72
475.288	3.71
475.639	3.7
475.99	3.68
476.342	3.7
476.693	3.72
477.044	3.7
477.395	3.7
477.746	3.68
478.097	3.66
478.448	3.63
478.8	3.64
479.15	3.63
479.501	3.63
479.852	3.64
480.203	3.63
480.554	3.61
480.905	3.63
481.255	3.64
481.606	3.64
481.957	3.65
482.307	3.67
482.658	3.67
483.009	3.67
483.359	3.67
483.709	3.67
484.06	3.67
484.41	3.67
484.761	3.67
485.111	3.67
485.461	3.67
485.811	3.68
486.162	3.68
486.512	3.69
486.862	3.68
487.212	3.68
487.562	3.68
487.912	3.69
488.262	3.69
488.612	3.68
488.961	3.68
489.311	3.68
489.661	3.69
490.011	3.69
490.36	3.69
490.71	3.69
491.06	3.7
491.409	3.69
491.759	3.69
492.108	3.71
492.458	3.72
492.807	3.74
493.157	3.75
493.506	3.76
493.855	3.77
494.204	3.79
494.554	3.8
494.903	3.82
495.252	3.86
495.601	3.88
495.95	3.92
496.299	3.94
496.648	3.97
496.997	4
497.346	4.05
497.695	4.1
498.043	4.15
498.392	4.19
498.741	4.24
499.09	4.3
499.438	4.35
499.787	4.41
500.135	4.47
500.484	4.52
500.832	4.61
501.181	4.69
501.529	4.78
501.878	4.88
502.226	4.99
502.574	5.07
502.923	5.16
503.271	5.26
503.619	5.4
503.967	5.53
504.315	5.66
504.663	5.78
505.011	5.89
505.359	6.01
505.707	6.16
506.055	6.33
506.403	6.47
506.751	6.63
507.098	6.8
507.446	6.92
507.794	7.1
508.141	7.27
508.489	7.45
508.837	7.62
509.184	7.78
509.531	7.96
509.879	8.15
510.226	8.34
510.574	8.54
510.921	8.73
511.268	8.93
511.616	9.13
511.963	9.36
512.31	9.62
512.657	9.84
513.004	10.09
513.351	10.33
513.698	10.65
514.045	10.9
514.392	11.22
514.739	11.56
515.086	11.85
515.432	12.13
515.779	12.43
516.126	12.74
516.473	13.02
516.819	13.29
517.166	13.57
517.512	13.82
517.859	14.09
518.205	14.34
518.552	14.6
518.898	14.88
519.245	15.13
519.591	15.39
519.937	15.67
520.283	15.92
520.629	16.22
520.976	16.49
521.322	16.84
521.668	17.12
522.014	17.42
522.36	17.76
522.706	18.11
523.052	18.45
523.398	18.81
523.743	19.19
524.089	19.58
524.435	19.92
524.781	20.28
525.126	20.61
525.472	20.93
525.817	21.21
526.163	21.46
526.509	21.73
526.854	21.94
527.199	22.16
527.545	22.37
527.89	22.57
528.235	22.78
528.581	22.97
528.926	23.17
529.271	23.36
529.616	23.56
529.961	23.75
530.306	23.97
530.651	24.18
530.996	24.43
531.341	24.68
531.686	24.91
532.031	25.13
532.376	25.36
532.721	25.59
533.065	25.85
533.41	26.07
533.755	26.3
534.099	26.58
534.444	26.83
534.788	27.08
535.133	27.34
535.477	27.59
535.822	27.84
536.166	28.12
536.51	28.47
536.855	28.77
537.199	29.09
537.543	29.42
537.887	29.72
538.231	30.03
538.576	30.36
538.92	30.7
539.264	31
539.608	31.28
539.951	31.52
540.295	31.78
540.639	32.05
540.983	32.24
541.327	32.47
541.671	32.68
542.014	32.93
542.358	33.11
542.701	33.3
543.045	33.49
543.389	33.68
543.732	33.86
544.075	34.03
544.419	34.25
544.762	34.45
545.105	34.69
545.449	34.87
545.792	35.04
546.135	35.24
546.478	35.51
546.821	35.77
547.165	36.02
547.508	36.19
547.851	36.43
548.194	36.73
548.536	36.93
548.879	37.16
549.222	37.37
549.565	37.66
549.908	37.88
550.25	38.16
550.593	38.37
550.936	38.57
551.278	38.83
551.621	39.03
551.963	39.24
552.306	39.46
552.648	39.7
552.991	39.9
553.333	40.09
553.675	40.24
554.017	40.33
554.36	40.52
554.702	40.72
555.044	40.88
555.386	41.01
555.728	41.2
556.07	41.38
556.412	41.52
556.754	41.61
557.096	41.8
557.438	41.93
557.78	42.12
558.121	42.25
558.463	42.45
558.805	42.6
559.147	42.76
559.488	42.85
559.83	42.99
560.171	43.16
560.513	43.32
560.854	43.46
561.196	43.68
561.537	43.83
561.878	44.05
562.22	44.18
562.561	44.35
562.902	44.48
563.243	44.61
563.584	44.73
563.925	44.87
564.266	44.98
564.607	45.09
564.948	45.16
565.289	45.29
565.63	45.38
565.971	45.48
566.312	45.62
566.653	45.76
566.993	45.87
567.334	45.99
567.675	46.09
568.015	46.2
568.356	46.28
568.696	46.37
569.037	46.45
569.377	46.57
569.718	46.63
570.058	46.66
570.398	46.79
570.739	46.88
571.079	47
571.419	47.08
571.759	47.2
572.099	47.36
572.439	47.43
572.779	47.5
573.119	47.57
573.459	47.61
573.799	47.69
574.139	47.8
574.479	47.86
574.819	47.94
575.158	48.04
575.498	48.07
575.838	48.14
576.177	48.22
576.517	48.28
576.856	48.36
577.196	48.51
577.535	48.58
577.875	48.71
578.214	48.72
578.553	48.81
578.893	48.88
579.232	48.98
579.571	49.05
579.91	49.12
580.25	49.27
580.589	49.29
580.928	49.37
581.267	49.37
581.606	49.44
581.945	49.48
582.283	49.5
582.622	49.66
582.961	49.76
583.3	49.75
583.639	49.77
583.977	49.84
584.316	49.95
584.654	49.93
584.993	49.96
585.332	50.08
585.67	50.14
586.008	50.16
586.347	50.15
586.685	50.32
587.024	50.4
587.362	50.47
587.7	50.56
588.038	50.64
588.376	50.76
588.715	50.81
589.053	50.95
589.391	51.08
589.729	51.07
590.067	51.1
590.404	51.19
590.742	51.27
591.08	51.32
591.418	51.32
591.756	51.44
592.093	51.45
592.431	51.5
592.769	51.54
593.106	51.65
593.444	51.81
593.781	51.82
594.119	51.86
594.456	51.82
594.793	51.97
595.131	51.96
595.468	51.89
595.805	51.97
596.143	51.97
596.48	51.95
596.817	51.95
597.154	52.05
597.491	52.09
597.828	52.12
598.165	52.19
598.502	52.26
598.839	52.34
599.176	52.36
599.512	52.47
599.849	52.5
600.186	52.52
600.523	52.5
600.859	52.49
601.196	52.55
601.532	52.64
601.869	52.66
602.205	52.75
602.542	52.83
602.878	52.89
603.215	52.91
603.551	52.92
603.887	52.92
604.223	52.89
604.56	52.9
604.896	53.02
605.232	53.05
605.568	53.05
605.904	53.05
606.24	53.16
606.576	53.14
606.912	53.2
607.248	53.3
607.583	53.33
607.919	53.36
608.255	53.38
608.591	53.42
608.926	53.45
609.262	53.49
609.597	53.58
609.933	53.54
610.268	53.59
610.604	53.63
610.939	53.76
611.275	53.8
611.61	53.89
611.945	53.86
612.281	53.8
612.616	53.8
612.951	53.82
613.286	53.9
613.621	54.03
613.956	54.11
614.291	54.07
614.626	54.17
614.961	54.2
615.296	54.26
615.631	54.31
615.966	54.27
616.3	54.34
616.635	54.38
616.97	54.49
617.304	54.53
617.639	54.64
617.973	54.66
618.308	54.66
618.642	54.56
618.977	54.57
619.311	54.69
619.646	54.78
619.98	54.84
620.314	54.81
620.648	54.7
620.983	54.63
621.317	54.56
621.651	54.52
621.985	54.59
622.319	54.55
622.653	54.54
622.987	54.59
623.321	54.65
623.655	54.56
623.988	54.53
624.322	54.42
624.656	54.35
624.99	54.39
625.323	54.47
625.657	54.53
625.99	54.56
626.324	54.5
626.657	54.49
626.991	54.44
627.324	54.41
627.658	54.5
627.991	54.67
628.324	54.7
628.657	54.74
628.991	54.71
629.324	54.76
629.657	54.8
629.99	54.84
630.323	54.74
630.656	54.73
630.989	54.73
631.322	54.82
631.655	54.94
631.987	54.91
632.32	54.97
632.653	55
632.986	54.99
633.318	55.03
633.651	55.03
633.984	55.03
634.316	55.07
634.649	55.08
634.981	54.96
635.313	55.13
635.646	55.12
635.978	55.15
636.31	55.14
636.643	55.17
636.975	55.11
637.307	55.27
637.639	55.41
637.971	55.48
638.303	55.49
638.635	55.47
638.967	55.61
639.299	55.59
639.631	55.65
639.963	55.74
640.295	55.81
640.626	55.77
640.958	55.93
641.29	55.91
641.621	55.93
641.953	55.92
642.285	55.86
642.616	55.83
642.948	55.8
643.279	55.81
643.61	55.8
643.942	55.8
644.273	55.7
644.604	55.62
644.936	55.63
645.267	55.66
645.598	55.7
645.929	55.58
646.26	55.49
646.591	55.49
646.922	55.51
647.253	55.58
647.584	55.72
647.915	55.64
648.245	55.78
648.576	55.69
648.907	55.75
649.238	55.71
649.568	55.79
649.899	55.83
650.229	55.89
650.56	56.01
650.89	56.01
651.221	56.1
651.551	56.14
651.882	56.15
652.212	56.13
652.542	56.08
652.872	56.17
653.203	56.18
653.533	56.1
653.863	56.13
654.193	56.03
654.523	55.98
654.853	56.13
655.183	56.07
655.513	56.18
655.843	56.07
656.172	56.16
656.502	56.24
656.832	56.31
657.162	56.33
657.491	56.32
657.821	56.41
658.15	56.37
658.48	56.39
658.809	56.41
659.139	56.39
659.468	56.4
659.798	56.37
660.127	56.38
660.456	56.5
660.785	56.46
661.115	56.55
661.444	56.54
661.773	56.44
662.102	56.4
662.431	56.44
662.76	56.5
663.089	56.46
663.418	56.4
663.747	56.34
664.076	56.38
664.404	56.3
664.733	56.17
665.062	56.17
665.39	56.11
665.719	56.11
666.048	56.25
666.376	56.31
666.705	56.38
667.033	56.44
667.362	56.5
667.69	56.5
668.018	56.6
668.347	56.67
668.675	56.59
669.003	56.68
669.331	56.52
669.659	56.58
669.987	56.57
670.315	56.53
670.643	56.56
670.971	56.53
671.299	56.59
671.627	56.78
671.955	56.76
672.283	56.94
672.61	57.04
672.938	56.92
673.266	56.84
673.593	56.78
673.921	56.82
674.249	56.78
674.576	56.8
674.904	56.8
675.231	56.72
675.558	56.92
675.886	56.98
676.213	57.13
676.54	57.14
676.867	57.29
677.195	57.4
677.522	57.45
677.849	57.4
678.176	57.35
678.503	57.26
678.83	57.24
679.157	57.3
679.484	57.2
679.81	57.23
680.137	57.22
680.464	57.29
680.791	57.27
681.117	57.16
681.444	57.22
681.771	57.17
682.097	57.28
682.424	57.23
682.75	57.19
683.077	57.13
683.403	57.17
683.729	57.11
684.056	57.01
684.382	57
684.708	56.98
685.034	57.07
685.36	57.21
685.686	57.22
686.012	57.11
686.339	57.11
686.664	57.16
686.99	57.19
687.316	57.2
687.642	57.32
687.968	57.55
688.294	57.54
688.619	57.64
688.945	57.57
689.271	57.44
689.596	57.45
689.922	57.52
690.247	57.56
690.573	57.49
690.898	57.63
691.224	57.59
691.549	57.8
691.874	57.89
692.2	57.73
692.525	57.81
692.85	57.74
693.175	57.83
693.5	57.89
693.825	57.98
694.15	58.04
694.475	57.93
694.8	58.04
695.125	58.08
695.45	57.86
695.775	57.96
696.099	58.17
696.424	58.23
696.749	58.25
697.073	58.13
697.398	58.19
697.723	58.15
698.047	58.31
698.372	58.23
698.696	58.27
699.02	58.23
699.345	58.14
699.669	58.2
699.993	58.22
700.318	58.17
700.642	58.13
700.966	57.91
701.29	58.06
701.614	57.86
701.938	57.81
702.262	57.97
702.586	57.9
702.91	57.81
703.234	57.88
703.557	57.83
703.881	57.96
704.205	57.92
704.529	57.92
704.852	57.77
705.176	57.73
705.499	57.47
705.823	57.44
706.146	57.52
706.47	57.6
706.793	57.62
707.117	57.52
707.44	57.55
707.763	57.6
708.086	57.36
708.409	57.5
708.733	57.43
709.056	57.32
709.379	57.34
709.702	57.24
710.025	57.13
710.348	57.26
710.671	57.19
710.993	57.15
711.316	57.26
711.639	57.35
711.962	57.36
712.284	57.39
712.607	57.61
712.93	57.66
713.252	57.61
713.575	57.55
713.897	57.68
714.22	57.74
714.542	58.05
714.864	58.18
715.187	58.18
715.509	58.21
715.831	58.33
716.153	58.58
716.475	58.54
716.798	58.52
717.12	58.52
717.442	58.65
717.764	58.95
718.085	58.82
718.407	58.68
718.729	58.77
719.051	58.83
719.373	58.88
719.695	58.81
720.016	58.74
720.338	58.8
720.659	58.89
720.981	58.94
721.302	58.82
721.624	59.01
721.945	59.11
722.267	59.12
722.588	59.07
722.909	58.73
723.231	58.81
723.552	58.67
723.873	58.72
724.194	58.6
724.515	58.25
724.836	58.4
725.157	58.63
725.478	58.7
725.799	58.72
726.12	58.47
726.441	58.31
726.762	58.48
727.083	58.57
727.403	58.57
727.724	58.52
728.045	58.4
728.365	58.2
728.686	58.1
729.006	58.15
729.327	57.97
729.647	58.11
729.967	58.23
730.288	58.48
730.608	58.31
730.928	58.34
731.249	58.55
731.569	58.41
731.889	58.37
732.209	58.23
732.529	58.36
732.849	58.73
733.169	58.91
733.489	58.95
733.809	59.04
734.129	59.05
734.448	59.28
734.768	59.4
735.088	59.54
735.408	59.67
735.727	59.71
736.047	59.8
736.366	59.85
736.686	60.02
737.005	59.98
737.325	60.28
737.644	60.36
737.963	60.42
738.283	60.45
738.602	60.43
738.921	60.64
739.24	60.39
739.56	60.19
739.879	60.24
740.198	60.14
740.517	59.99
740.836	60.03
741.155	59.88
741.473	59.7
741.792	59.67
742.111	59.57
742.43	59.37
742.748	59.65
743.067	59.59
743.386	59.31
743.704	59.17
744.023	58.91
744.341	58.75
744.66	58.57
744.978	58.44
745.297	58.41
745.615	58.29
745.933	58.51
746.252	58.91
746.57	59.24
746.888	58.98
747.206	59.1
747.524	58.83
747.842	58.59
748.16	58.8
748.478	58.62
748.796	58.6
749.114	58.58
749.432	58.54
749.749	58.88
750.067	59.26
750.385	59.59
750.703	59.7
751.02	59.75
751.338	59.92
751.655	60.26
751.973	60.1
752.29	60.23
752.608	60.16
752.925	59.57
753.242	59.29
753.56	59.79
753.877	59.61
754.194	59.7
754.511	60.02
754.828	60.05
755.145	59.99
755.462	60.08
755.779	60.61
756.096	60.81
756.413	60.36
756.73	60.33
757.047	59.98
757.364	60.28
757.68	60.34
757.997	60.35
758.314	60.33
758.63	60.16
758.947	60.04
759.264	60.08
759.58	60.22
759.896	60.21
760.213	60.05
760.529	59.97
760.846	60.25
761.162	60.55
761.478	60.51
761.794	60.87
762.11	60.64
762.426	60.33
762.743	59.92
763.059	59.9
763.375	59.61
763.69	59.73
764.006	59.49
764.322	59.57
764.638	59.57
764.954	59.44
765.27	59.86
765.585	59.71
765.901	59.63
766.216	59.72
766.532	59.74
766.848	59.7
767.163	59.9
767.478	59.92
767.794	59.69
768.109	59.66
768.424	59.46
768.74	59.53
769.055	59.69
769.37	60.04
769.685	60.09
770	60.41
770.315	60.17
770.63	60.3
770.945	60.18
771.26	60.11
771.575	60.31
771.89	60.07
772.205	60.19
772.52	60.42
772.834	60.32
773.149	60.61
773.464	60.54
773.778	60.04
774.093	60.14
774.407	60
774.722	59.89
775.036	59.73
775.351	59.88
775.665	59.57
775.979	59.58
776.293	59.63
776.608	59.47
776.922	59.43
777.236	59.49
777.55	59.51
777.864	59.23
778.178	59.55
778.492	60.17
778.806	60.49
779.12	60.18
779.434	60.28
779.747	59.84
780.061	59.99
780.375	60.48
780.689	60.07
781.002	60.1
781.316	60.46
781.629	60.34
781.943	60.17
782.256	60.27
782.57	60.49
782.883	60.36
783.196	60.33
783.51	61.1
783.823	60.72
784.136	60.81
784.449	61.08
784.762	61.1
785.075	60.5
785.388	60.37
785.701	60.44
786.014	60.24
786.327	60.3
786.64	60.31
786.953	60.3
787.266	60.35
787.578	60.12
787.891	60.19
788.204	60.42
788.516	60.29
788.829	60.4
789.141	60.05
789.454	60.45
789.766	60.56
790.079	60.04
790.391	60.19
790.703	59.99
791.016	60.03
791.328	60.1
791.64	60.3
791.952	60.34
792.264	60.26
792.576	60.2
792.888	60.08
793.2	60.23
793.512	59.99
793.824	59.93
794.136	60.18
794.448	60.13
794.76	60.59
795.071	61.63
795.383	61.37
795.695	61.48
796.006	60.91
796.318	60.42
796.629	60.22
796.941	60.42
797.252	60.74
797.564	61.08
797.875	60.5
798.186	60.69
798.497	60.37
798.809	60.86
799.12	60.62
799.431	60.87
799.742	60.53
800.053	60.64
800.364	61.09
800.675	60.63
800.986	60.7
801.297	60.24
801.608	59.62
801.918	60.66
802.229	61.09
802.54	61.78
802.851	62.24
803.161	62.62
803.472	62.24
803.782	62.67
804.093	62.42
804.403	62.2
804.714	61.36
805.024	61.45
805.334	62.04
805.645	62.82
805.955	62.94
806.265	62.86
806.575	63.25
806.885	62.91
807.195	63.06
807.505	62.81
807.815	62.88
808.125	62.63
808.435	62.12
808.745	61.45
809.055	61.5
809.365	62.02
809.674	62.34
809.984	63.08
810.294	62.59
810.603	62.63
810.913	63.3
811.222	63.54
811.532	64.44
811.841	63.79
812.151	63.93
812.46	63.93
812.769	63.98
813.079	63.53
813.388	63.48
813.697	62.94
814.006	62.78
814.315	63.22
814.624	63.69
814.933	63.58
815.242	63.85
815.551	64.11
815.86	63.56
816.169	63.57
816.478	63.24
816.786	63.01
817.095	62.92
817.404	62.51
817.712	62.65
818.021	60.97
818.33	60.44
818.638	59.64
818.947	59.58
819.255	60
819.563	60.14
819.872	60.41
820.18	60.32
820.488	60.44
820.796	60.35
821.105	60.34
821.413	60.26
821.721	60.28
822.029	60.19
822.337	60.35
822.645	60.57
822.953	60.51
823.26	60.45
823.568	60.56
823.876	60.65
824.184	60.57
824.491	60.99
824.799	61.14
825.107	61.36
825.414	61.3
825.722	61.32
826.029	61.45
826.337	61.26
826.644	61.52
826.951	61.54
827.259	61.8
827.566	61.61
827.873	61.71
828.18	61.7
828.488	61.71
828.795	61.44
829.102	61.1
829.409	61.18
829.716	61.47
830.023	61.51
830.329	61.89
830.636	62.26
830.943	62.18
831.25	62
831.557	61.49
831.863	62.01
832.17	61.96
832.476	61.57
832.783	61.54
833.089	61.76
833.396	61.82
833.702	60.92
834.009	61.43
834.315	61.32
834.621	61.36
834.928	61.16
835.234	60.87
835.54	61.39
835.846	61.48
836.152	61.16
836.458	60.75
836.764	59.81
837.07	59.05
837.376	58.8
837.682	59
837.988	59.55
838.293	59.02
838.599	58.59
838.905	57.9
839.211	58.05
839.516	57.72
839.822	57.61
840.127	57.98
840.433	57.53
840.738	57.52
841.044	57.8
841.349	57.48
841.654	58.89
841.959	58.39
842.265	57.61
842.57	57.8
842.875	58.21
843.18	59.31
843.485	60.92
843.79	61.08
844.095	61.05
844.4	59.34
844.705	59.6
845.01	61.17
845.315	62.81
845.619	63.08
845.924	62.98
846.229	64.11
846.533	65.4
846.838	64.96
847.142	64.26
847.447	63.4
847.751	65.37
848.056	65.9
848.36	63.76
848.664	64.52
848.969	66.39
849.273	65.78
849.577	65.47
849.881	64.25
850.185	62.55
850.489	62.1
850.794	64.25
851.097	63.25
851.401	61.22
851.705	61.39
852.009	61.78
852.313	60.93
852.617	59.53
852.92	58.57
853.224	57.55
853.528	57.73
853.831	57.73
854.135	56.48
854.438	54.78
854.742	55.02
855.045	55.35
855.349	52.97
855.652	52.41
855.955	53.84
856.259	53.35
856.562	54.09
856.865	53.91
857.168	54.82
857.471	55.62
857.774	56.03
858.077	57.65
858.38	58.57
858.683	61.1
858.986	63.14
859.289	63.52
859.592	63.99
859.894	66.69
860.197	66.19
860.5	69.25
860.802	69.74
861.105	70.56
861.407	71.72
861.71	73.44
862.012	73.87
862.315	71.59
862.617	72.63
862.919	75.76
863.222	75.32
863.524	75.06
863.826	75.1
864.128	75.52
864.43	73.42
864.732	74.3
865.034	73.16
865.336	71.99
865.638	71.42
865.94	73.16
866.242	70.5
866.544	73.05
866.846	70.42
867.147	71.73
867.449	71.79
867.751	71.09
868.052	69.79
868.354	72.53
868.655	71.25
868.957	70.55
869.258	69.95
869.56	68.65
869.861	67.83
870.162	67.88
870.463	69.28
870.765	70.11
871.066	68.13
871.367	67.61
871.668	67.01
871.969	66.26
872.27	65.84
872.571	66.92
872.872	63.91
873.173	62.11
873.473	60.3
873.774	62.08
874.075	62.99
874.376	64.49
874.676	64.3
874.977	67.04
875.277	66.87
875.578	66.23
875.878	68.02
876.179	68.71
876.479	69.45
876.78	67.84
877.08	66.91
877.38	66.95
877.68	67.16
877.981	67.08
878.281	68.69
878.581	70.02
