Data from BU26944_Reflection_00008.txt Node
Date: Tue Nov 19 10:54:43 EST 2019
User: vgr7
Spectrometer: USB2G7710
Scans to average: 3
Trigger mode: 4
Integration Time (sec): 2.000000E-2
Electric dark correction enabled: true
Boxcar width: 10
XAxis mode: Wavelengths
Number of Pixels in Spectrum: 2048
>>>>>Begin Spectral Data<<<<<
177.721	-233.08
178.105	-231.86
178.488	-227.63
178.871	-508.57
179.254	1720
179.636	218.26
180.019	121.3
180.402	-425
180.785	-115.29
181.168	-40.27
181.55	-60.94
181.933	26.74
182.316	-2.74
182.698	2.45
183.081	6.55
183.463	16.53
183.846	18.01
184.228	26.74
184.611	-670.27
184.993	-114.29
185.376	-24.06
185.758	334.94
186.14	368.42
186.522	7.58
186.904	-62.65
187.287	-29.26
187.669	-22.4
188.051	-48.17
188.433	-96.46
188.815	-81.26
189.197	-54.95
189.579	-57.37
189.961	-54.57
190.342	-55.29
190.724	-69.1
191.106	-71.71
191.488	-70.6
191.869	-57.03
192.251	-43.53
192.633	-64.23
193.014	-39.01
193.396	-33.91
193.777	-12.09
194.159	-2.12
194.54	-7.61
194.922	3.58
195.303	-10.96
195.684	-15.26
196.065	-11.68
196.447	0.22
196.828	8.01
197.209	17.39
197.59	19.63
197.971	-0.15
198.352	20.85
198.733	31.18
199.114	15.53
199.495	17.51
199.876	12.19
200.257	13.81
200.638	26.3
201.018	16.71
201.399	13.25
201.78	19.14
202.16	32.31
202.541	21.53
202.922	29.91
203.302	15.9
203.683	-1.22
204.063	6.31
204.444	4.44
204.824	24.4
205.204	27.78
205.585	44.92
205.965	62.48
206.345	49.29
206.725	45.23
207.106	65.36
207.486	73.64
207.866	101.36
208.246	73.76
208.626	69.08
209.006	56.41
209.386	50.04
209.766	50.95
210.145	37.55
210.525	43.17
210.905	49.26
211.285	68.09
211.664	71.47
212.044	83.05
212.424	81.46
212.803	69.94
213.183	33.45
213.562	32.13
213.942	34.61
214.321	33.56
214.701	42.99
215.08	43.38
215.459	57.03
215.838	66.62
216.218	91.21
216.597	104.9
216.976	89.14
217.355	101.26
217.734	122.7
218.113	106.57
218.492	84.16
218.871	70.55
219.25	57.56
219.629	75.59
220.008	55.57
220.387	36.97
220.766	55.73
221.144	90.61
221.523	16.1
221.902	28.01
222.28	50.95
222.659	60.12
223.037	57.25
223.416	50.56
223.794	39.29
224.173	44.53
224.551	41.62
224.929	44.41
225.308	44.72
225.686	37.83
226.064	23.18
226.442	27.5
226.821	24.37
227.199	25.51
227.577	26.49
227.955	24.15
228.333	23.68
228.711	18.12
229.089	16.45
229.467	20.04
229.845	19.88
230.222	15.95
230.6	11.84
230.978	12.05
231.356	9.06
231.733	10.89
232.111	8.5
232.488	6.39
232.866	7.35
233.243	7.43
233.621	9.82
233.998	12.47
234.376	12.71
234.753	13.19
235.13	11.65
235.508	11.79
235.885	10.84
236.262	10.19
236.639	9.67
237.016	8.62
237.393	9.54
237.77	7.44
238.147	7
238.524	7.27
238.901	6.61
239.278	6.6
239.655	5.96
240.032	6.21
240.409	6.13
240.785	5.56
241.162	5.12
241.539	4.94
241.915	4.38
242.292	4.39
242.668	4.62
243.045	4.78
243.421	4.62
243.798	4.72
244.174	4.54
244.551	4.69
244.927	4.71
245.303	4.35
245.679	4.56
246.056	4.46
246.432	4.51
246.808	4.88
247.184	4.69
247.56	4.53
247.936	4.51
248.312	4.43
248.688	4.4
249.064	4.33
249.44	4.07
249.815	4.04
250.191	3.85
250.567	3.67
250.943	3.76
251.318	3.55
251.694	3.48
252.069	3.52
252.445	3.56
252.82	3.76
253.196	3.69
253.571	3.49
253.947	3.73
254.322	3.62
254.697	3.23
255.073	3.63
255.448	3.92
255.823	4.2
256.198	4.25
256.573	4.42
256.948	4.44
257.323	4.33
257.698	4.35
258.073	4.41
258.448	4.27
258.823	4.15
259.198	4.04
259.573	3.82
259.948	3.9
260.322	3.8
260.697	3.82
261.072	3.86
261.446	3.95
261.821	3.93
262.195	3.75
262.57	3.74
262.944	3.67
263.319	3.67
263.693	3.55
264.067	3.44
264.442	3.21
264.816	3.3
265.19	3.39
265.564	3.46
265.938	3.16
266.313	3.21
266.687	3.25
267.061	3.57
267.435	3.92
267.809	3.86
268.183	3.8
268.556	3.6
268.93	3.55
269.304	3.52
269.678	3.6
270.051	3.69
270.425	3.65
270.799	3.59
271.172	3.48
271.546	3.64
271.919	3.69
272.293	3.75
272.666	3.71
273.04	3.81
273.413	3.8
273.787	3.99
274.16	4.06
274.533	4.05
274.906	3.99
275.279	3.81
275.653	3.74
276.026	3.82
276.399	3.96
276.772	4.05
277.145	4.15
277.518	3.98
277.891	3.96
278.263	4.09
278.636	4.16
279.009	4.26
279.382	4.03
279.755	4.06
280.127	3.99
280.5	3.84
280.872	3.82
281.245	3.83
281.617	3.94
281.99	3.89
282.362	3.8
282.735	3.83
283.107	3.9
283.479	4.03
283.852	3.91
284.224	3.92
284.596	3.82
284.968	3.62
285.34	3.72
285.713	3.77
286.085	3.73
286.457	3.63
286.829	3.6
287.201	3.68
287.572	3.86
287.944	3.99
288.316	4.15
288.688	4.17
289.06	4.1
289.431	3.98
289.803	4.02
290.175	4.17
290.546	4.04
290.918	4.13
291.289	3.99
291.661	4.07
292.032	4.06
292.403	4.12
292.775	4.26
293.146	4.21
293.517	4.26
293.889	4.18
294.26	4.31
294.631	4.44
295.002	4.35
295.373	4.15
295.744	4.17
296.115	4.01
296.486	3.95
296.857	4.02
297.228	4.02
297.599	3.95
297.97	3.85
298.34	3.93
298.711	3.91
299.082	4.01
299.452	3.97
299.823	3.94
300.194	4.03
300.564	3.98
300.935	4.15
301.305	4.13
301.676	4.15
302.046	4.14
302.416	4
302.787	4.08
303.157	4.24
303.527	4.24
303.897	4.37
304.267	4.44
304.637	4.4
305.008	4.47
305.378	4.59
305.748	4.71
306.117	4.65
306.487	4.66
306.857	4.72
307.227	4.91
307.597	5.04
307.967	5.09
308.336	5.07
308.706	4.9
309.076	5.07
309.445	5.18
309.815	5.12
310.184	5.16
310.554	5.15
310.923	5.19
311.293	5.19
311.662	5.12
312.031	5.22
312.401	5.29
312.77	5.35
313.139	5.38
313.508	5.43
313.877	5.5
314.246	5.49
314.616	5.47
314.985	5.47
315.353	5.47
315.722	5.59
316.091	5.76
316.46	5.97
316.829	5.76
317.198	5.76
317.567	5.91
317.935	5.92
318.304	6.09
318.672	6.12
319.041	6.19
319.41	6.29
319.778	6.22
320.147	6.3
320.515	6.44
320.883	6.47
321.252	6.38
321.62	6.55
321.988	6.76
322.357	6.86
322.725	6.89
323.093	6.95
323.461	6.89
323.829	6.85
324.197	6.66
324.565	6.83
324.933	6.89
325.301	6.85
325.669	6.92
326.037	6.86
326.405	6.84
326.772	6.78
327.14	6.82
327.508	6.89
327.875	6.92
328.243	6.9
328.61	6.96
328.978	7.11
329.346	7.06
329.713	7.07
330.08	7.25
330.448	7.34
330.815	7.29
331.182	7.25
331.55	7.27
331.917	7.47
332.284	7.6
332.651	7.69
333.018	7.78
333.385	7.81
333.752	7.9
334.119	8.01
334.486	8.09
334.853	8.13
335.22	8.07
335.587	8.03
335.954	8.11
336.32	8.09
336.687	8.21
337.054	8.3
337.42	8.19
337.787	8.06
338.153	8.12
338.52	8.3
338.886	8.31
339.253	8.32
339.619	8.33
339.986	8.15
340.352	8.16
340.718	8.16
341.084	8.2
341.451	8.31
341.817	8.32
342.183	8.36
342.549	8.4
342.915	8.36
343.281	8.35
343.647	8.28
344.013	8.34
344.379	8.33
344.745	8.3
345.11	8.4
345.476	8.47
345.842	8.41
346.208	8.39
346.573	8.37
346.939	8.45
347.304	8.52
347.67	8.56
348.035	8.54
348.401	8.62
348.766	8.64
349.132	8.53
349.497	8.45
349.862	8.4
350.228	8.41
350.593	8.46
350.958	8.46
351.323	8.49
351.688	8.47
352.053	8.43
352.418	8.43
352.783	8.41
353.148	8.31
353.513	8.27
353.878	8.21
354.243	8.22
354.608	8.22
354.972	8.21
355.337	8.33
355.702	8.31
356.066	8.2
356.431	8.14
356.795	8.15
357.16	8.23
357.524	8.29
357.889	8.29
358.253	8.29
358.618	8.29
358.982	8.17
359.346	8.13
359.71	7.99
360.075	8.03
360.439	8.01
360.803	8.14
361.167	8.17
361.531	8.11
361.895	8.08
362.259	8.09
362.623	8.01
362.987	7.89
363.351	7.87
363.714	7.88
364.078	7.84
364.442	7.83
364.806	7.73
365.169	7.63
365.533	7.52
365.896	7.56
366.26	7.51
366.623	7.46
366.987	7.45
367.35	7.51
367.714	7.43
368.077	7.37
368.44	7.24
368.803	7.17
369.167	7.15
369.53	7.16
369.893	7.11
370.256	7.13
370.619	7.09
370.982	7.03
371.345	6.95
371.708	6.92
372.071	6.85
372.434	6.84
372.797	6.87
373.159	6.92
373.522	6.81
373.885	6.8
374.247	6.83
374.61	6.74
374.973	6.7
375.335	6.64
375.698	6.61
376.06	6.53
376.423	6.48
376.785	6.43
377.147	6.33
377.51	6.21
377.872	6.13
378.234	6.11
378.596	6.12
378.958	6.04
379.321	5.95
379.683	5.96
380.045	5.89
380.407	5.8
380.769	5.7
381.13	5.65
381.492	5.56
381.854	5.51
382.216	5.55
382.578	5.46
382.939	5.38
383.301	5.33
383.663	5.32
384.024	5.28
384.386	5.27
384.747	5.24
385.109	5.28
385.47	5.22
385.832	5.19
386.193	5.07
386.554	5.03
386.916	5.07
387.277	4.99
387.638	4.98
387.999	5.02
388.36	5
388.721	4.97
389.082	4.95
389.443	4.91
389.804	4.85
390.165	4.89
390.526	4.88
390.887	4.87
391.248	4.84
391.609	4.8
391.969	4.77
392.33	4.72
392.691	4.67
393.051	4.65
393.412	4.64
393.772	4.65
394.133	4.65
394.493	4.61
394.854	4.59
395.214	4.55
395.574	4.47
395.935	4.45
396.295	4.41
396.655	4.39
397.015	4.37
397.376	4.34
397.736	4.25
398.096	4.24
398.456	4.21
398.816	4.18
399.176	4.13
399.535	4.11
399.895	4.12
400.255	4.13
400.615	4.11
400.975	4.07
401.334	4.09
401.694	4.06
402.054	4.04
402.413	3.99
402.773	3.97
403.132	3.97
403.492	3.96
403.851	3.98
404.211	3.96
404.57	3.93
404.929	3.94
405.288	3.95
405.648	3.94
406.007	3.89
406.366	3.87
406.725	3.91
407.084	3.88
407.443	3.85
407.802	3.82
408.161	3.81
408.52	3.8
408.879	3.75
409.238	3.77
409.596	3.76
409.955	3.77
410.314	3.77
410.673	3.77
411.031	3.75
411.39	3.75
411.748	3.76
412.107	3.75
412.465	3.7
412.824	3.69
413.182	3.7
413.54	3.71
413.899	3.73
414.257	3.7
414.615	3.67
414.974	3.67
415.332	3.65
415.69	3.63
416.048	3.62
416.406	3.59
416.764	3.55
417.122	3.55
417.48	3.52
417.838	3.5
418.195	3.48
418.553	3.45
418.911	3.42
419.269	3.41
419.626	3.41
419.984	3.4
420.342	3.38
420.699	3.34
421.057	3.32
421.414	3.32
421.772	3.31
422.129	3.29
422.486	3.27
422.844	3.27
423.201	3.27
423.558	3.28
423.915	3.27
424.273	3.26
424.63	3.24
424.987	3.25
425.344	3.23
425.701	3.23
426.058	3.22
426.415	3.21
426.772	3.19
427.128	3.18
427.485	3.17
427.842	3.16
428.199	3.16
428.555	3.15
428.912	3.13
429.269	3.12
429.625	3.13
429.982	3.14
430.338	3.14
430.695	3.12
431.051	3.1
431.407	3.13
431.764	3.11
432.12	3.13
432.476	3.15
432.832	3.15
433.189	3.14
433.545	3.15
433.901	3.16
434.257	3.16
434.613	3.16
434.969	3.16
435.325	3.16
435.681	3.19
436.036	3.19
436.392	3.18
436.748	3.19
437.104	3.19
437.459	3.18
437.815	3.18
438.171	3.18
438.526	3.18
438.882	3.18
439.237	3.17
439.593	3.17
439.948	3.14
440.304	3.14
440.659	3.14
441.014	3.14
441.369	3.12
441.725	3.12
442.08	3.12
442.435	3.13
442.79	3.12
443.145	3.11
443.5	3.11
443.855	3.1
444.21	3.08
444.565	3.08
444.92	3.09
445.275	3.06
445.629	3.05
445.984	3.05
446.339	3.04
446.693	3.05
447.048	3.03
447.403	3.03
447.757	3.02
448.112	3.01
448.466	3.01
448.82	3
449.175	3.01
449.529	3
449.883	2.97
450.238	2.97
450.592	2.95
450.946	2.94
451.3	2.95
451.654	2.96
452.008	2.94
452.362	2.9
452.716	2.91
453.07	2.92
453.424	2.91
453.778	2.89
454.132	2.88
454.486	2.89
454.839	2.89
455.193	2.88
455.547	2.89
455.9	2.9
456.254	2.93
456.607	2.93
456.961	2.93
457.314	2.94
457.668	2.95
458.021	2.94
458.375	2.93
458.728	2.92
459.081	2.91
459.434	2.91
459.787	2.93
460.141	2.94
460.494	2.96
460.847	2.96
461.2	2.97
461.553	2.97
461.906	2.97
462.259	2.97
462.611	2.98
462.964	2.97
463.317	2.96
463.67	2.95
464.022	2.95
464.375	2.98
464.728	3
465.08	3.01
465.433	3.04
465.785	3.07
466.138	3.08
466.49	3.11
466.843	3.12
467.195	3.14
467.547	3.14
467.899	3.11
468.252	3.12
468.604	3.14
468.956	3.15
469.308	3.14
469.66	3.15
470.012	3.18
470.364	3.21
470.716	3.22
471.068	3.23
471.42	3.23
471.772	3.2
472.123	3.2
472.475	3.21
472.827	3.22
473.178	3.22
473.53	3.23
473.882	3.21
474.233	3.22
474.585	3.22
474.936	3.22
475.288	3.24
475.639	3.23
475.99	3.22
476.342	3.23
476.693	3.26
477.044	3.26
477.395	3.23
477.746	3.22
478.097	3.23
478.448	3.22
478.8	3.23
479.15	3.22
479.501	3.22
479.852	3.2
480.203	3.2
480.554	3.21
480.905	3.22
481.255	3.23
481.606	3.23
481.957	3.22
482.307	3.22
482.658	3.22
483.009	3.22
483.359	3.22
483.709	3.22
484.06	3.21
484.41	3.21
484.761	3.21
485.111	3.21
485.461	3.21
485.811	3.21
486.162	3.2
486.512	3.21
486.862	3.21
487.212	3.21
487.562	3.21
487.912	3.2
488.262	3.19
488.612	3.18
488.961	3.17
489.311	3.17
489.661	3.17
490.011	3.15
490.36	3.15
490.71	3.16
491.06	3.15
491.409	3.16
491.759	3.16
492.108	3.16
492.458	3.17
492.807	3.16
493.157	3.16
493.506	3.18
493.855	3.17
494.204	3.17
494.554	3.17
494.903	3.17
495.252	3.19
495.601	3.21
495.95	3.22
496.299	3.24
496.648	3.29
496.997	3.31
497.346	3.34
497.695	3.35
498.043	3.36
498.392	3.39
498.741	3.41
499.09	3.45
499.438	3.49
499.787	3.5
500.135	3.52
500.484	3.56
500.832	3.59
501.181	3.63
501.529	3.67
501.878	3.72
502.226	3.77
502.574	3.8
502.923	3.83
503.271	3.88
503.619	3.92
503.967	3.93
504.315	3.96
504.663	4
505.011	4.07
505.359	4.12
505.707	4.16
506.055	4.21
506.403	4.27
506.751	4.32
507.098	4.39
507.446	4.45
507.794	4.51
508.141	4.57
508.489	4.63
508.837	4.68
509.184	4.75
509.531	4.82
509.879	4.89
510.226	4.94
510.574	5.03
510.921	5.11
511.268	5.19
511.616	5.28
511.963	5.36
512.31	5.45
512.657	5.52
513.004	5.61
513.351	5.71
513.698	5.8
514.045	5.88
514.392	5.98
514.739	6.09
515.086	6.18
515.432	6.28
515.779	6.39
516.126	6.53
516.473	6.62
516.819	6.7
517.166	6.79
517.512	6.89
517.859	6.97
518.205	7.06
518.552	7.15
518.898	7.23
519.245	7.32
519.591	7.4
519.937	7.5
520.283	7.59
520.629	7.68
520.976	7.78
521.322	7.91
521.668	8.02
522.014	8.13
522.36	8.27
522.706	8.37
523.052	8.49
523.398	8.61
523.743	8.74
524.089	8.9
524.435	9.04
524.781	9.19
525.126	9.33
525.472	9.46
525.817	9.56
526.163	9.67
526.509	9.77
526.854	9.85
527.199	9.94
527.545	10.03
527.89	10.12
528.235	10.23
528.581	10.32
528.926	10.42
529.271	10.52
529.616	10.61
529.961	10.73
530.306	10.83
530.651	10.94
530.996	11.06
531.341	11.17
531.686	11.29
532.031	11.42
532.376	11.51
532.721	11.64
533.065	11.8
533.41	11.92
533.755	12.08
534.099	12.23
534.444	12.37
534.788	12.51
535.133	12.65
535.477	12.76
535.822	12.9
536.166	13.07
536.51	13.24
536.855	13.43
537.199	13.61
537.543	13.81
537.887	14
538.231	14.18
538.576	14.4
538.92	14.6
539.264	14.79
539.608	15
539.951	15.16
540.295	15.3
540.639	15.5
540.983	15.64
541.327	15.81
541.671	15.98
542.014	16.15
542.358	16.32
542.701	16.5
543.045	16.69
543.389	16.85
543.732	16.99
544.075	17.16
544.419	17.35
544.762	17.55
545.105	17.74
545.449	17.96
545.792	18.16
546.135	18.37
546.478	18.58
546.821	18.78
547.165	19.06
547.508	19.34
547.851	19.58
548.194	19.84
548.536	20.09
548.879	20.34
549.222	20.6
549.565	20.86
549.908	21.12
550.25	21.4
550.593	21.65
550.936	21.93
551.278	22.21
551.621	22.46
551.963	22.72
552.306	23.03
552.648	23.29
552.991	23.51
553.333	23.79
553.675	24.09
554.017	24.37
554.36	24.59
554.702	24.85
555.044	25.1
555.386	25.38
555.728	25.67
556.07	25.95
556.412	26.18
556.754	26.44
557.096	26.75
557.438	27.03
557.78	27.32
558.121	27.67
558.463	27.96
558.805	28.28
559.147	28.61
559.488	28.89
559.83	29.2
560.171	29.47
560.513	29.75
560.854	30.02
561.196	30.3
561.537	30.6
561.878	30.86
562.22	31.13
562.561	31.41
562.902	31.65
563.243	31.95
563.584	32.22
563.925	32.5
564.266	32.78
564.607	33
564.948	33.26
565.289	33.47
565.63	33.71
565.971	33.92
566.312	34.14
566.653	34.4
566.993	34.62
567.334	34.91
567.675	35.17
568.015	35.41
568.356	35.7
568.696	35.94
569.037	36.18
569.377	36.4
569.718	36.67
570.058	36.94
570.398	37.17
570.739	37.45
571.079	37.71
571.419	37.86
571.759	38.14
572.099	38.35
572.439	38.57
572.779	38.81
573.119	39
573.459	39.18
573.799	39.32
574.139	39.48
574.479	39.73
574.819	39.88
575.158	40.08
575.498	40.21
575.838	40.37
576.177	40.55
576.517	40.79
576.856	40.94
577.196	41.13
577.535	41.3
577.875	41.45
578.214	41.65
578.553	41.89
578.893	42.01
579.232	42.16
579.571	42.36
579.91	42.51
580.25	42.76
580.589	43.01
580.928	43.25
581.267	43.42
581.606	43.48
581.945	43.61
582.283	43.83
582.622	44.06
582.961	44.24
583.3	44.42
583.639	44.55
583.977	44.73
584.316	44.88
584.654	45
584.993	45.15
585.332	45.31
585.67	45.44
586.008	45.66
586.347	45.81
586.685	45.94
587.024	46.07
587.362	46.18
587.7	46.24
588.038	46.38
588.376	46.55
588.715	46.74
589.053	46.94
589.391	47.05
589.729	47.12
590.067	47.22
590.404	47.36
590.742	47.46
591.08	47.53
591.418	47.69
591.756	47.86
592.093	47.97
592.431	48.03
592.769	48.14
593.106	48.19
593.444	48.27
593.781	48.36
594.119	48.5
594.456	48.61
594.793	48.7
595.131	48.72
595.468	48.79
595.805	48.85
596.143	48.88
596.48	48.93
596.817	48.95
597.154	49.09
597.491	49.12
597.828	49.17
598.165	49.31
598.502	49.36
598.839	49.42
599.176	49.59
599.512	49.72
599.849	49.79
600.186	49.92
600.523	49.96
600.859	50.07
601.196	50.13
601.532	50.19
601.869	50.3
602.205	50.45
602.542	50.57
602.878	50.62
603.215	50.73
603.551	50.8
603.887	50.92
604.223	50.98
604.56	51.09
604.896	51.16
605.232	51.19
605.568	51.25
605.904	51.28
606.24	51.32
606.576	51.33
606.912	51.43
607.248	51.47
607.583	51.56
607.919	51.62
608.255	51.67
608.591	51.72
608.926	51.77
609.262	51.78
609.597	51.84
609.933	51.86
610.268	51.98
610.604	52.03
610.939	52.09
611.275	52.15
611.61	52.17
611.945	52.16
612.281	52.18
612.616	52.24
612.951	52.32
613.286	52.36
613.621	52.45
613.956	52.57
614.291	52.65
614.626	52.77
614.961	52.86
615.296	52.96
615.631	53.02
615.966	53.04
616.3	53.1
616.635	53.08
616.97	53.2
617.304	53.19
617.639	53.25
617.973	53.37
618.308	53.34
618.642	53.48
618.977	53.54
619.311	53.58
619.646	53.6
619.98	53.66
620.314	53.68
620.648	53.69
620.983	53.7
621.317	53.66
621.651	53.68
621.985	53.67
622.319	53.67
622.653	53.62
622.987	53.7
623.321	53.71
623.655	53.7
623.988	53.72
624.322	53.7
624.656	53.75
624.99	53.71
625.323	53.71
625.657	53.62
625.99	53.7
626.324	53.76
626.657	53.81
626.991	53.79
627.324	53.82
627.658	53.85
627.991	53.83
628.324	53.93
628.657	53.96
628.991	54.03
629.324	54.05
629.657	54.14
629.99	54.15
630.323	54.19
630.656	54.35
630.989	54.32
631.322	54.45
631.655	54.49
631.987	54.49
632.32	54.58
632.653	54.7
632.986	54.75
633.318	54.76
633.651	54.77
633.984	54.82
634.316	54.79
634.649	54.8
634.981	54.85
635.313	54.9
635.646	54.95
635.978	54.92
636.31	54.81
636.643	54.84
636.975	54.9
637.307	54.96
637.639	54.93
637.971	55
638.303	54.9
638.635	54.84
638.967	54.9
639.299	54.89
639.631	54.86
639.963	54.88
640.295	54.95
640.626	54.96
640.958	54.96
641.29	55.08
641.621	55.04
641.953	55.12
642.285	54.99
642.616	55.06
642.948	55.16
643.279	55.38
643.61	55.47
643.942	55.47
644.273	55.38
644.604	55.36
644.936	55.38
645.267	55.48
645.598	55.5
645.929	55.49
646.26	55.36
646.591	55.42
646.922	55.34
647.253	55.38
647.584	55.35
647.915	55.38
648.245	55.43
648.576	55.5
648.907	55.42
649.238	55.5
649.568	55.41
649.899	55.41
650.229	55.45
650.56	55.38
650.89	55.49
651.221	55.56
651.551	55.52
651.882	55.59
652.212	55.59
652.542	55.62
652.872	55.69
653.203	55.86
653.533	55.89
653.863	55.99
654.193	55.95
654.523	56.05
654.853	56.07
655.183	56.06
655.513	56.09
655.843	56.22
656.172	56.29
656.502	56.31
656.832	56.38
657.162	56.31
657.491	56.38
657.821	56.22
658.15	56.39
658.48	56.56
658.809	56.64
659.139	56.64
659.468	56.68
659.798	56.65
660.127	56.65
660.456	56.67
660.785	56.72
661.115	56.72
661.444	56.67
661.773	56.72
662.102	56.65
662.431	56.67
662.76	56.65
663.089	56.51
663.418	56.59
663.747	56.56
664.076	56.56
664.404	56.53
664.733	56.57
665.062	56.51
665.39	56.48
665.719	56.43
666.048	56.52
666.376	56.71
666.705	56.83
667.033	56.8
667.362	56.74
667.69	56.74
668.018	56.91
668.347	56.94
668.675	56.95
669.003	56.98
669.331	57.16
669.659	57.1
669.987	57.26
670.315	57.22
670.643	57.19
670.971	57.32
671.299	57.37
671.627	57.37
671.955	57.31
672.283	57.26
672.61	57.38
672.938	57.37
673.266	57.18
673.593	56.99
673.921	57.06
674.249	57.13
674.576	57.17
674.904	56.99
675.231	57.03
675.558	57.07
675.886	57.11
676.213	57.06
676.54	57.11
676.867	57.09
677.195	57.1
677.522	57.07
677.849	57.05
678.176	57.06
678.503	57.11
678.83	57.02
679.157	57.16
679.484	56.98
679.81	57.02
680.137	57.22
680.464	57.46
680.791	57.44
681.117	57.52
681.444	57.56
681.771	57.64
682.097	57.7
682.424	57.75
682.75	57.71
683.077	57.59
683.403	57.57
683.729	57.51
684.056	57.55
684.382	57.45
684.708	57.52
685.034	57.47
685.36	57.5
685.686	57.67
686.012	57.62
686.339	57.83
686.664	57.82
686.99	57.61
687.316	57.43
687.642	57.59
687.968	57.53
688.294	57.42
688.619	57.41
688.945	57.23
689.271	57.26
689.596	57.36
689.922	57.57
690.247	57.68
690.573	57.66
690.898	57.8
691.224	57.94
691.549	57.95
691.874	57.96
692.2	58.14
692.525	58.03
692.85	58.07
693.175	57.87
693.5	57.82
693.825	57.81
694.15	57.85
694.475	57.78
694.8	57.85
695.125	57.83
695.45	57.85
695.775	58.05
696.099	57.98
696.424	58.04
696.749	57.93
697.073	57.96
697.398	58.09
697.723	58
698.047	58.1
698.372	58.07
698.696	58.21
699.02	58.1
699.345	58.19
699.669	58.18
699.993	58.31
700.318	58.4
700.642	58.39
700.966	58.41
701.29	58.31
701.614	58.26
701.938	58.37
702.262	58.45
702.586	58.31
702.91	58.25
703.234	58.29
703.557	58.26
703.881	58.12
704.205	58.08
704.529	58.16
704.852	58.12
705.176	58.1
705.499	58.02
705.823	58.02
706.146	58.1
706.47	58.23
706.793	58.13
707.117	58.15
707.44	58.39
707.763	58.53
708.086	58.69
708.409	58.9
708.733	59
709.056	58.91
709.379	59.14
709.702	59.3
710.025	59.43
710.348	59.45
710.671	59.46
710.993	59.37
711.316	59.25
711.639	59.23
711.962	59.23
712.284	59.24
712.607	59.28
712.93	59.22
713.252	59.15
713.575	59.1
713.897	58.99
714.22	58.73
714.542	58.7
714.864	58.8
715.187	58.64
715.509	58.62
715.831	58.69
716.153	58.55
716.475	58.36
716.798	58.18
717.12	58.27
717.442	58.34
717.764	58.42
718.085	58.3
718.407	58.32
718.729	58.34
719.051	58.32
719.373	58.54
719.695	58.56
720.016	58.53
720.338	58.57
720.659	58.65
720.981	58.84
721.302	59.09
721.624	59.11
721.945	58.92
722.267	58.94
722.588	58.69
722.909	58.75
723.231	58.88
723.552	58.83
723.873	58.77
724.194	58.73
724.515	58.85
724.836	59
725.157	59
725.478	59.05
725.799	59.35
726.12	58.95
726.441	58.98
726.762	58.91
727.083	58.91
727.403	58.81
727.724	58.81
728.045	58.57
728.365	58.38
728.686	58.76
729.006	58.62
729.327	58.89
729.647	58.97
729.967	58.94
730.288	58.93
730.608	59
730.928	59.18
731.249	59.16
731.569	59.11
731.889	59.23
732.209	59.11
732.529	59
732.849	59.14
733.169	59.22
733.489	59.19
733.809	59.33
734.129	59.46
734.448	59.45
734.768	59.33
735.088	59.58
735.408	59.32
735.727	59.39
736.047	59.28
736.366	59.34
736.686	59.64
737.005	59.81
737.325	59.84
737.644	59.7
737.963	59.88
738.283	59.87
738.602	59.83
738.921	59.72
739.24	59.62
739.56	59.79
739.879	59.59
740.198	59.82
740.517	59.99
740.836	59.92
741.155	59.91
741.473	60.17
741.792	60.13
742.111	60.13
742.43	60.2
742.748	60.35
743.067	60.23
743.386	59.77
743.704	59.7
744.023	59.51
744.341	59.64
744.66	59.54
744.978	59.65
745.297	59.7
745.615	60.1
745.933	59.87
746.252	59.72
746.57	59.79
746.888	59.63
747.206	59.33
747.524	59.44
747.842	59.63
748.16	59.44
748.478	59.47
748.796	59.45
749.114	59.52
749.432	59.46
749.749	59.56
750.067	59.58
750.385	59.42
750.703	59.52
751.02	59.73
751.338	59.52
751.655	59.64
751.973	59.5
752.29	59.39
752.608	59.46
752.925	59.99
753.242	60.49
753.56	60.64
753.877	60.83
754.194	60.79
754.511	60.54
754.828	60.88
755.145	60.71
755.462	60.89
755.779	60.32
756.096	60.52
756.413	60.46
756.73	60.36
757.047	60.14
757.364	60.23
757.68	59.82
757.997	59.94
758.314	59.89
758.63	60.11
758.947	60.4
759.264	60.33
759.58	59.9
759.896	59.81
760.213	59.64
760.529	59.65
760.846	59.63
761.162	59.74
761.478	59.35
761.794	59.64
762.11	59.73
762.426	59.94
762.743	59.93
763.059	59.98
763.375	60.36
763.69	60.57
764.006	60.59
764.322	60.75
764.638	60.69
764.954	60.9
765.27	60.98
765.585	60.67
765.901	61.02
766.216	61.1
766.532	60.96
766.848	61.12
767.163	61.23
767.478	61.21
767.794	61.26
768.109	61.63
768.424	61.18
768.74	61.08
769.055	61.52
769.37	61.43
769.685	61.63
770	61.33
770.315	61.6
770.63	62
770.945	61.71
771.26	61.9
771.575	61.46
771.89	61.37
772.205	61.45
772.52	61.45
772.834	61.39
773.149	61.2
773.464	61.1
773.778	61.11
774.093	61.21
774.407	61.34
774.722	61.11
775.036	61.85
775.351	61.7
775.665	61.35
775.979	61.33
776.293	61.23
776.608	61.72
776.922	61.85
777.236	61.67
777.55	61.77
777.864	61.56
778.178	62.01
778.492	61.93
778.806	62.14
779.12	61.83
779.434	62.11
779.747	62.44
780.061	62.44
780.375	62.23
780.689	62.21
781.002	62.49
781.316	62.51
781.629	62.27
781.943	62.44
782.256	62.17
782.57	62.65
782.883	62.33
783.196	62.12
783.51	61.66
783.823	61.28
784.136	61.28
784.449	61.25
784.762	61.17
785.075	61.14
785.388	61.19
785.701	61.55
786.014	61.39
786.327	61.17
786.64	61.71
786.953	61.85
787.266	61.75
787.578	61.35
787.891	61.74
788.204	61.6
788.516	61.72
788.829	62.3
789.141	62.21
789.454	62.48
789.766	62.24
790.079	62.43
790.391	63.06
790.703	63.23
791.016	63.24
791.328	63.09
791.64	62.98
791.952	62.87
792.264	63.11
792.576	63.04
792.888	63.19
793.2	62.61
793.512	62.7
793.824	63.33
794.136	63.68
794.448	63.37
794.76	63.4
795.071	63.35
795.383	62.89
795.695	62.46
796.006	62.47
796.318	62.94
796.629	62.77
796.941	62.06
797.252	61.83
797.564	62.27
797.875	62.4
798.186	62.69
798.497	62.59
798.809	62.67
799.12	62.62
799.431	62.71
799.742	62.79
800.053	62.81
800.364	62.12
800.675	62.23
800.986	62.21
801.297	62.44
801.608	62.55
801.918	63.24
802.229	63.01
802.54	62.66
802.851	62.72
803.161	63.01
803.472	63.54
803.782	63.67
804.093	63.12
804.403	63.15
804.714	63.18
805.024	63.7
805.334	62.99
805.645	63.53
805.955	63.61
806.265	64.21
806.575	64.35
806.885	64.58
807.195	63.97
807.505	63.82
807.815	63.48
808.125	63.63
808.435	63.86
808.745	64.21
809.055	64.63
809.365	63.75
809.674	64.28
809.984	64.31
810.294	64.93
810.603	65.2
810.913	65.01
811.222	64.83
811.532	63.68
811.841	63.61
812.151	63.51
812.46	63.85
812.769	63.54
813.079	63.96
813.388	64.37
813.697	64.87
814.006	65.58
814.315	65.7
814.624	65.91
814.933	65.26
815.242	65.55
815.551	65.48
815.86	66.82
816.169	65.8
816.478	65.28
816.786	65.22
817.095	65.01
817.404	65.26
817.712	65.09
818.021	65.29
818.33	65.72
818.638	65.65
818.947	64.75
819.255	63.75
819.563	63.44
819.872	63.1
820.18	62.92
820.488	62.62
820.796	62.99
821.105	62.88
821.413	62.74
821.721	62.45
822.029	62.34
822.337	62.22
822.645	62.26
822.953	62.25
823.26	62.21
823.568	62.18
823.876	62.05
824.184	62.14
824.491	62.08
824.799	61.91
825.107	61.66
825.414	61.77
825.722	61.89
826.029	61.53
826.337	61.31
826.644	61.32
826.951	61.36
827.259	61.02
827.566	60.79
827.873	60.95
828.18	61.04
828.488	61.04
828.795	61.03
829.102	61.01
829.409	61.21
829.716	61.02
830.023	61.21
830.329	61.13
830.636	61.25
830.943	61.42
831.25	61.31
831.557	61.44
831.863	61.29
832.17	61.54
832.476	62.06
832.783	63.02
833.089	63.55
833.396	63.12
833.702	63.54
834.009	64.39
834.315	64.24
834.621	64.56
834.928	64.49
835.234	64.14
835.54	64.33
835.846	64.25
836.152	64.69
836.458	64.79
836.764	65.46
837.07	65
837.376	65.13
837.682	65.16
837.988	65.62
838.293	65.9
838.599	65.75
838.905	65.97
839.211	65.47
839.516	64.42
839.822	64.76
840.127	64.3
840.433	63.52
840.738	62.94
841.044	62.55
841.349	62.27
841.654	62.44
841.959	62.08
842.265	61.27
842.57	61.87
842.875	61.54
843.18	61.15
843.485	61.8
843.79	61.71
844.095	62.08
844.4	61.76
844.705	60.88
845.01	61.86
845.315	62.78
845.619	62.23
845.924	62.46
846.229	63.24
846.533	63.81
846.838	63.54
847.142	64.75
847.447	65.54
847.751	66.11
848.056	66.68
848.36	67
848.664	68.36
848.969	65.85
849.273	66.99
849.577	66.6
849.881	66.73
850.185	67.95
850.489	69.49
850.794	69.07
851.097	69.83
851.401	67.14
851.705	66.73
852.009	68.74
852.313	68.22
852.617	69.21
852.92	67.78
853.224	69.81
853.528	69.46
853.831	70.22
854.135	70.29
854.438	68.87
854.742	68.97
855.045	68.19
855.349	67.56
855.652	67.69
855.955	67.05
856.259	65.97
856.562	67.34
856.865	66.19
857.168	65.18
857.471	66.61
857.774	66.75
858.077	66.22
858.38	66.32
858.683	67.65
858.986	66.49
859.289	65.49
859.592	64.06
859.894	62.58
860.197	60.02
860.5	62.09
860.802	63.08
861.105	61.46
861.407	62.03
861.71	61.27
862.012	59.72
862.315	62.7
862.617	64.15
862.919	61.81
863.222	63.34
863.524	62.79
863.826	60.94
864.128	62.45
864.43	64.16
864.732	65.14
865.034	65.19
865.336	65.18
865.638	66.14
865.94	63.88
866.242	64.94
866.544	66.78
866.846	66.57
867.147	67.72
867.449	68.63
867.751	67.54
868.052	67.44
868.354	67.6
868.655	64.79
868.957	65.73
869.258	65.07
869.56	63.55
869.861	65.68
870.162	66.9
870.463	66.34
870.765	61.42
871.066	58.65
871.367	57.54
871.668	56.84
871.969	58.27
872.27	60.92
872.571	61.86
872.872	60.48
873.173	58.68
873.473	58.22
873.774	57.09
874.075	58.62
874.376	60.36
874.676	59.94
874.977	59.73
875.277	56.77
875.578	56.46
875.878	56.16
876.179	55.25
876.479	53.82
876.78	54.21
877.08	57.13
877.38	58.96
877.68	59.88
877.981	60.77
878.281	59.57
878.581	56.99
