Data from BU26939_Reflection_00007.txt Node
Date: Tue Nov 19 10:56:47 EST 2019
User: vgr7
Spectrometer: USB2G7710
Scans to average: 3
Trigger mode: 4
Integration Time (sec): 2.000000E-2
Electric dark correction enabled: true
Boxcar width: 10
XAxis mode: Wavelengths
Number of Pixels in Spectrum: 2048
>>>>>Begin Spectral Data<<<<<
177.721	18.96
178.105	2.48
178.488	5.05
178.871	-98.48
179.254	-259.26
179.636	-253.23
180.019	-615.05
180.402	23.53
180.785	38.99
181.168	-41.19
181.55	-140.74
181.933	195.96
182.316	-4.52
182.698	-375.31
183.081	330.16
183.463	439.08
183.846	72.87
184.228	30.2
184.611	51.5
184.993	3.65
185.376	48.02
185.758	35.66
186.14	17.84
186.522	16.37
186.904	-38.97
187.287	-56.66
187.669	-48.4
188.051	-28.4
188.433	-46.46
188.815	-50.38
189.197	-31.67
189.579	-46.33
189.961	-57.71
190.342	-78.84
190.724	-96.02
191.106	-83.41
191.488	-88.07
191.869	-65.3
192.251	-72.31
192.633	-52.76
193.014	-47.58
193.396	-50.02
193.777	-46.41
194.159	-48.55
194.54	-44.02
194.922	-38.19
195.303	-34.23
195.684	-37.81
196.065	-35.92
196.447	-19.28
196.828	-26.73
197.209	-33.29
197.59	-24.34
197.971	-13.23
198.352	-1.32
198.733	-3.86
199.114	-11.18
199.495	-10.95
199.876	-11.75
200.257	-4.91
200.638	-19.45
201.018	-21.37
201.399	-17.1
201.78	-17.43
202.16	-7.31
202.541	-8.11
202.922	-11.47
203.302	-10.55
203.683	-11.63
204.063	-18.1
204.444	-16.09
204.824	0.42
205.204	8.15
205.585	1.06
205.965	-0.86
206.345	-6.4
206.725	-3.66
207.106	3.36
207.486	1.44
207.866	-2.16
208.246	-3.25
208.626	1.06
209.006	7.9
209.386	-5.15
209.766	-0.74
210.145	-6.99
210.525	-7.41
210.905	0.85
211.285	-3.5
211.664	-1.38
212.044	-6.53
212.424	-3.92
212.803	-15.23
213.183	-19.61
213.562	-10.75
213.942	-6.8
214.321	-9.24
214.701	-4.36
215.08	-7.54
215.459	8.04
215.838	3.22
216.218	-4.84
216.597	-7.04
216.976	-19.6
217.355	-13.53
217.734	-14.88
218.113	-3.7
218.492	-9.7
218.871	-5.96
219.25	-7.63
219.629	-6.62
220.008	7.78
220.387	-8.24
220.766	1.25
221.144	5.11
221.523	-15.34
221.902	-19.27
222.28	-18.34
222.659	-13.25
223.037	-5.33
223.416	-13.6
223.794	-3.07
224.173	-1.14
224.551	0.1
224.929	-2.72
225.308	1.85
225.686	0.92
226.064	-4.48
226.442	-4.28
226.821	-4.86
227.199	-2.99
227.577	-4.3
227.955	-4.92
228.333	-3.35
228.711	-0.29
229.089	-1.04
229.467	2.89
229.845	0.57
230.222	2.01
230.6	1.11
230.978	1.25
231.356	2.28
231.733	2.36
232.111	2.33
232.488	2.54
232.866	6.33
233.243	4.4
233.621	5.41
233.998	6.27
234.376	7.54
234.753	6.23
235.13	4.76
235.508	4.42
235.885	5.52
236.262	4.2
236.639	2.79
237.016	2.41
237.393	2.66
237.77	4.31
238.147	3.59
238.524	3.7
238.901	2.24
239.278	2.68
239.655	2.47
240.032	2.15
240.409	2.39
240.785	1.6
241.162	1.84
241.539	1.26
241.915	1.46
242.292	1.73
242.668	1.7
243.045	2.72
243.421	3.23
243.798	3.22
244.174	3.2
244.551	3.04
244.927	3.18
245.303	3.07
245.679	3.14
246.056	3.2
246.432	3.11
246.808	3.56
247.184	3.51
247.56	3.38
247.936	3.62
248.312	3.64
248.688	3.61
249.064	3.53
249.44	3.66
249.815	3.67
250.191	3.58
250.567	3.75
250.943	3.52
251.318	3.07
251.694	2.94
252.069	3.14
252.445	3.35
252.82	3.5
253.196	3.56
253.571	3.27
253.947	3.28
254.322	3.37
254.697	2.97
255.073	2.88
255.448	2.88
255.823	2.57
256.198	2.36
256.573	2.58
256.948	2.62
257.323	2.7
257.698	2.58
258.073	2.3
258.448	2.27
258.823	2.09
259.198	2.37
259.573	2.21
259.948	2.16
260.322	2.11
260.697	2.18
261.072	2.05
261.446	2.07
261.821	2.05
262.195	2.04
262.57	2.16
262.944	2.07
263.319	2.08
263.693	2.13
264.067	2.22
264.442	2.14
264.816	2.01
265.19	1.83
265.564	1.85
265.938	2.07
266.313	2.07
266.687	2.29
267.061	2.3
267.435	2.56
267.809	2.53
268.183	2.52
268.556	2.24
268.93	2.35
269.304	2.28
269.678	2.43
270.051	2.54
270.425	2.52
270.799	2.34
271.172	2.41
271.546	2.59
271.919	2.63
272.293	2.67
272.666	2.9
273.04	3.01
273.413	2.96
273.787	2.94
274.16	2.77
274.533	2.69
274.906	2.72
275.279	2.57
275.653	2.63
276.026	2.57
276.399	2.66
276.772	2.63
277.145	2.73
277.518	2.55
277.891	2.42
278.263	2.5
278.636	2.87
279.009	2.88
279.382	2.96
279.755	2.99
280.127	2.93
280.5	2.66
280.872	2.71
281.245	2.75
281.617	2.82
281.99	3.01
282.362	2.85
282.735	2.73
283.107	2.78
283.479	2.7
283.852	2.73
284.224	2.75
284.596	2.81
284.968	2.69
285.34	2.8
285.713	2.85
286.085	2.81
286.457	2.77
286.829	2.82
287.201	2.63
287.572	2.52
287.944	2.55
288.316	2.63
288.688	2.64
289.06	2.65
289.431	2.71
289.803	2.73
290.175	2.88
290.546	2.92
290.918	3.02
291.289	3.07
291.661	3.19
292.032	3.25
292.403	3.35
292.775	3.51
293.146	3.53
293.517	3.53
293.889	3.48
294.26	3.43
294.631	3.39
295.002	3.47
295.373	3.53
295.744	3.54
296.115	3.63
296.486	3.72
296.857	3.73
297.228	3.59
297.599	3.52
297.97	3.61
298.34	3.56
298.711	3.6
299.082	3.72
299.452	3.71
299.823	3.71
300.194	3.8
300.564	3.75
300.935	3.75
301.305	3.78
301.676	3.82
302.046	3.93
302.416	3.98
302.787	4
303.157	4.1
303.527	4.2
303.897	4.18
304.267	4.12
304.637	4.26
305.008	4.35
305.378	4.36
305.748	4.28
306.117	4.51
306.487	4.5
306.857	4.41
307.227	4.47
307.597	4.45
307.967	4.41
308.336	4.59
308.706	4.67
309.076	4.82
309.445	4.98
309.815	4.96
310.184	4.96
310.554	5.03
310.923	4.99
311.293	5.13
311.662	5.21
312.031	5.13
312.401	5.04
312.77	5.06
313.139	5.17
313.508	5.26
313.877	5.09
314.246	5.09
314.616	5.2
314.985	5.22
315.353	5.39
315.722	5.29
316.091	5.14
316.46	5.05
316.829	5.11
317.198	4.91
317.567	4.98
317.935	5.01
318.304	5.02
318.672	5.11
319.041	4.92
319.41	4.85
319.778	5.05
320.147	5.09
320.515	5.24
320.883	5.22
321.252	5.22
321.62	5.44
321.988	5.43
322.357	5.41
322.725	5.47
323.093	5.44
323.461	5.45
323.829	5.66
324.197	5.78
324.565	5.7
324.933	5.88
325.301	5.72
325.669	5.8
326.037	5.92
326.405	5.99
326.772	6.08
327.14	6.09
327.508	6.15
327.875	6.21
328.243	6.19
328.61	6.27
328.978	6.38
329.346	6.39
329.713	6.63
330.08	6.85
330.448	6.91
330.815	6.92
331.182	7.06
331.55	6.99
331.917	6.99
332.284	7.14
332.651	7.29
333.018	7.42
333.385	7.52
333.752	7.46
334.119	7.5
334.486	7.48
334.853	7.61
335.22	7.56
335.587	7.49
335.954	7.45
336.32	7.49
336.687	7.47
337.054	7.48
337.42	7.35
337.787	7.22
338.153	7.26
338.52	7.37
338.886	7.36
339.253	7.33
339.619	7.31
339.986	7.16
340.352	6.99
340.718	6.98
341.084	6.94
341.451	7.01
341.817	6.97
342.183	7.01
342.549	7
342.915	7.09
343.281	7.2
343.647	7.2
344.013	7.2
344.379	7.21
344.745	7.29
345.11	7.35
345.476	7.43
345.842	7.36
346.208	7.34
346.573	7.3
346.939	7.4
347.304	7.43
347.67	7.47
348.035	7.38
348.401	7.5
348.766	7.51
349.132	7.48
349.497	7.52
349.862	7.46
350.228	7.46
350.593	7.43
350.958	7.49
351.323	7.55
351.688	7.55
352.053	7.55
352.418	7.49
352.783	7.41
353.148	7.42
353.513	7.48
353.878	7.49
354.243	7.55
354.608	7.54
354.972	7.57
355.337	7.59
355.702	7.75
356.066	7.71
356.431	7.66
356.795	7.71
357.16	7.72
357.524	7.83
357.889	7.83
358.253	7.83
358.618	7.79
358.982	7.85
359.346	7.93
359.71	7.92
360.075	7.92
360.439	7.97
360.803	7.98
361.167	7.98
361.531	7.96
361.895	7.95
362.259	8
362.623	8
362.987	8
363.351	7.99
363.714	7.95
364.078	7.95
364.442	7.88
364.806	7.83
365.169	7.82
365.533	7.85
365.896	7.8
366.26	7.75
366.623	7.69
366.987	7.65
367.35	7.69
367.714	7.64
368.077	7.69
368.44	7.62
368.803	7.57
369.167	7.52
369.53	7.5
369.893	7.4
370.256	7.34
370.619	7.29
370.982	7.21
371.345	7.23
371.708	7.29
372.071	7.24
372.434	7.22
372.797	7.15
373.159	7.06
373.522	7.02
373.885	6.97
374.247	6.93
374.61	6.8
374.973	6.7
375.335	6.67
375.698	6.53
376.06	6.46
376.423	6.42
376.785	6.41
377.147	6.38
377.51	6.38
377.872	6.33
378.234	6.34
378.596	6.33
378.958	6.31
379.321	6.2
379.683	6.24
380.045	6.16
380.407	6.08
380.769	6.07
381.13	6.01
381.492	5.97
381.854	5.94
382.216	5.97
382.578	5.97
382.939	5.92
383.301	5.91
383.663	5.9
384.024	5.88
384.386	5.85
384.747	5.77
385.109	5.72
385.47	5.69
385.832	5.62
386.193	5.59
386.554	5.48
386.916	5.46
387.277	5.35
387.638	5.33
387.999	5.35
388.36	5.3
388.721	5.3
389.082	5.29
389.443	5.26
389.804	5.18
390.165	5.15
390.526	5.15
390.887	5.11
391.248	5.07
391.609	5.03
391.969	4.97
392.33	4.98
392.691	4.97
393.051	4.96
393.412	4.95
393.772	4.93
394.133	4.92
394.493	4.9
394.854	4.91
395.214	4.92
395.574	4.86
395.935	4.81
396.295	4.8
396.655	4.77
397.015	4.77
397.376	4.75
397.736	4.71
398.096	4.65
398.456	4.64
398.816	4.62
399.176	4.61
399.535	4.6
399.895	4.56
400.255	4.5
400.615	4.46
400.975	4.41
401.334	4.38
401.694	4.35
402.054	4.33
402.413	4.29
402.773	4.26
403.132	4.24
403.492	4.26
403.851	4.23
404.211	4.21
404.57	4.17
404.929	4.15
405.288	4.13
405.648	4.11
406.007	4.1
406.366	4.06
406.725	4.05
407.084	4.06
407.443	4.02
407.802	4.02
408.161	4.02
408.52	4.07
408.879	4.05
409.238	4.06
409.596	4.06
409.955	4.07
410.314	4.03
410.673	4.05
411.031	4
411.39	4
411.748	4
412.107	4.01
412.465	4.06
412.824	4.04
413.182	4.05
413.54	4.05
413.899	4.06
414.257	4.05
414.615	4
414.974	3.98
415.332	4
415.69	3.98
416.048	3.97
416.406	3.94
416.764	3.92
417.122	3.9
417.48	3.89
417.838	3.89
418.195	3.86
418.553	3.86
418.911	3.85
419.269	3.84
419.626	3.83
419.984	3.8
420.342	3.79
420.699	3.78
421.057	3.78
421.414	3.77
421.772	3.74
422.129	3.75
422.486	3.74
422.844	3.72
423.201	3.7
423.558	3.69
423.915	3.7
424.273	3.7
424.63	3.68
424.987	3.66
425.344	3.66
425.701	3.64
426.058	3.62
426.415	3.59
426.772	3.57
427.128	3.55
427.485	3.54
427.842	3.54
428.199	3.53
428.555	3.52
428.912	3.5
429.269	3.52
429.625	3.51
429.982	3.52
430.338	3.52
430.695	3.51
431.051	3.51
431.407	3.49
431.764	3.44
432.12	3.45
432.476	3.45
432.832	3.45
433.189	3.45
433.545	3.45
433.901	3.48
434.257	3.48
434.613	3.46
434.969	3.47
435.325	3.46
435.681	3.47
436.036	3.46
436.392	3.45
436.748	3.42
437.104	3.43
437.459	3.4
437.815	3.4
438.171	3.42
438.526	3.42
438.882	3.43
439.237	3.45
439.593	3.44
439.948	3.46
440.304	3.46
440.659	3.47
441.014	3.47
441.369	3.47
441.725	3.48
442.08	3.5
442.435	3.5
442.79	3.51
443.145	3.51
443.5	3.5
443.855	3.5
444.21	3.52
444.565	3.52
444.92	3.54
445.275	3.54
445.629	3.52
445.984	3.52
446.339	3.51
446.693	3.5
447.048	3.5
447.403	3.49
447.757	3.47
448.112	3.47
448.466	3.46
448.82	3.46
449.175	3.45
449.529	3.42
449.883	3.42
450.238	3.41
450.592	3.4
450.946	3.39
451.3	3.39
451.654	3.37
452.008	3.36
452.362	3.36
452.716	3.34
453.07	3.32
453.424	3.31
453.778	3.33
454.132	3.32
454.486	3.32
454.839	3.31
455.193	3.32
455.547	3.34
455.9	3.34
456.254	3.33
456.607	3.33
456.961	3.34
457.314	3.32
457.668	3.31
458.021	3.31
458.375	3.31
458.728	3.3
459.081	3.29
459.434	3.29
459.787	3.28
460.141	3.28
460.494	3.31
460.847	3.31
461.2	3.3
461.553	3.31
461.906	3.31
462.259	3.31
462.611	3.31
462.964	3.31
463.317	3.31
463.67	3.33
464.022	3.33
464.375	3.34
464.728	3.36
465.08	3.38
465.433	3.38
465.785	3.4
466.138	3.45
466.49	3.48
466.843	3.5
467.195	3.51
467.547	3.54
467.899	3.56
468.252	3.58
468.604	3.6
468.956	3.62
469.308	3.62
469.66	3.65
470.012	3.65
470.364	3.67
470.716	3.69
471.068	3.71
471.42	3.73
471.772	3.73
472.123	3.74
472.475	3.75
472.827	3.76
473.178	3.77
473.53	3.75
473.882	3.75
474.233	3.75
474.585	3.74
474.936	3.73
475.288	3.72
475.639	3.7
475.99	3.71
476.342	3.71
476.693	3.74
477.044	3.72
477.395	3.71
477.746	3.68
478.097	3.68
478.448	3.66
478.8	3.65
479.15	3.64
479.501	3.64
479.852	3.65
480.203	3.66
480.554	3.65
480.905	3.65
481.255	3.65
481.606	3.65
481.957	3.66
482.307	3.65
482.658	3.65
483.009	3.65
483.359	3.64
483.709	3.64
484.06	3.63
484.41	3.63
484.761	3.64
485.111	3.64
485.461	3.64
485.811	3.63
486.162	3.64
486.512	3.64
486.862	3.65
487.212	3.65
487.562	3.64
487.912	3.65
488.262	3.66
488.612	3.65
488.961	3.65
489.311	3.64
489.661	3.64
490.011	3.64
490.36	3.64
490.71	3.64
491.06	3.64
491.409	3.64
491.759	3.65
492.108	3.65
492.458	3.65
492.807	3.67
493.157	3.68
493.506	3.69
493.855	3.71
494.204	3.72
494.554	3.72
494.903	3.73
495.252	3.74
495.601	3.77
495.95	3.8
496.299	3.82
496.648	3.85
496.997	3.89
497.346	3.92
497.695	3.95
498.043	3.99
498.392	4.03
498.741	4.08
499.09	4.12
499.438	4.16
499.787	4.21
500.135	4.26
500.484	4.32
500.832	4.36
501.181	4.41
501.529	4.47
501.878	4.53
502.226	4.61
502.574	4.68
502.923	4.73
503.271	4.8
503.619	4.88
503.967	4.96
504.315	5.06
504.663	5.15
505.011	5.25
505.359	5.3
505.707	5.38
506.055	5.47
506.403	5.58
506.751	5.68
507.098	5.78
507.446	5.88
507.794	5.97
508.141	6.1
508.489	6.22
508.837	6.33
509.184	6.44
509.531	6.55
509.879	6.65
510.226	6.77
510.574	6.9
510.921	7.01
511.268	7.15
511.616	7.29
511.963	7.42
512.31	7.56
512.657	7.73
513.004	7.89
513.351	8.07
513.698	8.24
514.045	8.44
514.392	8.63
514.739	8.84
515.086	9.05
515.432	9.25
515.779	9.43
516.126	9.65
516.473	9.83
516.819	10.02
517.166	10.22
517.512	10.4
517.859	10.6
518.205	10.79
518.552	10.98
518.898	11.16
519.245	11.34
519.591	11.53
519.937	11.72
520.283	11.92
520.629	12.11
520.976	12.34
521.322	12.57
521.668	12.78
522.014	13.01
522.36	13.24
522.706	13.48
523.052	13.74
523.398	14.04
523.743	14.34
524.089	14.63
524.435	14.88
524.781	15.15
525.126	15.38
525.472	15.61
525.817	15.82
526.163	16
526.509	16.18
526.854	16.36
527.199	16.52
527.545	16.67
527.89	16.82
528.235	16.97
528.581	17.11
528.926	17.29
529.271	17.45
529.616	17.64
529.961	17.78
530.306	17.92
530.651	18.06
530.996	18.24
531.341	18.4
531.686	18.59
532.031	18.78
532.376	18.96
532.721	19.16
533.065	19.34
533.41	19.54
533.755	19.77
534.099	19.97
534.444	20.19
534.788	20.43
535.133	20.64
535.477	20.85
535.822	21.07
536.166	21.28
536.51	21.51
536.855	21.73
537.199	22
537.543	22.29
537.887	22.55
538.231	22.8
538.576	23.09
538.92	23.32
539.264	23.56
539.608	23.8
539.951	24
540.295	24.22
540.639	24.44
540.983	24.62
541.327	24.8
541.671	24.96
542.014	25.14
542.358	25.35
542.701	25.52
543.045	25.69
543.389	25.88
543.732	26.09
544.075	26.28
544.419	26.47
544.762	26.67
545.105	26.9
545.449	27.1
545.792	27.29
546.135	27.51
546.478	27.71
546.821	27.94
547.165	28.2
547.508	28.41
547.851	28.64
548.194	28.89
548.536	29.13
548.879	29.37
549.222	29.59
549.565	29.78
549.908	30.01
550.25	30.24
550.593	30.43
550.936	30.64
551.278	30.86
551.621	31.06
551.963	31.3
552.306	31.51
552.648	31.71
552.991	31.91
553.333	32.15
553.675	32.4
554.017	32.64
554.36	32.79
554.702	32.99
555.044	33.18
555.386	33.33
555.728	33.49
556.07	33.72
556.412	33.91
556.754	34.09
557.096	34.28
557.438	34.47
557.78	34.69
558.121	34.83
558.463	34.99
558.805	35.19
559.147	35.36
559.488	35.54
559.83	35.73
560.171	35.92
560.513	36.06
560.854	36.22
561.196	36.34
561.537	36.52
561.878	36.72
562.22	36.87
562.561	37.07
562.902	37.24
563.243	37.35
563.584	37.5
563.925	37.68
564.266	37.82
564.607	38
564.948	38.17
565.289	38.35
565.63	38.47
565.971	38.64
566.312	38.75
566.653	38.9
566.993	39.04
567.334	39.2
567.675	39.35
568.015	39.46
568.356	39.62
568.696	39.75
569.037	39.87
569.377	39.98
569.718	40.09
570.058	40.23
570.398	40.36
570.739	40.49
571.079	40.61
571.419	40.72
571.759	40.78
572.099	40.87
572.439	40.97
572.779	41.14
573.119	41.17
573.459	41.3
573.799	41.34
574.139	41.41
574.479	41.45
574.819	41.51
575.158	41.6
575.498	41.69
575.838	41.73
576.177	41.82
576.517	41.96
576.856	41.99
577.196	42.07
577.535	42.17
577.875	42.28
578.214	42.36
578.553	42.46
578.893	42.63
579.232	42.72
579.571	42.88
579.91	42.95
580.25	43.09
580.589	43.13
580.928	43.3
581.267	43.42
581.606	43.51
581.945	43.64
582.283	43.7
582.622	43.79
582.961	43.95
583.3	44.03
583.639	44.1
583.977	44.21
584.316	44.33
584.654	44.37
584.993	44.41
585.332	44.46
585.67	44.55
586.008	44.57
586.347	44.64
586.685	44.65
587.024	44.7
587.362	44.72
587.7	44.79
588.038	44.81
588.376	44.88
588.715	44.99
589.053	45.03
589.391	45.18
589.729	45.2
590.067	45.21
590.404	45.29
590.742	45.33
591.08	45.38
591.418	45.41
591.756	45.53
592.093	45.67
592.431	45.74
592.769	45.79
593.106	45.85
593.444	45.92
593.781	45.96
594.119	46.03
594.456	46.12
594.793	46.14
595.131	46.17
595.468	46.2
595.805	46.28
596.143	46.37
596.48	46.36
596.817	46.44
597.154	46.47
597.491	46.5
597.828	46.5
598.165	46.55
598.502	46.6
598.839	46.64
599.176	46.61
599.512	46.71
599.849	46.76
600.186	46.8
600.523	46.74
600.859	46.72
601.196	46.71
601.532	46.67
601.869	46.75
602.205	46.82
602.542	46.9
602.878	46.92
603.215	46.94
603.551	46.97
603.887	47.03
604.223	47.06
604.56	47.09
604.896	47.18
605.232	47.25
605.568	47.3
605.904	47.33
606.24	47.37
606.576	47.45
606.912	47.4
607.248	47.46
607.583	47.59
607.919	47.65
608.255	47.71
608.591	47.84
608.926	47.88
609.262	47.9
609.597	47.91
609.933	47.92
610.268	47.92
610.604	47.94
610.939	47.95
611.275	48.02
611.61	48.1
611.945	48.12
612.281	48.12
612.616	48.15
612.951	48.11
613.286	48.15
613.621	48.12
613.956	48.28
614.291	48.26
614.626	48.13
614.961	48.21
615.296	48.15
615.631	48.21
615.966	48.24
616.3	48.3
616.635	48.23
616.97	48.29
617.304	48.32
617.639	48.44
617.973	48.45
618.308	48.45
618.642	48.37
618.977	48.36
619.311	48.41
619.646	48.39
619.98	48.4
620.314	48.48
620.648	48.36
620.983	48.25
621.317	48.33
621.651	48.4
621.985	48.42
622.319	48.48
622.653	48.48
622.987	48.46
623.321	48.5
623.655	48.58
623.988	48.54
624.322	48.59
624.656	48.57
624.99	48.59
625.323	48.67
625.657	48.7
625.99	48.68
626.324	48.7
626.657	48.72
626.991	48.77
627.324	48.68
627.658	48.75
627.991	48.84
628.324	48.84
628.657	48.9
628.991	48.91
629.324	48.97
629.657	48.95
629.99	49.06
630.323	49.02
630.656	49.04
630.989	49.18
631.322	49.19
631.655	49.25
631.987	49.25
632.32	49.17
632.653	49.21
632.986	49.31
633.318	49.3
633.651	49.3
633.984	49.37
634.316	49.33
634.649	49.42
634.981	49.49
635.313	49.57
635.646	49.65
635.978	49.66
636.31	49.67
636.643	49.66
636.975	49.62
637.307	49.65
637.639	49.65
637.971	49.51
638.303	49.58
638.635	49.48
638.967	49.49
639.299	49.49
639.631	49.45
639.963	49.35
640.295	49.37
640.626	49.42
640.958	49.31
641.29	49.42
641.621	49.41
641.953	49.35
642.285	49.36
642.616	49.24
642.948	49.26
643.279	49.21
643.61	49.25
643.942	49.25
644.273	49.26
644.604	49.26
644.936	49.22
645.267	49.15
645.598	49.16
645.929	49.19
646.26	49.25
646.591	49.23
646.922	49.36
647.253	49.33
647.584	49.32
647.915	49.45
648.245	49.54
648.576	49.5
648.907	49.56
649.238	49.48
649.568	49.54
649.899	49.58
650.229	49.73
650.56	49.72
650.89	49.81
651.221	49.84
651.551	49.9
651.882	50.03
652.212	50.11
652.542	50.15
652.872	50.1
653.203	50.21
653.533	50.28
653.863	50.24
654.193	50.28
654.523	50.38
654.853	50.35
655.183	50.35
655.513	50.46
655.843	50.4
656.172	50.56
656.502	50.64
656.832	50.64
657.162	50.59
657.491	50.67
657.821	50.65
658.15	50.72
658.48	50.69
658.809	50.73
659.139	50.67
659.468	50.74
659.798	50.84
660.127	50.79
660.456	50.84
660.785	50.95
661.115	51
661.444	50.99
661.773	50.98
662.102	50.97
662.431	50.94
662.76	50.93
663.089	50.84
663.418	50.85
663.747	50.86
664.076	51.01
664.404	51.03
664.733	51.11
665.062	51.12
665.39	51.07
665.719	51.05
666.048	51.02
666.376	51.07
666.705	51
667.033	50.98
667.362	50.9
667.69	50.91
668.018	50.92
668.347	50.94
668.675	50.97
669.003	51
669.331	50.98
669.659	50.88
669.987	50.81
670.315	50.89
670.643	50.92
670.971	50.79
671.299	50.74
671.627	50.66
671.955	50.6
672.283	50.61
672.61	50.58
672.938	50.68
673.266	50.7
673.593	50.77
673.921	50.7
674.249	50.79
674.576	50.63
674.904	50.65
675.231	50.53
675.558	50.6
675.886	50.64
676.213	50.61
676.54	50.74
676.867	50.9
677.195	50.91
677.522	50.94
677.849	50.89
678.176	50.9
678.503	50.92
678.83	50.86
679.157	50.92
679.484	50.96
679.81	51.01
680.137	51.01
680.464	50.98
680.791	51.05
681.117	51.16
681.444	51.24
681.771	51.26
682.097	51.26
682.424	51.21
682.75	51.1
683.077	51.14
683.403	51.2
683.729	51.15
684.056	51.14
684.382	51.07
684.708	51.15
685.034	51.18
685.36	51.23
685.686	51.4
686.012	51.38
686.339	51.37
686.664	51.35
686.99	51.17
687.316	51.21
687.642	51.28
687.968	51.19
688.294	51.25
688.619	51.22
688.945	51.23
689.271	51.29
689.596	51.33
689.922	51.43
690.247	51.47
690.573	51.43
690.898	51.39
691.224	51.46
691.549	51.38
691.874	51.39
692.2	51.27
692.525	51.12
692.85	51.39
693.175	51.33
693.5	51.26
693.825	51.3
694.15	51.35
694.475	51.27
694.8	51.3
695.125	51.36
695.45	51.28
695.775	51.4
696.099	51.33
696.424	51.48
696.749	51.39
697.073	51.37
697.398	51.43
697.723	51.5
698.047	51.58
698.372	51.7
698.696	51.68
699.02	51.78
699.345	51.89
699.669	51.77
699.993	51.86
700.318	51.84
700.642	51.97
700.966	52.03
701.29	52.05
701.614	51.95
701.938	51.78
702.262	51.91
702.586	51.84
702.91	51.81
703.234	51.72
703.557	51.68
703.881	51.57
704.205	51.58
704.529	51.4
704.852	51.24
705.176	51.13
705.499	51.19
705.823	50.93
706.146	50.94
706.47	50.83
706.793	50.81
707.117	50.84
707.44	50.82
707.763	50.78
708.086	50.84
708.409	50.9
708.733	51.09
709.056	50.99
709.379	51.12
709.702	51.27
710.025	51.31
710.348	51.48
710.671	51.74
710.993	51.76
711.316	51.94
711.639	52
711.962	52.26
712.284	52.21
712.607	52.41
712.93	52.3
713.252	52.31
713.575	52.26
713.897	52.24
714.22	52.14
714.542	52.05
714.864	52.04
715.187	52.04
715.509	51.94
715.831	52.1
716.153	52.07
716.475	52.1
716.798	52.15
717.12	52.05
717.442	51.98
717.764	51.9
718.085	51.91
718.407	52.12
718.729	51.92
719.051	52.13
719.373	52.17
719.695	52.14
720.016	52.1
720.338	52.16
720.659	52.25
720.981	52.42
721.302	52.61
721.624	52.56
721.945	52.71
722.267	52.96
722.588	52.85
722.909	52.83
723.231	52.8
723.552	52.66
723.873	52.62
724.194	52.59
724.515	52.63
724.836	52.45
725.157	52.24
725.478	52.31
725.799	52.07
726.12	51.87
726.441	52.02
726.762	52.03
727.083	52.2
727.403	52.14
727.724	52.05
728.045	51.79
728.365	51.82
728.686	51.51
729.006	51.19
729.327	51.22
729.647	51.1
729.967	51.06
730.288	51.06
730.608	51.12
730.928	51.08
731.249	51.15
731.569	51.29
731.889	51.32
732.209	51.34
732.529	51.45
732.849	51.64
733.169	51.56
733.489	51.56
733.809	51.3
734.129	51.45
734.448	51.49
734.768	51.53
735.088	51.36
735.408	51.65
735.727	51.65
736.047	51.61
736.366	51.77
736.686	51.77
737.005	51.76
737.325	51.78
737.644	52.06
737.963	51.86
738.283	51.84
738.602	51.77
738.921	52.04
739.24	52.16
739.56	52.02
739.879	52.19
740.198	52.12
740.517	52.19
740.836	52.16
741.155	52.09
741.473	52.25
741.792	52.5
742.111	52.67
742.43	52.87
742.748	52.92
743.067	52.91
743.386	52.94
743.704	53.13
744.023	53.08
744.341	52.64
744.66	52.61
744.978	52.33
745.297	52.35
745.615	51.95
745.933	51.5
746.252	51.6
746.57	51.41
746.888	51.63
747.206	51.68
747.524	51.7
747.842	51.76
748.16	51.49
748.478	51.43
748.796	51.41
749.114	51.35
749.432	51.57
749.749	51.71
750.067	51.63
750.385	51.35
750.703	51.23
751.02	51.23
751.338	51.4
751.655	51.41
751.973	51.23
752.29	51.01
752.608	51.21
752.925	51.18
753.242	51.23
753.56	51.41
753.877	51.4
754.194	51.36
754.511	51.35
754.828	51.53
755.145	51.62
755.462	51.48
755.779	51.76
756.096	51.84
756.413	51.91
756.73	51.92
757.047	52.12
757.364	52.48
757.68	52.45
757.997	52.72
758.314	52.95
758.63	53.09
758.947	53.2
759.264	53.27
759.58	53.2
759.896	53.08
760.213	52.88
760.529	52.81
760.846	52.74
761.162	52.6
761.478	52.49
761.794	52.56
762.11	52.49
762.426	52.23
762.743	52.09
763.059	51.9
763.375	51.95
763.69	51.87
764.006	51.65
764.322	52.02
764.638	51.8
764.954	51.67
765.27	51.68
765.585	51.57
765.901	51.49
766.216	51.63
766.532	51.73
766.848	51.87
767.163	51.83
767.478	51.68
767.794	51.63
768.109	51.84
768.424	51.94
768.74	51.86
769.055	52.1
769.37	52.04
769.685	52.13
770	51.95
770.315	51.77
770.63	52.23
770.945	51.85
771.26	51.81
771.575	51.95
771.89	52.17
772.205	52.39
772.52	52.22
772.834	52.57
773.149	52.57
773.464	52.31
773.778	52.33
774.093	52.78
774.407	53.05
774.722	53.01
775.036	52.63
775.351	52.55
775.665	52.27
775.979	52.1
776.293	52.13
776.608	52.4
776.922	52.98
777.236	52.18
777.55	51.67
777.864	51.77
778.178	51.49
778.492	51.48
778.806	51.83
779.12	51.95
779.434	51.49
779.747	51.67
780.061	51.67
780.375	52.18
780.689	52.13
781.002	51.54
781.316	51.52
781.629	51.71
781.943	51.44
782.256	51.16
782.57	51.7
782.883	51.53
783.196	51.5
783.51	51.49
783.823	51.46
784.136	51.99
784.449	51.82
784.762	52.25
785.075	52.07
785.388	51.93
785.701	52.19
786.014	52.03
786.327	51.76
786.64	51.85
786.953	51.77
787.266	51.33
787.578	51.73
787.891	51.75
788.204	51.68
788.516	52.1
788.829	52.46
789.141	51.99
789.454	52.1
789.766	52.09
790.079	51.54
790.391	51.75
790.703	51.94
791.016	52.26
791.328	52.48
791.64	52.22
791.952	52.03
792.264	51.94
792.576	51.86
792.888	51.47
793.2	51.41
793.512	50.95
793.824	51.26
794.136	52.02
794.448	52.56
794.76	52.98
795.071	53.18
795.383	53.33
795.695	53.64
796.006	53.36
796.318	53.63
796.629	54.11
796.941	54.14
797.252	54.14
797.564	53.73
797.875	53.77
798.186	54.16
798.497	54.02
798.809	53.79
799.12	53.83
799.431	54.11
799.742	53.83
800.053	53.61
800.364	53.49
800.675	53.28
800.986	52.44
801.297	51.54
801.608	51.62
801.918	51.62
802.229	51.34
802.54	51.46
802.851	51.51
803.161	51.66
803.472	51.76
803.782	51.44
804.093	51.54
804.403	51.24
804.714	51.62
805.024	51.59
805.334	51.39
805.645	51.32
805.955	51.44
806.265	51.93
806.575	53.15
806.885	53.32
807.195	53.01
807.505	53.41
807.815	53.99
808.125	53.61
808.435	53.18
808.745	52.67
809.055	53.5
809.365	53.19
809.674	52.43
809.984	52.76
810.294	53.03
810.603	52.96
810.913	52.71
811.222	51.79
811.532	51.94
811.841	52.46
812.151	53.14
812.46	53.33
812.769	53.3
813.079	53.03
813.388	52.78
813.697	51.98
814.006	52.17
814.315	52.31
814.624	52.69
814.933	53.57
815.242	54.11
815.551	53.13
815.86	52.91
816.169	52.76
816.478	52.84
816.786	52.85
817.095	53.09
817.404	53.75
817.712	54.87
818.021	54.73
818.33	54.17
818.638	53.58
818.947	52.99
819.255	52.93
819.563	52.23
819.872	52.31
820.18	52.81
820.488	52.7
820.796	52.57
821.105	52.6
821.413	52.46
821.721	52.63
822.029	52.73
822.337	52.63
822.645	52.87
822.953	52.96
823.26	53.12
823.568	53.22
823.876	52.9
824.184	52.51
824.491	52.48
824.799	52.47
825.107	52.49
825.414	52.61
825.722	52.5
826.029	52.54
826.337	52.79
826.644	52.79
826.951	52.81
827.259	52.91
827.566	52.87
827.873	52.83
828.18	52.82
828.488	52.85
828.795	52.91
829.102	52.84
829.409	52.41
829.716	52.12
830.023	52.08
830.329	52.84
830.636	53.29
830.943	53.39
831.25	53.74
831.557	53.93
831.863	54.01
832.17	54.56
832.476	54.95
832.783	54.28
833.089	53.87
833.396	54.05
833.702	53.86
834.009	53.86
834.315	53.78
834.621	53.83
834.928	53.66
835.234	54.1
835.54	53.92
835.846	54.29
836.152	54.07
836.458	53.63
836.764	52.68
837.07	52.51
837.376	52.48
837.682	52.49
837.988	52.47
838.293	52.13
838.599	51.59
838.905	51.35
839.211	51.4
839.516	51.75
839.822	51.26
840.127	51.08
840.433	50.67
840.738	51.29
841.044	50.81
841.349	50.52
841.654	49.63
841.959	49.57
842.265	49.06
842.57	49.29
842.875	49.92
843.18	50.3
843.485	51.04
843.79	51.21
844.095	50.13
844.4	49.15
844.705	49.98
845.01	49.14
845.315	48.43
845.619	48.83
845.924	47.88
846.229	47.93
846.533	47.53
846.838	48.13
847.142	47.5
847.447	47.92
847.751	50.27
848.056	51.58
848.36	51.42
848.664	52.08
848.969	51.34
849.273	51.78
849.577	51.6
849.881	50
850.185	50.66
850.489	52.51
850.794	56.3
851.097	55.02
851.401	54.92
851.705	57.4
852.009	57.3
852.313	56.62
852.617	56.28
852.92	57.58
853.224	56.59
853.528	54.95
853.831	55.28
854.135	53.13
854.438	51.33
854.742	53.47
855.045	53.18
855.349	52.24
855.652	50.87
855.955	50.6
856.259	51.06
856.562	49.03
856.865	48.63
857.168	47.83
857.471	47.81
857.774	49.17
858.077	48.69
858.38	47.75
858.683	49.73
858.986	49.83
859.289	48.88
859.592	49.55
859.894	50.44
860.197	48.92
860.5	49.43
860.802	49.28
861.105	49.05
861.407	46.64
861.71	48.1
862.012	49.37
862.315	49.77
862.617	49.87
862.919	51.68
863.222	51.45
863.524	49.95
863.826	50.45
864.128	49.69
864.43	47.6
864.732	49.63
865.034	49.42
865.336	48.05
865.638	49.02
865.94	48
866.242	48.9
866.544	50.75
866.846	48.73
867.147	50.19
867.449	49.48
867.751	52.58
868.052	52.88
868.354	51.94
868.655	52.11
868.957	51.05
869.258	48.32
869.56	47.21
869.861	45.61
870.162	46.45
870.463	46.63
870.765	47.52
871.066	47.6
871.367	49
871.668	50.92
871.969	51.72
872.27	54.66
872.571	53.95
872.872	52.68
873.173	54.52
873.473	52.97
873.774	53.94
874.075	54.63
874.376	51.32
874.676	51.07
874.977	51.38
875.277	51.75
875.578	53.92
875.878	55.02
876.179	56.45
876.479	56.18
876.78	57.28
877.08	58.05
877.38	56.19
877.68	54.78
877.981	54.11
878.281	53
878.581	49.67
