Data from BU26941_Reflection_00008.txt Node
Date: Tue Nov 19 11:03:36 EST 2019
User: vgr7
Spectrometer: USB2G7710
Scans to average: 3
Trigger mode: 4
Integration Time (sec): 2.000000E-2
Electric dark correction enabled: true
Boxcar width: 10
XAxis mode: Wavelengths
Number of Pixels in Spectrum: 2048
>>>>>Begin Spectral Data<<<<<
177.721	69.47
178.105	26.4
178.488	-26.19
178.871	-79.73
179.254	-60.66
179.636	14.79
180.019	136.55
180.402	-160
180.785	-224.53
181.168	-7900
181.55	94.92
181.933	-40.85
182.316	197.74
182.698	-214.05
183.081	-1332.43
183.463	381.44
183.846	343.7
184.228	-920.41
184.611	33.8
184.993	43.28
185.376	42.2
185.758	-13.02
186.14	-92.41
186.522	-107.49
186.904	-131.58
187.287	-114.8
187.669	-94.78
188.051	-137.72
188.433	-303.9
188.815	-247.68
189.197	-192.37
189.579	-389.84
189.961	-523.23
190.342	-396.66
190.724	-552.74
191.106	-557.68
191.488	-519.54
191.869	-276.1
192.251	-321.9
192.633	-435.81
193.014	-438.24
193.396	-429.75
193.777	-244.61
194.159	-236.43
194.54	-206.55
194.922	-392.82
195.303	-618.92
195.684	-343.69
196.065	-196.53
196.447	-60.85
196.828	-60.85
197.209	-115.1
197.59	-64.12
197.971	-26.3
198.352	-66.85
198.733	-80.23
199.114	-115.97
199.495	-136.82
199.876	-195.04
200.257	-158.4
200.638	-141.26
201.018	-120.57
201.399	-118.01
201.78	-96.52
202.16	-95.76
202.541	-112.58
202.922	-111.9
203.302	-87.87
203.683	-133.19
204.063	-175.38
204.444	-180.36
204.824	-241.73
205.204	-179.75
205.585	-174.58
205.965	-267.78
206.345	-289.11
206.725	-77.28
207.106	2.88
207.486	61.74
207.866	37.64
208.246	27.31
208.626	21.78
209.006	7.73
209.386	0.2
209.766	-161.22
210.145	-156.66
210.525	-198.51
210.905	-152.49
211.285	-121.93
211.664	25.37
212.044	30.75
212.424	-59.9
212.803	-61.8
213.183	-132.97
213.562	-100
213.942	-165.25
214.321	-55.81
214.701	-148.18
215.08	-416.85
215.459	-47.91
215.838	16.35
216.218	-8.37
216.597	21.35
216.976	287.97
217.355	13100
217.734	-91.39
218.113	327.72
218.492	441.46
218.871	181.63
219.25	159.23
219.629	84.41
220.008	169.91
220.387	164.22
220.766	127.46
221.144	146.73
221.523	56.26
221.902	60.03
222.28	56.61
222.659	63.16
223.037	67.88
223.416	52.27
223.794	36.43
224.173	23.45
224.551	12.51
224.929	27.96
225.308	19.47
225.686	14.05
226.064	-0.13
226.442	7.93
226.821	2.42
227.199	0.58
227.577	-0.4
227.955	1.28
228.333	-2.34
228.711	-2.69
229.089	-1.85
229.467	-2.22
229.845	-5.88
230.222	-7.82
230.6	-9.55
230.978	-9.85
231.356	-7.79
231.733	-3.97
232.111	-3.42
232.488	0.56
232.866	0.54
233.243	0.98
233.621	5.48
233.998	10.67
234.376	9.36
234.753	9.02
235.13	9.81
235.508	8.94
235.885	6.77
236.262	6.4
236.639	5.88
237.016	7.69
237.393	9.34
237.77	9.68
238.147	10.48
238.524	10.72
238.901	9.54
239.278	8.37
239.655	7.47
240.032	7.14
240.409	6.06
240.785	5.53
241.162	5.2
241.539	4.44
241.915	3.36
242.292	3.32
242.668	3.74
243.045	3.27
243.421	3.48
243.798	4.04
244.174	4.32
244.551	4.25
244.927	3.87
245.303	3.89
245.679	3.98
246.056	3.6
246.432	3.33
246.808	3.53
247.184	3.44
247.56	3.15
247.936	3.36
248.312	3.55
248.688	3.6
249.064	3.92
249.44	3.97
249.815	4.15
250.191	4.06
250.567	3.97
250.943	4.13
251.318	4.07
251.694	3.93
252.069	3.73
252.445	3.62
252.82	4.1
253.196	3.97
253.571	4.12
253.947	4.42
254.322	4.53
254.697	4.27
255.073	4.3
255.448	4.49
255.823	4.3
256.198	3.86
256.573	3.64
256.948	3.6
257.323	3.67
257.698	3.62
258.073	3.67
258.448	3.78
258.823	3.62
259.198	3.68
259.573	3.61
259.948	3.85
260.322	3.76
260.697	3.74
261.072	3.7
261.446	3.79
261.821	3.56
262.195	3.58
262.57	3.57
262.944	3.67
263.319	3.62
263.693	3.64
264.067	3.89
264.442	3.98
264.816	3.75
265.19	3.64
265.564	3.58
265.938	3.57
266.313	3.29
266.687	3.29
267.061	3.14
267.435	3.18
267.809	3.05
268.183	3.26
268.556	3.02
268.93	3.08
269.304	2.83
269.678	2.99
270.051	2.96
270.425	3.08
270.799	2.96
271.172	3.11
271.546	3.14
271.919	3.07
272.293	3.23
272.666	3.48
273.04	3.49
273.413	3.47
273.787	3.56
274.16	3.72
274.533	3.8
274.906	3.86
275.279	3.76
275.653	3.8
276.026	3.63
276.399	3.59
276.772	3.64
277.145	3.48
277.518	3.47
277.891	3.56
278.263	3.72
278.636	3.79
279.009	3.65
279.382	3.43
279.755	3.46
280.127	3.4
280.5	3.35
280.872	3.38
281.245	3.47
281.617	3.26
281.99	3.1
282.362	2.95
282.735	3.02
283.107	3.23
283.479	3.32
283.852	3.41
284.224	3.54
284.596	3.51
284.968	3.67
285.34	3.75
285.713	3.82
286.085	3.68
286.457	3.68
286.829	3.75
287.201	3.93
287.572	3.95
287.944	3.97
288.316	3.9
288.688	4.02
289.06	4.18
289.431	4.38
289.803	4.56
290.175	4.75
290.546	4.75
290.918	4.69
291.289	4.55
291.661	4.65
292.032	4.68
292.403	4.77
292.775	4.92
293.146	5.01
293.517	4.91
293.889	4.88
294.26	5.04
294.631	5.16
295.002	5.27
295.373	5.22
295.744	5.19
296.115	5.27
296.486	5.21
296.857	5.13
297.228	5.14
297.599	5.12
297.97	5.15
298.34	5.31
298.711	5.3
299.082	5.41
299.452	5.4
299.823	5.44
300.194	5.46
300.564	5.47
300.935	5.36
301.305	5.4
301.676	5.48
302.046	5.43
302.416	5.46
302.787	5.47
303.157	5.56
303.527	5.74
303.897	5.82
304.267	6.04
304.637	6.23
305.008	6.35
305.378	6.61
305.748	6.67
306.117	6.72
306.487	6.79
306.857	6.92
307.227	7.07
307.597	7.07
307.967	7.19
308.336	7.2
308.706	7.42
309.076	7.59
309.445	7.79
309.815	7.92
310.184	7.88
310.554	7.89
310.923	7.91
311.293	7.86
311.662	7.9
312.031	7.98
312.401	7.94
312.77	7.98
313.139	7.95
313.508	8.01
313.877	7.85
314.246	8.04
314.616	8
314.985	8.07
315.353	8.21
315.722	8.44
316.091	8.48
316.46	8.54
316.829	8.72
317.198	8.79
317.567	8.9
317.935	9.07
318.304	9.37
318.672	9.57
319.041	9.78
319.41	9.95
319.778	10.01
320.147	10.21
320.515	10.34
320.883	10.41
321.252	10.49
321.62	10.74
321.988	10.63
322.357	10.77
322.725	10.83
323.093	10.9
323.461	10.86
323.829	10.94
324.197	11.07
324.565	10.99
324.933	11.02
325.301	11.05
325.669	11.14
326.037	11.14
326.405	11.14
326.772	11.2
327.14	11.31
327.508	11.19
327.875	11.21
328.243	11.28
328.61	11.31
328.978	11.29
329.346	11.29
329.713	11.59
330.08	11.66
330.448	11.72
330.815	11.81
331.182	11.66
331.55	11.79
331.917	11.71
332.284	11.83
332.651	11.88
333.018	11.8
333.385	11.73
333.752	11.79
334.119	11.97
334.486	11.99
334.853	11.89
335.22	11.96
335.587	11.85
335.954	11.77
336.32	11.82
336.687	11.88
337.054	11.84
337.42	11.89
337.787	11.89
338.153	11.91
338.52	11.99
338.886	12.11
339.253	12.17
339.619	12.3
339.986	12.23
340.352	12.15
340.718	12.27
341.084	12.33
341.451	12.4
341.817	12.2
342.183	12.24
342.549	12.27
342.915	12.44
343.281	12.53
343.647	12.66
344.013	12.62
344.379	12.56
344.745	12.65
345.11	12.51
345.476	12.59
345.842	12.54
346.208	12.64
346.573	12.57
346.939	12.52
347.304	12.6
347.67	12.69
348.035	12.8
348.401	12.78
348.766	12.78
349.132	12.81
349.497	12.95
349.862	12.87
350.228	12.92
350.593	12.79
350.958	12.83
351.323	12.69
351.688	12.75
352.053	12.77
352.418	12.76
352.783	12.69
353.148	12.65
353.513	12.68
353.878	12.57
354.243	12.68
354.608	12.76
354.972	12.62
355.337	12.57
355.702	12.5
356.066	12.49
356.431	12.5
356.795	12.46
357.16	12.39
357.524	12.37
357.889	12.29
358.253	12.3
358.618	12.27
358.982	12.32
359.346	12.25
359.71	12.26
360.075	12.26
360.439	12.29
360.803	12.23
361.167	12.23
361.531	12.25
361.895	12.16
362.259	12.03
362.623	12.06
362.987	12.03
363.351	11.99
363.714	11.94
364.078	11.87
364.442	11.74
364.806	11.77
365.169	11.75
365.533	11.71
365.896	11.7
366.26	11.58
366.623	11.5
366.987	11.46
367.35	11.38
367.714	11.28
368.077	11.19
368.44	11.15
368.803	11.04
369.167	10.86
369.53	10.83
369.893	10.81
370.256	10.66
370.619	10.56
370.982	10.54
371.345	10.53
371.708	10.44
372.071	10.37
372.434	10.18
372.797	10.18
373.159	10.11
373.522	10
373.885	9.88
374.247	9.78
374.61	9.7
374.973	9.67
375.335	9.66
375.698	9.57
376.06	9.5
376.423	9.51
376.785	9.44
377.147	9.39
377.51	9.27
377.872	9.26
378.234	9.2
378.596	9.1
378.958	8.99
379.321	8.91
379.683	8.91
380.045	8.85
380.407	8.68
380.769	8.58
381.13	8.48
381.492	8.44
381.854	8.39
382.216	8.37
382.578	8.22
382.939	8.1
383.301	8.04
383.663	8
384.024	7.83
384.386	7.8
384.747	7.74
385.109	7.66
385.47	7.56
385.832	7.5
386.193	7.41
386.554	7.29
386.916	7.26
387.277	7.17
387.638	7.16
387.999	7.15
388.36	7.14
388.721	7.09
389.082	7.05
389.443	7.05
389.804	7.04
390.165	7.05
390.526	6.98
390.887	6.98
391.248	6.92
391.609	6.92
391.969	6.87
392.33	6.83
392.691	6.8
393.051	6.76
393.412	6.72
393.772	6.7
394.133	6.66
394.493	6.56
394.854	6.52
395.214	6.46
395.574	6.39
395.935	6.32
396.295	6.28
396.655	6.24
397.015	6.15
397.376	6.05
397.736	5.96
398.096	5.92
398.456	5.81
398.816	5.77
399.176	5.71
399.535	5.64
399.895	5.56
400.255	5.54
400.615	5.5
400.975	5.46
401.334	5.42
401.694	5.42
402.054	5.42
402.413	5.36
402.773	5.35
403.132	5.31
403.492	5.32
403.851	5.29
404.211	5.26
404.57	5.23
404.929	5.17
405.288	5.19
405.648	5.19
406.007	5.2
406.366	5.14
406.725	5.12
407.084	5.08
407.443	5.06
407.802	5.01
408.161	4.98
408.52	4.96
408.879	4.95
409.238	4.94
409.596	4.95
409.955	4.92
410.314	4.88
410.673	4.87
411.031	4.77
411.39	4.77
411.748	4.76
412.107	4.74
412.465	4.75
412.824	4.71
413.182	4.66
413.54	4.63
413.899	4.62
414.257	4.61
414.615	4.59
414.974	4.59
415.332	4.58
415.69	4.55
416.048	4.53
416.406	4.48
416.764	4.46
417.122	4.43
417.48	4.42
417.838	4.4
418.195	4.38
418.553	4.38
418.911	4.38
419.269	4.36
419.626	4.34
419.984	4.3
420.342	4.29
420.699	4.29
421.057	4.27
421.414	4.26
421.772	4.25
422.129	4.22
422.486	4.2
422.844	4.17
423.201	4.16
423.558	4.14
423.915	4.14
424.273	4.13
424.63	4.12
424.987	4.11
425.344	4.09
425.701	4.07
426.058	4.06
426.415	4.03
426.772	4
427.128	3.97
427.485	3.97
427.842	3.95
428.199	3.93
428.555	3.92
428.912	3.89
429.269	3.88
429.625	3.89
429.982	3.88
430.338	3.91
430.695	3.92
431.051	3.93
431.407	3.93
431.764	3.9
432.12	3.9
432.476	3.9
432.832	3.91
433.189	3.91
433.545	3.93
433.901	3.92
434.257	3.92
434.613	3.95
434.969	3.94
435.325	3.95
435.681	3.93
436.036	3.92
436.392	3.92
436.748	3.93
437.104	3.94
437.459	3.91
437.815	3.9
438.171	3.88
438.526	3.87
438.882	3.87
439.237	3.88
439.593	3.88
439.948	3.89
440.304	3.87
440.659	3.88
441.014	3.87
441.369	3.87
441.725	3.85
442.08	3.85
442.435	3.85
442.79	3.84
443.145	3.84
443.5	3.84
443.855	3.84
444.21	3.82
444.565	3.81
444.92	3.82
445.275	3.8
445.629	3.79
445.984	3.77
446.339	3.77
446.693	3.77
447.048	3.75
447.403	3.74
447.757	3.74
448.112	3.72
448.466	3.69
448.82	3.68
449.175	3.69
449.529	3.68
449.883	3.65
450.238	3.66
450.592	3.66
450.946	3.66
451.3	3.64
451.654	3.61
452.008	3.59
452.362	3.58
452.716	3.57
453.07	3.58
453.424	3.56
453.778	3.54
454.132	3.5
454.486	3.5
454.839	3.49
455.193	3.49
455.547	3.5
455.9	3.52
456.254	3.55
456.607	3.56
456.961	3.54
457.314	3.54
457.668	3.54
458.021	3.55
458.375	3.54
458.728	3.55
459.081	3.57
459.434	3.6
459.787	3.6
460.141	3.61
460.494	3.61
460.847	3.64
461.2	3.66
461.553	3.69
461.906	3.7
462.259	3.69
462.611	3.7
462.964	3.72
463.317	3.74
463.67	3.73
464.022	3.73
464.375	3.75
464.728	3.77
465.08	3.8
465.433	3.79
465.785	3.82
466.138	3.84
466.49	3.87
466.843	3.88
467.195	3.91
467.547	3.93
467.899	3.95
468.252	3.99
468.604	4
468.956	4.02
469.308	4.04
469.66	4.07
470.012	4.09
470.364	4.1
470.716	4.11
471.068	4.14
471.42	4.15
471.772	4.17
472.123	4.19
472.475	4.19
472.827	4.22
473.178	4.21
473.53	4.21
473.882	4.22
474.233	4.21
474.585	4.2
474.936	4.19
475.288	4.17
475.639	4.17
475.99	4.15
476.342	4.15
476.693	4.14
477.044	4.15
477.395	4.13
477.746	4.12
478.097	4.11
478.448	4.09
478.8	4.07
479.15	4.05
479.501	4.03
479.852	4.02
480.203	4.02
480.554	4.01
480.905	4
481.255	3.98
481.606	3.99
481.957	4
482.307	4.01
482.658	4.01
483.009	4.01
483.359	4.02
483.709	4
484.06	4.01
484.41	4.01
484.761	4.01
485.111	4
485.461	4
485.811	4
486.162	4.01
486.512	4.02
486.862	4.02
487.212	4.02
487.562	4.01
487.912	4.03
488.262	4.04
488.612	4.05
488.961	4.05
489.311	4.06
489.661	4.05
490.011	4.05
490.36	4.05
490.71	4.05
491.06	4.07
491.409	4.07
491.759	4.08
492.108	4.1
492.458	4.13
492.807	4.16
493.157	4.18
493.506	4.2
493.855	4.24
494.204	4.27
494.554	4.3
494.903	4.33
495.252	4.36
495.601	4.42
495.95	4.47
496.299	4.53
496.648	4.57
496.997	4.61
497.346	4.71
497.695	4.79
498.043	4.86
498.392	4.94
498.741	5.02
499.09	5.09
499.438	5.18
499.787	5.24
500.135	5.34
500.484	5.45
500.832	5.55
501.181	5.63
501.529	5.75
501.878	5.89
502.226	6.04
502.574	6.16
502.923	6.26
503.271	6.38
503.619	6.52
503.967	6.68
504.315	6.87
504.663	7.01
505.011	7.18
505.359	7.35
505.707	7.5
506.055	7.67
506.403	7.85
506.751	8.02
507.098	8.23
507.446	8.4
507.794	8.59
508.141	8.78
508.489	8.99
508.837	9.18
509.184	9.37
509.531	9.55
509.879	9.77
510.226	9.97
510.574	10.2
510.921	10.4
511.268	10.62
511.616	10.84
511.963	11.06
512.31	11.31
512.657	11.53
513.004	11.81
513.351	12.08
513.698	12.38
514.045	12.71
514.392	13
514.739	13.29
515.086	13.59
515.432	13.9
515.779	14.19
516.126	14.51
516.473	14.79
516.819	15.1
517.166	15.36
517.512	15.64
517.859	15.9
518.205	16.16
518.552	16.39
518.898	16.63
519.245	16.88
519.591	17.1
519.937	17.37
520.283	17.62
520.629	17.87
520.976	18.14
521.322	18.38
521.668	18.65
522.014	18.93
522.36	19.22
522.706	19.52
523.052	19.85
523.398	20.17
523.743	20.52
524.089	20.87
524.435	21.22
524.781	21.55
525.126	21.85
525.472	22.13
525.817	22.39
526.163	22.63
526.509	22.86
526.854	23.08
527.199	23.27
527.545	23.48
527.89	23.67
528.235	23.87
528.581	24.08
528.926	24.29
529.271	24.52
529.616	24.73
529.961	24.95
530.306	25.17
530.651	25.38
530.996	25.61
531.341	25.83
531.686	26.06
532.031	26.3
532.376	26.54
532.721	26.8
533.065	27.07
533.41	27.36
533.755	27.61
534.099	27.89
534.444	28.16
534.788	28.44
535.133	28.72
535.477	28.98
535.822	29.28
536.166	29.58
536.51	29.87
536.855	30.22
537.199	30.54
537.543	30.89
537.887	31.26
538.231	31.63
538.576	31.98
538.92	32.35
539.264	32.7
539.608	33
539.951	33.3
540.295	33.57
540.639	33.83
540.983	34.11
541.327	34.35
541.671	34.63
542.014	34.86
542.358	35.12
542.701	35.35
543.045	35.58
543.389	35.83
543.732	36.08
544.075	36.27
544.419	36.5
544.762	36.74
545.105	36.98
545.449	37.22
545.792	37.52
546.135	37.77
546.478	37.97
546.821	38.26
547.165	38.54
547.508	38.84
547.851	39.2
548.194	39.47
548.536	39.8
548.879	40.05
549.222	40.36
549.565	40.62
549.908	40.9
550.25	41.19
550.593	41.43
550.936	41.72
551.278	42
551.621	42.28
551.963	42.49
552.306	42.78
552.648	43
552.991	43.23
553.333	43.5
553.675	43.77
554.017	43.98
554.36	44.21
554.702	44.39
555.044	44.53
555.386	44.74
555.728	44.88
556.07	45.09
556.412	45.26
556.754	45.43
557.096	45.63
557.438	45.8
557.78	45.97
558.121	46.14
558.463	46.38
558.805	46.59
559.147	46.82
559.488	46.93
559.83	47.15
560.171	47.31
560.513	47.47
560.854	47.65
561.196	47.85
561.537	48
561.878	48.14
562.22	48.31
562.561	48.46
562.902	48.74
563.243	48.96
563.584	49.1
563.925	49.29
564.266	49.41
564.607	49.58
564.948	49.74
565.289	49.91
565.63	50.11
565.971	50.28
566.312	50.38
566.653	50.57
566.993	50.67
567.334	50.79
567.675	50.91
568.015	51.02
568.356	51.14
568.696	51.2
569.037	51.31
569.377	51.44
569.718	51.59
570.058	51.64
570.398	51.72
570.739	51.86
571.079	51.89
571.419	52.04
571.759	52.08
572.099	52.19
572.439	52.21
572.779	52.26
573.119	52.33
573.459	52.42
573.799	52.51
574.139	52.62
574.479	52.76
574.819	52.85
575.158	52.92
575.498	52.96
575.838	53.09
576.177	53.22
576.517	53.28
576.856	53.31
577.196	53.37
577.535	53.4
577.875	53.46
578.214	53.55
578.553	53.62
578.893	53.76
579.232	53.86
579.571	54.06
579.91	54.16
580.25	54.22
580.589	54.31
580.928	54.36
581.267	54.39
581.606	54.37
581.945	54.46
582.283	54.56
582.622	54.74
582.961	54.81
583.3	54.85
583.639	54.96
583.977	55.05
584.316	55.15
584.654	55.3
584.993	55.35
585.332	55.42
585.67	55.52
586.008	55.55
586.347	55.56
586.685	55.53
587.024	55.58
587.362	55.62
587.7	55.67
588.038	55.72
588.376	55.81
588.715	55.83
589.053	55.89
589.391	55.99
589.729	56.04
590.067	56.04
590.404	56.11
590.742	56.17
591.08	56.26
591.418	56.33
591.756	56.33
592.093	56.42
592.431	56.55
592.769	56.61
593.106	56.76
593.444	56.86
593.781	56.91
594.119	56.95
594.456	56.99
594.793	57.05
595.131	57.15
595.468	57.19
595.805	57.28
596.143	57.29
596.48	57.33
596.817	57.34
597.154	57.42
597.491	57.47
597.828	57.55
598.165	57.54
598.502	57.52
598.839	57.63
599.176	57.66
599.512	57.68
599.849	57.66
600.186	57.57
600.523	57.56
600.859	57.64
601.196	57.7
601.532	57.76
601.869	57.79
602.205	57.72
602.542	57.78
602.878	57.84
603.215	57.92
603.551	57.94
603.887	57.95
604.223	58
604.56	58.01
604.896	58
605.232	58.09
605.568	58.2
605.904	58.25
606.24	58.28
606.576	58.34
606.912	58.39
607.248	58.48
607.583	58.5
607.919	58.53
608.255	58.57
608.591	58.6
608.926	58.62
609.262	58.7
609.597	58.74
609.933	58.83
610.268	58.85
610.604	58.9
610.939	59.01
611.275	59.02
611.61	59.01
611.945	59.04
612.281	59.03
612.616	58.98
612.951	58.98
613.286	59.03
613.621	59.05
613.956	59.13
614.291	59.15
614.626	59.24
614.961	59.32
615.296	59.37
615.631	59.44
615.966	59.48
616.3	59.53
616.635	59.49
616.97	59.5
617.304	59.54
617.639	59.56
617.973	59.5
618.308	59.58
618.642	59.61
618.977	59.57
619.311	59.56
619.646	59.61
619.98	59.58
620.314	59.55
620.648	59.61
620.983	59.71
621.317	59.69
621.651	59.67
621.985	59.64
622.319	59.63
622.653	59.62
622.987	59.75
623.321	59.81
623.655	59.89
623.988	59.95
624.322	59.93
624.656	59.97
624.99	60.02
625.323	60.02
625.657	60.08
625.99	60.23
626.324	60.23
626.657	60.2
626.991	60.22
627.324	60.32
627.658	60.3
627.991	60.29
628.324	60.32
628.657	60.43
628.991	60.43
629.324	60.46
629.657	60.55
629.99	60.47
630.323	60.47
630.656	60.44
630.989	60.33
631.322	60.4
631.655	60.37
631.987	60.39
632.32	60.37
632.653	60.33
632.986	60.33
633.318	60.39
633.651	60.47
633.984	60.5
634.316	60.51
634.649	60.6
634.981	60.63
635.313	60.69
635.646	60.66
635.978	60.72
636.31	60.74
636.643	60.78
636.975	60.8
637.307	60.8
637.639	60.81
637.971	60.84
638.303	60.79
638.635	60.68
638.967	60.74
639.299	60.81
639.631	60.99
639.963	60.92
640.295	61.04
640.626	61.06
640.958	61.11
641.29	61.05
641.621	61.01
641.953	61.03
642.285	61.02
642.616	61.09
642.948	61.04
643.279	61.06
643.61	61.07
643.942	61.16
644.273	61.19
644.604	61.3
644.936	61.32
645.267	61.44
645.598	61.64
645.929	61.59
646.26	61.53
646.591	61.42
646.922	61.51
647.253	61.46
647.584	61.53
647.915	61.57
648.245	61.7
648.576	61.74
648.907	61.68
649.238	61.7
649.568	61.67
649.899	61.68
650.229	61.74
650.56	61.64
650.89	61.56
651.221	61.57
651.551	61.57
651.882	61.6
652.212	61.45
652.542	61.46
652.872	61.57
653.203	61.6
653.533	61.6
653.863	61.59
654.193	61.61
654.523	61.49
654.853	61.35
655.183	61.35
655.513	61.31
655.843	61.29
656.172	61.31
656.502	61.2
656.832	61.39
657.162	61.4
657.491	61.53
657.821	61.62
658.15	61.6
658.48	61.62
658.809	61.7
659.139	61.74
659.468	61.7
659.798	61.72
660.127	61.63
660.456	61.68
660.785	61.68
661.115	61.66
661.444	61.72
661.773	61.73
662.102	61.64
662.431	61.62
662.76	61.7
663.089	61.71
663.418	61.82
663.747	61.69
664.076	61.58
664.404	61.55
664.733	61.5
665.062	61.61
665.39	61.51
665.719	61.37
666.048	61.43
666.376	61.43
666.705	61.29
667.033	61.44
667.362	61.55
667.69	61.53
668.018	61.58
668.347	61.6
668.675	61.76
669.003	61.85
669.331	61.84
669.659	61.86
669.987	61.85
670.315	61.95
670.643	61.94
670.971	62.02
671.299	61.99
671.627	62.06
671.955	62.05
672.283	62.04
672.61	62.23
672.938	62.31
673.266	62.32
673.593	62.37
673.921	62.29
674.249	62.2
674.576	62.1
674.904	62.04
675.231	61.99
675.558	62.01
675.886	62.03
676.213	61.99
676.54	61.96
676.867	61.93
677.195	61.86
677.522	61.88
677.849	61.94
678.176	61.99
678.503	62.04
678.83	62.08
679.157	62.2
679.484	62.09
679.81	62
680.137	62.06
680.464	62.15
680.791	62.34
681.117	62.33
681.444	62.55
681.771	62.65
682.097	62.72
682.424	62.78
682.75	62.84
683.077	62.84
683.403	62.84
683.729	62.9
684.056	62.91
684.382	63.1
684.708	62.98
685.034	62.95
685.36	62.89
685.686	62.87
686.012	62.92
686.339	62.81
686.664	62.86
686.99	62.92
687.316	62.88
687.642	62.75
687.968	62.91
688.294	62.85
688.619	62.83
688.945	62.78
689.271	62.7
689.596	62.64
689.922	62.86
690.247	62.86
690.573	62.91
690.898	62.93
691.224	62.73
691.549	62.81
691.874	62.83
692.2	62.76
692.525	62.58
692.85	62.55
693.175	62.71
693.5	62.66
693.825	62.63
694.15	62.63
694.475	62.66
694.8	62.6
695.125	62.57
695.45	62.63
695.775	62.65
696.099	62.58
696.424	62.49
696.749	62.41
697.073	62.5
697.398	62.49
697.723	62.52
698.047	62.51
698.372	62.45
698.696	62.31
699.02	62.36
699.345	62.48
699.669	62.53
699.993	62.41
700.318	62.44
700.642	62.47
700.966	62.37
701.29	62.5
701.614	62.42
701.938	62.38
702.262	62.22
702.586	62.24
702.91	62.27
703.234	62.27
703.557	62.22
703.881	62.07
704.205	62.16
704.529	62.14
704.852	62.3
705.176	62.45
705.499	62.63
705.823	62.56
706.146	62.57
706.47	62.56
706.793	62.71
707.117	62.71
707.44	62.54
707.763	62.79
708.086	62.7
708.409	62.59
708.733	62.61
709.056	62.67
709.379	62.71
709.702	62.86
710.025	63.05
710.348	63.21
710.671	63.37
710.993	63.14
711.316	63.03
711.639	62.92
711.962	62.88
712.284	62.87
712.607	62.89
712.93	62.96
713.252	62.92
713.575	63.02
713.897	63.19
714.22	63.21
714.542	63.21
714.864	63.18
715.187	63.46
715.509	63.66
715.831	63.69
716.153	63.72
716.475	63.71
716.798	63.55
717.12	63.42
717.442	63.28
717.764	63.41
718.085	63.49
718.407	63.53
718.729	63.51
719.051	63.54
719.373	63.73
719.695	63.61
720.016	63.59
720.338	63.63
720.659	63.49
720.981	63.61
721.302	63.68
721.624	63.46
721.945	63.45
722.267	63.23
722.588	63.26
722.909	63.5
723.231	63.4
723.552	63.39
723.873	63.48
724.194	63.6
724.515	63.74
724.836	63.88
725.157	63.91
725.478	63.85
725.799	64.08
726.12	64.17
726.441	64.38
726.762	64.39
727.083	64.22
727.403	64.27
727.724	64.32
728.045	64.23
728.365	64.38
728.686	64.34
729.006	64.33
729.327	64.42
729.647	64.33
729.967	64.45
730.288	64.49
730.608	64.73
730.928	64.67
731.249	64.59
731.569	64.69
731.889	64.71
732.209	64.88
732.529	64.73
732.849	64.69
733.169	64.58
733.489	64.63
733.809	64.86
734.129	64.81
734.448	64.94
734.768	64.56
735.088	64.57
735.408	64.46
735.727	64.51
736.047	64.47
736.366	64.25
736.686	64.02
737.005	64.08
737.325	63.9
737.644	63.81
737.963	63.96
738.283	64.04
738.602	63.86
738.921	63.89
739.24	63.67
739.56	63.48
739.879	63.53
740.198	63.62
740.517	63.52
740.836	63.28
741.155	63.04
741.473	63.66
741.792	63.7
742.111	63.63
742.43	63.64
742.748	63.5
743.067	63.41
743.386	63.72
743.704	63.29
744.023	63.23
744.341	63.37
744.66	63.18
744.978	62.76
745.297	62.95
745.615	63.11
745.933	63.28
746.252	63.45
746.57	63.46
746.888	63.33
747.206	63.15
747.524	63.5
747.842	63.5
748.16	63.33
748.478	63.47
748.796	63.75
749.114	63.7
749.432	63.86
749.749	63.99
750.067	63.73
750.385	64.19
750.703	63.93
751.02	63.93
751.338	63.9
751.655	64.15
751.973	64.31
752.29	64.07
752.608	63.94
752.925	63.86
753.242	63.98
753.56	63.72
753.877	63.93
754.194	64.12
754.511	64.1
754.828	63.89
755.145	63.97
755.462	63.71
755.779	63.87
756.096	63.63
756.413	63.76
756.73	64
757.047	64.18
757.364	64.41
757.68	64.37
757.997	64.48
758.314	64.45
758.63	64.31
758.947	64.55
759.264	64.9
759.58	65.19
759.896	64.95
760.213	65.25
760.529	65.15
760.846	64.89
761.162	65.05
761.478	65.28
761.794	65.2
762.11	65.36
762.426	65.42
762.743	65.61
763.059	65.87
763.375	65.93
763.69	66.03
764.006	66.29
764.322	66.4
764.638	66.31
764.954	66.61
765.27	66.92
765.585	66.79
765.901	66.64
766.216	66.51
766.532	66.88
766.848	66.87
767.163	66.85
767.478	67.15
767.794	67.17
768.109	67.12
768.424	67.09
768.74	67.19
769.055	67.17
769.37	67.22
769.685	67.16
770	67.19
770.315	66.97
770.63	66.47
770.945	66.65
771.26	66.69
771.575	65.83
771.89	65.57
772.205	65.69
772.52	65.87
772.834	65.93
773.149	65.63
773.464	65.71
773.778	65.8
774.093	65.83
774.407	65.66
774.722	65.71
775.036	65.91
775.351	66.14
775.665	65.88
775.979	65.47
776.293	65.24
776.608	64.87
776.922	64.84
777.236	64.9
777.55	64.95
777.864	64.89
778.178	65.37
778.492	65.56
778.806	65.25
779.12	65.41
779.434	65.63
779.747	65.72
780.061	66.08
780.375	66.07
780.689	65.65
781.002	65.82
781.316	65.72
781.629	65.49
781.943	65.12
782.256	65.38
782.57	65.59
782.883	65.48
783.196	65.88
783.51	65.47
783.823	65.73
784.136	65.3
784.449	65.56
784.762	65.8
785.075	65.64
785.388	65.93
785.701	65.49
786.014	65.15
786.327	64.56
786.64	64.03
786.953	64.5
787.266	64.87
787.578	64.99
787.891	64.99
788.204	65.26
788.516	64.93
788.829	64.58
789.141	64.63
789.454	64.82
789.766	65.15
790.079	65.82
790.391	65.43
790.703	65.4
791.016	65.43
791.328	65
791.64	64.82
791.952	65.09
792.264	64.88
792.576	64.7
792.888	64.55
793.2	65.3
793.512	64.91
793.824	64.17
794.136	63.68
794.448	64.21
794.76	64.13
795.071	64.31
795.383	65.08
795.695	65.7
796.006	65.36
796.318	64.91
796.629	64.73
796.941	65.19
797.252	65.99
797.564	65.92
797.875	65.84
798.186	66.14
798.497	65.65
798.809	66.13
799.12	66.32
799.431	66.59
799.742	65.63
800.053	65.32
800.364	65.68
800.675	66.23
800.986	66.1
801.297	66.04
801.608	65.94
801.918	65.95
802.229	65.23
802.54	65.67
802.851	66.03
803.161	65.28
803.472	65.33
803.782	64.36
804.093	63.89
804.403	64.19
804.714	64.21
805.024	64.51
805.334	64.47
805.645	64.95
805.955	64.93
806.265	65.56
806.575	66.06
806.885	66.23
807.195	66.71
807.505	65.94
807.815	66.2
808.125	66.14
808.435	66.1
808.745	66.78
809.055	66.76
809.365	66.53
809.674	66.5
809.984	66
810.294	67.15
810.603	68.01
810.913	67.58
811.222	66.96
811.532	67.07
811.841	66.97
812.151	66.06
812.46	65.87
812.769	65.98
813.079	65.39
813.388	65.16
813.697	63.45
814.006	64.21
814.315	63.93
814.624	64.24
814.933	63.64
815.242	63.33
815.551	63.44
815.86	63.48
816.169	64.01
816.478	64.16
816.786	63.34
817.095	62.52
817.404	62.83
817.712	63.08
818.021	63.03
818.33	63.63
818.638	64.16
818.947	64.82
819.255	64.61
819.563	64.99
819.872	65.75
820.18	66.22
820.488	66.02
820.796	65.97
821.105	66.17
821.413	66.45
821.721	66.22
822.029	66.08
822.337	65.93
822.645	66.16
822.953	66.26
823.26	66.17
823.568	66.13
823.876	65.88
824.184	65.96
824.491	65.88
824.799	65.75
825.107	65.62
825.414	65.52
825.722	65.48
826.029	65.44
826.337	65.14
826.644	64.99
826.951	64.96
827.259	65.27
827.566	65.17
827.873	64.71
828.18	64.93
828.488	64.68
828.795	64.88
829.102	64.34
829.409	64.22
829.716	64.19
830.023	64.32
830.329	65.04
830.636	64.53
830.943	64.33
831.25	64.58
831.557	64.8
831.863	64.69
832.17	64.77
832.476	64.41
832.783	64.93
833.089	65.25
833.396	65.24
833.702	64.51
834.009	64.44
834.315	64.64
834.621	64.46
834.928	64.68
835.234	64.1
835.54	64.41
835.846	65.04
836.152	65.18
836.458	65.11
836.764	64.46
837.07	64.96
837.376	65.12
837.682	64.67
837.988	64.27
838.293	64.04
838.599	63.96
838.905	64.82
839.211	64.53
839.516	64.01
839.822	64.41
840.127	63.9
840.433	64.61
840.738	64.86
841.044	64.6
841.349	65.06
841.654	64.79
841.959	65.38
842.265	64.72
842.57	64.48
842.875	64.7
843.18	64.81
843.485	66.07
843.79	65.74
844.095	65.93
844.4	66.38
844.705	67.63
845.01	67.05
845.315	66.2
845.619	64.24
845.924	64.36
846.229	63.83
846.533	64.24
846.838	63.29
847.142	62.17
847.447	62.59
847.751	61.1
848.056	62.07
848.36	61.48
848.664	59.84
848.969	59.54
849.273	58.33
849.577	57.91
849.881	54.93
850.185	56.86
850.489	56.83
850.794	57.36
851.097	57.87
851.401	60.36
851.705	60.61
852.009	62.69
852.313	64.68
852.617	64.56
852.92	66.05
853.224	64.83
853.528	64.45
853.831	64.38
854.135	65.7
854.438	66.14
854.742	66.17
855.045	66.92
855.349	65.97
855.652	66.56
855.955	67.16
856.259	67.95
856.562	66.92
856.865	67.2
857.168	65.22
857.471	65.15
857.774	63.36
858.077	61.03
858.38	59.36
858.683	58.66
858.986	60.1
859.289	59.56
859.592	60.92
859.894	62.42
860.197	64.57
860.5	64.69
860.802	64.19
861.105	63.4
861.407	63.77
861.71	66.26
862.012	65.81
862.315	66.74
862.617	65.98
862.919	67.1
863.222	67.04
863.524	69.69
863.826	71.13
864.128	71.62
864.43	75.52
864.732	77.33
865.034	73.85
865.336	71.46
865.638	71.45
865.94	70.02
866.242	71.23
866.544	67.75
866.846	69.7
867.147	70.8
867.449	73.25
867.751	69.38
868.052	68.4
868.354	69.36
868.655	71.12
868.957	71.39
869.258	67.6
869.56	69.64
869.861	67.8
870.162	66.18
870.463	66.77
870.765	63.91
871.066	64.97
871.367	66.23
871.668	64.09
871.969	63.84
872.27	66.11
872.571	67.61
872.872	69.16
873.173	66.54
873.473	65.38
873.774	64.85
874.075	68.76
874.376	67.44
874.676	69.2
874.977	65.57
875.277	65.79
875.578	70.47
875.878	68.71
876.179	70.39
876.479	69.81
876.78	68.31
877.08	70.22
877.38	69.15
877.68	71.68
877.981	76.29
878.281	76.74
878.581	74.25
