Data from BU26843_Reflection_00005.txt Node
Date: Mon Nov 18 16:31:01 EST 2019
User: vgr7
Spectrometer: USB2G7710
Scans to average: 3
Trigger mode: 4
Integration Time (sec): 2.000000E-2
Electric dark correction enabled: true
Boxcar width: 10
XAxis mode: Wavelengths
Number of Pixels in Spectrum: 2048
>>>>>Begin Spectral Data<<<<<
177.721	133.26
178.105	626.32
178.488	-328.57
178.871	-72.57
179.254	12.91
179.636	-134.38
180.019	-24.04
180.402	68.97
180.785	15.05
181.168	57.55
181.55	248.51
181.933	124.72
182.316	155.24
182.698	214.5
183.081	259.42
183.463	802.97
183.846	1621.74
184.228	1061.17
184.611	924
184.993	-968.97
185.376	-483.89
185.758	-393.56
186.14	-330.71
186.522	-369.96
186.904	-201.66
187.287	-540.55
187.669	-204.17
188.051	-274.7
188.433	-141.68
188.815	-116.65
189.197	-140.45
189.579	-101.83
189.961	-115.49
190.342	-95.71
190.724	-78.36
191.106	-85.73
191.488	-87.36
191.869	-65.81
192.251	-66.05
192.633	-71.37
193.014	-84.48
193.396	-114.86
193.777	-104.32
194.159	-122.32
194.54	-100.96
194.922	-192.83
195.303	-152.05
195.684	-148.15
196.065	-130.77
196.447	-162.32
196.828	-169.65
197.209	-153.51
197.59	-187.33
197.971	-164.92
198.352	-160.65
198.733	-216.26
199.114	-209.43
199.495	-179.1
199.876	-234.28
200.257	-220.46
200.638	-180.5
201.018	-181.93
201.399	-166.59
201.78	-146.23
202.16	-178.77
202.541	-257.88
202.922	-187.83
203.302	-270.99
203.683	-296.91
204.063	-328.57
204.444	-291.42
204.824	-305.86
205.204	-307.3
205.585	-351.46
205.965	-556.47
206.345	-806.54
206.725	-869.23
207.106	-1166.16
207.486	-959
207.866	-682.71
208.246	-524.33
208.626	-440.03
209.006	-334.73
209.386	-371.52
209.766	-419.89
210.145	-339.05
210.525	-286.72
210.905	-253.54
211.285	-202.93
211.664	-178.95
212.044	-175.64
212.424	-157.11
212.803	-147.26
213.183	-128.05
213.562	-113.56
213.942	-101.25
214.321	-91.46
214.701	-80.26
215.08	-77.74
215.459	-68.3
215.838	-76.87
216.218	-83.88
216.597	-74.23
216.976	-88.62
217.355	-88.76
217.734	-80.79
218.113	-72.1
218.492	-76.76
218.871	-75.21
219.25	-74.51
219.629	-84.74
220.008	-90.31
220.387	-99.59
220.766	-96.71
221.144	-124.56
221.523	-127.77
221.902	-136.99
222.28	-140.56
222.659	-117.93
223.037	-99.37
223.416	-102.38
223.794	-95.53
224.173	-101.55
224.551	-88.99
224.929	-90.65
225.308	-70.66
225.686	-61.67
226.064	-61.44
226.442	-55.52
226.821	-48.54
227.199	-44.22
227.577	-43.03
227.955	-38.53
228.333	-35.91
228.711	-31.21
229.089	-24.9
229.467	-25.74
229.845	-24.2
230.222	-21.88
230.6	-24.69
230.978	-23.23
231.356	-20.17
231.733	-17.5
232.111	-15.02
232.488	-14.85
232.866	-11.86
233.243	-12.47
233.621	-14.66
233.998	-12.28
234.376	-12.37
234.753	-13.47
235.13	-13.02
235.508	-11.28
235.885	-10.85
236.262	-10.58
236.639	-10.98
237.016	-10.91
237.393	-7.94
237.77	-6.62
238.147	-5.81
238.524	-5.18
238.901	-4.19
239.278	-3.63
239.655	-2.69
240.032	-2.36
240.409	-2.18
240.785	-2.33
241.162	-1.91
241.539	-0.73
241.915	-0.43
242.292	0.19
242.668	0.62
243.045	0.86
243.421	0.9
243.798	1.12
244.174	1.18
244.551	1.2
244.927	1.54
245.303	1.65
245.679	1.81
246.056	1.84
246.432	1.76
246.808	1.85
247.184	1.63
247.56	1.46
247.936	1.32
248.312	1.49
248.688	1.76
249.064	1.73
249.44	1.68
249.815	1.55
250.191	1.5
250.567	1.55
250.943	1.52
251.318	1.77
251.694	1.67
252.069	1.4
252.445	1.48
252.82	1.1
253.196	0.57
253.571	0.48
253.947	0.6
254.322	1.33
254.697	0.95
255.073	0.92
255.448	1.09
255.823	1.29
256.198	1.43
256.573	1.64
256.948	1.99
257.323	2.28
257.698	2.4
258.073	2.5
258.448	2.42
258.823	2.36
259.198	2.34
259.573	2.34
259.948	2.55
260.322	2.69
260.697	2.89
261.072	2.82
261.446	2.82
261.821	2.62
262.195	2.5
262.57	2.58
262.944	2.52
263.319	2.5
263.693	2.62
264.067	2.58
264.442	2.42
264.816	2.05
265.19	1.85
265.564	1.8
265.938	1.69
266.313	1.59
266.687	1.54
267.061	1.67
267.435	1.88
267.809	1.91
268.183	1.87
268.556	1.86
268.93	2.17
269.304	2.29
269.678	2.49
270.051	2.3
270.425	2.27
270.799	2.52
271.172	2.46
271.546	2.38
271.919	2.28
272.293	2.35
272.666	2.45
273.04	2.51
273.413	2.49
273.787	2.59
274.16	2.57
274.533	2.83
274.906	2.69
275.279	2.54
275.653	2.51
276.026	2.48
276.399	2.39
276.772	2.35
277.145	2.11
277.518	1.87
277.891	1.99
278.263	1.99
278.636	1.88
279.009	2.04
279.382	1.93
279.755	1.91
280.127	1.95
280.5	2.14
280.872	2.08
281.245	2.08
281.617	1.96
281.99	2.03
282.362	1.94
282.735	1.92
283.107	2.02
283.479	2.1
283.852	2.07
284.224	2.14
284.596	2.12
284.968	2.25
285.34	2.46
285.713	2.5
286.085	2.51
286.457	2.5
286.829	2.63
287.201	2.78
287.572	2.8
287.944	2.79
288.316	2.73
288.688	2.72
289.06	2.73
289.431	2.74
289.803	2.8
290.175	2.79
290.546	2.94
290.918	2.9
291.289	2.99
291.661	3.07
292.032	3.16
292.403	3.23
292.775	3.33
293.146	3.15
293.517	3.14
293.889	3.19
294.26	3.2
294.631	3.09
295.002	2.96
295.373	2.97
295.744	2.95
296.115	2.93
296.486	2.83
296.857	2.84
297.228	2.89
297.599	2.76
297.97	2.72
298.34	2.69
298.711	2.71
299.082	2.64
299.452	2.5
299.823	2.53
300.194	2.49
300.564	2.36
300.935	2.48
301.305	2.39
301.676	2.4
302.046	2.47
302.416	2.42
302.787	2.49
303.157	2.61
303.527	2.54
303.897	2.56
304.267	2.67
304.637	2.63
305.008	2.62
305.378	2.81
305.748	2.93
306.117	2.8
306.487	2.85
306.857	2.87
307.227	2.94
307.597	2.76
307.967	2.63
308.336	2.71
308.706	2.71
309.076	2.82
309.445	2.73
309.815	2.61
310.184	2.6
310.554	2.49
310.923	2.28
311.293	2.33
311.662	2.36
312.031	2.33
312.401	2.29
312.77	2.37
313.139	2.27
313.508	2.13
313.877	2.06
314.246	2.03
314.616	1.86
314.985	1.8
315.353	1.69
315.722	1.8
316.091	1.52
316.46	1.5
316.829	1.38
317.198	1.35
317.567	1.49
317.935	1.46
318.304	1.49
318.672	1.43
319.041	1.52
319.41	1.43
319.778	1.37
320.147	1.48
320.515	1.36
320.883	1.31
321.252	1.44
321.62	1.47
321.988	1.55
322.357	1.71
322.725	1.66
323.093	1.9
323.461	1.96
323.829	2.11
324.197	2.16
324.565	2.08
324.933	1.98
325.301	1.98
325.669	2.08
326.037	2.04
326.405	2.16
326.772	2.24
327.14	2.37
327.508	2.43
327.875	2.39
328.243	2.32
328.61	2.4
328.978	2.53
329.346	2.74
329.713	2.62
330.08	2.66
330.448	2.79
330.815	2.64
331.182	2.52
331.55	2.48
331.917	2.38
332.284	2.57
332.651	2.58
333.018	2.52
333.385	2.38
333.752	2.41
334.119	2.53
334.486	2.25
334.853	2.15
335.22	2.14
335.587	2.2
335.954	2.27
336.32	2.24
336.687	2.2
337.054	1.95
337.42	2
337.787	1.93
338.153	1.92
338.52	2.05
338.886	2.02
339.253	2.09
339.619	2.17
339.986	2.14
340.352	2.28
340.718	2.2
341.084	2.31
341.451	2.45
341.817	2.41
342.183	2.45
342.549	2.53
342.915	2.54
343.281	2.57
343.647	2.55
344.013	2.63
344.379	2.55
344.745	2.63
345.11	2.59
345.476	2.63
345.842	2.65
346.208	2.63
346.573	2.68
346.939	2.75
347.304	2.76
347.67	2.69
348.035	2.63
348.401	2.83
348.766	2.73
349.132	2.69
349.497	2.55
349.862	2.71
350.228	2.68
350.593	2.63
350.958	2.57
351.323	2.62
351.688	2.56
352.053	2.66
352.418	2.76
352.783	2.81
353.148	2.78
353.513	2.83
353.878	2.84
354.243	2.96
354.608	2.98
354.972	3
355.337	3.08
355.702	3.16
356.066	3.15
356.431	3.17
356.795	3.22
357.16	3.32
357.524	3.23
357.889	3.16
358.253	3.2
358.618	3.26
358.982	3.19
359.346	3.15
359.71	3.06
360.075	3.04
360.439	3
360.803	3.05
361.167	3.01
361.531	3.01
361.895	2.95
362.259	2.83
362.623	2.82
362.987	2.82
363.351	2.78
363.714	2.76
364.078	2.79
364.442	2.71
364.806	2.71
365.169	2.64
365.533	2.66
365.896	2.64
366.26	2.54
366.623	2.56
366.987	2.53
367.35	2.6
367.714	2.55
368.077	2.59
368.44	2.55
368.803	2.49
369.167	2.41
369.53	2.33
369.893	2.41
370.256	2.38
370.619	2.38
370.982	2.36
371.345	2.33
371.708	2.29
372.071	2.27
372.434	2.25
372.797	2.31
373.159	2.35
373.522	2.42
373.885	2.5
374.247	2.55
374.61	2.65
374.973	2.61
375.335	2.6
375.698	2.63
376.06	2.61
376.423	2.64
376.785	2.71
377.147	2.79
377.51	2.79
377.872	2.82
378.234	2.78
378.596	2.86
378.958	2.83
379.321	2.85
379.683	2.92
380.045	2.97
380.407	2.98
380.769	3
381.13	3
381.492	3.01
381.854	2.95
382.216	2.92
382.578	2.96
382.939	2.97
383.301	2.96
383.663	2.99
384.024	2.98
384.386	2.98
384.747	2.96
385.109	3.01
385.47	2.98
385.832	3.01
386.193	3.03
386.554	3.05
386.916	3.04
387.277	3.03
387.638	3.02
387.999	2.98
388.36	2.94
388.721	2.92
389.082	2.87
389.443	2.9
389.804	2.9
390.165	2.9
390.526	2.94
390.887	2.91
391.248	2.94
391.609	2.96
391.969	2.98
392.33	3
392.691	2.97
393.051	2.97
393.412	2.96
393.772	2.88
394.133	2.89
394.493	2.88
394.854	2.86
395.214	2.87
395.574	2.89
395.935	2.9
396.295	2.92
396.655	2.94
397.015	2.92
397.376	2.93
397.736	2.89
398.096	2.89
398.456	2.89
398.816	2.89
399.176	2.87
399.535	2.8
399.895	2.78
400.255	2.77
400.615	2.78
400.975	2.77
401.334	2.82
401.694	2.8
402.054	2.79
402.413	2.82
402.773	2.78
403.132	2.77
403.492	2.78
403.851	2.77
404.211	2.77
404.57	2.77
404.929	2.76
405.288	2.77
405.648	2.76
406.007	2.75
406.366	2.73
406.725	2.79
407.084	2.82
407.443	2.82
407.802	2.85
408.161	2.84
408.52	2.83
408.879	2.81
409.238	2.83
409.596	2.86
409.955	2.82
410.314	2.86
410.673	2.84
411.031	2.81
411.39	2.81
411.748	2.81
412.107	2.85
412.465	2.86
412.824	2.88
413.182	2.86
413.54	2.88
413.899	2.89
414.257	2.85
414.615	2.88
414.974	2.9
415.332	2.91
415.69	2.92
416.048	2.93
416.406	2.93
416.764	2.91
417.122	2.94
417.48	2.97
417.838	2.97
418.195	3
418.553	3.01
418.911	3.01
419.269	3.03
419.626	3.03
419.984	3.03
420.342	3.05
420.699	3.04
421.057	3.04
421.414	3.04
421.772	3.04
422.129	3.04
422.486	3.05
422.844	3.04
423.201	3.02
423.558	3.02
423.915	3.02
424.273	3.04
424.63	3.01
424.987	3.01
425.344	3.01
425.701	3.02
426.058	3.01
426.415	3.01
426.772	3
427.128	2.99
427.485	2.99
427.842	2.99
428.199	2.99
428.555	2.99
428.912	3.01
429.269	3.02
429.625	3
429.982	2.98
430.338	2.97
430.695	2.99
431.051	3.01
431.407	3.01
431.764	3
432.12	2.99
432.476	2.99
432.832	2.98
433.189	2.98
433.545	2.98
433.901	2.99
434.257	2.98
434.613	2.99
434.969	2.97
435.325	2.98
435.681	3
436.036	2.99
436.392	2.98
436.748	2.99
437.104	2.99
437.459	3
437.815	3.01
438.171	3
438.526	2.99
438.882	2.99
439.237	2.99
439.593	3.02
439.948	3.03
440.304	3.04
440.659	3.04
441.014	3.06
441.369	3.06
441.725	3.06
442.08	3.07
442.435	3.06
442.79	3.06
443.145	3.06
443.5	3.08
443.855	3.07
444.21	3.04
444.565	3.06
444.92	3.06
445.275	3.05
445.629	3.05
445.984	3.06
446.339	3.06
446.693	3.06
447.048	3.06
447.403	3.05
447.757	3.02
448.112	3.02
448.466	2.98
448.82	2.97
449.175	2.98
449.529	2.97
449.883	2.98
450.238	2.96
450.592	2.95
450.946	2.94
451.3	2.94
451.654	2.95
452.008	2.95
452.362	2.93
452.716	2.94
453.07	2.94
453.424	2.94
453.778	2.96
454.132	2.95
454.486	2.96
454.839	2.96
455.193	2.98
455.547	2.98
455.9	3.01
456.254	3.03
456.607	3.03
456.961	3.03
457.314	3.03
457.668	3.03
458.021	3.02
458.375	3.03
458.728	3.02
459.081	3.02
459.434	3.01
459.787	3.03
460.141	3.02
460.494	3.02
460.847	3.03
461.2	3.01
461.553	3.03
461.906	3.03
462.259	3.03
462.611	3.05
462.964	3.07
463.317	3.05
463.67	3.04
464.022	3.05
464.375	3.02
464.728	3.04
465.08	3.06
465.433	3.05
465.785	3.07
466.138	3.08
466.49	3.09
466.843	3.08
467.195	3.09
467.547	3.09
467.899	3.08
468.252	3.07
468.604	3.08
468.956	3.07
469.308	3.08
469.66	3.06
470.012	3.05
470.364	3.04
470.716	3.06
471.068	3.08
471.42	3.06
471.772	3.11
472.123	3.1
472.475	3.1
472.827	3.12
473.178	3.11
473.53	3.08
473.882	3.1
474.233	3.12
474.585	3.1
474.936	3.11
475.288	3.13
475.639	3.13
475.99	3.13
476.342	3.14
476.693	3.12
477.044	3.13
477.395	3.12
477.746	3.12
478.097	3.09
478.448	3.09
478.8	3.11
479.15	3.09
479.501	3.09
479.852	3.07
480.203	3.08
480.554	3.1
480.905	3.12
481.255	3.12
481.606	3.13
481.957	3.15
482.307	3.16
482.658	3.16
483.009	3.17
483.359	3.18
483.709	3.19
484.06	3.19
484.41	3.2
484.761	3.2
485.111	3.22
485.461	3.24
485.811	3.24
486.162	3.23
486.512	3.24
486.862	3.24
487.212	3.25
487.562	3.25
487.912	3.25
488.262	3.24
488.612	3.24
488.961	3.24
489.311	3.24
489.661	3.23
490.011	3.22
490.36	3.22
490.71	3.22
491.06	3.22
491.409	3.22
491.759	3.21
492.108	3.21
492.458	3.19
492.807	3.19
493.157	3.19
493.506	3.2
493.855	3.19
494.204	3.19
494.554	3.2
494.903	3.2
495.252	3.2
495.601	3.22
495.95	3.23
496.299	3.23
496.648	3.24
496.997	3.25
497.346	3.28
497.695	3.28
498.043	3.26
498.392	3.25
498.741	3.25
499.09	3.26
499.438	3.26
499.787	3.27
500.135	3.28
500.484	3.26
500.832	3.27
501.181	3.26
501.529	3.26
501.878	3.26
502.226	3.25
502.574	3.26
502.923	3.26
503.271	3.25
503.619	3.25
503.967	3.23
504.315	3.23
504.663	3.23
505.011	3.22
505.359	3.21
505.707	3.23
506.055	3.23
506.403	3.24
506.751	3.23
507.098	3.25
507.446	3.25
507.794	3.24
508.141	3.24
508.489	3.26
508.837	3.26
509.184	3.28
509.531	3.3
509.879	3.31
510.226	3.32
510.574	3.32
510.921	3.33
511.268	3.35
511.616	3.35
511.963	3.36
512.31	3.38
512.657	3.41
513.004	3.42
513.351	3.43
513.698	3.43
514.045	3.45
514.392	3.44
514.739	3.44
515.086	3.46
515.432	3.47
515.779	3.46
516.126	3.49
516.473	3.47
516.819	3.48
517.166	3.48
517.512	3.48
517.859	3.47
518.205	3.44
518.552	3.45
518.898	3.45
519.245	3.44
519.591	3.42
519.937	3.4
520.283	3.41
520.629	3.41
520.976	3.42
521.322	3.44
521.668	3.42
522.014	3.42
522.36	3.42
522.706	3.42
523.052	3.42
523.398	3.42
523.743	3.44
524.089	3.43
524.435	3.43
524.781	3.46
525.126	3.49
525.472	3.53
525.817	3.54
526.163	3.55
526.509	3.56
526.854	3.58
527.199	3.59
527.545	3.58
527.89	3.59
528.235	3.59
528.581	3.57
528.926	3.58
529.271	3.58
529.616	3.59
529.961	3.6
530.306	3.61
530.651	3.6
530.996	3.6
531.341	3.61
531.686	3.61
532.031	3.6
532.376	3.58
532.721	3.57
533.065	3.58
533.41	3.56
533.755	3.55
534.099	3.55
534.444	3.56
534.788	3.56
535.133	3.56
535.477	3.57
535.822	3.58
536.166	3.6
536.51	3.61
536.855	3.61
537.199	3.6
537.543	3.62
537.887	3.63
538.231	3.61
538.576	3.62
538.92	3.63
539.264	3.63
539.608	3.62
539.951	3.64
540.295	3.62
540.639	3.63
540.983	3.65
541.327	3.66
541.671	3.65
542.014	3.65
542.358	3.63
542.701	3.63
543.045	3.62
543.389	3.63
543.732	3.63
544.075	3.63
544.419	3.63
544.762	3.62
545.105	3.63
545.449	3.66
545.792	3.65
546.135	3.65
546.478	3.65
546.821	3.67
547.165	3.66
547.508	3.65
547.851	3.66
548.194	3.62
548.536	3.6
548.879	3.61
549.222	3.59
549.565	3.61
549.908	3.6
550.25	3.6
550.593	3.58
550.936	3.58
551.278	3.59
551.621	3.57
551.963	3.57
552.306	3.58
552.648	3.55
552.991	3.58
553.333	3.57
553.675	3.57
554.017	3.57
554.36	3.57
554.702	3.6
555.044	3.6
555.386	3.62
555.728	3.63
556.07	3.64
556.412	3.63
556.754	3.63
557.096	3.66
557.438	3.66
557.78	3.67
558.121	3.68
558.463	3.68
558.805	3.68
559.147	3.65
559.488	3.62
559.83	3.61
560.171	3.59
560.513	3.61
560.854	3.63
561.196	3.62
561.537	3.63
561.878	3.59
562.22	3.59
562.561	3.59
562.902	3.59
563.243	3.57
563.584	3.59
563.925	3.58
564.266	3.55
564.607	3.56
564.948	3.58
565.289	3.57
565.63	3.57
565.971	3.57
566.312	3.57
566.653	3.61
566.993	3.61
567.334	3.6
567.675	3.61
568.015	3.6
568.356	3.63
568.696	3.63
569.037	3.66
569.377	3.7
569.718	3.69
570.058	3.71
570.398	3.71
570.739	3.69
571.079	3.72
571.419	3.73
571.759	3.74
572.099	3.74
572.439	3.7
572.779	3.72
573.119	3.72
573.459	3.76
573.799	3.77
574.139	3.77
574.479	3.78
574.819	3.76
575.158	3.74
575.498	3.72
575.838	3.71
576.177	3.7
576.517	3.66
576.856	3.66
577.196	3.67
577.535	3.69
577.875	3.69
578.214	3.63
578.553	3.63
578.893	3.6
579.232	3.61
579.571	3.64
579.91	3.63
580.25	3.65
580.589	3.65
580.928	3.61
581.267	3.6
581.606	3.62
581.945	3.62
582.283	3.62
582.622	3.57
582.961	3.58
583.3	3.62
583.639	3.63
583.977	3.66
584.316	3.65
584.654	3.63
584.993	3.66
585.332	3.7
585.67	3.69
586.008	3.71
586.347	3.67
586.685	3.67
587.024	3.67
587.362	3.66
587.7	3.65
588.038	3.67
588.376	3.69
588.715	3.71
589.053	3.71
589.391	3.72
589.729	3.8
590.067	3.78
590.404	3.73
590.742	3.72
591.08	3.73
591.418	3.68
591.756	3.65
592.093	3.63
592.431	3.62
592.769	3.62
593.106	3.65
593.444	3.68
593.781	3.66
594.119	3.68
594.456	3.65
594.793	3.67
595.131	3.68
595.468	3.69
595.805	3.67
596.143	3.66
596.48	3.63
596.817	3.61
597.154	3.64
597.491	3.66
597.828	3.63
598.165	3.63
598.502	3.67
598.839	3.7
599.176	3.72
599.512	3.75
599.849	3.78
600.186	3.79
600.523	3.8
600.859	3.82
601.196	3.81
601.532	3.85
601.869	3.83
602.205	3.8
602.542	3.8
602.878	3.81
603.215	3.8
603.551	3.82
603.887	3.83
604.223	3.83
604.56	3.86
604.896	3.87
605.232	3.88
605.568	3.89
605.904	3.89
606.24	3.89
606.576	3.88
606.912	3.85
607.248	3.82
607.583	3.79
607.919	3.76
608.255	3.72
608.591	3.73
608.926	3.76
609.262	3.81
609.597	3.8
609.933	3.81
610.268	3.82
610.604	3.81
610.939	3.78
611.275	3.75
611.61	3.74
611.945	3.78
612.281	3.74
612.616	3.72
612.951	3.72
613.286	3.75
613.621	3.74
613.956	3.71
614.291	3.7
614.626	3.72
614.961	3.72
615.296	3.74
615.631	3.7
615.966	3.68
616.3	3.66
616.635	3.66
616.97	3.65
617.304	3.65
617.639	3.66
617.973	3.68
618.308	3.69
618.642	3.69
618.977	3.62
619.311	3.63
619.646	3.66
619.98	3.67
620.314	3.66
620.648	3.69
620.983	3.73
621.317	3.78
621.651	3.79
621.985	3.84
622.319	3.83
622.653	3.86
622.987	3.88
623.321	3.87
623.655	3.89
623.988	3.92
624.322	3.92
624.656	3.97
624.99	3.98
625.323	3.98
625.657	4
625.99	4.04
626.324	4.07
626.657	4.05
626.991	4.04
627.324	4.05
627.658	4.06
627.991	4.08
628.324	4.02
628.657	4.02
628.991	3.97
629.324	4
629.657	3.98
629.99	4
630.323	4.01
630.656	3.99
630.989	3.99
631.322	4.01
631.655	3.96
631.987	3.93
632.32	3.95
632.653	3.93
632.986	3.97
633.318	3.94
633.651	3.96
633.984	3.93
634.316	3.9
634.649	3.88
634.981	3.93
635.313	3.95
635.646	3.99
635.978	4.04
636.31	4.04
636.643	4.02
636.975	3.96
637.307	3.96
637.639	3.91
637.971	3.87
638.303	3.86
638.635	3.83
638.967	3.88
639.299	3.85
639.631	3.85
639.963	3.78
640.295	3.81
640.626	3.82
640.958	3.88
641.29	3.88
641.621	3.86
641.953	3.82
642.285	3.89
642.616	3.91
642.948	3.87
643.279	3.79
643.61	3.78
643.942	3.79
644.273	3.8
644.604	3.88
644.936	3.84
645.267	3.86
645.598	3.97
645.929	3.95
646.26	3.98
646.591	3.99
646.922	3.96
647.253	3.95
647.584	3.91
647.915	3.81
648.245	3.82
648.576	3.81
648.907	3.82
649.238	3.72
649.568	3.72
649.899	3.71
650.229	3.78
650.56	3.83
650.89	3.86
651.221	3.86
651.551	3.82
651.882	3.88
652.212	3.84
652.542	3.71
652.872	3.64
653.203	3.66
653.533	3.68
653.863	3.62
654.193	3.58
654.523	3.56
654.853	3.65
655.183	3.63
655.513	3.62
655.843	3.6
656.172	3.63
656.502	3.57
656.832	3.61
657.162	3.6
657.491	3.6
657.821	3.56
658.15	3.52
658.48	3.53
658.809	3.51
659.139	3.52
659.468	3.53
659.798	3.57
660.127	3.56
660.456	3.55
660.785	3.63
661.115	3.68
661.444	3.73
661.773	3.71
662.102	3.71
662.431	3.79
662.76	3.78
663.089	3.8
663.418	3.8
663.747	3.78
664.076	3.81
664.404	3.83
664.733	3.85
665.062	3.88
665.39	3.9
665.719	3.91
666.048	3.96
666.376	4
666.705	3.97
667.033	3.95
667.362	3.95
667.69	3.95
668.018	3.96
668.347	3.93
668.675	3.98
669.003	3.98
669.331	3.97
669.659	3.98
669.987	3.97
670.315	4
670.643	3.98
670.971	3.93
671.299	3.87
671.627	3.9
671.955	3.8
672.283	3.72
672.61	3.78
672.938	3.82
673.266	3.85
673.593	3.94
673.921	3.96
674.249	3.99
674.576	3.94
674.904	3.92
675.231	3.84
675.558	3.77
675.886	3.82
676.213	3.84
676.54	3.92
676.867	4
677.195	4.01
677.522	4.04
677.849	4.07
678.176	4.18
678.503	4.14
678.83	4.24
679.157	4.26
679.484	4.17
679.81	4.1
680.137	4.11
680.464	4.08
680.791	3.99
681.117	3.96
681.444	4.1
681.771	4.08
682.097	4.13
682.424	4.13
682.75	4.05
683.077	3.96
683.403	3.92
683.729	3.86
684.056	3.86
684.382	3.88
684.708	3.88
685.034	3.8
685.36	3.85
685.686	3.76
686.012	3.74
686.339	3.83
686.664	3.86
686.99	3.86
687.316	3.86
687.642	3.98
687.968	4.03
688.294	3.96
688.619	3.91
688.945	3.87
689.271	3.87
689.596	3.94
689.922	4.01
690.247	3.98
690.573	3.91
690.898	3.9
691.224	3.91
691.549	3.86
691.874	3.87
692.2	3.89
692.525	4
692.85	4.12
693.175	4.14
693.5	4.11
693.825	4.08
694.15	4.1
694.475	4
694.8	3.94
695.125	3.89
695.45	3.96
695.775	4.04
696.099	4.04
696.424	3.97
696.749	3.93
697.073	3.94
697.398	4.06
697.723	4.08
698.047	4.04
698.372	4.07
698.696	4.07
699.02	4.03
699.345	4.01
699.669	4.01
699.993	3.96
700.318	4.02
700.642	4.06
700.966	4.03
701.29	4.11
701.614	4.19
701.938	4.22
702.262	4.23
702.586	4.3
702.91	4.28
703.234	4.44
703.557	4.53
703.881	4.5
704.205	4.37
704.529	4.28
704.852	4.43
705.176	4.43
705.499	4.39
705.823	4.41
706.146	4.39
706.47	4.38
706.793	4.43
707.117	4.47
707.44	4.37
707.763	4.33
708.086	4.16
708.409	4.14
708.733	4.11
709.056	4.12
709.379	4.1
709.702	4.17
710.025	4.19
710.348	4.22
710.671	4.26
710.993	4.55
711.316	4.62
711.639	4.54
711.962	4.48
712.284	4.56
712.607	4.64
712.93	4.71
713.252	4.58
713.575	4.65
713.897	4.66
714.22	4.72
714.542	4.8
714.864	4.93
715.187	4.94
715.509	4.92
715.831	4.97
716.153	5.02
716.475	5.02
716.798	5
717.12	4.85
717.442	4.81
717.764	4.55
718.085	4.46
718.407	4.47
718.729	4.49
719.051	4.36
719.373	4.19
719.695	4.2
720.016	4.31
720.338	4.26
720.659	4.19
720.981	4.27
721.302	4.1
721.624	4.08
721.945	3.99
722.267	4.11
722.588	3.97
722.909	4
723.231	4.04
723.552	3.87
723.873	4.06
724.194	4.25
724.515	4.35
724.836	4.48
725.157	4.53
725.478	4.45
725.799	4.45
726.12	4.47
726.441	4.39
726.762	4.45
727.083	4.47
727.403	4.37
727.724	4.28
728.045	4.45
728.365	4.39
728.686	4.58
729.006	4.52
729.327	4.7
729.647	4.47
729.967	4.44
730.288	4.56
730.608	4.36
730.928	4.21
731.249	4.13
731.569	4.24
731.889	4.27
732.209	4.3
732.529	4.44
732.849	4.43
733.169	4.37
733.489	4.3
733.809	4.34
734.129	4.29
734.448	4.4
734.768	4.45
735.088	4.54
735.408	4.35
735.727	4.36
736.047	4.19
736.366	4.37
736.686	4.35
737.005	4.3
737.325	4.34
737.644	4.36
737.963	4.48
738.283	4.19
738.602	4.1
738.921	4.22
739.24	4.19
739.56	4.16
739.879	4.17
740.198	4.08
740.517	3.86
740.836	3.97
741.155	3.85
741.473	3.86
741.792	3.66
742.111	3.8
742.43	3.72
742.748	3.79
743.067	3.73
743.386	3.63
743.704	3.67
744.023	3.77
744.341	3.81
744.66	3.86
744.978	4.03
745.297	4.15
745.615	3.93
745.933	4.03
746.252	4.06
746.57	4.26
746.888	4.25
747.206	4.29
747.524	4.36
747.842	4.39
748.16	4.41
748.478	4.73
748.796	4.84
749.114	5.17
749.432	4.99
749.749	5.16
750.067	5.34
750.385	5.32
750.703	5.39
751.02	5.41
751.338	5.18
751.655	5.14
751.973	5.01
752.29	5.1
752.608	4.93
752.925	4.9
753.242	4.73
753.56	4.73
753.877	4.85
754.194	4.77
754.511	4.91
754.828	4.71
755.145	4.58
755.462	4.43
755.779	4.07
756.096	4.23
756.413	4.1
756.73	4.2
757.047	4.29
757.364	4.37
757.68	3.98
757.997	4.08
758.314	4.09
758.63	4.03
758.947	4.06
759.264	4.12
759.58	4.49
759.896	4.8
760.213	4.97
760.529	5.14
760.846	5.16
761.162	5.05
761.478	5.06
761.794	5.06
762.11	4.85
762.426	4.91
762.743	4.88
763.059	5.1
763.375	4.98
763.69	4.97
764.006	4.96
764.322	5.29
764.638	5.35
764.954	5.47
765.27	5.59
765.585	5.69
765.901	5.73
766.216	5.43
766.532	5.22
766.848	5.1
767.163	5.02
767.478	5.11
767.794	5.1
768.109	5.18
768.424	5.14
768.74	5.36
769.055	5.4
769.37	5.55
769.685	5.11
770	5.36
770.315	5.52
770.63	5.47
770.945	5.3
771.26	5.3
771.575	4.84
771.89	5.06
772.205	4.98
772.52	4.65
772.834	4.82
773.149	4.97
773.464	5.1
773.778	4.82
774.093	4.46
774.407	4.5
774.722	4.52
775.036	4.95
775.351	4.91
775.665	4.6
775.979	4.44
776.293	4.51
776.608	4.1
776.922	4.17
777.236	4.02
777.55	3.84
777.864	3.93
778.178	4.45
778.492	4.3
778.806	4.11
779.12	4.74
779.434	4.67
779.747	4.51
780.061	4.48
780.375	4.98
780.689	5.21
781.002	5.09
781.316	4.83
781.629	4.55
781.943	4.86
782.256	4.94
782.57	5.02
782.883	4.93
783.196	4.87
783.51	4.13
783.823	4.12
784.136	4.19
784.449	4.02
784.762	3.55
785.075	2.85
785.388	3.25
785.701	2.79
786.014	2.8
786.327	2.39
786.64	2.74
786.953	2.62
787.266	2.57
787.578	2.6
787.891	2.83
788.204	2.32
788.516	2.22
788.829	2.82
789.141	2.89
789.454	3.32
789.766	3.79
790.079	3.96
790.391	3.83
790.703	3.76
791.016	4.02
791.328	4.44
791.64	5.13
791.952	4.85
792.264	4.66
792.576	4.49
792.888	4.87
793.2	4.74
793.512	4.44
793.824	4.35
794.136	4.41
794.448	4.22
794.76	4.73
795.071	4.85
795.383	4.38
795.695	4.08
796.006	3.76
796.318	3.18
796.629	3.75
796.941	3.87
797.252	4.49
797.564	4.27
797.875	3.89
798.186	3.59
798.497	3.57
798.809	3.7
799.12	3.64
799.431	3.6
799.742	3.66
800.053	3.94
800.364	4.21
800.675	4.07
800.986	4.18
801.297	4.02
801.608	3.94
801.918	4.08
802.229	4.5
802.54	4.79
802.851	5.58
803.161	5.5
803.472	4.98
803.782	4.16
804.093	4.06
804.403	4.06
804.714	4.08
805.024	3.97
805.334	3.84
805.645	4.45
805.955	4.36
806.265	4.39
806.575	4.54
806.885	4.41
807.195	4.66
807.505	4.71
807.815	5.25
808.125	5.13
808.435	4.51
808.745	4.55
809.055	4.13
809.365	3.45
809.674	3.25
809.984	3.87
810.294	4.05
810.603	4.47
810.913	5.02
811.222	4.93
811.532	4.91
811.841	5.74
812.151	6.16
812.46	6.27
812.769	6.06
813.079	5.28
813.388	5.33
813.697	5.34
814.006	5.37
814.315	4.94
814.624	4.96
814.933	5.88
815.242	5.3
815.551	5.44
815.86	5.63
816.169	5.14
816.478	5.52
816.786	5.29
817.095	4.58
817.404	4.4
817.712	4.71
818.021	4.93
818.33	4.94
818.638	4.52
818.947	5.19
819.255	5.43
819.563	5.96
819.872	6.05
820.18	6.32
820.488	6.36
820.796	6.17
821.105	6.15
821.413	6.24
821.721	6.45
822.029	6.6
822.337	6.66
822.645	6.84
822.953	6.7
823.26	6.87
823.568	6.91
823.876	6.94
824.184	6.99
824.491	7.11
824.799	7.15
825.107	7.13
825.414	7.07
825.722	7.09
826.029	7.04
826.337	7.11
826.644	7.04
826.951	7.13
827.259	7.36
827.566	7.35
827.873	7.3
828.18	7.25
828.488	7.04
828.795	7.14
829.102	7.11
829.409	7.33
829.716	7.09
830.023	7.45
830.329	7.21
830.636	7.23
830.943	7.24
831.25	7.09
831.557	7.22
831.863	7.19
832.17	7
832.476	7.19
832.783	7.33
833.089	7.19
833.396	6.8
833.702	6.97
834.009	7.41
834.315	7.4
834.621	7.47
834.928	7.54
835.234	7.34
835.54	7.48
835.846	7.34
836.152	7.26
836.458	6.74
836.764	7.07
837.07	6.82
837.376	6.17
837.682	6.28
837.988	6.17
838.293	5.99
838.599	6.44
838.905	6
839.211	5.75
839.516	6.1
839.822	6.4
840.127	5.7
840.433	5.09
840.738	4.84
841.044	4.24
841.349	4.36
841.654	4.6
841.959	4.09
842.265	3.91
842.57	4.72
842.875	3.93
843.18	3.19
843.485	2.74
843.79	4.07
844.095	3.19
844.4	3.63
844.705	3.22
845.01	3.33
845.315	4.09
845.619	2.32
845.924	1.74
846.229	2.24
846.533	1.81
846.838	2.21
847.142	1.78
847.447	1.53
847.751	2.49
848.056	0.45
848.36	1.18
848.664	1.23
848.969	1.26
849.273	2.59
849.577	2.99
849.881	2.86
850.185	2.4
850.489	1.64
850.794	1.18
851.097	2.56
851.401	1.81
851.705	-0.96
852.009	0.88
852.313	-0.56
852.617	-2.08
852.92	-0.46
853.224	-0.95
853.528	-0.52
853.831	1.14
854.135	-0.63
854.438	-1.05
854.742	-1.85
855.045	-1.82
855.349	-2.86
855.652	-3.38
855.955	-4.72
856.259	-3.49
856.562	-4.52
856.865	-4.7
857.168	-6.63
857.471	-7.15
857.774	-8.44
858.077	-7.39
858.38	-6.54
858.683	-5.8
858.986	-4.01
859.289	-3.06
859.592	-3.44
859.894	-4.74
860.197	-4.79
860.5	-4.71
860.802	-4.81
861.105	-4.05
861.407	-4.48
861.71	-3.63
862.012	-3.15
862.315	-2.58
862.617	-3.03
862.919	-2.22
863.222	-0.51
863.524	0.08
863.826	-0.8
864.128	0.97
864.43	1.5
864.732	0.01
865.034	0.78
865.336	-1.68
865.638	-4.85
865.94	-6.77
866.242	-6.98
866.544	-7.62
866.846	-7.14
867.147	-6.19
867.449	-7.59
867.751	-7.17
868.052	-6.09
868.354	-5.02
868.655	-2.87
868.957	-4.63
869.258	-4.11
869.56	-4.01
869.861	-3.79
870.162	-3.34
870.463	-2.77
870.765	-3.17
871.066	-2.86
871.367	-3.73
871.668	-2.22
871.969	-2.32
872.27	-0.63
872.571	0.78
872.872	0.83
873.173	-1.26
873.473	-0.08
873.774	1.19
874.075	0.08
874.376	-1.62
874.676	-2.41
874.977	-2.74
875.277	1.5
875.578	-0.99
875.878	-1.88
876.179	-1.66
876.479	-1.39
876.78	-4.25
877.08	-3.47
877.38	-3.67
877.68	-2.98
877.981	-3.35
878.281	-1.61
878.581	-1.9
