Data from BU26946_Reflection_00014.txt Node
Date: Tue Nov 19 10:52:17 EST 2019
User: vgr7
Spectrometer: USB2G7710
Scans to average: 3
Trigger mode: 4
Integration Time (sec): 2.000000E-2
Electric dark correction enabled: true
Boxcar width: 10
XAxis mode: Wavelengths
Number of Pixels in Spectrum: 2048
>>>>>Begin Spectral Data<<<<<
177.721	-266.47
178.105	-197.3
178.488	-177.09
178.871	-494.74
179.254	457.14
179.636	-187.74
180.019	18.6
180.402	-7.14
180.785	430.77
181.168	181.34
181.55	189.6
181.933	72.55
182.316	160.91
182.698	141.27
183.081	353.3
183.463	-1295.52
183.846	643.48
184.228	262.21
184.611	586.01
184.993	374.55
185.376	1897.87
185.758	-378.34
186.14	-316.92
186.522	-181.3
186.904	-136.77
187.287	-96.16
187.669	-64.11
188.051	-110.78
188.433	-82.65
188.815	-53.49
189.197	-43.18
189.579	-37.9
189.961	-39.93
190.342	-24.09
190.724	-27.85
191.106	-34.03
191.488	-36.98
191.869	-22.31
192.251	-34.82
192.633	-29.46
193.014	-15.45
193.396	-11.13
193.777	-16.03
194.159	-13.33
194.54	-4.05
194.922	-29.13
195.303	-41.06
195.684	-42.55
196.065	-33.12
196.447	-38.43
196.828	-62.74
197.209	-55.79
197.59	-58.67
197.971	-70.26
198.352	-69.35
198.733	-61.83
199.114	-36.96
199.495	-19.02
199.876	-35.45
200.257	-24.34
200.638	-20.49
201.018	-22.34
201.399	-34.55
201.78	-25.23
202.16	-30.91
202.541	-52.4
202.922	-47.41
203.302	-52.57
203.683	-77.81
204.063	-60.35
204.444	-52.34
204.824	-26.33
205.204	-26.58
205.585	-18.96
205.965	-11.75
206.345	-15.86
206.725	-25.73
207.106	-31.78
207.486	-25.75
207.866	-8.23
208.246	-10.36
208.626	-12
209.006	-15.76
209.386	-11.01
209.766	-7.73
210.145	-11.34
210.525	-7.99
210.905	-7.57
211.285	-5.1
211.664	8.68
212.044	11.19
212.424	5.23
212.803	-2.38
213.183	-7.48
213.562	-11.39
213.942	-11.12
214.321	-14.25
214.701	-7.76
215.08	-8.92
215.459	-10.91
215.838	-34.57
216.218	-39.95
216.597	-49.05
216.976	-60.82
217.355	-56.63
217.734	-89.94
218.113	-87.9
218.492	-102.11
218.871	-99.04
219.25	-89.45
219.629	-163.23
220.008	-181.88
220.387	-173.95
220.766	-145.35
221.144	-135.07
221.523	-164.76
221.902	-208.6
222.28	-106.61
222.659	-50.88
223.037	-51.09
223.416	-65.74
223.794	-37.83
224.173	-34.97
224.551	-20.78
224.929	-32.02
225.308	-35.68
225.686	-33
226.064	-29.87
226.442	-23.73
226.821	-18.01
227.199	-19.64
227.577	-15.24
227.955	-12.15
228.333	-12.4
228.711	-9.52
229.089	-11.58
229.467	-8.74
229.845	-10.74
230.222	-12.81
230.6	-14.32
230.978	-10.94
231.356	-10.63
231.733	-10.91
232.111	-9.6
232.488	-9.42
232.866	-5.31
233.243	-3.54
233.621	-2.13
233.998	-2.18
234.376	-1.87
234.753	-2.49
235.13	-0.4
235.508	-2.01
235.885	-3.34
236.262	-2.79
236.639	-2.85
237.016	-2.21
237.393	-1.31
237.77	0.67
238.147	1.43
238.524	1.21
238.901	1.07
239.278	0.75
239.655	1.21
240.032	1.26
240.409	1.41
240.785	0.69
241.162	1.15
241.539	1.35
241.915	1.54
242.292	1.41
242.668	1.4
243.045	1.13
243.421	1.79
243.798	2
244.174	2.21
244.551	2.32
244.927	2.64
245.303	2.31
245.679	2.21
246.056	2.28
246.432	2.65
246.808	2.56
247.184	2.84
247.56	3.1
247.936	3.22
248.312	3.29
248.688	3.59
249.064	3.62
249.44	3.58
249.815	3.81
250.191	3.98
250.567	4.08
250.943	4.37
251.318	4.2
251.694	4.09
252.069	4.27
252.445	4.22
252.82	4.13
253.196	4.35
253.571	4.34
253.947	4.42
254.322	4.18
254.697	4.07
255.073	4.08
255.448	3.57
255.823	3.5
256.198	3.38
256.573	3.53
256.948	3.23
257.323	3.41
257.698	3.41
258.073	3.42
258.448	3.4
258.823	3.16
259.198	3.44
259.573	3.5
259.948	3.45
260.322	3.4
260.697	3.46
261.072	3.49
261.446	3.52
261.821	3.49
262.195	3.5
262.57	3.6
262.944	3.61
263.319	3.75
263.693	3.69
264.067	3.66
264.442	3.57
264.816	3.66
265.19	3.74
265.564	3.65
265.938	3.73
266.313	3.74
266.687	3.91
267.061	3.63
267.435	3.77
267.809	3.85
268.183	3.81
268.556	3.86
268.93	3.86
269.304	3.72
269.678	3.73
270.051	3.84
270.425	3.81
270.799	3.66
271.172	3.58
271.546	3.58
271.919	3.59
272.293	3.6
272.666	3.53
273.04	3.32
273.413	3.17
273.787	3.15
274.16	3.19
274.533	3.24
274.906	3.22
275.279	3.09
275.653	3.13
276.026	3.1
276.399	3.12
276.772	3.16
277.145	3.3
277.518	3.02
277.891	3
278.263	3.01
278.636	3.04
279.009	3.04
279.382	3.04
279.755	3.08
280.127	3.04
280.5	3.05
280.872	3.19
281.245	3.35
281.617	3.37
281.99	3.4
282.362	3.27
282.735	3.23
283.107	3.36
283.479	3.31
283.852	3.36
284.224	3.28
284.596	3.32
284.968	3.15
285.34	3.41
285.713	3.36
286.085	3.3
286.457	3.27
286.829	3.34
287.201	3.39
287.572	3.48
287.944	3.54
288.316	3.65
288.688	3.63
289.06	3.67
289.431	3.65
289.803	3.75
290.175	3.87
290.546	3.99
290.918	3.91
291.289	3.84
291.661	3.91
292.032	4.06
292.403	4.02
292.775	4.16
293.146	4.13
293.517	4.12
293.889	4.2
294.26	4.46
294.631	4.57
295.002	4.69
295.373	4.68
295.744	4.63
296.115	4.76
296.486	4.89
296.857	4.92
297.228	4.96
297.599	4.76
297.97	4.87
298.34	4.91
298.711	5.03
299.082	5.13
299.452	5.16
299.823	5.08
300.194	5.19
300.564	5.23
300.935	5.38
301.305	5.54
301.676	5.46
302.046	5.42
302.416	5.34
302.787	5.38
303.157	5.46
303.527	5.52
303.897	5.52
304.267	5.63
304.637	5.71
305.008	5.75
305.378	5.86
305.748	5.75
306.117	5.77
306.487	5.84
306.857	5.86
307.227	6.09
307.597	6.32
307.967	6.31
308.336	6.4
308.706	6.42
309.076	6.45
309.445	6.79
309.815	6.85
310.184	6.9
310.554	6.9
310.923	7.02
311.293	7.08
311.662	7.1
312.031	6.95
312.401	6.97
312.77	7.04
313.139	7.26
313.508	7.36
313.877	7.4
314.246	7.44
314.616	7.52
314.985	7.57
315.353	7.54
315.722	7.64
316.091	7.74
316.46	7.82
316.829	7.84
317.198	7.95
317.567	8.07
317.935	8.2
318.304	8.34
318.672	8.36
319.041	8.43
319.41	8.51
319.778	8.7
320.147	8.9
320.515	9.01
320.883	9.01
321.252	9.2
321.62	9.32
321.988	9.35
322.357	9.28
322.725	9.24
323.093	9.33
323.461	9.42
323.829	9.37
324.197	9.41
324.565	9.52
324.933	9.39
325.301	9.36
325.669	9.46
326.037	9.54
326.405	9.48
326.772	9.66
327.14	9.75
327.508	9.74
327.875	9.76
328.243	9.83
328.61	9.94
328.978	9.89
329.346	9.93
329.713	10.11
330.08	10.41
330.448	10.6
330.815	10.65
331.182	10.67
331.55	10.81
331.917	10.83
332.284	11.03
332.651	11.06
333.018	11.11
333.385	11.14
333.752	11.25
334.119	11.35
334.486	11.29
334.853	11.2
335.22	11.24
335.587	11.15
335.954	11.18
336.32	11.14
336.687	11.15
337.054	11.19
337.42	11.09
337.787	11
338.153	10.96
338.52	10.99
338.886	11.04
339.253	11.11
339.619	11.16
339.986	11
340.352	11.15
340.718	11.25
341.084	11.26
341.451	11.24
341.817	11.34
342.183	11.34
342.549	11.43
342.915	11.49
343.281	11.6
343.647	11.54
344.013	11.58
344.379	11.59
344.745	11.58
345.11	11.6
345.476	11.62
345.842	11.58
346.208	11.63
346.573	11.58
346.939	11.53
347.304	11.55
347.67	11.53
348.035	11.48
348.401	11.47
348.766	11.35
349.132	11.32
349.497	11.24
349.862	11.29
350.228	11.28
350.593	11.25
350.958	11.21
351.323	11.25
351.688	11.22
352.053	11.27
352.418	11.41
352.783	11.39
353.148	11.4
353.513	11.37
353.878	11.28
354.243	11.28
354.608	11.32
354.972	11.29
355.337	11.34
355.702	11.32
356.066	11.26
356.431	11.24
356.795	11.22
357.16	11.19
357.524	11.12
357.889	11.13
358.253	11.19
358.618	11.21
358.982	11.18
359.346	11.2
359.71	11.16
360.075	11.04
360.439	11.05
360.803	11.08
361.167	11.03
361.531	10.98
361.895	10.93
362.259	10.93
362.623	10.89
362.987	10.85
363.351	10.8
363.714	10.74
364.078	10.78
364.442	10.79
364.806	10.77
365.169	10.68
365.533	10.64
365.896	10.6
366.26	10.5
366.623	10.48
366.987	10.45
367.35	10.4
367.714	10.39
368.077	10.32
368.44	10.29
368.803	10.24
369.167	10.25
369.53	10.29
369.893	10.13
370.256	10.09
370.619	10
370.982	9.85
371.345	9.82
371.708	9.71
372.071	9.57
372.434	9.5
372.797	9.49
373.159	9.32
373.522	9.2
373.885	9.14
374.247	9.02
374.61	8.87
374.973	8.81
375.335	8.72
375.698	8.61
376.06	8.41
376.423	8.36
376.785	8.25
377.147	8.1
377.51	8.06
377.872	7.96
378.234	7.89
378.596	7.93
378.958	7.89
379.321	7.82
379.683	7.79
380.045	7.73
380.407	7.7
380.769	7.67
381.13	7.57
381.492	7.48
381.854	7.43
382.216	7.4
382.578	7.37
382.939	7.33
383.301	7.33
383.663	7.34
384.024	7.27
384.386	7.23
384.747	7.18
385.109	7.2
385.47	7.18
385.832	7.11
386.193	7.01
386.554	6.9
386.916	6.88
387.277	6.8
387.638	6.75
387.999	6.69
388.36	6.67
388.721	6.66
389.082	6.66
389.443	6.64
389.804	6.6
390.165	6.54
390.526	6.47
390.887	6.38
391.248	6.35
391.609	6.32
391.969	6.31
392.33	6.3
392.691	6.25
393.051	6.15
393.412	6.13
393.772	6.16
394.133	6.13
394.493	6.05
394.854	6.01
395.214	5.97
395.574	5.93
395.935	5.83
396.295	5.78
396.655	5.74
397.015	5.68
397.376	5.64
397.736	5.55
398.096	5.5
398.456	5.47
398.816	5.43
399.176	5.37
399.535	5.3
399.895	5.23
400.255	5.19
400.615	5.18
400.975	5.12
401.334	5.05
401.694	5.02
402.054	5
402.413	4.97
402.773	4.93
403.132	4.9
403.492	4.88
403.851	4.87
404.211	4.82
404.57	4.78
404.929	4.72
405.288	4.7
405.648	4.68
406.007	4.66
406.366	4.63
406.725	4.65
407.084	4.64
407.443	4.64
407.802	4.59
408.161	4.59
408.52	4.61
408.879	4.59
409.238	4.56
409.596	4.55
409.955	4.54
410.314	4.53
410.673	4.53
411.031	4.52
411.39	4.49
411.748	4.47
412.107	4.45
412.465	4.46
412.824	4.44
413.182	4.45
413.54	4.42
413.899	4.4
414.257	4.37
414.615	4.34
414.974	4.32
415.332	4.33
415.69	4.29
416.048	4.27
416.406	4.22
416.764	4.19
417.122	4.17
417.48	4.14
417.838	4.11
418.195	4.08
418.553	4.08
418.911	4.05
419.269	4.05
419.626	4.06
419.984	4.04
420.342	4.04
420.699	3.99
421.057	3.99
421.414	3.97
421.772	3.94
422.129	3.91
422.486	3.88
422.844	3.85
423.201	3.83
423.558	3.82
423.915	3.82
424.273	3.83
424.63	3.83
424.987	3.82
425.344	3.82
425.701	3.82
426.058	3.81
426.415	3.79
426.772	3.79
427.128	3.76
427.485	3.74
427.842	3.73
428.199	3.74
428.555	3.71
428.912	3.7
429.269	3.7
429.625	3.72
429.982	3.72
430.338	3.7
430.695	3.7
431.051	3.7
431.407	3.68
431.764	3.67
432.12	3.67
432.476	3.68
432.832	3.67
433.189	3.65
433.545	3.64
433.901	3.63
434.257	3.64
434.613	3.64
434.969	3.66
435.325	3.65
435.681	3.67
436.036	3.67
436.392	3.66
436.748	3.65
437.104	3.64
437.459	3.64
437.815	3.65
438.171	3.66
438.526	3.66
438.882	3.68
439.237	3.67
439.593	3.67
439.948	3.65
440.304	3.65
440.659	3.66
441.014	3.66
441.369	3.66
441.725	3.65
442.08	3.64
442.435	3.63
442.79	3.64
443.145	3.62
443.5	3.61
443.855	3.6
444.21	3.6
444.565	3.61
444.92	3.59
445.275	3.58
445.629	3.57
445.984	3.56
446.339	3.55
446.693	3.54
447.048	3.52
447.403	3.5
447.757	3.5
448.112	3.49
448.466	3.49
448.82	3.48
449.175	3.46
449.529	3.46
449.883	3.44
450.238	3.42
450.592	3.42
450.946	3.41
451.3	3.41
451.654	3.41
452.008	3.41
452.362	3.41
452.716	3.43
453.07	3.42
453.424	3.4
453.778	3.42
454.132	3.39
454.486	3.41
454.839	3.41
455.193	3.4
455.547	3.42
455.9	3.41
456.254	3.42
456.607	3.42
456.961	3.42
457.314	3.43
457.668	3.43
458.021	3.43
458.375	3.44
458.728	3.44
459.081	3.42
459.434	3.42
459.787	3.42
460.141	3.43
460.494	3.44
460.847	3.44
461.2	3.41
461.553	3.44
461.906	3.45
462.259	3.45
462.611	3.47
462.964	3.47
463.317	3.48
463.67	3.48
464.022	3.5
464.375	3.5
464.728	3.52
465.08	3.52
465.433	3.53
465.785	3.54
466.138	3.56
466.49	3.6
466.843	3.61
467.195	3.65
467.547	3.65
467.899	3.69
468.252	3.73
468.604	3.78
468.956	3.79
469.308	3.82
469.66	3.85
470.012	3.89
470.364	3.92
470.716	3.94
471.068	3.96
471.42	3.98
471.772	4
472.123	4.01
472.475	4.03
472.827	4.05
473.178	4.08
473.53	4.09
473.882	4.07
474.233	4.07
474.585	4.06
474.936	4.08
475.288	4.06
475.639	4.04
475.99	4.01
476.342	4
476.693	3.97
477.044	3.96
477.395	3.93
477.746	3.9
478.097	3.89
478.448	3.87
478.8	3.83
479.15	3.81
479.501	3.8
479.852	3.8
480.203	3.78
480.554	3.79
480.905	3.78
481.255	3.79
481.606	3.8
481.957	3.79
482.307	3.78
482.658	3.79
483.009	3.79
483.359	3.79
483.709	3.79
484.06	3.79
484.41	3.77
484.761	3.78
485.111	3.79
485.461	3.78
485.811	3.78
486.162	3.78
486.512	3.78
486.862	3.79
487.212	3.79
487.562	3.78
487.912	3.77
488.262	3.77
488.612	3.77
488.961	3.76
489.311	3.75
489.661	3.75
490.011	3.74
490.36	3.74
490.71	3.74
491.06	3.73
491.409	3.74
491.759	3.75
492.108	3.75
492.458	3.75
492.807	3.77
493.157	3.78
493.506	3.8
493.855	3.81
494.204	3.82
494.554	3.84
494.903	3.87
495.252	3.89
495.601	3.92
495.95	3.94
496.299	3.97
496.648	4.03
496.997	4.07
497.346	4.13
497.695	4.16
498.043	4.21
498.392	4.25
498.741	4.32
499.09	4.36
499.438	4.42
499.787	4.48
500.135	4.52
500.484	4.59
500.832	4.66
501.181	4.76
501.529	4.84
501.878	4.9
502.226	4.98
502.574	5.09
502.923	5.18
503.271	5.28
503.619	5.4
503.967	5.48
504.315	5.59
504.663	5.68
505.011	5.81
505.359	5.94
505.707	6.05
506.055	6.16
506.403	6.29
506.751	6.4
507.098	6.53
507.446	6.68
507.794	6.81
508.141	6.95
508.489	7.07
508.837	7.22
509.184	7.38
509.531	7.51
509.879	7.65
510.226	7.8
510.574	7.96
510.921	8.11
511.268	8.29
511.616	8.45
511.963	8.64
512.31	8.83
512.657	9.02
513.004	9.23
513.351	9.45
513.698	9.68
514.045	9.92
514.392	10.17
514.739	10.41
515.086	10.63
515.432	10.84
515.779	11.08
516.126	11.31
516.473	11.54
516.819	11.79
517.166	11.98
517.512	12.17
517.859	12.36
518.205	12.55
518.552	12.72
518.898	12.91
519.245	13.1
519.591	13.29
519.937	13.49
520.283	13.71
520.629	13.93
520.976	14.15
521.322	14.38
521.668	14.57
522.014	14.81
522.36	15.05
522.706	15.31
523.052	15.58
523.398	15.86
523.743	16.13
524.089	16.4
524.435	16.66
524.781	16.94
525.126	17.17
525.472	17.4
525.817	17.6
526.163	17.8
526.509	17.97
526.854	18.11
527.199	18.26
527.545	18.39
527.89	18.53
528.235	18.66
528.581	18.81
528.926	18.97
529.271	19.11
529.616	19.28
529.961	19.44
530.306	19.6
530.651	19.75
530.996	19.93
531.341	20.09
531.686	20.27
532.031	20.45
532.376	20.65
532.721	20.84
533.065	21.04
533.41	21.23
533.755	21.42
534.099	21.65
534.444	21.86
534.788	22.07
535.133	22.28
535.477	22.49
535.822	22.69
536.166	22.93
536.51	23.19
536.855	23.39
537.199	23.64
537.543	23.89
537.887	24.17
538.231	24.44
538.576	24.71
538.92	24.99
539.264	25.23
539.608	25.45
539.951	25.67
540.295	25.88
540.639	26.11
540.983	26.34
541.327	26.53
541.671	26.74
542.014	26.95
542.358	27.14
542.701	27.33
543.045	27.54
543.389	27.72
543.732	27.92
544.075	28.15
544.419	28.36
544.762	28.58
545.105	28.79
545.449	29
545.792	29.26
546.135	29.47
546.478	29.72
546.821	30.01
547.165	30.3
547.508	30.55
547.851	30.8
548.194	31.08
548.536	31.38
548.879	31.61
549.222	31.92
549.565	32.17
549.908	32.47
550.25	32.74
550.593	33
550.936	33.25
551.278	33.56
551.621	33.82
551.963	34.09
552.306	34.4
552.648	34.64
552.991	34.91
553.333	35.19
553.675	35.43
554.017	35.65
554.36	35.86
554.702	36.08
555.044	36.34
555.386	36.58
555.728	36.77
556.07	37
556.412	37.23
556.754	37.49
557.096	37.71
557.438	37.97
557.78	38.22
558.121	38.46
558.463	38.67
558.805	38.93
559.147	39.18
559.488	39.39
559.83	39.66
560.171	39.84
560.513	40.01
560.854	40.24
561.196	40.48
561.537	40.73
561.878	40.98
562.22	41.19
562.561	41.34
562.902	41.52
563.243	41.73
563.584	41.91
563.925	42.11
564.266	42.25
564.607	42.37
564.948	42.62
565.289	42.77
565.63	42.91
565.971	43.09
566.312	43.21
566.653	43.37
566.993	43.49
567.334	43.68
567.675	43.83
568.015	43.96
568.356	44.11
568.696	44.2
569.037	44.32
569.377	44.41
569.718	44.56
570.058	44.75
570.398	44.85
570.739	44.93
571.079	45.07
571.419	45.23
571.759	45.38
572.099	45.46
572.439	45.58
572.779	45.72
573.119	45.82
573.459	45.99
573.799	46.04
574.139	46.13
574.479	46.22
574.819	46.38
575.158	46.5
575.498	46.61
575.838	46.75
576.177	46.93
576.517	47.08
576.856	47.18
577.196	47.27
577.535	47.43
577.875	47.62
578.214	47.71
578.553	47.84
578.893	47.99
579.232	48.11
579.571	48.28
579.91	48.44
580.25	48.49
580.589	48.55
580.928	48.73
581.267	48.87
581.606	49.02
581.945	49.09
582.283	49.19
582.622	49.23
582.961	49.3
583.3	49.38
583.639	49.5
583.977	49.65
584.316	49.74
584.654	49.8
584.993	49.86
585.332	49.92
585.67	50.03
586.008	50.09
586.347	50.17
586.685	50.17
587.024	50.14
587.362	50.27
587.7	50.33
588.038	50.45
588.376	50.53
588.715	50.6
589.053	50.64
589.391	50.71
589.729	50.89
590.067	51.02
590.404	51.09
590.742	51.22
591.08	51.27
591.418	51.36
591.756	51.43
592.093	51.55
592.431	51.66
592.769	51.73
593.106	51.79
593.444	51.9
593.781	51.99
594.119	52.09
594.456	52.1
594.793	52.16
595.131	52.17
595.468	52.21
595.805	52.26
596.143	52.39
596.48	52.47
596.817	52.49
597.154	52.44
597.491	52.48
597.828	52.44
598.165	52.45
598.502	52.46
598.839	52.56
599.176	52.6
599.512	52.67
599.849	52.69
600.186	52.72
600.523	52.63
600.859	52.8
601.196	52.85
601.532	52.9
601.869	52.92
602.205	53.01
602.542	53.04
602.878	53.04
603.215	53.01
603.551	53.03
603.887	53.09
604.223	53.2
604.56	53.2
604.896	53.25
605.232	53.34
605.568	53.4
605.904	53.41
606.24	53.46
606.576	53.48
606.912	53.53
607.248	53.67
607.583	53.74
607.919	53.68
608.255	53.74
608.591	53.83
608.926	53.9
609.262	53.93
609.597	54.06
609.933	54.13
610.268	54.24
610.604	54.28
610.939	54.27
611.275	54.3
611.61	54.38
611.945	54.39
612.281	54.38
612.616	54.44
612.951	54.47
613.286	54.44
613.621	54.42
613.956	54.5
614.291	54.51
614.626	54.59
614.961	54.58
615.296	54.62
615.631	54.66
615.966	54.73
616.3	54.72
616.635	54.73
616.97	54.69
617.304	54.71
617.639	54.72
617.973	54.72
618.308	54.75
618.642	54.74
618.977	54.75
619.311	54.84
619.646	54.85
619.98	54.82
620.314	54.86
620.648	54.98
620.983	55.04
621.317	55.03
621.651	55.02
621.985	55.09
622.319	55.1
622.653	55.06
622.987	55.01
623.321	55.07
623.655	55.01
623.988	55.13
624.322	55.06
624.656	55.11
624.99	55.09
625.323	55.18
625.657	55.15
625.99	55.26
626.324	55.27
626.657	55.3
626.991	55.33
627.324	55.33
627.658	55.34
627.991	55.32
628.324	55.33
628.657	55.38
628.991	55.41
629.324	55.47
629.657	55.56
629.99	55.62
630.323	55.57
630.656	55.64
630.989	55.55
631.322	55.59
631.655	55.58
631.987	55.73
632.32	55.72
632.653	55.76
632.986	55.76
633.318	55.71
633.651	55.68
633.984	55.76
634.316	55.8
634.649	55.78
634.981	55.7
635.313	55.73
635.646	55.74
635.978	55.84
636.31	55.82
636.643	55.73
636.975	55.74
637.307	55.75
637.639	55.7
637.971	55.81
638.303	55.87
638.635	55.88
638.967	55.79
639.299	55.8
639.631	55.85
639.963	55.84
640.295	55.9
640.626	55.85
640.958	55.86
641.29	55.85
641.621	55.9
641.953	55.96
642.285	55.91
642.616	55.89
642.948	55.78
643.279	55.74
643.61	55.89
643.942	55.88
644.273	55.88
644.604	55.93
644.936	55.92
645.267	55.93
645.598	56.01
645.929	56
646.26	55.97
646.591	55.86
646.922	55.87
647.253	55.89
647.584	56.02
647.915	56.09
648.245	56.11
648.576	56.06
648.907	56.06
649.238	56.12
649.568	56.17
649.899	56.22
650.229	56.28
650.56	56.22
650.89	56.27
651.221	56.25
651.551	56.22
651.882	56.1
652.212	56.01
652.542	55.93
652.872	55.92
653.203	55.96
653.533	56.09
653.863	56.03
654.193	56.12
654.523	56.14
654.853	56.18
655.183	56.19
655.513	56.2
655.843	56.32
656.172	56.36
656.502	56.46
656.832	56.43
657.162	56.41
657.491	56.39
657.821	56.45
658.15	56.51
658.48	56.6
658.809	56.67
659.139	56.83
659.468	56.98
659.798	57.07
660.127	57.01
660.456	57.02
660.785	57.11
661.115	57.05
661.444	57.01
661.773	57.01
662.102	56.91
662.431	56.96
662.76	56.85
663.089	56.74
663.418	56.75
663.747	56.85
664.076	56.9
664.404	57.02
664.733	56.96
665.062	56.92
665.39	56.92
665.719	56.97
666.048	56.75
666.376	56.7
666.705	56.69
667.033	56.69
667.362	56.75
667.69	56.79
668.018	56.82
668.347	56.83
668.675	56.78
669.003	56.89
669.331	57.03
669.659	57.08
669.987	57.21
670.315	57.11
670.643	57.02
670.971	57.04
671.299	57.01
671.627	57.09
671.955	57.14
672.283	57.13
672.61	57.16
672.938	57.23
673.266	57.1
673.593	57.06
673.921	57.14
674.249	57.02
674.576	57.12
674.904	57.14
675.231	57.22
675.558	57.17
675.886	57.28
676.213	57.09
676.54	57.07
676.867	57.07
677.195	57.06
677.522	57.07
677.849	57.05
678.176	56.99
678.503	56.95
678.83	57.04
679.157	57.08
679.484	57.07
679.81	57.17
680.137	57.26
680.464	57.33
680.791	57.35
681.117	57.48
681.444	57.46
681.771	57.44
682.097	57.47
682.424	57.59
682.75	57.47
683.077	57.5
683.403	57.39
683.729	57.46
684.056	57.49
684.382	57.48
684.708	57.54
685.034	57.45
685.36	57.41
685.686	57.39
686.012	57.43
686.339	57.53
686.664	57.59
686.99	57.55
687.316	57.44
687.642	57.4
687.968	57.28
688.294	57.15
688.619	57.16
688.945	57.06
689.271	56.96
689.596	56.92
689.922	56.93
690.247	57.13
690.573	57.14
690.898	57.27
691.224	57.18
691.549	57.21
691.874	57.32
692.2	57.49
692.525	57.4
692.85	57.42
693.175	57.09
693.5	57.03
693.825	57.15
694.15	57.15
694.475	57.15
694.8	57.24
695.125	57.2
695.45	57.2
695.775	57.3
696.099	57.34
696.424	57.5
696.749	57.51
697.073	57.46
697.398	57.35
697.723	57.26
698.047	57.37
698.372	57.33
698.696	57.25
699.02	57.17
699.345	57.15
699.669	56.98
699.993	57.19
700.318	57.19
700.642	57.11
700.966	57.23
701.29	57.22
701.614	57.22
701.938	57.25
702.262	57.39
702.586	57.2
702.91	57.12
703.234	57.15
703.557	57.2
703.881	57.35
704.205	57.31
704.529	57.3
704.852	57.31
705.176	57.37
705.499	57.64
705.823	57.67
706.146	57.87
706.47	58.13
706.793	58.31
707.117	58.33
707.44	58.39
707.763	58.27
708.086	58.27
708.409	58.3
708.733	58.46
709.056	58.27
709.379	58.42
709.702	58.55
710.025	58.47
710.348	58.55
710.671	58.41
710.993	58.58
711.316	58.76
711.639	58.65
711.962	58.66
712.284	58.62
712.607	58.65
712.93	58.55
713.252	58.44
713.575	58.22
713.897	58.14
714.22	58.19
714.542	58.2
714.864	58.24
715.187	58.13
715.509	57.96
715.831	58.05
716.153	58.16
716.475	58.22
716.798	58.24
717.12	58.13
717.442	58.16
717.764	58.06
718.085	57.94
718.407	58.04
718.729	57.9
719.051	57.82
719.373	57.89
719.695	57.9
720.016	57.82
720.338	57.77
720.659	57.82
720.981	57.59
721.302	57.74
721.624	57.79
721.945	57.72
722.267	57.75
722.588	57.66
722.909	57.65
723.231	57.35
723.552	57.44
723.873	57.44
724.194	57.27
724.515	57.31
724.836	57.05
725.157	56.93
725.478	57.06
725.799	57.01
726.12	56.96
726.441	57.19
726.762	57.44
727.083	57.44
727.403	57.28
727.724	57.46
728.045	57.41
728.365	57.39
728.686	57.69
729.006	57.73
729.327	57.81
729.647	57.79
729.967	57.92
730.288	57.85
730.608	57.75
730.928	57.89
731.249	57.96
731.569	58.21
731.889	58.26
732.209	58.12
732.529	58.12
732.849	57.96
733.169	57.69
733.489	57.39
733.809	57.52
734.129	57.72
734.448	57.75
734.768	57.66
735.088	57.74
735.408	57.68
735.727	57.77
736.047	57.7
736.366	57.55
736.686	57.57
737.005	57.55
737.325	57.71
737.644	57.84
737.963	57.61
738.283	57.73
738.602	57.73
738.921	57.93
739.24	57.86
739.56	58.09
739.879	58.32
740.198	58.55
740.517	58.42
740.836	58.46
741.155	58.6
741.473	58.75
741.792	58.84
742.111	58.89
742.43	58.86
742.748	58.83
743.067	58.7
743.386	58.81
743.704	58.93
744.023	58.92
744.341	58.68
744.66	58.93
744.978	58.43
745.297	58.54
745.615	58.59
745.933	58.83
746.252	58.77
746.57	58.5
746.888	58.38
747.206	58.35
747.524	58.24
747.842	57.91
748.16	57.62
748.478	57.14
748.796	56.94
749.114	57.11
749.432	57.26
749.749	57.55
750.067	57.32
750.385	57.2
750.703	57.19
751.02	57.42
751.338	57.3
751.655	57.82
751.973	57.84
752.29	57.56
752.608	57.7
752.925	57.95
753.242	58.28
753.56	57.97
753.877	58.17
754.194	58.1
754.511	57.89
754.828	58.03
755.145	58.42
755.462	58.64
755.779	58.56
756.096	58.53
756.413	58.44
756.73	58.48
757.047	58.57
757.364	58.62
757.68	58.47
757.997	58.95
758.314	58.85
758.63	58.84
758.947	59.02
759.264	58.88
759.58	58.35
759.896	58.15
760.213	58.53
760.529	58.86
760.846	58.82
761.162	59.24
761.478	59.4
761.794	59.45
762.11	59.23
762.426	59.03
762.743	58.95
763.059	59
763.375	59.07
763.69	58.87
764.006	59
764.322	58.96
764.638	58.72
764.954	58.61
765.27	58.71
765.585	58.69
765.901	58.63
766.216	58.72
766.532	58.8
766.848	58.75
767.163	58.35
767.478	58.3
767.794	57.97
768.109	58.12
768.424	57.93
768.74	57.89
769.055	57.89
769.37	57.73
769.685	57.62
770	57.23
770.315	57.47
770.63	57.21
770.945	57.19
771.26	57.15
771.575	57.46
771.89	57.22
772.205	57.27
772.52	57.36
772.834	57.48
773.149	57.91
773.464	58.17
773.778	58.53
774.093	59.16
774.407	59.26
774.722	59.12
775.036	59.15
775.351	59.91
775.665	59.99
775.979	59.74
776.293	60.15
776.608	60.66
776.922	60.78
777.236	60.48
777.55	60.23
777.864	60.27
778.178	59.88
778.492	59.87
778.806	59.73
779.12	59.85
779.434	59.5
779.747	58.64
780.061	58.18
780.375	58.05
780.689	57.46
781.002	57.52
781.316	57.33
781.629	57.47
781.943	56.67
782.256	56.74
782.57	57.55
782.883	57.02
783.196	56.88
783.51	56.54
783.823	56.67
784.136	56.78
784.449	56.82
784.762	57.14
785.075	57.1
785.388	57.57
785.701	57.51
786.014	58.07
786.327	58.72
786.64	58.61
786.953	58.62
787.266	58.31
787.578	58.47
787.891	58.6
788.204	58.32
788.516	58.7
788.829	58.2
789.141	57.99
789.454	57.96
789.766	58.08
790.079	57.95
790.391	58.12
790.703	58.6
791.016	58.47
791.328	58
791.64	57.98
791.952	57.62
792.264	57.42
792.576	57.29
792.888	56.78
793.2	57.12
793.512	56.72
793.824	57.05
794.136	56.76
794.448	57.13
794.76	56.68
795.071	56.38
795.383	56.66
795.695	56.62
796.006	56.75
796.318	56.61
796.629	56.77
796.941	57.23
797.252	57.4
797.564	57.52
797.875	57.94
798.186	57.88
798.497	57.64
798.809	57.76
799.12	57.84
799.431	58.05
799.742	58.46
800.053	58.55
800.364	58.53
800.675	58.99
800.986	58.3
801.297	59.63
801.608	59.48
801.918	59.67
802.229	59.94
802.54	59.84
802.851	60.26
803.161	60.01
803.472	58.65
803.782	58.25
804.093	57.68
804.403	57.89
804.714	58.1
805.024	58.54
805.334	58.24
805.645	58.03
805.955	57.89
806.265	57.34
806.575	57.89
806.885	58.08
807.195	57.82
807.505	57.74
807.815	56.77
808.125	56.66
808.435	56.98
808.745	56.86
809.055	57.19
809.365	56.14
809.674	57.05
809.984	58.19
810.294	58.33
810.603	58.12
810.913	57.89
811.222	57.95
811.532	57.82
811.841	57.56
812.151	57.07
812.46	56.27
812.769	56.24
813.079	56.34
813.388	55.94
813.697	55.88
814.006	56.67
814.315	57
814.624	57.6
814.933	56.96
815.242	56.42
815.551	55.95
815.86	57.59
816.169	56.23
816.478	55.93
816.786	55.89
817.095	56.64
817.404	56.83
817.712	56.87
818.021	56.71
818.33	56.29
818.638	56.87
818.947	57.47
819.255	57.44
819.563	57.07
819.872	57.34
820.18	58.24
820.488	58.34
820.796	58.5
821.105	58.77
821.413	59.07
821.721	59.19
822.029	59.34
822.337	59.18
822.645	59.62
822.953	60.02
823.26	60.15
823.568	60.09
823.876	59.83
824.184	59.66
824.491	59.91
824.799	60.35
825.107	60.33
825.414	60.57
825.722	60.51
826.029	60.78
826.337	60.81
826.644	60.54
826.951	60.47
827.259	60.45
827.566	60.31
827.873	60.11
828.18	60.12
828.488	60.39
828.795	60.36
829.102	60.27
829.409	59.82
829.716	59.56
830.023	59.48
830.329	59.64
830.636	59.95
830.943	59.78
831.25	59.41
831.557	59.56
831.863	59.39
832.17	59.49
832.476	59.46
832.783	59.53
833.089	59.94
833.396	59.95
833.702	60.01
834.009	60.04
834.315	60.14
834.621	60.62
834.928	59.75
835.234	59.94
835.54	59.76
835.846	59.46
836.152	59.49
836.458	59.59
836.764	59.74
837.07	59.74
837.376	59.06
837.682	58.52
837.988	58.34
838.293	57.86
838.599	58.06
838.905	57.8
839.211	57.4
839.516	56.43
839.822	56.19
840.127	55.74
840.433	55.67
840.738	55.64
841.044	54.52
841.349	54.22
841.654	53.7
841.959	52.97
842.265	52.67
842.57	52.05
842.875	52.55
843.18	52.5
843.485	51.59
843.79	52.06
844.095	53.85
844.4	54.65
844.705	54.87
845.01	55.75
845.315	54.73
845.619	55.2
845.924	54.65
846.229	54.59
846.533	54.25
846.838	52.38
847.142	52.91
847.447	53.16
847.751	55.17
848.056	56.39
848.36	56.9
848.664	58.07
848.969	59
849.273	57.38
849.577	57.46
849.881	56.14
850.185	56.61
850.489	56.97
850.794	55.47
851.097	54.78
851.401	55.03
851.705	55.86
852.009	54.88
852.313	56.89
852.617	56.87
852.92	57.81
853.224	59.91
853.528	57.85
853.831	58.13
854.135	55.96
854.438	53.88
854.742	54.17
855.045	52.71
855.349	51.78
855.652	51.64
855.955	51.85
856.259	55.53
856.562	56.21
856.865	54.32
857.168	53.5
857.471	53.61
857.774	51.32
858.077	50.95
858.38	50.58
858.683	49.72
858.986	47.95
859.289	47.44
859.592	47.47
859.894	49.09
860.197	49.15
860.5	50.38
860.802	49.28
861.105	49.46
861.407	50.93
861.71	50.82
862.012	51.83
862.315	51.09
862.617	49.69
862.919	48.12
863.222	47.69
863.524	50.16
863.826	50.23
864.128	50.89
864.43	50.88
864.732	50.28
865.034	50.69
865.336	52.22
865.638	52.26
865.94	52.03
866.242	50.35
866.544	48.81
866.846	48.8
867.147	50.31
867.449	50.55
867.751	50.33
868.052	50.1
868.354	46.87
868.655	46.79
868.957	48.66
869.258	50.03
869.56	51
869.861	47.52
870.162	49.12
870.463	50.78
870.765	53.38
871.066	54.07
871.367	53.43
871.668	53.23
871.969	55.38
872.27	57.68
872.571	57.77
872.872	60.07
873.173	59.24
873.473	59.56
873.774	60.99
874.075	60.98
874.376	62.86
874.676	67.29
874.977	67.09
875.277	64.86
875.578	62.35
875.878	62.51
876.179	65.94
876.479	64.54
876.78	63.74
877.08	60.7
877.38	63.64
877.68	63.96
877.981	64.44
878.281	61.79
878.581	56.66
