Data from BU26943_Reflection_00005.txt Node
Date: Tue Nov 19 11:02:22 EST 2019
User: vgr7
Spectrometer: USB2G7710
Scans to average: 3
Trigger mode: 4
Integration Time (sec): 2.000000E-2
Electric dark correction enabled: true
Boxcar width: 10
XAxis mode: Wavelengths
Number of Pixels in Spectrum: 2048
>>>>>Begin Spectral Data<<<<<
177.721	-15.38
178.105	-39.34
178.488	-35.27
178.871	-40.43
179.254	-44.44
179.636	-356.52
180.019	51.61
180.402	240
180.785	236.36
181.168	128.85
181.55	-20.69
181.933	61.54
182.316	126.32
182.698	-548.15
183.081	146.1
183.463	83.22
183.846	15.84
184.228	47.65
184.611	64.38
184.993	98.31
185.376	88.69
185.758	59.61
186.14	63.01
186.522	71.4
186.904	61.39
187.287	40.46
187.669	22.86
188.051	14.02
188.433	12.65
188.815	4.3
189.197	6.94
189.579	13.92
189.961	9.54
190.342	6.22
190.724	-4.95
191.106	-5.65
191.488	0.68
191.869	1.74
192.251	5.2
192.633	-3.6
193.014	-4.77
193.396	-7.84
193.777	-5.14
194.159	-1.69
194.54	-1.5
194.922	-7.44
195.303	-5.03
195.684	-7.93
196.065	0.59
196.447	-4.43
196.828	8.62
197.209	7.62
197.59	-10.63
197.971	-23.89
198.352	-15.05
198.733	-18.98
199.114	-25.74
199.495	-30.75
199.876	-17.92
200.257	-32.45
200.638	-16.17
201.018	-40.65
201.399	-21.88
201.78	-25.16
202.16	-30.77
202.541	-49.39
202.922	-47.13
203.302	-55.29
203.683	-44.57
204.063	-37.84
204.444	-41.09
204.824	-41.42
205.204	-45.27
205.585	-30.55
205.965	-15.22
206.345	-24.33
206.725	-6.39
207.106	0.88
207.486	-2.05
207.866	-8.57
208.246	10.32
208.626	-4.95
209.006	7.15
209.386	4.83
209.766	5.24
210.145	4.59
210.525	10.44
210.905	23.05
211.285	32.99
211.664	28.88
212.044	24.66
212.424	26.34
212.803	23.42
213.183	28.37
213.562	25.24
213.942	15.98
214.321	20.12
214.701	16.36
215.08	20.62
215.459	27.74
215.838	23.25
216.218	10.09
216.597	12.95
216.976	-2.03
217.355	-1.8
217.734	-12.33
218.113	-6.63
218.492	-3.02
218.871	-6.32
219.25	-13.51
219.629	-19.59
220.008	-24.04
220.387	-23.58
220.766	-22.11
221.144	-24.3
221.523	-31.71
221.902	-28.71
222.28	-28.04
222.659	-16.48
223.037	-19.11
223.416	-26.55
223.794	-22.59
224.173	-17.86
224.551	-13.08
224.929	-8.14
225.308	-9.76
225.686	-2.87
226.064	-3.43
226.442	-4.5
226.821	-6.59
227.199	-3.81
227.577	-2.3
227.955	1.15
228.333	2.75
228.711	4.69
229.089	4.89
229.467	5.53
229.845	4.26
230.222	4.12
230.6	-1.42
230.978	1.25
231.356	3.98
231.733	5.2
232.111	2.25
232.488	2.28
232.866	3.74
233.243	4.1
233.621	4
233.998	4.18
234.376	4.45
234.753	4.12
235.13	5.12
235.508	3.96
235.885	2.42
236.262	0.06
236.639	-1.02
237.016	-1.32
237.393	-0.23
237.77	0.59
238.147	0.93
238.524	3.19
238.901	2.48
239.278	2.12
239.655	2.64
240.032	3.5
240.409	3.37
240.785	3.51
241.162	3.28
241.539	3.25
241.915	3.38
242.292	2.92
242.668	3.43
243.045	3.21
243.421	3.45
243.798	3.53
244.174	3.82
244.551	3.8
244.927	3.81
245.303	3.59
245.679	3.63
246.056	3.64
246.432	3.66
246.808	3.74
247.184	3.66
247.56	3.49
247.936	3.14
248.312	3.28
248.688	3.19
249.064	3.42
249.44	3.59
249.815	3.35
250.191	3.58
250.567	3.47
250.943	3.61
251.318	3.65
251.694	3.74
252.069	3.78
252.445	3.83
252.82	4.11
253.196	4.24
253.571	4.34
253.947	4.46
254.322	4.39
254.697	4.23
255.073	4.07
255.448	4.08
255.823	4.22
256.198	3.96
256.573	3.96
256.948	3.83
257.323	3.69
257.698	3.72
258.073	3.68
258.448	3.75
258.823	3.45
259.198	3.38
259.573	3.19
259.948	3.31
260.322	3.23
260.697	3.21
261.072	3.11
261.446	3.13
261.821	3.04
262.195	2.86
262.57	2.84
262.944	3.04
263.319	3.02
263.693	3.11
264.067	3.17
264.442	3.16
264.816	3.09
265.19	3.01
265.564	3.02
265.938	3
266.313	2.84
266.687	2.96
267.061	2.97
267.435	3.17
267.809	2.87
268.183	2.87
268.556	2.63
268.93	2.78
269.304	2.77
269.678	2.88
270.051	2.9
270.425	3.06
270.799	2.96
271.172	2.94
271.546	3.06
271.919	2.98
272.293	3.08
272.666	3.18
273.04	3.07
273.413	3
273.787	2.92
274.16	2.87
274.533	2.81
274.906	2.85
275.279	2.78
275.653	2.94
276.026	3.08
276.399	3.12
276.772	3.27
277.145	3.2
277.518	3.17
277.891	3.15
278.263	3.06
278.636	3.1
279.009	3.13
279.382	2.98
279.755	3.09
280.127	2.99
280.5	2.87
280.872	2.91
281.245	2.98
281.617	3.15
281.99	3.29
282.362	3.36
282.735	3.34
283.107	3.42
283.479	3.34
283.852	3.29
284.224	3.44
284.596	3.24
284.968	3.28
285.34	3.37
285.713	3.5
286.085	3.44
286.457	3.41
286.829	3.38
287.201	3.42
287.572	3.4
287.944	3.45
288.316	3.42
288.688	3.55
289.06	3.57
289.431	3.55
289.803	3.6
290.175	3.69
290.546	3.61
290.918	3.48
291.289	3.44
291.661	3.54
292.032	3.36
292.403	3.3
292.775	3.3
293.146	3.22
293.517	3.16
293.889	3.33
294.26	3.41
294.631	3.41
295.002	3.28
295.373	3.27
295.744	3.36
296.115	3.46
296.486	3.42
296.857	3.41
297.228	3.43
297.599	3.39
297.97	3.32
298.34	3.38
298.711	3.5
299.082	3.5
299.452	3.4
299.823	3.44
300.194	3.75
300.564	3.65
300.935	3.63
301.305	3.66
301.676	3.5
302.046	3.46
302.416	3.42
302.787	3.39
303.157	3.43
303.527	3.35
303.897	3.32
304.267	3.27
304.637	3.2
305.008	3.06
305.378	3.07
305.748	3.05
306.117	3.09
306.487	3.06
306.857	3.04
307.227	3.18
307.597	3.22
307.967	2.96
308.336	3.13
308.706	3.25
309.076	3.28
309.445	3.45
309.815	3.48
310.184	3.52
310.554	3.6
310.923	3.5
311.293	3.45
311.662	3.52
312.031	3.59
312.401	3.6
312.77	3.63
313.139	3.61
313.508	3.66
313.877	3.69
314.246	3.66
314.616	3.79
314.985	3.74
315.353	3.74
315.722	3.83
316.091	3.8
316.46	3.75
316.829	3.68
317.198	3.54
317.567	3.58
317.935	3.47
318.304	3.64
318.672	3.65
319.041	3.64
319.41	3.57
319.778	3.45
320.147	3.55
320.515	3.65
320.883	3.68
321.252	3.64
321.62	3.57
321.988	3.68
322.357	3.57
322.725	3.58
323.093	3.49
323.461	3.43
323.829	3.55
324.197	3.67
324.565	3.76
324.933	3.87
325.301	3.81
325.669	3.95
326.037	3.92
326.405	4.07
326.772	4.15
327.14	4.05
327.508	4.14
327.875	4.09
328.243	4
328.61	3.93
328.978	3.87
329.346	3.86
329.713	3.85
330.08	3.91
330.448	4.02
330.815	4.04
331.182	4.1
331.55	3.99
331.917	3.82
332.284	3.84
332.651	3.68
333.018	3.69
333.385	3.63
333.752	3.53
334.119	3.39
334.486	3.25
334.853	3.31
335.22	3.23
335.587	3.28
335.954	3.19
336.32	3.3
336.687	3.41
337.054	3.48
337.42	3.53
337.787	3.49
338.153	3.32
338.52	3.46
338.886	3.51
339.253	3.49
339.619	3.48
339.986	3.43
340.352	3.51
340.718	3.51
341.084	3.51
341.451	3.52
341.817	3.55
342.183	3.59
342.549	3.52
342.915	3.5
343.281	3.56
343.647	3.64
344.013	3.63
344.379	3.57
344.745	3.62
345.11	3.49
345.476	3.52
345.842	3.59
346.208	3.64
346.573	3.55
346.939	3.57
347.304	3.65
347.67	3.65
348.035	3.59
348.401	3.62
348.766	3.59
349.132	3.72
349.497	3.71
349.862	3.65
350.228	3.76
350.593	3.82
350.958	3.79
351.323	3.79
351.688	3.75
352.053	3.79
352.418	3.63
352.783	3.6
353.148	3.65
353.513	3.61
353.878	3.47
354.243	3.49
354.608	3.51
354.972	3.49
355.337	3.53
355.702	3.5
356.066	3.47
356.431	3.54
356.795	3.4
357.16	3.42
357.524	3.52
357.889	3.53
358.253	3.49
358.618	3.42
358.982	3.4
359.346	3.37
359.71	3.4
360.075	3.49
360.439	3.57
360.803	3.57
361.167	3.57
361.531	3.61
361.895	3.65
362.259	3.67
362.623	3.64
362.987	3.59
363.351	3.58
363.714	3.58
364.078	3.61
364.442	3.62
364.806	3.6
365.169	3.58
365.533	3.56
365.896	3.62
366.26	3.59
366.623	3.61
366.987	3.6
367.35	3.6
367.714	3.58
368.077	3.53
368.44	3.53
368.803	3.6
369.167	3.56
369.53	3.49
369.893	3.45
370.256	3.43
370.619	3.41
370.982	3.41
371.345	3.36
371.708	3.3
372.071	3.36
372.434	3.39
372.797	3.32
373.159	3.34
373.522	3.28
373.885	3.32
374.247	3.31
374.61	3.32
374.973	3.3
375.335	3.34
375.698	3.3
376.06	3.25
376.423	3.22
376.785	3.27
377.147	3.29
377.51	3.29
377.872	3.33
378.234	3.43
378.596	3.46
378.958	3.51
379.321	3.47
379.683	3.48
380.045	3.46
380.407	3.52
380.769	3.46
381.13	3.47
381.492	3.5
381.854	3.55
382.216	3.61
382.578	3.63
382.939	3.56
383.301	3.56
383.663	3.54
384.024	3.5
384.386	3.51
384.747	3.54
385.109	3.48
385.47	3.48
385.832	3.39
386.193	3.4
386.554	3.36
386.916	3.42
387.277	3.39
387.638	3.35
387.999	3.38
388.36	3.39
388.721	3.38
389.082	3.34
389.443	3.32
389.804	3.31
390.165	3.28
390.526	3.29
390.887	3.29
391.248	3.31
391.609	3.36
391.969	3.34
392.33	3.29
392.691	3.32
393.051	3.28
393.412	3.29
393.772	3.33
394.133	3.33
394.493	3.27
394.854	3.29
395.214	3.33
395.574	3.27
395.935	3.28
396.295	3.3
396.655	3.29
397.015	3.26
397.376	3.25
397.736	3.24
398.096	3.25
398.456	3.27
398.816	3.26
399.176	3.22
399.535	3.19
399.895	3.2
400.255	3.17
400.615	3.17
400.975	3.18
401.334	3.13
401.694	3.13
402.054	3.15
402.413	3.16
402.773	3.16
403.132	3.16
403.492	3.17
403.851	3.13
404.211	3.16
404.57	3.2
404.929	3.2
405.288	3.22
405.648	3.2
406.007	3.23
406.366	3.21
406.725	3.22
407.084	3.25
407.443	3.24
407.802	3.26
408.161	3.28
408.52	3.28
408.879	3.28
409.238	3.31
409.596	3.34
409.955	3.31
410.314	3.31
410.673	3.3
411.031	3.3
411.39	3.32
411.748	3.29
412.107	3.25
412.465	3.25
412.824	3.24
413.182	3.24
413.54	3.23
413.899	3.2
414.257	3.22
414.615	3.2
414.974	3.21
415.332	3.21
415.69	3.2
416.048	3.19
416.406	3.2
416.764	3.19
417.122	3.17
417.48	3.17
417.838	3.16
418.195	3.18
418.553	3.17
418.911	3.16
419.269	3.19
419.626	3.19
419.984	3.17
420.342	3.2
420.699	3.2
421.057	3.21
421.414	3.22
421.772	3.2
422.129	3.21
422.486	3.23
422.844	3.22
423.201	3.22
423.558	3.23
423.915	3.22
424.273	3.21
424.63	3.21
424.987	3.22
425.344	3.22
425.701	3.22
426.058	3.23
426.415	3.23
426.772	3.23
427.128	3.23
427.485	3.24
427.842	3.21
428.199	3.21
428.555	3.2
428.912	3.2
429.269	3.2
429.625	3.18
429.982	3.19
430.338	3.2
430.695	3.19
431.051	3.19
431.407	3.2
431.764	3.22
432.12	3.23
432.476	3.23
432.832	3.22
433.189	3.23
433.545	3.2
433.901	3.19
434.257	3.19
434.613	3.18
434.969	3.19
435.325	3.19
435.681	3.19
436.036	3.19
436.392	3.2
436.748	3.2
437.104	3.22
437.459	3.19
437.815	3.17
438.171	3.19
438.526	3.18
438.882	3.18
439.237	3.18
439.593	3.16
439.948	3.16
440.304	3.15
440.659	3.15
441.014	3.16
441.369	3.17
441.725	3.17
442.08	3.18
442.435	3.18
442.79	3.16
443.145	3.17
443.5	3.18
443.855	3.17
444.21	3.17
444.565	3.17
444.92	3.18
445.275	3.18
445.629	3.16
445.984	3.15
446.339	3.17
446.693	3.15
447.048	3.15
447.403	3.15
447.757	3.16
448.112	3.16
448.466	3.15
448.82	3.14
449.175	3.13
449.529	3.13
449.883	3.12
450.238	3.14
450.592	3.12
450.946	3.12
451.3	3.11
451.654	3.07
452.008	3.08
452.362	3.06
452.716	3.06
453.07	3.06
453.424	3.06
453.778	3.04
454.132	3.04
454.486	3.05
454.839	3.04
455.193	3.05
455.547	3.04
455.9	3.05
456.254	3.07
456.607	3.06
456.961	3.08
457.314	3.09
457.668	3.09
458.021	3.1
458.375	3.1
458.728	3.09
459.081	3.12
459.434	3.12
459.787	3.14
460.141	3.15
460.494	3.16
460.847	3.15
461.2	3.14
461.553	3.16
461.906	3.18
462.259	3.16
462.611	3.16
462.964	3.16
463.317	3.15
463.67	3.15
464.022	3.17
464.375	3.16
464.728	3.14
465.08	3.15
465.433	3.14
465.785	3.16
466.138	3.17
466.49	3.18
466.843	3.19
467.195	3.19
467.547	3.18
467.899	3.21
468.252	3.22
468.604	3.23
468.956	3.22
469.308	3.22
469.66	3.25
470.012	3.25
470.364	3.27
470.716	3.29
471.068	3.3
471.42	3.31
471.772	3.3
472.123	3.31
472.475	3.31
472.827	3.31
473.178	3.3
473.53	3.31
473.882	3.31
474.233	3.29
474.585	3.29
474.936	3.3
475.288	3.29
475.639	3.31
475.99	3.32
476.342	3.34
476.693	3.31
477.044	3.29
477.395	3.29
477.746	3.28
478.097	3.26
478.448	3.28
478.8	3.26
479.15	3.27
479.501	3.27
479.852	3.28
480.203	3.29
480.554	3.3
480.905	3.29
481.255	3.29
481.606	3.3
481.957	3.31
482.307	3.3
482.658	3.32
483.009	3.31
483.359	3.31
483.709	3.31
484.06	3.32
484.41	3.33
484.761	3.33
485.111	3.34
485.461	3.34
485.811	3.34
486.162	3.35
486.512	3.36
486.862	3.36
487.212	3.36
487.562	3.36
487.912	3.36
488.262	3.36
488.612	3.36
488.961	3.37
489.311	3.37
489.661	3.37
490.011	3.36
490.36	3.36
490.71	3.36
491.06	3.36
491.409	3.35
491.759	3.35
492.108	3.36
492.458	3.35
492.807	3.35
493.157	3.34
493.506	3.34
493.855	3.34
494.204	3.34
494.554	3.32
494.903	3.32
495.252	3.32
495.601	3.34
495.95	3.35
496.299	3.36
496.648	3.37
496.997	3.38
497.346	3.38
497.695	3.4
498.043	3.4
498.392	3.41
498.741	3.43
499.09	3.44
499.438	3.45
499.787	3.46
500.135	3.47
500.484	3.47
500.832	3.49
501.181	3.52
501.529	3.55
501.878	3.58
502.226	3.6
502.574	3.61
502.923	3.6
503.271	3.61
503.619	3.6
503.967	3.6
504.315	3.61
504.663	3.63
505.011	3.66
505.359	3.66
505.707	3.68
506.055	3.71
506.403	3.72
506.751	3.74
507.098	3.76
507.446	3.79
507.794	3.81
508.141	3.82
508.489	3.82
508.837	3.82
509.184	3.84
509.531	3.86
509.879	3.87
510.226	3.91
510.574	3.93
510.921	3.94
511.268	3.96
511.616	3.99
511.963	4
512.31	4
512.657	4.02
513.004	4.03
513.351	4.02
513.698	4.02
514.045	4.02
514.392	4.03
514.739	4.03
515.086	4.05
515.432	4.08
515.779	4.1
516.126	4.14
516.473	4.14
516.819	4.15
517.166	4.16
517.512	4.16
517.859	4.16
518.205	4.18
518.552	4.18
518.898	4.18
519.245	4.18
519.591	4.19
519.937	4.2
520.283	4.2
520.629	4.2
520.976	4.2
521.322	4.22
521.668	4.21
522.014	4.23
522.36	4.22
522.706	4.2
523.052	4.2
523.398	4.18
523.743	4.18
524.089	4.2
524.435	4.22
524.781	4.24
525.126	4.25
525.472	4.27
525.817	4.27
526.163	4.29
526.509	4.3
526.854	4.31
527.199	4.33
527.545	4.34
527.89	4.35
528.235	4.36
528.581	4.36
528.926	4.37
529.271	4.37
529.616	4.38
529.961	4.4
530.306	4.39
530.651	4.41
530.996	4.42
531.341	4.42
531.686	4.42
532.031	4.42
532.376	4.42
532.721	4.42
533.065	4.42
533.41	4.41
533.755	4.41
534.099	4.42
534.444	4.42
534.788	4.39
535.133	4.4
535.477	4.41
535.822	4.41
536.166	4.41
536.51	4.42
536.855	4.42
537.199	4.42
537.543	4.45
537.887	4.46
538.231	4.45
538.576	4.46
538.92	4.45
539.264	4.45
539.608	4.46
539.951	4.47
540.295	4.47
540.639	4.47
540.983	4.48
541.327	4.49
541.671	4.5
542.014	4.54
542.358	4.54
542.701	4.55
543.045	4.55
543.389	4.55
543.732	4.56
544.075	4.56
544.419	4.57
544.762	4.56
545.105	4.57
545.449	4.58
545.792	4.59
546.135	4.59
546.478	4.58
546.821	4.59
547.165	4.58
547.508	4.6
547.851	4.6
548.194	4.6
548.536	4.6
548.879	4.57
549.222	4.57
549.565	4.57
549.908	4.54
550.25	4.55
550.593	4.55
550.936	4.53
551.278	4.55
551.621	4.54
551.963	4.55
552.306	4.54
552.648	4.54
552.991	4.52
553.333	4.54
553.675	4.59
554.017	4.57
554.36	4.58
554.702	4.57
555.044	4.59
555.386	4.58
555.728	4.57
556.07	4.57
556.412	4.55
556.754	4.52
557.096	4.56
557.438	4.55
557.78	4.55
558.121	4.56
558.463	4.55
558.805	4.56
559.147	4.55
559.488	4.54
559.83	4.55
560.171	4.57
560.513	4.57
560.854	4.55
561.196	4.6
561.537	4.61
561.878	4.62
562.22	4.63
562.561	4.67
562.902	4.68
563.243	4.7
563.584	4.71
563.925	4.76
564.266	4.76
564.607	4.79
564.948	4.8
565.289	4.81
565.63	4.78
565.971	4.78
566.312	4.78
566.653	4.78
566.993	4.79
567.334	4.79
567.675	4.8
568.015	4.8
568.356	4.77
568.696	4.75
569.037	4.75
569.377	4.71
569.718	4.7
570.058	4.69
570.398	4.7
570.739	4.67
571.079	4.66
571.419	4.65
571.759	4.64
572.099	4.62
572.439	4.6
572.779	4.64
573.119	4.63
573.459	4.65
573.799	4.65
574.139	4.63
574.479	4.63
574.819	4.61
575.158	4.61
575.498	4.6
575.838	4.62
576.177	4.59
576.517	4.61
576.856	4.61
577.196	4.62
577.535	4.62
577.875	4.64
578.214	4.65
578.553	4.66
578.893	4.72
579.232	4.71
579.571	4.73
579.91	4.69
580.25	4.71
580.589	4.7
580.928	4.71
581.267	4.71
581.606	4.7
581.945	4.68
582.283	4.72
582.622	4.73
582.961	4.74
583.3	4.78
583.639	4.78
583.977	4.78
584.316	4.79
584.654	4.78
584.993	4.78
585.332	4.78
585.67	4.77
586.008	4.71
586.347	4.78
586.685	4.77
587.024	4.8
587.362	4.79
587.7	4.8
588.038	4.81
588.376	4.85
588.715	4.87
589.053	4.9
589.391	4.86
589.729	4.87
590.067	4.88
590.404	4.91
590.742	4.93
591.08	4.94
591.418	4.93
591.756	4.94
592.093	4.93
592.431	4.91
592.769	4.93
593.106	4.98
593.444	4.99
593.781	5.01
594.119	5.02
594.456	5
594.793	5
595.131	4.99
595.468	4.99
595.805	4.98
596.143	4.94
596.48	4.97
596.817	4.98
597.154	4.99
597.491	4.95
597.828	4.93
598.165	4.93
598.502	4.92
598.839	4.93
599.176	4.91
599.512	4.94
599.849	4.96
600.186	4.91
600.523	4.87
600.859	4.84
601.196	4.8
601.532	4.84
601.869	4.87
602.205	4.87
602.542	4.86
602.878	4.89
603.215	4.93
603.551	4.93
603.887	4.93
604.223	4.89
604.56	4.91
604.896	4.94
605.232	4.96
605.568	5
605.904	5.02
606.24	5.04
606.576	5.03
606.912	5.02
607.248	5.02
607.583	4.99
607.919	5
608.255	5.05
608.591	5.08
608.926	5.05
609.262	5.04
609.597	5.03
609.933	5
610.268	4.99
610.604	4.95
610.939	4.95
611.275	5.01
611.61	4.99
611.945	4.94
612.281	4.93
612.616	4.87
612.951	4.88
613.286	4.87
613.621	4.88
613.956	4.9
614.291	4.94
614.626	4.97
614.961	5.02
615.296	5.04
615.631	4.96
615.966	4.95
616.3	4.99
616.635	5.01
616.97	5.03
617.304	5.02
617.639	5.07
617.973	4.99
618.308	4.95
618.642	4.97
618.977	4.99
619.311	5.01
619.646	5.04
619.98	5
620.314	5.01
620.648	5.03
620.983	4.96
621.317	4.97
621.651	5
621.985	4.98
622.319	4.96
622.653	5
622.987	5.01
623.321	5
623.655	5
623.988	4.99
624.322	5.03
624.656	5.01
624.99	5.03
625.323	5.01
625.657	5.03
625.99	5.04
626.324	5.01
626.657	4.98
626.991	4.99
627.324	4.96
627.658	4.96
627.991	5.03
628.324	5.01
628.657	5.04
628.991	5.01
629.324	5.02
629.657	5
629.99	5.02
630.323	5
630.656	5.05
630.989	5.05
631.322	5.06
631.655	5.08
631.987	5.15
632.32	5.18
632.653	5.16
632.986	5.16
633.318	5.17
633.651	5.22
633.984	5.22
634.316	5.25
634.649	5.21
634.981	5.15
635.313	5.17
635.646	5.14
635.978	5.14
636.31	5.14
636.643	5.16
636.975	5.13
637.307	5.15
637.639	5.1
637.971	5.04
638.303	5.02
638.635	5.05
638.967	4.99
639.299	4.99
639.631	4.99
639.963	4.98
640.295	4.97
640.626	4.93
640.958	4.89
641.29	4.94
641.621	5.01
641.953	5
642.285	5.01
642.616	5.01
642.948	5.04
643.279	5.04
643.61	5.08
643.942	5.07
644.273	5.07
644.604	5.08
644.936	5.13
645.267	5.1
645.598	5.08
645.929	5.08
646.26	5.11
646.591	5.13
646.922	5.2
647.253	5.19
647.584	5.24
647.915	5.29
648.245	5.26
648.576	5.25
648.907	5.27
649.238	5.22
649.568	5.21
649.899	5.22
650.229	5.23
650.56	5.23
650.89	5.3
651.221	5.35
651.551	5.35
651.882	5.4
652.212	5.44
652.542	5.49
652.872	5.48
653.203	5.51
653.533	5.54
653.863	5.52
654.193	5.53
654.523	5.52
654.853	5.58
655.183	5.59
655.513	5.62
655.843	5.63
656.172	5.67
656.502	5.67
656.832	5.64
657.162	5.62
657.491	5.62
657.821	5.57
658.15	5.56
658.48	5.6
658.809	5.53
659.139	5.53
659.468	5.44
659.798	5.46
660.127	5.39
660.456	5.36
660.785	5.32
661.115	5.37
661.444	5.36
661.773	5.35
662.102	5.34
662.431	5.29
662.76	5.25
663.089	5.28
663.418	5.27
663.747	5.31
664.076	5.28
664.404	5.26
664.733	5.23
665.062	5.26
665.39	5.2
665.719	5.29
666.048	5.29
666.376	5.38
666.705	5.35
667.033	5.4
667.362	5.34
667.69	5.4
668.018	5.35
668.347	5.34
668.675	5.31
669.003	5.29
669.331	5.27
669.659	5.31
669.987	5.26
670.315	5.28
670.643	5.27
670.971	5.36
671.299	5.32
671.627	5.35
671.955	5.3
672.283	5.28
672.61	5.21
672.938	5.21
673.266	5.18
673.593	5.2
673.921	5.21
674.249	5.19
674.576	5.18
674.904	5.17
675.231	5.2
675.558	5.29
675.886	5.32
676.213	5.3
676.54	5.35
676.867	5.35
677.195	5.4
677.522	5.37
677.849	5.34
678.176	5.36
678.503	5.37
678.83	5.38
679.157	5.41
679.484	5.45
679.81	5.44
680.137	5.47
680.464	5.51
680.791	5.5
681.117	5.61
681.444	5.61
681.771	5.65
682.097	5.67
682.424	5.57
682.75	5.61
683.077	5.67
683.403	5.69
683.729	5.69
684.056	5.71
684.382	5.74
684.708	5.66
685.034	5.63
685.36	5.63
685.686	5.6
686.012	5.64
686.339	5.56
686.664	5.6
686.99	5.5
687.316	5.48
687.642	5.48
687.968	5.48
688.294	5.5
688.619	5.56
688.945	5.57
689.271	5.51
689.596	5.43
689.922	5.42
690.247	5.4
690.573	5.5
690.898	5.54
691.224	5.6
691.549	5.66
691.874	5.76
692.2	5.71
692.525	5.63
692.85	5.64
693.175	5.65
693.5	5.64
693.825	5.78
694.15	5.86
694.475	5.9
694.8	5.76
695.125	5.68
695.45	5.59
695.775	5.53
696.099	5.67
696.424	5.79
696.749	5.79
697.073	5.8
697.398	5.77
697.723	5.75
698.047	5.75
698.372	5.76
698.696	5.71
699.02	5.85
699.345	5.93
699.669	5.9
699.993	5.96
700.318	5.99
700.642	5.95
700.966	5.9
701.29	5.9
701.614	6.01
701.938	6.08
702.262	6.1
702.586	6.22
702.91	6.21
703.234	6.23
703.557	6.21
703.881	6.2
704.205	6.12
704.529	6.01
704.852	5.92
705.176	5.93
705.499	5.91
705.823	5.88
706.146	5.91
706.47	5.95
706.793	5.9
707.117	5.91
707.44	5.91
707.763	5.85
708.086	5.73
708.409	5.6
708.733	5.52
709.056	5.45
709.379	5.47
709.702	5.45
710.025	5.47
710.348	5.53
710.671	5.58
710.993	5.71
711.316	5.8
711.639	5.81
711.962	5.79
712.284	5.79
712.607	5.75
712.93	5.76
713.252	5.66
713.575	5.81
713.897	5.81
714.22	5.78
714.542	5.86
714.864	5.95
715.187	6.12
715.509	6.24
715.831	6.33
716.153	6.19
716.475	6.26
716.798	6.21
717.12	6.15
717.442	6.21
717.764	6.19
718.085	6.28
718.407	6.31
718.729	6.43
719.051	6.5
719.373	6.58
719.695	6.52
720.016	6.54
720.338	6.43
720.659	6.51
720.981	6.58
721.302	6.7
721.624	6.79
721.945	6.7
722.267	6.56
722.588	6.59
722.909	6.71
723.231	6.5
723.552	6.48
723.873	6.5
724.194	6.29
724.515	6.29
724.836	6.09
725.157	6.32
725.478	6.21
725.799	6.24
726.12	6.32
726.441	6.38
726.762	6.56
727.083	6.73
727.403	6.63
727.724	6.44
728.045	6.45
728.365	6.54
728.686	6.62
729.006	6.65
729.327	6.64
729.647	6.55
729.967	6.75
730.288	6.71
730.608	6.77
730.928	6.94
731.249	6.91
731.569	6.99
731.889	6.79
732.209	6.72
732.529	6.67
732.849	6.66
733.169	6.67
733.489	6.41
733.809	6.44
734.129	6.43
734.448	6.65
734.768	6.54
735.088	6.33
735.408	6.26
735.727	6.4
736.047	6.57
736.366	6.63
736.686	6.59
737.005	6.7
737.325	6.8
737.644	6.61
737.963	6.63
738.283	6.54
738.602	6.69
738.921	6.89
739.24	7
739.56	7.07
739.879	7.02
740.198	7.27
740.517	7.02
740.836	7.08
741.155	7.1
741.473	7.1
741.792	7.2
742.111	7.37
742.43	7.3
742.748	7.1
743.067	7
743.386	6.79
743.704	6.72
744.023	6.64
744.341	6.85
744.66	6.55
744.978	6.66
745.297	6.45
745.615	6.22
745.933	6.08
746.252	6.06
746.57	6.19
746.888	6.21
747.206	6.39
747.524	6.35
747.842	6.04
748.16	6.15
748.478	6.03
748.796	5.9
749.114	5.8
749.432	5.72
749.749	5.74
750.067	5.93
750.385	5.91
750.703	5.9
751.02	5.75
751.338	5.99
751.655	6.04
751.973	6.33
752.29	6.55
752.608	6.77
752.925	6.74
753.242	6.74
753.56	6.49
753.877	6.32
754.194	6.49
754.511	6.47
754.828	6.37
755.145	6.62
755.462	6.44
755.779	6.72
756.096	6.88
756.413	6.91
756.73	7.04
757.047	6.86
757.364	6.89
757.68	7.07
757.997	7.19
758.314	7.26
758.63	7.02
758.947	6.9
759.264	6.69
759.58	6.6
759.896	6.64
760.213	6.98
760.529	7.24
760.846	7.19
761.162	7.34
761.478	7.32
761.794	7.36
762.11	7.59
762.426	7.24
762.743	7.26
763.059	7.48
763.375	7.4
763.69	7.54
764.006	7.47
764.322	7.49
764.638	7.57
764.954	7.54
765.27	7.53
765.585	7.67
765.901	7.69
766.216	7.85
766.532	7.73
766.848	7.55
767.163	7.65
767.478	7.55
767.794	7.56
768.109	7.52
768.424	7.55
768.74	7.4
769.055	7.78
769.37	7.75
769.685	7.52
770	7.72
770.315	7.89
770.63	7.92
770.945	7.76
771.26	7.67
771.575	7.45
771.89	7.61
772.205	7.58
772.52	7.53
772.834	7.33
773.149	7.35
773.464	7.26
773.778	7.22
774.093	7.52
774.407	7.9
774.722	8.05
775.036	8.02
775.351	8.07
775.665	8
775.979	7.7
776.293	7.85
776.608	7.53
776.922	7.18
777.236	7.27
777.55	7.23
777.864	7.34
778.178	7.53
778.492	7.28
778.806	7.15
779.12	7.33
779.434	7.1
779.747	7.27
780.061	7.64
780.375	7.11
780.689	6.69
781.002	5.96
781.316	5.94
781.629	5.76
781.943	5.82
782.256	5.46
782.57	6.17
782.883	6.66
783.196	6.74
783.51	6.82
783.823	7.01
784.136	6.94
784.449	6.72
784.762	6.88
785.075	7.13
785.388	7.28
785.701	7.27
786.014	7.65
786.327	7.52
786.64	7.28
786.953	7.76
787.266	8.05
787.578	8.5
787.891	8.49
788.204	8.4
788.516	8.41
788.829	8.68
789.141	8.64
789.454	8.26
789.766	8.32
790.079	8.66
790.391	8.24
790.703	8.37
791.016	8.67
791.328	8.39
791.64	8.45
791.952	8.48
792.264	8.45
792.576	9.04
792.888	8.92
793.2	9.2
793.512	9.05
793.824	9.32
794.136	9.17
794.448	9.17
794.76	9.64
795.071	9.46
795.383	9.38
795.695	8.96
796.006	8.71
796.318	8.58
796.629	8.17
796.941	8.59
797.252	8.81
797.564	8.78
797.875	8.74
798.186	8.64
798.497	8.63
798.809	8.82
799.12	7.78
799.431	7.77
799.742	7.57
800.053	7.44
800.364	7.28
800.675	7.81
800.986	7.95
801.297	7.66
801.608	7.73
801.918	7.68
802.229	7.93
802.54	8.18
802.851	8.12
803.161	7.81
803.472	7.81
803.782	8.07
804.093	7.38
804.403	7.76
804.714	8.17
805.024	8.37
805.334	8.06
805.645	8.48
805.955	9.13
806.265	9.4
806.575	9.13
806.885	8.63
807.195	8.4
807.505	8.93
807.815	8.58
808.125	8.6
808.435	8.84
808.745	8.95
809.055	9.07
809.365	9.41
809.674	10.36
809.984	10.18
810.294	9.84
810.603	10.12
810.913	9.92
811.222	9.38
811.532	9.26
811.841	9.55
812.151	9.52
812.46	9.2
812.769	8.61
813.079	9.36
813.388	9.84
813.697	9.24
814.006	8
814.315	8.25
814.624	8.46
814.933	8.63
815.242	8.58
815.551	8.05
815.86	7.79
816.169	7.59
816.478	7.66
816.786	8.08
817.095	8.07
817.404	8.41
817.712	8.98
818.021	9.08
818.33	8.66
818.638	8.79
818.947	9.02
819.255	9.69
819.563	9.4
819.872	9.34
820.18	9.68
820.488	10.01
820.796	10.06
821.105	10.19
821.413	10.15
821.721	10.05
822.029	9.95
822.337	9.96
822.645	9.98
822.953	10.12
823.26	10.1
823.568	10.2
823.876	10.17
824.184	10.1
824.491	10.02
824.799	10.17
825.107	10.16
825.414	10.06
825.722	9.91
826.029	9.93
826.337	10.09
826.644	10.05
826.951	10.08
827.259	10.2
827.566	10.01
827.873	9.9
828.18	9.91
828.488	10.24
828.795	10.38
829.102	10.41
829.409	10.06
829.716	9.9
830.023	9.8
830.329	9.87
830.636	9.9
830.943	9.9
831.25	9.61
831.557	9.51
831.863	9.64
832.17	9.64
832.476	9.53
832.783	9.12
833.089	9.4
833.396	9.35
833.702	9.13
834.009	9.29
834.315	9.48
834.621	9.46
834.928	9.14
835.234	8.89
835.54	8.59
835.846	9.16
836.152	8.97
836.458	9.08
836.764	8.94
837.07	8.75
837.376	8.57
837.682	8.7
837.988	8.93
838.293	8.61
838.599	8.33
838.905	8.72
839.211	8.92
839.516	8.15
839.822	7.92
840.127	7.5
840.433	7.08
840.738	6.7
841.044	6.5
841.349	6.6
841.654	6.37
841.959	7.34
842.265	5.88
842.57	6.56
842.875	6.06
843.18	5.33
843.485	6.14
843.79	6.12
844.095	6.41
844.4	6.22
844.705	7.98
845.01	8.6
845.315	6.99
845.619	6.91
845.924	6.49
846.229	6.63
846.533	6.32
846.838	6.38
847.142	7.49
847.447	8.89
847.751	8.64
848.056	8.51
848.36	7.63
848.664	8.36
848.969	6.97
849.273	6.83
849.577	9.2
849.881	8.44
850.185	8.26
850.489	7.74
850.794	7.8
851.097	6.62
851.401	4.72
851.705	7.31
852.009	7.56
852.313	8.26
852.617	8.46
852.92	9.25
853.224	11.21
853.528	9.9
853.831	9.11
854.135	10.25
854.438	11.52
854.742	11.05
855.045	12.36
855.349	11.57
855.652	13.65
855.955	13.06
856.259	13.04
856.562	12.57
856.865	12.01
857.168	11.28
857.471	9.93
857.774	11.02
858.077	9.55
858.38	9.56
858.683	10.17
858.986	11.04
859.289	11.2
859.592	9.6
859.894	7.59
860.197	8.1
860.5	7.34
860.802	7.01
861.105	6.27
861.407	5.61
861.71	5.79
862.012	5.37
862.315	5.77
862.617	6.13
862.919	6.6
863.222	5.4
863.524	5.26
863.826	4.76
864.128	6.62
864.43	7.8
864.732	6.5
865.034	8.29
865.336	6.89
865.638	6.65
865.94	7.03
866.242	8.98
866.544	9.71
866.846	10.25
867.147	12.08
867.449	12.71
867.751	13.44
868.052	14.22
868.354	13.71
868.655	12.29
868.957	11.67
869.258	13.02
869.56	16.28
869.861	16.01
870.162	15.62
870.463	15.01
870.765	15.41
871.066	17.04
871.367	15.49
871.668	14.74
871.969	13.64
872.27	12.29
872.571	14.24
872.872	12.39
873.173	11.21
873.473	8.17
873.774	10.3
874.075	9.99
874.376	10.01
874.676	10.15
874.977	9.74
875.277	9.92
875.578	9.74
875.878	8.96
876.179	9.61
876.479	11.53
876.78	11.03
877.08	10.36
877.38	9.39
877.68	8.96
877.981	9.94
878.281	12.91
878.581	15.32
