Data from BU26849_Reflection_00015.txt Node
Date: Mon Nov 18 16:43:33 EST 2019
User: vgr7
Spectrometer: USB2G7710
Scans to average: 3
Trigger mode: 4
Integration Time (sec): 2.000000E-2
Electric dark correction enabled: true
Boxcar width: 10
XAxis mode: Wavelengths
Number of Pixels in Spectrum: 2048
>>>>>Begin Spectral Data<<<<<
177.721	65.06
178.105	63.4
178.488	104.61
178.871	43.66
179.254	27.67
179.636	-5.8
180.019	11.07
180.402	103.23
180.785	74.73
181.168	342.72
181.55	160.09
181.933	82.77
182.316	110.39
182.698	67.06
183.081	88.06
183.463	97.84
183.846	152.08
184.228	122.23
184.611	158.79
184.993	362.05
185.376	517.34
185.758	278.97
186.14	244.75
186.522	607.23
186.904	303.52
187.287	224.51
187.669	1161.58
188.051	-3506.3
188.433	-706.17
188.815	-192.85
189.197	-218.98
189.579	-171.87
189.961	-132.12
190.342	-106.31
190.724	-82.64
191.106	-101.28
191.488	-106.76
191.869	-73.85
192.251	-106.94
192.633	-90.91
193.014	-100.21
193.396	-122.86
193.777	-125.1
194.159	-101.05
194.54	-73.91
194.922	-105.59
195.303	-84.86
195.684	-69.75
196.065	-40.99
196.447	-37.62
196.828	-65.94
197.209	-71.89
197.59	-85
197.971	-55.2
198.352	-38.49
198.733	-43.97
199.114	-33.63
199.495	-31.87
199.876	-27.63
200.257	-28.76
200.638	-36.05
201.018	-43.96
201.399	-35.2
201.78	-31.81
202.16	-34.53
202.541	-56.86
202.922	-42.12
203.302	-50.77
203.683	-59.76
204.063	-77.44
204.444	-79.44
204.824	-75.76
205.204	-58.55
205.585	-52.66
205.965	-64.29
206.345	-84.92
206.725	-91.02
207.106	-139.6
207.486	-132.31
207.866	-129.06
208.246	-152.16
208.626	-157.51
209.006	-118.33
209.386	-154.79
209.766	-150.82
210.145	-111.64
210.525	-85.36
210.905	-102.79
211.285	-87.72
211.664	-82.49
212.044	-78.71
212.424	-84.7
212.803	-117.7
213.183	-119.38
213.562	-139.05
213.942	-110.6
214.321	-74.19
214.701	-69.78
215.08	-48.67
215.459	-74.51
215.838	-69.67
216.218	-77.1
216.597	-60.44
216.976	-65.18
217.355	-50.55
217.734	-59.11
218.113	-59.4
218.492	-51.45
218.871	-48.2
219.25	-39.27
219.629	-37.45
220.008	-35.15
220.387	-26.69
220.766	-18.06
221.144	-26.46
221.523	-35.88
221.902	-37.9
222.28	-38.15
222.659	-24.18
223.037	-15.17
223.416	-11.52
223.794	-19.39
224.173	-13.6
224.551	-12.54
224.929	-21.61
225.308	-22.72
225.686	-21.59
226.064	-19.95
226.442	-21.58
226.821	-18.22
227.199	-19.45
227.577	-15.06
227.955	-12.28
228.333	-12.09
228.711	-7.29
229.089	-3.78
229.467	-3.04
229.845	-4.72
230.222	-5.48
230.6	-8.96
230.978	-8.61
231.356	-5.62
231.733	-2.38
232.111	-0.67
232.488	-0.1
232.866	1.82
233.243	-0.02
233.621	-0.33
233.998	0.28
234.376	0.1
234.753	-0.93
235.13	-1.43
235.508	-1.42
235.885	-1.57
236.262	-1.76
236.639	-3.06
237.016	-3.51
237.393	-2.53
237.77	-2.57
238.147	-1.65
238.524	-1.16
238.901	-1.1
239.278	-0.42
239.655	-0.17
240.032	-0.43
240.409	-1.04
240.785	-0.18
241.162	0.85
241.539	1.34
241.915	1
242.292	1.26
242.668	1.73
243.045	2.15
243.421	2.29
243.798	1.87
244.174	1.78
244.551	2.13
244.927	2.36
245.303	2.54
245.679	2.73
246.056	2.83
246.432	2.77
246.808	2.66
247.184	2.37
247.56	2.36
247.936	2.36
248.312	2.32
248.688	2.11
249.064	2
249.44	2.07
249.815	2.16
250.191	2.22
250.567	2.25
250.943	2.03
251.318	2.27
251.694	2.36
252.069	2.26
252.445	2.03
252.82	1.73
253.196	1.4
253.571	1.21
253.947	0.65
254.322	0.8
254.697	0.72
255.073	1.07
255.448	0.67
255.823	0.89
256.198	0.95
256.573	1.09
256.948	1.29
257.323	1.39
257.698	1.35
258.073	1.47
258.448	1.42
258.823	1.41
259.198	1.05
259.573	1.13
259.948	1.26
260.322	1.38
260.697	1.44
261.072	1.5
261.446	1.52
261.821	1.68
262.195	1.73
262.57	1.82
262.944	1.61
263.319	1.85
263.693	1.76
264.067	2.02
264.442	2.13
264.816	2.04
265.19	1.86
265.564	2.17
265.938	2.09
266.313	1.89
266.687	2.23
267.061	2.53
267.435	2.67
267.809	2.8
268.183	2.65
268.556	2.63
268.93	2.83
269.304	2.9
269.678	3
270.051	2.84
270.425	2.84
270.799	2.94
271.172	2.83
271.546	2.95
271.919	2.87
272.293	2.87
272.666	2.9
273.04	2.96
273.413	2.78
273.787	2.69
274.16	2.81
274.533	2.59
274.906	2.35
275.279	2.18
275.653	2.12
276.026	2.21
276.399	2.09
276.772	2.05
277.145	2.01
277.518	2
277.891	2.14
278.263	2.05
278.636	2.09
279.009	2.09
279.382	2.25
279.755	2.06
280.127	2.18
280.5	2.33
280.872	2.46
281.245	2.62
281.617	2.9
281.99	2.98
282.362	3.15
282.735	3.13
283.107	3.24
283.479	3.29
283.852	3.29
284.224	3.43
284.596	3.33
284.968	3.24
285.34	3.19
285.713	3.19
286.085	3.37
286.457	3.34
286.829	3.51
287.201	3.44
287.572	3.5
287.944	3.42
288.316	3.43
288.688	3.31
289.06	3.25
289.431	3.11
289.803	3.23
290.175	3.16
290.546	3.38
290.918	3.42
291.289	3.37
291.661	3.51
292.032	3.44
292.403	3.54
292.775	3.68
293.146	3.7
293.517	3.56
293.889	3.54
294.26	3.59
294.631	3.53
295.002	3.5
295.373	3.48
295.744	3.38
296.115	3.27
296.486	3.33
296.857	3.32
297.228	3.36
297.599	3.15
297.97	3.14
298.34	3.15
298.711	3.28
299.082	3.24
299.452	3.24
299.823	3.37
300.194	3.35
300.564	3.3
300.935	3.34
301.305	3.37
301.676	3.3
302.046	3.36
302.416	3.44
302.787	3.51
303.157	3.62
303.527	3.68
303.897	3.84
304.267	4.05
304.637	3.94
305.008	3.98
305.378	4.16
305.748	4.14
306.117	4.08
306.487	3.92
306.857	4.01
307.227	3.76
307.597	3.74
307.967	3.74
308.336	3.84
308.706	3.84
309.076	3.93
309.445	4.1
309.815	4.03
310.184	3.96
310.554	3.99
310.923	3.93
311.293	3.99
311.662	3.98
312.031	3.84
312.401	3.95
312.77	4.1
313.139	4.2
313.508	4.36
313.877	4.42
314.246	4.54
314.616	4.51
314.985	4.73
315.353	4.7
315.722	4.86
316.091	4.86
316.46	4.77
316.829	4.8
317.198	4.81
317.567	5.03
317.935	5.16
318.304	5.14
318.672	5.28
319.041	5.38
319.41	5.42
319.778	5.65
320.147	5.79
320.515	5.65
320.883	5.64
321.252	5.69
321.62	5.73
321.988	5.54
322.357	5.6
322.725	5.6
323.093	5.73
323.461	5.61
323.829	5.73
324.197	5.86
324.565	5.94
324.933	5.89
325.301	5.88
325.669	5.91
326.037	5.94
326.405	6.03
326.772	6.19
327.14	6.2
327.508	6.12
327.875	5.99
328.243	6.03
328.61	5.9
328.978	5.98
329.346	6.12
329.713	6.17
330.08	6.24
330.448	6.21
330.815	6.23
331.182	6.36
331.55	6.54
331.917	6.65
332.284	6.67
332.651	6.68
333.018	6.61
333.385	6.61
333.752	6.69
334.119	6.72
334.486	6.61
334.853	6.66
335.22	6.7
335.587	7.01
335.954	7.02
336.32	7.27
336.687	7.25
337.054	7.17
337.42	7.31
337.787	7.38
338.153	7.45
338.52	7.49
338.886	7.41
339.253	7.15
339.619	7.19
339.986	7.23
340.352	7.36
340.718	7.3
341.084	7.35
341.451	7.4
341.817	7.41
342.183	7.35
342.549	7.33
342.915	7.38
343.281	7.3
343.647	7.3
344.013	7.28
344.379	7.27
344.745	7.29
345.11	7.31
345.476	7.41
345.842	7.49
346.208	7.43
346.573	7.6
346.939	7.81
347.304	7.78
347.67	7.68
348.035	7.62
348.401	7.71
348.766	7.65
349.132	7.72
349.497	7.66
349.862	7.85
350.228	7.83
350.593	7.74
350.958	7.71
351.323	7.79
351.688	7.73
352.053	7.75
352.418	7.77
352.783	7.73
353.148	7.77
353.513	7.67
353.878	7.76
354.243	7.72
354.608	7.67
354.972	7.68
355.337	7.84
355.702	7.92
356.066	8
356.431	8.12
356.795	8.01
357.16	8.03
357.524	7.94
357.889	7.96
358.253	8
358.618	8.04
358.982	7.96
359.346	7.88
359.71	7.78
360.075	7.77
360.439	7.77
360.803	7.68
361.167	7.7
361.531	7.59
361.895	7.55
362.259	7.53
362.623	7.45
362.987	7.36
363.351	7.32
363.714	7.22
364.078	7.12
364.442	7.08
364.806	7.03
365.169	7
365.533	6.94
365.896	6.88
366.26	6.78
366.623	6.75
366.987	6.84
367.35	6.94
367.714	6.86
368.077	6.82
368.44	6.82
368.803	6.72
369.167	6.71
369.53	6.6
369.893	6.61
370.256	6.64
370.619	6.62
370.982	6.51
371.345	6.51
371.708	6.48
372.071	6.4
372.434	6.36
372.797	6.26
373.159	6.19
373.522	6.22
373.885	6.17
374.247	6.16
374.61	6.05
374.973	5.97
375.335	5.95
375.698	5.95
376.06	5.89
376.423	5.87
376.785	5.82
377.147	5.88
377.51	5.73
377.872	5.78
378.234	5.74
378.596	5.72
378.958	5.62
379.321	5.6
379.683	5.59
380.045	5.57
380.407	5.62
380.769	5.57
381.13	5.54
381.492	5.53
381.854	5.47
382.216	5.46
382.578	5.42
382.939	5.34
383.301	5.27
383.663	5.2
384.024	5.17
384.386	5.16
384.747	5.1
385.109	5.12
385.47	4.95
385.832	4.91
386.193	4.9
386.554	4.91
386.916	4.86
387.277	4.84
387.638	4.76
387.999	4.67
388.36	4.71
388.721	4.63
389.082	4.56
389.443	4.53
389.804	4.46
390.165	4.44
390.526	4.42
390.887	4.41
391.248	4.41
391.609	4.4
391.969	4.38
392.33	4.32
392.691	4.29
393.051	4.31
393.412	4.32
393.772	4.27
394.133	4.23
394.493	4.2
394.854	4.21
395.214	4.24
395.574	4.19
395.935	4.13
396.295	4.11
396.655	4.12
397.015	4.09
397.376	4.09
397.736	4.05
398.096	4.06
398.456	4.01
398.816	4.03
399.176	3.98
399.535	3.95
399.895	3.93
400.255	3.89
400.615	3.88
400.975	3.82
401.334	3.78
401.694	3.79
402.054	3.75
402.413	3.72
402.773	3.68
403.132	3.66
403.492	3.64
403.851	3.64
404.211	3.6
404.57	3.6
404.929	3.59
405.288	3.56
405.648	3.53
406.007	3.52
406.366	3.45
406.725	3.51
407.084	3.49
407.443	3.47
407.802	3.48
408.161	3.44
408.52	3.41
408.879	3.42
409.238	3.41
409.596	3.42
409.955	3.39
410.314	3.39
410.673	3.39
411.031	3.38
411.39	3.36
411.748	3.36
412.107	3.33
412.465	3.31
412.824	3.3
413.182	3.28
413.54	3.27
413.899	3.28
414.257	3.23
414.615	3.22
414.974	3.23
415.332	3.2
415.69	3.18
416.048	3.18
416.406	3.17
416.764	3.15
417.122	3.13
417.48	3.12
417.838	3.12
418.195	3.13
418.553	3.12
418.911	3.08
419.269	3.07
419.626	3.08
419.984	3.06
420.342	3.07
420.699	3.06
421.057	3.07
421.414	3.05
421.772	3.04
422.129	3.04
422.486	3.03
422.844	3.03
423.201	3.02
423.558	3.02
423.915	3.01
424.273	3
424.63	3
424.987	2.99
425.344	2.97
425.701	2.96
426.058	2.94
426.415	2.96
426.772	2.96
427.128	2.94
427.485	2.95
427.842	2.95
428.199	2.95
428.555	2.94
428.912	2.93
429.269	2.95
429.625	2.92
429.982	2.92
430.338	2.93
430.695	2.94
431.051	2.91
431.407	2.91
431.764	2.89
432.12	2.88
432.476	2.89
432.832	2.88
433.189	2.88
433.545	2.92
433.901	2.91
434.257	2.91
434.613	2.91
434.969	2.91
435.325	2.9
435.681	2.88
436.036	2.88
436.392	2.88
436.748	2.89
437.104	2.9
437.459	2.89
437.815	2.88
438.171	2.88
438.526	2.89
438.882	2.9
439.237	2.9
439.593	2.92
439.948	2.9
440.304	2.9
440.659	2.91
441.014	2.89
441.369	2.88
441.725	2.86
442.08	2.85
442.435	2.85
442.79	2.84
443.145	2.85
443.5	2.84
443.855	2.84
444.21	2.82
444.565	2.82
444.92	2.85
445.275	2.84
445.629	2.85
445.984	2.85
446.339	2.84
446.693	2.84
447.048	2.81
447.403	2.82
447.757	2.82
448.112	2.79
448.466	2.78
448.82	2.8
449.175	2.81
449.529	2.81
449.883	2.82
450.238	2.82
450.592	2.8
450.946	2.8
451.3	2.79
451.654	2.8
452.008	2.79
452.362	2.75
452.716	2.76
453.07	2.74
453.424	2.74
453.778	2.73
454.132	2.71
454.486	2.71
454.839	2.69
455.193	2.67
455.547	2.67
455.9	2.69
456.254	2.69
456.607	2.68
456.961	2.68
457.314	2.68
457.668	2.68
458.021	2.68
458.375	2.68
458.728	2.67
459.081	2.67
459.434	2.66
459.787	2.67
460.141	2.68
460.494	2.68
460.847	2.67
461.2	2.65
461.553	2.68
461.906	2.69
462.259	2.71
462.611	2.74
462.964	2.76
463.317	2.77
463.67	2.77
464.022	2.77
464.375	2.77
464.728	2.76
465.08	2.76
465.433	2.79
465.785	2.79
466.138	2.82
466.49	2.83
466.843	2.83
467.195	2.83
467.547	2.84
467.899	2.86
468.252	2.87
468.604	2.9
468.956	2.89
469.308	2.9
469.66	2.9
470.012	2.89
470.364	2.9
470.716	2.9
471.068	2.88
471.42	2.89
471.772	2.91
472.123	2.94
472.475	2.92
472.827	2.93
473.178	2.96
473.53	2.96
473.882	2.96
474.233	2.98
474.585	2.97
474.936	2.96
475.288	2.96
475.639	2.96
475.99	2.97
476.342	2.99
476.693	2.99
477.044	3.02
477.395	3.01
477.746	2.99
478.097	2.98
478.448	3
478.8	3.01
479.15	2.99
479.501	2.98
479.852	2.98
480.203	2.97
480.554	2.96
480.905	2.95
481.255	2.95
481.606	2.95
481.957	2.95
482.307	2.95
482.658	2.94
483.009	2.94
483.359	2.93
483.709	2.93
484.06	2.93
484.41	2.92
484.761	2.94
485.111	2.95
485.461	2.95
485.811	2.94
486.162	2.93
486.512	2.93
486.862	2.93
487.212	2.94
487.562	2.95
487.912	2.94
488.262	2.93
488.612	2.94
488.961	2.94
489.311	2.94
489.661	2.94
490.011	2.94
490.36	2.94
490.71	2.95
491.06	2.94
491.409	2.93
491.759	2.93
492.108	2.92
492.458	2.91
492.807	2.91
493.157	2.93
493.506	2.95
493.855	2.94
494.204	2.93
494.554	2.93
494.903	2.93
495.252	2.94
495.601	2.97
495.95	2.98
496.299	2.99
496.648	3.01
496.997	3.05
497.346	3.07
497.695	3.1
498.043	3.12
498.392	3.13
498.741	3.16
499.09	3.19
499.438	3.22
499.787	3.25
500.135	3.3
500.484	3.32
500.832	3.33
501.181	3.38
501.529	3.41
501.878	3.45
502.226	3.5
502.574	3.55
502.923	3.57
503.271	3.6
503.619	3.65
503.967	3.72
504.315	3.76
504.663	3.82
505.011	3.87
505.359	3.92
505.707	4
506.055	4.05
506.403	4.11
506.751	4.18
507.098	4.26
507.446	4.34
507.794	4.4
508.141	4.48
508.489	4.55
508.837	4.63
509.184	4.71
509.531	4.78
509.879	4.87
510.226	4.98
510.574	5.07
510.921	5.14
511.268	5.21
511.616	5.31
511.963	5.4
512.31	5.48
512.657	5.61
513.004	5.71
513.351	5.84
513.698	5.96
514.045	6.07
514.392	6.17
514.739	6.29
515.086	6.44
515.432	6.54
515.779	6.65
516.126	6.78
516.473	6.91
516.819	7.03
517.166	7.16
517.512	7.27
517.859	7.38
518.205	7.5
518.552	7.6
518.898	7.7
519.245	7.82
519.591	7.92
519.937	8.03
520.283	8.15
520.629	8.27
520.976	8.41
521.322	8.55
521.668	8.71
522.014	8.86
522.36	9
522.706	9.19
523.052	9.37
523.398	9.55
523.743	9.72
524.089	9.91
524.435	10.07
524.781	10.22
525.126	10.4
525.472	10.54
525.817	10.68
526.163	10.81
526.509	10.93
526.854	11.06
527.199	11.15
527.545	11.26
527.89	11.38
528.235	11.51
528.581	11.63
528.926	11.75
529.271	11.86
529.616	11.99
529.961	12.1
530.306	12.24
530.651	12.37
530.996	12.51
531.341	12.66
531.686	12.81
532.031	12.97
532.376	13.13
532.721	13.3
533.065	13.47
533.41	13.65
533.755	13.83
534.099	14.01
534.444	14.22
534.788	14.43
535.133	14.58
535.477	14.78
535.822	14.97
536.166	15.19
536.51	15.46
536.855	15.69
537.199	15.95
537.543	16.23
537.887	16.5
538.231	16.75
538.576	17
538.92	17.27
539.264	17.52
539.608	17.73
539.951	17.97
540.295	18.2
540.639	18.42
540.983	18.66
541.327	18.86
541.671	19.09
542.014	19.28
542.358	19.51
542.701	19.72
543.045	19.93
543.389	20.15
543.732	20.36
544.075	20.58
544.419	20.82
544.762	21.04
545.105	21.29
545.449	21.55
545.792	21.84
546.135	22.14
546.478	22.47
546.821	22.83
547.165	23.13
547.508	23.46
547.851	23.79
548.194	24.05
548.536	24.4
548.879	24.74
549.222	25.06
549.565	25.37
549.908	25.69
550.25	26.02
550.593	26.36
550.936	26.7
551.278	27.04
551.621	27.4
551.963	27.72
552.306	28
552.648	28.32
552.991	28.64
553.333	28.92
553.675	29.16
554.017	29.44
554.36	29.76
554.702	30.07
555.044	30.33
555.386	30.65
555.728	30.94
556.07	31.24
556.412	31.57
556.754	31.9
557.096	32.25
557.438	32.54
557.78	32.81
558.121	33.09
558.463	33.35
558.805	33.66
559.147	33.98
559.488	34.28
559.83	34.55
560.171	34.86
560.513	35.21
560.854	35.52
561.196	35.79
561.537	36.03
561.878	36.27
562.22	36.57
562.561	36.87
562.902	37.16
563.243	37.44
563.584	37.7
563.925	37.91
564.266	38.12
564.607	38.38
564.948	38.61
565.289	38.83
565.63	39.08
565.971	39.26
566.312	39.47
566.653	39.69
566.993	39.94
567.334	40.13
567.675	40.25
568.015	40.47
568.356	40.68
568.696	40.91
569.037	41.15
569.377	41.35
569.718	41.56
570.058	41.72
570.398	41.85
570.739	41.98
571.079	42.17
571.419	42.36
571.759	42.48
572.099	42.65
572.439	42.8
572.779	42.93
573.119	43.08
573.459	43.2
573.799	43.35
574.139	43.45
574.479	43.6
574.819	43.72
575.158	43.81
575.498	44.01
575.838	44.2
576.177	44.33
576.517	44.48
576.856	44.64
577.196	44.81
577.535	45.01
577.875	45.24
578.214	45.42
578.553	45.58
578.893	45.77
579.232	45.96
579.571	46.16
579.91	46.31
580.25	46.44
580.589	46.62
580.928	46.78
581.267	46.98
581.606	47.04
581.945	47.2
582.283	47.35
582.622	47.42
582.961	47.5
583.3	47.57
583.639	47.6
583.977	47.72
584.316	47.85
584.654	47.98
584.993	48.08
585.332	48.14
585.67	48.21
586.008	48.29
586.347	48.3
586.685	48.3
587.024	48.43
587.362	48.53
587.7	48.58
588.038	48.65
588.376	48.75
588.715	48.89
589.053	49.05
589.391	49.07
589.729	49.1
590.067	49.15
590.404	49.25
590.742	49.46
591.08	49.47
591.418	49.54
591.756	49.53
592.093	49.56
592.431	49.63
592.769	49.74
593.106	49.83
593.444	49.98
593.781	50.11
594.119	50.22
594.456	50.26
594.793	50.38
595.131	50.47
595.468	50.57
595.805	50.54
596.143	50.56
596.48	50.73
596.817	50.81
597.154	50.91
597.491	50.95
597.828	50.93
598.165	51.04
598.502	51.09
598.839	51.22
599.176	51.3
599.512	51.42
599.849	51.51
600.186	51.57
600.523	51.59
600.859	51.63
601.196	51.75
601.532	51.86
601.869	51.93
602.205	51.98
602.542	52.08
602.878	52.21
603.215	52.28
603.551	52.29
603.887	52.32
604.223	52.34
604.56	52.39
604.896	52.47
605.232	52.51
605.568	52.57
605.904	52.55
606.24	52.65
606.576	52.67
606.912	52.73
607.248	52.78
607.583	52.83
607.919	52.93
608.255	52.87
608.591	52.94
608.926	53
609.262	53.07
609.597	53.08
609.933	53.15
610.268	53.17
610.604	53.23
610.939	53.3
611.275	53.38
611.61	53.44
611.945	53.45
612.281	53.52
612.616	53.52
612.951	53.69
613.286	53.77
613.621	53.8
613.956	53.83
614.291	53.89
614.626	53.96
614.961	54.06
615.296	54.16
615.631	54.2
615.966	54.15
616.3	54.23
616.635	54.23
616.97	54.3
617.304	54.31
617.639	54.26
617.973	54.32
618.308	54.31
618.642	54.36
618.977	54.39
619.311	54.36
619.646	54.42
619.98	54.38
620.314	54.31
620.648	54.37
620.983	54.35
621.317	54.29
621.651	54.38
621.985	54.29
622.319	54.33
622.653	54.3
622.987	54.4
623.321	54.41
623.655	54.4
623.988	54.39
624.322	54.4
624.656	54.51
624.99	54.57
625.323	54.66
625.657	54.72
625.99	54.79
626.324	54.77
626.657	54.76
626.991	54.73
627.324	54.79
627.658	54.8
627.991	54.89
628.324	54.99
628.657	55.01
628.991	55.08
629.324	55.12
629.657	55.22
629.99	55.22
630.323	55.26
630.656	55.31
630.989	55.34
631.322	55.47
631.655	55.53
631.987	55.49
632.32	55.48
632.653	55.49
632.986	55.54
633.318	55.6
633.651	55.68
633.984	55.69
634.316	55.66
634.649	55.63
634.981	55.59
635.313	55.62
635.646	55.61
635.978	55.6
636.31	55.59
636.643	55.52
636.975	55.57
637.307	55.54
637.639	55.58
637.971	55.62
638.303	55.61
638.635	55.55
638.967	55.64
639.299	55.72
639.631	55.76
639.963	55.66
640.295	55.68
640.626	55.7
640.958	55.72
641.29	55.69
641.621	55.74
641.953	55.73
642.285	55.83
642.616	55.69
642.948	55.79
643.279	55.77
643.61	55.83
643.942	55.84
644.273	55.9
644.604	55.87
644.936	55.81
645.267	55.76
645.598	55.7
645.929	55.65
646.26	55.58
646.591	55.53
646.922	55.54
647.253	55.56
647.584	55.49
647.915	55.52
648.245	55.66
648.576	55.64
648.907	55.78
649.238	55.64
649.568	55.86
649.899	55.87
650.229	55.93
650.56	55.97
650.89	55.89
651.221	55.93
651.551	56.02
651.882	56.07
652.212	56.15
652.542	56.25
652.872	56.37
653.203	56.25
653.533	56.25
653.863	56.3
654.193	56.37
654.523	56.5
654.853	56.58
655.183	56.61
655.513	56.55
655.843	56.42
656.172	56.46
656.502	56.49
656.832	56.47
657.162	56.52
657.491	56.51
657.821	56.62
658.15	56.65
658.48	56.52
658.809	56.49
659.139	56.47
659.468	56.45
659.798	56.41
660.127	56.59
660.456	56.7
660.785	56.67
661.115	56.59
661.444	56.55
661.773	56.55
662.102	56.51
662.431	56.61
662.76	56.71
663.089	56.64
663.418	56.49
663.747	56.52
664.076	56.48
664.404	56.5
664.733	56.51
665.062	56.4
665.39	56.48
665.719	56.44
666.048	56.51
666.376	56.5
666.705	56.42
667.033	56.34
667.362	56.21
667.69	56.28
668.018	56.41
668.347	56.49
668.675	56.49
669.003	56.51
669.331	56.53
669.659	56.42
669.987	56.58
670.315	56.47
670.643	56.45
670.971	56.53
671.299	56.48
671.627	56.4
671.955	56.44
672.283	56.45
672.61	56.59
672.938	56.56
673.266	56.7
673.593	56.8
673.921	56.85
674.249	56.93
674.576	57.01
674.904	56.94
675.231	56.75
675.558	56.82
675.886	56.83
676.213	56.93
676.54	57.07
676.867	57.15
677.195	57.23
677.522	57.29
677.849	57.29
678.176	57.33
678.503	57.4
678.83	57.38
679.157	57.44
679.484	57.44
679.81	57.42
680.137	57.36
680.464	57.31
680.791	57.41
681.117	57.34
681.444	57.3
681.771	57.28
682.097	57.44
682.424	57.42
682.75	57.49
683.077	57.38
683.403	57.38
683.729	57.17
684.056	57.29
684.382	57.27
684.708	57.13
685.034	56.97
685.36	56.94
685.686	56.93
686.012	56.78
686.339	56.69
686.664	56.69
686.99	56.65
687.316	56.69
687.642	56.6
687.968	56.73
688.294	56.64
688.619	56.72
688.945	56.71
689.271	56.68
689.596	56.59
689.922	56.68
690.247	56.55
690.573	56.71
690.898	56.71
691.224	56.6
691.549	56.73
691.874	56.74
692.2	56.76
692.525	56.91
692.85	57.08
693.175	57.24
693.5	57.23
693.825	57.26
694.15	57.34
694.475	57.22
694.8	57.23
695.125	57.24
695.45	57.22
695.775	57.13
696.099	57.23
696.424	57.2
696.749	57.1
697.073	57.34
697.398	57.26
697.723	57.16
698.047	57.15
698.372	57.17
698.696	57.36
699.02	57.38
699.345	57.27
699.669	57.35
699.993	57.27
700.318	57.45
700.642	57.4
700.966	57.21
701.29	57.38
701.614	57.29
701.938	57.34
702.262	57.37
702.586	57.44
702.91	57.4
703.234	57.47
703.557	57.44
703.881	57.35
704.205	57.31
704.529	57.38
704.852	57.32
705.176	57.24
705.499	57.07
705.823	56.96
706.146	56.96
706.47	56.82
706.793	56.73
707.117	56.59
707.44	56.66
707.763	56.76
708.086	56.57
708.409	56.65
708.733	56.65
709.056	56.62
709.379	56.71
709.702	56.71
710.025	56.69
710.348	56.92
710.671	56.78
710.993	57.02
711.316	57.04
711.639	57.32
711.962	57.35
712.284	57.3
712.607	57.44
712.93	57.54
713.252	57.38
713.575	57.54
713.897	57.46
714.22	57.42
714.542	57.43
714.864	57.56
715.187	57.48
715.509	57.66
715.831	57.62
716.153	57.49
716.475	57.37
716.798	57.44
717.12	57.26
717.442	57.25
717.764	57.19
718.085	57.34
718.407	57.19
718.729	57.08
719.051	57.14
719.373	56.95
719.695	56.77
720.016	56.81
720.338	56.81
720.659	56.92
720.981	56.95
721.302	57.09
721.624	56.93
721.945	56.77
722.267	56.57
722.588	56.41
722.909	56.44
723.231	56.59
723.552	56.38
723.873	56.45
724.194	56.62
724.515	56.47
724.836	56.18
725.157	56.28
725.478	56.38
725.799	56.43
726.12	56.59
726.441	56.82
726.762	56.77
727.083	56.65
727.403	56.48
727.724	56.62
728.045	56.59
728.365	56.55
728.686	56.87
729.006	56.99
729.327	57.17
729.647	57.3
729.967	57.16
730.288	57.26
730.608	57.17
730.928	57.03
731.249	57.09
731.569	57.22
731.889	57.24
732.209	57.23
732.529	57.32
732.849	57.33
733.169	57.16
733.489	57.39
733.809	57.42
734.129	57.53
734.448	57.34
734.768	57.34
735.088	57.38
735.408	57.17
735.727	57.17
736.047	57.18
736.366	57.16
736.686	57.11
737.005	57.16
737.325	57.44
737.644	57.4
737.963	57.47
738.283	57.37
738.602	57.37
738.921	57.19
739.24	57.13
739.56	57.15
739.879	57.07
740.198	57.1
740.517	57.31
740.836	57.38
741.155	57.51
741.473	57.52
741.792	57.48
742.111	57.54
742.43	57.54
742.748	57.49
743.067	57.4
743.386	57.49
743.704	57.34
744.023	57.19
744.341	57.43
744.66	57.37
744.978	57.41
745.297	57.13
745.615	57.65
745.933	57.52
746.252	57.7
746.57	57.83
746.888	57.67
747.206	57.54
747.524	57.47
747.842	57.47
748.16	57.43
748.478	57.66
748.796	57.75
749.114	57.98
749.432	58
749.749	58.15
750.067	58.1
750.385	58.35
750.703	58.35
751.02	58.08
751.338	58.08
751.655	58.01
751.973	58.23
752.29	58.08
752.608	57.94
752.925	57.72
753.242	57.66
753.56	57.73
753.877	57.78
754.194	57.76
754.511	57.7
754.828	57.42
755.145	57.34
755.462	57.1
755.779	56.62
756.096	56.8
756.413	56.74
756.73	56.68
757.047	56.58
757.364	56.55
757.68	56.67
757.997	56.68
758.314	56.62
758.63	56.41
758.947	56.17
759.264	56.14
759.58	56.25
759.896	56.49
760.213	56.82
760.529	56.83
760.846	56.64
761.162	56.52
761.478	56.66
761.794	56.78
762.11	57.08
762.426	57.45
762.743	57.15
763.059	57.17
763.375	57.49
763.69	57.68
764.006	57.6
764.322	57.55
764.638	57.44
764.954	57.61
765.27	57.81
765.585	57.93
765.901	57.96
766.216	57.73
766.532	57.27
766.848	57.16
767.163	57.04
767.478	57.21
767.794	57.48
768.109	57.44
768.424	56.96
768.74	56.74
769.055	56.54
769.37	56.9
769.685	56.93
770	56.65
770.315	56.56
770.63	56.41
770.945	56.32
771.26	56.72
771.575	56.52
771.89	56.11
772.205	56.35
772.52	56.5
772.834	56.37
773.149	56.54
773.464	56.51
773.778	56.62
774.093	56.52
774.407	56.39
774.722	55.9
775.036	56.12
775.351	56.22
775.665	55.76
775.979	55.06
776.293	55.2
776.608	55.28
776.922	55.38
777.236	55.66
777.55	55.83
777.864	55.35
778.178	55.66
778.492	55.94
778.806	55.25
779.12	55.68
779.434	56.25
779.747	56.88
780.061	56.87
780.375	56.91
780.689	57.24
781.002	57.46
781.316	58.12
781.629	58.65
781.943	58.72
782.256	59.13
782.57	59.35
782.883	59.16
783.196	59.12
783.51	58.63
783.823	58.57
784.136	58.85
784.449	58.87
784.762	58.55
785.075	58.76
785.388	58.61
785.701	57.92
786.014	57.56
786.327	57.61
786.64	57.38
786.953	57.52
787.266	57.01
787.578	56.53
787.891	56.36
788.204	55.22
788.516	54.93
788.829	54.62
789.141	55.2
789.454	54.71
789.766	55.19
790.079	54.75
790.391	54.68
790.703	54.26
791.016	54.61
791.328	55.01
791.64	54.72
791.952	55.3
792.264	55.6
792.576	55.21
792.888	55.45
793.2	55.48
793.512	54.88
793.824	54.84
794.136	55.06
794.448	55.75
794.76	56.79
795.071	57.19
795.383	57.09
795.695	56.68
796.006	57.19
796.318	56.44
796.629	57.18
796.941	57.33
797.252	57.27
797.564	56.94
797.875	57.14
798.186	57.2
798.497	56.85
798.809	57.53
799.12	58.39
799.431	57.59
799.742	57.36
800.053	57.84
800.364	57.44
800.675	57.37
800.986	56.82
801.297	56.55
801.608	56.39
801.918	57.23
802.229	57.15
802.54	57.2
802.851	57.72
803.161	57.59
803.472	58
803.782	58.04
804.093	58.31
804.403	57.63
804.714	58.07
805.024	57.74
805.334	57.48
805.645	56.94
805.955	57.88
806.265	57.72
806.575	57.18
806.885	58.09
807.195	58.25
807.505	58.22
807.815	58.44
808.125	58.29
808.435	58.13
808.745	58.2
809.055	57.61
809.365	57.56
809.674	57.29
809.984	56.96
810.294	56.79
810.603	56.48
810.913	56.5
811.222	56.61
811.532	57.15
811.841	57.11
812.151	57.69
812.46	56.94
812.769	57.42
813.079	57.8
813.388	57.56
813.697	57.33
814.006	58.12
814.315	58.65
814.624	58.85
814.933	59.19
815.242	59.61
815.551	59.58
815.86	59.73
816.169	60.92
816.478	60.45
816.786	60.42
817.095	60.56
817.404	60.96
817.712	59.88
818.021	59.79
818.33	59.43
818.638	58.71
818.947	58.83
819.255	58.38
819.563	58.51
819.872	59.21
820.18	59.33
820.488	59.25
820.796	58.91
821.105	59.07
821.413	58.97
821.721	58.79
822.029	59.13
822.337	58.99
822.645	58.8
822.953	59.08
823.26	59.3
823.568	59.31
823.876	59.3
824.184	59.5
824.491	59.77
824.799	59.76
825.107	59.93
825.414	60.12
825.722	60.29
826.029	60.39
826.337	60.12
826.644	60.26
826.951	60.3
827.259	60.13
827.566	59.96
827.873	59.78
828.18	59.99
828.488	60.01
828.795	59.97
829.102	60.08
829.409	60.12
829.716	60.07
830.023	60.33
830.329	60.21
830.636	60.68
830.943	60.49
831.25	60.35
831.557	60.38
831.863	60.03
832.17	60.23
832.476	60.19
832.783	60.8
833.089	60.58
833.396	60.28
833.702	60.95
834.009	61.46
834.315	62.09
834.621	62.04
834.928	61.64
835.234	62
835.54	61.25
835.846	60.39
836.152	59.87
836.458	59.66
836.764	59.86
837.07	59.11
837.376	58.65
837.682	59.09
837.988	59.3
838.293	59.51
838.599	58.3
838.905	58.22
839.211	56.82
839.516	56.68
839.822	56.05
840.127	55.52
840.433	54.47
840.738	53.63
841.044	53.38
841.349	54.22
841.654	53.32
841.959	53.83
842.265	55.03
842.57	56.38
842.875	55.95
843.18	56.41
843.485	56.52
843.79	57.06
844.095	56.66
844.4	56.17
844.705	55.81
845.01	56.34
845.315	55.88
845.619	56.06
845.924	54.85
846.229	55.76
846.533	57.13
846.838	58.01
847.142	57.79
847.447	57.41
847.751	54.89
848.056	54.68
848.36	54.89
848.664	54.2
848.969	53.85
849.273	52.53
849.577	51.01
849.881	50.4
850.185	50.33
850.489	50.62
850.794	51.16
851.097	50.83
851.401	52.3
851.705	52.75
852.009	53.76
852.313	53.08
852.617	53.46
852.92	52.62
853.224	50.64
853.528	50.07
853.831	50.6
854.135	52.54
854.438	54.95
854.742	54.34
855.045	55.24
855.349	55.76
855.652	56.22
855.955	56.43
856.259	56.9
856.562	55.74
856.865	54.34
857.168	52.69
857.471	53.8
857.774	53.5
858.077	52.07
858.38	50.16
858.683	52.46
858.986	52.67
859.289	52.43
859.592	53.87
859.894	54.89
860.197	54.68
860.5	52.23
860.802	50.81
861.105	49.87
861.407	49.08
861.71	47.33
862.012	48.29
862.315	49.05
862.617	48.48
862.919	47.9
863.222	49.57
863.524	50.59
863.826	50.44
864.128	51.89
864.43	53.09
864.732	54.26
865.034	53.41
865.336	51.83
865.638	52.72
865.94	51.24
866.242	48.98
866.544	50.57
866.846	51.86
867.147	50.5
867.449	51.58
867.751	51.89
868.052	52.9
868.354	51.9
868.655	52.67
868.957	52.64
869.258	52.8
869.56	51.98
869.861	51.95
870.162	52.24
870.463	50.81
870.765	51.12
871.066	51.94
871.367	54.04
871.668	56.16
871.969	57.22
872.27	60.82
872.571	62.12
872.872	60.2
873.173	60.11
873.473	61.05
873.774	62.01
874.075	61.4
874.376	61.99
874.676	63.57
874.977	61.98
875.277	62.58
875.578	62.79
875.878	62.78
876.179	62.43
876.479	60.93
876.78	62.2
877.08	62.14
877.38	62.1
877.68	60.87
877.981	59.56
878.281	55.86
878.581	52.75
