Data from BU26847_Reflection_00011.txt Node
Date: Mon Nov 18 16:41:03 EST 2019
User: vgr7
Spectrometer: USB2G7710
Scans to average: 3
Trigger mode: 4
Integration Time (sec): 2.000000E-2
Electric dark correction enabled: true
Boxcar width: 10
XAxis mode: Wavelengths
Number of Pixels in Spectrum: 2048
>>>>>Begin Spectral Data<<<<<
177.721	141.22
178.105	246.89
178.488	8060.78
178.871	685.59
179.254	-473.64
179.636	112.56
180.019	-169.29
180.402	121.05
180.785	522.76
181.168	360.42
181.55	1130.3
181.933	126.67
182.316	124.89
182.698	178.43
183.081	65.11
183.463	68.4
183.846	74.43
184.228	55.09
184.611	-93.94
184.993	-4122.22
185.376	123.64
185.758	-7677.78
186.14	1154.26
186.522	894.33
186.904	-573.99
187.287	-1173.63
187.669	-175.6
188.051	-351.05
188.433	-241.64
188.815	-130.23
189.197	-140.78
189.579	-107.67
189.961	-103.35
190.342	-108.27
190.724	-71.71
191.106	-68.03
191.488	-97.19
191.869	-99.46
192.251	-145.08
192.633	-132.69
193.014	-146.22
193.396	-116.26
193.777	-105
194.159	-95.39
194.54	-80.37
194.922	-77.93
195.303	-74.07
195.684	-60.99
196.065	-5.21
196.447	-47.25
196.828	-114.77
197.209	-137.12
197.59	-179.47
197.971	-258.47
198.352	-106.56
198.733	-90.09
199.114	-86.93
199.495	-53.75
199.876	-7.57
200.257	-26.9
200.638	-50.85
201.018	-59.28
201.399	-12.76
201.78	4.37
202.16	27.87
202.541	-24.32
202.922	-621.09
203.302	-1256.32
203.683	541.61
204.063	331.34
204.444	339.62
204.824	324.66
205.204	443.7
205.585	495.57
205.965	513.61
206.345	334.79
206.725	271.82
207.106	332.63
207.486	249.45
207.866	258.32
208.246	425.83
208.626	795.3
209.006	382.49
209.386	424.1
209.766	770.35
210.145	795.81
210.525	1103
210.905	-698.3
211.285	-555.86
211.664	-185.47
212.044	-163.45
212.424	-123.69
212.803	-154.13
213.183	-51.93
213.562	-29.1
213.942	-14.64
214.321	-39.17
214.701	-44.7
215.08	-65.8
215.459	-48.31
215.838	-43.73
216.218	-47.3
216.597	-38.57
216.976	-44.04
217.355	-37.16
217.734	-32.16
218.113	-34.23
218.492	-40.92
218.871	-48.45
219.25	-34.28
219.629	-18.52
220.008	-21.15
220.387	-48.62
220.766	-42.44
221.144	-61.19
221.523	-62.92
221.902	-61.58
222.28	-55.69
222.659	-43.29
223.037	-33.71
223.416	-47.31
223.794	-51.95
224.173	-50.93
224.551	-47.94
224.929	-42.58
225.308	-27.99
225.686	-27.46
226.064	-26.43
226.442	-20.16
226.821	-17.27
227.199	-20.02
227.577	-25.1
227.955	-25.47
228.333	-18.02
228.711	-14.91
229.089	-10.08
229.467	-6.52
229.845	-8.18
230.222	-8.86
230.6	-11.04
230.978	-11.56
231.356	-7.08
231.733	-7.16
232.111	-5.11
232.488	-4.18
232.866	-4.15
233.243	-2.05
233.621	-2.68
233.998	-0.51
234.376	-2.59
234.753	-0.54
235.13	-0.3
235.508	0.03
235.885	0.34
236.262	-1.22
236.639	0.69
237.016	0.34
237.393	1.22
237.77	2.54
238.147	3.64
238.524	4.22
238.901	4.06
239.278	3.95
239.655	4.47
240.032	4.82
240.409	4.52
240.785	5.35
241.162	4.78
241.539	4.8
241.915	4.64
242.292	4.56
242.668	4.73
243.045	4.83
243.421	4.56
243.798	4.93
244.174	5.05
244.551	4.68
244.927	4.53
245.303	4.49
245.679	4.58
246.056	4.47
246.432	4.34
246.808	4.44
247.184	4.09
247.56	3.99
247.936	3.7
248.312	3.96
248.688	3.87
249.064	3.89
249.44	4.05
249.815	4.05
250.191	4.32
250.567	4.04
250.943	4.04
251.318	4.27
251.694	3.96
252.069	4.11
252.445	4.4
252.82	4.51
253.196	4.6
253.571	4.44
253.947	4.61
254.322	4.98
254.697	4.65
255.073	4.78
255.448	4.81
255.823	5.07
256.198	4.57
256.573	4.49
256.948	4.38
257.323	4.15
257.698	4.03
258.073	3.96
258.448	4.1
258.823	3.87
259.198	3.81
259.573	3.82
259.948	3.76
260.322	3.57
260.697	3.56
261.072	3.48
261.446	3.43
261.821	3.24
262.195	3.29
262.57	3.32
262.944	3.25
263.319	3.16
263.693	2.96
264.067	2.9
264.442	2.93
264.816	2.96
265.19	2.86
265.564	2.74
265.938	2.61
266.313	2.4
266.687	2.7
267.061	2.79
267.435	2.82
267.809	2.61
268.183	2.76
268.556	2.69
268.93	2.63
269.304	2.7
269.678	2.89
270.051	2.6
270.425	2.73
270.799	2.73
271.172	2.82
271.546	2.92
271.919	3.06
272.293	2.94
272.666	2.87
273.04	3.03
273.413	3.22
273.787	3.35
274.16	3.51
274.533	3.41
274.906	3.42
275.279	3.6
275.653	3.72
276.026	3.58
276.399	3.58
276.772	3.57
277.145	3.47
277.518	3.39
277.891	3.55
278.263	3.55
278.636	3.76
279.009	3.71
279.382	3.76
279.755	3.64
280.127	3.78
280.5	3.77
280.872	3.89
281.245	3.94
281.617	3.97
281.99	3.83
282.362	3.8
282.735	3.6
283.107	3.41
283.479	3.34
283.852	3.4
284.224	3.38
284.596	3.35
284.968	3.33
285.34	3.42
285.713	3.44
286.085	3.53
286.457	3.42
286.829	3.42
287.201	3.3
287.572	3.32
287.944	3.27
288.316	3.33
288.688	3.15
289.06	3.08
289.431	3.12
289.803	3.23
290.175	3.3
290.546	3.51
290.918	3.6
291.289	3.67
291.661	3.69
292.032	3.85
292.403	3.94
292.775	4.09
293.146	4.02
293.517	4.03
293.889	3.96
294.26	3.97
294.631	3.97
295.002	4.03
295.373	4.14
295.744	4.16
296.115	4.08
296.486	3.97
296.857	4
297.228	3.96
297.599	3.87
297.97	3.87
298.34	3.91
298.711	3.98
299.082	3.92
299.452	3.91
299.823	3.97
300.194	3.96
300.564	3.85
300.935	3.96
301.305	3.96
301.676	4.02
302.046	4.03
302.416	4.21
302.787	4.29
303.157	4.22
303.527	4.26
303.897	4.4
304.267	4.68
304.637	4.71
305.008	4.79
305.378	4.9
305.748	5.05
306.117	4.9
306.487	4.93
306.857	5.19
307.227	5.33
307.597	5.26
307.967	5.34
308.336	5.42
308.706	5.34
309.076	5.41
309.445	5.28
309.815	5.41
310.184	5.41
310.554	5.35
310.923	5.49
311.293	5.42
311.662	5.42
312.031	5.33
312.401	5.46
312.77	5.57
313.139	5.7
313.508	5.63
313.877	5.67
314.246	5.52
314.616	5.46
314.985	5.46
315.353	5.4
315.722	5.33
316.091	5.44
316.46	5.48
316.829	5.48
317.198	5.72
317.567	5.61
317.935	5.62
318.304	5.72
318.672	5.72
319.041	5.91
319.41	5.99
319.778	6.19
320.147	6.08
320.515	5.86
320.883	5.68
321.252	5.83
321.62	6.02
321.988	6.1
322.357	6.18
322.725	6.22
323.093	6.34
323.461	6.5
323.829	6.5
324.197	6.59
324.565	6.67
324.933	6.63
325.301	6.73
325.669	6.62
326.037	6.6
326.405	6.61
326.772	6.65
327.14	6.69
327.508	6.63
327.875	6.76
328.243	6.91
328.61	7.02
328.978	7.01
329.346	7.01
329.713	7.2
330.08	7.19
330.448	7.04
330.815	7.04
331.182	6.99
331.55	7.1
331.917	7.19
332.284	7.27
332.651	7.24
333.018	7.31
333.385	7.39
333.752	7.55
334.119	7.65
334.486	7.54
334.853	7.6
335.22	7.68
335.587	7.69
335.954	7.74
336.32	7.78
336.687	7.81
337.054	7.86
337.42	7.93
337.787	8.01
338.153	8.18
338.52	8.25
338.886	8.24
339.253	8.21
339.619	8.11
339.986	8.08
340.352	8.15
340.718	8.2
341.084	8.33
341.451	8.36
341.817	8.38
342.183	8.52
342.549	8.42
342.915	8.46
343.281	8.49
343.647	8.47
344.013	8.5
344.379	8.45
344.745	8.51
345.11	8.45
345.476	8.38
345.842	8.34
346.208	8.42
346.573	8.47
346.939	8.54
347.304	8.62
347.67	8.59
348.035	8.68
348.401	8.66
348.766	8.61
349.132	8.57
349.497	8.49
349.862	8.51
350.228	8.48
350.593	8.38
350.958	8.38
351.323	8.38
351.688	8.44
352.053	8.48
352.418	8.44
352.783	8.42
353.148	8.53
353.513	8.54
353.878	8.47
354.243	8.59
354.608	8.59
354.972	8.54
355.337	8.54
355.702	8.49
356.066	8.53
356.431	8.55
356.795	8.53
357.16	8.51
357.524	8.46
357.889	8.43
358.253	8.44
358.618	8.42
358.982	8.4
359.346	8.33
359.71	8.32
360.075	8.35
360.439	8.39
360.803	8.3
361.167	8.27
361.531	8.24
361.895	8.13
362.259	8.08
362.623	8.16
362.987	8.19
363.351	8.21
363.714	8.19
364.078	8.1
364.442	8.06
364.806	8.07
365.169	8.06
365.533	8.12
365.896	8.08
366.26	8.07
366.623	8.07
366.987	8.06
367.35	8
367.714	7.84
368.077	7.74
368.44	7.69
368.803	7.71
369.167	7.63
369.53	7.59
369.893	7.58
370.256	7.52
370.619	7.44
370.982	7.3
371.345	7.22
371.708	7.26
372.071	7.25
372.434	7.19
372.797	7.15
373.159	7.04
373.522	7.03
373.885	7.01
374.247	6.96
374.61	6.92
374.973	6.86
375.335	6.91
375.698	6.84
376.06	6.78
376.423	6.73
376.785	6.82
377.147	6.85
377.51	6.72
377.872	6.66
378.234	6.64
378.596	6.63
378.958	6.58
379.321	6.58
379.683	6.5
380.045	6.47
380.407	6.44
380.769	6.46
381.13	6.42
381.492	6.37
381.854	6.31
382.216	6.25
382.578	6.28
382.939	6.21
383.301	6.19
383.663	6.18
384.024	6.09
384.386	6.02
384.747	5.97
385.109	5.99
385.47	5.93
385.832	5.84
386.193	5.81
386.554	5.78
386.916	5.69
387.277	5.67
387.638	5.64
387.999	5.62
388.36	5.58
388.721	5.59
389.082	5.5
389.443	5.45
389.804	5.45
390.165	5.4
390.526	5.38
390.887	5.37
391.248	5.37
391.609	5.36
391.969	5.32
392.33	5.26
392.691	5.26
393.051	5.26
393.412	5.26
393.772	5.25
394.133	5.23
394.493	5.23
394.854	5.23
395.214	5.22
395.574	5.17
395.935	5.14
396.295	5.12
396.655	5.14
397.015	5.16
397.376	5.11
397.736	5.08
398.096	5.06
398.456	5.06
398.816	5.01
399.176	4.97
399.535	4.91
399.895	4.9
400.255	4.85
400.615	4.83
400.975	4.82
401.334	4.78
401.694	4.72
402.054	4.68
402.413	4.65
402.773	4.6
403.132	4.61
403.492	4.6
403.851	4.57
404.211	4.56
404.57	4.52
404.929	4.54
405.288	4.48
405.648	4.45
406.007	4.41
406.366	4.42
406.725	4.46
407.084	4.45
407.443	4.43
407.802	4.44
408.161	4.42
408.52	4.37
408.879	4.38
409.238	4.4
409.596	4.37
409.955	4.37
410.314	4.39
410.673	4.34
411.031	4.34
411.39	4.33
411.748	4.32
412.107	4.3
412.465	4.27
412.824	4.33
413.182	4.32
413.54	4.31
413.899	4.31
414.257	4.28
414.615	4.28
414.974	4.29
415.332	4.25
415.69	4.23
416.048	4.22
416.406	4.21
416.764	4.19
417.122	4.23
417.48	4.2
417.838	4.2
418.195	4.18
418.553	4.15
418.911	4.12
419.269	4.1
419.626	4.09
419.984	4.07
420.342	4.05
420.699	4.02
421.057	4
421.414	3.99
421.772	3.96
422.129	3.95
422.486	3.93
422.844	3.93
423.201	3.92
423.558	3.92
423.915	3.92
424.273	3.91
424.63	3.88
424.987	3.86
425.344	3.84
425.701	3.86
426.058	3.86
426.415	3.84
426.772	3.84
427.128	3.83
427.485	3.82
427.842	3.8
428.199	3.82
428.555	3.84
428.912	3.84
429.269	3.86
429.625	3.84
429.982	3.82
430.338	3.82
430.695	3.82
431.051	3.8
431.407	3.78
431.764	3.77
432.12	3.78
432.476	3.79
432.832	3.77
433.189	3.76
433.545	3.76
433.901	3.77
434.257	3.75
434.613	3.77
434.969	3.79
435.325	3.8
435.681	3.78
436.036	3.78
436.392	3.77
436.748	3.75
437.104	3.74
437.459	3.74
437.815	3.75
438.171	3.76
438.526	3.77
438.882	3.79
439.237	3.76
439.593	3.76
439.948	3.77
440.304	3.77
440.659	3.77
441.014	3.78
441.369	3.76
441.725	3.76
442.08	3.75
442.435	3.74
442.79	3.76
443.145	3.76
443.5	3.76
443.855	3.77
444.21	3.77
444.565	3.79
444.92	3.79
445.275	3.77
445.629	3.75
445.984	3.76
446.339	3.75
446.693	3.76
447.048	3.75
447.403	3.75
447.757	3.73
448.112	3.73
448.466	3.71
448.82	3.72
449.175	3.72
449.529	3.72
449.883	3.69
450.238	3.67
450.592	3.67
450.946	3.63
451.3	3.62
451.654	3.62
452.008	3.61
452.362	3.61
452.716	3.61
453.07	3.62
453.424	3.61
453.778	3.59
454.132	3.6
454.486	3.59
454.839	3.6
455.193	3.61
455.547	3.6
455.9	3.62
456.254	3.61
456.607	3.62
456.961	3.62
457.314	3.64
457.668	3.65
458.021	3.65
458.375	3.67
458.728	3.69
459.081	3.71
459.434	3.71
459.787	3.72
460.141	3.71
460.494	3.72
460.847	3.72
461.2	3.73
461.553	3.74
461.906	3.75
462.259	3.74
462.611	3.74
462.964	3.74
463.317	3.75
463.67	3.76
464.022	3.78
464.375	3.78
464.728	3.77
465.08	3.79
465.433	3.8
465.785	3.81
466.138	3.81
466.49	3.79
466.843	3.8
467.195	3.81
467.547	3.81
467.899	3.81
468.252	3.82
468.604	3.83
468.956	3.82
469.308	3.83
469.66	3.86
470.012	3.91
470.364	3.9
470.716	3.9
471.068	3.88
471.42	3.88
471.772	3.89
472.123	3.91
472.475	3.9
472.827	3.91
473.178	3.92
473.53	3.92
473.882	3.92
474.233	3.91
474.585	3.89
474.936	3.9
475.288	3.91
475.639	3.91
475.99	3.92
476.342	3.92
476.693	3.93
477.044	3.93
477.395	3.91
477.746	3.93
478.097	3.91
478.448	3.95
478.8	3.95
479.15	3.94
479.501	3.96
479.852	3.97
480.203	3.96
480.554	3.97
480.905	3.97
481.255	3.97
481.606	3.98
481.957	4
482.307	4
482.658	3.99
483.009	3.99
483.359	3.99
483.709	4
484.06	3.99
484.41	3.99
484.761	3.99
485.111	3.98
485.461	3.99
485.811	3.98
486.162	3.98
486.512	3.99
486.862	3.98
487.212	3.98
487.562	3.97
487.912	3.97
488.262	3.97
488.612	3.98
488.961	3.99
489.311	3.99
489.661	3.99
490.011	4
490.36	4
490.71	4.01
491.06	4
491.409	4.01
491.759	4.02
492.108	4.01
492.458	4.02
492.807	4.03
493.157	4.03
493.506	4.05
493.855	4.05
494.204	4.05
494.554	4.07
494.903	4.09
495.252	4.1
495.601	4.11
495.95	4.12
496.299	4.13
496.648	4.14
496.997	4.15
497.346	4.17
497.695	4.2
498.043	4.22
498.392	4.24
498.741	4.28
499.09	4.3
499.438	4.33
499.787	4.39
500.135	4.43
500.484	4.45
500.832	4.48
501.181	4.53
501.529	4.58
501.878	4.6
502.226	4.64
502.574	4.67
502.923	4.71
503.271	4.73
503.619	4.77
503.967	4.83
504.315	4.86
504.663	4.9
505.011	4.92
505.359	4.93
505.707	4.97
506.055	5
506.403	5.07
506.751	5.11
507.098	5.15
507.446	5.22
507.794	5.29
508.141	5.33
508.489	5.4
508.837	5.45
509.184	5.52
509.531	5.59
509.879	5.67
510.226	5.75
510.574	5.81
510.921	5.86
511.268	5.92
511.616	6.01
511.963	6.09
512.31	6.19
512.657	6.31
513.004	6.4
513.351	6.5
513.698	6.59
514.045	6.69
514.392	6.78
514.739	6.85
515.086	6.96
515.432	7.07
515.779	7.14
516.126	7.23
516.473	7.32
516.819	7.41
517.166	7.5
517.512	7.58
517.859	7.68
518.205	7.77
518.552	7.86
518.898	7.94
519.245	8.02
519.591	8.08
519.937	8.14
520.283	8.23
520.629	8.32
520.976	8.42
521.322	8.51
521.668	8.63
522.014	8.74
522.36	8.86
522.706	8.97
523.052	9.12
523.398	9.25
523.743	9.39
524.089	9.52
524.435	9.65
524.781	9.76
525.126	9.89
525.472	10
525.817	10.09
526.163	10.19
526.509	10.28
526.854	10.38
527.199	10.46
527.545	10.56
527.89	10.64
528.235	10.72
528.581	10.81
528.926	10.89
529.271	10.99
529.616	11.06
529.961	11.14
530.306	11.2
530.651	11.29
530.996	11.39
531.341	11.48
531.686	11.58
532.031	11.67
532.376	11.78
532.721	11.89
533.065	12.01
533.41	12.14
533.755	12.25
534.099	12.36
534.444	12.5
534.788	12.61
535.133	12.7
535.477	12.83
535.822	12.95
536.166	13.08
536.51	13.21
536.855	13.36
537.199	13.53
537.543	13.71
537.887	13.88
538.231	14.04
538.576	14.22
538.92	14.4
539.264	14.55
539.608	14.69
539.951	14.82
540.295	14.97
540.639	15.11
540.983	15.26
541.327	15.41
541.671	15.52
542.014	15.68
542.358	15.84
542.701	15.97
543.045	16.14
543.389	16.27
543.732	16.42
544.075	16.6
544.419	16.75
544.762	16.91
545.105	17.08
545.449	17.26
545.792	17.44
546.135	17.63
546.478	17.87
546.821	18.11
547.165	18.35
547.508	18.6
547.851	18.82
548.194	19.06
548.536	19.27
548.879	19.57
549.222	19.8
549.565	20.04
549.908	20.32
550.25	20.54
550.593	20.81
550.936	21.07
551.278	21.3
551.621	21.58
551.963	21.88
552.306	22.13
552.648	22.38
552.991	22.67
553.333	22.91
553.675	23.14
554.017	23.42
554.36	23.68
554.702	23.92
555.044	24.21
555.386	24.53
555.728	24.8
556.07	25.07
556.412	25.37
556.754	25.6
557.096	25.88
557.438	26.23
557.78	26.56
558.121	26.84
558.463	27.21
558.805	27.54
559.147	27.81
559.488	28.12
559.83	28.46
560.171	28.75
560.513	29.08
560.854	29.4
561.196	29.69
561.537	29.98
561.878	30.29
562.22	30.62
562.561	30.85
562.902	31.16
563.243	31.42
563.584	31.76
563.925	32.11
564.266	32.39
564.607	32.63
564.948	32.88
565.289	33.18
565.63	33.47
565.971	33.71
566.312	34.03
566.653	34.3
566.993	34.65
567.334	34.94
567.675	35.23
568.015	35.5
568.356	35.72
568.696	35.98
569.037	36.26
569.377	36.54
569.718	36.84
570.058	37.11
570.398	37.43
570.739	37.71
571.079	37.94
571.419	38.22
571.759	38.49
572.099	38.79
572.439	39.01
572.779	39.26
573.119	39.53
573.459	39.78
573.799	40.07
574.139	40.22
574.479	40.41
574.819	40.65
575.158	40.88
575.498	41.19
575.838	41.48
576.177	41.71
576.517	41.92
576.856	42.15
577.196	42.43
577.535	42.65
577.875	42.81
578.214	43.06
578.553	43.29
578.893	43.52
579.232	43.7
579.571	44.01
579.91	44.19
580.25	44.36
580.589	44.52
580.928	44.65
581.267	44.9
581.606	45.18
581.945	45.36
582.283	45.59
582.622	45.76
582.961	45.89
583.3	46.06
583.639	46.24
583.977	46.47
584.316	46.58
584.654	46.76
584.993	47.02
585.332	47.25
585.67	47.45
586.008	47.64
586.347	47.89
586.685	48.13
587.024	48.33
587.362	48.52
587.7	48.73
588.038	48.91
588.376	49.08
588.715	49.25
589.053	49.46
589.391	49.6
589.729	49.79
590.067	49.99
590.404	50.18
590.742	50.36
591.08	50.52
591.418	50.69
591.756	50.81
592.093	50.97
592.431	51.07
592.769	51.23
593.106	51.34
593.444	51.38
593.781	51.44
594.119	51.56
594.456	51.72
594.793	51.83
595.131	51.96
595.468	52.03
595.805	52.04
596.143	52.15
596.48	52.22
596.817	52.3
597.154	52.37
597.491	52.42
597.828	52.48
598.165	52.56
598.502	52.64
598.839	52.75
599.176	52.79
599.512	52.96
599.849	53.11
600.186	53.29
600.523	53.45
600.859	53.61
601.196	53.73
601.532	53.82
601.869	53.95
602.205	54.09
602.542	54.19
602.878	54.31
603.215	54.36
603.551	54.54
603.887	54.64
604.223	54.72
604.56	54.87
604.896	54.99
605.232	55.1
605.568	55.22
605.904	55.37
606.24	55.5
606.576	55.47
606.912	55.47
607.248	55.55
607.583	55.64
607.919	55.67
608.255	55.72
608.591	55.79
608.926	55.9
609.262	55.95
609.597	56.05
609.933	56.15
610.268	56.19
610.604	56.22
610.939	56.3
611.275	56.33
611.61	56.33
611.945	56.43
612.281	56.51
612.616	56.55
612.951	56.56
613.286	56.65
613.621	56.78
613.956	56.91
614.291	56.93
614.626	56.96
614.961	57.05
615.296	57.08
615.631	57.23
615.966	57.2
616.3	57.32
616.635	57.31
616.97	57.41
617.304	57.56
617.639	57.53
617.973	57.53
618.308	57.69
618.642	57.79
618.977	57.74
619.311	57.75
619.646	57.71
619.98	57.72
620.314	57.79
620.648	57.81
620.983	57.82
621.317	57.82
621.651	57.89
621.985	57.95
622.319	58.05
622.653	58.04
622.987	58.15
623.321	58.12
623.655	58.19
623.988	58.23
624.322	58.22
624.656	58.36
624.99	58.43
625.323	58.43
625.657	58.51
625.99	58.58
626.324	58.6
626.657	58.71
626.991	58.77
627.324	58.74
627.658	58.8
627.991	58.86
628.324	59.02
628.657	59.07
628.991	59.03
629.324	59.06
629.657	59.08
629.99	58.98
630.323	59.02
630.656	59.1
630.989	59.12
631.322	59.13
631.655	59.2
631.987	59.24
632.32	59.37
632.653	59.32
632.986	59.42
633.318	59.36
633.651	59.37
633.984	59.42
634.316	59.46
634.649	59.59
634.981	59.56
635.313	59.56
635.646	59.62
635.978	59.78
636.31	59.76
636.643	59.86
636.975	60.02
637.307	60.09
637.639	60.13
637.971	60.19
638.303	60.2
638.635	60.23
638.967	60.26
639.299	60.25
639.631	60.27
639.963	60.3
640.295	60.46
640.626	60.49
640.958	60.45
641.29	60.42
641.621	60.4
641.953	60.51
642.285	60.36
642.616	60.41
642.948	60.4
643.279	60.49
643.61	60.48
643.942	60.45
644.273	60.49
644.604	60.62
644.936	60.66
645.267	60.76
645.598	60.74
645.929	60.75
646.26	60.71
646.591	60.79
646.922	60.71
647.253	60.78
647.584	60.78
647.915	60.85
648.245	60.93
648.576	60.9
648.907	60.87
649.238	60.88
649.568	60.9
649.899	60.8
650.229	60.72
650.56	60.83
650.89	60.85
651.221	60.81
651.551	60.65
651.882	60.63
652.212	60.63
652.542	60.56
652.872	60.61
653.203	60.58
653.533	60.57
653.863	60.67
654.193	60.67
654.523	60.74
654.853	60.76
655.183	60.83
655.513	60.89
655.843	61.02
656.172	61.2
656.502	61.17
656.832	61.18
657.162	61.33
657.491	61.15
657.821	61.18
658.15	61.16
658.48	61.26
658.809	61.16
659.139	61.06
659.468	61.21
659.798	61.16
660.127	61.2
660.456	61.27
660.785	61.22
661.115	61.14
661.444	61.19
661.773	61.25
662.102	61.23
662.431	61.29
662.76	61.32
663.089	61.29
663.418	61.32
663.747	61.42
664.076	61.38
664.404	61.48
664.733	61.55
665.062	61.63
665.39	61.63
665.719	61.86
666.048	62.06
666.376	62
666.705	62.01
667.033	62.11
667.362	62.09
667.69	62.14
668.018	62.14
668.347	62.14
668.675	62.08
669.003	62.1
669.331	62.13
669.659	62.06
669.987	61.97
670.315	61.95
670.643	61.97
670.971	61.98
671.299	61.94
671.627	61.93
671.955	61.95
672.283	62.05
672.61	61.96
672.938	62.01
673.266	61.91
673.593	62.05
673.921	62.05
674.249	62.1
674.576	62.16
674.904	62.14
675.231	62.1
675.558	62.1
675.886	62.18
676.213	62.1
676.54	62.22
676.867	62.35
677.195	62.29
677.522	62.4
677.849	62.56
678.176	62.72
678.503	62.79
678.83	62.79
679.157	62.81
679.484	62.94
679.81	62.87
680.137	62.82
680.464	62.83
680.791	62.78
681.117	62.74
681.444	62.62
681.771	62.6
682.097	62.67
682.424	62.75
682.75	62.62
683.077	62.61
683.403	62.59
683.729	62.56
684.056	62.72
684.382	62.61
684.708	62.51
685.034	62.36
685.36	62.32
685.686	62.27
686.012	62.2
686.339	62.07
686.664	62.11
686.99	62.28
687.316	62.24
687.642	62.41
687.968	62.47
688.294	62.64
688.619	62.68
688.945	62.61
689.271	62.55
689.596	62.55
689.922	62.54
690.247	62.56
690.573	62.6
690.898	62.64
691.224	62.69
691.549	62.57
691.874	62.64
692.2	62.69
692.525	62.7
692.85	62.73
693.175	62.93
693.5	62.87
693.825	62.81
694.15	62.86
694.475	62.89
694.8	62.99
695.125	63.05
695.45	63.12
695.775	63.22
696.099	63.37
696.424	63.42
696.749	63.5
697.073	63.47
697.398	63.45
697.723	63.38
698.047	63.46
698.372	63.58
698.696	63.59
699.02	63.42
699.345	63.54
699.669	63.51
699.993	63.31
700.318	63.42
700.642	63.56
700.966	63.47
701.29	63.3
701.614	63.22
701.938	63.32
702.262	63.49
702.586	63.53
702.91	63.36
703.234	63.4
703.557	63.39
703.881	63.32
704.205	63.45
704.529	63.47
704.852	63.45
705.176	63.54
705.499	63.52
705.823	63.83
706.146	63.69
706.47	63.68
706.793	63.84
707.117	63.85
707.44	63.79
707.763	63.95
708.086	63.9
708.409	63.66
708.733	63.35
709.056	63.18
709.379	63.09
709.702	63.07
710.025	62.95
710.348	62.8
710.671	62.86
710.993	62.76
711.316	62.7
711.639	62.49
711.962	62.39
712.284	62.39
712.607	62.31
712.93	62.37
713.252	62.37
713.575	62.3
713.897	62.21
714.22	62.28
714.542	62.29
714.864	62.41
715.187	62.54
715.509	62.59
715.831	62.59
716.153	62.68
716.475	62.71
716.798	62.94
717.12	63.09
717.442	63.11
717.764	63.16
718.085	63.39
718.407	63.51
718.729	63.52
719.051	63.46
719.373	63.4
719.695	63.45
720.016	63.64
720.338	63.78
720.659	64.02
720.981	63.87
721.302	63.73
721.624	63.81
721.945	63.88
722.267	64.19
722.588	64.29
722.909	64.24
723.231	64.35
723.552	64.44
723.873	64.52
724.194	64.39
724.515	64.53
724.836	64.49
725.157	64.4
725.478	64.35
725.799	64.5
726.12	64.7
726.441	64.54
726.762	64.63
727.083	64.73
727.403	64.59
727.724	64.56
728.045	64.88
728.365	64.67
728.686	64.66
729.006	64.47
729.327	64.43
729.647	64.41
729.967	64.33
730.288	64.23
730.608	64.09
730.928	64.03
731.249	63.71
731.569	63.37
731.889	63.6
732.209	63.68
732.529	63.89
732.849	63.62
733.169	63.82
733.489	63.64
733.809	63.57
734.129	63.57
734.448	63.62
734.768	63.53
735.088	63.83
735.408	63.65
735.727	63.67
736.047	63.52
736.366	63.75
736.686	63.69
737.005	63.5
737.325	63.58
737.644	63.64
737.963	63.88
738.283	64.3
738.602	64.3
738.921	64.33
739.24	64.14
739.56	64.28
739.879	64.3
740.198	64.36
740.517	64.23
740.836	64.03
741.155	64.28
741.473	64.17
741.792	64.09
742.111	64.37
742.43	64.21
742.748	64.23
743.067	64.17
743.386	64.39
743.704	64.41
744.023	64.5
744.341	64.76
744.66	65.01
744.978	65
745.297	64.84
745.615	64.84
745.933	64.75
746.252	64.82
746.57	65.02
746.888	64.61
747.206	65
747.524	65
747.842	64.76
748.16	65.15
748.478	64.97
748.796	64.83
749.114	65.11
749.432	65.41
749.749	65.56
750.067	65.68
750.385	65.82
750.703	66.05
751.02	65.73
751.338	65.92
751.655	66.23
751.973	66.57
752.29	66.7
752.608	66.73
752.925	66.85
753.242	66.61
753.56	66.88
753.877	66.49
754.194	66.51
754.511	66.7
754.828	66.37
755.145	66.54
755.462	66.69
755.779	66.7
756.096	66.58
756.413	66.33
756.73	66.1
757.047	66.28
757.364	66.09
757.68	66.2
757.997	65.69
758.314	65.34
758.63	65.21
758.947	65.17
759.264	65
759.58	64.85
759.896	64.75
760.213	64.8
760.529	64.63
760.846	64.93
761.162	64.68
761.478	64.7
761.794	64.7
762.11	64.86
762.426	64.8
762.743	65
763.059	64.87
763.375	65.11
763.69	64.92
764.006	64.78
764.322	65.08
764.638	65.09
764.954	64.98
765.27	64.9
765.585	64.94
765.901	65.06
766.216	65.33
766.532	65.32
766.848	65.31
767.163	65.52
767.478	65.5
767.794	65.63
768.109	65.66
768.424	65.5
768.74	65.6
769.055	66.02
769.37	65.77
769.685	65.81
770	65.6
770.315	66
770.63	66.21
770.945	66.24
771.26	66.15
771.575	66.28
771.89	66.18
772.205	65.9
772.52	66.1
772.834	65.77
773.149	65.78
773.464	65.79
773.778	66.02
774.093	65.52
774.407	65.37
774.722	65.28
775.036	65.07
775.351	64.72
775.665	64.44
775.979	64.38
776.293	64.53
776.608	64.29
776.922	63.78
777.236	64.01
777.55	63.28
777.864	63.58
778.178	64.1
778.492	64.16
778.806	64.03
779.12	63.99
779.434	63.99
779.747	64.11
780.061	63.94
780.375	63.7
780.689	64.36
781.002	64.66
781.316	64.41
781.629	64.66
781.943	64.5
782.256	63.89
782.57	64.44
782.883	64.43
783.196	64.41
783.51	64.98
783.823	64.87
784.136	65.67
784.449	66.02
784.762	65.89
785.075	65.52
785.388	65.52
785.701	65.42
786.014	65.46
786.327	65.71
786.64	66.12
786.953	66.44
787.266	66.17
787.578	65.84
787.891	66.27
788.204	66.48
788.516	66.39
788.829	66.49
789.141	66.07
789.454	66.2
789.766	66.24
790.079	65.29
790.391	65.26
790.703	64.9
791.016	64.35
791.328	64.16
791.64	64.81
791.952	65.17
792.264	65.05
792.576	64.86
792.888	64.81
793.2	64.85
793.512	64.92
793.824	65.44
794.136	65.89
794.448	65.26
794.76	64.9
795.071	64.9
795.383	64.7
795.695	65
796.006	64.72
796.318	64.87
796.629	65.57
796.941	65.54
797.252	64.92
797.564	64.99
797.875	64.96
798.186	64.68
798.497	64.63
798.809	64.83
799.12	65.03
799.431	65.29
799.742	65.4
800.053	65.58
800.364	65.06
800.675	64.7
800.986	65.43
801.297	65.5
801.608	65.81
801.918	66.43
802.229	66.91
802.54	67.11
802.851	67.04
803.161	66.93
803.472	66.74
803.782	67.92
804.093	67.89
804.403	68.31
804.714	68.02
805.024	67.56
805.334	68.09
805.645	67.91
805.955	67.07
806.265	67.18
806.575	66.8
806.885	66.9
807.195	66.91
807.505	66.52
807.815	67.07
808.125	67.25
808.435	67.77
808.745	67.66
809.055	67.63
809.365	67.61
809.674	68.1
809.984	67.58
810.294	66.47
810.603	66.41
810.913	65.84
811.222	67.27
811.532	67.98
811.841	68.16
812.151	67.97
812.46	68.3
812.769	67.4
813.079	67.32
813.388	67.15
813.697	67.08
814.006	67.1
814.315	67.45
814.624	68.77
814.933	68.71
815.242	68.36
815.551	68.16
815.86	68.4
816.169	67.77
816.478	68.38
816.786	69.16
817.095	69.65
817.404	69.61
817.712	68.82
818.021	68.3
818.33	67.79
818.638	68.28
818.947	68.52
819.255	69.43
819.563	69.24
819.872	69.03
820.18	69.29
820.488	69.42
820.796	68.97
821.105	68.05
821.413	67.65
821.721	67.67
822.029	67.51
822.337	67.36
822.645	67.5
822.953	67.47
823.26	67.54
823.568	67.4
823.876	67.45
824.184	67.15
824.491	67.26
824.799	67.09
825.107	67.14
825.414	67.07
825.722	66.72
826.029	66.7
826.337	66.72
826.644	66.64
826.951	66.39
827.259	66.28
827.566	66.55
827.873	66.78
828.18	66.52
828.488	66.69
828.795	66.67
829.102	66.31
829.409	66.28
829.716	65.86
830.023	65.61
830.329	65.24
830.636	66
830.943	65.9
831.25	66.37
831.557	66.26
831.863	66.23
832.17	65.88
832.476	65.53
832.783	65.7
833.089	64.85
833.396	65.36
833.702	65.14
834.009	65.12
834.315	65.44
834.621	65.77
834.928	66.19
835.234	66.34
835.54	66.58
835.846	66.44
836.152	66.84
836.458	66.74
836.764	67.02
837.07	66.67
837.376	66.18
837.682	65.98
837.988	65.84
838.293	65.99
838.599	66.41
838.905	66.03
839.211	65.38
839.516	66.19
839.822	66.04
840.127	66.18
840.433	65.87
840.738	64.45
841.044	64.06
841.349	63.26
841.654	64.39
841.959	64.67
842.265	64.85
842.57	64.88
842.875	66.63
843.18	66.26
843.485	65.37
843.79	66.6
844.095	66.74
844.4	66.37
844.705	66.14
845.01	65.98
845.315	65.95
845.619	67.04
845.924	68.2
846.229	67.84
846.533	69.22
846.838	69.03
847.142	69.65
847.447	68.71
847.751	67.69
848.056	67.83
848.36	67.49
848.664	67.77
848.969	66.23
849.273	64.69
849.577	65.8
849.881	66.36
850.185	67.49
850.489	66.36
850.794	65.77
851.097	64.95
851.401	66.45
851.705	69.78
852.009	68.5
852.313	68.32
852.617	69.77
852.92	69.95
853.224	69.56
853.528	68.36
853.831	68.41
854.135	70.19
854.438	68.19
854.742	66.74
855.045	67.77
855.349	70.18
855.652	73.51
855.955	73.48
856.259	74.56
856.562	75
856.865	77.12
857.168	77.36
857.471	80.3
857.774	80.86
858.077	79.82
858.38	79.77
858.683	77.77
858.986	76.97
859.289	76.25
859.592	76.46
859.894	75.99
860.197	76.01
860.5	74.75
860.802	74.98
861.105	78.22
861.407	79.04
861.71	76.83
862.012	73.89
862.315	73.68
862.617	70.12
862.919	67.64
863.222	65.16
863.524	63.75
863.826	62.9
864.128	62.44
864.43	65.18
864.732	65.77
865.034	67.59
865.336	64.84
865.638	64.28
865.94	64.75
866.242	69.34
866.544	69.21
866.846	69.55
867.147	68.78
867.449	65.81
867.751	63.31
868.052	65.38
868.354	63.94
868.655	64.11
868.957	67.68
869.258	69.04
869.56	69.55
869.861	70.13
870.162	70.22
870.463	72.24
870.765	70.76
871.066	71.08
871.367	67.99
871.668	71.51
871.969	71.44
872.27	69.59
872.571	66.93
872.872	65.95
873.173	65.81
873.473	65.11
873.774	65.75
874.075	66.62
874.376	63.06
874.676	65.5
874.977	62.13
875.277	62.22
875.578	60.23
875.878	60.77
876.179	62.16
876.479	61.27
876.78	58.83
877.08	56.49
877.38	55.46
877.68	56.44
877.981	52.63
878.281	52.36
878.581	53.4
