Data from BU26849_Reflection_00009.txt Node
Date: Mon Nov 18 16:43:19 EST 2019
User: vgr7
Spectrometer: USB2G7710
Scans to average: 3
Trigger mode: 4
Integration Time (sec): 2.000000E-2
Electric dark correction enabled: true
Boxcar width: 10
XAxis mode: Wavelengths
Number of Pixels in Spectrum: 2048
>>>>>Begin Spectral Data<<<<<
177.721	-105.51
178.105	-72.77
178.488	-9.54
178.871	3.63
179.254	5.12
179.636	-54.31
180.019	19.77
180.402	70.97
180.785	131.59
181.168	517.48
181.55	263.09
181.933	97.54
182.316	88.57
182.698	45.36
183.081	75.27
183.463	58.99
183.846	82.97
184.228	82.82
184.611	78.27
184.993	117.31
185.376	180.26
185.758	91.31
186.14	86.15
186.522	354.93
186.904	243.84
187.287	197.83
187.669	985.63
188.051	-3128.35
188.433	-634.13
188.815	-226.16
189.197	-231.69
189.579	-198.61
189.961	-138.86
190.342	-134.82
190.724	-94.44
191.106	-84.86
191.488	-72.12
191.869	-63.01
192.251	-101.31
192.633	-94.34
193.014	-124.89
193.396	-154.89
193.777	-160.64
194.159	-149.56
194.54	-150.64
194.922	-118.01
195.303	-93.98
195.684	-81.71
196.065	-61.7
196.447	-54.14
196.828	-65.94
197.209	-70.38
197.59	-76.39
197.971	-81.55
198.352	-75.82
198.733	-81.73
199.114	-55.63
199.495	-55.89
199.876	-40.83
200.257	-24.22
200.638	-28.27
201.018	-32.09
201.399	-18.98
201.78	-12.18
202.16	-20.15
202.541	-10.52
202.922	-20.64
203.302	-34.33
203.683	-51.52
204.063	-56.8
204.444	-60.22
204.824	-45.63
205.204	-41.98
205.585	-39.42
205.965	-30.34
206.345	-25.08
206.725	-21.98
207.106	-52.37
207.486	-62.95
207.866	-55.95
208.246	-54.49
208.626	-46.44
209.006	-42.57
209.386	-74.61
209.766	-80.63
210.145	-61.11
210.525	-70.5
210.905	-72.7
211.285	-61.26
211.664	-39.98
212.044	-39.29
212.424	-31.22
212.803	-37.43
213.183	-44.55
213.562	-55.55
213.942	-44.09
214.321	-38.2
214.701	-55.97
215.08	-33.52
215.459	-44.88
215.838	-43.76
216.218	-62.14
216.597	-56.6
216.976	-57.69
217.355	-51.74
217.734	-60.4
218.113	-59.4
218.492	-47.99
218.871	-52.72
219.25	-41.38
219.629	-37.45
220.008	-33.03
220.387	-26.69
220.766	-27.71
221.144	-28.33
221.523	-29.76
221.902	-30.56
222.28	-36.02
222.659	-22.44
223.037	-30.65
223.416	-23.71
223.794	-28.92
224.173	-28.86
224.551	-24.87
224.929	-27.64
225.308	-22.07
225.686	-19.34
226.064	-9.54
226.442	-14.06
226.821	-11.41
227.199	-13.44
227.577	-12.13
227.955	-13.46
228.333	-15.78
228.711	-13.07
229.089	-9.48
229.467	-10.86
229.845	-12.93
230.222	-12.19
230.6	-16.24
230.978	-12.67
231.356	-11.54
231.733	-10.88
232.111	-7.84
232.488	-7.97
232.866	-5.14
233.243	-6.17
233.621	-5.67
233.998	-7.57
234.376	-6.67
234.753	-5.34
235.13	-3.13
235.508	-2.51
235.885	-2.79
236.262	-4.63
236.639	-4.87
237.016	-4.43
237.393	-0.28
237.77	0.99
238.147	2.36
238.524	3.29
238.901	3.55
239.278	4.22
239.655	5.05
240.032	4.84
240.409	4.24
240.785	4.15
241.162	4.38
241.539	4.44
241.915	4.66
242.292	4.22
242.668	4.27
243.045	4.28
243.421	4.25
243.798	4.11
244.174	4.43
244.551	4.54
244.927	4.6
245.303	4.46
245.679	4.48
246.056	4.39
246.432	4.34
246.808	4.11
247.184	3.92
247.56	3.5
247.936	3.5
248.312	3.57
248.688	3.5
249.064	3.35
249.44	3.32
249.815	3.31
250.191	3.4
250.567	3.27
250.943	3.12
251.318	3.23
251.694	3.13
252.069	3.18
252.445	3.11
252.82	3.02
253.196	2.91
253.571	2.81
253.947	2.54
254.322	2.53
254.697	2.75
255.073	2.44
255.448	2.67
255.823	2.75
256.198	2.81
256.573	2.83
256.948	3.1
257.323	3.14
257.698	3.23
258.073	3.42
258.448	3.69
258.823	3.62
259.198	3.25
259.573	3.2
259.948	3.17
260.322	3.15
260.697	2.93
261.072	2.81
261.446	2.91
261.821	3
262.195	3.14
262.57	3.03
262.944	3.03
263.319	3.09
263.693	2.93
264.067	3.23
264.442	3.34
264.816	3.24
265.19	3.08
265.564	3.02
265.938	2.89
266.313	2.8
266.687	2.82
267.061	3.17
267.435	3.32
267.809	3.48
268.183	3.53
268.556	3.79
268.93	3.81
269.304	3.76
269.678	3.74
270.051	3.74
270.425	3.84
270.799	4.12
271.172	4.07
271.546	4.18
271.919	3.9
272.293	3.87
272.666	3.91
273.04	4.17
273.413	4.1
273.787	4.17
274.16	4.03
274.533	4.1
274.906	3.95
275.279	3.77
275.653	3.64
276.026	3.62
276.399	3.62
276.772	3.69
277.145	3.57
277.518	3.57
277.891	3.5
278.263	3.49
278.636	3.45
279.009	3.46
279.382	3.59
279.755	3.54
280.127	3.75
280.5	3.74
280.872	3.65
281.245	3.59
281.617	3.63
281.99	3.82
282.362	3.78
282.735	3.83
283.107	3.96
283.479	3.99
283.852	4.1
284.224	3.99
284.596	4.1
284.968	4.14
285.34	4.26
285.713	4.27
286.085	4.2
286.457	4.13
286.829	4.24
287.201	4.18
287.572	4.16
287.944	3.96
288.316	4.07
288.688	3.99
289.06	4
289.431	4.01
289.803	3.89
290.175	3.93
290.546	3.99
290.918	4.02
291.289	4.08
291.661	3.99
292.032	4.23
292.403	4.2
292.775	4.34
293.146	4.33
293.517	4.41
293.889	4.67
294.26	4.84
294.631	4.85
295.002	4.84
295.373	5
295.744	5.14
296.115	5.11
296.486	5.11
296.857	5.16
297.228	5.11
297.599	5.23
297.97	5.29
298.34	5.4
298.711	5.54
299.082	5.4
299.452	5.58
299.823	5.45
300.194	5.47
300.564	5.39
300.935	5.41
301.305	5.47
301.676	5.28
302.046	5.31
302.416	5.52
302.787	5.64
303.157	5.65
303.527	5.71
303.897	5.91
304.267	6.17
304.637	6.33
305.008	6.57
305.378	6.6
305.748	6.57
306.117	6.54
306.487	6.57
306.857	6.77
307.227	6.74
307.597	6.96
307.967	6.92
308.336	7.08
308.706	7.1
309.076	7.21
309.445	7.35
309.815	7.26
310.184	6.99
310.554	6.98
310.923	7.08
311.293	7.06
311.662	7.08
312.031	7.04
312.401	7.11
312.77	7.21
313.139	7.3
313.508	7.46
313.877	7.52
314.246	7.59
314.616	7.68
314.985	7.71
315.353	7.75
315.722	7.88
316.091	7.91
316.46	7.97
316.829	7.99
317.198	8.13
317.567	8.42
317.935	8.53
318.304	8.69
318.672	8.77
319.041	9.11
319.41	9.08
319.778	9.28
320.147	9.28
320.515	9.14
320.883	9.09
321.252	9.16
321.62	9.2
321.988	9.15
322.357	9.21
322.725	9.35
323.093	9.29
323.461	9.42
323.829	9.56
324.197	9.71
324.565	9.73
324.933	9.89
325.301	9.83
325.669	10.07
326.037	10.08
326.405	9.99
326.772	9.89
327.14	10.01
327.508	10.02
327.875	10.1
328.243	10.3
328.61	10.45
328.978	10.55
329.346	10.63
329.713	10.66
330.08	10.76
330.448	10.64
330.815	10.65
331.182	10.74
331.55	10.88
331.917	10.94
332.284	11.07
332.651	11.01
333.018	10.9
333.385	10.91
333.752	11.03
334.119	11.2
334.486	11.29
334.853	11.28
335.22	11.39
335.587	11.61
335.954	11.54
336.32	11.63
336.687	11.65
337.054	11.73
337.42	11.84
337.787	11.9
338.153	12.22
338.52	12.35
338.886	12.27
339.253	12.2
339.619	12.16
339.986	12.2
340.352	12.21
340.718	12.42
341.084	12.41
341.451	12.53
341.817	12.63
342.183	12.67
342.549	12.7
342.915	12.76
343.281	12.65
343.647	12.65
344.013	12.59
344.379	12.57
344.745	12.62
345.11	12.72
345.476	12.75
345.842	12.55
346.208	12.56
346.573	12.76
346.939	12.92
347.304	12.97
347.67	12.91
348.035	12.94
348.401	12.96
348.766	13
349.132	12.94
349.497	12.9
349.862	12.89
350.228	12.93
350.593	12.9
350.958	12.91
351.323	13.03
351.688	13.04
352.053	13.1
352.418	13.21
352.783	13.35
353.148	13.23
353.513	13.28
353.878	13.32
354.243	13.27
354.608	13.23
354.972	13.24
355.337	13.27
355.702	13.3
356.066	13.26
356.431	13.25
356.795	13.26
357.16	13.34
357.524	13.28
357.889	13.25
358.253	13.19
358.618	13.27
358.982	13.29
359.346	13.3
359.71	13.26
360.075	13.18
360.439	13.08
360.803	13.11
361.167	13.11
361.531	13.14
361.895	13.05
362.259	12.94
362.623	12.95
362.987	12.94
363.351	13.01
363.714	12.98
364.078	12.91
364.442	12.91
364.806	12.83
365.169	12.84
365.533	12.89
365.896	12.94
366.26	12.86
366.623	12.87
366.987	12.88
367.35	12.83
367.714	12.82
368.077	12.75
368.44	12.81
368.803	12.8
369.167	12.62
369.53	12.56
369.893	12.55
370.256	12.49
370.619	12.47
370.982	12.36
371.345	12.35
371.708	12.35
372.071	12.25
372.434	12.18
372.797	12.18
373.159	12.01
373.522	11.95
373.885	11.92
374.247	11.74
374.61	11.64
374.973	11.65
375.335	11.53
375.698	11.43
376.06	11.3
376.423	11.23
376.785	11.25
377.147	11.26
377.51	11.2
377.872	11.11
378.234	11.02
378.596	10.91
378.958	10.8
379.321	10.76
379.683	10.75
380.045	10.64
380.407	10.55
380.769	10.51
381.13	10.4
381.492	10.31
381.854	10.25
382.216	10.18
382.578	10.07
382.939	9.98
383.301	9.9
383.663	9.88
384.024	9.79
384.386	9.75
384.747	9.69
385.109	9.6
385.47	9.58
385.832	9.54
386.193	9.51
386.554	9.45
386.916	9.43
387.277	9.37
387.638	9.38
387.999	9.3
388.36	9.21
388.721	9.19
389.082	9.1
389.443	9.03
389.804	8.97
390.165	8.92
390.526	8.88
390.887	8.83
391.248	8.75
391.609	8.71
391.969	8.66
392.33	8.6
392.691	8.58
393.051	8.52
393.412	8.44
393.772	8.33
394.133	8.27
394.493	8.15
394.854	8.08
395.214	7.98
395.574	7.94
395.935	7.91
396.295	7.87
396.655	7.84
397.015	7.78
397.376	7.72
397.736	7.65
398.096	7.61
398.456	7.6
398.816	7.54
399.176	7.48
399.535	7.36
399.895	7.3
400.255	7.22
400.615	7.17
400.975	7.11
401.334	7.09
401.694	7.06
402.054	6.98
402.413	6.93
402.773	6.93
403.132	6.86
403.492	6.81
403.851	6.71
404.211	6.65
404.57	6.6
404.929	6.57
405.288	6.55
405.648	6.52
406.007	6.45
406.366	6.41
406.725	6.39
407.084	6.39
407.443	6.36
407.802	6.37
408.161	6.34
408.52	6.35
408.879	6.32
409.238	6.3
409.596	6.29
409.955	6.28
410.314	6.25
410.673	6.24
411.031	6.23
411.39	6.23
411.748	6.22
412.107	6.23
412.465	6.2
412.824	6.2
413.182	6.15
413.54	6.14
413.899	6.14
414.257	6.13
414.615	6.07
414.974	6.03
415.332	5.97
415.69	5.95
416.048	5.89
416.406	5.88
416.764	5.87
417.122	5.85
417.48	5.8
417.838	5.77
418.195	5.73
418.553	5.7
418.911	5.65
419.269	5.64
419.626	5.61
419.984	5.6
420.342	5.56
420.699	5.55
421.057	5.52
421.414	5.47
421.772	5.44
422.129	5.44
422.486	5.42
422.844	5.39
423.201	5.36
423.558	5.33
423.915	5.29
424.273	5.25
424.63	5.22
424.987	5.22
425.344	5.18
425.701	5.16
426.058	5.13
426.415	5.12
426.772	5.09
427.128	5.07
427.485	5.03
427.842	4.98
428.199	4.94
428.555	4.94
428.912	4.93
429.269	4.91
429.625	4.87
429.982	4.83
430.338	4.85
430.695	4.82
431.051	4.82
431.407	4.83
431.764	4.84
432.12	4.82
432.476	4.8
432.832	4.79
433.189	4.77
433.545	4.76
433.901	4.77
434.257	4.75
434.613	4.74
434.969	4.75
435.325	4.78
435.681	4.78
436.036	4.77
436.392	4.76
436.748	4.78
437.104	4.77
437.459	4.79
437.815	4.8
438.171	4.81
438.526	4.81
438.882	4.81
439.237	4.83
439.593	4.84
439.948	4.85
440.304	4.87
440.659	4.9
441.014	4.91
441.369	4.91
441.725	4.9
442.08	4.91
442.435	4.92
442.79	4.92
443.145	4.93
443.5	4.92
443.855	4.92
444.21	4.9
444.565	4.91
444.92	4.9
445.275	4.87
445.629	4.87
445.984	4.87
446.339	4.85
446.693	4.81
447.048	4.78
447.403	4.77
447.757	4.74
448.112	4.72
448.466	4.7
448.82	4.68
449.175	4.67
449.529	4.64
449.883	4.61
450.238	4.59
450.592	4.57
450.946	4.55
451.3	4.52
451.654	4.51
452.008	4.48
452.362	4.46
452.716	4.44
453.07	4.42
453.424	4.38
453.778	4.37
454.132	4.37
454.486	4.39
454.839	4.36
455.193	4.35
455.547	4.34
455.9	4.35
456.254	4.33
456.607	4.32
456.961	4.31
457.314	4.31
457.668	4.32
458.021	4.31
458.375	4.34
458.728	4.36
459.081	4.36
459.434	4.36
459.787	4.37
460.141	4.4
460.494	4.42
460.847	4.44
461.2	4.43
461.553	4.47
461.906	4.47
462.259	4.52
462.611	4.55
462.964	4.57
463.317	4.61
463.67	4.65
464.022	4.68
464.375	4.72
464.728	4.73
465.08	4.74
465.433	4.77
465.785	4.77
466.138	4.79
466.49	4.83
466.843	4.84
467.195	4.88
467.547	4.88
467.899	4.9
468.252	4.91
468.604	4.96
468.956	4.96
469.308	4.99
469.66	4.98
470.012	5
470.364	5.02
470.716	5.02
471.068	5.03
471.42	5.06
471.772	5.1
472.123	5.16
472.475	5.19
472.827	5.22
473.178	5.26
473.53	5.27
473.882	5.28
474.233	5.31
474.585	5.3
474.936	5.31
475.288	5.31
475.639	5.34
475.99	5.35
476.342	5.36
476.693	5.36
477.044	5.38
477.395	5.4
477.746	5.39
478.097	5.38
478.448	5.38
478.8	5.35
479.15	5.3
479.501	5.28
479.852	5.27
480.203	5.24
480.554	5.22
480.905	5.22
481.255	5.22
481.606	5.2
481.957	5.2
482.307	5.18
482.658	5.17
483.009	5.15
483.359	5.14
483.709	5.13
484.06	5.13
484.41	5.12
484.761	5.11
485.111	5.09
485.461	5.1
485.811	5.09
486.162	5.08
486.512	5.09
486.862	5.09
487.212	5.08
487.562	5.08
487.912	5.08
488.262	5.06
488.612	5.05
488.961	5.05
489.311	5.05
489.661	5.06
490.011	5.06
490.36	5.05
490.71	5.06
491.06	5.07
491.409	5.07
491.759	5.07
492.108	5.07
492.458	5.1
492.807	5.11
493.157	5.14
493.506	5.16
493.855	5.17
494.204	5.21
494.554	5.23
494.903	5.27
495.252	5.3
495.601	5.35
495.95	5.41
496.299	5.45
496.648	5.49
496.997	5.54
497.346	5.62
497.695	5.71
498.043	5.78
498.392	5.84
498.741	5.91
499.09	5.98
499.438	6.08
499.787	6.17
500.135	6.25
500.484	6.35
500.832	6.45
501.181	6.58
501.529	6.67
501.878	6.79
502.226	6.91
502.574	7.05
502.923	7.18
503.271	7.32
503.619	7.47
503.967	7.65
504.315	7.8
504.663	7.96
505.011	8.1
505.359	8.24
505.707	8.41
506.055	8.58
506.403	8.78
506.751	8.94
507.098	9.12
507.446	9.29
507.794	9.45
508.141	9.63
508.489	9.81
508.837	10
509.184	10.19
509.531	10.39
509.879	10.61
510.226	10.8
510.574	11
510.921	11.19
511.268	11.36
511.616	11.58
511.963	11.78
512.31	11.99
512.657	12.24
513.004	12.47
513.351	12.69
513.698	12.93
514.045	13.19
514.392	13.43
514.739	13.68
515.086	13.93
515.432	14.19
515.779	14.42
516.126	14.66
516.473	14.89
516.819	15.1
517.166	15.29
517.512	15.5
517.859	15.69
518.205	15.9
518.552	16.12
518.898	16.31
519.245	16.51
519.591	16.7
519.937	16.86
520.283	17.08
520.629	17.3
520.976	17.52
521.322	17.71
521.668	17.94
522.014	18.16
522.36	18.41
522.706	18.65
523.052	18.91
523.398	19.19
523.743	19.48
524.089	19.74
524.435	20
524.781	20.26
525.126	20.51
525.472	20.73
525.817	20.91
526.163	21.08
526.509	21.24
526.854	21.4
527.199	21.55
527.545	21.7
527.89	21.85
528.235	21.98
528.581	22.15
528.926	22.31
529.271	22.46
529.616	22.61
529.961	22.77
530.306	22.93
530.651	23.1
530.996	23.26
531.341	23.44
531.686	23.63
532.031	23.79
532.376	23.98
532.721	24.15
533.065	24.35
533.41	24.58
533.755	24.82
534.099	25.02
534.444	25.25
534.788	25.46
535.133	25.68
535.477	25.9
535.822	26.13
536.166	26.35
536.51	26.62
536.855	26.87
537.199	27.13
537.543	27.4
537.887	27.64
538.231	27.92
538.576	28.22
538.92	28.48
539.264	28.73
539.608	28.99
539.951	29.2
540.295	29.41
540.639	29.59
540.983	29.79
541.327	29.98
541.671	30.18
542.014	30.35
542.358	30.54
542.701	30.75
543.045	30.94
543.389	31.15
543.732	31.34
544.075	31.52
544.419	31.71
544.762	31.92
545.105	32.17
545.449	32.39
545.792	32.56
546.135	32.81
546.478	33.1
546.821	33.31
547.165	33.64
547.508	33.87
547.851	34.12
548.194	34.35
548.536	34.62
548.879	34.87
549.222	35.13
549.565	35.43
549.908	35.63
550.25	35.85
550.593	36.1
550.936	36.35
551.278	36.63
551.621	36.87
551.963	37.15
552.306	37.33
552.648	37.54
552.991	37.8
553.333	38.03
553.675	38.24
554.017	38.46
554.36	38.61
554.702	38.84
555.044	39.03
555.386	39.24
555.728	39.45
556.07	39.7
556.412	39.88
556.754	40.06
557.096	40.24
557.438	40.49
557.78	40.64
558.121	40.81
558.463	40.99
558.805	41.21
559.147	41.34
559.488	41.55
559.83	41.71
560.171	41.88
560.513	42
560.854	42.17
561.196	42.35
561.537	42.52
561.878	42.69
562.22	42.81
562.561	42.96
562.902	43.1
563.243	43.17
563.584	43.32
563.925	43.47
564.266	43.62
564.607	43.75
564.948	43.86
565.289	44
565.63	44.09
565.971	44.12
566.312	44.25
566.653	44.34
566.993	44.42
567.334	44.53
567.675	44.65
568.015	44.66
568.356	44.76
568.696	44.86
569.037	44.99
569.377	45.17
569.718	45.28
570.058	45.37
570.398	45.54
570.739	45.64
571.079	45.71
571.419	45.79
571.759	45.85
572.099	45.94
572.439	46
572.779	46.07
573.119	46.22
573.459	46.27
573.799	46.36
574.139	46.49
574.479	46.56
574.819	46.62
575.158	46.73
575.498	46.8
575.838	46.92
576.177	46.99
576.517	47.07
576.856	47.12
577.196	47.25
577.535	47.27
577.875	47.35
578.214	47.43
578.553	47.54
578.893	47.64
579.232	47.73
579.571	47.85
579.91	47.93
580.25	48.02
580.589	48.1
580.928	48.15
581.267	48.21
581.606	48.22
581.945	48.28
582.283	48.34
582.622	48.44
582.961	48.41
583.3	48.44
583.639	48.4
583.977	48.38
584.316	48.43
584.654	48.51
584.993	48.55
585.332	48.6
585.67	48.64
586.008	48.68
586.347	48.73
586.685	48.77
587.024	48.8
587.362	48.84
587.7	48.86
588.038	48.96
588.376	49
588.715	49.11
589.053	49.22
589.391	49.23
589.729	49.25
590.067	49.33
590.404	49.36
590.742	49.47
591.08	49.61
591.418	49.62
591.756	49.59
592.093	49.62
592.431	49.63
592.769	49.65
593.106	49.72
593.444	49.74
593.781	49.76
594.119	49.78
594.456	49.76
594.793	49.82
595.131	49.76
595.468	49.81
595.805	49.83
596.143	49.79
596.48	49.87
596.817	49.85
597.154	49.88
597.491	49.86
597.828	49.81
598.165	49.85
598.502	49.86
598.839	49.94
599.176	49.95
599.512	49.98
599.849	50.05
600.186	50.07
600.523	50.05
600.859	50.08
601.196	50.17
601.532	50.18
601.869	50.21
602.205	50.32
602.542	50.37
602.878	50.35
603.215	50.44
603.551	50.42
603.887	50.42
604.223	50.36
604.56	50.42
604.896	50.47
605.232	50.48
605.568	50.51
605.904	50.49
606.24	50.61
606.576	50.67
606.912	50.63
607.248	50.6
607.583	50.67
607.919	50.65
608.255	50.62
608.591	50.66
608.926	50.67
609.262	50.67
609.597	50.69
609.933	50.73
610.268	50.65
610.604	50.71
610.939	50.79
611.275	50.88
611.61	50.92
611.945	50.95
612.281	50.97
612.616	50.95
612.951	50.99
613.286	50.96
613.621	50.98
613.956	50.98
614.291	50.99
614.626	50.94
614.961	51.08
615.296	51.06
615.631	51.19
615.966	51.26
616.3	51.23
616.635	51.18
616.97	51.22
617.304	51.3
617.639	51.3
617.973	51.32
618.308	51.29
618.642	51.32
618.977	51.36
619.311	51.29
619.646	51.38
619.98	51.4
620.314	51.34
620.648	51.35
620.983	51.35
621.317	51.46
621.651	51.48
621.985	51.39
622.319	51.45
622.653	51.33
622.987	51.37
623.321	51.42
623.655	51.54
623.988	51.65
624.322	51.66
624.656	51.64
624.99	51.69
625.323	51.66
625.657	51.59
625.99	51.62
626.324	51.59
626.657	51.59
626.991	51.49
627.324	51.55
627.658	51.57
627.991	51.67
628.324	51.7
628.657	51.74
628.991	51.84
629.324	51.93
629.657	51.99
629.99	51.91
630.323	51.88
630.656	51.87
630.989	51.83
631.322	51.8
631.655	51.8
631.987	51.77
632.32	51.85
632.653	51.93
632.986	51.95
633.318	52.02
633.651	52.08
633.984	52.22
634.316	52.17
634.649	52.12
634.981	52.06
635.313	51.99
635.646	51.99
635.978	51.99
636.31	52
636.643	51.98
636.975	52.02
637.307	52.01
637.639	51.91
637.971	51.88
638.303	51.95
638.635	52.04
638.967	52.05
639.299	52.16
639.631	52.15
639.963	52.09
640.295	52.07
640.626	52.02
640.958	52.02
641.29	52.08
641.621	52.08
641.953	52.01
642.285	52.06
642.616	52.06
642.948	52.07
643.279	52.07
643.61	52.15
643.942	52.11
644.273	52.13
644.604	52.23
644.936	52.21
645.267	52.16
645.598	52.06
645.929	52.1
646.26	51.91
646.591	51.91
646.922	51.94
647.253	52.01
647.584	52
647.915	51.93
648.245	52.04
648.576	52.1
648.907	52.23
649.238	52.15
649.568	52.17
649.899	52.12
650.229	51.98
650.56	52
650.89	52.1
651.221	52.14
651.551	52.09
651.882	52.09
652.212	52.1
652.542	52.17
652.872	52.17
653.203	52.22
653.533	52.25
653.863	52.23
654.193	52.28
654.523	52.37
654.853	52.46
655.183	52.41
655.513	52.27
655.843	52.18
656.172	52.26
656.502	52.26
656.832	52.37
657.162	52.51
657.491	52.5
657.821	52.39
658.15	52.36
658.48	52.31
658.809	52.26
659.139	52.22
659.468	52.25
659.798	52.27
660.127	52.38
660.456	52.4
660.785	52.39
661.115	52.33
661.444	52.34
661.773	52.28
662.102	52.27
662.431	52.41
662.76	52.49
663.089	52.39
663.418	52.36
663.747	52.25
664.076	52.18
664.404	52.11
664.733	52.18
665.062	52.28
665.39	52.4
665.719	52.52
666.048	52.61
666.376	52.5
666.705	52.33
667.033	52.3
667.362	52.31
667.69	52.43
668.018	52.45
668.347	52.49
668.675	52.61
669.003	52.61
669.331	52.62
669.659	52.59
669.987	52.77
670.315	52.78
670.643	52.67
670.971	52.79
671.299	52.88
671.627	52.88
671.955	52.88
672.283	52.72
672.61	52.72
672.938	52.64
673.266	52.82
673.593	52.99
673.921	52.9
674.249	52.79
674.576	52.73
674.904	52.79
675.231	52.6
675.558	52.52
675.886	52.46
676.213	52.42
676.54	52.49
676.867	52.44
677.195	52.33
677.522	52.4
677.849	52.27
678.176	52.29
678.503	52.17
678.83	52.12
679.157	52.24
679.484	52.2
679.81	52.26
680.137	52.13
680.464	52.18
680.791	52.21
681.117	52.2
681.444	52.13
681.771	52.08
682.097	52.24
682.424	52.22
682.75	52.31
683.077	52.41
683.403	52.47
683.729	52.38
684.056	52.53
684.382	52.54
684.708	52.65
685.034	52.47
685.36	52.55
685.686	52.62
686.012	52.55
686.339	52.54
686.664	52.62
686.99	52.75
687.316	52.6
687.642	52.7
687.968	52.84
688.294	52.97
688.619	52.93
688.945	52.7
689.271	52.76
689.596	52.7
689.922	52.54
690.247	52.39
690.573	52.46
690.898	52.47
691.224	52.45
691.549	52.37
691.874	52.46
692.2	52.52
692.525	52.46
692.85	52.54
693.175	52.66
693.5	52.4
693.825	52.22
694.15	52.24
694.475	52.11
694.8	52.05
695.125	51.95
695.45	51.83
695.775	51.98
696.099	51.84
696.424	51.76
696.749	51.78
697.073	51.92
697.398	51.98
697.723	51.92
698.047	51.98
698.372	52.07
698.696	52.27
699.02	52.28
699.345	52.31
699.669	52.36
699.993	52.3
700.318	52.56
700.642	52.71
700.966	52.72
701.29	52.89
701.614	52.94
701.938	53.1
702.262	53.17
702.586	53.22
702.91	53.46
703.234	53.45
703.557	53.43
703.881	53.34
704.205	53.38
704.529	53.41
704.852	53.35
705.176	53.34
705.499	53.03
705.823	53.05
706.146	53.08
706.47	52.93
706.793	52.89
707.117	52.7
707.44	52.43
707.763	52.49
708.086	52.25
708.409	52.15
708.733	51.87
709.056	51.96
709.379	51.83
709.702	51.68
710.025	51.85
710.348	51.99
710.671	51.99
710.993	51.83
711.316	51.86
711.639	51.9
711.962	51.71
712.284	51.79
712.607	51.79
712.93	51.93
713.252	51.88
713.575	52.06
713.897	52.12
714.22	52.33
714.542	52.36
714.864	52.39
715.187	52.43
715.509	52.68
715.831	52.64
716.153	52.78
716.475	52.79
716.798	52.75
717.12	52.63
717.442	52.66
717.764	52.83
718.085	53.02
718.407	52.87
718.729	52.91
719.051	52.84
719.373	52.65
719.695	52.38
720.016	52.45
720.338	52.23
720.659	52.15
720.981	52.18
721.302	52.15
721.624	52.23
721.945	52.02
722.267	51.9
722.588	51.84
722.909	51.69
723.231	51.79
723.552	51.62
723.873	51.73
724.194	51.68
724.515	51.54
724.836	51.47
725.157	51.57
725.478	51.8
725.799	51.89
726.12	51.91
726.441	51.86
726.762	51.79
727.083	51.96
727.403	52.01
727.724	51.78
728.045	51.78
728.365	51.8
728.686	52.02
729.006	52.14
729.327	52.16
729.647	52.38
729.967	52.38
730.288	52.63
730.608	52.62
730.928	52.44
731.249	52.38
731.569	52.15
731.889	52.45
732.209	52.22
732.529	52.19
732.849	52.35
733.169	52.41
733.489	52.49
733.809	52.32
734.129	52.45
734.448	52.49
734.768	52.58
735.088	52.37
735.408	52.38
735.727	52.44
736.047	52.54
736.366	52.21
736.686	52.12
737.005	52.12
737.325	52.01
737.644	52.06
737.963	52.18
738.283	52.19
738.602	52.03
738.921	51.94
739.24	52.09
739.56	52.01
739.879	51.96
740.198	51.68
740.517	51.94
740.836	51.83
741.155	51.96
741.473	51.91
741.792	52.12
742.111	52.08
742.43	51.89
742.748	52.04
743.067	52.1
743.386	52.23
743.704	52.04
744.023	52.11
744.341	52.23
744.66	52.14
744.978	52.32
745.297	52.05
745.615	52.32
745.933	52.03
746.252	52.33
746.57	52.27
746.888	52.72
747.206	52.45
747.524	52.3
747.842	52.17
748.16	52.25
748.478	52.55
748.796	52.7
749.114	52.89
749.432	52.58
749.749	52.93
750.067	52.92
750.385	53.12
750.703	53.17
751.02	53.06
751.338	53.1
751.655	53.27
751.973	53.42
752.29	53.54
752.608	53.62
752.925	53.59
753.242	53.56
753.56	53.55
753.877	53.41
754.194	53.56
754.511	53.6
754.828	53.37
755.145	53.22
755.462	53.1
755.779	52.76
756.096	53.1
756.413	52.94
756.73	52.79
757.047	52.6
757.364	52.59
757.68	52.62
757.997	52.51
758.314	52.19
758.63	52.15
758.947	52
759.264	51.97
759.58	51.73
759.896	52.1
760.213	51.93
760.529	52.06
760.846	52.09
761.162	52.08
761.478	52.21
761.794	52.04
762.11	51.87
762.426	52.26
762.743	52.31
763.059	52.35
763.375	52.49
763.69	52.67
764.006	52.61
764.322	52.9
764.638	53.03
764.954	53.17
765.27	53.15
765.585	53.2
765.901	53.25
766.216	53.43
766.532	53.35
766.848	53.3
767.163	53.24
767.478	53.04
767.794	53.25
768.109	53.17
768.424	53.18
768.74	53.34
769.055	53.3
769.37	53.36
769.685	53.3
770	53.3
770.315	53.03
770.63	52.83
770.945	52.47
771.26	52.44
771.575	52.12
771.89	52.24
772.205	52.17
772.52	52.39
772.834	52.17
773.149	51.72
773.464	51.75
773.778	51.62
774.093	51.62
774.407	51.45
774.722	51.25
775.036	51.19
775.351	51.18
775.665	50.8
775.979	50.19
776.293	50.31
776.608	50.58
776.922	50.5
777.236	50.6
777.55	50.5
777.864	50.93
778.178	51.18
778.492	51.34
778.806	51.32
779.12	51.29
779.434	51.61
779.747	51.96
780.061	52.17
780.375	52.86
780.689	52.93
781.002	52.92
781.316	53.12
781.629	53.55
781.943	53.35
782.256	53.11
782.57	53.61
782.883	53.84
783.196	53.19
783.51	53.63
783.823	54.31
784.136	54.46
784.449	53.95
784.762	54.05
785.075	53.79
785.388	53.86
785.701	53.61
786.014	53.42
786.327	53.65
786.64	53.92
786.953	53.47
787.266	53.81
787.578	53.72
787.891	53.66
788.204	52.98
788.516	52.67
788.829	52.88
789.141	52.79
789.454	52.61
789.766	52.91
790.079	52.47
790.391	52.11
790.703	52.19
791.016	51.86
791.328	51.94
791.64	51.79
791.952	51.82
792.264	52.07
792.576	51.81
792.888	51.58
793.2	51.47
793.512	51.38
793.824	51.37
794.136	51.44
794.448	51.77
794.76	52.08
795.071	52.39
795.383	52.31
795.695	52.26
796.006	52.06
796.318	51.21
796.629	51.58
796.941	51.08
797.252	51.38
797.564	51.76
797.875	51.81
798.186	51.89
798.497	52.19
798.809	51.87
799.12	51.83
799.431	51.76
799.742	51.51
800.053	51.88
800.364	51.41
800.675	50.87
800.986	50.93
801.297	51.51
801.608	51.49
801.918	51.69
802.229	51.5
802.54	51.34
802.851	52.23
803.161	52.19
803.472	52.42
803.782	52
804.093	51.83
804.403	51.61
804.714	51.6
805.024	51.25
805.334	51.44
805.645	51.69
805.955	51.94
806.265	51.96
806.575	51.39
806.885	51.58
807.195	52.2
807.505	51.72
807.815	51.37
808.125	51.58
808.435	51.78
808.745	51.83
809.055	51.99
809.365	52.08
809.674	51.92
809.984	51.95
810.294	52.37
810.603	52.97
810.913	52.67
811.222	52.81
811.532	53.37
811.841	54.29
812.151	53.77
812.46	53.39
812.769	53.63
813.079	54.47
813.388	54.27
813.697	54.7
814.006	54.73
814.315	54.83
814.624	55.07
814.933	54.53
815.242	53.8
815.551	53.95
815.86	53.44
816.169	53.81
816.478	54.25
816.786	53.57
817.095	53.93
817.404	54.67
817.712	54.84
818.021	54.57
818.33	53.59
818.638	53.86
818.947	53.88
819.255	53.72
819.563	53.29
819.872	53.58
820.18	53.74
820.488	53.71
820.796	53.49
821.105	53.59
821.413	53.59
821.721	53.58
822.029	53.56
822.337	53.71
822.645	53.72
822.953	53.8
823.26	53.93
823.568	53.86
823.876	53.89
824.184	53.84
824.491	53.88
824.799	53.87
825.107	54.06
825.414	54.26
825.722	54.36
826.029	54.5
826.337	54.5
826.644	54.25
826.951	54.24
827.259	54.26
827.566	54.1
827.873	54.1
828.18	54.28
828.488	54.42
828.795	54.34
829.102	54.02
829.409	53.88
829.716	53.89
830.023	53.69
830.329	53.58
830.636	53.49
830.943	53.69
831.25	53.73
831.557	53.2
831.863	53.11
832.17	53.1
832.476	52.92
832.783	52.74
833.089	53.03
833.396	53.74
833.702	53.86
834.009	53.96
834.315	54.25
834.621	53.95
834.928	53.65
835.234	53.42
835.54	53.78
835.846	53.58
836.152	53.87
836.458	53.49
836.764	53.43
837.07	53.08
837.376	52.74
837.682	53.14
837.988	53.63
838.293	53.23
838.599	52.75
838.905	53.33
839.211	53.19
839.516	53
839.822	51.56
840.127	51.05
840.433	51.3
840.738	50.6
841.044	50.7
841.349	51.34
841.654	51.46
841.959	50.54
842.265	51.08
842.57	50.53
842.875	51.5
843.18	51.45
843.485	52.1
843.79	50.76
844.095	49.78
844.4	49.55
844.705	49.28
845.01	50.27
845.315	48.76
845.619	48.48
845.924	48.51
846.229	49.75
846.533	52
846.838	51.02
847.142	52.38
847.447	52.58
847.751	51.73
848.056	50.49
848.36	52.53
848.664	52.23
848.969	51.45
849.273	50.24
849.577	50.73
849.881	52.29
850.185	53.71
850.489	53.98
850.794	54.15
851.097	53.85
851.401	52.76
851.705	52.91
852.009	52.85
852.313	51.99
852.617	50.83
852.92	49.71
853.224	49.09
853.528	48.53
853.831	48.6
854.135	49.39
854.438	52.51
854.742	49.77
855.045	49.78
855.349	50.37
855.652	51.49
855.955	50.58
856.259	50.7
856.562	48.99
856.865	48.68
857.168	46.31
857.471	47.52
857.774	48.26
858.077	47.94
858.38	49.08
858.683	51.2
858.986	52.67
859.289	53.54
859.592	54.96
859.894	54.89
860.197	55.23
860.5	52.77
860.802	51.51
861.105	54.2
861.407	52.03
861.71	51.14
862.012	50.55
862.315	49.93
862.617	49.18
862.919	49.49
863.222	51.01
863.524	52.42
863.826	52.42
864.128	51.89
864.43	52.54
864.732	53.7
865.034	49.36
865.336	48.63
865.638	46.7
865.94	45.15
866.242	45.2
866.544	45.89
866.846	45.61
867.147	46.16
867.449	43.19
867.751	46.93
868.052	48.37
868.354	47.19
868.655	48.39
868.957	45.33
869.258	46.76
869.56	44.08
869.861	42.21
870.162	43.31
870.463	41.54
870.765	41.95
871.066	41.51
871.367	45.16
871.668	48.02
871.969	49.12
872.27	49.31
872.571	48.4
872.872	48.28
873.173	49.53
873.473	47.71
873.774	49.68
874.075	47.12
874.376	45.62
874.676	47.31
874.977	45.02
875.277	46.38
875.578	45.96
875.878	46.96
876.179	49.24
876.479	47.3
876.78	49.29
877.08	48.24
877.38	47.12
877.68	45.85
877.981	41.39
878.281	38.98
878.581	39.66
