Data from BU26943_Reflection_00010.txt Node
Date: Tue Nov 19 11:02:33 EST 2019
User: vgr7
Spectrometer: USB2G7710
Scans to average: 3
Trigger mode: 4
Integration Time (sec): 2.000000E-2
Electric dark correction enabled: true
Boxcar width: 10
XAxis mode: Wavelengths
Number of Pixels in Spectrum: 2048
>>>>>Begin Spectral Data<<<<<
177.721	-111.92
178.105	-69.4
178.488	-24.58
178.871	-58.16
179.254	-32.1
179.636	-153.62
180.019	191.4
180.402	20
180.785	369.7
181.168	125.64
181.55	128.74
181.933	574.36
182.316	-435.09
182.698	-41.98
183.081	27.9
183.463	51.9
183.846	36.74
184.228	23.59
184.611	1.93
184.993	35.03
185.376	31.37
185.758	15.97
186.14	-4.57
186.522	-7.93
186.904	16.5
187.287	16.53
187.669	12.95
188.051	13.29
188.433	6.57
188.815	-1.5
189.197	-1.12
189.579	-8.98
189.961	-3.66
190.342	-15.43
190.724	-24.81
191.106	-26.74
191.488	-29.72
191.869	-28.91
192.251	-21.43
192.633	-7.27
193.014	-14.21
193.396	-7.53
193.777	-14.34
194.159	-6.06
194.54	-10.81
194.922	-28.65
195.303	-51.15
195.684	-73.52
196.065	-72.56
196.447	-59.29
196.828	-53.29
197.209	-48.33
197.59	-40.94
197.971	-25.07
198.352	-7.33
198.733	-6.14
199.114	2.07
199.495	7.8
199.876	2.28
200.257	-7.03
200.638	-11.9
201.018	-11.93
201.399	-1.27
201.78	2.66
202.16	3.26
202.541	-2.55
202.922	6.02
203.302	17.9
203.683	19.81
204.063	18.74
204.444	19.52
204.824	13.41
205.204	9.5
205.585	13.15
205.965	-3.07
206.345	1.87
206.725	-0.51
207.106	3.43
207.486	5.47
207.866	10.38
208.246	21.11
208.626	10.94
209.006	17.41
209.386	3.28
209.766	5.53
210.145	11.41
210.525	13.12
210.905	15.26
211.285	17.39
211.664	18.29
212.044	16.25
212.424	20.46
212.803	18.88
213.183	20.3
213.562	21.57
213.942	26.89
214.321	24.43
214.701	19.53
215.08	13.41
215.459	17.99
215.838	25.37
216.218	12.31
216.597	20.24
216.976	16.21
217.355	22.19
217.734	7.41
218.113	4.92
218.492	9.97
218.871	8.17
219.25	7.11
219.629	2.77
220.008	7.79
220.387	7.28
220.766	11.75
221.144	10.57
221.523	2.42
221.902	3.64
222.28	12.79
222.659	27.64
223.037	20.29
223.416	26.16
223.794	18.92
224.173	23.7
224.551	21.04
224.929	12.62
225.308	9.27
225.686	16.41
226.064	14.28
226.442	11.76
226.821	12.94
227.199	14.38
227.577	16.24
227.955	14.2
228.333	11.54
228.711	10.36
229.089	10.84
229.467	11.87
229.845	8.19
230.222	7.6
230.6	5.31
230.978	10.25
231.356	8.2
231.733	9.04
232.111	9.28
232.488	9.33
232.866	11.7
233.243	9.15
233.621	9.3
233.998	10.23
234.376	9.75
234.753	8.48
235.13	6.41
235.508	5.55
235.885	4.3
236.262	4.05
236.639	4.42
237.016	4.62
237.393	4.34
237.77	5
238.147	4.23
238.524	5.03
238.901	3.61
239.278	2.64
239.655	2.74
240.032	3.23
240.409	3.53
240.785	3.03
241.162	4.18
241.539	4.37
241.915	3.96
242.292	4.19
242.668	4.3
243.045	4.75
243.421	5.07
243.798	5.55
244.174	5.39
244.551	5.36
244.927	5.48
245.303	5.47
245.679	5.36
246.056	5.17
246.432	5.24
246.808	5.25
247.184	5.53
247.56	5.5
247.936	5.35
248.312	5.57
248.688	5.72
249.064	5.55
249.44	5.48
249.815	5.47
250.191	5.43
250.567	5.37
250.943	5.3
251.318	5.45
251.694	5.48
252.069	5.6
252.445	5.59
252.82	5.61
253.196	5.67
253.571	5.7
253.947	5.8
254.322	5.63
254.697	5.6
255.073	5.54
255.448	5.43
255.823	5.38
256.198	5.05
256.573	5.09
256.948	5.23
257.323	5.33
257.698	5.19
258.073	5.21
258.448	5.23
258.823	5.08
259.198	4.9
259.573	4.7
259.948	4.62
260.322	4.54
260.697	4.64
261.072	4.6
261.446	4.71
261.821	4.75
262.195	4.69
262.57	4.74
262.944	4.66
263.319	4.72
263.693	4.6
264.067	4.57
264.442	4.5
264.816	4.5
265.19	4.34
265.564	4.41
265.938	4.44
266.313	4.32
266.687	4.28
267.061	4.28
267.435	4.45
267.809	4.36
268.183	4.47
268.556	4.22
268.93	4.24
269.304	4.22
269.678	4.36
270.051	4.39
270.425	4.32
270.799	4.4
271.172	4.47
271.546	4.59
271.919	4.55
272.293	4.56
272.666	4.42
273.04	4.49
273.413	4.49
273.787	4.29
274.16	4.3
274.533	4.46
274.906	4.47
275.279	4.3
275.653	4.47
276.026	4.42
276.399	4.54
276.772	4.57
277.145	4.55
277.518	4.26
277.891	4.29
278.263	4.47
278.636	4.37
279.009	4.29
279.382	4.3
279.755	4.33
280.127	4.41
280.5	4.37
280.872	4.37
281.245	4.3
281.617	4.39
281.99	4.51
282.362	4.44
282.735	4.41
283.107	4.46
283.479	4.4
283.852	4.37
284.224	4.27
284.596	4.13
284.968	3.94
285.34	4.04
285.713	3.91
286.085	3.75
286.457	3.77
286.829	3.68
287.201	3.67
287.572	3.73
287.944	3.7
288.316	3.75
288.688	3.85
289.06	3.85
289.431	3.92
289.803	3.95
290.175	3.81
290.546	3.74
290.918	3.66
291.289	3.69
291.661	3.8
292.032	3.78
292.403	3.93
292.775	4.2
293.146	4.27
293.517	4.34
293.889	4.42
294.26	4.39
294.631	4.46
295.002	4.45
295.373	4.45
295.744	4.32
296.115	4.28
296.486	4.21
296.857	4.22
297.228	4.1
297.599	4.01
297.97	4.23
298.34	4.29
298.711	4.32
299.082	4.3
299.452	4.2
299.823	4.18
300.194	4.24
300.564	4.16
300.935	4.09
301.305	4.07
301.676	4.05
302.046	4.14
302.416	4.15
302.787	4.31
303.157	4.23
303.527	4.49
303.897	4.62
304.267	4.7
304.637	4.83
305.008	5.02
305.378	5.25
305.748	5.15
306.117	5.17
306.487	5.27
306.857	5.34
307.227	5.43
307.597	5.5
307.967	5.42
308.336	5.37
308.706	5.41
309.076	5.45
309.445	5.49
309.815	5.58
310.184	5.59
310.554	5.35
310.923	5.4
311.293	5.32
311.662	5.32
312.031	5.26
312.401	5.38
312.77	5.27
313.139	5.11
313.508	5.16
313.877	5.16
314.246	5.29
314.616	5.3
314.985	5.26
315.353	5.46
315.722	5.64
316.091	5.65
316.46	5.7
316.829	5.71
317.198	5.77
317.567	5.89
317.935	5.87
318.304	6.09
318.672	6.16
319.041	6.26
319.41	6.17
319.778	6.22
320.147	6.02
320.515	6.21
320.883	6.22
321.252	6.22
321.62	6.32
321.988	6.2
322.357	6.19
322.725	6.31
323.093	6.22
323.461	6.02
323.829	6.1
324.197	6.1
324.565	6.21
324.933	6.12
325.301	5.89
325.669	5.97
326.037	5.92
326.405	5.88
326.772	5.79
327.14	6.05
327.508	6.1
327.875	6.17
328.243	6.13
328.61	6.12
328.978	6.03
329.346	5.93
329.713	6.05
330.08	6.13
330.448	6.16
330.815	6.16
331.182	6.18
331.55	6.16
331.917	6.25
332.284	6.16
332.651	6.19
333.018	6.28
333.385	6.29
333.752	6.31
334.119	6.37
334.486	6.42
334.853	6.37
335.22	6.27
335.587	6.16
335.954	6.1
336.32	6.12
336.687	6.21
337.054	6.28
337.42	6.19
337.787	6.16
338.153	6.1
338.52	6.13
338.886	6.34
339.253	6.36
339.619	6.47
339.986	6.4
340.352	6.54
340.718	6.52
341.084	6.59
341.451	6.65
341.817	6.6
342.183	6.59
342.549	6.5
342.915	6.53
343.281	6.67
343.647	6.7
344.013	6.78
344.379	6.82
344.745	6.91
345.11	6.91
345.476	6.95
345.842	6.94
346.208	7.02
346.573	6.84
346.939	6.75
347.304	6.64
347.67	6.69
348.035	6.71
348.401	6.72
348.766	6.65
349.132	6.61
349.497	6.67
349.862	6.73
350.228	6.65
350.593	6.63
350.958	6.58
351.323	6.54
351.688	6.65
352.053	6.63
352.418	6.56
352.783	6.61
353.148	6.64
353.513	6.64
353.878	6.56
354.243	6.55
354.608	6.71
354.972	6.73
355.337	6.75
355.702	6.68
356.066	6.7
356.431	6.69
356.795	6.73
357.16	6.68
357.524	6.69
357.889	6.81
358.253	6.84
358.618	6.82
358.982	6.84
359.346	6.71
359.71	6.69
360.075	6.69
360.439	6.69
360.803	6.64
361.167	6.58
361.531	6.55
361.895	6.55
362.259	6.48
362.623	6.47
362.987	6.45
363.351	6.37
363.714	6.32
364.078	6.38
364.442	6.33
364.806	6.35
365.169	6.3
365.533	6.23
365.896	6.27
366.26	6.19
366.623	6.14
366.987	6.12
367.35	6.13
367.714	6.03
368.077	5.98
368.44	5.96
368.803	5.98
369.167	5.89
369.53	5.83
369.893	5.78
370.256	5.66
370.619	5.62
370.982	5.64
371.345	5.7
371.708	5.61
372.071	5.53
372.434	5.49
372.797	5.43
373.159	5.39
373.522	5.27
373.885	5.36
374.247	5.37
374.61	5.37
374.973	5.35
375.335	5.4
375.698	5.34
376.06	5.28
376.423	5.26
376.785	5.27
377.147	5.26
377.51	5.25
377.872	5.22
378.234	5.23
378.596	5.22
378.958	5.14
379.321	5.1
379.683	5.1
380.045	5.05
380.407	4.99
380.769	4.94
381.13	4.96
381.492	4.92
381.854	4.84
382.216	4.86
382.578	4.81
382.939	4.77
383.301	4.71
383.663	4.73
384.024	4.69
384.386	4.64
384.747	4.64
385.109	4.66
385.47	4.68
385.832	4.61
386.193	4.59
386.554	4.55
386.916	4.52
387.277	4.46
387.638	4.48
387.999	4.45
388.36	4.42
388.721	4.42
389.082	4.41
389.443	4.44
389.804	4.38
390.165	4.37
390.526	4.34
390.887	4.38
391.248	4.32
391.609	4.33
391.969	4.33
392.33	4.28
392.691	4.21
393.051	4.22
393.412	4.24
393.772	4.2
394.133	4.17
394.493	4.13
394.854	4.15
395.214	4.11
395.574	4.13
395.935	4.14
396.295	4.14
396.655	4.06
397.015	4.05
397.376	4.04
397.736	4
398.096	3.97
398.456	3.93
398.816	3.9
399.176	3.83
399.535	3.82
399.895	3.83
400.255	3.84
400.615	3.83
400.975	3.83
401.334	3.86
401.694	3.85
402.054	3.87
402.413	3.88
402.773	3.87
403.132	3.86
403.492	3.84
403.851	3.8
404.211	3.82
404.57	3.8
404.929	3.8
405.288	3.83
405.648	3.84
406.007	3.86
406.366	3.84
406.725	3.85
407.084	3.86
407.443	3.86
407.802	3.84
408.161	3.81
408.52	3.81
408.879	3.76
409.238	3.74
409.596	3.73
409.955	3.69
410.314	3.7
410.673	3.7
411.031	3.71
411.39	3.74
411.748	3.74
412.107	3.73
412.465	3.75
412.824	3.73
413.182	3.71
413.54	3.73
413.899	3.75
414.257	3.78
414.615	3.73
414.974	3.73
415.332	3.75
415.69	3.74
416.048	3.72
416.406	3.72
416.764	3.74
417.122	3.72
417.48	3.72
417.838	3.7
418.195	3.67
418.553	3.67
418.911	3.65
419.269	3.66
419.626	3.64
419.984	3.61
420.342	3.6
420.699	3.58
421.057	3.56
421.414	3.55
421.772	3.53
422.129	3.55
422.486	3.54
422.844	3.53
423.201	3.53
423.558	3.52
423.915	3.53
424.273	3.52
424.63	3.52
424.987	3.53
425.344	3.52
425.701	3.52
426.058	3.52
426.415	3.52
426.772	3.49
427.128	3.5
427.485	3.51
427.842	3.49
428.199	3.5
428.555	3.48
428.912	3.47
429.269	3.47
429.625	3.47
429.982	3.47
430.338	3.46
430.695	3.44
431.051	3.45
431.407	3.43
431.764	3.42
432.12	3.44
432.476	3.42
432.832	3.43
433.189	3.42
433.545	3.4
433.901	3.39
434.257	3.4
434.613	3.38
434.969	3.38
435.325	3.4
435.681	3.39
436.036	3.39
436.392	3.4
436.748	3.43
437.104	3.44
437.459	3.43
437.815	3.43
438.171	3.45
438.526	3.45
438.882	3.47
439.237	3.47
439.593	3.46
439.948	3.46
440.304	3.47
440.659	3.49
441.014	3.48
441.369	3.49
441.725	3.49
442.08	3.5
442.435	3.5
442.79	3.48
443.145	3.49
443.5	3.5
443.855	3.5
444.21	3.48
444.565	3.47
444.92	3.49
445.275	3.49
445.629	3.47
445.984	3.45
446.339	3.45
446.693	3.45
447.048	3.43
447.403	3.44
447.757	3.43
448.112	3.41
448.466	3.41
448.82	3.42
449.175	3.41
449.529	3.4
449.883	3.39
450.238	3.4
450.592	3.39
450.946	3.39
451.3	3.37
451.654	3.36
452.008	3.36
452.362	3.34
452.716	3.32
453.07	3.35
453.424	3.36
453.778	3.36
454.132	3.36
454.486	3.38
454.839	3.35
455.193	3.35
455.547	3.36
455.9	3.36
456.254	3.35
456.607	3.37
456.961	3.39
457.314	3.39
457.668	3.4
458.021	3.4
458.375	3.39
458.728	3.39
459.081	3.41
459.434	3.39
459.787	3.41
460.141	3.42
460.494	3.4
460.847	3.4
461.2	3.4
461.553	3.4
461.906	3.39
462.259	3.39
462.611	3.39
462.964	3.39
463.317	3.37
463.67	3.37
464.022	3.36
464.375	3.35
464.728	3.34
465.08	3.35
465.433	3.36
465.785	3.37
466.138	3.41
466.49	3.41
466.843	3.43
467.195	3.42
467.547	3.42
467.899	3.45
468.252	3.46
468.604	3.45
468.956	3.46
469.308	3.47
469.66	3.51
470.012	3.5
470.364	3.53
470.716	3.57
471.068	3.56
471.42	3.58
471.772	3.57
472.123	3.58
472.475	3.57
472.827	3.57
473.178	3.56
473.53	3.54
473.882	3.55
474.233	3.56
474.585	3.55
474.936	3.56
475.288	3.54
475.639	3.55
475.99	3.56
476.342	3.58
476.693	3.58
477.044	3.58
477.395	3.58
477.746	3.56
478.097	3.55
478.448	3.55
478.8	3.55
479.15	3.55
479.501	3.55
479.852	3.54
480.203	3.55
480.554	3.56
480.905	3.55
481.255	3.55
481.606	3.55
481.957	3.55
482.307	3.54
482.658	3.55
483.009	3.54
483.359	3.54
483.709	3.53
484.06	3.54
484.41	3.53
484.761	3.54
485.111	3.54
485.461	3.54
485.811	3.54
486.162	3.54
486.512	3.54
486.862	3.54
487.212	3.54
487.562	3.54
487.912	3.54
488.262	3.55
488.612	3.54
488.961	3.54
489.311	3.55
489.661	3.56
490.011	3.54
490.36	3.55
490.71	3.55
491.06	3.55
491.409	3.54
491.759	3.53
492.108	3.53
492.458	3.52
492.807	3.53
493.157	3.53
493.506	3.53
493.855	3.54
494.204	3.54
494.554	3.54
494.903	3.55
495.252	3.55
495.601	3.56
495.95	3.6
496.299	3.6
496.648	3.62
496.997	3.63
497.346	3.64
497.695	3.64
498.043	3.67
498.392	3.69
498.741	3.72
499.09	3.74
499.438	3.75
499.787	3.79
500.135	3.82
500.484	3.86
500.832	3.89
501.181	3.93
501.529	3.99
501.878	4.02
502.226	4.05
502.574	4.07
502.923	4.11
503.271	4.13
503.619	4.18
503.967	4.19
504.315	4.23
504.663	4.27
505.011	4.32
505.359	4.36
505.707	4.4
506.055	4.46
506.403	4.52
506.751	4.58
507.098	4.65
507.446	4.7
507.794	4.74
508.141	4.82
508.489	4.89
508.837	4.93
509.184	5.01
509.531	5.08
509.879	5.15
510.226	5.22
510.574	5.3
510.921	5.36
511.268	5.46
511.616	5.56
511.963	5.66
512.31	5.75
512.657	5.84
513.004	5.93
513.351	6.02
513.698	6.1
514.045	6.22
514.392	6.33
514.739	6.45
515.086	6.59
515.432	6.69
515.779	6.8
516.126	6.95
516.473	7.05
516.819	7.17
517.166	7.28
517.512	7.39
517.859	7.49
518.205	7.6
518.552	7.7
518.898	7.78
519.245	7.89
519.591	8.01
519.937	8.11
520.283	8.24
520.629	8.36
520.976	8.52
521.322	8.65
521.668	8.78
522.014	8.92
522.36	9.06
522.706	9.21
523.052	9.39
523.398	9.53
523.743	9.73
524.089	9.92
524.435	10.09
524.781	10.28
525.126	10.43
525.472	10.59
525.817	10.73
526.163	10.89
526.509	11.02
526.854	11.14
527.199	11.27
527.545	11.38
527.89	11.5
528.235	11.62
528.581	11.75
528.926	11.86
529.271	11.98
529.616	12.1
529.961	12.23
530.306	12.34
530.651	12.48
530.996	12.61
531.341	12.77
531.686	12.92
532.031	13.05
532.376	13.23
532.721	13.4
533.065	13.56
533.41	13.72
533.755	13.89
534.099	14.07
534.444	14.24
534.788	14.4
535.133	14.57
535.477	14.74
535.822	14.92
536.166	15.13
536.51	15.33
536.855	15.57
537.199	15.8
537.543	16.06
537.887	16.35
538.231	16.6
538.576	16.84
538.92	17.09
539.264	17.32
539.608	17.55
539.951	17.75
540.295	17.96
540.639	18.13
540.983	18.3
541.327	18.5
541.671	18.7
542.014	18.91
542.358	19.09
542.701	19.29
543.045	19.47
543.389	19.66
543.732	19.86
544.075	20.04
544.419	20.23
544.762	20.44
545.105	20.63
545.449	20.82
545.792	21.02
546.135	21.26
546.478	21.5
546.821	21.73
547.165	21.98
547.508	22.27
547.851	22.57
548.194	22.85
548.536	23.11
548.879	23.36
549.222	23.62
549.565	23.89
549.908	24.15
550.25	24.4
550.593	24.67
550.936	24.9
551.278	25.18
551.621	25.41
551.963	25.65
552.306	25.87
552.648	26.13
552.991	26.42
553.333	26.63
553.675	26.89
554.017	27.13
554.36	27.39
554.702	27.56
555.044	27.78
555.386	28
555.728	28.21
556.07	28.41
556.412	28.65
556.754	28.86
557.096	29.08
557.438	29.31
557.78	29.51
558.121	29.79
558.463	30.02
558.805	30.27
559.147	30.51
559.488	30.76
559.83	30.92
560.171	31.08
560.513	31.32
560.854	31.47
561.196	31.71
561.537	31.91
561.878	32.13
562.22	32.33
562.561	32.53
562.902	32.73
563.243	32.96
563.584	33.14
563.925	33.32
564.266	33.5
564.607	33.72
564.948	33.86
565.289	34.01
565.63	34.14
565.971	34.35
566.312	34.52
566.653	34.72
566.993	34.86
567.334	35.02
567.675	35.2
568.015	35.44
568.356	35.56
568.696	35.69
569.037	35.85
569.377	36
569.718	36.2
570.058	36.37
570.398	36.49
570.739	36.63
571.079	36.8
571.419	36.95
571.759	37.11
572.099	37.32
572.439	37.43
572.779	37.57
573.119	37.64
573.459	37.77
573.799	37.88
574.139	38.05
574.479	38.19
574.819	38.28
575.158	38.31
575.498	38.47
575.838	38.57
576.177	38.67
576.517	38.78
576.856	38.86
577.196	39
577.535	39.16
577.875	39.33
578.214	39.44
578.553	39.56
578.893	39.61
579.232	39.69
579.571	39.86
579.91	40.01
580.25	40.12
580.589	40.14
580.928	40.22
581.267	40.3
581.606	40.44
581.945	40.52
582.283	40.73
582.622	40.8
582.961	40.97
583.3	41.1
583.639	41.17
583.977	41.28
584.316	41.36
584.654	41.39
584.993	41.44
585.332	41.54
585.67	41.68
586.008	41.82
586.347	41.93
586.685	42.04
587.024	42.21
587.362	42.31
587.7	42.51
588.038	42.61
588.376	42.75
588.715	42.88
589.053	42.96
589.391	42.95
589.729	43.08
590.067	43.15
590.404	43.24
590.742	43.39
591.08	43.48
591.418	43.53
591.756	43.69
592.093	43.75
592.431	43.89
592.769	44.04
593.106	44.18
593.444	44.3
593.781	44.38
594.119	44.4
594.456	44.55
594.793	44.58
595.131	44.63
595.468	44.73
595.805	44.77
596.143	44.82
596.48	44.93
596.817	44.97
597.154	45.06
597.491	45.08
597.828	45.09
598.165	45.16
598.502	45.22
598.839	45.26
599.176	45.39
599.512	45.45
599.849	45.4
600.186	45.39
600.523	45.44
600.859	45.47
601.196	45.56
601.532	45.64
601.869	45.76
602.205	45.89
602.542	45.94
602.878	46.01
603.215	46.11
603.551	46.18
603.887	46.24
604.223	46.27
604.56	46.36
604.896	46.46
605.232	46.49
605.568	46.51
605.904	46.59
606.24	46.65
606.576	46.74
606.912	46.84
607.248	46.95
607.583	47.03
607.919	47.08
608.255	47.08
608.591	47.12
608.926	47.09
609.262	47.12
609.597	47.18
609.933	47.24
610.268	47.28
610.604	47.33
610.939	47.37
611.275	47.45
611.61	47.51
611.945	47.51
612.281	47.58
612.616	47.71
612.951	47.76
613.286	47.78
613.621	47.7
613.956	47.73
614.291	47.8
614.626	47.84
614.961	47.91
615.296	47.98
615.631	47.94
615.966	48.02
616.3	48.06
616.635	48.06
616.97	48.05
617.304	48.11
617.639	48.18
617.973	48.19
618.308	48.16
618.642	48.21
618.977	48.35
619.311	48.34
619.646	48.44
619.98	48.43
620.314	48.52
620.648	48.68
620.983	48.61
621.317	48.54
621.651	48.54
621.985	48.61
622.319	48.63
622.653	48.69
622.987	48.69
623.321	48.68
623.655	48.77
623.988	48.87
624.322	48.99
624.656	49.03
624.99	49.07
625.323	49.16
625.657	49.12
625.99	49.18
626.324	49.32
626.657	49.21
626.991	49.28
627.324	49.26
627.658	49.26
627.991	49.39
628.324	49.44
628.657	49.46
628.991	49.48
629.324	49.47
629.657	49.56
629.99	49.63
630.323	49.73
630.656	49.72
630.989	49.62
631.322	49.59
631.655	49.6
631.987	49.62
632.32	49.6
632.653	49.62
632.986	49.58
633.318	49.43
633.651	49.48
633.984	49.51
634.316	49.59
634.649	49.63
634.981	49.72
635.313	49.73
635.646	49.67
635.978	49.65
636.31	49.69
636.643	49.6
636.975	49.56
637.307	49.52
637.639	49.47
637.971	49.53
638.303	49.54
638.635	49.55
638.967	49.7
639.299	49.7
639.631	49.76
639.963	49.89
640.295	50.09
640.626	50.2
640.958	50.18
641.29	50.11
641.621	50.04
641.953	49.96
642.285	50
642.616	50.15
642.948	50.24
643.279	50.25
643.61	50.3
643.942	50.42
644.273	50.51
644.604	50.61
644.936	50.56
645.267	50.56
645.598	50.6
645.929	50.45
646.26	50.49
646.591	50.54
646.922	50.57
647.253	50.61
647.584	50.62
647.915	50.63
648.245	50.68
648.576	50.76
648.907	50.79
649.238	50.85
649.568	50.83
649.899	50.82
650.229	50.92
650.56	51.01
650.89	51
651.221	51.1
651.551	51.03
651.882	51.19
652.212	51.21
652.542	51.27
652.872	51.32
653.203	51.51
653.533	51.63
653.863	51.55
654.193	51.45
654.523	51.45
654.853	51.52
655.183	51.52
655.513	51.59
655.843	51.72
656.172	51.66
656.502	51.73
656.832	51.85
657.162	51.91
657.491	51.87
657.821	52
658.15	51.98
658.48	52.1
658.809	52.09
659.139	52.16
659.468	52.16
659.798	52.2
660.127	52.08
660.456	51.92
660.785	51.99
661.115	52.06
661.444	52.12
661.773	52.14
662.102	52.15
662.431	52.11
662.76	52.04
663.089	52.15
663.418	52.2
663.747	52.17
664.076	52.15
664.404	52.2
664.733	52.25
665.062	52.18
665.39	52.11
665.719	52.1
666.048	52.06
666.376	52
666.705	51.99
667.033	52.04
667.362	52.13
667.69	52.17
668.018	52.22
668.347	52.27
668.675	52.32
669.003	52.28
669.331	52.35
669.659	52.38
669.987	52.38
670.315	52.39
670.643	52.46
670.971	52.47
671.299	52.56
671.627	52.42
671.955	52.54
672.283	52.58
672.61	52.58
672.938	52.59
673.266	52.66
673.593	52.71
673.921	52.75
674.249	52.73
674.576	52.63
674.904	52.6
675.231	52.72
675.558	52.82
675.886	52.96
676.213	52.86
676.54	52.96
676.867	52.99
677.195	52.93
677.522	52.85
677.849	52.87
678.176	52.97
678.503	53.08
678.83	53.06
679.157	53.1
679.484	53.22
679.81	53.23
680.137	53.29
680.464	53.3
680.791	53.38
681.117	53.41
681.444	53.46
681.771	53.63
682.097	53.56
682.424	53.54
682.75	53.59
683.077	53.68
683.403	53.64
683.729	53.56
684.056	53.63
684.382	53.62
684.708	53.58
685.034	53.46
685.36	53.51
685.686	53.43
686.012	53.38
686.339	53.46
686.664	53.44
686.99	53.33
687.316	53.24
687.642	53.17
687.968	53.35
688.294	53.34
688.619	53.31
688.945	53.27
689.271	53.14
689.596	53.13
689.922	53.26
690.247	53.3
690.573	53.33
690.898	53.39
691.224	53.53
691.549	53.59
691.874	53.77
692.2	53.66
692.525	53.69
692.85	53.83
693.175	53.64
693.5	53.64
693.825	53.79
694.15	53.93
694.475	53.87
694.8	53.93
695.125	53.89
695.45	53.76
695.775	53.79
696.099	53.98
696.424	54.02
696.749	53.93
697.073	53.93
697.398	53.99
697.723	53.99
698.047	53.99
698.372	53.94
698.696	53.88
699.02	53.89
699.345	54.03
699.669	53.96
699.993	54.1
700.318	54.19
700.642	54.14
700.966	54.17
701.29	54.23
701.614	54.17
701.938	54.25
702.262	54.38
702.586	54.37
702.91	54.34
703.234	54.38
703.557	54.39
703.881	54.41
704.205	54.67
704.529	54.61
704.852	54.5
705.176	54.57
705.499	54.63
705.823	54.48
706.146	54.4
706.47	54.4
706.793	54.52
707.117	54.43
707.44	54.42
707.763	54.41
708.086	54.51
708.409	54.61
708.733	54.6
709.056	54.56
709.379	54.63
709.702	54.51
710.025	54.53
710.348	54.69
710.671	54.68
710.993	54.4
711.316	54.43
711.639	54.51
711.962	54.64
712.284	54.68
712.607	54.83
712.93	54.81
713.252	54.89
713.575	54.78
713.897	54.75
714.22	54.79
714.542	54.82
714.864	54.7
715.187	54.47
715.509	54.39
715.831	54.39
716.153	54.34
716.475	54.48
716.798	54.33
717.12	54.33
717.442	54.34
717.764	54.4
718.085	54.33
718.407	54.28
718.729	54.15
719.051	54.02
719.373	54.02
719.695	54
720.016	54.11
720.338	54.18
720.659	54.43
720.981	54.28
721.302	54.24
721.624	54.24
721.945	54.32
722.267	54.51
722.588	54.65
722.909	54.87
723.231	54.78
723.552	54.93
723.873	54.7
724.194	54.63
724.515	54.78
724.836	55.08
725.157	55.18
725.478	54.98
725.799	55
726.12	54.94
726.441	55.03
726.762	54.87
727.083	54.75
727.403	54.57
727.724	54.56
728.045	54.7
728.365	54.89
728.686	54.83
729.006	54.86
729.327	54.77
729.647	54.38
729.967	54.51
730.288	54.76
730.608	54.69
730.928	54.7
731.249	54.57
731.569	54.53
731.889	54.52
732.209	54.99
732.529	55.15
732.849	55.35
733.169	55.29
733.489	55.28
733.809	55.49
734.129	55.5
734.448	55.65
734.768	55.49
735.088	55.65
735.408	55.47
735.727	55.49
736.047	55.61
736.366	55.99
736.686	55.76
737.005	55.46
737.325	55.52
737.644	55.5
737.963	55.67
738.283	55.34
738.602	55.41
738.921	55.05
739.24	54.94
739.56	55.07
739.879	55.27
740.198	55.55
740.517	55.34
740.836	55.17
741.155	55.28
741.473	55.33
741.792	55
742.111	55.21
742.43	55.16
742.748	54.97
743.067	54.98
743.386	55.04
743.704	55
744.023	54.87
744.341	55.26
744.66	55.19
744.978	55.38
745.297	55.63
745.615	55.99
745.933	56.01
746.252	55.74
746.57	55.67
746.888	55.63
747.206	55.86
747.524	56.32
747.842	56.33
748.16	56.27
748.478	56.55
748.796	56.55
749.114	56.46
749.432	56.39
749.749	56.42
750.067	56.5
750.385	56.58
750.703	56.93
751.02	56.66
751.338	56.66
751.655	56.85
751.973	56.43
752.29	55.95
752.608	55.78
752.925	55.73
753.242	55.59
753.56	55.69
753.877	55.64
754.194	55.45
754.511	55.46
754.828	55.5
755.145	55.55
755.462	55.53
755.779	55.54
756.096	55.52
756.413	55.48
756.73	55.31
757.047	55.37
757.364	55.08
757.68	54.86
757.997	54.99
758.314	55.09
758.63	55.12
758.947	55.57
759.264	55.87
759.58	56.11
759.896	56.48
760.213	56.32
760.529	56.51
760.846	56.45
761.162	56.43
761.478	56.38
761.794	56.4
762.11	56.43
762.426	56.33
762.743	56.84
763.059	56.67
763.375	56.76
763.69	56.9
764.006	56.87
764.322	57.17
764.638	56.91
764.954	56.96
765.27	57.09
765.585	56.92
765.901	56.71
766.216	56.57
766.532	56.6
766.848	56.42
767.163	56.22
767.478	56.29
767.794	56.19
768.109	56.35
768.424	56.15
768.74	56.26
769.055	56.57
769.37	56.01
769.685	55.76
770	55.64
770.315	55.68
770.63	55.9
770.945	55.85
771.26	56.01
771.575	55.6
771.89	55.38
772.205	55.31
772.52	55.44
772.834	55.53
773.149	55.31
773.464	55.68
773.778	55.29
774.093	55.55
774.407	55.63
774.722	55.88
775.036	55.79
775.351	55.92
775.665	55.92
775.979	56.18
776.293	56.86
776.608	57.26
776.922	57.29
777.236	57.48
777.55	57.48
777.864	57.79
778.178	58.17
778.492	58.1
778.806	58.28
779.12	58.55
779.434	58.57
779.747	58.71
780.061	58.64
780.375	58.94
780.689	58.7
781.002	58.73
781.316	58.34
781.629	58.74
781.943	58.33
782.256	58.08
782.57	58.13
782.883	57.86
783.196	57.96
783.51	57.56
783.823	57.44
784.136	57.09
784.449	56.81
784.762	56.93
785.075	57.65
785.388	57.61
785.701	57.42
786.014	57.27
786.327	57.43
786.64	57.33
786.953	57.38
787.266	57.26
787.578	57.29
787.891	57.42
788.204	57.24
788.516	57.53
788.829	57.3
789.141	57.24
789.454	57.55
789.766	57.36
790.079	57.42
790.391	57.8
790.703	58.47
791.016	58.12
791.328	58.17
791.64	57.82
791.952	58.29
792.264	58.14
792.576	58.42
792.888	57.77
793.2	57.76
793.512	57.63
793.824	57.73
794.136	57.66
794.448	57.84
794.76	57.84
795.071	57.61
795.383	57.87
795.695	57.83
796.006	57.7
796.318	57.72
796.629	57.5
796.941	57.11
797.252	56.49
797.564	57.04
797.875	56.66
798.186	57.07
798.497	56.81
798.809	57.1
799.12	56.87
799.431	57.02
799.742	57.33
800.053	57.63
800.364	57.71
800.675	57.92
800.986	58.01
801.297	57.9
801.608	58.08
801.918	58.24
802.229	58.57
802.54	58.74
802.851	58.17
803.161	58.36
803.472	58.67
803.782	59.18
804.093	58.94
804.403	59.03
804.714	59
805.024	58.99
805.334	59.06
805.645	58.93
805.955	59.69
806.265	59.83
806.575	59.31
806.885	58.92
807.195	59.05
807.505	58.48
807.815	58.72
808.125	58.82
808.435	58.32
808.745	57.79
809.055	57.57
809.365	57.96
809.674	58.51
809.984	58.4
810.294	58.1
810.603	57.92
810.913	57.95
811.222	57.59
811.532	57.88
811.841	57.94
812.151	57.81
812.46	57.27
812.769	56.08
813.079	56.39
813.388	57.27
813.697	57.01
814.006	57.06
814.315	57.18
814.624	56.89
814.933	56.92
815.242	57.63
815.551	57.69
815.86	58.03
816.169	56.84
816.478	56.42
816.786	56.86
817.095	57.37
817.404	57.58
817.712	57.62
818.021	57.86
818.33	57.78
818.638	58.66
818.947	58.54
819.255	58.85
819.563	58.86
819.872	58.72
820.18	58.58
820.488	58.87
820.796	58.76
821.105	59.1
821.413	59.16
821.721	59.16
822.029	59.06
822.337	58.99
822.645	59.13
822.953	59.23
823.26	58.97
823.568	58.97
823.876	59.04
824.184	58.9
824.491	58.79
824.799	58.69
825.107	58.61
825.414	58.72
825.722	58.64
826.029	58.72
826.337	58.92
826.644	59
826.951	58.92
827.259	58.95
827.566	58.79
827.873	58.74
828.18	58.6
828.488	58.67
828.795	58.56
829.102	58.53
829.409	58.61
829.716	58.79
830.023	58.6
830.329	58.5
830.636	58.72
830.943	58.29
831.25	57.94
831.557	57.82
831.863	57.82
832.17	57.98
832.476	57.59
832.783	57.29
833.089	57.36
833.396	57.14
833.702	56.62
834.009	56.59
834.315	57.16
834.621	57.27
834.928	56.91
835.234	57.31
835.54	57.71
835.846	57.75
836.152	57.41
836.458	57.81
836.764	58.21
837.07	58.21
837.376	58.31
837.682	59.35
837.988	59.67
838.293	58.99
838.599	59.16
838.905	59.77
839.211	59.63
839.516	59.78
839.822	60.16
840.127	60.82
840.433	61.03
840.738	60.45
841.044	60.73
841.349	60.99
841.654	60.08
841.959	59.77
842.265	59.17
842.57	59.56
842.875	59.22
843.18	58.11
843.485	57.58
843.79	57.95
844.095	57.07
844.4	56.85
844.705	56.9
845.01	56.6
845.315	56.36
845.619	55.78
845.924	56.15
846.229	56.78
846.533	56.68
846.838	56.76
847.142	56.84
847.447	56.52
847.751	56.54
848.056	57.68
848.36	58.65
848.664	57.91
848.969	59.04
849.273	57.19
849.577	56.62
849.881	57.2
850.185	57.69
850.489	58.27
850.794	58.77
851.097	60.05
851.401	60.63
851.705	60.08
852.009	60.32
852.313	59.12
852.617	58.13
852.92	58.99
853.224	57.62
853.528	55.34
853.831	55.8
854.135	55.92
854.438	55.45
854.742	56.26
855.045	57.25
855.349	56.52
855.652	57.57
855.955	58.85
856.259	60.39
856.562	61.97
856.865	61.43
857.168	60.11
857.471	60.14
857.774	60.45
858.077	62.44
858.38	63.24
858.683	63.21
858.986	62.17
859.289	62.02
859.592	64.08
859.894	68.86
860.197	67.19
860.5	66.64
860.802	67.94
861.105	65.33
861.407	66.76
861.71	65.58
862.012	66.39
862.315	65.03
862.617	63.91
862.919	62.61
863.222	60.13
863.524	60.56
863.826	59.7
864.128	58.06
864.43	57.04
864.732	56.14
865.034	56.72
865.336	57.26
865.638	55.79
865.94	54.91
866.242	52.8
866.544	54.95
866.846	56.03
867.147	56.87
867.449	56.45
867.751	55.67
868.052	56.11
868.354	55.62
868.655	55.41
868.957	55.51
869.258	55.32
869.56	58.24
869.861	58.19
870.162	58.44
870.463	60.24
870.765	58.96
871.066	60.24
871.367	59.46
871.668	60.93
871.969	62.37
872.27	62.42
872.571	62.96
872.872	61.66
873.173	60.65
873.473	59.87
873.774	60.76
874.075	59.65
874.376	60.33
874.676	63.18
874.977	64.79
875.277	65.99
875.578	67.62
875.878	67.72
876.179	67.79
876.479	68.72
876.78	68.73
877.08	70.8
877.38	70.23
877.68	71.09
877.981	70.31
878.281	71.5
878.581	72.66
