Data from BU26848_Reflection_00002.txt Node
Date: Mon Nov 18 16:25:27 EST 2019
User: vgr7
Spectrometer: USB2G7710
Scans to average: 3
Trigger mode: 4
Integration Time (sec): 2.000000E-2
Electric dark correction enabled: true
Boxcar width: 10
XAxis mode: Wavelengths
Number of Pixels in Spectrum: 2048
>>>>>Begin Spectral Data<<<<<
177.721	265.55
178.105	674.47
178.488	-267.48
178.871	-112.17
179.254	-95.27
179.636	1332.14
180.019	1.18
180.402	100
180.785	2681.4
181.168	467.02
181.55	1784.93
181.933	123.87
182.316	110.87
182.698	81.52
183.081	63.49
183.463	52.35
183.846	64.46
184.228	139.07
184.611	148.93
184.993	283.36
185.376	-868.87
185.758	-748.02
186.14	-2167.18
186.522	1431.95
186.904	2041.18
187.287	1026.12
187.669	-1827.37
188.051	3054.89
188.433	-757.9
188.815	-383.51
189.197	-175.73
189.579	-150.14
189.961	-104.43
190.342	-117.43
190.724	-74.61
191.106	-80.39
191.488	-107.25
191.869	-93.9
192.251	-124.45
192.633	-103.65
193.014	-99.86
193.396	-174.71
193.777	-161.89
194.159	-142.9
194.54	-72.03
194.922	-48.97
195.303	-55.5
195.684	-73.43
196.065	-51.17
196.447	-40.67
196.828	-69.31
197.209	-141.58
197.59	-201.9
197.971	-396.69
198.352	-130.13
198.733	-252.16
199.114	-153.75
199.495	-95.85
199.876	-91.41
200.257	-87.21
200.638	-115.09
201.018	-88.82
201.399	-71.66
201.78	-78.92
202.16	-85.2
202.541	-139.58
202.922	-181.38
203.302	-156.95
203.683	-206.51
204.063	-261.22
204.444	-320.52
204.824	-205.06
205.204	-137.05
205.585	-139.12
205.965	-113.17
206.345	-205.99
206.725	-164.67
207.106	-322.85
207.486	-1011.35
207.866	-360.64
208.246	-748.53
208.626	-580.38
209.006	-733.09
209.386	-1617.81
209.766	-1293.59
210.145	-601.53
210.525	-402.56
210.905	-244.39
211.285	-268.67
211.664	-202.36
212.044	-165.92
212.424	-167.62
212.803	-172.56
213.183	-170.17
213.562	-139.02
213.942	-128.98
214.321	-104.59
214.701	-118.24
215.08	-102.81
215.459	-78.64
215.838	-85.68
216.218	-69.22
216.597	-53.17
216.976	-47.98
217.355	-36.43
217.734	-38.27
218.113	-37.66
218.492	-23.92
218.871	-31.25
219.25	-28.76
219.629	-39.26
220.008	-42.81
220.387	-32.74
220.766	-30.34
221.144	-41.7
221.523	-49.39
221.902	-66.28
222.28	-69.54
222.659	-53.48
223.037	-47.6
223.416	-50.79
223.794	-50.68
224.173	-46.41
224.551	-40.15
224.929	-41.42
225.308	-35.16
225.686	-29.1
226.064	-34.13
226.442	-36.62
226.821	-27.28
227.199	-27.35
227.577	-26.5
227.955	-23.35
228.333	-25.66
228.711	-22.15
229.089	-15.58
229.467	-17.43
229.845	-14.54
230.222	-14.49
230.6	-15.06
230.978	-15.99
231.356	-12.92
231.733	-12.66
232.111	-11.9
232.488	-11.88
232.866	-10.28
233.243	-9.62
233.621	-10.26
233.998	-7.55
234.376	-6.68
234.753	-6.94
235.13	-6.3
235.508	-4.84
235.885	-4.77
236.262	-5
236.639	-5.66
237.016	-5.32
237.393	-2.63
237.77	-1.69
238.147	-0.77
238.524	-1.38
238.901	0.26
239.278	0.22
239.655	1.01
240.032	1.26
240.409	0.88
240.785	0.93
241.162	1.29
241.539	1.92
241.915	1.92
242.292	1.57
242.668	1.32
243.045	1.98
243.421	1.82
243.798	1.76
244.174	1.73
244.551	2.04
244.927	1.69
245.303	1.77
245.679	1.81
246.056	1.69
246.432	2.11
246.808	1.94
247.184	1.67
247.56	1.48
247.936	1.47
248.312	1.39
248.688	1.64
249.064	1.41
249.44	1.32
249.815	1.2
250.191	1.28
250.567	1.4
250.943	1.04
251.318	1.37
251.694	1.41
252.069	1.51
252.445	1.24
252.82	1.36
253.196	1.18
253.571	1.12
253.947	1.32
254.322	1.32
254.697	1.26
255.073	1.67
255.448	1.69
255.823	1.7
256.198	1.87
256.573	1.56
256.948	1.79
257.323	1.86
257.698	1.84
258.073	1.74
258.448	1.75
258.823	1.68
259.198	1.63
259.573	1.64
259.948	1.6
260.322	1.57
260.697	1.53
261.072	1.51
261.446	1.61
261.821	1.48
262.195	1.4
262.57	1.39
262.944	1.19
263.319	1.24
263.693	1.28
264.067	1.29
264.442	1.37
264.816	1.34
265.19	1.19
265.564	1.18
265.938	1.15
266.313	0.99
266.687	1.14
267.061	1.12
267.435	1.17
267.809	1.29
268.183	1.45
268.556	1.43
268.93	1.35
269.304	1.25
269.678	1.35
270.051	1.42
270.425	1.37
270.799	1.39
271.172	1.3
271.546	0.99
271.919	0.86
272.293	0.88
272.666	0.88
273.04	1.05
273.413	1.01
273.787	0.89
274.16	1.08
274.533	1.03
274.906	0.89
275.279	0.98
275.653	1
276.026	0.96
276.399	0.93
276.772	1.05
277.145	1
277.518	0.87
277.891	0.97
278.263	0.91
278.636	0.94
279.009	0.98
279.382	1.18
279.755	1.16
280.127	1.33
280.5	1.47
280.872	1.38
281.245	1.47
281.617	1.73
281.99	1.84
282.362	1.92
282.735	1.81
283.107	1.57
283.479	1.57
283.852	1.58
284.224	1.62
284.596	1.69
284.968	1.76
285.34	1.82
285.713	1.87
286.085	1.85
286.457	1.86
286.829	1.87
287.201	2.02
287.572	2.02
287.944	1.85
288.316	1.69
288.688	1.69
289.06	1.73
289.431	1.81
289.803	1.72
290.175	1.71
290.546	1.88
290.918	2.03
291.289	2.01
291.661	2.06
292.032	2.12
292.403	2.16
292.775	2.22
293.146	2.23
293.517	2.05
293.889	2.19
294.26	2.16
294.631	2.18
295.002	2.03
295.373	2.1
295.744	2.19
296.115	2.22
296.486	2.06
296.857	2.07
297.228	2.07
297.599	2.04
297.97	2.07
298.34	2.08
298.711	2.09
299.082	1.99
299.452	2.01
299.823	2.05
300.194	1.87
300.564	1.95
300.935	2.02
301.305	2.13
301.676	2.17
302.046	2.2
302.416	2.25
302.787	2.24
303.157	2.15
303.527	2.14
303.897	2.06
304.267	2.44
304.637	2.3
305.008	2.26
305.378	2.32
305.748	2.3
306.117	2.24
306.487	2.16
306.857	2.23
307.227	2.25
307.597	2.18
307.967	2.37
308.336	2.19
308.706	2.23
309.076	2.1
309.445	2.04
309.815	2.08
310.184	2.02
310.554	2.12
310.923	2.32
311.293	2.25
311.662	2.3
312.031	2.17
312.401	2.17
312.77	2.24
313.139	2.17
313.508	2.12
313.877	2.13
314.246	2.2
314.616	2.2
314.985	2.12
315.353	2.18
315.722	2.05
316.091	2.02
316.46	1.93
316.829	1.94
317.198	2.05
317.567	1.94
317.935	1.92
318.304	1.97
318.672	1.74
319.041	2.05
319.41	2.13
319.778	2.06
320.147	2.24
320.515	1.96
320.883	2.02
321.252	2.07
321.62	1.99
321.988	1.9
322.357	1.72
322.725	1.75
323.093	1.67
323.461	1.77
323.829	1.79
324.197	1.81
324.565	1.82
324.933	1.85
325.301	1.97
325.669	1.93
326.037	1.77
326.405	1.94
326.772	1.74
327.14	1.81
327.508	1.85
327.875	1.59
328.243	1.8
328.61	1.86
328.978	1.92
329.346	2.11
329.713	2.14
330.08	2.34
330.448	2.14
330.815	2.22
331.182	2.16
331.55	2.21
331.917	2.34
332.284	2.5
332.651	2.29
333.018	2.16
333.385	2.19
333.752	2.24
334.119	2.18
334.486	2.19
334.853	2.03
335.22	2.03
335.587	2.2
335.954	2.09
336.32	1.97
336.687	1.94
337.054	1.89
337.42	1.9
337.787	1.99
338.153	2.1
338.52	2.16
338.886	2.16
339.253	2.14
339.619	1.98
339.986	1.83
340.352	1.98
340.718	2.04
341.084	2
341.451	2.1
341.817	2.13
342.183	2.13
342.549	2.15
342.915	2.07
343.281	1.97
343.647	1.91
344.013	1.97
344.379	1.92
344.745	1.85
345.11	1.89
345.476	1.8
345.842	1.81
346.208	1.8
346.573	1.87
346.939	1.93
347.304	1.92
347.67	1.89
348.035	1.86
348.401	1.84
348.766	1.88
349.132	1.82
349.497	1.88
349.862	1.9
350.228	1.98
350.593	2.06
350.958	2.16
351.323	2.19
351.688	2.1
352.053	2.12
352.418	2.16
352.783	2.2
353.148	2.18
353.513	2.09
353.878	2.02
354.243	2.04
354.608	1.97
354.972	2.04
355.337	2.08
355.702	2.14
356.066	2.22
356.431	2.24
356.795	2.23
357.16	2.17
357.524	2.2
357.889	2.09
358.253	2.13
358.618	2.11
358.982	2.14
359.346	2.18
359.71	2.17
360.075	2.16
360.439	2.14
360.803	2.19
361.167	2.24
361.531	2.25
361.895	2.22
362.259	2.23
362.623	2.21
362.987	2.26
363.351	2.25
363.714	2.26
364.078	2.32
364.442	2.33
364.806	2.31
365.169	2.27
365.533	2.35
365.896	2.34
366.26	2.34
366.623	2.41
366.987	2.41
367.35	2.47
367.714	2.49
368.077	2.5
368.44	2.47
368.803	2.49
369.167	2.43
369.53	2.4
369.893	2.46
370.256	2.48
370.619	2.44
370.982	2.37
371.345	2.28
371.708	2.3
372.071	2.34
372.434	2.38
372.797	2.4
373.159	2.33
373.522	2.37
373.885	2.43
374.247	2.37
374.61	2.38
374.973	2.29
375.335	2.33
375.698	2.32
376.06	2.34
376.423	2.32
376.785	2.43
377.147	2.45
377.51	2.39
377.872	2.43
378.234	2.45
378.596	2.43
378.958	2.45
379.321	2.36
379.683	2.31
380.045	2.34
380.407	2.28
380.769	2.33
381.13	2.27
381.492	2.25
381.854	2.24
382.216	2.23
382.578	2.24
382.939	2.19
383.301	2.19
383.663	2.14
384.024	2.18
384.386	2.11
384.747	2.13
385.109	2.18
385.47	2.1
385.832	2.1
386.193	2.14
386.554	2.16
386.916	2.19
387.277	2.23
387.638	2.24
387.999	2.23
388.36	2.27
388.721	2.27
389.082	2.27
389.443	2.28
389.804	2.29
390.165	2.32
390.526	2.35
390.887	2.37
391.248	2.41
391.609	2.38
391.969	2.42
392.33	2.41
392.691	2.39
393.051	2.39
393.412	2.41
393.772	2.41
394.133	2.43
394.493	2.43
394.854	2.43
395.214	2.4
395.574	2.46
395.935	2.43
396.295	2.45
396.655	2.39
397.015	2.4
397.376	2.39
397.736	2.4
398.096	2.4
398.456	2.38
398.816	2.37
399.176	2.39
399.535	2.39
399.895	2.35
400.255	2.35
400.615	2.4
400.975	2.39
401.334	2.37
401.694	2.35
402.054	2.33
402.413	2.33
402.773	2.31
403.132	2.27
403.492	2.28
403.851	2.26
404.211	2.3
404.57	2.31
404.929	2.35
405.288	2.34
405.648	2.33
406.007	2.32
406.366	2.33
406.725	2.35
407.084	2.35
407.443	2.37
407.802	2.38
408.161	2.35
408.52	2.31
408.879	2.34
409.238	2.35
409.596	2.34
409.955	2.32
410.314	2.36
410.673	2.38
411.031	2.36
411.39	2.37
411.748	2.35
412.107	2.34
412.465	2.35
412.824	2.36
413.182	2.36
413.54	2.4
413.899	2.4
414.257	2.37
414.615	2.37
414.974	2.41
415.332	2.42
415.69	2.44
416.048	2.44
416.406	2.43
416.764	2.45
417.122	2.48
417.48	2.48
417.838	2.47
418.195	2.48
418.553	2.51
418.911	2.5
419.269	2.53
419.626	2.53
419.984	2.52
420.342	2.54
420.699	2.53
421.057	2.53
421.414	2.53
421.772	2.53
422.129	2.55
422.486	2.53
422.844	2.53
423.201	2.52
423.558	2.54
423.915	2.55
424.273	2.56
424.63	2.55
424.987	2.56
425.344	2.56
425.701	2.55
426.058	2.55
426.415	2.57
426.772	2.56
427.128	2.57
427.485	2.58
427.842	2.55
428.199	2.56
428.555	2.56
428.912	2.55
429.269	2.6
429.625	2.59
429.982	2.58
430.338	2.57
430.695	2.6
431.051	2.58
431.407	2.58
431.764	2.57
432.12	2.58
432.476	2.59
432.832	2.59
433.189	2.59
433.545	2.57
433.901	2.56
434.257	2.55
434.613	2.56
434.969	2.57
435.325	2.59
435.681	2.61
436.036	2.61
436.392	2.63
436.748	2.6
437.104	2.6
437.459	2.59
437.815	2.6
438.171	2.58
438.526	2.58
438.882	2.6
439.237	2.6
439.593	2.6
439.948	2.57
440.304	2.58
440.659	2.59
441.014	2.61
441.369	2.61
441.725	2.61
442.08	2.6
442.435	2.6
442.79	2.6
443.145	2.59
443.5	2.58
443.855	2.57
444.21	2.57
444.565	2.58
444.92	2.61
445.275	2.61
445.629	2.64
445.984	2.63
446.339	2.62
446.693	2.6
447.048	2.6
447.403	2.61
447.757	2.61
448.112	2.6
448.466	2.6
448.82	2.6
449.175	2.59
449.529	2.61
449.883	2.6
450.238	2.57
450.592	2.58
450.946	2.57
451.3	2.57
451.654	2.57
452.008	2.59
452.362	2.56
452.716	2.56
453.07	2.54
453.424	2.57
453.778	2.56
454.132	2.56
454.486	2.56
454.839	2.56
455.193	2.55
455.547	2.55
455.9	2.55
456.254	2.55
456.607	2.56
456.961	2.56
457.314	2.56
457.668	2.57
458.021	2.56
458.375	2.55
458.728	2.55
459.081	2.55
459.434	2.52
459.787	2.54
460.141	2.54
460.494	2.56
460.847	2.55
461.2	2.57
461.553	2.58
461.906	2.6
462.259	2.59
462.611	2.61
462.964	2.62
463.317	2.63
463.67	2.62
464.022	2.63
464.375	2.6
464.728	2.61
465.08	2.6
465.433	2.62
465.785	2.63
466.138	2.64
466.49	2.65
466.843	2.66
467.195	2.65
467.547	2.64
467.899	2.62
468.252	2.63
468.604	2.63
468.956	2.62
469.308	2.61
469.66	2.61
470.012	2.62
470.364	2.62
470.716	2.61
471.068	2.61
471.42	2.62
471.772	2.66
472.123	2.65
472.475	2.68
472.827	2.69
473.178	2.69
473.53	2.71
473.882	2.7
474.233	2.72
474.585	2.69
474.936	2.69
475.288	2.69
475.639	2.72
475.99	2.69
476.342	2.69
476.693	2.69
477.044	2.7
477.395	2.7
477.746	2.69
478.097	2.68
478.448	2.68
478.8	2.67
479.15	2.67
479.501	2.68
479.852	2.66
480.203	2.66
480.554	2.67
480.905	2.67
481.255	2.68
481.606	2.68
481.957	2.69
482.307	2.7
482.658	2.7
483.009	2.7
483.359	2.71
483.709	2.71
484.06	2.71
484.41	2.71
484.761	2.72
485.111	2.72
485.461	2.73
485.811	2.73
486.162	2.73
486.512	2.73
486.862	2.73
487.212	2.73
487.562	2.72
487.912	2.72
488.262	2.72
488.612	2.72
488.961	2.72
489.311	2.72
489.661	2.72
490.011	2.72
490.36	2.72
490.71	2.73
491.06	2.73
491.409	2.73
491.759	2.71
492.108	2.71
492.458	2.72
492.807	2.71
493.157	2.73
493.506	2.74
493.855	2.75
494.204	2.75
494.554	2.76
494.903	2.76
495.252	2.76
495.601	2.78
495.95	2.77
496.299	2.78
496.648	2.77
496.997	2.77
497.346	2.77
497.695	2.78
498.043	2.77
498.392	2.75
498.741	2.78
499.09	2.78
499.438	2.78
499.787	2.78
500.135	2.79
500.484	2.78
500.832	2.76
501.181	2.74
501.529	2.74
501.878	2.76
502.226	2.78
502.574	2.8
502.923	2.79
503.271	2.79
503.619	2.77
503.967	2.78
504.315	2.75
504.663	2.75
505.011	2.75
505.359	2.74
505.707	2.76
506.055	2.76
506.403	2.78
506.751	2.79
507.098	2.79
507.446	2.79
507.794	2.8
508.141	2.82
508.489	2.84
508.837	2.85
509.184	2.86
509.531	2.86
509.879	2.86
510.226	2.88
510.574	2.89
510.921	2.88
511.268	2.88
511.616	2.9
511.963	2.9
512.31	2.91
512.657	2.92
513.004	2.91
513.351	2.91
513.698	2.91
514.045	2.89
514.392	2.91
514.739	2.91
515.086	2.91
515.432	2.9
515.779	2.89
516.126	2.91
516.473	2.91
516.819	2.9
517.166	2.89
517.512	2.89
517.859	2.89
518.205	2.9
518.552	2.92
518.898	2.9
519.245	2.92
519.591	2.92
519.937	2.88
520.283	2.88
520.629	2.88
520.976	2.86
521.322	2.87
521.668	2.86
522.014	2.86
522.36	2.86
522.706	2.85
523.052	2.85
523.398	2.84
523.743	2.84
524.089	2.84
524.435	2.85
524.781	2.85
525.126	2.86
525.472	2.87
525.817	2.87
526.163	2.88
526.509	2.87
526.854	2.87
527.199	2.89
527.545	2.89
527.89	2.9
528.235	2.9
528.581	2.89
528.926	2.9
529.271	2.9
529.616	2.9
529.961	2.91
530.306	2.92
530.651	2.91
530.996	2.91
531.341	2.92
531.686	2.93
532.031	2.93
532.376	2.92
532.721	2.91
533.065	2.93
533.41	2.93
533.755	2.92
534.099	2.92
534.444	2.93
534.788	2.95
535.133	2.94
535.477	2.96
535.822	2.96
536.166	2.96
536.51	2.95
536.855	2.95
537.199	2.96
537.543	2.96
537.887	2.96
538.231	2.95
538.576	2.94
538.92	2.94
539.264	2.94
539.608	2.96
539.951	2.95
540.295	2.94
540.639	2.96
540.983	2.97
541.327	2.97
541.671	2.95
542.014	2.94
542.358	2.94
542.701	2.94
543.045	2.95
543.389	2.95
543.732	2.95
544.075	2.97
544.419	2.98
544.762	2.97
545.105	2.97
545.449	2.99
545.792	2.98
546.135	2.99
546.478	2.99
546.821	2.98
547.165	2.98
547.508	2.99
547.851	2.98
548.194	2.98
548.536	2.99
548.879	3
549.222	3.01
549.565	3.01
549.908	3.01
550.25	3.01
550.593	3.01
550.936	2.99
551.278	2.96
551.621	2.95
551.963	2.96
552.306	2.95
552.648	2.92
552.991	2.96
553.333	2.95
553.675	2.94
554.017	2.92
554.36	2.93
554.702	2.93
555.044	2.92
555.386	2.91
555.728	2.92
556.07	2.95
556.412	2.92
556.754	2.93
557.096	2.9
557.438	2.92
557.78	2.92
558.121	2.97
558.463	3
558.805	2.99
559.147	2.97
559.488	2.99
559.83	3.02
560.171	3.03
560.513	3.05
560.854	3.05
561.196	3.06
561.537	3.08
561.878	3.08
562.22	3.07
562.561	3.07
562.902	3.08
563.243	3.06
563.584	3.09
563.925	3.1
564.266	3.11
564.607	3.08
564.948	3.11
565.289	3.07
565.63	3.06
565.971	3.05
566.312	3.07
566.653	3.07
566.993	3.06
567.334	3.02
567.675	3
568.015	3.01
568.356	3
568.696	2.99
569.037	2.99
569.377	3
569.718	2.99
570.058	2.99
570.398	3.01
570.739	2.99
571.079	2.98
571.419	2.99
571.759	3.01
572.099	2.99
572.439	3.01
572.779	2.99
573.119	3.02
573.459	3.02
573.799	3.01
574.139	3.02
574.479	3.05
574.819	3.08
575.158	3.07
575.498	3.11
575.838	3.1
576.177	3.07
576.517	3.08
576.856	3.08
577.196	3.04
577.535	3.01
577.875	3.02
578.214	3.02
578.553	3.04
578.893	3.02
579.232	2.99
579.571	2.99
579.91	3.02
580.25	3.02
580.589	3.01
580.928	3.01
581.267	2.98
581.606	2.94
581.945	2.9
582.283	2.89
582.622	2.87
582.961	2.87
583.3	2.9
583.639	2.95
583.977	2.97
584.316	3.01
584.654	3.05
584.993	3.04
585.332	3.08
585.67	3.11
586.008	3.11
586.347	3.13
586.685	3.16
587.024	3.16
587.362	3.14
587.7	3.14
588.038	3.17
588.376	3.18
588.715	3.21
589.053	3.23
589.391	3.28
589.729	3.26
590.067	3.25
590.404	3.25
590.742	3.24
591.08	3.24
591.418	3.24
591.756	3.25
592.093	3.23
592.431	3.23
592.769	3.19
593.106	3.17
593.444	3.16
593.781	3.09
594.119	3.12
594.456	3.11
594.793	3.1
595.131	3.09
595.468	3.09
595.805	3.1
596.143	3.13
596.48	3.11
596.817	3.11
597.154	3.14
597.491	3.14
597.828	3.12
598.165	3.13
598.502	3.1
598.839	3.07
599.176	3.07
599.512	3.04
599.849	3.06
600.186	3.09
600.523	3.15
600.859	3.21
601.196	3.22
601.532	3.2
601.869	3.21
602.205	3.18
602.542	3.2
602.878	3.2
603.215	3.21
603.551	3.22
603.887	3.2
604.223	3.2
604.56	3.21
604.896	3.21
605.232	3.21
605.568	3.22
605.904	3.22
606.24	3.26
606.576	3.27
606.912	3.27
607.248	3.26
607.583	3.21
607.919	3.17
608.255	3.11
608.591	3.13
608.926	3.12
609.262	3.14
609.597	3.12
609.933	3.15
610.268	3.11
610.604	3.09
610.939	3.11
611.275	3.1
611.61	3.11
611.945	3.14
612.281	3.15
612.616	3.17
612.951	3.2
613.286	3.17
613.621	3.14
613.956	3.13
614.291	3.13
614.626	3.14
614.961	3.12
615.296	3.19
615.631	3.23
615.966	3.21
616.3	3.18
616.635	3.18
616.97	3.14
617.304	3.13
617.639	3.17
617.973	3.12
618.308	3.14
618.642	3.14
618.977	3.08
619.311	3.07
619.646	3.09
619.98	3.07
620.314	3.05
620.648	3.06
620.983	3.13
621.317	3.14
621.651	3.18
621.985	3.24
622.319	3.24
622.653	3.22
622.987	3.24
623.321	3.22
623.655	3.27
623.988	3.3
624.322	3.35
624.656	3.39
624.99	3.46
625.323	3.46
625.657	3.46
625.99	3.51
626.324	3.52
626.657	3.47
626.991	3.46
627.324	3.46
627.658	3.47
627.991	3.46
628.324	3.46
628.657	3.43
628.991	3.43
629.324	3.4
629.657	3.4
629.99	3.42
630.323	3.47
630.656	3.46
630.989	3.5
631.322	3.48
631.655	3.41
631.987	3.37
632.32	3.36
632.653	3.37
632.986	3.38
633.318	3.36
633.651	3.39
633.984	3.44
634.316	3.46
634.649	3.41
634.981	3.39
635.313	3.36
635.646	3.39
635.978	3.39
636.31	3.42
636.643	3.41
636.975	3.43
637.307	3.44
637.639	3.42
637.971	3.35
638.303	3.38
638.635	3.36
638.967	3.41
639.299	3.43
639.631	3.42
639.963	3.3
640.295	3.32
640.626	3.33
640.958	3.31
641.29	3.3
641.621	3.38
641.953	3.35
642.285	3.42
642.616	3.44
642.948	3.43
643.279	3.38
643.61	3.43
643.942	3.4
644.273	3.35
644.604	3.31
644.936	3.33
645.267	3.27
645.598	3.29
645.929	3.23
646.26	3.23
646.591	3.23
646.922	3.31
647.253	3.31
647.584	3.3
647.915	3.28
648.245	3.24
648.576	3.25
648.907	3.28
649.238	3.22
649.568	3.18
649.899	3.17
650.229	3.21
650.56	3.14
650.89	3.16
651.221	3.24
651.551	3.25
651.882	3.24
652.212	3.3
652.542	3.29
652.872	3.27
653.203	3.24
653.533	3.3
653.863	3.26
654.193	3.23
654.523	3.21
654.853	3.24
655.183	3.25
655.513	3.23
655.843	3.19
656.172	3.19
656.502	3.19
656.832	3.22
657.162	3.22
657.491	3.28
657.821	3.26
658.15	3.25
658.48	3.23
658.809	3.21
659.139	3.21
659.468	3.21
659.798	3.26
660.127	3.27
660.456	3.23
660.785	3.26
661.115	3.31
661.444	3.28
661.773	3.24
662.102	3.29
662.431	3.29
662.76	3.33
663.089	3.33
663.418	3.31
663.747	3.29
664.076	3.26
664.404	3.24
664.733	3.24
665.062	3.18
665.39	3.24
665.719	3.24
666.048	3.26
666.376	3.26
666.705	3.23
667.033	3.19
667.362	3.25
667.69	3.27
668.018	3.25
668.347	3.33
668.675	3.39
669.003	3.36
669.331	3.33
669.659	3.36
669.987	3.44
670.315	3.47
670.643	3.47
670.971	3.55
671.299	3.6
671.627	3.65
671.955	3.71
672.283	3.73
672.61	3.81
672.938	3.78
673.266	3.84
673.593	3.95
673.921	4.04
674.249	4
674.576	4
674.904	3.95
675.231	3.93
675.558	3.82
675.886	3.85
676.213	3.9
676.54	3.86
676.867	3.82
677.195	3.77
677.522	3.77
677.849	3.76
678.176	3.72
678.503	3.65
678.83	3.66
679.157	3.61
679.484	3.57
679.81	3.55
680.137	3.47
680.464	3.38
680.791	3.36
681.117	3.32
681.444	3.3
681.771	3.36
682.097	3.34
682.424	3.44
682.75	3.42
683.077	3.36
683.403	3.42
683.729	3.37
684.056	3.39
684.382	3.49
684.708	3.44
685.034	3.4
685.36	3.41
685.686	3.38
686.012	3.38
686.339	3.4
686.664	3.37
686.99	3.41
687.316	3.42
687.642	3.43
687.968	3.43
688.294	3.44
688.619	3.45
688.945	3.42
689.271	3.35
689.596	3.44
689.922	3.55
690.247	3.5
690.573	3.59
690.898	3.63
691.224	3.53
691.549	3.58
691.874	3.63
692.2	3.59
692.525	3.54
692.85	3.78
693.175	3.82
693.5	3.81
693.825	3.79
694.15	3.8
694.475	3.71
694.8	3.81
695.125	3.82
695.45	3.74
695.775	3.84
696.099	3.91
696.424	3.91
696.749	3.78
697.073	3.73
697.398	3.73
697.723	3.79
698.047	3.75
698.372	3.66
698.696	3.6
699.02	3.64
699.345	3.65
699.669	3.55
699.993	3.49
700.318	3.57
700.642	3.61
700.966	3.57
701.29	3.58
701.614	3.51
701.938	3.5
702.262	3.63
702.586	3.62
702.91	3.53
703.234	3.52
703.557	3.58
703.881	3.64
704.205	3.62
704.529	3.59
704.852	3.63
705.176	3.61
705.499	3.81
705.823	3.81
706.146	3.83
706.47	3.82
706.793	3.9
707.117	3.9
707.44	3.85
707.763	3.93
708.086	3.99
708.409	3.93
708.733	3.86
709.056	3.77
709.379	3.88
709.702	4.02
710.025	3.98
710.348	4.01
710.671	3.99
710.993	3.98
711.316	3.91
711.639	3.94
711.962	4.2
712.284	4.1
712.607	4.15
712.93	4.21
713.252	4.15
713.575	4.07
713.897	3.92
714.22	4.02
714.542	4.04
714.864	4.01
715.187	4.1
715.509	4.19
715.831	4.18
716.153	4.04
716.475	4.01
716.798	3.97
717.12	3.98
717.442	4.08
717.764	4.07
718.085	4.04
718.407	3.95
718.729	3.72
719.051	3.71
719.373	3.7
719.695	3.61
720.016	3.62
720.338	3.75
720.659	3.85
720.981	3.7
721.302	3.81
721.624	3.92
721.945	3.9
722.267	3.98
722.588	3.98
722.909	3.98
723.231	3.92
723.552	4.12
723.873	4.14
724.194	4.02
724.515	3.94
724.836	4.04
725.157	4.14
725.478	4.12
725.799	4.12
726.12	4.1
726.441	4.12
726.762	4.03
727.083	3.93
727.403	4.03
727.724	4.22
728.045	4.05
728.365	3.97
728.686	3.99
729.006	3.89
729.327	3.78
729.647	3.88
729.967	3.81
730.288	3.81
730.608	3.56
730.928	3.48
731.249	3.56
731.569	3.59
731.889	3.61
732.209	3.57
732.529	3.51
732.849	3.49
733.169	3.45
733.489	3.42
733.809	3.4
734.129	3.35
734.448	3.34
734.768	3.29
735.088	3.45
735.408	3.34
735.727	3.34
736.047	3.5
736.366	3.34
736.686	3.43
737.005	3.2
737.325	3.46
737.644	3.42
737.963	3.41
738.283	3.29
738.602	3.14
738.921	3.37
739.24	3.34
739.56	3.16
739.879	3.25
740.198	3.23
740.517	3.17
740.836	3.2
741.155	3.03
741.473	3.24
741.792	3.07
742.111	3.06
742.43	3.16
742.748	2.89
743.067	2.87
743.386	2.66
743.704	2.75
744.023	2.87
744.341	2.98
744.66	3
744.978	2.91
745.297	3.07
745.615	2.91
745.933	3.03
746.252	3.28
746.57	3.14
746.888	3.05
747.206	3.2
747.524	3.12
747.842	3.11
748.16	2.99
748.478	2.77
748.796	2.93
749.114	2.82
749.432	3.14
749.749	3.34
750.067	3.47
750.385	3.23
750.703	3.06
751.02	3.06
751.338	2.96
751.655	3.02
751.973	3.06
752.29	3.14
752.608	3.13
752.925	3.21
753.242	3.23
753.56	3.32
753.877	3.38
754.194	3.39
754.511	3.46
754.828	3.26
755.145	3.36
755.462	3.16
755.779	3.24
756.096	3.13
756.413	3.08
756.73	2.97
757.047	3.24
757.364	3.14
757.68	3.42
757.997	3.45
758.314	3.53
758.63	3.35
758.947	3.4
759.264	3.35
759.58	3.22
759.896	3.44
760.213	3.56
760.529	3.65
760.846	3.61
761.162	3.66
761.478	3.84
761.794	3.92
762.11	4.07
762.426	4.16
762.743	4.32
763.059	4.37
763.375	4.57
763.69	4.53
764.006	4.57
764.322	4.38
764.638	4.57
764.954	4.86
765.27	4.83
765.585	4.79
765.901	4.86
766.216	4.86
766.532	4.88
766.848	4.92
767.163	4.76
767.478	4.9
767.794	4.89
768.109	4.85
768.424	4.89
768.74	5.1
769.055	5.01
769.37	4.79
769.685	4.67
770	4.76
770.315	4.76
770.63	4.83
770.945	4.88
771.26	4.72
771.575	4.54
771.89	4.6
772.205	4.49
772.52	4.37
772.834	4.26
773.149	3.81
773.464	3.64
773.778	3.6
774.093	3.17
774.407	3.3
774.722	3.2
775.036	3.37
775.351	3.08
775.665	2.97
775.979	3.17
776.293	3.17
776.608	3.19
776.922	3.05
777.236	3.1
777.55	3.08
777.864	3.22
778.178	3.3
778.492	3.58
778.806	3.82
779.12	4.25
779.434	4.52
779.747	5.13
780.061	5.67
780.375	5.66
780.689	6.01
781.002	6.05
781.316	6.1
781.629	5.75
781.943	5.99
782.256	5.96
782.57	5.56
782.883	5.71
783.196	5.52
783.51	5.65
783.823	5.56
784.136	5.51
784.449	5.57
784.762	5.22
785.075	5.09
785.388	4.75
785.701	4.69
786.014	4.76
786.327	4.51
786.64	4.22
786.953	4.55
787.266	4.31
787.578	4.32
787.891	4.18
788.204	4.44
788.516	4.26
788.829	4.57
789.141	4.91
789.454	4.73
789.766	5.03
790.079	5.31
790.391	4.86
790.703	5.04
791.016	4.84
791.328	5.24
791.64	5
791.952	5.71
792.264	4.98
792.576	5.23
792.888	4.94
793.2	5.06
793.512	4.69
793.824	5.06
794.136	4.6
794.448	5.04
794.76	4.64
795.071	4.88
795.383	4.54
795.695	4.21
796.006	4.19
796.318	3.78
796.629	3.66
796.941	4.48
797.252	4.72
797.564	4.89
797.875	4.24
798.186	4.25
798.497	3.41
798.809	4.26
799.12	3.9
799.431	4.16
799.742	4.01
800.053	4.61
800.364	4.36
800.675	4.24
800.986	4
801.297	4.49
801.608	3.91
801.918	3.79
802.229	4.49
802.54	4.73
802.851	5.24
803.161	4.78
803.472	4.68
803.782	4.41
804.093	4
804.403	4.24
804.714	4.48
805.024	4.56
805.334	4.07
805.645	4.13
805.955	3.97
806.265	4.45
806.575	3.68
806.885	3.34
807.195	4.22
807.505	4.18
807.815	3.91
808.125	4.67
808.435	4.81
808.745	4.69
809.055	4.73
809.365	3.9
809.674	4.37
809.984	3.97
810.294	4.04
810.603	4.16
810.913	4.76
811.222	4.56
811.532	4.76
811.841	5.24
812.151	5.85
812.46	6.23
812.769	5.42
813.079	5.97
813.388	6.57
813.697	6.78
814.006	7
814.315	7.42
814.624	6.91
814.933	7.2
815.242	7.05
815.551	7.05
815.86	8.03
816.169	8.07
816.478	7.84
816.786	7.52
817.095	7.45
817.404	7.21
817.712	7.31
818.021	7.44
818.33	6.9
818.638	6.31
818.947	6.33
819.255	6.53
819.563	6.38
819.872	6.3
820.18	6.08
820.488	6.03
820.796	6.2
821.105	6.2
821.413	6.26
821.721	6.24
822.029	6.32
822.337	6.21
822.645	6.41
822.953	6.46
823.26	6.5
823.568	6.4
823.876	6.33
824.184	6.39
824.491	6.29
824.799	6.32
825.107	6.29
825.414	6.29
825.722	6.36
826.029	6.44
826.337	6.36
826.644	6.28
826.951	6.2
827.259	6
827.566	6.03
827.873	5.9
828.18	5.86
828.488	5.64
828.795	5.51
829.102	5.23
829.409	5.22
829.716	5.17
830.023	5.49
830.329	5.38
830.636	4.98
830.943	5.39
831.25	5.46
831.557	5.28
831.863	5.12
832.17	4.68
832.476	4.84
832.783	5.17
833.089	4.69
833.396	4.96
833.702	5.69
834.009	5.61
834.315	5.49
834.621	5.35
834.928	5.61
835.234	5.9
835.54	5.74
835.846	5.72
836.152	6.02
836.458	5.91
836.764	5.91
837.07	5.85
837.376	4.84
837.682	4.95
837.988	5.48
838.293	5.61
838.599	5.48
838.905	4.84
839.211	4.44
839.516	5.33
839.822	5.9
840.127	5.52
840.433	6.02
840.738	6.85
841.044	7.11
841.349	7.43
841.654	6.72
841.959	7.1
842.265	7.32
842.57	6.9
842.875	6.46
843.18	6.93
843.485	7.87
843.79	9.24
844.095	8.49
844.4	8.79
844.705	7.79
845.01	8.67
845.315	9.57
845.619	9.5
845.924	9.61
846.229	8.88
846.533	8.02
846.838	6.26
847.142	5.55
847.447	2.99
847.751	1.15
848.056	0.45
848.36	0.33
848.664	0.06
848.969	-1.22
849.273	-0.62
849.577	-2.34
849.881	-3.63
850.185	-4.08
850.489	-4.11
850.794	-6.05
851.097	-5.28
851.401	-6.17
851.705	-6.74
852.009	-5.79
852.313	-6.95
852.617	-7.35
852.92	-6.57
853.224	-6.7
853.528	-5.87
853.831	-4.52
854.135	-3.98
854.438	-4.28
854.742	-5.78
855.045	-4.87
855.349	-3.83
855.652	-4.64
855.955	-4.14
856.259	-4.38
856.562	-3.82
856.865	-3.03
857.168	-2.61
857.471	-1.11
857.774	-1.01
858.077	-2.3
858.38	-2.76
858.683	-3.65
858.986	-4.78
859.289	-4.87
859.592	-2.69
859.894	-4.22
860.197	-1.33
860.5	-1.06
860.802	-1.98
861.105	-0.93
861.407	-3.37
861.71	-3.43
862.012	-2.6
862.315	-0.97
862.617	-2.07
862.919	-1.95
863.222	-1.74
863.524	-2.29
863.826	-3.39
864.128	-2.24
864.43	0.92
864.732	0.97
865.034	2.34
865.336	1.28
865.638	-0.25
865.94	-2.69
866.242	-2.25
866.544	-4.04
866.846	-3.97
867.147	-2.66
867.449	-2.72
867.751	-1.43
868.052	-1.89
868.354	-2.32
868.655	-3.38
868.957	-1.58
869.258	-2.92
869.56	-2.35
869.861	-2.69
870.162	-2.79
870.463	-1.72
870.765	-3.94
871.066	-5.36
871.367	-5.52
871.668	-4.85
871.969	-5.91
872.27	-6.31
872.571	-7.07
872.872	-5.84
873.173	-8.73
873.473	-8.35
873.774	-9.11
874.075	-7.18
874.376	-9.79
874.676	-7.77
874.977	-9.41
875.277	-7.15
875.578	-6.67
875.878	-8.61
876.179	-7.17
876.479	-7.44
876.78	-9.84
877.08	-10.31
877.38	-9.08
877.68	-9.24
877.981	-8.18
878.281	-7.68
878.581	-5.54
