Data from BU26940_Reflection_00005.txt Node
Date: Tue Nov 19 11:00:15 EST 2019
User: vgr7
Spectrometer: USB2G7710
Scans to average: 3
Trigger mode: 4
Integration Time (sec): 2.000000E-2
Electric dark correction enabled: true
Boxcar width: 10
XAxis mode: Wavelengths
Number of Pixels in Spectrum: 2048
>>>>>Begin Spectral Data<<<<<
177.721	68.5
178.105	1600
178.488	-86.75
178.871	-34.62
179.254	75
179.636	-19.57
180.019	225
180.402	10
180.785	-63.16
181.168	116.95
181.55	100
181.933	161.8
182.316	242.86
182.698	82.76
183.081	92.96
183.463	87.73
183.846	122.9
184.228	148.7
184.611	209.76
184.993	156.67
185.376	209.85
185.758	205.69
186.14	168.57
186.522	306.42
186.904	433.33
187.287	330.77
187.669	530.77
188.051	609.8
188.433	1311.54
188.815	-2212.5
189.197	-2592.31
189.579	-525
189.961	-1078.57
190.342	-413.51
190.724	-400
191.106	-259.5
191.488	-186.98
191.869	-115.16
192.251	-126.56
192.633	-127.05
193.014	-155.32
193.396	-135.58
193.777	-95.74
194.159	-78.57
194.54	-55.68
194.922	-59.85
195.303	-69.81
195.684	-59.34
196.065	-63.22
196.447	-53.69
196.828	-61.09
197.209	-52.89
197.59	-39.08
197.971	-52.52
198.352	-54.51
198.733	-67.29
199.114	-57.3
199.495	-73.82
199.876	-97.8
200.257	-85.78
200.638	-100.56
201.018	-76.23
201.399	-66.67
201.78	-53.98
202.16	-67.24
202.541	-74.74
202.922	-85.41
203.302	-65.78
203.683	-70.67
204.063	-80.26
204.444	-91.96
204.824	-95.45
205.204	-71.83
205.585	-59.34
205.965	-70.85
206.345	-66.67
206.725	-50.83
207.106	-57.83
207.486	-50
207.866	-33.63
208.246	-24.47
208.626	-32.85
209.006	-36.01
209.386	-43.66
209.766	-63.04
210.145	-55.62
210.525	-64.13
210.905	-41.28
211.285	-57.89
211.664	-55.95
212.044	-47
212.424	-63.4
212.803	-60.6
213.183	-67.44
213.562	-77.91
213.942	-56.64
214.321	-55.89
214.701	-67.96
215.08	-54.47
215.459	-48.29
215.838	-74.6
216.218	-81.03
216.597	-52.34
216.976	-39.26
217.355	-40.11
217.734	-28.02
218.113	-33.04
218.492	-38.66
218.871	-52.87
219.25	-49.88
219.629	-62.91
220.008	-52.28
220.387	-38.2
220.766	-30.39
221.144	-25.99
221.523	-30.22
221.902	-40.76
222.28	-38.39
222.659	-32.38
223.037	-49.83
223.416	-50.41
223.794	-41.6
224.173	-40.36
224.551	-41.8
224.929	-49.93
225.308	-38.96
225.686	-36.57
226.064	-38.42
226.442	-32.45
226.821	-26.79
227.199	-25.11
227.577	-22.03
227.955	-25.28
228.333	-24.1
228.711	-23.7
229.089	-22.89
229.467	-20.3
229.845	-18.29
230.222	-16.71
230.6	-18.25
230.978	-12.2
231.356	-10.76
231.733	-9.71
232.111	-9.71
232.488	-9.86
232.866	-7.33
233.243	-6.47
233.621	-6.14
233.998	-4.46
234.376	-3.25
234.753	-2.94
235.13	-2.73
235.508	-2.08
235.885	-1.75
236.262	-2.21
236.639	-2.73
237.016	-3.12
237.393	-2.81
237.77	-1.59
238.147	-1.05
238.524	0.18
238.901	-0.83
239.278	-1.18
239.655	-0.71
240.032	-0
240.409	-0.17
240.785	0.35
241.162	-0.18
241.539	0.28
241.915	0.38
242.292	0.74
242.668	0.6
243.045	1.36
243.421	1.96
243.798	2.6
244.174	3.13
244.551	3.13
244.927	3.27
245.303	3.27
245.679	3.32
246.056	3.14
246.432	3.39
246.808	3.6
247.184	3.94
247.56	3.78
247.936	3.94
248.312	4.35
248.688	4.26
249.064	4.21
249.44	4.18
249.815	4.05
250.191	3.74
250.567	4.06
250.943	3.9
251.318	3.56
251.694	3.23
252.069	3.29
252.445	3.46
252.82	3.57
253.196	3.65
253.571	3.32
253.947	3.41
254.322	3.3
254.697	3.18
255.073	2.73
255.448	2.73
255.823	2.5
256.198	2.3
256.573	2.32
256.948	2.65
257.323	2.87
257.698	3.41
258.073	3.58
258.448	3.4
258.823	3.36
259.198	3.43
259.573	3.55
259.948	3.46
260.322	3.38
260.697	3.21
261.072	3.23
261.446	3.45
261.821	3.44
262.195	3.21
262.57	3.24
262.944	3.35
263.319	3.28
263.693	3.08
264.067	3.05
264.442	2.91
264.816	2.7
265.19	2.59
265.564	2.16
265.938	1.99
266.313	1.85
266.687	1.76
267.061	1.77
267.435	1.7
267.809	1.58
268.183	1.7
268.556	1.91
268.93	2.08
269.304	2
269.678	2.14
270.051	2.37
270.425	2.38
270.799	2.31
271.172	2.38
271.546	2.69
271.919	2.6
272.293	2.74
272.666	2.98
273.04	2.96
273.413	2.93
273.787	3.07
274.16	3.13
274.533	3.26
274.906	3.25
275.279	3.24
275.653	3.4
276.026	3.41
276.399	3.3
276.772	3.26
277.145	3.13
277.518	3.25
277.891	3.27
278.263	3.33
278.636	3.48
279.009	3.52
279.382	3.53
279.755	3.71
280.127	3.57
280.5	3.36
280.872	3.43
281.245	3.51
281.617	3.56
281.99	3.56
282.362	3.48
282.735	3.41
283.107	3.51
283.479	3.51
283.852	3.57
284.224	3.63
284.596	3.55
284.968	3.66
285.34	3.55
285.713	3.64
286.085	3.54
286.457	3.42
286.829	3.29
287.201	3.21
287.572	3.23
287.944	3.29
288.316	3.36
288.688	3.39
289.06	3.49
289.431	3.57
289.803	3.51
290.175	3.6
290.546	3.74
290.918	3.7
291.289	3.52
291.661	3.4
292.032	3.42
292.403	3.54
292.775	3.61
293.146	3.64
293.517	3.44
293.889	3.46
294.26	3.57
294.631	3.72
295.002	3.69
295.373	3.69
295.744	3.73
296.115	3.8
296.486	3.7
296.857	3.64
297.228	3.46
297.599	3.56
297.97	3.64
298.34	3.62
298.711	3.58
299.082	3.74
299.452	3.79
299.823	3.77
300.194	3.7
300.564	3.53
300.935	3.59
301.305	3.66
301.676	3.66
302.046	3.61
302.416	3.53
302.787	3.67
303.157	3.56
303.527	3.56
303.897	3.54
304.267	3.51
304.637	3.52
305.008	3.48
305.378	3.51
305.748	3.41
306.117	3.38
306.487	3.47
306.857	3.49
307.227	3.57
307.597	3.66
307.967	3.73
308.336	3.84
308.706	3.76
309.076	3.86
309.445	4.05
309.815	4.03
310.184	4.19
310.554	4.22
310.923	4.25
311.293	4.27
311.662	4.3
312.031	4.34
312.401	4.31
312.77	4.4
313.139	4.47
313.508	4.49
313.877	4.54
314.246	4.44
314.616	4.39
314.985	4.25
315.353	4.2
315.722	4.22
316.091	4.24
316.46	4.22
316.829	4.11
317.198	4
317.567	4.11
317.935	4.09
318.304	4.15
318.672	4.21
319.041	4.22
319.41	4.2
319.778	4.32
320.147	4.3
320.515	4.39
320.883	4.2
321.252	4.26
321.62	4.19
321.988	4.26
322.357	4.32
322.725	4.26
323.093	4.2
323.461	4.27
323.829	4.32
324.197	4.38
324.565	4.4
324.933	4.31
325.301	4.22
325.669	4.16
326.037	3.92
326.405	3.86
326.772	3.84
327.14	3.76
327.508	3.6
327.875	3.57
328.243	3.44
328.61	3.47
328.978	3.52
329.346	3.66
329.713	3.64
330.08	3.63
330.448	3.8
330.815	3.91
331.182	3.83
331.55	3.72
331.917	3.69
332.284	3.74
332.651	3.85
333.018	4.05
333.385	4.07
333.752	4.18
334.119	4.31
334.486	4.37
334.853	4.37
335.22	4.41
335.587	4.51
335.954	4.48
336.32	4.51
336.687	4.51
337.054	4.41
337.42	4.48
337.787	4.44
338.153	4.44
338.52	4.55
338.886	4.49
339.253	4.51
339.619	4.64
339.986	4.56
340.352	4.44
340.718	4.43
341.084	4.37
341.451	4.39
341.817	4.31
342.183	4.26
342.549	4.28
342.915	4.31
343.281	4.32
343.647	4.37
344.013	4.39
344.379	4.25
344.745	4.28
345.11	4.26
345.476	4.37
345.842	4.29
346.208	4.15
346.573	4.26
346.939	4.39
347.304	4.23
347.67	4.25
348.035	4.24
348.401	4.23
348.766	4.15
349.132	4.14
349.497	4.17
349.862	4.15
350.228	4.19
350.593	4.17
350.958	4.24
351.323	4.28
351.688	4.36
352.053	4.39
352.418	4.33
352.783	4.37
353.148	4.23
353.513	4.22
353.878	4.2
354.243	4.1
354.608	4.11
354.972	4.11
355.337	4.14
355.702	4.26
356.066	4.17
356.431	4.3
356.795	4.27
357.16	4.31
357.524	4.33
357.889	4.33
358.253	4.33
358.618	4.23
358.982	4.22
359.346	4.15
359.71	4.16
360.075	4.27
360.439	4.27
360.803	4.33
361.167	4.3
361.531	4.32
361.895	4.32
362.259	4.3
362.623	4.34
362.987	4.33
363.351	4.2
363.714	4.22
364.078	4.21
364.442	4.18
364.806	4.18
365.169	4.21
365.533	4.21
365.896	4.28
366.26	4.32
366.623	4.33
366.987	4.43
367.35	4.49
367.714	4.41
368.077	4.36
368.44	4.34
368.803	4.37
369.167	4.38
369.53	4.41
369.893	4.35
370.256	4.28
370.619	4.29
370.982	4.38
371.345	4.46
371.708	4.43
372.071	4.4
372.434	4.32
372.797	4.33
373.159	4.29
373.522	4.29
373.885	4.23
374.247	4.21
374.61	4.12
374.973	4.12
375.335	4.09
375.698	4.12
376.06	4.08
376.423	4.07
376.785	4.1
377.147	4.08
377.51	4.1
377.872	4.22
378.234	4.23
378.596	4.25
378.958	4.22
379.321	4.21
379.683	4.29
380.045	4.3
380.407	4.25
380.769	4.23
381.13	4.21
381.492	4.22
381.854	4.24
382.216	4.24
382.578	4.2
382.939	4.19
383.301	4.12
383.663	4.14
384.024	4.09
384.386	4.07
384.747	4.04
385.109	4.07
385.47	4.04
385.832	4.04
386.193	4
386.554	3.94
386.916	3.95
387.277	3.9
387.638	3.92
387.999	3.91
388.36	3.9
388.721	3.91
389.082	3.97
389.443	3.98
389.804	4
390.165	4.03
390.526	4.05
390.887	4.08
391.248	4.1
391.609	4.18
391.969	4.19
392.33	4.19
392.691	4.17
393.051	4.14
393.412	4.1
393.772	4.13
394.133	4.15
394.493	4.12
394.854	4.15
395.214	4.17
395.574	4.17
395.935	4.17
396.295	4.18
396.655	4.16
397.015	4.16
397.376	4.15
397.736	4.12
398.096	4.14
398.456	4.16
398.816	4.13
399.176	4.04
399.535	4.03
399.895	4.03
400.255	4.02
400.615	4
400.975	4.01
401.334	3.99
401.694	3.98
402.054	4
402.413	3.97
402.773	3.96
403.132	3.97
403.492	4
403.851	4
404.211	3.98
404.57	3.94
404.929	3.91
405.288	3.89
405.648	3.87
406.007	3.85
406.366	3.86
406.725	3.87
407.084	3.85
407.443	3.86
407.802	3.84
408.161	3.86
408.52	3.87
408.879	3.88
409.238	3.89
409.596	3.86
409.955	3.86
410.314	3.84
410.673	3.81
411.031	3.79
411.39	3.77
411.748	3.76
412.107	3.75
412.465	3.77
412.824	3.75
413.182	3.75
413.54	3.78
413.899	3.78
414.257	3.81
414.615	3.83
414.974	3.85
415.332	3.85
415.69	3.86
416.048	3.86
416.406	3.85
416.764	3.87
417.122	3.89
417.48	3.91
417.838	3.89
418.195	3.9
418.553	3.92
418.911	3.9
419.269	3.91
419.626	3.92
419.984	3.92
420.342	3.93
420.699	3.93
421.057	3.91
421.414	3.91
421.772	3.89
422.129	3.87
422.486	3.87
422.844	3.85
423.201	3.84
423.558	3.83
423.915	3.84
424.273	3.82
424.63	3.82
424.987	3.79
425.344	3.79
425.701	3.79
426.058	3.77
426.415	3.76
426.772	3.73
427.128	3.72
427.485	3.72
427.842	3.72
428.199	3.73
428.555	3.71
428.912	3.7
429.269	3.72
429.625	3.74
429.982	3.73
430.338	3.77
430.695	3.76
431.051	3.78
431.407	3.79
431.764	3.77
432.12	3.78
432.476	3.78
432.832	3.8
433.189	3.8
433.545	3.79
433.901	3.82
434.257	3.83
434.613	3.83
434.969	3.79
435.325	3.78
435.681	3.77
436.036	3.77
436.392	3.79
436.748	3.79
437.104	3.79
437.459	3.79
437.815	3.78
438.171	3.79
438.526	3.78
438.882	3.77
439.237	3.78
439.593	3.77
439.948	3.78
440.304	3.77
440.659	3.77
441.014	3.8
441.369	3.8
441.725	3.82
442.08	3.83
442.435	3.85
442.79	3.86
443.145	3.86
443.5	3.87
443.855	3.85
444.21	3.85
444.565	3.86
444.92	3.86
445.275	3.86
445.629	3.87
445.984	3.86
446.339	3.85
446.693	3.86
447.048	3.84
447.403	3.82
447.757	3.81
448.112	3.81
448.466	3.79
448.82	3.79
449.175	3.78
449.529	3.78
449.883	3.77
450.238	3.78
450.592	3.77
450.946	3.76
451.3	3.78
451.654	3.77
452.008	3.75
452.362	3.74
452.716	3.73
453.07	3.72
453.424	3.71
453.778	3.71
454.132	3.7
454.486	3.73
454.839	3.75
455.193	3.75
455.547	3.78
455.9	3.8
456.254	3.77
456.607	3.76
456.961	3.77
457.314	3.77
457.668	3.76
458.021	3.75
458.375	3.74
458.728	3.74
459.081	3.74
459.434	3.73
459.787	3.73
460.141	3.72
460.494	3.72
460.847	3.73
461.2	3.74
461.553	3.74
461.906	3.74
462.259	3.74
462.611	3.74
462.964	3.71
463.317	3.71
463.67	3.7
464.022	3.72
464.375	3.71
464.728	3.71
465.08	3.71
465.433	3.73
465.785	3.74
466.138	3.74
466.49	3.74
466.843	3.78
467.195	3.79
467.547	3.81
467.899	3.83
468.252	3.84
468.604	3.85
468.956	3.85
469.308	3.85
469.66	3.87
470.012	3.89
470.364	3.89
470.716	3.91
471.068	3.94
471.42	3.93
471.772	3.94
472.123	3.96
472.475	3.97
472.827	3.98
473.178	4.01
473.53	4.03
473.882	4.03
474.233	4.02
474.585	4.01
474.936	4.02
475.288	4.01
475.639	4.01
475.99	4
476.342	4.03
476.693	4.05
477.044	4.05
477.395	4.02
477.746	4.02
478.097	4.01
478.448	4.01
478.8	4.02
479.15	4
479.501	4.01
479.852	4.02
480.203	4.04
480.554	4.02
480.905	4.01
481.255	4.03
481.606	4.03
481.957	4.04
482.307	4.04
482.658	4.06
483.009	4.07
483.359	4.06
483.709	4.06
484.06	4.06
484.41	4.07
484.761	4.07
485.111	4.08
485.461	4.07
485.811	4.08
486.162	4.08
486.512	4.09
486.862	4.08
487.212	4.08
487.562	4.06
487.912	4.07
488.262	4.07
488.612	4.07
488.961	4.08
489.311	4.08
489.661	4.07
490.011	4.04
490.36	4.04
490.71	4.05
491.06	4.05
491.409	4.03
491.759	4.03
492.108	4.03
492.458	4.01
492.807	4.02
493.157	4.03
493.506	4.03
493.855	4.03
494.204	4.04
494.554	4.06
494.903	4.06
495.252	4.07
495.601	4.08
495.95	4.07
496.299	4.08
496.648	4.09
496.997	4.1
497.346	4.14
497.695	4.15
498.043	4.14
498.392	4.15
498.741	4.18
499.09	4.19
499.438	4.22
499.787	4.22
500.135	4.24
500.484	4.23
500.832	4.23
501.181	4.25
501.529	4.27
501.878	4.28
502.226	4.3
502.574	4.29
502.923	4.29
503.271	4.32
503.619	4.33
503.967	4.34
504.315	4.37
504.663	4.37
505.011	4.38
505.359	4.39
505.707	4.41
506.055	4.44
506.403	4.45
506.751	4.47
507.098	4.53
507.446	4.54
507.794	4.59
508.141	4.61
508.489	4.63
508.837	4.62
509.184	4.64
509.531	4.66
509.879	4.69
510.226	4.7
510.574	4.71
510.921	4.72
511.268	4.75
511.616	4.76
511.963	4.78
512.31	4.8
512.657	4.83
513.004	4.85
513.351	4.84
513.698	4.84
514.045	4.84
514.392	4.84
514.739	4.88
515.086	4.88
515.432	4.91
515.779	4.93
516.126	4.98
516.473	4.99
516.819	5.01
517.166	5.01
517.512	5.02
517.859	5.04
518.205	5.04
518.552	5.05
518.898	5.06
519.245	5.07
519.591	5.08
519.937	5.08
520.283	5.09
520.629	5.09
520.976	5.1
521.322	5.11
521.668	5.11
522.014	5.1
522.36	5.12
522.706	5.11
523.052	5.13
523.398	5.11
523.743	5.13
524.089	5.14
524.435	5.17
524.781	5.17
525.126	5.18
525.472	5.2
525.817	5.21
526.163	5.21
526.509	5.23
526.854	5.23
527.199	5.25
527.545	5.26
527.89	5.28
528.235	5.28
528.581	5.31
528.926	5.31
529.271	5.32
529.616	5.33
529.961	5.33
530.306	5.33
530.651	5.34
530.996	5.34
531.341	5.36
531.686	5.36
532.031	5.38
532.376	5.39
532.721	5.41
533.065	5.41
533.41	5.43
533.755	5.42
534.099	5.42
534.444	5.42
534.788	5.42
535.133	5.42
535.477	5.41
535.822	5.39
536.166	5.41
536.51	5.41
536.855	5.4
537.199	5.39
537.543	5.41
537.887	5.4
538.231	5.39
538.576	5.38
538.92	5.38
539.264	5.38
539.608	5.37
539.951	5.34
540.295	5.34
540.639	5.34
540.983	5.34
541.327	5.35
541.671	5.35
542.014	5.38
542.358	5.38
542.701	5.39
543.045	5.41
543.389	5.41
543.732	5.41
544.075	5.41
544.419	5.44
544.762	5.44
545.105	5.46
545.449	5.46
545.792	5.48
546.135	5.47
546.478	5.45
546.821	5.46
547.165	5.5
547.508	5.5
547.851	5.52
548.194	5.54
548.536	5.52
548.879	5.53
549.222	5.52
549.565	5.52
549.908	5.54
550.25	5.52
550.593	5.5
550.936	5.51
551.278	5.49
551.621	5.46
551.963	5.48
552.306	5.46
552.648	5.46
552.991	5.46
553.333	5.45
553.675	5.46
554.017	5.47
554.36	5.44
554.702	5.44
555.044	5.42
555.386	5.42
555.728	5.42
556.07	5.43
556.412	5.41
556.754	5.42
557.096	5.43
557.438	5.44
557.78	5.47
558.121	5.47
558.463	5.49
558.805	5.5
559.147	5.5
559.488	5.54
559.83	5.51
560.171	5.51
560.513	5.5
560.854	5.51
561.196	5.5
561.537	5.5
561.878	5.5
562.22	5.5
562.561	5.52
562.902	5.53
563.243	5.51
563.584	5.51
563.925	5.53
564.266	5.51
564.607	5.52
564.948	5.5
565.289	5.49
565.63	5.5
565.971	5.49
566.312	5.45
566.653	5.44
566.993	5.45
567.334	5.48
567.675	5.49
568.015	5.5
568.356	5.47
568.696	5.48
569.037	5.48
569.377	5.48
569.718	5.5
570.058	5.52
570.398	5.53
570.739	5.53
571.079	5.53
571.419	5.55
571.759	5.55
572.099	5.56
572.439	5.59
572.779	5.6
573.119	5.62
573.459	5.65
573.799	5.64
574.139	5.65
574.479	5.64
574.819	5.64
575.158	5.65
575.498	5.68
575.838	5.68
576.177	5.67
576.517	5.68
576.856	5.66
577.196	5.64
577.535	5.63
577.875	5.66
578.214	5.64
578.553	5.58
578.893	5.59
579.232	5.59
579.571	5.58
579.91	5.54
580.25	5.53
580.589	5.51
580.928	5.54
581.267	5.54
581.606	5.53
581.945	5.55
582.283	5.55
582.622	5.51
582.961	5.51
583.3	5.5
583.639	5.45
583.977	5.42
584.316	5.43
584.654	5.42
584.993	5.39
585.332	5.4
585.67	5.48
586.008	5.46
586.347	5.46
586.685	5.44
587.024	5.45
587.362	5.45
587.7	5.47
588.038	5.49
588.376	5.5
588.715	5.48
589.053	5.47
589.391	5.45
589.729	5.49
590.067	5.51
590.404	5.55
590.742	5.6
591.08	5.66
591.418	5.67
591.756	5.66
592.093	5.7
592.431	5.71
592.769	5.68
593.106	5.7
593.444	5.72
593.781	5.75
594.119	5.76
594.456	5.75
594.793	5.72
595.131	5.7
595.468	5.7
595.805	5.73
596.143	5.77
596.48	5.78
596.817	5.77
597.154	5.78
597.491	5.76
597.828	5.77
598.165	5.76
598.502	5.77
598.839	5.83
599.176	5.82
599.512	5.79
599.849	5.78
600.186	5.74
600.523	5.76
600.859	5.77
601.196	5.75
601.532	5.77
601.869	5.81
602.205	5.81
602.542	5.78
602.878	5.79
603.215	5.75
603.551	5.69
603.887	5.7
604.223	5.68
604.56	5.67
604.896	5.68
605.232	5.67
605.568	5.65
605.904	5.57
606.24	5.55
606.576	5.57
606.912	5.56
607.248	5.62
607.583	5.6
607.919	5.57
608.255	5.58
608.591	5.59
608.926	5.56
609.262	5.51
609.597	5.56
609.933	5.55
610.268	5.6
610.604	5.62
610.939	5.66
611.275	5.68
611.61	5.68
611.945	5.68
612.281	5.69
612.616	5.7
612.951	5.75
613.286	5.76
613.621	5.79
613.956	5.86
614.291	5.8
614.626	5.8
614.961	5.84
615.296	5.84
615.631	5.82
615.966	5.83
616.3	5.89
616.635	5.87
616.97	5.85
617.304	5.8
617.639	5.82
617.973	5.77
618.308	5.79
618.642	5.78
618.977	5.77
619.311	5.77
619.646	5.78
619.98	5.76
620.314	5.77
620.648	5.74
620.983	5.7
621.317	5.73
621.651	5.75
621.985	5.7
622.319	5.69
622.653	5.7
622.987	5.71
623.321	5.72
623.655	5.72
623.988	5.73
624.322	5.75
624.656	5.8
624.99	5.78
625.323	5.77
625.657	5.81
625.99	5.83
626.324	5.8
626.657	5.82
626.991	5.86
627.324	5.89
627.658	5.88
627.991	5.91
628.324	5.89
628.657	5.91
628.991	5.97
629.324	5.99
629.657	5.97
629.99	5.98
630.323	5.99
630.656	5.99
630.989	6.03
631.322	6.08
631.655	6.09
631.987	6.15
632.32	6.15
632.653	6.13
632.986	6.12
633.318	6.15
633.651	6.15
633.984	6.14
634.316	6.13
634.649	6.15
634.981	6.15
635.313	6.19
635.646	6.18
635.978	6.2
636.31	6.22
636.643	6.24
636.975	6.27
637.307	6.28
637.639	6.32
637.971	6.26
638.303	6.16
638.635	6.1
638.967	6.05
639.299	6.02
639.631	6.01
639.963	6
640.295	6.05
640.626	6.02
640.958	5.99
641.29	5.95
641.621	5.99
641.953	5.94
642.285	5.91
642.616	5.87
642.948	5.81
643.279	5.75
643.61	5.73
643.942	5.69
644.273	5.67
644.604	5.61
644.936	5.6
645.267	5.62
645.598	5.66
645.929	5.71
646.26	5.7
646.591	5.71
646.922	5.73
647.253	5.66
647.584	5.69
647.915	5.7
648.245	5.75
648.576	5.7
648.907	5.74
649.238	5.72
649.568	5.76
649.899	5.75
650.229	5.84
650.56	5.9
650.89	5.93
651.221	5.92
651.551	5.96
651.882	5.96
652.212	6
652.542	6
652.872	5.98
653.203	6.02
653.533	6.1
653.863	6.08
654.193	6.03
654.523	5.96
654.853	6.04
655.183	6
655.513	6.05
655.843	6.07
656.172	6.1
656.502	6.05
656.832	6.04
657.162	5.99
657.491	6.03
657.821	6.03
658.15	5.97
658.48	5.98
658.809	6.05
659.139	6.1
659.468	6.09
659.798	6.12
660.127	6.13
660.456	6.07
660.785	6.14
661.115	6.2
661.444	6.22
661.773	6.18
662.102	6.15
662.431	6.09
662.76	6.07
663.089	6.03
663.418	6.09
663.747	6.12
664.076	6.16
664.404	6.1
664.733	6.07
665.062	6.13
665.39	6.19
665.719	6.2
666.048	6.09
666.376	6.09
666.705	6.1
667.033	6.03
667.362	6.02
667.69	5.96
668.018	5.92
668.347	5.96
668.675	5.9
669.003	5.9
669.331	5.94
669.659	5.96
669.987	5.99
670.315	6
670.643	6
670.971	6.02
671.299	5.89
671.627	5.91
671.955	5.87
672.283	5.82
672.61	5.78
672.938	5.84
673.266	5.86
673.593	5.83
673.921	6.01
674.249	6.05
674.576	6.09
674.904	6.03
675.231	5.96
675.558	6.08
675.886	6.13
676.213	6.13
676.54	6.17
676.867	6.21
677.195	6.21
677.522	6.21
677.849	6.18
678.176	6.29
678.503	6.16
678.83	6.23
679.157	6.21
679.484	6.17
679.81	6.15
680.137	6.25
680.464	6.24
680.791	6.19
681.117	6.2
681.444	6.17
681.771	6.25
682.097	6.34
682.424	6.31
682.75	6.34
683.077	6.35
683.403	6.31
683.729	6.27
684.056	6.25
684.382	6.31
684.708	6.24
685.034	6.2
685.36	6.36
685.686	6.38
686.012	6.36
686.339	6.41
686.664	6.44
686.99	6.24
687.316	6.25
687.642	6.22
687.968	6.26
688.294	6.33
688.619	6.23
688.945	6.22
689.271	6.12
689.596	6.13
689.922	6.13
690.247	6.14
690.573	6.2
690.898	6.17
691.224	6.07
691.549	6.15
691.874	6.16
692.2	6.19
692.525	6.08
692.85	6.1
693.175	6.1
693.5	6.11
693.825	6.29
694.15	6.32
694.475	6.31
694.8	6.35
695.125	6.31
695.45	6.38
695.775	6.4
696.099	6.53
696.424	6.45
696.749	6.51
697.073	6.51
697.398	6.43
697.723	6.43
698.047	6.52
698.372	6.59
698.696	6.65
699.02	6.68
699.345	6.72
699.669	6.71
699.993	6.62
700.318	6.62
700.642	6.49
700.966	6.52
701.29	6.54
701.614	6.42
701.938	6.44
702.262	6.43
702.586	6.41
702.91	6.35
703.234	6.43
703.557	6.25
703.881	6.26
704.205	6.22
704.529	6.18
704.852	6.05
705.176	5.99
705.499	5.86
705.823	5.82
706.146	5.94
706.47	5.96
706.793	6.04
707.117	6.09
707.44	6.14
707.763	6.11
708.086	6.15
708.409	6.2
708.733	6.06
709.056	6.1
709.379	6.09
709.702	6.2
710.025	6.16
710.348	6.26
710.671	6.34
710.993	6.41
711.316	6.53
711.639	6.52
711.962	6.66
712.284	6.79
712.607	6.76
712.93	6.67
713.252	6.7
713.575	6.79
713.897	6.78
714.22	6.82
714.542	6.9
714.864	6.76
715.187	6.82
715.509	6.81
715.831	6.85
716.153	6.88
716.475	6.88
716.798	6.93
717.12	6.95
717.442	6.85
717.764	6.93
718.085	6.87
718.407	6.87
718.729	6.71
719.051	6.58
719.373	6.74
719.695	6.82
720.016	6.84
720.338	6.85
720.659	6.88
720.981	6.8
721.302	6.69
721.624	6.74
721.945	6.7
722.267	6.8
722.588	6.75
722.909	6.59
723.231	6.4
723.552	6.42
723.873	6.41
724.194	6.46
724.515	6.32
724.836	6.45
725.157	6.64
725.478	6.63
725.799	6.67
726.12	6.55
726.441	6.48
726.762	6.49
727.083	6.35
727.403	6.31
727.724	6.64
728.045	6.58
728.365	6.49
728.686	6.55
729.006	6.63
729.327	6.85
729.647	7.06
729.967	7.03
730.288	7.13
730.608	7.16
730.928	7.27
731.249	7.48
731.569	7.36
731.889	7.28
732.209	7.34
732.529	7.31
732.849	7.27
733.169	7.33
733.489	7.25
733.809	7.39
734.129	7.41
734.448	7.29
734.768	7.37
735.088	7.51
735.408	7.5
735.727	7.49
736.047	7.38
736.366	7.21
736.686	7.23
737.005	7.06
737.325	7.17
737.644	6.89
737.963	6.8
738.283	6.89
738.602	6.95
738.921	6.94
739.24	7.02
739.56	7.04
739.879	7.05
740.198	7
740.517	6.92
740.836	6.74
741.155	6.63
741.473	6.82
741.792	6.82
742.111	6.87
742.43	6.93
742.748	6.93
743.067	7.07
743.386	7.01
743.704	7.03
744.023	6.84
744.341	6.95
744.66	6.8
744.978	6.8
745.297	6.77
745.615	7
745.933	6.97
746.252	7.16
746.57	7.15
746.888	7.59
747.206	7.58
747.524	7.64
747.842	7.43
748.16	7.42
748.478	7.54
748.796	7.44
749.114	7.33
749.432	7.26
749.749	7.09
750.067	7.4
750.385	7.45
750.703	7.5
751.02	7.56
751.338	7.62
751.655	7.47
751.973	7.57
752.29	7.25
752.608	7.23
752.925	7.08
753.242	7.12
753.56	6.84
753.877	6.97
754.194	7.18
754.511	7.58
754.828	7.44
755.145	7.39
755.462	7.38
755.779	7.31
756.096	7.35
756.413	7.46
756.73	7.31
757.047	7.03
757.364	6.97
757.68	7.06
757.997	7.35
758.314	7.48
758.63	7.47
758.947	7.4
759.264	7.41
759.58	7.45
759.896	7.42
760.213	7.49
760.529	7.41
760.846	7.43
761.162	7.32
761.478	7.4
761.794	7.37
762.11	7.37
762.426	7.45
762.743	7.42
763.059	7.54
763.375	7.55
763.69	7.78
764.006	7.72
764.322	7.62
764.638	7.49
764.954	7.47
765.27	7.42
765.585	7.52
765.901	7.66
766.216	7.62
766.532	7.59
766.848	7.53
767.163	7.48
767.478	7.36
767.794	7.3
768.109	7.1
768.424	7.23
768.74	7.14
769.055	7.18
769.37	7.19
769.685	7.13
770	7.04
770.315	6.98
770.63	7.21
770.945	7.51
771.26	7.45
771.575	7.39
771.89	7.28
772.205	7.21
772.52	6.9
772.834	6.84
773.149	6.59
773.464	6.56
773.778	6.55
774.093	6.58
774.407	6.64
774.722	6.54
775.036	6.42
775.351	6.66
775.665	6.94
775.979	7.24
776.293	7.27
776.608	7.29
776.922	7.08
777.236	6.92
777.55	6.51
777.864	6.88
778.178	6.76
778.492	6.85
778.806	7.08
779.12	7.21
779.434	7.13
779.747	7.38
780.061	7.55
780.375	7.73
780.689	7.71
781.002	7.62
781.316	8.02
781.629	8.16
781.943	7.88
782.256	7.52
782.57	7.23
782.883	7.47
783.196	7.72
783.51	7.77
783.823	8.22
784.136	8.25
784.449	7.92
784.762	8.51
785.075	8.73
785.388	8.61
785.701	8.6
786.014	8.43
786.327	8.78
786.64	8.58
786.953	8.49
787.266	8.6
787.578	8.78
787.891	8.3
788.204	8.11
788.516	8.3
788.829	8.33
789.141	8.62
789.454	8.31
789.766	8.39
790.079	8.43
790.391	8.09
790.703	8.19
791.016	8.5
791.328	8.34
791.64	8.1
791.952	8.28
792.264	8.28
792.576	8.74
792.888	8.87
793.2	9.13
793.512	8.8
793.824	9.34
794.136	9.48
794.448	9.86
794.76	9.9
795.071	9.72
795.383	9.75
795.695	9.15
796.006	9.53
796.318	9.47
796.629	9.44
796.941	9.84
797.252	9.82
797.564	9.67
797.875	9.86
798.186	10.07
798.497	9.84
798.809	9.97
799.12	9.71
799.431	9.22
799.742	9.21
800.053	9.59
800.364	9.36
800.675	9.13
800.986	9.21
801.297	8.94
801.608	9.1
801.918	9.43
802.229	9.69
802.54	9.14
802.851	8.83
803.161	9.41
803.472	8.97
803.782	9.07
804.093	8.68
804.403	8.39
804.714	8.12
805.024	7.77
805.334	7.56
805.645	7.85
805.955	7.78
806.265	7.54
806.575	7.38
806.885	7.22
807.195	7.39
807.505	7.11
807.815	7.5
808.125	7.07
808.435	6.91
808.745	6.66
809.055	6.78
809.365	7.18
809.674	6.52
809.984	6.67
810.294	6.39
810.603	6.58
810.913	6.19
811.222	6.18
811.532	6.18
811.841	6.5
812.151	6.97
812.46	6.36
812.769	6.82
813.079	7.3
813.388	6.78
813.697	6.53
814.006	6.83
814.315	6.72
814.624	7.34
814.933	7.24
815.242	7.51
815.551	7.48
815.86	7.46
816.169	7.25
816.478	7.06
816.786	7.09
817.095	6.46
817.404	6.75
817.712	6.93
818.021	7.5
818.33	7.97
818.638	7.72
818.947	8.54
819.255	8.54
819.563	8.57
819.872	8.98
820.18	9.2
820.488	9.26
820.796	9.21
821.105	9.34
821.413	9.42
821.721	9.54
822.029	9.76
822.337	9.62
822.645	9.78
822.953	9.72
823.26	9.74
823.568	9.87
823.876	10.01
824.184	10.07
824.491	10.02
824.799	9.84
825.107	9.84
825.414	9.82
825.722	9.68
826.029	9.51
826.337	9.54
826.644	9.39
826.951	9.34
827.259	9.44
827.566	9.23
827.873	9.18
828.18	9.12
828.488	8.82
828.795	9.02
829.102	8.94
829.409	8.88
829.716	9.08
830.023	9.08
830.329	8.78
830.636	8.75
830.943	8.53
831.25	8.54
831.557	8.36
831.863	8.48
832.17	8.6
832.476	8.86
832.783	9.04
833.089	9.33
833.396	9.24
833.702	9.1
834.009	9.34
834.315	8.98
834.621	8.89
834.928	8.91
835.234	8.69
835.54	9
835.846	9.15
836.152	9.2
836.458	8.91
836.764	9.01
837.07	8.87
837.376	9.31
837.682	9.13
837.988	9.45
838.293	9.34
838.599	9.46
838.905	9.32
839.211	7.99
839.516	8.03
839.822	8.09
840.127	7.95
840.433	8.32
840.738	8.41
841.044	8.11
841.349	8.01
841.654	7.62
841.959	7.22
842.265	7.39
842.57	6.95
842.875	7.45
843.18	6.97
843.485	6.47
843.79	5.5
844.095	5.9
844.4	5.26
844.705	4.73
845.01	5.36
845.315	4.01
845.619	5.41
845.924	3.78
846.229	2.85
846.533	2.87
846.838	0.71
847.142	0.62
847.447	1.34
847.751	0.97
848.056	1.63
848.36	1.6
848.664	0.39
848.969	0.03
849.273	0.44
849.577	1.13
849.881	2.88
850.185	4.67
850.489	5.49
850.794	5.51
851.097	5.08
851.401	3.44
851.705	4.44
852.009	4.69
852.313	3.15
852.617	3.56
852.92	3.54
853.224	4.36
853.528	4.61
853.831	4.18
854.135	7.26
854.438	6.49
854.742	6.06
855.045	6
855.349	4.39
855.652	4.3
855.955	1.76
856.259	-0.76
856.562	-1.43
856.865	-0.81
857.168	-0.58
857.471	0.1
857.774	-0.48
858.077	1.42
858.38	2.27
858.683	5.42
858.986	6.34
859.289	5.28
859.592	6.24
859.894	7.72
860.197	6.03
860.5	2.66
860.802	1.96
861.105	1.43
861.407	2.13
861.71	2.62
862.012	3.95
862.315	5.87
862.617	7.22
862.919	5.99
863.222	3.83
863.524	2.45
863.826	-0.2
864.128	1.05
864.43	1.24
864.732	-0.27
865.034	-0.93
865.336	-0.85
865.638	1.31
865.94	0.43
866.242	-1.13
866.544	0.47
866.846	1.78
867.147	3.04
867.449	3.72
867.751	3.63
868.052	5.78
868.354	5.57
868.655	4.92
868.957	6.57
869.258	7
869.56	9.28
869.861	10.75
870.162	13.22
870.463	13.92
870.765	13.83
871.066	14.49
871.367	12.05
871.668	11.76
871.969	9.49
872.27	10.67
872.571	9.53
872.872	9.86
873.173	8.98
873.473	8.62
873.774	8.31
874.075	9.76
874.376	7.47
874.676	7.38
874.977	8.11
875.277	7.94
875.578	7.23
875.878	5.26
876.179	4.64
876.479	4.15
876.78	2.95
877.08	2.11
877.38	1.4
877.68	4.85
877.981	4.72
878.281	7.05
878.581	5.22
