Data from BU26843_Reflection_00004.txt Node
Date: Mon Nov 18 16:30:59 EST 2019
User: vgr7
Spectrometer: USB2G7710
Scans to average: 3
Trigger mode: 4
Integration Time (sec): 2.000000E-2
Electric dark correction enabled: true
Boxcar width: 10
XAxis mode: Wavelengths
Number of Pixels in Spectrum: 2048
>>>>>Begin Spectral Data<<<<<
177.721	-89.95
178.105	-198.25
178.488	328.07
178.871	225.37
179.254	135.04
179.636	175.52
180.019	87.24
180.402	134.48
180.785	150.17
181.168	329.56
181.55	472.94
181.933	171.16
182.316	202.22
182.698	256.91
183.081	296.14
183.463	928.38
183.846	1892.27
184.228	1164.72
184.611	993.33
184.993	-1482.38
185.376	-850.78
185.758	-576.68
186.14	-520.47
186.522	-534.86
186.904	-407.52
187.287	-866.21
187.669	-324.78
188.051	-409.94
188.433	-163.87
188.815	-104.04
189.197	-122.57
189.579	-129.83
189.961	-159.85
190.342	-140.99
190.724	-138.1
191.106	-133.31
191.488	-110.43
191.869	-83.83
192.251	-96.33
192.633	-71.81
193.014	-80.85
193.396	-109.52
193.777	-121.79
194.159	-121.17
194.54	-104.7
194.922	-152.33
195.303	-148.14
195.684	-136.18
196.065	-125.15
196.447	-163.2
196.828	-192.22
197.209	-156.38
197.59	-135.47
197.971	-75.57
198.352	-74.1
198.733	-109.56
199.114	-117.35
199.495	-119.86
199.876	-155.57
200.257	-120.94
200.638	-98.32
201.018	-88.34
201.399	-70.89
201.78	-58.46
202.16	-87.03
202.541	-117.48
202.922	-106.67
203.302	-122.94
203.683	-146.38
204.063	-176.58
204.444	-149.24
204.824	-128.27
205.204	-141.85
205.585	-189.16
205.965	-318.04
206.345	-372.48
206.725	-403.59
207.106	-560.33
207.486	-412.29
207.866	-298.37
208.246	-282.23
208.626	-260.5
209.006	-189.42
209.386	-197.78
209.766	-220.53
210.145	-186.59
210.525	-163.57
210.905	-137.5
211.285	-106.95
211.664	-91.48
212.044	-79.75
212.424	-72.66
212.803	-69.19
213.183	-58.74
213.562	-46.04
213.942	-41.33
214.321	-42.78
214.701	-35.89
215.08	-36.53
215.459	-45.02
215.838	-50.13
216.218	-49.02
216.597	-46.53
216.976	-64.14
217.355	-61.9
217.734	-60.25
218.113	-49.46
218.492	-44.59
218.871	-44.3
219.25	-55.62
219.629	-53.5
220.008	-57.33
220.387	-59.91
220.766	-74.8
221.144	-104.45
221.523	-122.41
221.902	-146.41
222.28	-155.58
222.659	-144.12
223.037	-121.93
223.416	-127.45
223.794	-100.3
224.173	-100.9
224.551	-81.75
224.929	-77.81
225.308	-63.74
225.686	-50.13
226.064	-39.57
226.442	-37.76
226.821	-35.43
227.199	-31.32
227.577	-32.44
227.955	-31.49
228.333	-27.06
228.711	-19.98
229.089	-10.73
229.467	-9.19
229.845	-6.74
230.222	-4.35
230.6	-4.58
230.978	-2.67
231.356	3.07
231.733	-0.51
232.111	0.76
232.488	-0.02
232.866	1.72
233.243	2.33
233.621	0.13
233.998	-1.68
234.376	-2.01
234.753	-2.56
235.13	-2.45
235.508	-0.41
235.885	0.37
236.262	-1.55
236.639	-1.51
237.016	-0.89
237.393	0.55
237.77	0.01
238.147	0.1
238.524	0.5
238.901	1.37
239.278	2.28
239.655	3.24
240.032	2.7
240.409	2.91
240.785	2.47
241.162	2.05
241.539	2.02
241.915	1.79
242.292	1.5
242.668	1.87
243.045	2.03
243.421	1.98
243.798	1.91
244.174	2.05
244.551	2.51
244.927	2.25
245.303	2.42
245.679	2.71
246.056	2.73
246.432	3.08
246.808	2.87
247.184	2.31
247.56	2.11
247.936	2.33
248.312	2.17
248.688	2.14
249.064	2.03
249.44	2.21
249.815	2.28
250.191	2.55
250.567	2.5
250.943	2.52
251.318	2.53
251.694	2.43
252.069	2.42
252.445	2.41
252.82	2.59
253.196	2.39
253.571	2.13
253.947	2.03
254.322	1.84
254.697	1.72
255.073	1.92
255.448	1.93
255.823	1.58
256.198	1.7
256.573	1.85
256.948	2.03
257.323	2.04
257.698	2.11
258.073	2.09
258.448	2.25
258.823	2.21
259.198	2.15
259.573	2.32
259.948	2.29
260.322	2.18
260.697	2.17
261.072	2.04
261.446	2.14
261.821	2.17
262.195	2.11
262.57	2.17
262.944	2.13
263.319	2.11
263.693	2.16
264.067	2.32
264.442	2.41
264.816	2.31
265.19	2.17
265.564	1.9
265.938	1.79
266.313	1.59
266.687	1.74
267.061	1.95
267.435	1.86
267.809	1.98
268.183	2.07
268.556	1.99
268.93	2.09
269.304	2.05
269.678	2.17
270.051	2.17
270.425	2.25
270.799	2.39
271.172	2.48
271.546	2.52
271.919	2.38
272.293	2.33
272.666	2.4
273.04	2.47
273.413	2.59
273.787	2.59
274.16	2.62
274.533	2.53
274.906	2.43
275.279	2.57
275.653	2.47
276.026	2.46
276.399	2.41
276.772	2.44
277.145	2.44
277.518	2.49
277.891	2.65
278.263	2.62
278.636	2.59
279.009	2.65
279.382	2.88
279.755	2.88
280.127	2.98
280.5	2.99
280.872	3.11
281.245	3.21
281.617	3.44
281.99	3.58
282.362	3.79
282.735	3.65
283.107	3.44
283.479	3.5
283.852	3.53
284.224	3.67
284.596	3.61
284.968	3.69
285.34	3.55
285.713	3.49
286.085	3.53
286.457	3.43
286.829	3.35
287.201	3.22
287.572	3.24
287.944	3.11
288.316	3.09
288.688	3.1
289.06	3.1
289.431	3.01
289.803	2.93
290.175	2.7
290.546	2.85
290.918	2.86
291.289	2.9
291.661	2.82
292.032	2.79
292.403	2.88
292.775	2.9
293.146	3.01
293.517	2.95
293.889	3.02
294.26	3.14
294.631	3.28
295.002	3.25
295.373	3.24
295.744	3.38
296.115	3.28
296.486	3.25
296.857	3.11
297.228	3.13
297.599	3.07
297.97	3.14
298.34	3.12
298.711	3.31
299.082	3.21
299.452	3.23
299.823	3.17
300.194	3.1
300.564	2.97
300.935	2.93
301.305	2.86
301.676	2.66
302.046	2.66
302.416	2.67
302.787	2.69
303.157	2.65
303.527	2.55
303.897	2.66
304.267	2.77
304.637	2.87
305.008	2.88
305.378	2.99
305.748	2.95
306.117	2.8
306.487	2.64
306.857	2.64
307.227	2.74
307.597	2.79
307.967	2.79
308.336	2.77
308.706	2.76
309.076	2.91
309.445	2.95
309.815	2.85
310.184	2.72
310.554	2.73
310.923	2.75
311.293	2.75
311.662	2.78
312.031	2.64
312.401	2.71
312.77	2.79
313.139	2.76
313.508	2.73
313.877	2.66
314.246	2.7
314.616	2.81
314.985	2.58
315.353	2.46
315.722	2.41
316.091	2.42
316.46	2.38
316.829	2.24
317.198	2.35
317.567	2.33
317.935	2.32
318.304	2.3
318.672	2.2
319.041	2.29
319.41	2.11
319.778	2.09
320.147	1.92
320.515	1.69
320.883	1.69
321.252	1.71
321.62	1.93
321.988	2.06
322.357	1.97
322.725	2.11
323.093	2.23
323.461	2.29
323.829	2.29
324.197	2.36
324.565	2.48
324.933	2.47
325.301	2.51
325.669	2.45
326.037	2.45
326.405	2.62
326.772	2.61
327.14	2.79
327.508	2.83
327.875	2.86
328.243	2.92
328.61	3
328.978	3.01
329.346	3.04
329.713	2.9
330.08	2.93
330.448	2.89
330.815	2.81
331.182	2.76
331.55	2.91
331.917	2.78
332.284	2.83
332.651	2.69
333.018	2.71
333.385	2.71
333.752	2.72
334.119	2.64
334.486	2.58
334.853	2.53
335.22	2.61
335.587	2.61
335.954	2.58
336.32	2.58
336.687	2.57
337.054	2.49
337.42	2.43
337.787	2.49
338.153	2.66
338.52	2.72
338.886	2.79
339.253	2.66
339.619	2.68
339.986	2.52
340.352	2.71
340.718	2.67
341.084	2.64
341.451	2.76
341.817	2.72
342.183	2.74
342.549	2.69
342.915	2.64
343.281	2.69
343.647	2.72
344.013	2.63
344.379	2.68
344.745	2.75
345.11	2.76
345.476	2.7
345.842	2.52
346.208	2.55
346.573	2.62
346.939	2.73
347.304	2.77
347.67	2.79
348.035	2.73
348.401	2.74
348.766	2.77
349.132	2.72
349.497	2.72
349.862	2.71
350.228	2.65
350.593	2.66
350.958	2.58
351.323	2.69
351.688	2.76
352.053	2.79
352.418	2.81
352.783	2.86
353.148	2.8
353.513	2.88
353.878	2.82
354.243	2.79
354.608	2.77
354.972	2.82
355.337	2.88
355.702	2.84
356.066	2.94
356.431	2.9
356.795	2.87
357.16	2.85
357.524	2.84
357.889	2.93
358.253	2.94
358.618	3.04
358.982	2.96
359.346	2.9
359.71	2.9
360.075	2.87
360.439	2.95
360.803	3.07
361.167	3.07
361.531	3.1
361.895	3.07
362.259	3.07
362.623	3.06
362.987	3.02
363.351	3.07
363.714	3.05
364.078	3.13
364.442	3.14
364.806	3.18
365.169	3.18
365.533	3.12
365.896	3.12
366.26	3.05
366.623	3.04
366.987	3.09
367.35	3.06
367.714	3.1
368.077	2.98
368.44	2.86
368.803	2.84
369.167	2.79
369.53	2.77
369.893	2.76
370.256	2.72
370.619	2.75
370.982	2.74
371.345	2.68
371.708	2.63
372.071	2.68
372.434	2.67
372.797	2.67
373.159	2.76
373.522	2.76
373.885	2.85
374.247	2.91
374.61	2.88
374.973	2.91
375.335	2.82
375.698	2.86
376.06	2.89
376.423	2.85
376.785	2.91
377.147	2.92
377.51	2.9
377.872	2.92
378.234	2.94
378.596	2.93
378.958	2.93
379.321	2.94
379.683	2.89
380.045	2.89
380.407	2.86
380.769	2.85
381.13	2.85
381.492	2.78
381.854	2.75
382.216	2.78
382.578	2.78
382.939	2.8
383.301	2.77
383.663	2.76
384.024	2.76
384.386	2.76
384.747	2.78
385.109	2.79
385.47	2.76
385.832	2.76
386.193	2.75
386.554	2.76
386.916	2.77
387.277	2.76
387.638	2.8
387.999	2.84
388.36	2.83
388.721	2.82
389.082	2.86
389.443	2.83
389.804	2.79
390.165	2.78
390.526	2.8
390.887	2.81
391.248	2.83
391.609	2.9
391.969	2.92
392.33	2.89
392.691	2.88
393.051	2.91
393.412	2.89
393.772	2.89
394.133	2.89
394.493	2.88
394.854	2.91
395.214	2.92
395.574	2.91
395.935	2.92
396.295	2.91
396.655	2.91
397.015	2.93
397.376	2.95
397.736	2.94
398.096	2.94
398.456	2.98
398.816	2.99
399.176	2.94
399.535	2.92
399.895	2.95
400.255	2.95
400.615	2.96
400.975	2.98
401.334	2.97
401.694	2.98
402.054	2.98
402.413	2.99
402.773	2.96
403.132	2.97
403.492	2.96
403.851	2.98
404.211	2.94
404.57	2.92
404.929	2.95
405.288	2.98
405.648	2.98
406.007	2.95
406.366	2.96
406.725	3
407.084	2.99
407.443	3
407.802	3.03
408.161	3.03
408.52	3.02
408.879	3.02
409.238	3.05
409.596	3.07
409.955	3.05
410.314	3.06
410.673	3.05
411.031	3.04
411.39	3.04
411.748	3.06
412.107	3.11
412.465	3.09
412.824	3.08
413.182	3.06
413.54	3.1
413.899	3.08
414.257	3.08
414.615	3.1
414.974	3.1
415.332	3.09
415.69	3.09
416.048	3.11
416.406	3.12
416.764	3.1
417.122	3.09
417.48	3.06
417.838	3.07
418.195	3.09
418.553	3.1
418.911	3.11
419.269	3.13
419.626	3.12
419.984	3.12
420.342	3.12
420.699	3.14
421.057	3.14
421.414	3.14
421.772	3.13
422.129	3.13
422.486	3.12
422.844	3.12
423.201	3.11
423.558	3.11
423.915	3.11
424.273	3.12
424.63	3.12
424.987	3.14
425.344	3.14
425.701	3.13
426.058	3.12
426.415	3.11
426.772	3.12
427.128	3.1
427.485	3.11
427.842	3.12
428.199	3.11
428.555	3.11
428.912	3.11
429.269	3.11
429.625	3.11
429.982	3.1
430.338	3.1
430.695	3.09
431.051	3.07
431.407	3.07
431.764	3.06
432.12	3.08
432.476	3.07
432.832	3.07
433.189	3.07
433.545	3.06
433.901	3.07
434.257	3.06
434.613	3.08
434.969	3.06
435.325	3.05
435.681	3.05
436.036	3.04
436.392	3.06
436.748	3.06
437.104	3.06
437.459	3.04
437.815	3.04
438.171	3.04
438.526	3.05
438.882	3.04
439.237	3.04
439.593	3.04
439.948	3.04
440.304	3.05
440.659	3.06
441.014	3.08
441.369	3.07
441.725	3.06
442.08	3.06
442.435	3.08
442.79	3.08
443.145	3.1
443.5	3.11
443.855	3.09
444.21	3.09
444.565	3.11
444.92	3.13
445.275	3.12
445.629	3.13
445.984	3.14
446.339	3.15
446.693	3.14
447.048	3.15
447.403	3.14
447.757	3.13
448.112	3.13
448.466	3.13
448.82	3.14
449.175	3.13
449.529	3.12
449.883	3.1
450.238	3.09
450.592	3.07
450.946	3.06
451.3	3.06
451.654	3.07
452.008	3.06
452.362	3.06
452.716	3.07
453.07	3.08
453.424	3.06
453.778	3.06
454.132	3.06
454.486	3.04
454.839	3.04
455.193	3.04
455.547	3.03
455.9	3.02
456.254	3.02
456.607	3.01
456.961	3.01
457.314	3.02
457.668	3.05
458.021	3.02
458.375	3.03
458.728	3.03
459.081	3.03
459.434	3.01
459.787	3.01
460.141	3.01
460.494	3.02
460.847	3.02
461.2	3.02
461.553	3.03
461.906	3.03
462.259	3.04
462.611	3.06
462.964	3.06
463.317	3.07
463.67	3.08
464.022	3.1
464.375	3.1
464.728	3.1
465.08	3.09
465.433	3.11
465.785	3.1
466.138	3.1
466.49	3.08
466.843	3.09
467.195	3.09
467.547	3.1
467.899	3.1
468.252	3.11
468.604	3.11
468.956	3.09
469.308	3.09
469.66	3.1
470.012	3.1
470.364	3.09
470.716	3.07
471.068	3.08
471.42	3.06
471.772	3.08
472.123	3.1
472.475	3.11
472.827	3.11
473.178	3.13
473.53	3.13
473.882	3.14
474.233	3.14
474.585	3.16
474.936	3.16
475.288	3.15
475.639	3.16
475.99	3.15
476.342	3.16
476.693	3.15
477.044	3.15
477.395	3.13
477.746	3.14
478.097	3.15
478.448	3.16
478.8	3.16
479.15	3.13
479.501	3.13
479.852	3.14
480.203	3.14
480.554	3.15
480.905	3.17
481.255	3.17
481.606	3.2
481.957	3.2
482.307	3.21
482.658	3.21
483.009	3.22
483.359	3.23
483.709	3.24
484.06	3.24
484.41	3.24
484.761	3.25
485.111	3.25
485.461	3.25
485.811	3.24
486.162	3.25
486.512	3.27
486.862	3.28
487.212	3.27
487.562	3.27
487.912	3.27
488.262	3.26
488.612	3.27
488.961	3.25
489.311	3.25
489.661	3.24
490.011	3.23
490.36	3.22
490.71	3.22
491.06	3.21
491.409	3.22
491.759	3.21
492.108	3.22
492.458	3.22
492.807	3.21
493.157	3.22
493.506	3.22
493.855	3.22
494.204	3.21
494.554	3.21
494.903	3.2
495.252	3.2
495.601	3.21
495.95	3.22
496.299	3.21
496.648	3.22
496.997	3.22
497.346	3.24
497.695	3.25
498.043	3.23
498.392	3.24
498.741	3.24
499.09	3.23
499.438	3.25
499.787	3.24
500.135	3.25
500.484	3.23
500.832	3.25
501.181	3.24
501.529	3.23
501.878	3.25
502.226	3.27
502.574	3.28
502.923	3.27
503.271	3.28
503.619	3.29
503.967	3.27
504.315	3.26
504.663	3.26
505.011	3.27
505.359	3.29
505.707	3.3
506.055	3.3
506.403	3.31
506.751	3.3
507.098	3.3
507.446	3.31
507.794	3.32
508.141	3.32
508.489	3.31
508.837	3.33
509.184	3.33
509.531	3.33
509.879	3.35
510.226	3.35
510.574	3.34
510.921	3.34
511.268	3.38
511.616	3.4
511.963	3.42
512.31	3.43
512.657	3.42
513.004	3.43
513.351	3.44
513.698	3.44
514.045	3.44
514.392	3.45
514.739	3.45
515.086	3.48
515.432	3.48
515.779	3.49
516.126	3.49
516.473	3.51
516.819	3.52
517.166	3.49
517.512	3.5
517.859	3.49
518.205	3.48
518.552	3.48
518.898	3.47
519.245	3.47
519.591	3.47
519.937	3.46
520.283	3.45
520.629	3.47
520.976	3.47
521.322	3.47
521.668	3.5
522.014	3.51
522.36	3.49
522.706	3.5
523.052	3.49
523.398	3.51
523.743	3.5
524.089	3.5
524.435	3.52
524.781	3.53
525.126	3.55
525.472	3.56
525.817	3.58
526.163	3.58
526.509	3.58
526.854	3.58
527.199	3.6
527.545	3.61
527.89	3.62
528.235	3.63
528.581	3.65
528.926	3.64
529.271	3.65
529.616	3.64
529.961	3.65
530.306	3.66
530.651	3.65
530.996	3.65
531.341	3.66
531.686	3.66
532.031	3.67
532.376	3.67
532.721	3.66
533.065	3.65
533.41	3.65
533.755	3.66
534.099	3.66
534.444	3.65
534.788	3.64
535.133	3.63
535.477	3.63
535.822	3.61
536.166	3.61
536.51	3.59
536.855	3.61
537.199	3.61
537.543	3.62
537.887	3.64
538.231	3.64
538.576	3.63
538.92	3.63
539.264	3.65
539.608	3.65
539.951	3.66
540.295	3.66
540.639	3.66
540.983	3.66
541.327	3.67
541.671	3.66
542.014	3.67
542.358	3.68
542.701	3.69
543.045	3.7
543.389	3.69
543.732	3.7
544.075	3.73
544.419	3.74
544.762	3.73
545.105	3.72
545.449	3.72
545.792	3.74
546.135	3.75
546.478	3.73
546.821	3.72
547.165	3.72
547.508	3.74
547.851	3.76
548.194	3.76
548.536	3.75
548.879	3.78
549.222	3.77
549.565	3.76
549.908	3.76
550.25	3.76
550.593	3.75
550.936	3.73
551.278	3.7
551.621	3.7
551.963	3.7
552.306	3.7
552.648	3.71
552.991	3.72
553.333	3.72
553.675	3.72
554.017	3.73
554.36	3.74
554.702	3.76
555.044	3.75
555.386	3.74
555.728	3.73
556.07	3.7
556.412	3.7
556.754	3.71
557.096	3.69
557.438	3.71
557.78	3.73
558.121	3.73
558.463	3.77
558.805	3.75
559.147	3.78
559.488	3.77
559.83	3.77
560.171	3.74
560.513	3.77
560.854	3.76
561.196	3.77
561.537	3.77
561.878	3.75
562.22	3.72
562.561	3.69
562.902	3.71
563.243	3.72
563.584	3.74
563.925	3.74
564.266	3.73
564.607	3.72
564.948	3.74
565.289	3.74
565.63	3.7
565.971	3.68
566.312	3.67
566.653	3.7
566.993	3.69
567.334	3.69
567.675	3.68
568.015	3.69
568.356	3.67
568.696	3.7
569.037	3.71
569.377	3.75
569.718	3.79
570.058	3.79
570.398	3.78
570.739	3.74
571.079	3.76
571.419	3.77
571.759	3.78
572.099	3.78
572.439	3.79
572.779	3.8
573.119	3.85
573.459	3.86
573.799	3.84
574.139	3.86
574.479	3.86
574.819	3.86
575.158	3.86
575.498	3.86
575.838	3.82
576.177	3.78
576.517	3.73
576.856	3.75
577.196	3.72
577.535	3.7
577.875	3.73
578.214	3.71
578.553	3.73
578.893	3.67
579.232	3.65
579.571	3.64
579.91	3.64
580.25	3.61
580.589	3.57
580.928	3.57
581.267	3.57
581.606	3.57
581.945	3.55
582.283	3.54
582.622	3.54
582.961	3.56
583.3	3.59
583.639	3.64
583.977	3.65
584.316	3.64
584.654	3.66
584.993	3.67
585.332	3.68
585.67	3.68
586.008	3.71
586.347	3.73
586.685	3.73
587.024	3.71
587.362	3.7
587.7	3.73
588.038	3.72
588.376	3.7
588.715	3.7
589.053	3.74
589.391	3.72
589.729	3.73
590.067	3.69
590.404	3.71
590.742	3.69
591.08	3.64
591.418	3.68
591.756	3.74
592.093	3.73
592.431	3.7
592.769	3.71
593.106	3.72
593.444	3.71
593.781	3.73
594.119	3.76
594.456	3.77
594.793	3.76
595.131	3.77
595.468	3.79
595.805	3.8
596.143	3.81
596.48	3.81
596.817	3.84
597.154	3.89
597.491	3.87
597.828	3.86
598.165	3.85
598.502	3.85
598.839	3.81
599.176	3.8
599.512	3.83
599.849	3.81
600.186	3.8
600.523	3.8
600.859	3.8
601.196	3.78
601.532	3.79
601.869	3.77
602.205	3.77
602.542	3.77
602.878	3.77
603.215	3.74
603.551	3.75
603.887	3.71
604.223	3.69
604.56	3.69
604.896	3.72
605.232	3.75
605.568	3.75
605.904	3.76
606.24	3.78
606.576	3.78
606.912	3.8
607.248	3.85
607.583	3.88
607.919	3.86
608.255	3.91
608.591	3.91
608.926	3.93
609.262	3.94
609.597	3.94
609.933	3.96
610.268	4
610.604	4.01
610.939	4.03
611.275	4.05
611.61	4.05
611.945	4.03
612.281	3.99
612.616	3.97
612.951	3.98
613.286	3.99
613.621	4
613.956	4.01
614.291	3.97
614.626	3.94
614.961	3.95
615.296	3.9
615.631	3.89
615.966	3.91
616.3	3.88
616.635	3.84
616.97	3.83
617.304	3.81
617.639	3.82
617.973	3.79
618.308	3.76
618.642	3.75
618.977	3.78
619.311	3.8
619.646	3.83
619.98	3.83
620.314	3.82
620.648	3.82
620.983	3.8
621.317	3.75
621.651	3.76
621.985	3.79
622.319	3.83
622.653	3.87
622.987	3.88
623.321	3.86
623.655	3.94
623.988	3.95
624.322	3.86
624.656	3.92
624.99	3.94
625.323	3.95
625.657	3.96
625.99	3.98
626.324	3.97
626.657	3.97
626.991	3.96
627.324	3.99
627.658	3.98
627.991	4
628.324	4.01
628.657	4.02
628.991	4
629.324	3.99
629.657	3.94
629.99	3.91
630.323	3.93
630.656	3.89
630.989	3.88
631.322	3.97
631.655	3.91
631.987	3.89
632.32	3.9
632.653	3.92
632.986	3.89
633.318	3.93
633.651	4
633.984	4
634.316	3.98
634.649	3.96
634.981	3.93
635.313	3.95
635.646	3.93
635.978	3.93
636.31	3.97
636.643	3.97
636.975	3.98
637.307	3.99
637.639	3.97
637.971	3.99
638.303	3.97
638.635	3.96
638.967	4
639.299	4
639.631	3.97
639.963	3.9
640.295	3.87
640.626	3.79
640.958	3.79
641.29	3.82
641.621	3.78
641.953	3.79
642.285	3.82
642.616	3.88
642.948	3.91
643.279	3.82
643.61	3.83
643.942	3.81
644.273	3.84
644.604	3.84
644.936	3.79
645.267	3.79
645.598	3.75
645.929	3.76
646.26	3.79
646.591	3.81
646.922	3.86
647.253	3.84
647.584	3.87
647.915	3.9
648.245	3.85
648.576	3.89
648.907	3.84
649.238	3.85
649.568	3.75
649.899	3.74
650.229	3.8
650.56	3.82
650.89	3.84
651.221	3.8
651.551	3.83
651.882	3.87
652.212	3.89
652.542	3.95
652.872	3.92
653.203	3.88
653.533	3.89
653.863	3.86
654.193	3.93
654.523	3.92
654.853	3.89
655.183	3.87
655.513	3.9
655.843	3.94
656.172	3.95
656.502	4
656.832	4
657.162	4.01
657.491	4.02
657.821	4.05
658.15	4.05
658.48	4.07
658.809	4.06
659.139	4.04
659.468	3.99
659.798	3.99
660.127	4.02
660.456	3.99
660.785	4.07
661.115	4
661.444	3.98
661.773	3.99
662.102	4.03
662.431	4.01
662.76	4.02
663.089	3.98
663.418	3.92
663.747	3.88
664.076	3.91
664.404	3.91
664.733	3.85
665.062	3.83
665.39	3.78
665.719	3.79
666.048	3.75
666.376	3.79
666.705	3.82
667.033	3.72
667.362	3.74
667.69	3.65
668.018	3.64
668.347	3.68
668.675	3.72
669.003	3.77
669.331	3.81
669.659	3.82
669.987	3.79
670.315	3.83
670.643	3.8
670.971	3.75
671.299	3.81
671.627	3.85
671.955	3.82
672.283	3.88
672.61	3.89
672.938	3.94
673.266	3.97
673.593	4
673.921	4.07
674.249	4.09
674.576	4.08
674.904	4.07
675.231	4.01
675.558	3.95
675.886	3.89
676.213	3.81
676.54	3.76
676.867	3.87
677.195	3.88
677.522	3.95
677.849	3.9
678.176	3.87
678.503	3.77
678.83	3.83
679.157	3.81
679.484	3.78
679.81	3.72
680.137	3.67
680.464	3.69
680.791	3.67
681.117	3.67
681.444	3.71
681.771	3.76
682.097	3.8
682.424	3.84
682.75	3.84
683.077	3.89
683.403	3.99
683.729	3.97
684.056	4.04
684.382	3.92
684.708	3.94
685.034	3.92
685.36	3.99
685.686	3.89
686.012	3.81
686.339	3.92
686.664	3.85
686.99	3.89
687.316	3.76
687.642	3.82
687.968	3.78
688.294	3.81
688.619	3.8
688.945	3.78
689.271	3.7
689.596	3.67
689.922	3.75
690.247	3.64
690.573	3.59
690.898	3.47
691.224	3.63
691.549	3.68
691.874	3.65
692.2	3.66
692.525	3.86
692.85	3.92
693.175	3.81
693.5	4.02
693.825	4.02
694.15	4.02
694.475	3.97
694.8	3.99
695.125	3.95
695.45	4
695.775	4.05
696.099	4.17
696.424	4.19
696.749	4.09
697.073	4.12
697.398	4.18
697.723	4.23
698.047	4.18
698.372	4.16
698.696	4.21
699.02	4.19
699.345	4.14
699.669	4.2
699.993	4.25
700.318	4.19
700.642	4.17
700.966	4.15
701.29	4.22
701.614	4.23
701.938	4.28
702.262	4.3
702.586	4.25
702.91	4.17
703.234	4.2
703.557	4.23
703.881	4.17
704.205	4.1
704.529	4.07
704.852	4.15
705.176	4.18
705.499	4.22
705.823	4.2
706.146	4.08
706.47	3.96
706.793	3.82
707.117	3.85
707.44	3.91
707.763	4.04
708.086	3.91
708.409	3.92
708.733	3.93
709.056	3.89
709.379	3.96
709.702	4
710.025	3.94
710.348	3.93
710.671	4
710.993	4.06
711.316	4.09
711.639	4.04
711.962	3.94
712.284	4.01
712.607	4.11
712.93	4.28
713.252	4.31
713.575	4.32
713.897	4.4
714.22	4.33
714.542	4.33
714.864	4.42
715.187	4.43
715.509	4.39
715.831	4.43
716.153	4.29
716.475	4.22
716.798	4.39
717.12	4.28
717.442	4.22
717.764	4.18
718.085	4.26
718.407	4.27
718.729	4.22
719.051	4.09
719.373	4.09
719.695	3.88
720.016	3.92
720.338	4.05
720.659	3.87
720.981	3.86
721.302	3.93
721.624	4.05
721.945	4.08
722.267	4.07
722.588	4.06
722.909	4.22
723.231	4.27
723.552	4.06
723.873	4.11
724.194	4.2
724.515	4.23
724.836	4.28
725.157	4.43
725.478	4.62
725.799	4.55
726.12	4.54
726.441	4.68
726.762	4.7
727.083	4.65
727.403	4.72
727.724	4.97
728.045	4.85
728.365	4.67
728.686	4.61
729.006	4.52
729.327	4.52
729.647	4.48
729.967	4.41
730.288	4.5
730.608	4.51
730.928	4.38
731.249	4.31
731.569	4.34
731.889	4.24
732.209	4.01
732.529	3.98
732.849	3.99
733.169	4.01
733.489	3.97
733.809	3.8
734.129	3.8
734.448	3.63
734.768	3.69
735.088	3.65
735.408	3.68
735.727	3.87
736.047	4.1
736.366	3.99
736.686	4.1
737.005	4.17
737.325	4.19
737.644	4.31
737.963	4.31
738.283	4.2
738.602	4.11
738.921	4.28
739.24	4.22
739.56	4.07
739.879	3.98
740.198	4.1
740.517	4.35
740.836	4.3
741.155	4.16
741.473	4.18
741.792	4.27
742.111	4.28
742.43	4.19
742.748	3.81
743.067	4.05
743.386	4.02
743.704	3.93
744.023	4.13
744.341	4
744.66	4.03
744.978	3.83
745.297	3.86
745.615	3.93
745.933	4.26
746.252	4.29
746.57	4.27
746.888	4.16
747.206	4.22
747.524	4.04
747.842	4.16
748.16	4.09
748.478	4.05
748.796	4.16
749.114	4.19
749.432	4.13
749.749	4.11
750.067	3.92
750.385	3.95
750.703	3.9
751.02	4
751.338	4.06
751.655	4.38
751.973	4.44
752.29	4.62
752.608	4.29
752.925	4.41
753.242	4.76
753.56	4.68
753.877	4.62
754.194	4.81
754.511	4.77
754.828	4.86
755.145	4.89
755.462	4.69
755.779	4.58
756.096	4.75
756.413	4.87
756.73	5.31
757.047	5.22
757.364	5.16
757.68	5.35
757.997	5.14
758.314	4.9
758.63	4.88
758.947	4.92
759.264	4.86
759.58	4.64
759.896	4.53
760.213	4.44
760.529	4.51
760.846	4.63
761.162	4.66
761.478	4.68
761.794	4.56
762.11	4.49
762.426	4.54
762.743	4.72
763.059	4.46
763.375	4.41
763.69	4.51
764.006	4.41
764.322	4.44
764.638	4.55
764.954	4.66
765.27	4.56
765.585	4.24
765.901	4.42
766.216	4.69
766.532	4.55
766.848	4.48
767.163	4.44
767.478	4.32
767.794	4.27
768.109	4.3
768.424	4.45
768.74	4.61
769.055	4.71
769.37	4.77
769.685	4.98
770	5.02
770.315	4.87
770.63	5.13
770.945	4.88
771.26	5.1
771.575	5.1
771.89	5.27
772.205	5.44
772.52	5.18
772.834	4.69
773.149	4.82
773.464	5.27
773.778	5.35
774.093	5.11
774.407	5.31
774.722	5.42
775.036	5.43
775.351	5.2
775.665	5.06
775.979	4.46
776.293	4.31
776.608	3.83
776.922	3.96
777.236	3.82
777.55	4.12
777.864	4.02
778.178	3.89
778.492	4.12
778.806	4.1
779.12	4.46
779.434	4.46
779.747	4.5
780.061	4.3
780.375	4.1
780.689	4.32
781.002	4.33
781.316	4.16
781.629	4.05
781.943	4.32
782.256	4.58
782.57	4.83
782.883	4.99
783.196	5
783.51	4.81
783.823	4.73
784.136	4.51
784.449	4.42
784.762	4.68
785.075	4.2
785.388	4.15
785.701	3.78
786.014	4.01
786.327	3.85
786.64	3.76
786.953	3.88
787.266	3.77
787.578	3.73
787.891	3.62
788.204	3.52
788.516	3.49
788.829	3.24
789.141	3.39
789.454	3.89
789.766	4.07
790.079	4.35
790.391	4.41
790.703	4.45
791.016	4.7
791.328	4.76
791.64	5
791.952	5.25
792.264	5.45
792.576	5.67
792.888	5.82
793.2	5.98
793.512	5.65
793.824	5.68
794.136	5.54
794.448	6.11
794.76	5.96
795.071	5.72
795.383	5.3
795.695	5
796.006	4.6
796.318	4.76
796.629	4.56
796.941	4.39
797.252	4.35
797.564	4.13
797.875	4.08
798.186	3.87
798.497	3.77
798.809	3.73
799.12	3.71
799.431	3.17
799.742	3.1
800.053	3.33
800.364	3.35
800.675	3.41
800.986	2.43
801.297	2.55
801.608	2.53
801.918	2.8
802.229	3.08
802.54	3
802.851	2.98
803.161	3.13
803.472	2.91
803.782	2.79
804.093	2.87
804.403	2.9
804.714	3.06
805.024	2.8
805.334	2.9
805.645	2.72
805.955	3.37
806.265	3.49
806.575	3.32
806.885	3.69
807.195	4.19
807.505	4.39
807.815	4.43
808.125	4.51
808.435	4.39
808.745	3.98
809.055	4.21
809.365	3.79
809.674	3.49
809.984	4.11
810.294	3.88
810.603	3.81
810.913	3.56
811.222	3.73
811.532	4.09
811.841	4.42
812.151	5.37
812.46	4.71
812.769	4.27
813.079	4.59
813.388	4.41
813.697	3.85
814.006	3.93
814.315	3.71
814.624	3.62
814.933	4.53
815.242	4.58
815.551	4.26
815.86	4.75
816.169	4.83
816.478	4.53
816.786	4.93
817.095	5.18
817.404	5.09
817.712	4.8
818.021	4.91
818.33	4.82
818.638	4.37
818.947	4.84
819.255	5.87
819.563	5.88
819.872	6.07
820.18	6.09
820.488	6.07
820.796	6.51
821.105	6.69
821.413	6.58
821.721	6.69
822.029	6.59
822.337	6.66
822.645	6.82
822.953	6.91
823.26	6.96
823.568	6.83
823.876	6.79
824.184	6.88
824.491	6.83
824.799	6.92
825.107	6.95
825.414	7.01
825.722	6.96
826.029	7.11
826.337	7.12
826.644	7.21
826.951	7.25
827.259	7.01
827.566	6.71
827.873	6.54
828.18	6.65
828.488	6.74
828.795	6.62
829.102	6.47
829.409	6.34
829.716	6.11
830.023	6.1
830.329	5.96
830.636	5.82
830.943	5.74
831.25	5.3
831.557	5.22
831.863	5.26
832.17	4.76
832.476	4.66
832.783	4.68
833.089	4.48
833.396	4.54
833.702	5.07
834.009	5.67
834.315	5.6
834.621	5.59
834.928	5.73
835.234	5.78
835.54	5.55
835.846	5.24
836.152	5.3
836.458	5.43
836.764	5.33
837.07	5.13
837.376	4.86
837.682	5.02
837.988	5.07
838.293	4.67
838.599	4.44
838.905	3.54
839.211	3.17
839.516	3.28
839.822	2.92
840.127	2.11
840.433	2.17
840.738	2.75
841.044	2.32
841.349	1.99
841.654	1.45
841.959	1.64
842.265	1.87
842.57	1.96
842.875	2.01
843.18	3.6
843.485	3.97
843.79	5.15
844.095	4.02
844.4	4.76
844.705	5.18
845.01	6.38
845.315	6.69
845.619	6.49
845.924	5.91
846.229	7.2
846.533	8.16
846.838	6.88
847.142	7.38
847.447	5.85
847.751	6.26
848.056	6.42
848.36	6.1
848.664	7.8
848.969	7.26
849.273	5.82
849.577	4.44
849.881	2.96
850.185	4.35
850.489	6.42
850.794	3.35
851.097	2.99
851.401	0.63
851.705	0.92
852.009	2.6
852.313	2.05
852.617	0.75
852.92	-0.35
853.224	0.48
853.528	0.41
853.831	1.42
854.135	0.15
854.438	-1.1
854.742	-0.2
855.045	-1.87
855.349	-1.2
855.652	0.06
855.955	0.07
856.259	1
856.562	-2.72
856.865	-2.5
857.168	-1.91
857.471	-1.89
857.774	-0.68
858.077	-0.64
858.38	-1.3
858.683	-0.78
858.986	-0.15
859.289	1.03
859.592	2.05
859.894	1.36
860.197	1.61
860.5	3.61
860.802	4.84
861.105	3.97
861.407	3.36
861.71	2.85
862.012	1.9
862.315	2.8
862.617	3.77
862.919	7.48
863.222	7.28
863.524	7.51
863.826	6.25
864.128	6
864.43	5.52
864.732	3.84
865.034	4.57
865.336	5.93
865.638	5.17
865.94	3.23
866.242	0.58
866.544	-0.92
866.846	-1.32
867.147	-0.27
867.449	0.11
867.751	2.61
868.052	3.86
868.354	2.98
868.655	1.51
868.957	0.89
869.258	-0.77
869.56	-1.26
869.861	-1.43
870.162	-0.17
870.463	1.97
870.765	1.18
871.066	1.29
871.367	1.63
871.668	-0.8
871.969	-1.96
872.27	-1.12
872.571	0.28
872.872	1.4
873.173	0.39
873.473	-0.15
873.774	1.12
874.075	0
874.376	-1.48
874.676	1.41
874.977	-0.43
875.277	1
875.578	1.03
875.878	0.89
876.179	1.69
876.479	1.73
876.78	-0.08
877.08	2.04
877.38	2.76
877.68	1.68
877.981	2.37
878.281	4.21
878.581	5.07
