Data from BU26842_Reflection_00012.txt Node
Date: Mon Nov 18 16:38:48 EST 2019
User: vgr7
Spectrometer: USB2G7710
Scans to average: 3
Trigger mode: 4
Integration Time (sec): 2.000000E-2
Electric dark correction enabled: true
Boxcar width: 10
XAxis mode: Wavelengths
Number of Pixels in Spectrum: 2048
>>>>>Begin Spectral Data<<<<<
177.721	125.4
178.105	172.23
178.488	91.26
178.871	64.33
179.254	77.52
179.636	70.03
180.019	197.85
180.402	37.21
180.785	70.78
181.168	-49.91
181.55	-23.05
181.933	358.18
182.316	-762.07
182.698	-1032.23
183.081	-506.15
183.463	-82.13
183.846	-70.86
184.228	-81.77
184.611	-68.33
184.993	-57.96
185.376	-152.99
185.758	-427.05
186.14	949.37
186.522	540.51
186.904	764.97
187.287	7100
187.669	-95.75
188.051	-86.73
188.433	-58.08
188.815	-52.75
189.197	-40.24
189.579	-42.73
189.961	-12.67
190.342	-21.63
190.724	-4.22
191.106	-5.21
191.488	4.75
191.869	-27.04
192.251	-19.39
192.633	-7.46
193.014	-22.82
193.396	-11.78
193.777	-6.39
194.159	-18.74
194.54	-19.64
194.922	-16.01
195.303	-22.72
195.684	-30.23
196.065	-19.12
196.447	-11.95
196.828	-10.49
197.209	-13.69
197.59	-17.01
197.971	-29.41
198.352	-11.5
198.733	-18.71
199.114	0.84
199.495	3.1
199.876	11.33
200.257	13.13
200.638	24.51
201.018	42.4
201.399	31.36
201.78	34.07
202.16	49.05
202.541	39.38
202.922	20.8
203.302	46.29
203.683	87.85
204.063	82.02
204.444	60.85
204.824	10.99
205.204	30.67
205.585	27.09
205.965	7.95
206.345	-2.16
206.725	-18.39
207.106	-44.72
207.486	-58.13
207.866	-61.93
208.246	-49.68
208.626	-44.23
209.006	-23.1
209.386	-38.33
209.766	-50.45
210.145	-38.72
210.525	-28.92
210.905	3.36
211.285	7.12
211.664	2.84
212.044	5.05
212.424	9.33
212.803	13.78
213.183	7.96
213.562	4.75
213.942	20.08
214.321	17.28
214.701	10.72
215.08	4.13
215.459	9.46
215.838	12.39
216.218	8.67
216.597	5.16
216.976	6.18
217.355	13.19
217.734	7.25
218.113	10.13
218.492	9.55
218.871	7.74
219.25	0.78
219.629	5.37
220.008	-0.13
220.387	-4.27
220.766	-7.05
221.144	-13.23
221.523	-10.39
221.902	-5.23
222.28	-11.69
222.659	-6.41
223.037	0.39
223.416	-8.48
223.794	-8.77
224.173	-7.2
224.551	-6.52
224.929	-9.97
225.308	-6.93
225.686	-2.07
226.064	-1.74
226.442	-5.04
226.821	-7.9
227.199	-4.78
227.577	-5.83
227.955	-4.5
228.333	-2.62
228.711	-0.44
229.089	4.4
229.467	0.08
229.845	0.51
230.222	1.4
230.6	3.52
230.978	2.94
231.356	5.9
231.733	5.17
232.111	7.91
232.488	7.98
232.866	6.66
233.243	6.82
233.621	7.72
233.998	7.6
234.376	8.99
234.753	8.77
235.13	9.03
235.508	8.65
235.885	8.44
236.262	8.18
236.639	7.71
237.016	6.75
237.393	8.66
237.77	6.99
238.147	7.42
238.524	6.84
238.901	7.21
239.278	6.53
239.655	6.46
240.032	5.25
240.409	5.32
240.785	6.09
241.162	5.87
241.539	5.37
241.915	5.07
242.292	5.39
242.668	5.79
243.045	5.73
243.421	5.71
243.798	5.79
244.174	5.67
244.551	5.56
244.927	5.57
245.303	5.61
245.679	5.43
246.056	5.23
246.432	4.96
246.808	4.73
247.184	4.52
247.56	4.37
247.936	4.38
248.312	4.56
248.688	4.06
249.064	3.78
249.44	3.77
249.815	3.87
250.191	3.58
250.567	3.35
250.943	3.25
251.318	3.27
251.694	3.15
252.069	3.17
252.445	3.04
252.82	3.05
253.196	2.83
253.571	2.82
253.947	2.74
254.322	3.06
254.697	3.27
255.073	3.34
255.448	3.6
255.823	3.98
256.198	3.65
256.573	4.17
256.948	4.27
257.323	4.45
257.698	4.6
258.073	4.65
258.448	4.7
258.823	4.64
259.198	4.43
259.573	4.59
259.948	4.47
260.322	4.56
260.697	4.39
261.072	4.38
261.446	4.48
261.821	4.42
262.195	4.54
262.57	4.46
262.944	4.44
263.319	4.25
263.693	3.88
264.067	4.04
264.442	3.89
264.816	3.85
265.19	3.65
265.564	3.38
265.938	3.4
266.313	3.22
266.687	3.41
267.061	3.44
267.435	3.13
267.809	3.24
268.183	3.23
268.556	3.28
268.93	3.34
269.304	3.33
269.678	3.49
270.051	3.26
270.425	3.16
270.799	3.23
271.172	3.37
271.546	3.55
271.919	3.34
272.293	3.36
272.666	3.58
273.04	3.69
273.413	3.82
273.787	3.62
274.16	3.62
274.533	3.61
274.906	3.73
275.279	3.76
275.653	3.63
276.026	3.6
276.399	3.4
276.772	3.4
277.145	3.34
277.518	3.41
277.891	3.35
278.263	3.29
278.636	3.22
279.009	3.2
279.382	3.27
279.755	3.32
280.127	3.39
280.5	3.36
280.872	3.35
281.245	3.47
281.617	3.64
281.99	3.74
282.362	3.62
282.735	3.43
283.107	3.32
283.479	3.38
283.852	3.38
284.224	3.48
284.596	3.48
284.968	3.51
285.34	3.43
285.713	3.43
286.085	3.73
286.457	3.84
286.829	3.91
287.201	3.99
287.572	4.09
287.944	4.09
288.316	4.14
288.688	4.13
289.06	3.99
289.431	4.02
289.803	4.03
290.175	4.05
290.546	4.17
290.918	4.31
291.289	4.38
291.661	4.45
292.032	4.56
292.403	4.58
292.775	4.72
293.146	4.65
293.517	4.68
293.889	4.59
294.26	4.6
294.631	4.53
295.002	4.4
295.373	4.34
295.744	4.42
296.115	4.38
296.486	4.39
296.857	4.39
297.228	4.41
297.599	4.44
297.97	4.46
298.34	4.62
298.711	4.63
299.082	4.65
299.452	4.7
299.823	4.85
300.194	4.95
300.564	4.83
300.935	5.06
301.305	5.24
301.676	5.35
302.046	5.35
302.416	5.58
302.787	5.7
303.157	5.73
303.527	5.67
303.897	5.71
304.267	5.85
304.637	6.05
305.008	6.18
305.378	6.27
305.748	6.35
306.117	6.21
306.487	6.23
306.857	6.37
307.227	6.4
307.597	6.23
307.967	6.19
308.336	6.29
308.706	6.25
309.076	6.14
309.445	6.03
309.815	6
310.184	6.05
310.554	6.06
310.923	6.09
311.293	6.04
311.662	6.05
312.031	6.03
312.401	6
312.77	6.09
313.139	6.1
313.508	6.06
313.877	6.14
314.246	6.25
314.616	6.22
314.985	6.25
315.353	6.08
315.722	6.2
316.091	6.27
316.46	6.29
316.829	6.5
317.198	6.76
317.567	6.91
317.935	6.76
318.304	6.89
318.672	6.84
319.041	6.94
319.41	7.04
319.778	7.02
320.147	6.99
320.515	6.89
320.883	6.94
321.252	7.07
321.62	7.23
321.988	7.28
322.357	7.29
322.725	7.3
323.093	7.72
323.461	7.57
323.829	7.56
324.197	7.73
324.565	7.62
324.933	7.62
325.301	7.6
325.669	7.76
326.037	7.65
326.405	7.71
326.772	7.89
327.14	7.94
327.508	8.08
327.875	8.14
328.243	8.19
328.61	8.21
328.978	8.17
329.346	8.28
329.713	8.27
330.08	8.31
330.448	8.26
330.815	8.15
331.182	8.36
331.55	8.36
331.917	8.39
332.284	8.55
332.651	8.53
333.018	8.74
333.385	8.79
333.752	8.89
334.119	9.19
334.486	9.12
334.853	9.04
335.22	8.93
335.587	9.02
335.954	8.94
336.32	8.99
336.687	9.06
337.054	8.88
337.42	9.06
337.787	9.1
338.153	9.05
338.52	9.11
338.886	9.02
339.253	9.02
339.619	8.94
339.986	8.88
340.352	8.86
340.718	8.69
341.084	8.67
341.451	8.84
341.817	8.8
342.183	8.87
342.549	8.96
342.915	9.09
343.281	9.11
343.647	9.24
344.013	9.21
344.379	9.18
344.745	9.19
345.11	9.07
345.476	9.02
345.842	9.22
346.208	9.25
346.573	9.26
346.939	9.38
347.304	9.35
347.67	9.34
348.035	9.34
348.401	9.28
348.766	9.27
349.132	9.12
349.497	9.07
349.862	9.19
350.228	9.15
350.593	9.01
350.958	9.03
351.323	8.99
351.688	9.08
352.053	9.08
352.418	9.18
352.783	9.2
353.148	9.18
353.513	9.05
353.878	9.06
354.243	9.1
354.608	9.04
354.972	9.01
355.337	9.02
355.702	9.11
356.066	9.22
356.431	9.17
356.795	9.26
357.16	9.16
357.524	8.99
357.889	8.93
358.253	9
358.618	8.96
358.982	8.95
359.346	8.85
359.71	8.84
360.075	8.81
360.439	8.78
360.803	8.79
361.167	8.73
361.531	8.66
361.895	8.58
362.259	8.54
362.623	8.56
362.987	8.55
363.351	8.52
363.714	8.5
364.078	8.49
364.442	8.39
364.806	8.43
365.169	8.48
365.533	8.51
365.896	8.46
366.26	8.41
366.623	8.38
366.987	8.32
367.35	8.28
367.714	8.19
368.077	8.17
368.44	8.11
368.803	8.06
369.167	7.99
369.53	8.02
369.893	8.02
370.256	8.01
370.619	7.9
370.982	7.76
371.345	7.63
371.708	7.54
372.071	7.47
372.434	7.35
372.797	7.25
373.159	7.19
373.522	7.15
373.885	7.11
374.247	7.11
374.61	7.06
374.973	7.01
375.335	7
375.698	6.95
376.06	6.91
376.423	6.9
376.785	6.9
377.147	6.88
377.51	6.79
377.872	6.69
378.234	6.7
378.596	6.66
378.958	6.66
379.321	6.66
379.683	6.65
380.045	6.64
380.407	6.61
380.769	6.57
381.13	6.54
381.492	6.49
381.854	6.44
382.216	6.4
382.578	6.36
382.939	6.31
383.301	6.23
383.663	6.19
384.024	6.15
384.386	6.1
384.747	6.02
385.109	5.99
385.47	5.95
385.832	5.94
386.193	5.94
386.554	5.87
386.916	5.84
387.277	5.78
387.638	5.73
387.999	5.66
388.36	5.62
388.721	5.61
389.082	5.58
389.443	5.5
389.804	5.5
390.165	5.44
390.526	5.35
390.887	5.32
391.248	5.32
391.609	5.29
391.969	5.23
392.33	5.21
392.691	5.14
393.051	5.09
393.412	5.02
393.772	4.92
394.133	4.9
394.493	4.87
394.854	4.88
395.214	4.83
395.574	4.8
395.935	4.77
396.295	4.7
396.655	4.67
397.015	4.62
397.376	4.58
397.736	4.55
398.096	4.55
398.456	4.53
398.816	4.46
399.176	4.4
399.535	4.41
399.895	4.35
400.255	4.36
400.615	4.31
400.975	4.28
401.334	4.27
401.694	4.25
402.054	4.21
402.413	4.16
402.773	4.11
403.132	4.07
403.492	4.05
403.851	4.01
404.211	3.99
404.57	3.97
404.929	3.99
405.288	3.98
405.648	3.94
406.007	3.93
406.366	3.89
406.725	3.93
407.084	3.88
407.443	3.86
407.802	3.83
408.161	3.85
408.52	3.84
408.879	3.86
409.238	3.87
409.596	3.86
409.955	3.84
410.314	3.88
410.673	3.87
411.031	3.85
411.39	3.84
411.748	3.81
412.107	3.8
412.465	3.77
412.824	3.76
413.182	3.74
413.54	3.71
413.899	3.74
414.257	3.69
414.615	3.68
414.974	3.67
415.332	3.64
415.69	3.64
416.048	3.59
416.406	3.57
416.764	3.54
417.122	3.53
417.48	3.51
417.838	3.49
418.195	3.48
418.553	3.46
418.911	3.46
419.269	3.46
419.626	3.45
419.984	3.41
420.342	3.4
420.699	3.38
421.057	3.39
421.414	3.38
421.772	3.36
422.129	3.34
422.486	3.33
422.844	3.32
423.201	3.3
423.558	3.29
423.915	3.27
424.273	3.28
424.63	3.25
424.987	3.24
425.344	3.24
425.701	3.24
426.058	3.23
426.415	3.22
426.772	3.2
427.128	3.18
427.485	3.2
427.842	3.18
428.199	3.21
428.555	3.16
428.912	3.15
429.269	3.15
429.625	3.14
429.982	3.13
430.338	3.15
430.695	3.13
431.051	3.15
431.407	3.15
431.764	3.15
432.12	3.13
432.476	3.13
432.832	3.1
433.189	3.09
433.545	3.09
433.901	3.08
434.257	3.08
434.613	3.11
434.969	3.1
435.325	3.11
435.681	3.11
436.036	3.11
436.392	3.13
436.748	3.14
437.104	3.14
437.459	3.16
437.815	3.15
438.171	3.16
438.526	3.18
438.882	3.19
439.237	3.19
439.593	3.22
439.948	3.23
440.304	3.23
440.659	3.25
441.014	3.24
441.369	3.24
441.725	3.22
442.08	3.21
442.435	3.23
442.79	3.23
443.145	3.21
443.5	3.22
443.855	3.2
444.21	3.19
444.565	3.2
444.92	3.2
445.275	3.18
445.629	3.17
445.984	3.15
446.339	3.11
446.693	3.1
447.048	3.08
447.403	3.08
447.757	3.08
448.112	3.05
448.466	3.05
448.82	3.06
449.175	3.06
449.529	3.05
449.883	3.03
450.238	3
450.592	2.99
450.946	2.97
451.3	2.96
451.654	2.95
452.008	2.93
452.362	2.91
452.716	2.92
453.07	2.93
453.424	2.93
453.778	2.94
454.132	2.94
454.486	2.94
454.839	2.94
455.193	2.93
455.547	2.94
455.9	2.96
456.254	2.97
456.607	2.97
456.961	2.97
457.314	2.97
457.668	2.98
458.021	2.99
458.375	2.99
458.728	3
459.081	3.03
459.434	3.03
459.787	3.03
460.141	3.04
460.494	3.04
460.847	3.05
461.2	3.05
461.553	3.06
461.906	3.06
462.259	3.08
462.611	3.1
462.964	3.1
463.317	3.09
463.67	3.08
464.022	3.08
464.375	3.07
464.728	3.07
465.08	3.08
465.433	3.1
465.785	3.11
466.138	3.09
466.49	3.08
466.843	3.1
467.195	3.12
467.547	3.16
467.899	3.17
468.252	3.17
468.604	3.18
468.956	3.16
469.308	3.17
469.66	3.16
470.012	3.17
470.364	3.18
470.716	3.17
471.068	3.19
471.42	3.19
471.772	3.24
472.123	3.27
472.475	3.29
472.827	3.3
473.178	3.31
473.53	3.32
473.882	3.31
474.233	3.31
474.585	3.28
474.936	3.23
475.288	3.22
475.639	3.25
475.99	3.26
476.342	3.26
476.693	3.26
477.044	3.26
477.395	3.24
477.746	3.22
478.097	3.21
478.448	3.21
478.8	3.2
479.15	3.17
479.501	3.14
479.852	3.14
480.203	3.14
480.554	3.14
480.905	3.15
481.255	3.15
481.606	3.15
481.957	3.17
482.307	3.18
482.658	3.18
483.009	3.17
483.359	3.16
483.709	3.16
484.06	3.17
484.41	3.17
484.761	3.17
485.111	3.18
485.461	3.19
485.811	3.19
486.162	3.2
486.512	3.21
486.862	3.21
487.212	3.21
487.562	3.21
487.912	3.21
488.262	3.2
488.612	3.21
488.961	3.21
489.311	3.21
489.661	3.21
490.011	3.21
490.36	3.2
490.71	3.23
491.06	3.23
491.409	3.23
491.759	3.23
492.108	3.24
492.458	3.26
492.807	3.25
493.157	3.26
493.506	3.27
493.855	3.28
494.204	3.3
494.554	3.32
494.903	3.35
495.252	3.37
495.601	3.41
495.95	3.42
496.299	3.46
496.648	3.49
496.997	3.53
497.346	3.57
497.695	3.62
498.043	3.62
498.392	3.67
498.741	3.72
499.09	3.76
499.438	3.82
499.787	3.87
500.135	3.93
500.484	3.99
500.832	4.04
501.181	4.08
501.529	4.12
501.878	4.18
502.226	4.24
502.574	4.3
502.923	4.36
503.271	4.42
503.619	4.49
503.967	4.57
504.315	4.64
504.663	4.74
505.011	4.8
505.359	4.91
505.707	4.98
506.055	5.05
506.403	5.12
506.751	5.2
507.098	5.29
507.446	5.37
507.794	5.43
508.141	5.54
508.489	5.65
508.837	5.76
509.184	5.87
509.531	5.98
509.879	6.09
510.226	6.18
510.574	6.29
510.921	6.38
511.268	6.48
511.616	6.58
511.963	6.67
512.31	6.77
512.657	6.9
513.004	7.02
513.351	7.16
513.698	7.29
514.045	7.41
514.392	7.5
514.739	7.6
515.086	7.76
515.432	7.87
515.779	7.98
516.126	8.11
516.473	8.24
516.819	8.35
517.166	8.45
517.512	8.58
517.859	8.69
518.205	8.82
518.552	8.93
518.898	9.04
519.245	9.13
519.591	9.24
519.937	9.34
520.283	9.45
520.629	9.56
520.976	9.7
521.322	9.83
521.668	10
522.014	10.15
522.36	10.29
522.706	10.45
523.052	10.62
523.398	10.79
523.743	10.95
524.089	11.12
524.435	11.29
524.781	11.45
525.126	11.61
525.472	11.76
525.817	11.9
526.163	12.03
526.509	12.15
526.854	12.25
527.199	12.35
527.545	12.46
527.89	12.59
528.235	12.71
528.581	12.83
528.926	12.93
529.271	13.06
529.616	13.19
529.961	13.31
530.306	13.43
530.651	13.56
530.996	13.71
531.341	13.85
531.686	14.02
532.031	14.19
532.376	14.36
532.721	14.53
533.065	14.71
533.41	14.9
533.755	15.11
534.099	15.33
534.444	15.54
534.788	15.75
535.133	15.94
535.477	16.13
535.822	16.35
536.166	16.62
536.51	16.84
536.855	17.08
537.199	17.37
537.543	17.66
537.887	17.96
538.231	18.27
538.576	18.57
538.92	18.85
539.264	19.13
539.608	19.39
539.951	19.62
540.295	19.87
540.639	20.13
540.983	20.37
541.327	20.62
541.671	20.86
542.014	21.08
542.358	21.31
542.701	21.54
543.045	21.76
543.389	21.99
543.732	22.24
544.075	22.52
544.419	22.76
544.762	23.03
545.105	23.3
545.449	23.56
545.792	23.84
546.135	24.15
546.478	24.44
546.821	24.77
547.165	25.11
547.508	25.43
547.851	25.76
548.194	26.08
548.536	26.43
548.879	26.74
549.222	27.09
549.565	27.41
549.908	27.74
550.25	28.1
550.593	28.44
550.936	28.78
551.278	29.11
551.621	29.46
551.963	29.81
552.306	30.14
552.648	30.49
552.991	30.84
553.333	31.09
553.675	31.39
554.017	31.67
554.36	31.98
554.702	32.28
555.044	32.55
555.386	32.82
555.728	33.07
556.07	33.38
556.412	33.68
556.754	34.03
557.096	34.33
557.438	34.6
557.78	34.96
558.121	35.27
558.463	35.58
558.805	35.88
559.147	36.13
559.488	36.42
559.83	36.66
560.171	36.89
560.513	37.25
560.854	37.56
561.196	37.79
561.537	38.08
561.878	38.34
562.22	38.59
562.561	38.83
562.902	39.1
563.243	39.31
563.584	39.48
563.925	39.66
564.266	39.91
564.607	40.15
564.948	40.29
565.289	40.51
565.63	40.66
565.971	40.79
566.312	40.98
566.653	41.19
566.993	41.4
567.334	41.6
567.675	41.72
568.015	41.93
568.356	42.14
568.696	42.28
569.037	42.4
569.377	42.62
569.718	42.79
570.058	42.89
570.398	43.05
570.739	43.24
571.079	43.42
571.419	43.56
571.759	43.71
572.099	43.81
572.439	43.94
572.779	44.04
573.119	44.21
573.459	44.32
573.799	44.46
574.139	44.55
574.479	44.65
574.819	44.8
575.158	44.89
575.498	44.97
575.838	45.11
576.177	45.22
576.517	45.26
576.856	45.32
577.196	45.53
577.535	45.69
577.875	45.78
578.214	45.92
578.553	45.98
578.893	46.1
579.232	46.22
579.571	46.31
579.91	46.47
580.25	46.57
580.589	46.71
580.928	46.8
581.267	46.88
581.606	47
581.945	47.02
582.283	47.08
582.622	47.19
582.961	47.3
583.3	47.47
583.639	47.66
583.977	47.88
584.316	47.92
584.654	47.96
584.993	48.05
585.332	48.11
585.67	48.27
586.008	48.39
586.347	48.53
586.685	48.66
587.024	48.78
587.362	48.85
587.7	48.87
588.038	48.99
588.376	49.08
588.715	49.21
589.053	49.43
589.391	49.4
589.729	49.46
590.067	49.54
590.404	49.56
590.742	49.66
591.08	49.65
591.418	49.78
591.756	49.89
592.093	50.05
592.431	50.09
592.769	50.14
593.106	50.13
593.444	50.12
593.781	50.11
594.119	50.19
594.456	50.29
594.793	50.35
595.131	50.4
595.468	50.46
595.805	50.49
596.143	50.51
596.48	50.63
596.817	50.71
597.154	50.73
597.491	50.79
597.828	50.78
598.165	50.86
598.502	50.86
598.839	50.9
599.176	50.96
599.512	51
599.849	51.04
600.186	51.14
600.523	51.22
600.859	51.36
601.196	51.42
601.532	51.41
601.869	51.43
602.205	51.41
602.542	51.47
602.878	51.54
603.215	51.57
603.551	51.71
603.887	51.76
604.223	51.86
604.56	51.9
604.896	51.95
605.232	51.95
605.568	51.91
605.904	51.93
606.24	51.97
606.576	52.02
606.912	52.09
607.248	52.16
607.583	52.26
607.919	52.31
608.255	52.27
608.591	52.4
608.926	52.47
609.262	52.6
609.597	52.62
609.933	52.61
610.268	52.69
610.604	52.69
610.939	52.72
611.275	52.72
611.61	52.74
611.945	52.79
612.281	52.87
612.616	52.97
612.951	53.08
613.286	53.02
613.621	53.04
613.956	53.08
614.291	53.05
614.626	53
614.961	53.07
615.296	53.14
615.631	53.05
615.966	53.09
616.3	53.08
616.635	53.06
616.97	53.11
617.304	53.01
617.639	52.98
617.973	53.08
618.308	53.17
618.642	53.15
618.977	53.17
619.311	53.19
619.646	53.21
619.98	53.15
620.314	53.24
620.648	53.3
620.983	53.35
621.317	53.43
621.651	53.47
621.985	53.43
622.319	53.41
622.653	53.51
622.987	53.62
623.321	53.65
623.655	53.72
623.988	53.7
624.322	53.7
624.656	53.76
624.99	53.63
625.323	53.62
625.657	53.71
625.99	53.69
626.324	53.69
626.657	53.72
626.991	53.76
627.324	53.66
627.658	53.67
627.991	53.64
628.324	53.68
628.657	53.82
628.991	53.81
629.324	53.89
629.657	53.96
629.99	53.97
630.323	54.05
630.656	54.07
630.989	54.1
631.322	54.22
631.655	54.19
631.987	54.37
632.32	54.34
632.653	54.32
632.986	54.39
633.318	54.43
633.651	54.49
633.984	54.43
634.316	54.5
634.649	54.58
634.981	54.55
635.313	54.48
635.646	54.3
635.978	54.41
636.31	54.41
636.643	54.32
636.975	54.2
637.307	54.08
637.639	54.03
637.971	53.97
638.303	53.93
638.635	53.99
638.967	53.86
639.299	53.87
639.631	53.84
639.963	53.85
640.295	53.8
640.626	53.7
640.958	53.8
641.29	53.85
641.621	53.81
641.953	53.84
642.285	53.85
642.616	54.01
642.948	53.92
643.279	53.99
643.61	54.02
643.942	54.07
644.273	54.11
644.604	54.22
644.936	54.38
645.267	54.45
645.598	54.47
645.929	54.53
646.26	54.61
646.591	54.68
646.922	54.67
647.253	54.82
647.584	54.9
647.915	54.86
648.245	54.79
648.576	54.69
648.907	54.77
649.238	54.78
649.568	54.71
649.899	54.73
650.229	54.62
650.56	54.72
650.89	54.8
651.221	54.87
651.551	54.91
651.882	54.82
652.212	54.8
652.542	54.8
652.872	54.87
653.203	54.72
653.533	54.82
653.863	54.86
654.193	54.84
654.523	54.97
654.853	55.07
655.183	55.12
655.513	55.24
655.843	55.22
656.172	55.37
656.502	55.41
656.832	55.55
657.162	55.67
657.491	55.58
657.821	55.68
658.15	55.61
658.48	55.57
658.809	55.55
659.139	55.53
659.468	55.51
659.798	55.46
660.127	55.56
660.456	55.44
660.785	55.48
661.115	55.5
661.444	55.39
661.773	55.31
662.102	55.37
662.431	55.43
662.76	55.31
663.089	55.15
663.418	55.11
663.747	55.03
664.076	54.94
664.404	54.97
664.733	54.92
665.062	55.12
665.39	55.14
665.719	55.24
666.048	55.19
666.376	55.28
666.705	55.29
667.033	55.38
667.362	55.4
667.69	55.38
668.018	55.33
668.347	55.46
668.675	55.53
669.003	55.56
669.331	55.5
669.659	55.61
669.987	55.6
670.315	55.64
670.643	55.6
670.971	55.62
671.299	55.71
671.627	55.59
671.955	55.48
672.283	55.49
672.61	55.58
672.938	55.7
673.266	55.56
673.593	55.56
673.921	55.51
674.249	55.63
674.576	55.63
674.904	55.58
675.231	55.55
675.558	55.63
675.886	55.61
676.213	55.7
676.54	55.77
676.867	55.96
677.195	55.93
677.522	55.96
677.849	56
678.176	55.83
678.503	55.96
678.83	55.98
679.157	55.86
679.484	55.73
679.81	55.72
680.137	55.79
680.464	55.84
680.791	55.88
681.117	55.83
681.444	55.81
681.771	55.83
682.097	55.81
682.424	55.74
682.75	55.83
683.077	55.92
683.403	55.98
683.729	55.81
684.056	55.95
684.382	56
684.708	55.99
685.034	56.06
685.36	56
685.686	56.03
686.012	56.25
686.339	56.31
686.664	56.39
686.99	56.37
687.316	56.34
687.642	56.17
687.968	56.01
688.294	56.02
688.619	56.08
688.945	56.09
689.271	56.1
689.596	56.02
689.922	55.98
690.247	55.97
690.573	55.98
690.898	55.96
691.224	55.85
691.549	55.89
691.874	55.74
692.2	55.69
692.525	55.64
692.85	55.61
693.175	55.58
693.5	55.6
693.825	55.71
694.15	55.76
694.475	55.88
694.8	56.12
695.125	56.1
695.45	56.08
695.775	55.94
696.099	56.01
696.424	56.15
696.749	55.98
697.073	55.88
697.398	55.79
697.723	55.52
698.047	55.67
698.372	55.65
698.696	55.88
699.02	55.92
699.345	55.82
699.669	55.81
699.993	55.7
700.318	55.61
700.642	55.48
700.966	55.52
701.29	55.62
701.614	55.53
701.938	55.59
702.262	55.69
702.586	55.76
702.91	55.6
703.234	55.43
703.557	55.43
703.881	55.43
704.205	55.63
704.529	55.9
704.852	55.73
705.176	55.78
705.499	55.64
705.823	55.44
706.146	55.75
706.47	55.63
706.793	55.81
707.117	55.9
707.44	55.99
707.763	55.93
708.086	55.86
708.409	56.03
708.733	55.91
709.056	55.85
709.379	55.93
709.702	56.06
710.025	56.09
710.348	56.11
710.671	56.05
710.993	56.01
711.316	55.99
711.639	56.04
711.962	55.96
712.284	55.97
712.607	56.19
712.93	55.74
713.252	55.93
713.575	55.82
713.897	55.7
714.22	55.89
714.542	55.9
714.864	55.76
715.187	55.81
715.509	55.92
715.831	55.93
716.153	55.84
716.475	55.98
716.798	55.94
717.12	56.1
717.442	56.17
717.764	56.24
718.085	56.27
718.407	56.43
718.729	56.51
719.051	56.4
719.373	56.33
719.695	56.62
720.016	56.58
720.338	56.85
720.659	57
720.981	56.77
721.302	56.79
721.624	56.98
721.945	56.84
722.267	56.69
722.588	56.68
722.909	56.66
723.231	56.53
723.552	56.64
723.873	56.56
724.194	56.57
724.515	56.58
724.836	56.49
725.157	56.49
725.478	56.44
725.799	56.78
726.12	56.57
726.441	56.63
726.762	56.41
727.083	56.38
727.403	56.29
727.724	56.33
728.045	56.25
728.365	56.05
728.686	55.91
729.006	56.13
729.327	56.13
729.647	56.34
729.967	56.36
730.288	56.35
730.608	56.21
730.928	56.13
731.249	56.12
731.569	56.53
731.889	56.48
732.209	56.56
732.529	56.52
732.849	56.52
733.169	56.48
733.489	56.6
733.809	56.6
734.129	56.65
734.448	56.7
734.768	56.65
735.088	57.14
735.408	57.24
735.727	57.1
736.047	57.27
736.366	57.09
736.686	57.07
737.005	57.13
737.325	57.29
737.644	57.36
737.963	57.13
738.283	56.62
738.602	56.66
738.921	56.74
739.24	56.72
739.56	57.24
739.879	57.31
740.198	57.23
740.517	57.24
740.836	57.42
741.155	57.22
741.473	57.71
741.792	57.23
742.111	57.44
742.43	57.57
742.748	57.3
743.067	57.23
743.386	57.51
743.704	57.36
744.023	57.28
744.341	57.02
744.66	57.04
744.978	57.28
745.297	57.33
745.615	57.09
745.933	57.05
746.252	56.57
746.57	56.59
746.888	56.82
747.206	56.66
747.524	56.55
747.842	56.71
748.16	56.19
748.478	56.29
748.796	56.17
749.114	56.35
749.432	56.53
749.749	56.49
750.067	55.97
750.385	56.01
750.703	56.12
751.02	56.61
751.338	56.77
751.655	56.48
751.973	56.3
752.29	56.34
752.608	56.12
752.925	56.24
753.242	56.26
753.56	55.95
753.877	56.18
754.194	56.17
754.511	56.12
754.828	56.15
755.145	56.13
755.462	55.9
755.779	55.55
756.096	55.49
756.413	55.87
756.73	56.16
757.047	56.04
757.364	56.06
757.68	56.23
757.997	56.09
758.314	56.36
758.63	56.39
758.947	56.42
759.264	56.58
759.58	56.74
759.896	56.6
760.213	56.65
760.529	56.48
760.846	56.5
761.162	56.7
761.478	56.66
761.794	56.52
762.11	56.67
762.426	56.66
762.743	56.61
763.059	56.34
763.375	56.29
763.69	56.22
764.006	56.2
764.322	55.88
764.638	56.07
764.954	56.05
765.27	55.92
765.585	56.01
765.901	56.03
766.216	55.94
766.532	56.03
766.848	56.07
767.163	56.11
767.478	55.87
767.794	55.83
768.109	55.83
768.424	56.08
768.74	56.03
769.055	56.22
769.37	56.18
769.685	56.41
770	56.71
770.315	56.89
770.63	56.8
770.945	56.85
771.26	56.96
771.575	56.97
771.89	57.14
772.205	57.15
772.52	57.2
772.834	57.14
773.149	56.75
773.464	57.07
773.778	57.01
774.093	57.36
774.407	57.25
774.722	57.41
775.036	57.22
775.351	57.45
775.665	57.18
775.979	57.38
776.293	57.41
776.608	56.9
776.922	57.04
777.236	57.12
777.55	57.35
777.864	57.02
778.178	57.24
778.492	57.53
778.806	57.49
779.12	57.46
779.434	57.42
779.747	57.68
780.061	57.39
780.375	57.6
780.689	57.72
781.002	57.67
781.316	57.85
781.629	58
781.943	57.91
782.256	57.53
782.57	57.31
782.883	57.18
783.196	57.79
783.51	57.56
783.823	58.04
784.136	57.95
784.449	57.87
784.762	57.65
785.075	57.33
785.388	57
785.701	57.2
786.014	57.35
786.327	57.31
786.64	57.65
786.953	57.64
787.266	57.42
787.578	57.12
787.891	57.01
788.204	57.13
788.516	57.2
788.829	57.57
789.141	57.62
789.454	57.91
789.766	57.6
790.079	57.77
790.391	57.04
790.703	56.84
791.016	57.5
791.328	57.16
791.64	57.46
791.952	57.5
792.264	57.32
792.576	56.67
792.888	57.02
793.2	56.62
793.512	56.5
793.824	56.71
794.136	57.27
794.448	57.19
794.76	56.96
795.071	56.99
795.383	57.12
795.695	57.35
796.006	57.93
796.318	58.16
796.629	57.9
796.941	58.1
797.252	58.18
797.564	58.14
797.875	58.82
798.186	58.13
798.497	58.88
798.809	58.14
799.12	58.57
799.431	58.47
799.742	58.52
800.053	58.44
800.364	57.94
800.675	57.89
800.986	58.04
801.297	58.15
801.608	57.7
801.918	57.33
802.229	57.31
802.54	56.86
802.851	56.94
803.161	57.11
803.472	57.18
803.782	57.33
804.093	56.64
804.403	56.41
804.714	57.09
805.024	56.62
805.334	57.31
805.645	57.46
805.955	57.32
806.265	57.29
806.575	57.37
806.885	57.88
807.195	57.42
807.505	57.02
807.815	57.22
808.125	57.79
808.435	58.05
808.745	58.18
809.055	57.78
809.365	57.43
809.674	57.26
809.984	57.82
810.294	57.73
810.603	58.37
810.913	57.92
811.222	57.53
811.532	57.39
811.841	58.15
812.151	58.67
812.46	58.32
812.769	58.15
813.079	57.58
813.388	57.38
813.697	57.82
814.006	58.18
814.315	58.39
814.624	58.08
814.933	58.12
815.242	57.43
815.551	57.13
815.86	57.01
816.169	57.22
816.478	56.68
816.786	56.82
817.095	56.55
817.404	57.43
817.712	57.5
818.021	57.37
818.33	56.38
818.638	55.87
818.947	55.95
819.255	56.26
819.563	56.16
819.872	56.18
820.18	56.28
820.488	56.44
820.796	56.32
821.105	56.37
821.413	56.53
821.721	56.49
822.029	56.73
822.337	56.53
822.645	56.43
822.953	56.77
823.26	56.86
823.568	56.86
823.876	56.7
824.184	56.52
824.491	56.43
824.799	56.5
825.107	56.42
825.414	56.54
825.722	56.42
826.029	56.76
826.337	56.69
826.644	56.74
826.951	56.76
827.259	56.85
827.566	56.83
827.873	56.73
828.18	56.84
828.488	56.51
828.795	56.75
829.102	56.87
829.409	56.46
829.716	56.5
830.023	56.42
830.329	56.42
830.636	56.92
830.943	57.19
831.25	57.7
831.557	58.1
831.863	57.78
832.17	57.51
832.476	57.41
832.783	57.68
833.089	57.46
833.396	57.04
833.702	56.73
834.009	56.51
834.315	56.75
834.621	56.96
834.928	57.41
835.234	57.28
835.54	57.67
835.846	57.28
836.152	56.88
836.458	57.58
836.764	57.66
837.07	57.31
837.376	57.15
837.682	56.86
837.988	56.98
838.293	56.96
838.599	57.85
838.905	57.33
839.211	57.27
839.516	57.48
839.822	58.18
840.127	58.52
840.433	59.04
840.738	59.41
841.044	58.95
841.349	59
841.654	60.09
841.959	60.21
842.265	60.49
842.57	60.4
842.875	59.26
843.18	58.99
843.485	59.21
843.79	60.17
844.095	60.15
844.4	59.75
844.705	59.97
845.01	60.36
845.315	60.6
845.619	60.34
845.924	60.72
846.229	60.91
846.533	60.35
846.838	59.11
847.142	57.22
847.447	57.78
847.751	57.02
848.056	56.79
848.36	55.69
848.664	57.34
848.969	59.49
849.273	57.96
849.577	58.71
849.881	59.2
850.185	59.06
850.489	58.97
850.794	59.18
851.097	60.87
851.401	59.2
851.705	60.67
852.009	61.85
852.313	59.82
852.617	58.23
852.92	58.83
853.224	59.35
853.528	61.01
853.831	59.55
854.135	61.18
854.438	61.28
854.742	59.91
855.045	56.97
855.349	54.46
855.652	56.18
855.955	56.27
856.259	54.31
856.562	54.61
856.865	53.24
857.168	53.84
857.471	53.18
857.774	55.94
858.077	54.38
858.38	54.77
858.683	56.01
858.986	56.33
859.289	57.39
859.592	56.55
859.894	55.51
860.197	56.7
860.5	56.67
860.802	54.26
861.105	59.29
861.407	61.31
861.71	62.41
862.012	63.09
862.315	60.38
862.617	61.88
862.919	61.84
863.222	61.42
863.524	60.7
863.826	61.07
864.128	59.39
864.43	59.09
864.732	59.73
865.034	59.93
865.336	60.93
865.638	60.44
865.94	62.7
866.242	63.03
866.544	61.09
866.846	58.88
867.147	61
867.449	58.55
867.751	59.04
868.052	60
868.354	58.85
868.655	61.26
868.957	62.58
869.258	62.45
869.56	64.41
869.861	65.54
870.162	64.1
870.463	66.12
870.765	66.71
871.066	66.24
871.367	66.11
871.668	63.97
871.969	65.45
872.27	66.27
872.571	65.74
872.872	69.39
873.173	72.09
873.473	69.85
873.774	69.3
874.075	69.23
874.376	68.63
874.676	68.02
874.977	67.49
875.277	64.81
875.578	63.53
875.878	63.06
876.179	62.49
876.479	64.09
876.78	62.06
877.08	62.42
877.38	60.02
877.68	61.24
877.981	63.13
878.281	60.33
878.581	58.81
