Data from BU26842_Reflection_00003.txt Node
Date: Mon Nov 18 16:38:29 EST 2019
User: vgr7
Spectrometer: USB2G7710
Scans to average: 3
Trigger mode: 4
Integration Time (sec): 2.000000E-2
Electric dark correction enabled: true
Boxcar width: 10
XAxis mode: Wavelengths
Number of Pixels in Spectrum: 2048
>>>>>Begin Spectral Data<<<<<
177.721	-29.85
178.105	23.25
178.488	58.72
178.871	64.33
179.254	38.36
179.636	-40.33
180.019	154.89
180.402	27.91
180.785	-180.81
181.168	-103.58
181.55	-106.24
181.933	663.64
182.316	-1631.03
182.698	-1726.45
183.081	-616.92
183.463	-98.38
183.846	-102.08
184.228	-43.19
184.611	-92.96
184.993	-51.06
185.376	-125.39
185.758	-246.69
186.14	597.91
186.522	559.81
186.904	795.43
187.287	3996.55
187.669	-21.35
188.051	-39.88
188.433	1.03
188.815	14.76
189.197	11.28
189.579	-1.08
189.961	-2.15
190.342	-5.2
190.724	-6.31
191.106	-5.21
191.488	6.82
191.869	-13.28
192.251	-31.71
192.633	-55.78
193.014	-69.39
193.396	-75.05
193.777	-64.16
194.159	-67.03
194.54	-73.68
194.922	-67.17
195.303	-81.4
195.684	-75.87
196.065	-60.82
196.447	-68.52
196.828	-86.67
197.209	-78.23
197.59	-101.2
197.971	-98.56
198.352	-85.99
198.733	-109.03
199.114	-91.63
199.495	-88.89
199.876	-75.77
200.257	-58.64
200.638	-9.77
201.018	-6.3
201.399	2.33
201.78	-4
202.16	-4.5
202.541	-2.85
202.922	-31.32
203.302	-47.86
203.683	-105.15
204.063	-152.54
204.444	-146.18
204.824	-72.55
205.204	-49.91
205.585	-12.84
205.965	-7.69
206.345	-6.03
206.725	-20.25
207.106	-41.93
207.486	-102.03
207.866	-141.24
208.246	-91.61
208.626	-96.84
209.006	-65.6
209.386	-89.72
209.766	-73.23
210.145	-38.72
210.525	-17.52
210.905	-1.26
211.285	-1.81
211.664	-1.74
212.044	-3.6
212.424	-0.02
212.803	8.98
213.183	16.23
213.562	11.77
213.942	21.44
214.321	11.35
214.701	11.84
215.08	15.25
215.459	27.81
215.838	35.6
216.218	29.52
216.597	39.72
216.976	32.88
217.355	27.86
217.734	23.41
218.113	24.62
218.492	11.59
218.871	10.93
219.25	31.63
219.629	42.83
220.008	52.91
220.387	50.83
220.766	43.5
221.144	23.02
221.523	18.41
221.902	-1.6
222.28	-0.86
222.659	3.68
223.037	2.45
223.416	12.42
223.794	5.2
224.173	8.49
224.551	6.03
224.929	13.41
225.308	16.34
225.686	14.86
226.064	16.11
226.442	17.6
226.821	20.71
227.199	17.62
227.577	16.83
227.955	13.78
228.333	14.38
228.711	14.58
229.089	18.1
229.467	15.89
229.845	16.37
230.222	16.28
230.6	14.32
230.978	14.74
231.356	10.4
231.733	10.67
232.111	11.32
232.488	9.22
232.866	8.46
233.243	8.38
233.621	8.48
233.998	7.79
234.376	7.36
234.753	5.74
235.13	5.06
235.508	4.59
235.885	3.97
236.262	3.11
236.639	2.05
237.016	1.64
237.393	3.33
237.77	4.45
238.147	4.23
238.524	3.36
238.901	3.58
239.278	4.38
239.655	4.8
240.032	4.97
240.409	5.19
240.785	4.81
241.162	4.39
241.539	4.18
241.915	4.67
242.292	4.58
242.668	4.82
243.045	4.75
243.421	4.76
243.798	4.92
244.174	5.35
244.551	5.38
244.927	5.12
245.303	4.75
245.679	4.9
246.056	4.87
246.432	5.03
246.808	5.23
247.184	5.04
247.56	4.96
247.936	4.82
248.312	4.7
248.688	4.68
249.064	4.78
249.44	4.48
249.815	4.14
250.191	4.32
250.567	4.43
250.943	4.31
251.318	4.31
251.694	4.17
252.069	3.92
252.445	4.06
252.82	4.43
253.196	4.46
253.571	4.19
253.947	4.53
254.322	4.93
254.697	4.59
255.073	4.71
255.448	4.62
255.823	4.6
256.198	4.73
256.573	4.6
256.948	4.72
257.323	5.05
257.698	4.96
258.073	4.89
258.448	4.44
258.823	4.57
259.198	4.64
259.573	4.7
259.948	4.48
260.322	4.46
260.697	4.26
261.072	4.19
261.446	4.26
261.821	3.89
262.195	3.75
262.57	3.7
262.944	3.78
263.319	3.59
263.693	3.52
264.067	3.52
264.442	3.76
264.816	3.51
265.19	3.35
265.564	3.68
265.938	3.37
266.313	3.3
266.687	3.33
267.061	3.13
267.435	3.1
267.809	3.11
268.183	3.04
268.556	3.06
268.93	3.37
269.304	3.32
269.678	3.59
270.051	3.51
270.425	3.38
270.799	3.29
271.172	3.44
271.546	3.37
271.919	3.37
272.293	3.4
272.666	3.5
273.04	3.7
273.413	3.54
273.787	3.79
274.16	3.89
274.533	3.84
274.906	3.93
275.279	3.9
275.653	4
276.026	3.97
276.399	3.99
276.772	3.8
277.145	3.87
277.518	3.76
277.891	3.98
278.263	4.17
278.636	4.05
279.009	4.09
279.382	4.34
279.755	4.24
280.127	4.13
280.5	4.16
280.872	4.13
281.245	4.04
281.617	4.16
281.99	4.26
282.362	4.19
282.735	3.95
283.107	3.85
283.479	3.93
283.852	3.99
284.224	3.87
284.596	3.8
284.968	3.89
285.34	3.96
285.713	3.74
286.085	3.7
286.457	3.84
286.829	3.86
287.201	3.68
287.572	3.55
287.944	3.51
288.316	3.58
288.688	3.54
289.06	3.55
289.431	3.41
289.803	3.42
290.175	3.49
290.546	3.69
290.918	3.77
291.289	3.57
291.661	3.57
292.032	3.67
292.403	3.87
292.775	3.82
293.146	3.76
293.517	3.8
293.889	3.9
294.26	3.87
294.631	3.78
295.002	3.87
295.373	4.04
295.744	4.06
296.115	4.01
296.486	3.91
296.857	3.97
297.228	4.12
297.599	3.99
297.97	4.03
298.34	3.99
298.711	4.05
299.082	4.27
299.452	4.25
299.823	4.31
300.194	4.19
300.564	4.09
300.935	4.15
301.305	4.16
301.676	4.15
302.046	4.19
302.416	4.23
302.787	4.18
303.157	4.16
303.527	4.08
303.897	4.04
304.267	4.23
304.637	4.21
305.008	4.14
305.378	4.21
305.748	4.16
306.117	4.22
306.487	4.19
306.857	4.14
307.227	4.18
307.597	4.14
307.967	4.34
308.336	4.5
308.706	4.48
309.076	4.57
309.445	4.55
309.815	4.49
310.184	4.45
310.554	4.53
310.923	4.45
311.293	4.6
311.662	4.71
312.031	4.64
312.401	4.6
312.77	4.56
313.139	4.67
313.508	4.69
313.877	4.57
314.246	4.76
314.616	4.76
314.985	4.7
315.353	4.61
315.722	4.51
316.091	4.36
316.46	4.25
316.829	4.23
317.198	4.34
317.567	4.36
317.935	4.47
318.304	4.5
318.672	4.59
319.041	4.47
319.41	4.48
319.778	4.41
320.147	4.32
320.515	4.26
320.883	4.05
321.252	4.21
321.62	4.25
321.988	4.1
322.357	3.98
322.725	3.99
323.093	4.08
323.461	4.03
323.829	4.13
324.197	4.21
324.565	4.27
324.933	4.27
325.301	4.46
325.669	4.41
326.037	4.39
326.405	4.56
326.772	4.69
327.14	4.66
327.508	4.76
327.875	4.83
328.243	4.79
328.61	4.97
328.978	4.88
329.346	5.06
329.713	4.91
330.08	4.96
330.448	4.87
330.815	4.82
331.182	4.77
331.55	4.64
331.917	4.65
332.284	4.68
332.651	4.68
333.018	4.54
333.385	4.63
333.752	4.58
334.119	4.57
334.486	4.43
334.853	4.37
335.22	4.33
335.587	4.39
335.954	4.47
336.32	4.36
336.687	4.27
337.054	4.25
337.42	4.46
337.787	4.51
338.153	4.57
338.52	4.67
338.886	4.79
339.253	4.79
339.619	4.88
339.986	4.82
340.352	4.65
340.718	4.67
341.084	4.66
341.451	4.8
341.817	4.63
342.183	4.71
342.549	4.74
342.915	4.79
343.281	4.7
343.647	4.74
344.013	4.75
344.379	4.74
344.745	4.64
345.11	4.63
345.476	4.66
345.842	4.63
346.208	4.65
346.573	4.68
346.939	4.84
347.304	4.73
347.67	4.61
348.035	4.62
348.401	4.49
348.766	4.48
349.132	4.39
349.497	4.47
349.862	4.46
350.228	4.37
350.593	4.33
350.958	4.41
351.323	4.38
351.688	4.37
352.053	4.46
352.418	4.53
352.783	4.47
353.148	4.47
353.513	4.46
353.878	4.38
354.243	4.42
354.608	4.35
354.972	4.39
355.337	4.55
355.702	4.65
356.066	4.76
356.431	4.71
356.795	4.76
357.16	4.71
357.524	4.71
357.889	4.71
358.253	4.75
358.618	4.75
358.982	4.77
359.346	4.79
359.71	4.7
360.075	4.67
360.439	4.62
360.803	4.6
361.167	4.58
361.531	4.59
361.895	4.49
362.259	4.54
362.623	4.57
362.987	4.54
363.351	4.44
363.714	4.49
364.078	4.47
364.442	4.45
364.806	4.5
365.169	4.51
365.533	4.53
365.896	4.5
366.26	4.48
366.623	4.46
366.987	4.41
367.35	4.49
367.714	4.47
368.077	4.53
368.44	4.54
368.803	4.54
369.167	4.57
369.53	4.56
369.893	4.5
370.256	4.43
370.619	4.38
370.982	4.4
371.345	4.33
371.708	4.35
372.071	4.4
372.434	4.33
372.797	4.32
373.159	4.39
373.522	4.44
373.885	4.46
374.247	4.48
374.61	4.52
374.973	4.43
375.335	4.41
375.698	4.44
376.06	4.43
376.423	4.47
376.785	4.42
377.147	4.45
377.51	4.45
377.872	4.49
378.234	4.52
378.596	4.54
378.958	4.49
379.321	4.48
379.683	4.44
380.045	4.49
380.407	4.5
380.769	4.42
381.13	4.37
381.492	4.33
381.854	4.37
382.216	4.34
382.578	4.37
382.939	4.38
383.301	4.31
383.663	4.25
384.024	4.26
384.386	4.35
384.747	4.35
385.109	4.4
385.47	4.4
385.832	4.42
386.193	4.45
386.554	4.47
386.916	4.5
387.277	4.49
387.638	4.47
387.999	4.41
388.36	4.42
388.721	4.42
389.082	4.44
389.443	4.4
389.804	4.4
390.165	4.38
390.526	4.4
390.887	4.37
391.248	4.45
391.609	4.45
391.969	4.43
392.33	4.45
392.691	4.43
393.051	4.46
393.412	4.45
393.772	4.41
394.133	4.43
394.493	4.42
394.854	4.46
395.214	4.48
395.574	4.51
395.935	4.49
396.295	4.52
396.655	4.51
397.015	4.52
397.376	4.55
397.736	4.56
398.096	4.55
398.456	4.6
398.816	4.58
399.176	4.56
399.535	4.57
399.895	4.53
400.255	4.51
400.615	4.5
400.975	4.5
401.334	4.51
401.694	4.48
402.054	4.45
402.413	4.46
402.773	4.42
403.132	4.41
403.492	4.43
403.851	4.4
404.211	4.4
404.57	4.41
404.929	4.37
405.288	4.41
405.648	4.41
406.007	4.36
406.366	4.34
406.725	4.39
407.084	4.39
407.443	4.37
407.802	4.4
408.161	4.36
408.52	4.34
408.879	4.33
409.238	4.34
409.596	4.37
409.955	4.34
410.314	4.37
410.673	4.36
411.031	4.34
411.39	4.37
411.748	4.37
412.107	4.4
412.465	4.39
412.824	4.38
413.182	4.35
413.54	4.42
413.899	4.43
414.257	4.37
414.615	4.34
414.974	4.37
415.332	4.35
415.69	4.36
416.048	4.36
416.406	4.35
416.764	4.34
417.122	4.33
417.48	4.31
417.838	4.31
418.195	4.3
418.553	4.33
418.911	4.35
419.269	4.36
419.626	4.32
419.984	4.33
420.342	4.31
420.699	4.31
421.057	4.3
421.414	4.28
421.772	4.29
422.129	4.29
422.486	4.29
422.844	4.29
423.201	4.28
423.558	4.27
423.915	4.27
424.273	4.27
424.63	4.28
424.987	4.27
425.344	4.25
425.701	4.26
426.058	4.26
426.415	4.22
426.772	4.19
427.128	4.2
427.485	4.19
427.842	4.19
428.199	4.19
428.555	4.17
428.912	4.19
429.269	4.17
429.625	4.17
429.982	4.15
430.338	4.13
430.695	4.16
431.051	4.14
431.407	4.15
431.764	4.15
432.12	4.14
432.476	4.15
432.832	4.15
433.189	4.15
433.545	4.13
433.901	4.14
434.257	4.14
434.613	4.14
434.969	4.15
435.325	4.15
435.681	4.15
436.036	4.17
436.392	4.17
436.748	4.17
437.104	4.16
437.459	4.16
437.815	4.16
438.171	4.16
438.526	4.17
438.882	4.18
439.237	4.19
439.593	4.2
439.948	4.2
440.304	4.2
440.659	4.2
441.014	4.22
441.369	4.2
441.725	4.2
442.08	4.19
442.435	4.2
442.79	4.21
443.145	4.21
443.5	4.19
443.855	4.18
444.21	4.19
444.565	4.19
444.92	4.2
445.275	4.19
445.629	4.17
445.984	4.18
446.339	4.16
446.693	4.15
447.048	4.15
447.403	4.14
447.757	4.14
448.112	4.13
448.466	4.12
448.82	4.12
449.175	4.13
449.529	4.12
449.883	4.1
450.238	4.1
450.592	4.11
450.946	4.09
451.3	4.1
451.654	4.08
452.008	4.07
452.362	4.07
452.716	4.09
453.07	4.1
453.424	4.1
453.778	4.12
454.132	4.12
454.486	4.1
454.839	4.11
455.193	4.12
455.547	4.1
455.9	4.1
456.254	4.11
456.607	4.12
456.961	4.13
457.314	4.14
457.668	4.15
458.021	4.14
458.375	4.16
458.728	4.18
459.081	4.19
459.434	4.2
459.787	4.2
460.141	4.2
460.494	4.21
460.847	4.21
461.2	4.21
461.553	4.22
461.906	4.23
462.259	4.23
462.611	4.24
462.964	4.27
463.317	4.28
463.67	4.29
464.022	4.28
464.375	4.28
464.728	4.29
465.08	4.27
465.433	4.28
465.785	4.28
466.138	4.28
466.49	4.29
466.843	4.29
467.195	4.28
467.547	4.29
467.899	4.29
468.252	4.29
468.604	4.28
468.956	4.29
469.308	4.29
469.66	4.3
470.012	4.29
470.364	4.29
470.716	4.3
471.068	4.32
471.42	4.33
471.772	4.35
472.123	4.36
472.475	4.37
472.827	4.39
473.178	4.42
473.53	4.38
473.882	4.39
474.233	4.39
474.585	4.36
474.936	4.36
475.288	4.37
475.639	4.38
475.99	4.39
476.342	4.39
476.693	4.4
477.044	4.4
477.395	4.4
477.746	4.4
478.097	4.37
478.448	4.36
478.8	4.35
479.15	4.34
479.501	4.35
479.852	4.34
480.203	4.34
480.554	4.34
480.905	4.37
481.255	4.37
481.606	4.38
481.957	4.4
482.307	4.4
482.658	4.39
483.009	4.39
483.359	4.4
483.709	4.4
484.06	4.39
484.41	4.39
484.761	4.39
485.111	4.4
485.461	4.41
485.811	4.41
486.162	4.41
486.512	4.41
486.862	4.41
487.212	4.42
487.562	4.42
487.912	4.42
488.262	4.42
488.612	4.44
488.961	4.43
489.311	4.43
489.661	4.44
490.011	4.44
490.36	4.44
490.71	4.43
491.06	4.44
491.409	4.45
491.759	4.46
492.108	4.46
492.458	4.46
492.807	4.46
493.157	4.47
493.506	4.49
493.855	4.5
494.204	4.49
494.554	4.5
494.903	4.5
495.252	4.51
495.601	4.51
495.95	4.52
496.299	4.53
496.648	4.54
496.997	4.53
497.346	4.57
497.695	4.58
498.043	4.6
498.392	4.62
498.741	4.62
499.09	4.62
499.438	4.67
499.787	4.68
500.135	4.68
500.484	4.7
500.832	4.71
501.181	4.7
501.529	4.72
501.878	4.74
502.226	4.75
502.574	4.76
502.923	4.74
503.271	4.72
503.619	4.74
503.967	4.75
504.315	4.76
504.663	4.76
505.011	4.79
505.359	4.77
505.707	4.78
506.055	4.79
506.403	4.81
506.751	4.79
507.098	4.78
507.446	4.83
507.794	4.83
508.141	4.83
508.489	4.84
508.837	4.84
509.184	4.86
509.531	4.87
509.879	4.9
510.226	4.95
510.574	4.96
510.921	4.96
511.268	4.96
511.616	4.99
511.963	4.98
512.31	4.95
512.657	4.98
513.004	5
513.351	5.01
513.698	5
514.045	5.01
514.392	5.02
514.739	5
515.086	5
515.432	5.03
515.779	5.05
516.126	5.07
516.473	5.07
516.819	5.07
517.166	5.06
517.512	5.04
517.859	5.05
518.205	5.06
518.552	5.09
518.898	5.09
519.245	5.09
519.591	5.11
519.937	5.08
520.283	5.09
520.629	5.09
520.976	5.11
521.322	5.11
521.668	5.11
522.014	5.14
522.36	5.17
522.706	5.14
523.052	5.16
523.398	5.16
523.743	5.16
524.089	5.18
524.435	5.19
524.781	5.2
525.126	5.21
525.472	5.22
525.817	5.22
526.163	5.21
526.509	5.22
526.854	5.23
527.199	5.25
527.545	5.24
527.89	5.24
528.235	5.24
528.581	5.25
528.926	5.24
529.271	5.23
529.616	5.23
529.961	5.24
530.306	5.24
530.651	5.24
530.996	5.25
531.341	5.24
531.686	5.24
532.031	5.26
532.376	5.26
532.721	5.25
533.065	5.23
533.41	5.25
533.755	5.24
534.099	5.24
534.444	5.24
534.788	5.23
535.133	5.25
535.477	5.25
535.822	5.26
536.166	5.27
536.51	5.27
536.855	5.28
537.199	5.27
537.543	5.27
537.887	5.29
538.231	5.28
538.576	5.29
538.92	5.3
539.264	5.27
539.608	5.26
539.951	5.28
540.295	5.28
540.639	5.28
540.983	5.29
541.327	5.29
541.671	5.3
542.014	5.32
542.358	5.32
542.701	5.33
543.045	5.33
543.389	5.35
543.732	5.36
544.075	5.36
544.419	5.38
544.762	5.39
545.105	5.37
545.449	5.37
545.792	5.37
546.135	5.35
546.478	5.38
546.821	5.39
547.165	5.38
547.508	5.4
547.851	5.41
548.194	5.39
548.536	5.41
548.879	5.4
549.222	5.39
549.565	5.37
549.908	5.35
550.25	5.35
550.593	5.32
550.936	5.32
551.278	5.31
551.621	5.31
551.963	5.3
552.306	5.3
552.648	5.33
552.991	5.34
553.333	5.36
553.675	5.34
554.017	5.32
554.36	5.32
554.702	5.31
555.044	5.3
555.386	5.31
555.728	5.32
556.07	5.32
556.412	5.32
556.754	5.31
557.096	5.33
557.438	5.33
557.78	5.37
558.121	5.38
558.463	5.41
558.805	5.43
559.147	5.42
559.488	5.42
559.83	5.4
560.171	5.4
560.513	5.42
560.854	5.47
561.196	5.49
561.537	5.52
561.878	5.52
562.22	5.55
562.561	5.55
562.902	5.53
563.243	5.53
563.584	5.56
563.925	5.6
564.266	5.56
564.607	5.55
564.948	5.53
565.289	5.52
565.63	5.52
565.971	5.5
566.312	5.51
566.653	5.53
566.993	5.55
567.334	5.53
567.675	5.53
568.015	5.5
568.356	5.51
568.696	5.54
569.037	5.54
569.377	5.54
569.718	5.56
570.058	5.58
570.398	5.59
570.739	5.57
571.079	5.55
571.419	5.6
571.759	5.65
572.099	5.66
572.439	5.67
572.779	5.65
573.119	5.65
573.459	5.65
573.799	5.7
574.139	5.69
574.479	5.71
574.819	5.74
575.158	5.76
575.498	5.75
575.838	5.69
576.177	5.67
576.517	5.69
576.856	5.68
577.196	5.66
577.535	5.67
577.875	5.69
578.214	5.7
578.553	5.67
578.893	5.64
579.232	5.65
579.571	5.65
579.91	5.68
580.25	5.67
580.589	5.67
580.928	5.63
581.267	5.66
581.606	5.63
581.945	5.6
582.283	5.56
582.622	5.52
582.961	5.59
583.3	5.64
583.639	5.66
583.977	5.69
584.316	5.7
584.654	5.65
584.993	5.68
585.332	5.7
585.67	5.73
586.008	5.72
586.347	5.68
586.685	5.67
587.024	5.7
587.362	5.75
587.7	5.75
588.038	5.81
588.376	5.81
588.715	5.89
589.053	5.89
589.391	5.94
589.729	6.02
590.067	6
590.404	5.98
590.742	5.99
591.08	5.97
591.418	6
591.756	6.05
592.093	6.04
592.431	6.05
592.769	6.05
593.106	6.08
593.444	6.09
593.781	6.06
594.119	6.07
594.456	6.05
594.793	6.03
595.131	5.98
595.468	5.98
595.805	5.94
596.143	5.93
596.48	5.97
596.817	5.94
597.154	5.95
597.491	5.95
597.828	5.91
598.165	5.93
598.502	5.91
598.839	5.89
599.176	5.85
599.512	5.87
599.849	5.87
600.186	5.85
600.523	5.87
600.859	5.94
601.196	5.97
601.532	5.96
601.869	5.98
602.205	5.99
602.542	6.01
602.878	6
603.215	6
603.551	5.94
603.887	5.95
604.223	5.96
604.56	5.99
604.896	5.97
605.232	6
605.568	6
605.904	6
606.24	6.04
606.576	6.02
606.912	6.01
607.248	5.97
607.583	5.99
607.919	5.96
608.255	5.91
608.591	5.92
608.926	5.89
609.262	5.92
609.597	5.87
609.933	5.89
610.268	5.89
610.604	5.93
610.939	5.92
611.275	5.88
611.61	5.85
611.945	5.88
612.281	5.88
612.616	5.87
612.951	5.88
613.286	5.89
613.621	5.89
613.956	5.88
614.291	5.96
614.626	5.95
614.961	5.93
615.296	5.92
615.631	5.91
615.966	5.96
616.3	5.92
616.635	5.97
616.97	5.95
617.304	5.95
617.639	5.94
617.973	5.98
618.308	5.99
618.642	5.99
618.977	5.99
619.311	5.97
619.646	6.03
619.98	6.01
620.314	6.03
620.648	6.03
620.983	6.05
621.317	6.04
621.651	6.03
621.985	6.08
622.319	6.09
622.653	6.12
622.987	6.15
623.321	6.18
623.655	6.18
623.988	6.25
624.322	6.27
624.656	6.29
624.99	6.26
625.323	6.25
625.657	6.29
625.99	6.29
626.324	6.33
626.657	6.32
626.991	6.37
627.324	6.34
627.658	6.36
627.991	6.38
628.324	6.41
628.657	6.4
628.991	6.36
629.324	6.45
629.657	6.4
629.99	6.38
630.323	6.38
630.656	6.43
630.989	6.44
631.322	6.43
631.655	6.42
631.987	6.47
632.32	6.5
632.653	6.49
632.986	6.52
633.318	6.51
633.651	6.54
633.984	6.54
634.316	6.54
634.649	6.52
634.981	6.5
635.313	6.52
635.646	6.5
635.978	6.54
636.31	6.43
636.643	6.5
636.975	6.51
637.307	6.49
637.639	6.44
637.971	6.38
638.303	6.41
638.635	6.39
638.967	6.35
639.299	6.37
639.631	6.33
639.963	6.22
640.295	6.18
640.626	6.13
640.958	6.18
641.29	6.19
641.621	6.21
641.953	6.17
642.285	6.06
642.616	6.11
642.948	6.12
643.279	6.15
643.61	6.2
643.942	6.16
644.273	6.21
644.604	6.19
644.936	6.18
645.267	6.17
645.598	6.2
645.929	6.18
646.26	6.13
646.591	6.25
646.922	6.31
647.253	6.37
647.584	6.35
647.915	6.32
648.245	6.36
648.576	6.38
648.907	6.56
649.238	6.6
649.568	6.65
649.899	6.68
650.229	6.65
650.56	6.61
650.89	6.6
651.221	6.56
651.551	6.51
651.882	6.56
652.212	6.55
652.542	6.53
652.872	6.45
653.203	6.49
653.533	6.5
653.863	6.5
654.193	6.51
654.523	6.53
654.853	6.53
655.183	6.5
655.513	6.51
655.843	6.38
656.172	6.37
656.502	6.34
656.832	6.32
657.162	6.39
657.491	6.38
657.821	6.42
658.15	6.42
658.48	6.5
658.809	6.45
659.139	6.5
659.468	6.46
659.798	6.59
660.127	6.65
660.456	6.59
660.785	6.66
661.115	6.61
661.444	6.66
661.773	6.64
662.102	6.71
662.431	6.71
662.76	6.7
663.089	6.7
663.418	6.74
663.747	6.68
664.076	6.75
664.404	6.83
664.733	6.85
665.062	6.85
665.39	6.85
665.719	6.82
666.048	6.82
666.376	6.95
666.705	6.87
667.033	6.78
667.362	6.82
667.69	6.75
668.018	6.78
668.347	6.82
668.675	6.85
669.003	6.84
669.331	6.85
669.659	6.87
669.987	6.92
670.315	6.82
670.643	6.86
670.971	6.81
671.299	6.78
671.627	6.72
671.955	6.8
672.283	6.79
672.61	6.84
672.938	6.87
673.266	6.85
673.593	6.99
673.921	7.04
674.249	7.02
674.576	6.98
674.904	6.93
675.231	6.86
675.558	6.83
675.886	6.79
676.213	6.72
676.54	6.77
676.867	6.88
677.195	6.92
677.522	6.91
677.849	6.91
678.176	6.93
678.503	7
678.83	6.99
679.157	6.95
679.484	6.98
679.81	6.94
680.137	6.85
680.464	6.8
680.791	6.76
681.117	6.73
681.444	6.79
681.771	6.86
682.097	6.82
682.424	6.86
682.75	6.93
683.077	6.92
683.403	6.91
683.729	6.75
684.056	6.83
684.382	6.88
684.708	6.78
685.034	6.72
685.36	6.73
685.686	6.73
686.012	6.75
686.339	6.82
686.664	6.76
686.99	6.81
687.316	6.84
687.642	6.87
687.968	6.92
688.294	7
688.619	7.02
688.945	7.04
689.271	7.03
689.596	6.97
689.922	7.14
690.247	7.14
690.573	7.24
690.898	7.23
691.224	7.24
691.549	7.3
691.874	7.3
692.2	7.26
692.525	7.29
692.85	7.41
693.175	7.26
693.5	7.31
693.825	7.33
694.15	7.32
694.475	7.28
694.8	7.33
695.125	7.31
695.45	7.25
695.775	7.29
696.099	7.24
696.424	7.24
696.749	7.09
697.073	7.13
697.398	7.14
697.723	7.09
698.047	7.15
698.372	7.21
698.696	7.3
699.02	7.38
699.345	7.33
699.669	7.36
699.993	7.52
700.318	7.58
700.642	7.55
700.966	7.59
701.29	7.66
701.614	7.55
701.938	7.61
702.262	7.72
702.586	7.79
702.91	7.94
703.234	8.03
703.557	8.17
703.881	8.13
704.205	8.13
704.529	8.11
704.852	8.21
705.176	8.29
705.499	8.28
705.823	8.16
706.146	8.18
706.47	8.17
706.793	8.08
707.117	8.15
707.44	8.15
707.763	8.2
708.086	8.21
708.409	8.39
708.733	8.21
709.056	8.14
709.379	8.16
709.702	7.95
710.025	7.85
710.348	7.78
710.671	7.76
710.993	7.82
711.316	8.05
711.639	7.98
711.962	7.96
712.284	7.93
712.607	7.91
712.93	8
713.252	7.99
713.575	7.95
713.897	7.88
714.22	7.95
714.542	7.93
714.864	7.83
715.187	7.84
715.509	7.86
715.831	7.88
716.153	7.87
716.475	8.09
716.798	8.19
717.12	8.36
717.442	8.4
717.764	8.15
718.085	7.94
718.407	7.88
718.729	7.79
719.051	7.79
719.373	7.93
719.695	7.82
720.016	7.71
720.338	7.71
720.659	7.73
720.981	7.62
721.302	7.54
721.624	7.73
721.945	7.77
722.267	7.89
722.588	7.77
722.909	7.75
723.231	7.55
723.552	7.27
723.873	7.27
724.194	7.27
724.515	7.34
724.836	7.45
725.157	7.49
725.478	7.55
725.799	7.5
726.12	7.38
726.441	7.52
726.762	7.68
727.083	7.68
727.403	7.69
727.724	7.81
728.045	7.9
728.365	7.82
728.686	7.83
729.006	7.73
729.327	7.72
729.647	7.74
729.967	7.78
730.288	8.11
730.608	7.95
730.928	7.93
731.249	8.04
731.569	8.25
731.889	8.33
732.209	8.34
732.529	8.54
732.849	8.64
733.169	8.53
733.489	8.58
733.809	8.61
734.129	8.62
734.448	8.68
734.768	8.49
735.088	8.84
735.408	8.77
735.727	8.88
736.047	9.03
736.366	9
736.686	9.11
737.005	8.99
737.325	9.1
737.644	9.16
737.963	9.24
738.283	8.94
738.602	9.05
738.921	9.23
739.24	9.01
739.56	8.93
739.879	9.14
740.198	9.04
740.517	9.17
740.836	9.2
741.155	9.09
741.473	9.34
741.792	8.81
742.111	8.82
742.43	8.77
742.748	8.6
743.067	8.7
743.386	8.68
743.704	8.76
744.023	8.87
744.341	8.93
744.66	9.08
744.978	9.1
745.297	9.16
745.615	9.01
745.933	9.14
746.252	9.25
746.57	8.98
746.888	8.91
747.206	8.78
747.524	8.62
747.842	8.59
748.16	8.6
748.478	8.8
748.796	8.89
749.114	9.31
749.432	9.52
749.749	9.54
750.067	9.29
750.385	9.31
750.703	9.14
751.02	9.13
751.338	9.11
751.655	9.09
751.973	8.77
752.29	8.64
752.608	8.7
752.925	8.74
753.242	8.85
753.56	8.66
753.877	8.67
754.194	8.89
754.511	8.95
754.828	8.8
755.145	8.82
755.462	8.84
755.779	8.57
756.096	8.63
756.413	8.73
756.73	9.01
757.047	9.02
757.364	9.16
757.68	9.1
757.997	9.1
758.314	9.28
758.63	9.45
758.947	9.77
759.264	9.44
759.58	9.36
759.896	9.54
760.213	9.73
760.529	9.76
760.846	9.74
761.162	9.76
761.478	9.98
761.794	9.91
762.11	9.89
762.426	10.08
762.743	10.03
763.059	9.79
763.375	9.83
763.69	9.87
764.006	9.83
764.322	9.98
764.638	10.01
764.954	10.06
765.27	10.01
765.585	9.79
765.901	10.21
766.216	10.32
766.532	10.29
766.848	10.16
767.163	10.12
767.478	10.07
767.794	10.33
768.109	10.01
768.424	9.92
768.74	9.8
769.055	9.61
769.37	9.45
769.685	9.64
770	9.58
770.315	9.4
770.63	9.37
770.945	9.06
771.26	8.83
771.575	8.87
771.89	8.88
772.205	9.14
772.52	8.69
772.834	8.12
773.149	8.31
773.464	8.51
773.778	8.81
774.093	8.65
774.407	8.56
774.722	8.94
775.036	9.21
775.351	9.24
775.665	9.25
775.979	9.56
776.293	9.68
776.608	9.6
776.922	9.48
777.236	9.45
777.55	9.69
777.864	9.81
778.178	9.82
778.492	10.04
778.806	9.56
779.12	10.01
779.434	10.53
779.747	10.46
780.061	10.76
780.375	10.74
780.689	11
781.002	11.13
781.316	11.42
781.629	11.56
781.943	12.07
782.256	11.81
782.57	11.87
782.883	11.68
783.196	11.91
783.51	12.35
783.823	12.67
784.136	12.82
784.449	13
784.762	12.6
785.075	12.68
785.388	12.66
785.701	12.71
786.014	12.75
786.327	12.9
786.64	13.03
786.953	13.06
787.266	12.67
787.578	12.32
787.891	12.16
788.204	11.76
788.516	11.59
788.829	11.76
789.141	11.54
789.454	11.64
789.766	11.45
790.079	11.17
790.391	10.77
790.703	10.75
791.016	10.45
791.328	10.67
791.64	10.07
791.952	10.62
792.264	9.97
792.576	10.09
792.888	9.42
793.2	9.43
793.512	9.48
793.824	10.26
794.136	10.55
794.448	10.29
794.76	10.3
795.071	9.92
795.383	9.81
795.695	10.15
796.006	9.73
796.318	10.02
796.629	10.51
796.941	10.76
797.252	10.79
797.564	11.77
797.875	11.69
798.186	12.12
798.497	12
798.809	12.66
799.12	12.69
799.431	12.86
799.742	12.98
800.053	12.74
800.364	12.28
800.675	12.28
800.986	12.37
801.297	12.56
801.608	12.92
801.918	12.9
802.229	12.45
802.54	13.11
802.851	12.55
803.161	12.37
803.472	12.29
803.782	11.92
804.093	11.4
804.403	11.31
804.714	11.17
805.024	11.05
805.334	10.93
805.645	11.16
805.955	11.36
806.265	11.25
806.575	11.59
806.885	11.54
807.195	11.14
807.505	11.28
807.815	11.41
808.125	11.62
808.435	11.73
808.745	12.14
809.055	12.36
809.365	12.45
809.674	12.23
809.984	12.36
810.294	12.74
810.603	12.94
810.913	13.28
811.222	13.26
811.532	13.09
811.841	13
812.151	12.43
812.46	12.52
812.769	12.07
813.079	11.72
813.388	11.87
813.697	12.02
814.006	12.19
814.315	11.77
814.624	11.78
814.933	11.73
815.242	11.65
815.551	11.07
815.86	11.88
816.169	11.98
816.478	12.33
816.786	12.17
817.095	11.71
817.404	12.47
817.712	12.08
818.021	12.23
818.33	12.31
818.638	12.78
818.947	12.73
819.255	13.26
819.563	13.13
819.872	13.13
820.18	13.38
820.488	13.29
820.796	13.62
821.105	13.27
821.413	13.21
821.721	13.23
822.029	13.38
822.337	13.41
822.645	13.33
822.953	13.17
823.26	13.14
823.568	13.01
823.876	12.76
824.184	12.82
824.491	12.87
824.799	12.91
825.107	12.77
825.414	12.83
825.722	12.69
826.029	12.69
826.337	12.86
826.644	12.75
826.951	12.64
827.259	12.53
827.566	12.63
827.873	12.78
828.18	12.76
828.488	12.49
828.795	12.15
829.102	12.31
829.409	12.46
829.716	12.55
830.023	12.65
830.329	12.73
830.636	13.04
830.943	13.07
831.25	12.95
831.557	13.19
831.863	13.33
832.17	13.05
832.476	13.18
832.783	12.79
833.089	12.48
833.396	12.64
833.702	12.66
834.009	12.68
834.315	12.48
834.621	12.53
834.928	12.95
835.234	13.09
835.54	12.82
835.846	12.77
836.152	12.99
836.458	13.5
836.764	13.71
837.07	13.35
837.376	12.95
837.682	13.32
837.988	13.39
838.293	13.42
838.599	14.11
838.905	13.39
839.211	14.02
839.516	14.9
839.822	15.06
840.127	14.73
840.433	15.12
840.738	15.73
841.044	15.63
841.349	15.96
841.654	17.04
841.959	17.12
842.265	17.33
842.57	17.23
842.875	16.2
843.18	16.14
843.485	17.28
843.79	17.55
844.095	16.6
844.4	15.88
844.705	14.21
845.01	14.14
845.315	15.31
845.619	13.7
845.924	13.19
846.229	14.41
846.533	15.02
846.838	14.61
847.142	14.04
847.447	13.93
847.751	12.66
848.056	11.59
848.36	11.22
848.664	11.69
848.969	11.3
849.273	11.68
849.577	12.3
849.881	10.94
850.185	12.21
850.489	12.57
850.794	11.94
851.097	14.44
851.401	14.25
851.705	14.34
852.009	14.78
852.313	15.78
852.617	14.57
852.92	16.93
853.224	15.27
853.528	15.32
853.831	14.91
854.135	14.8
854.438	15.37
854.742	17.38
855.045	17.14
855.349	17.84
855.652	19.01
855.955	18.77
856.259	18.18
856.562	18.02
856.865	19.73
857.168	20.84
857.471	20.54
857.774	21.33
858.077	24.07
858.38	25.02
858.683	26.43
858.986	26.53
859.289	25.68
859.592	28.74
859.894	29.65
860.197	30.11
860.5	31.03
860.802	28.19
861.105	27.37
861.407	26.46
861.71	26.37
862.012	26.55
862.315	22.91
862.617	23.72
862.919	22.85
863.222	21.46
863.524	22.71
863.826	21.34
864.128	21.24
864.43	21.66
864.732	20.82
865.034	18.46
865.336	17.61
865.638	17.25
865.94	15.58
866.242	15.99
866.544	15.83
866.846	17.72
867.147	18.53
867.449	18.76
867.751	17.2
868.052	17.29
868.354	16.04
868.655	18.83
868.957	21.04
869.258	23.02
869.56	24.3
869.861	21.65
870.162	20.42
870.463	21.33
870.765	18.24
871.066	19.02
871.367	17.34
871.668	16.69
871.969	17.38
872.27	16.63
872.571	15.17
872.872	15.91
873.173	12.4
873.473	13.66
873.774	13.27
874.075	15.11
874.376	15.9
874.676	15.83
874.977	15.31
875.277	15.06
875.578	13.9
875.878	12.55
876.179	14.42
876.479	16.37
876.78	13.87
877.08	14.03
877.38	13.69
877.68	15.72
877.981	17.05
878.281	14.92
878.581	16.87
