Data from BU26941_Reflection_00013.txt Node
Date: Tue Nov 19 11:03:47 EST 2019
User: vgr7
Spectrometer: USB2G7710
Scans to average: 3
Trigger mode: 4
Integration Time (sec): 2.000000E-2
Electric dark correction enabled: true
Boxcar width: 10
XAxis mode: Wavelengths
Number of Pixels in Spectrum: 2048
>>>>>Begin Spectral Data<<<<<
177.721	-47.76
178.105	-24.37
178.488	-58.54
178.871	-105.41
179.254	-29.51
179.636	64.63
180.019	83.03
180.402	100
180.785	22.64
181.168	7350
181.55	-85.28
181.933	-1090.14
182.316	780.45
182.698	748.76
183.081	3113.51
183.463	-765.27
183.846	-912.61
184.228	1702.04
184.611	-183.97
184.993	-161.19
185.376	-353.76
185.758	-188.7
186.14	-250.63
186.522	-167.55
186.904	-171.43
187.287	-153.27
187.669	-166.96
188.051	-207.47
188.433	-269.08
188.815	-195.18
189.197	-183.96
189.579	-307.45
189.961	-292.35
190.342	-248.55
190.724	-418.28
191.106	-402.7
191.488	-356.3
191.869	-269.95
192.251	-288.69
192.633	-522.02
193.014	-521.81
193.396	-462.32
193.777	-287.95
194.159	-193.5
194.54	-148.41
194.922	-347.37
195.303	-454.05
195.684	-198.63
196.065	-204.42
196.447	-132.93
196.828	-105.61
197.209	-86.5
197.59	-50.9
197.971	-25.72
198.352	5.2
198.733	22.25
199.114	28.86
199.495	16.11
199.876	30.47
200.257	26.42
200.638	55.47
201.018	21.69
201.399	17.48
201.78	23.5
202.16	-6.36
202.541	-49.19
202.922	-49.23
203.302	-39.43
203.683	-58.72
204.063	-72.36
204.444	-91.26
204.824	-132.28
205.204	-104.79
205.585	-123.56
205.965	-238.91
206.345	-298.83
206.725	-164.2
207.106	-151.14
207.486	-151.3
207.866	-181.74
208.246	-101.38
208.626	-180.13
209.006	-207.98
209.386	-194.3
209.766	-379.59
210.145	-162.71
210.525	-107.46
210.905	-56.06
211.285	4.7
211.664	98.51
212.044	105.09
212.424	184.73
212.803	225.99
213.183	145.05
213.562	161.19
213.942	178.25
214.321	158.07
214.701	534.31
215.08	701.12
215.459	233.44
215.838	246.39
216.218	112.32
216.597	734.83
216.976	-505.26
217.355	-86400
217.734	255.5
218.113	451.49
218.492	1185.37
218.871	183.67
219.25	66.9
219.629	-14.7
220.008	-47.42
220.387	-27.52
220.766	-5.07
221.144	3.2
221.523	-1.22
221.902	-6.46
222.28	-8.14
222.659	13.26
223.037	16.31
223.416	12.69
223.794	22
224.173	25.16
224.551	18.6
224.929	12.81
225.308	7.36
225.686	9.86
226.064	3.99
226.442	6.7
226.821	6.95
227.199	5.75
227.577	4.34
227.955	6.78
228.333	4.28
228.711	1.18
229.089	-0.62
229.467	3.8
229.845	2.34
230.222	3.38
230.6	3.71
230.978	2.9
231.356	4.1
231.733	3.54
232.111	3.63
232.488	1.36
232.866	3.98
233.243	4.25
233.621	6.42
233.998	7.28
234.376	6.23
234.753	4.94
235.13	6.3
235.508	6.88
235.885	6.25
236.262	4.48
236.639	3.56
237.016	5.65
237.393	5.63
237.77	6.91
238.147	6.26
238.524	5.74
238.901	5.98
239.278	4.21
239.655	3.92
240.032	4.23
240.409	4.49
240.785	4.26
241.162	4.52
241.539	3.63
241.915	3.87
242.292	3.69
242.668	4.41
243.045	4.29
243.421	5.02
243.798	5.26
244.174	5.56
244.551	6.19
244.927	6.04
245.303	5.43
245.679	5.25
246.056	5.18
246.432	4.99
246.808	5.13
247.184	5.29
247.56	5.29
247.936	5.25
248.312	5.12
248.688	5.28
249.064	5.17
249.44	5.43
249.815	5.44
250.191	5.55
250.567	5.35
250.943	5.49
251.318	5.22
251.694	5.12
252.069	5
252.445	4.66
252.82	4.87
253.196	5.02
253.571	5.03
253.947	5.02
254.322	4.96
254.697	4.88
255.073	5.21
255.448	5
255.823	5.07
256.198	5.02
256.573	4.92
256.948	5.21
257.323	4.98
257.698	4.9
258.073	4.91
258.448	5.04
258.823	4.71
259.198	4.6
259.573	4.5
259.948	4.57
260.322	4.63
260.697	4.45
261.072	4.48
261.446	4.55
261.821	4.65
262.195	4.65
262.57	4.61
262.944	4.65
263.319	4.63
263.693	4.62
264.067	4.85
264.442	4.57
264.816	4.36
265.19	4.43
265.564	4.37
265.938	4.35
266.313	4.17
266.687	4.4
267.061	4.4
267.435	4.43
267.809	4.11
268.183	3.9
268.556	3.77
268.93	3.99
269.304	4.01
269.678	3.92
270.051	4.13
270.425	4.26
270.799	3.98
271.172	4.12
271.546	4.17
271.919	3.91
272.293	4.13
272.666	4.17
273.04	4.19
273.413	4.24
273.787	4.18
274.16	4.25
274.533	4.26
274.906	4.28
275.279	4.34
275.653	4.57
276.026	4.67
276.399	4.76
276.772	4.69
277.145	4.52
277.518	4.35
277.891	4.04
278.263	3.93
278.636	4.17
279.009	4.15
279.382	4.05
279.755	4.33
280.127	4.2
280.5	4.2
280.872	4.25
281.245	4.28
281.617	4.19
281.99	4.1
282.362	4.06
282.735	4.02
283.107	3.99
283.479	4.05
283.852	4.21
284.224	4.33
284.596	4.2
284.968	4.18
285.34	4.33
285.713	4.36
286.085	4.34
286.457	4.23
286.829	4.33
287.201	4.27
287.572	4.29
287.944	4.36
288.316	4.4
288.688	4.45
289.06	4.41
289.431	4.62
289.803	4.72
290.175	4.8
290.546	4.86
290.918	4.92
291.289	5.04
291.661	5.01
292.032	4.99
292.403	5.17
292.775	5.35
293.146	5.44
293.517	5.67
293.889	5.79
294.26	5.94
294.631	5.96
295.002	6.13
295.373	5.96
295.744	6.11
296.115	6.17
296.486	6.24
296.857	6.42
297.228	6.4
297.599	6.41
297.97	6.51
298.34	6.6
298.711	6.69
299.082	6.66
299.452	6.7
299.823	6.81
300.194	6.85
300.564	6.78
300.935	6.89
301.305	6.82
301.676	6.88
302.046	6.91
302.416	7.06
302.787	7.12
303.157	7.38
303.527	7.47
303.897	7.53
304.267	7.64
304.637	7.6
305.008	7.81
305.378	8.05
305.748	8.07
306.117	8.24
306.487	8.44
306.857	8.62
307.227	8.8
307.597	8.87
307.967	9.05
308.336	9.3
308.706	9.4
309.076	9.67
309.445	9.81
309.815	9.94
310.184	9.95
310.554	10.15
310.923	10.11
311.293	10.17
311.662	10.31
312.031	10.31
312.401	10.39
312.77	10.42
313.139	10.46
313.508	10.65
313.877	10.7
314.246	10.65
314.616	10.86
314.985	10.94
315.353	11.11
315.722	11.24
316.091	11.29
316.46	11.34
316.829	11.48
317.198	11.48
317.567	11.73
317.935	11.85
318.304	11.83
318.672	12.21
319.041	12.31
319.41	12.28
319.778	12.43
320.147	12.63
320.515	12.6
320.883	12.64
321.252	12.72
321.62	12.74
321.988	12.79
322.357	12.73
322.725	12.83
323.093	12.92
323.461	12.96
323.829	13.05
324.197	13.17
324.565	13.06
324.933	13.11
325.301	12.9
325.669	12.92
326.037	12.98
326.405	12.9
326.772	12.94
327.14	13.04
327.508	13.12
327.875	13.15
328.243	13.26
328.61	13.29
328.978	13.22
329.346	13.23
329.713	13.29
330.08	13.43
330.448	13.42
330.815	13.49
331.182	13.53
331.55	13.48
331.917	13.44
332.284	13.41
332.651	13.55
333.018	13.69
333.385	13.81
333.752	13.77
334.119	13.81
334.486	13.79
334.853	13.79
335.22	13.81
335.587	13.84
335.954	13.86
336.32	13.83
336.687	13.91
337.054	13.94
337.42	14.02
337.787	13.92
338.153	13.88
338.52	13.86
338.886	13.89
339.253	13.98
339.619	14
339.986	14.1
340.352	14.17
340.718	14.26
341.084	14.19
341.451	14.33
341.817	14.37
342.183	14.44
342.549	14.54
342.915	14.54
343.281	14.63
343.647	14.65
344.013	14.73
344.379	14.77
344.745	14.85
345.11	14.95
345.476	15.07
345.842	15.12
346.208	15.08
346.573	15.09
346.939	15.15
347.304	15.27
347.67	15.35
348.035	15.31
348.401	15.25
348.766	15.24
349.132	15.26
349.497	15.32
349.862	15.38
350.228	15.33
350.593	15.42
350.958	15.34
351.323	15.37
351.688	15.46
352.053	15.48
352.418	15.49
352.783	15.39
353.148	15.35
353.513	15.38
353.878	15.46
354.243	15.45
354.608	15.41
354.972	15.38
355.337	15.34
355.702	15.26
356.066	15.25
356.431	15.25
356.795	15.15
357.16	15.07
357.524	14.97
357.889	14.94
358.253	14.85
358.618	14.83
358.982	14.76
359.346	14.77
359.71	14.75
360.075	14.73
360.439	14.75
360.803	14.76
361.167	14.72
361.531	14.68
361.895	14.66
362.259	14.62
362.623	14.61
362.987	14.62
363.351	14.61
363.714	14.61
364.078	14.65
364.442	14.65
364.806	14.6
365.169	14.62
365.533	14.6
365.896	14.58
366.26	14.61
366.623	14.63
366.987	14.46
367.35	14.41
367.714	14.3
368.077	14.26
368.44	14.23
368.803	14.1
369.167	13.95
369.53	13.89
369.893	13.86
370.256	13.7
370.619	13.63
370.982	13.61
371.345	13.56
371.708	13.42
372.071	13.32
372.434	13.3
372.797	13.17
373.159	13.11
373.522	13.02
373.885	12.88
374.247	12.73
374.61	12.69
374.973	12.66
375.335	12.6
375.698	12.48
376.06	12.3
376.423	12.32
376.785	12.3
377.147	12.16
377.51	12.04
377.872	12.02
378.234	11.98
378.596	11.89
378.958	11.81
379.321	11.75
379.683	11.75
380.045	11.63
380.407	11.59
380.769	11.51
381.13	11.43
381.492	11.38
381.854	11.36
382.216	11.32
382.578	11.19
382.939	11.1
383.301	11.06
383.663	11.03
384.024	10.95
384.386	10.92
384.747	10.86
385.109	10.82
385.47	10.76
385.832	10.64
386.193	10.58
386.554	10.49
386.916	10.41
387.277	10.34
387.638	10.32
387.999	10.25
388.36	10.18
388.721	10.16
389.082	10.08
389.443	9.98
389.804	9.91
390.165	9.85
390.526	9.84
390.887	9.73
391.248	9.66
391.609	9.56
391.969	9.48
392.33	9.42
392.691	9.33
393.051	9.23
393.412	9.18
393.772	9.13
394.133	9.03
394.493	8.96
394.854	8.85
395.214	8.75
395.574	8.65
395.935	8.57
396.295	8.46
396.655	8.37
397.015	8.31
397.376	8.22
397.736	8.12
398.096	8.02
398.456	7.93
398.816	7.86
399.176	7.78
399.535	7.7
399.895	7.64
400.255	7.61
400.615	7.57
400.975	7.51
401.334	7.44
401.694	7.46
402.054	7.4
402.413	7.37
402.773	7.35
403.132	7.3
403.492	7.23
403.851	7.18
404.211	7.17
404.57	7.14
404.929	7.1
405.288	7.06
405.648	7.04
406.007	7.03
406.366	7.01
406.725	7
407.084	6.99
407.443	6.97
407.802	6.93
408.161	6.9
408.52	6.86
408.879	6.87
409.238	6.84
409.596	6.81
409.955	6.75
410.314	6.71
410.673	6.69
411.031	6.71
411.39	6.69
411.748	6.66
412.107	6.61
412.465	6.58
412.824	6.54
413.182	6.51
413.54	6.49
413.899	6.43
414.257	6.42
414.615	6.35
414.974	6.33
415.332	6.28
415.69	6.23
416.048	6.2
416.406	6.14
416.764	6.08
417.122	6.06
417.48	6.05
417.838	6.03
418.195	5.98
418.553	5.92
418.911	5.87
419.269	5.83
419.626	5.81
419.984	5.78
420.342	5.77
420.699	5.71
421.057	5.68
421.414	5.66
421.772	5.62
422.129	5.6
422.486	5.58
422.844	5.56
423.201	5.53
423.558	5.49
423.915	5.46
424.273	5.44
424.63	5.4
424.987	5.36
425.344	5.33
425.701	5.31
426.058	5.3
426.415	5.28
426.772	5.26
427.128	5.23
427.485	5.21
427.842	5.2
428.199	5.2
428.555	5.17
428.912	5.13
429.269	5.12
429.625	5.11
429.982	5.07
430.338	5.04
430.695	5.03
431.051	5.03
431.407	5.03
431.764	5.01
432.12	5.02
432.476	5.03
432.832	5.04
433.189	5.06
433.545	5.06
433.901	5.07
434.257	5.06
434.613	5.07
434.969	5.07
435.325	5.06
435.681	5.06
436.036	5.08
436.392	5.08
436.748	5.07
437.104	5.07
437.459	5.06
437.815	5.07
438.171	5.1
438.526	5.1
438.882	5.09
439.237	5.09
439.593	5.09
439.948	5.09
440.304	5.08
440.659	5.07
441.014	5.06
441.369	5.06
441.725	5.05
442.08	5.03
442.435	5.01
442.79	4.99
443.145	4.98
443.5	4.96
443.855	4.95
444.21	4.94
444.565	4.94
444.92	4.93
445.275	4.9
445.629	4.86
445.984	4.85
446.339	4.83
446.693	4.81
447.048	4.77
447.403	4.77
447.757	4.74
448.112	4.72
448.466	4.69
448.82	4.67
449.175	4.66
449.529	4.65
449.883	4.64
450.238	4.64
450.592	4.62
450.946	4.59
451.3	4.58
451.654	4.57
452.008	4.54
452.362	4.53
452.716	4.53
453.07	4.51
453.424	4.5
453.778	4.5
454.132	4.48
454.486	4.5
454.839	4.47
455.193	4.49
455.547	4.49
455.9	4.51
456.254	4.51
456.607	4.5
456.961	4.5
457.314	4.5
457.668	4.5
458.021	4.48
458.375	4.48
458.728	4.49
459.081	4.48
459.434	4.48
459.787	4.5
460.141	4.52
460.494	4.55
460.847	4.56
461.2	4.58
461.553	4.61
461.906	4.63
462.259	4.66
462.611	4.65
462.964	4.68
463.317	4.69
463.67	4.72
464.022	4.76
464.375	4.81
464.728	4.86
465.08	4.88
465.433	4.94
465.785	4.99
466.138	5.04
466.49	5.09
466.843	5.13
467.195	5.15
467.547	5.18
467.899	5.19
468.252	5.23
468.604	5.27
468.956	5.29
469.308	5.32
469.66	5.36
470.012	5.43
470.364	5.46
470.716	5.49
471.068	5.53
471.42	5.57
471.772	5.58
472.123	5.6
472.475	5.63
472.827	5.65
473.178	5.67
473.53	5.68
473.882	5.69
474.233	5.71
474.585	5.74
474.936	5.73
475.288	5.75
475.639	5.77
475.99	5.76
476.342	5.77
476.693	5.75
477.044	5.72
477.395	5.68
477.746	5.66
478.097	5.65
478.448	5.59
478.8	5.56
479.15	5.53
479.501	5.48
479.852	5.47
480.203	5.44
480.554	5.4
480.905	5.38
481.255	5.37
481.606	5.34
481.957	5.32
482.307	5.32
482.658	5.3
483.009	5.28
483.359	5.25
483.709	5.24
484.06	5.24
484.41	5.23
484.761	5.23
485.111	5.23
485.461	5.21
485.811	5.22
486.162	5.22
486.512	5.21
486.862	5.22
487.212	5.22
487.562	5.23
487.912	5.23
488.262	5.24
488.612	5.25
488.961	5.27
489.311	5.27
489.661	5.28
490.011	5.3
490.36	5.3
490.71	5.33
491.06	5.34
491.409	5.36
491.759	5.39
492.108	5.41
492.458	5.44
492.807	5.47
493.157	5.52
493.506	5.55
493.855	5.61
494.204	5.66
494.554	5.72
494.903	5.77
495.252	5.84
495.601	5.91
495.95	5.97
496.299	6.04
496.648	6.11
496.997	6.2
497.346	6.3
497.695	6.41
498.043	6.52
498.392	6.63
498.741	6.74
499.09	6.87
499.438	7
499.787	7.13
500.135	7.25
500.484	7.37
500.832	7.49
501.181	7.63
501.529	7.77
501.878	7.93
502.226	8.09
502.574	8.26
502.923	8.44
503.271	8.62
503.619	8.8
503.967	8.99
504.315	9.2
504.663	9.41
505.011	9.6
505.359	9.81
505.707	10
506.055	10.21
506.403	10.41
506.751	10.63
507.098	10.88
507.446	11.11
507.794	11.36
508.141	11.58
508.489	11.81
508.837	12.05
509.184	12.27
509.531	12.49
509.879	12.72
510.226	12.95
510.574	13.19
510.921	13.41
511.268	13.66
511.616	13.87
511.963	14.11
512.31	14.37
512.657	14.61
513.004	14.85
513.351	15.09
513.698	15.35
514.045	15.63
514.392	15.87
514.739	16.15
515.086	16.41
515.432	16.71
515.779	16.97
516.126	17.23
516.473	17.47
516.819	17.71
517.166	17.95
517.512	18.18
517.859	18.4
518.205	18.61
518.552	18.8
518.898	19
519.245	19.19
519.591	19.41
519.937	19.61
520.283	19.83
520.629	20.05
520.976	20.25
521.322	20.46
521.668	20.69
522.014	20.93
522.36	21.16
522.706	21.37
523.052	21.64
523.398	21.9
523.743	22.16
524.089	22.45
524.435	22.73
524.781	22.99
525.126	23.21
525.472	23.44
525.817	23.66
526.163	23.86
526.509	24.04
526.854	24.19
527.199	24.33
527.545	24.47
527.89	24.63
528.235	24.77
528.581	24.88
528.926	25.01
529.271	25.15
529.616	25.31
529.961	25.46
530.306	25.61
530.651	25.77
530.996	25.95
531.341	26.1
531.686	26.27
532.031	26.43
532.376	26.58
532.721	26.75
533.065	26.9
533.41	27.06
533.755	27.22
534.099	27.41
534.444	27.62
534.788	27.8
535.133	27.99
535.477	28.21
535.822	28.44
536.166	28.67
536.51	28.87
536.855	29.09
537.199	29.32
537.543	29.54
537.887	29.78
538.231	29.99
538.576	30.22
538.92	30.4
539.264	30.62
539.608	30.82
539.951	30.98
540.295	31.16
540.639	31.33
540.983	31.51
541.327	31.65
541.671	31.8
542.014	31.98
542.358	32.12
542.701	32.23
543.045	32.38
543.389	32.53
543.732	32.69
544.075	32.81
544.419	32.94
544.762	33.08
545.105	33.2
545.449	33.38
545.792	33.53
546.135	33.71
546.478	33.86
546.821	34.04
547.165	34.26
547.508	34.44
547.851	34.63
548.194	34.78
548.536	34.95
548.879	35.12
549.222	35.23
549.565	35.35
549.908	35.52
550.25	35.67
550.593	35.79
550.936	35.89
551.278	36.05
551.621	36.22
551.963	36.39
552.306	36.56
552.648	36.64
552.991	36.74
553.333	36.9
553.675	37.05
554.017	37.17
554.36	37.26
554.702	37.35
555.044	37.4
555.386	37.54
555.728	37.64
556.07	37.73
556.412	37.86
556.754	38.02
557.096	38.12
557.438	38.24
557.78	38.38
558.121	38.47
558.463	38.57
558.805	38.65
559.147	38.78
559.488	38.84
559.83	38.97
560.171	39.09
560.513	39.12
560.854	39.23
561.196	39.39
561.537	39.5
561.878	39.59
562.22	39.72
562.561	39.84
562.902	39.92
563.243	40.03
563.584	40.11
563.925	40.13
564.266	40.22
564.607	40.25
564.948	40.35
565.289	40.48
565.63	40.57
565.971	40.72
566.312	40.76
566.653	40.86
566.993	40.87
567.334	40.97
567.675	41.06
568.015	41.07
568.356	41.13
568.696	41.21
569.037	41.27
569.377	41.33
569.718	41.43
570.058	41.47
570.398	41.53
570.739	41.64
571.079	41.73
571.419	41.78
571.759	41.87
572.099	41.91
572.439	41.93
572.779	42.02
573.119	42.04
573.459	42.08
573.799	42.13
574.139	42.25
574.479	42.28
574.819	42.36
575.158	42.43
575.498	42.47
575.838	42.5
576.177	42.58
576.517	42.65
576.856	42.67
577.196	42.77
577.535	42.83
577.875	42.82
578.214	42.86
578.553	42.88
578.893	42.93
579.232	42.96
579.571	43.03
579.91	43.04
580.25	43.11
580.589	43.14
580.928	43.14
581.267	43.16
581.606	43.17
581.945	43.16
582.283	43.26
582.622	43.27
582.961	43.32
583.3	43.38
583.639	43.4
583.977	43.44
584.316	43.47
584.654	43.5
584.993	43.53
585.332	43.6
585.67	43.64
586.008	43.71
586.347	43.77
586.685	43.87
587.024	43.92
587.362	43.94
587.7	44.07
588.038	44.17
588.376	44.28
588.715	44.37
589.053	44.41
589.391	44.44
589.729	44.56
590.067	44.61
590.404	44.64
590.742	44.74
591.08	44.78
591.418	44.86
591.756	44.92
592.093	45.01
592.431	45.06
592.769	45.16
593.106	45.21
593.444	45.26
593.781	45.29
594.119	45.34
594.456	45.35
594.793	45.33
595.131	45.38
595.468	45.37
595.805	45.39
596.143	45.48
596.48	45.45
596.817	45.44
597.154	45.43
597.491	45.4
597.828	45.43
598.165	45.46
598.502	45.45
598.839	45.52
599.176	45.59
599.512	45.6
599.849	45.62
600.186	45.65
600.523	45.61
600.859	45.6
601.196	45.69
601.532	45.67
601.869	45.72
602.205	45.71
602.542	45.71
602.878	45.74
603.215	45.76
603.551	45.82
603.887	45.84
604.223	45.93
604.56	46.01
604.896	46.03
605.232	46.05
605.568	46.03
605.904	46.07
606.24	46.04
606.576	46.11
606.912	46.14
607.248	46.1
607.583	46.16
607.919	46.17
608.255	46.1
608.591	46.19
608.926	46.2
609.262	46.23
609.597	46.23
609.933	46.28
610.268	46.32
610.604	46.36
610.939	46.38
611.275	46.39
611.61	46.45
611.945	46.48
612.281	46.47
612.616	46.57
612.951	46.55
613.286	46.55
613.621	46.6
613.956	46.65
614.291	46.72
614.626	46.78
614.961	46.88
615.296	46.97
615.631	47.07
615.966	47.11
616.3	47.13
616.635	47.17
616.97	47.24
617.304	47.26
617.639	47.25
617.973	47.27
618.308	47.32
618.642	47.27
618.977	47.3
619.311	47.45
619.646	47.42
619.98	47.45
620.314	47.47
620.648	47.45
620.983	47.52
621.317	47.6
621.651	47.61
621.985	47.67
622.319	47.65
622.653	47.61
622.987	47.61
623.321	47.71
623.655	47.81
623.988	47.84
624.322	47.78
624.656	47.87
624.99	47.92
625.323	47.85
625.657	47.88
625.99	47.85
626.324	47.78
626.657	47.81
626.991	47.78
627.324	47.85
627.658	47.81
627.991	47.8
628.324	47.8
628.657	47.83
628.991	47.78
629.324	47.82
629.657	47.89
629.99	47.93
630.323	47.83
630.656	47.75
630.989	47.63
631.322	47.66
631.655	47.64
631.987	47.64
632.32	47.72
632.653	47.76
632.986	47.78
633.318	47.81
633.651	47.87
633.984	47.92
634.316	47.92
634.649	48.02
634.981	48.03
635.313	48.09
635.646	48.04
635.978	48.13
636.31	48.16
636.643	48.15
636.975	48.18
637.307	48.28
637.639	48.32
637.971	48.4
638.303	48.45
638.635	48.45
638.967	48.46
639.299	48.4
639.631	48.43
639.963	48.43
640.295	48.44
640.626	48.43
640.958	48.46
641.29	48.57
641.621	48.49
641.953	48.44
642.285	48.45
642.616	48.56
642.948	48.46
643.279	48.44
643.61	48.43
643.942	48.44
644.273	48.44
644.604	48.52
644.936	48.58
645.267	48.63
645.598	48.63
645.929	48.67
646.26	48.72
646.591	48.75
646.922	48.78
647.253	48.77
647.584	48.77
647.915	48.83
648.245	48.74
648.576	48.85
648.907	48.9
649.238	48.83
649.568	48.84
649.899	48.83
650.229	48.89
650.56	48.94
650.89	48.94
651.221	48.98
651.551	49.01
651.882	48.99
652.212	48.9
652.542	48.97
652.872	49
653.203	49.03
653.533	49.09
653.863	49.08
654.193	49.07
654.523	49.11
654.853	49.11
655.183	49.23
655.513	49.23
655.843	49.16
656.172	49.24
656.502	49.24
656.832	49.26
657.162	49.29
657.491	49.37
657.821	49.35
658.15	49.39
658.48	49.37
658.809	49.41
659.139	49.51
659.468	49.5
659.798	49.51
660.127	49.48
660.456	49.4
660.785	49.4
661.115	49.5
661.444	49.56
661.773	49.53
662.102	49.39
662.431	49.39
662.76	49.52
663.089	49.47
663.418	49.48
663.747	49.52
664.076	49.56
664.404	49.44
664.733	49.52
665.062	49.62
665.39	49.59
665.719	49.64
666.048	49.66
666.376	49.74
666.705	49.74
667.033	49.8
667.362	49.91
667.69	50
668.018	49.91
668.347	49.78
668.675	49.89
669.003	50.01
669.331	50.07
669.659	50.09
669.987	50.12
670.315	50.16
670.643	50.16
670.971	50.06
671.299	50.19
671.627	50.29
671.955	50.18
672.283	50.24
672.61	50.22
672.938	50.34
673.266	50.34
673.593	50.33
673.921	50.23
674.249	50.22
674.576	50.18
674.904	50.28
675.231	50.4
675.558	50.39
675.886	50.43
676.213	50.45
676.54	50.48
676.867	50.46
677.195	50.43
677.522	50.48
677.849	50.61
678.176	50.59
678.503	50.51
678.83	50.55
679.157	50.61
679.484	50.55
679.81	50.44
680.137	50.47
680.464	50.48
680.791	50.66
681.117	50.64
681.444	50.75
681.771	50.86
682.097	50.91
682.424	50.92
682.75	51.08
683.077	51
683.403	51.08
683.729	51.09
684.056	51.15
684.382	51.24
684.708	51.17
685.034	51.23
685.36	51.28
685.686	51.31
686.012	51.26
686.339	51.32
686.664	51.27
686.99	51.09
687.316	51.12
687.642	51.12
687.968	51.23
688.294	51.25
688.619	51.1
688.945	51.01
689.271	51
689.596	50.87
689.922	50.98
690.247	50.87
690.573	50.94
690.898	50.96
691.224	50.98
691.549	50.98
691.874	50.93
692.2	50.87
692.525	50.9
692.85	50.96
693.175	51.07
693.5	51.15
693.825	51.28
694.15	51.24
694.475	51.2
694.8	51.12
695.125	51.15
695.45	51.31
695.775	51.3
696.099	51.35
696.424	51.3
696.749	51.29
697.073	51.24
697.398	51.23
697.723	51.16
698.047	51.16
698.372	51.17
698.696	51.04
699.02	51.08
699.345	51.06
699.669	51.13
699.993	51.05
700.318	51.15
700.642	51.3
700.966	51.34
701.29	51.42
701.614	51.43
701.938	51.36
702.262	51.24
702.586	51.31
702.91	51.18
703.234	51.09
703.557	51.09
703.881	51.12
704.205	51.24
704.529	51.34
704.852	51.13
705.176	51.16
705.499	51.25
705.823	51.19
706.146	51.34
706.47	51.21
706.793	51.16
707.117	51.02
707.44	50.93
707.763	51.01
708.086	50.95
708.409	51
708.733	50.84
709.056	50.85
709.379	50.79
709.702	50.86
710.025	51.02
710.348	50.86
710.671	51.1
710.993	51.02
711.316	50.94
711.639	51.14
711.962	51.15
712.284	51.27
712.607	51.47
712.93	51.33
713.252	51.4
713.575	51.41
713.897	51.46
714.22	51.35
714.542	51.16
714.864	51.02
715.187	50.98
715.509	51.15
715.831	51.25
716.153	51.31
716.475	51.4
716.798	51.47
717.12	51.53
717.442	51.29
717.764	51.35
718.085	51.47
718.407	51.37
718.729	51.45
719.051	51.43
719.373	51.38
719.695	51.15
720.016	51.09
720.338	51.31
720.659	51.45
720.981	51.67
721.302	52.03
721.624	51.99
721.945	52
722.267	52.03
722.588	51.93
722.909	52.02
723.231	51.94
723.552	51.57
723.873	51.56
724.194	51.62
724.515	51.62
724.836	51.78
725.157	51.83
725.478	51.78
725.799	51.73
726.12	51.66
726.441	51.94
726.762	51.9
727.083	51.73
727.403	51.69
727.724	51.55
728.045	51.41
728.365	51.45
728.686	51.52
729.006	51.59
729.327	51.65
729.647	51.68
729.967	51.74
730.288	51.77
730.608	51.89
730.928	52.01
731.249	51.94
731.569	51.82
731.889	51.91
732.209	52
732.529	52.22
732.849	52.06
733.169	52.02
733.489	51.98
733.809	52.14
734.129	52.2
734.448	52.44
734.768	52.14
735.088	52.29
735.408	52.39
735.727	52.28
736.047	52.24
736.366	52.19
736.686	52.26
737.005	52.37
737.325	52.52
737.644	52.36
737.963	52.63
738.283	52.79
738.602	52.57
738.921	52.5
739.24	52.31
739.56	52.5
739.879	52.73
740.198	52.75
740.517	52.8
740.836	52.58
741.155	52.17
741.473	52.69
741.792	52.63
742.111	52.69
742.43	52.94
742.748	52.88
743.067	52.6
743.386	52.5
743.704	52.46
744.023	52.33
744.341	52.55
744.66	52.31
744.978	52.09
745.297	52.22
745.615	52.21
745.933	52.26
746.252	52.13
746.57	51.95
746.888	52.05
747.206	51.83
747.524	52.09
747.842	52.41
748.16	52.25
748.478	52.34
748.796	52.33
749.114	52.15
749.432	52.29
749.749	52.79
750.067	52.56
750.385	52.8
750.703	52.76
751.02	52.51
751.338	52.39
751.655	52.62
751.973	53.03
752.29	53.15
752.608	53.18
752.925	53.33
753.242	53.45
753.56	53.59
753.877	53.75
754.194	53.63
754.511	53.46
754.828	53.16
755.145	53.28
755.462	53.02
755.779	53.11
756.096	53.24
756.413	52.88
756.73	53.21
757.047	53.43
757.364	53.37
757.68	53.38
757.997	53.28
758.314	53.32
758.63	52.84
758.947	52.86
759.264	53.02
759.58	52.75
759.896	52.66
760.213	52.57
760.529	52.71
760.846	52.79
761.162	52.86
761.478	53.26
761.794	53.19
762.11	53.04
762.426	53.11
762.743	52.86
763.059	53.21
763.375	53.19
763.69	52.95
764.006	53.01
764.322	53.12
764.638	53.49
764.954	53.4
765.27	53.7
765.585	53.65
765.901	53.44
766.216	53.3
766.532	53.23
766.848	53.17
767.163	53
767.478	53.23
767.794	52.95
768.109	52.83
768.424	52.84
768.74	53.02
769.055	53.04
769.37	53.27
769.685	53.25
770	53.38
770.315	53.57
770.63	53.46
770.945	53.23
771.26	52.84
771.575	52.84
771.89	52.58
772.205	52.52
772.52	52.71
772.834	53.24
773.149	53.41
773.464	53.62
773.778	53.57
774.093	53.33
774.407	53.83
774.722	53.97
775.036	53.88
775.351	54.44
775.665	53.98
775.979	54.02
776.293	53.95
776.608	53.83
776.922	53.82
777.236	54.03
777.55	54.47
777.864	54.57
778.178	54.55
778.492	54.81
778.806	55.28
779.12	55.17
779.434	55.12
779.747	55.44
780.061	55.68
780.375	55.72
780.689	55.46
781.002	55.37
781.316	55.26
781.629	55.55
781.943	54.84
782.256	55.05
782.57	55.12
782.883	55.13
783.196	55.23
783.51	55.58
783.823	55.51
784.136	55.07
784.449	55.16
784.762	55.65
785.075	55.88
785.388	55.43
785.701	55.34
786.014	55.54
786.327	55.13
786.64	54.57
786.953	54.66
787.266	54.78
787.578	54.64
787.891	54.62
788.204	54.22
788.516	54.61
788.829	54.68
789.141	54.34
789.454	54.26
789.766	54.31
790.079	54.25
790.391	54.15
790.703	54.6
791.016	54.58
791.328	53.95
791.64	52.96
791.952	52.8
792.264	52.6
792.576	52.73
792.888	52.4
793.2	52.75
793.512	52.71
793.824	52.55
794.136	52.71
794.448	53.1
794.76	53.33
795.071	53.13
795.383	53.5
795.695	53.51
796.006	53.1
796.318	52.26
796.629	51.58
796.941	51.87
797.252	51.78
797.564	51.81
797.875	51.54
798.186	52.04
798.497	52.3
798.809	53.19
799.12	53.06
799.431	53.49
799.742	53.47
800.053	53
800.364	52.91
800.675	53.23
800.986	52.95
801.297	52.7
801.608	52.67
801.918	52.88
802.229	52.9
802.54	52.82
802.851	53.96
803.161	54.42
803.472	53.77
803.782	54.07
804.093	54.02
804.403	54.06
804.714	54.46
805.024	54.43
805.334	53.5
805.645	53.42
805.955	53.34
806.265	53.4
806.575	53.87
806.885	54.03
807.195	54.05
807.505	53.6
807.815	54.07
808.125	53.9
808.435	53.45
808.745	53.7
809.055	54.49
809.365	54.6
809.674	54.65
809.984	55.5
810.294	55.21
810.603	55.21
810.913	55.59
811.222	54.92
811.532	55.21
811.841	55.59
812.151	55.19
812.46	55.44
812.769	55.22
813.079	55.02
813.388	54.78
813.697	53.95
814.006	54.55
814.315	54.23
814.624	54.49
814.933	54.43
815.242	54.2
815.551	53.66
815.86	53.11
816.169	53
816.478	53
816.786	52.61
817.095	52.5
817.404	52.89
817.712	52.95
818.021	52.34
818.33	52.19
818.638	52.87
818.947	52.74
819.255	52.42
819.563	52.67
819.872	52.97
820.18	53.06
820.488	52.99
820.796	52.88
821.105	52.72
821.413	52.73
821.721	52.74
822.029	52.91
822.337	52.94
822.645	53.05
822.953	53.01
823.26	53.11
823.568	53.15
823.876	52.85
824.184	52.94
824.491	53.16
824.799	53.22
825.107	53.14
825.414	52.99
825.722	53.05
826.029	53.16
826.337	53.16
826.644	53.25
826.951	53.25
827.259	53.28
827.566	53.62
827.873	53.5
828.18	53.55
828.488	53.55
828.795	53.7
829.102	53.63
829.409	53.71
829.716	53.65
830.023	53.69
830.329	54.26
830.636	54.46
830.943	54.2
831.25	54.38
831.557	54.48
831.863	54.76
832.17	54.98
832.476	54.8
832.783	54.72
833.089	54.47
833.396	54.57
833.702	55.02
834.009	54.85
834.315	55.27
834.621	55.55
834.928	55.02
835.234	54.4
835.54	54.62
835.846	54.72
836.152	54.61
836.458	54.66
836.764	55.03
837.07	54.87
837.376	54.81
837.682	54.53
837.988	54.21
838.293	54.71
838.599	55.02
838.905	55.14
839.211	55.51
839.516	56.2
839.822	56.6
840.127	55.96
840.433	56.16
840.738	55.58
841.044	55.66
841.349	56.73
841.654	57.48
841.959	57.3
842.265	56.93
842.57	57.11
842.875	57.64
843.18	56.98
843.485	57.48
843.79	57.66
844.095	58.21
844.4	59.07
844.705	59.64
845.01	59.05
845.315	58.34
845.619	58.52
845.924	58.28
846.229	58.41
846.533	58.09
846.838	57.34
847.142	57.99
847.447	58.3
847.751	58.24
848.056	58.54
848.36	57.47
848.664	58.59
848.969	59.42
849.273	58.5
849.577	57.2
849.881	57.03
850.185	57.34
850.489	57.01
850.794	57.39
851.097	56.37
851.401	56.62
851.705	57.16
852.009	56.46
852.313	55.93
852.617	55.2
852.92	56.98
853.224	56.66
853.528	56.82
853.831	55.52
854.135	55.09
854.438	54.79
854.742	55.67
855.045	55.72
855.349	55.47
855.652	56.26
855.955	57.7
856.259	56.86
856.562	56.51
856.865	57.17
857.168	55.28
857.471	56.01
857.774	56.04
858.077	55.35
858.38	54.59
858.683	55.46
858.986	54.65
859.289	54.72
859.592	53.35
859.894	52.16
860.197	54.34
860.5	52.8
860.802	53.77
861.105	53.8
861.407	52.11
861.71	52.3
862.012	51.93
862.315	51.12
862.617	52.04
862.919	54
863.222	52.91
863.524	52.56
863.826	52.59
864.128	54.21
864.43	55.66
864.732	57.48
865.034	57.41
865.336	58.52
865.638	59.42
865.94	62.57
866.242	62.55
866.544	61.1
866.846	63.23
867.147	61.19
867.449	61.52
867.751	61.56
868.052	59.95
868.354	59.54
868.655	61.14
868.957	60.24
869.258	58.45
869.56	59.78
869.861	61.01
870.162	58.91
870.463	57.87
870.765	57.51
871.066	54.27
871.367	52.66
871.668	54.31
871.969	53.94
872.27	52.13
872.571	54.31
872.872	51.69
873.173	51.1
873.473	52.59
873.774	52.5
874.075	53.1
874.376	54.95
874.676	55.86
874.977	52.27
875.277	49.78
875.578	51.7
875.878	50.64
876.179	51.2
876.479	52.29
876.78	51.2
877.08	51.65
877.38	54.52
877.68	56.02
877.981	52.3
878.281	50.54
878.581	51.61
