Data from BU26848_Reflection_00003.txt Node
Date: Mon Nov 18 16:25:29 EST 2019
User: vgr7
Spectrometer: USB2G7710
Scans to average: 3
Trigger mode: 4
Integration Time (sec): 2.000000E-2
Electric dark correction enabled: true
Boxcar width: 10
XAxis mode: Wavelengths
Number of Pixels in Spectrum: 2048
>>>>>Begin Spectral Data<<<<<
177.721	-56.12
178.105	-134.04
178.488	-104.9
178.871	42.43
179.254	147.34
179.636	332.14
180.019	30.39
180.402	308.33
180.785	4193.02
181.168	352.66
181.55	620.55
181.933	113.79
182.316	76.66
182.698	49.55
183.081	42.59
183.463	49.88
183.846	54.91
184.228	93.15
184.611	194.42
184.993	250.85
185.376	-1028.4
185.758	-817.93
186.14	-2388.55
186.522	1328.22
186.904	2100
187.287	1118.47
187.669	-1922.35
188.051	2596.24
188.433	-638.9
188.815	-263.81
189.197	-135.55
189.579	-175.75
189.961	-95.78
190.342	-144.66
190.724	-95.38
191.106	-107.47
191.488	-106.94
191.869	-105.5
192.251	-136.85
192.633	-124.69
193.014	-97.39
193.396	-159.55
193.777	-197.41
194.159	-200.27
194.54	-95.56
194.922	-79.05
195.303	-74.98
195.684	-88.44
196.065	-87.35
196.447	-69.78
196.828	-102.14
197.209	-168.42
197.59	-209.64
197.971	-427.15
198.352	-88.33
198.733	-208.91
199.114	-106.86
199.495	-77.44
199.876	-93.01
200.257	-99.94
200.638	-83.88
201.018	-88.52
201.399	-61.01
201.78	-42.75
202.16	-31.81
202.541	-111.14
202.922	-145.58
203.302	-126.87
203.683	-199.63
204.063	-199.6
204.444	-239.86
204.824	-173.1
205.204	-111.72
205.585	-97.15
205.965	-81.63
206.345	-198.97
206.725	-172.52
207.106	-342.04
207.486	-1047.75
207.866	-336.48
208.246	-617.16
208.626	-543.95
209.006	-584.89
209.386	-1253.42
209.766	-1208.92
210.145	-579.2
210.525	-278.93
210.905	-168.01
211.285	-195.9
211.664	-130.05
212.044	-125.28
212.424	-135.74
212.803	-144.72
213.183	-145.73
213.562	-126.14
213.942	-92.39
214.321	-90.59
214.701	-84.94
215.08	-74.92
215.459	-59.42
215.838	-70.06
216.218	-64.71
216.597	-46.33
216.976	-50.61
217.355	-50.87
217.734	-38.12
218.113	-38.41
218.492	-38.76
218.871	-45.21
219.25	-32.45
219.629	-41.16
220.008	-38.42
220.387	-35.81
220.766	-37.44
221.144	-53.65
221.523	-58.15
221.902	-71.09
222.28	-59.61
222.659	-37.44
223.037	-34.67
223.416	-38.95
223.794	-26.73
224.173	-30.49
224.551	-24.46
224.929	-21.77
225.308	-15.89
225.686	-15.47
226.064	-16.27
226.442	-13.3
226.821	-8.53
227.199	-12.64
227.577	-11.21
227.955	-15.36
228.333	-9.83
228.711	-6.12
229.089	-1.59
229.467	-3.15
229.845	-3.72
230.222	-0.51
230.6	-5.85
230.978	-6.75
231.356	-4.24
231.733	-4.49
232.111	-2.99
232.488	-2.41
232.866	-1.4
233.243	-1.25
233.621	-1.13
233.998	0.56
234.376	-0.51
234.753	-1.09
235.13	0.36
235.508	1.68
235.885	2.45
236.262	-0.12
236.639	0.16
237.016	-0.15
237.393	1.84
237.77	2.03
238.147	1.92
238.524	2.26
238.901	2.36
239.278	2.56
239.655	3.24
240.032	3.21
240.409	2.5
240.785	2.01
241.162	1.96
241.539	2.33
241.915	2.14
242.292	2.12
242.668	2.43
243.045	2.41
243.421	2.33
243.798	2.44
244.174	2.49
244.551	2.35
244.927	2.36
245.303	2.43
245.679	2.46
246.056	2.27
246.432	2.58
246.808	2.79
247.184	2.46
247.56	2.33
247.936	2.39
248.312	2.53
248.688	2.61
249.064	2.64
249.44	2.43
249.815	2.4
250.191	2.82
250.567	2.84
250.943	2.75
251.318	2.88
251.694	2.88
252.069	2.94
252.445	3.22
252.82	3.14
253.196	3.05
253.571	3.06
253.947	3.29
254.322	3.15
254.697	3.02
255.073	3.26
255.448	2.98
255.823	2.77
256.198	2.92
256.573	3.03
256.948	3.22
257.323	3.33
257.698	3.16
258.073	2.8
258.448	2.74
258.823	2.81
259.198	2.71
259.573	2.7
259.948	2.63
260.322	2.34
260.697	2.48
261.072	2.38
261.446	2.38
261.821	2.34
262.195	2.29
262.57	2.32
262.944	2.26
263.319	2.18
263.693	2.24
264.067	2.14
264.442	2.24
264.816	1.99
265.19	1.92
265.564	2
265.938	1.99
266.313	1.85
266.687	1.84
267.061	1.96
267.435	1.92
267.809	1.8
268.183	2
268.556	1.9
268.93	1.9
269.304	1.96
269.678	1.94
270.051	1.9
270.425	1.85
270.799	1.92
271.172	1.98
271.546	1.97
271.919	1.79
272.293	1.83
272.666	1.95
273.04	2
273.413	1.96
273.787	1.99
274.16	1.96
274.533	2.11
274.906	2
275.279	2.01
275.653	2.22
276.026	2.22
276.399	2.23
276.772	2.35
277.145	2.16
277.518	2.17
277.891	2.3
278.263	2.19
278.636	2.22
279.009	2.34
279.382	2.64
279.755	2.71
280.127	2.74
280.5	2.71
280.872	2.64
281.245	2.77
281.617	2.72
281.99	2.94
282.362	2.74
282.735	2.74
283.107	2.77
283.479	2.74
283.852	2.7
284.224	2.66
284.596	2.61
284.968	2.78
285.34	2.9
285.713	2.77
286.085	2.96
286.457	2.93
286.829	2.93
287.201	2.71
287.572	2.74
287.944	2.7
288.316	2.79
288.688	2.71
289.06	2.67
289.431	2.8
289.803	2.74
290.175	2.89
290.546	2.96
290.918	2.95
291.289	2.93
291.661	3.06
292.032	3.15
292.403	3.23
292.775	3.25
293.146	3.01
293.517	3.05
293.889	2.95
294.26	3
294.631	2.88
295.002	3
295.373	2.99
295.744	2.82
296.115	2.67
296.486	2.69
296.857	2.66
297.228	2.64
297.599	2.59
297.97	2.46
298.34	2.41
298.711	2.52
299.082	2.5
299.452	2.42
299.823	2.47
300.194	2.43
300.564	2.32
300.935	2.39
301.305	2.44
301.676	2.51
302.046	2.54
302.416	2.66
302.787	2.66
303.157	2.6
303.527	2.6
303.897	2.71
304.267	2.87
304.637	2.92
305.008	2.94
305.378	3.07
305.748	3.17
306.117	3.08
306.487	3.03
306.857	3.11
307.227	3.09
307.597	2.99
307.967	3
308.336	3.09
308.706	3.17
309.076	2.98
309.445	2.93
309.815	2.84
310.184	2.75
310.554	2.72
310.923	2.84
311.293	2.87
311.662	2.74
312.031	2.65
312.401	2.68
312.77	2.63
313.139	2.58
313.508	2.61
313.877	2.52
314.246	2.47
314.616	2.43
314.985	2.35
315.353	2.23
315.722	2.28
316.091	2.11
316.46	2.05
316.829	2.22
317.198	2.31
317.567	2.25
317.935	2.41
318.304	2.33
318.672	2.16
319.041	2.27
319.41	2.35
319.778	2.33
320.147	2.31
320.515	2.33
320.883	2.29
321.252	2.21
321.62	2.35
321.988	2.31
322.357	2.27
322.725	2.29
323.093	2.51
323.461	2.4
323.829	2.49
324.197	2.47
324.565	2.51
324.933	2.49
325.301	2.56
325.669	2.5
326.037	2.48
326.405	2.63
326.772	2.68
327.14	2.71
327.508	2.78
327.875	2.63
328.243	2.66
328.61	2.65
328.978	2.63
329.346	2.73
329.713	2.74
330.08	2.76
330.448	2.82
330.815	2.58
331.182	2.66
331.55	2.6
331.917	2.69
332.284	2.63
332.651	2.53
333.018	2.61
333.385	2.66
333.752	2.8
334.119	2.74
334.486	2.65
334.853	2.6
335.22	2.58
335.587	2.66
335.954	2.66
336.32	2.68
336.687	2.7
337.054	2.69
337.42	2.67
337.787	2.67
338.153	2.74
338.52	2.82
338.886	2.69
339.253	2.69
339.619	2.63
339.986	2.66
340.352	2.66
340.718	2.54
341.084	2.45
341.451	2.42
341.817	2.43
342.183	2.44
342.549	2.54
342.915	2.61
343.281	2.59
343.647	2.55
344.013	2.59
344.379	2.6
344.745	2.59
345.11	2.61
345.476	2.65
345.842	2.55
346.208	2.64
346.573	2.71
346.939	2.81
347.304	2.81
347.67	2.75
348.035	2.76
348.401	2.83
348.766	2.89
349.132	2.86
349.497	2.81
349.862	2.9
350.228	2.79
350.593	2.67
350.958	2.65
351.323	2.82
351.688	2.77
352.053	2.7
352.418	2.71
352.783	2.7
353.148	2.68
353.513	2.76
353.878	2.79
354.243	2.86
354.608	2.79
354.972	2.85
355.337	2.97
355.702	3.04
356.066	3.06
356.431	3.06
356.795	3.09
357.16	3.06
357.524	3
357.889	3.03
358.253	3.15
358.618	3.16
358.982	3.03
359.346	3.04
359.71	3.05
360.075	3.01
360.439	3.08
360.803	3.06
361.167	3.04
361.531	2.96
361.895	2.92
362.259	2.91
362.623	2.85
362.987	2.81
363.351	2.81
363.714	2.8
364.078	2.81
364.442	2.76
364.806	2.76
365.169	2.81
365.533	2.81
365.896	2.77
366.26	2.81
366.623	2.84
366.987	2.81
367.35	2.88
367.714	2.91
368.077	2.83
368.44	2.81
368.803	2.79
369.167	2.75
369.53	2.73
369.893	2.85
370.256	2.9
370.619	2.87
370.982	2.8
371.345	2.75
371.708	2.71
372.071	2.75
372.434	2.74
372.797	2.69
373.159	2.69
373.522	2.74
373.885	2.74
374.247	2.76
374.61	2.82
374.973	2.74
375.335	2.68
375.698	2.7
376.06	2.75
376.423	2.77
376.785	2.82
377.147	2.83
377.51	2.78
377.872	2.83
378.234	2.86
378.596	2.93
378.958	2.97
379.321	3
379.683	2.99
380.045	3.03
380.407	3.05
380.769	3.05
381.13	3.02
381.492	2.98
381.854	2.99
382.216	2.98
382.578	3.05
382.939	3.1
383.301	3.09
383.663	3.08
384.024	3.07
384.386	3.1
384.747	3.1
385.109	3.1
385.47	3.03
385.832	3
386.193	2.97
386.554	2.91
386.916	2.9
387.277	2.91
387.638	2.92
387.999	2.89
388.36	2.92
388.721	2.92
389.082	2.93
389.443	2.92
389.804	2.9
390.165	2.86
390.526	2.84
390.887	2.82
391.248	2.85
391.609	2.87
391.969	2.88
392.33	2.91
392.691	2.9
393.051	2.92
393.412	2.96
393.772	2.92
394.133	3.02
394.493	3.01
394.854	3.02
395.214	2.98
395.574	3.02
395.935	3.01
396.295	3.04
396.655	3
397.015	2.98
397.376	2.99
397.736	3
398.096	3.02
398.456	3.05
398.816	3.03
399.176	3.04
399.535	3.01
399.895	2.99
400.255	2.98
400.615	2.95
400.975	2.93
401.334	2.96
401.694	2.9
402.054	2.9
402.413	2.91
402.773	2.93
403.132	2.92
403.492	2.92
403.851	2.9
404.211	2.95
404.57	2.94
404.929	2.97
405.288	2.98
405.648	2.99
406.007	2.99
406.366	2.99
406.725	2.97
407.084	2.97
407.443	3
407.802	3.03
408.161	3.05
408.52	3.05
408.879	3.05
409.238	3.05
409.596	3.07
409.955	3.06
410.314	3.06
410.673	3.07
411.031	3.06
411.39	3.07
411.748	3.05
412.107	3.07
412.465	3.04
412.824	3.07
413.182	3.07
413.54	3.07
413.899	3.09
414.257	3.08
414.615	3.09
414.974	3.1
415.332	3.06
415.69	3.08
416.048	3.06
416.406	3.1
416.764	3.12
417.122	3.12
417.48	3.12
417.838	3.14
418.195	3.12
418.553	3.13
418.911	3.11
419.269	3.13
419.626	3.15
419.984	3.15
420.342	3.13
420.699	3.13
421.057	3.14
421.414	3.11
421.772	3.11
422.129	3.12
422.486	3.1
422.844	3.14
423.201	3.13
423.558	3.14
423.915	3.12
424.273	3.12
424.63	3.13
424.987	3.12
425.344	3.13
425.701	3.14
426.058	3.15
426.415	3.14
426.772	3.13
427.128	3.11
427.485	3.12
427.842	3.13
428.199	3.13
428.555	3.14
428.912	3.17
429.269	3.18
429.625	3.16
429.982	3.17
430.338	3.16
430.695	3.17
431.051	3.17
431.407	3.17
431.764	3.18
432.12	3.16
432.476	3.17
432.832	3.16
433.189	3.17
433.545	3.16
433.901	3.16
434.257	3.17
434.613	3.19
434.969	3.19
435.325	3.17
435.681	3.18
436.036	3.16
436.392	3.15
436.748	3.13
437.104	3.12
437.459	3.14
437.815	3.12
438.171	3.12
438.526	3.12
438.882	3.11
439.237	3.11
439.593	3.11
439.948	3.11
440.304	3.11
440.659	3.1
441.014	3.12
441.369	3.12
441.725	3.12
442.08	3.11
442.435	3.12
442.79	3.14
443.145	3.15
443.5	3.14
443.855	3.15
444.21	3.16
444.565	3.17
444.92	3.18
445.275	3.17
445.629	3.17
445.984	3.18
446.339	3.17
446.693	3.16
447.048	3.16
447.403	3.14
447.757	3.13
448.112	3.12
448.466	3.1
448.82	3.09
449.175	3.09
449.529	3.09
449.883	3.08
450.238	3.06
450.592	3.06
450.946	3.07
451.3	3.05
451.654	3.05
452.008	3.04
452.362	3.01
452.716	3.01
453.07	3.03
453.424	3.03
453.778	3.05
454.132	3.04
454.486	3.03
454.839	3.05
455.193	3.06
455.547	3.07
455.9	3.1
456.254	3.11
456.607	3.1
456.961	3.1
457.314	3.09
457.668	3.08
458.021	3.07
458.375	3.08
458.728	3.08
459.081	3.09
459.434	3.1
459.787	3.12
460.141	3.13
460.494	3.12
460.847	3.12
461.2	3.12
461.553	3.13
461.906	3.14
462.259	3.15
462.611	3.16
462.964	3.17
463.317	3.16
463.67	3.18
464.022	3.17
464.375	3.17
464.728	3.19
465.08	3.2
465.433	3.22
465.785	3.21
466.138	3.22
466.49	3.22
466.843	3.22
467.195	3.23
467.547	3.22
467.899	3.23
468.252	3.22
468.604	3.21
468.956	3.22
469.308	3.21
469.66	3.21
470.012	3.2
470.364	3.21
470.716	3.21
471.068	3.19
471.42	3.21
471.772	3.23
472.123	3.22
472.475	3.24
472.827	3.23
473.178	3.25
473.53	3.25
473.882	3.25
474.233	3.26
474.585	3.23
474.936	3.2
475.288	3.19
475.639	3.22
475.99	3.21
476.342	3.21
476.693	3.23
477.044	3.23
477.395	3.25
477.746	3.24
478.097	3.22
478.448	3.22
478.8	3.25
479.15	3.23
479.501	3.23
479.852	3.25
480.203	3.25
480.554	3.25
480.905	3.26
481.255	3.28
481.606	3.3
481.957	3.32
482.307	3.34
482.658	3.35
483.009	3.34
483.359	3.36
483.709	3.36
484.06	3.35
484.41	3.36
484.761	3.35
485.111	3.36
485.461	3.37
485.811	3.36
486.162	3.36
486.512	3.37
486.862	3.37
487.212	3.36
487.562	3.36
487.912	3.35
488.262	3.35
488.612	3.35
488.961	3.33
489.311	3.32
489.661	3.32
490.011	3.32
490.36	3.31
490.71	3.31
491.06	3.31
491.409	3.33
491.759	3.32
492.108	3.31
492.458	3.3
492.807	3.29
493.157	3.29
493.506	3.3
493.855	3.27
494.204	3.29
494.554	3.3
494.903	3.29
495.252	3.3
495.601	3.32
495.95	3.32
496.299	3.33
496.648	3.33
496.997	3.32
497.346	3.34
497.695	3.34
498.043	3.32
498.392	3.32
498.741	3.31
499.09	3.31
499.438	3.33
499.787	3.34
500.135	3.36
500.484	3.36
500.832	3.35
501.181	3.38
501.529	3.37
501.878	3.36
502.226	3.37
502.574	3.36
502.923	3.34
503.271	3.33
503.619	3.35
503.967	3.36
504.315	3.37
504.663	3.35
505.011	3.35
505.359	3.37
505.707	3.36
506.055	3.37
506.403	3.38
506.751	3.37
507.098	3.36
507.446	3.37
507.794	3.37
508.141	3.37
508.489	3.37
508.837	3.38
509.184	3.4
509.531	3.41
509.879	3.44
510.226	3.46
510.574	3.45
510.921	3.45
511.268	3.45
511.616	3.45
511.963	3.45
512.31	3.45
512.657	3.46
513.004	3.45
513.351	3.47
513.698	3.46
514.045	3.47
514.392	3.47
514.739	3.47
515.086	3.47
515.432	3.49
515.779	3.49
516.126	3.49
516.473	3.51
516.819	3.51
517.166	3.49
517.512	3.49
517.859	3.51
518.205	3.51
518.552	3.52
518.898	3.53
519.245	3.54
519.591	3.52
519.937	3.52
520.283	3.52
520.629	3.51
520.976	3.51
521.322	3.53
521.668	3.53
522.014	3.54
522.36	3.55
522.706	3.55
523.052	3.55
523.398	3.55
523.743	3.54
524.089	3.53
524.435	3.52
524.781	3.53
525.126	3.53
525.472	3.55
525.817	3.54
526.163	3.55
526.509	3.56
526.854	3.57
527.199	3.58
527.545	3.58
527.89	3.59
528.235	3.58
528.581	3.57
528.926	3.57
529.271	3.57
529.616	3.57
529.961	3.57
530.306	3.57
530.651	3.57
530.996	3.58
531.341	3.59
531.686	3.6
532.031	3.61
532.376	3.62
532.721	3.62
533.065	3.62
533.41	3.62
533.755	3.6
534.099	3.61
534.444	3.61
534.788	3.63
535.133	3.63
535.477	3.65
535.822	3.65
536.166	3.65
536.51	3.65
536.855	3.67
537.199	3.67
537.543	3.69
537.887	3.67
538.231	3.65
538.576	3.63
538.92	3.63
539.264	3.61
539.608	3.62
539.951	3.62
540.295	3.61
540.639	3.62
540.983	3.63
541.327	3.61
541.671	3.61
542.014	3.59
542.358	3.58
542.701	3.57
543.045	3.57
543.389	3.59
543.732	3.59
544.075	3.56
544.419	3.57
544.762	3.55
545.105	3.56
545.449	3.58
545.792	3.59
546.135	3.6
546.478	3.62
546.821	3.58
547.165	3.56
547.508	3.58
547.851	3.57
548.194	3.57
548.536	3.59
548.879	3.6
549.222	3.6
549.565	3.61
549.908	3.63
550.25	3.65
550.593	3.67
550.936	3.66
551.278	3.7
551.621	3.68
551.963	3.69
552.306	3.68
552.648	3.66
552.991	3.69
553.333	3.66
553.675	3.67
554.017	3.72
554.36	3.75
554.702	3.73
555.044	3.72
555.386	3.71
555.728	3.71
556.07	3.72
556.412	3.7
556.754	3.69
557.096	3.68
557.438	3.68
557.78	3.65
558.121	3.69
558.463	3.69
558.805	3.71
559.147	3.7
559.488	3.75
559.83	3.8
560.171	3.8
560.513	3.83
560.854	3.83
561.196	3.8
561.537	3.79
561.878	3.8
562.22	3.82
562.561	3.83
562.902	3.84
563.243	3.85
563.584	3.86
563.925	3.88
564.266	3.87
564.607	3.87
564.948	3.87
565.289	3.84
565.63	3.84
565.971	3.83
566.312	3.83
566.653	3.81
566.993	3.78
567.334	3.77
567.675	3.78
568.015	3.77
568.356	3.76
568.696	3.76
569.037	3.74
569.377	3.74
569.718	3.75
570.058	3.75
570.398	3.72
570.739	3.73
571.079	3.71
571.419	3.72
571.759	3.71
572.099	3.72
572.439	3.7
572.779	3.69
573.119	3.71
573.459	3.73
573.799	3.76
574.139	3.75
574.479	3.74
574.819	3.73
575.158	3.72
575.498	3.73
575.838	3.76
576.177	3.75
576.517	3.75
576.856	3.78
577.196	3.77
577.535	3.78
577.875	3.8
578.214	3.81
578.553	3.81
578.893	3.8
579.232	3.78
579.571	3.82
579.91	3.79
580.25	3.79
580.589	3.77
580.928	3.76
581.267	3.79
581.606	3.8
581.945	3.79
582.283	3.8
582.622	3.78
582.961	3.79
583.3	3.83
583.639	3.83
583.977	3.78
584.316	3.75
584.654	3.75
584.993	3.71
585.332	3.68
585.67	3.69
586.008	3.71
586.347	3.7
586.685	3.68
587.024	3.67
587.362	3.66
587.7	3.66
588.038	3.67
588.376	3.65
588.715	3.68
589.053	3.7
589.391	3.72
589.729	3.75
590.067	3.68
590.404	3.7
590.742	3.7
591.08	3.71
591.418	3.75
591.756	3.76
592.093	3.84
592.431	3.85
592.769	3.85
593.106	3.86
593.444	3.87
593.781	3.88
594.119	3.87
594.456	3.88
594.793	3.87
595.131	3.85
595.468	3.87
595.805	3.84
596.143	3.83
596.48	3.83
596.817	3.82
597.154	3.83
597.491	3.8
597.828	3.81
598.165	3.79
598.502	3.8
598.839	3.83
599.176	3.76
599.512	3.8
599.849	3.83
600.186	3.81
600.523	3.83
600.859	3.92
601.196	3.96
601.532	3.96
601.869	3.97
602.205	3.99
602.542	3.99
602.878	4.01
603.215	4.03
603.551	4.02
603.887	4.02
604.223	4.01
604.56	4.04
604.896	4.05
605.232	4.07
605.568	4.07
605.904	4.02
606.24	4.09
606.576	4.05
606.912	4.02
607.248	4.03
607.583	4.04
607.919	3.97
608.255	3.96
608.591	3.95
608.926	3.93
609.262	3.95
609.597	3.95
609.933	3.99
610.268	3.97
610.604	4
610.939	3.99
611.275	4.01
611.61	3.98
611.945	4.01
612.281	3.96
612.616	3.98
612.951	3.99
613.286	3.96
613.621	3.94
613.956	3.94
614.291	3.96
614.626	3.96
614.961	3.96
615.296	3.95
615.631	3.97
615.966	4
616.3	3.94
616.635	3.91
616.97	3.86
617.304	3.87
617.639	3.85
617.973	3.88
618.308	3.86
618.642	3.91
618.977	3.86
619.311	3.88
619.646	3.96
619.98	4
620.314	3.99
620.648	3.99
620.983	4.09
621.317	4.1
621.651	4.1
621.985	4.13
622.319	4.15
622.653	4.19
622.987	4.18
623.321	4.22
623.655	4.23
623.988	4.27
624.322	4.26
624.656	4.29
624.99	4.3
625.323	4.34
625.657	4.32
625.99	4.33
626.324	4.37
626.657	4.31
626.991	4.27
627.324	4.29
627.658	4.33
627.991	4.31
628.324	4.28
628.657	4.26
628.991	4.21
629.324	4.21
629.657	4.2
629.99	4.23
630.323	4.26
630.656	4.26
630.989	4.25
631.322	4.28
631.655	4.26
631.987	4.26
632.32	4.25
632.653	4.21
632.986	4.18
633.318	4.17
633.651	4.21
633.984	4.21
634.316	4.19
634.649	4.18
634.981	4.15
635.313	4.09
635.646	4.08
635.978	4.12
636.31	4.11
636.643	4.13
636.975	4.13
637.307	4.04
637.639	4.02
637.971	3.97
638.303	3.95
638.635	3.92
638.967	3.93
639.299	3.99
639.631	3.97
639.963	3.94
640.295	3.91
640.626	3.87
640.958	3.93
641.29	3.95
641.621	3.93
641.953	3.9
642.285	3.95
642.616	3.99
642.948	4
643.279	4.01
643.61	3.97
643.942	3.94
644.273	3.99
644.604	4.01
644.936	4.01
645.267	4.04
645.598	4.05
645.929	3.99
646.26	3.98
646.591	4.04
646.922	4.06
647.253	4.07
647.584	4.07
647.915	4.02
648.245	3.99
648.576	4.01
648.907	4.01
649.238	4.04
649.568	4.02
649.899	4.06
650.229	4.06
650.56	4.05
650.89	4.09
651.221	4.09
651.551	4.12
651.882	4.12
652.212	4.07
652.542	4.08
652.872	4.07
653.203	4.03
653.533	4.05
653.863	4.07
654.193	4.07
654.523	4.05
654.853	4.07
655.183	4.11
655.513	4.13
655.843	4.15
656.172	4.12
656.502	4.16
656.832	4.09
657.162	4.14
657.491	4.16
657.821	4.12
658.15	4.1
658.48	4.1
658.809	4.1
659.139	4.15
659.468	4.16
659.798	4.19
660.127	4.26
660.456	4.21
660.785	4.26
661.115	4.22
661.444	4.25
661.773	4.24
662.102	4.25
662.431	4.23
662.76	4.27
663.089	4.26
663.418	4.16
663.747	4.14
664.076	4.11
664.404	4.11
664.733	4.2
665.062	4.2
665.39	4.18
665.719	4.22
666.048	4.28
666.376	4.26
666.705	4.33
667.033	4.22
667.362	4.24
667.69	4.26
668.018	4.29
668.347	4.32
668.675	4.28
669.003	4.25
669.331	4.28
669.659	4.28
669.987	4.28
670.315	4.42
670.643	4.51
670.971	4.54
671.299	4.54
671.627	4.46
671.955	4.5
672.283	4.52
672.61	4.45
672.938	4.31
673.266	4.37
673.593	4.42
673.921	4.4
674.249	4.5
674.576	4.47
674.904	4.51
675.231	4.54
675.558	4.51
675.886	4.54
676.213	4.57
676.54	4.53
676.867	4.62
677.195	4.62
677.522	4.56
677.849	4.55
678.176	4.58
678.503	4.63
678.83	4.64
679.157	4.63
679.484	4.61
679.81	4.75
680.137	4.64
680.464	4.49
680.791	4.54
681.117	4.48
681.444	4.43
681.771	4.4
682.097	4.39
682.424	4.52
682.75	4.51
683.077	4.53
683.403	4.58
683.729	4.53
684.056	4.5
684.382	4.56
684.708	4.48
685.034	4.44
685.36	4.37
685.686	4.3
686.012	4.27
686.339	4.44
686.664	4.34
686.99	4.44
687.316	4.5
687.642	4.46
687.968	4.38
688.294	4.47
688.619	4.55
688.945	4.53
689.271	4.45
689.596	4.36
689.922	4.25
690.247	4.12
690.573	4.12
690.898	4.07
691.224	4.09
691.549	4.18
691.874	4.12
692.2	4.21
692.525	4.24
692.85	4.33
693.175	4.34
693.5	4.33
693.825	4.38
694.15	4.35
694.475	4.32
694.8	4.44
695.125	4.31
695.45	4.25
695.775	4.3
696.099	4.38
696.424	4.41
696.749	4.46
697.073	4.55
697.398	4.62
697.723	4.62
698.047	4.58
698.372	4.56
698.696	4.59
699.02	4.58
699.345	4.6
699.669	4.61
699.993	4.5
700.318	4.52
700.642	4.46
700.966	4.55
701.29	4.65
701.614	4.58
701.938	4.64
702.262	4.72
702.586	4.7
702.91	4.62
703.234	4.65
703.557	4.67
703.881	4.68
704.205	4.68
704.529	4.63
704.852	4.7
705.176	4.7
705.499	4.67
705.823	4.65
706.146	4.68
706.47	4.76
706.793	4.68
707.117	4.72
707.44	4.72
707.763	4.69
708.086	4.49
708.409	4.62
708.733	4.68
709.056	4.63
709.379	4.65
709.702	4.62
710.025	4.6
710.348	4.55
710.671	4.42
710.993	4.46
711.316	4.56
711.639	4.56
711.962	4.48
712.284	4.5
712.607	4.57
712.93	4.56
713.252	4.49
713.575	4.59
713.897	4.57
714.22	4.65
714.542	4.62
714.864	4.73
715.187	4.68
715.509	4.75
715.831	4.72
716.153	4.72
716.475	4.82
716.798	5
717.12	5
717.442	5
717.764	4.9
718.085	4.82
718.407	4.75
718.729	4.87
719.051	4.96
719.373	4.95
719.695	4.99
720.016	5.07
720.338	4.97
720.659	5.12
720.981	4.99
721.302	5.04
721.624	5.11
721.945	4.98
722.267	4.93
722.588	4.91
722.909	4.9
723.231	4.78
723.552	4.57
723.873	4.71
724.194	4.74
724.515	4.75
724.836	4.88
725.157	5.02
725.478	5.01
725.799	4.88
726.12	4.72
726.441	4.58
726.762	4.43
727.083	4.49
727.403	4.36
727.724	4.5
728.045	4.57
728.365	4.57
728.686	4.66
729.006	4.71
729.327	4.64
729.647	4.69
729.967	4.74
730.288	4.86
730.608	4.73
730.928	4.84
731.249	4.7
731.569	4.59
731.889	4.53
732.209	4.49
732.529	4.62
732.849	4.68
733.169	4.73
733.489	4.72
733.809	4.75
734.129	4.65
734.448	4.71
734.768	4.5
735.088	4.5
735.408	4.48
735.727	4.45
736.047	4.46
736.366	4.32
736.686	4.34
737.005	4.3
737.325	4.34
737.644	4.45
737.963	4.49
738.283	4.53
738.602	4.46
738.921	4.45
739.24	4.48
739.56	4.44
739.879	4.58
740.198	4.67
740.517	4.65
740.836	4.93
741.155	4.92
741.473	5.11
741.792	5.09
742.111	5.15
742.43	5.06
742.748	5.05
743.067	5.07
743.386	4.97
743.704	5.01
744.023	5.18
744.341	4.98
744.66	5.29
744.978	5.28
745.297	5.45
745.615	5.61
745.933	5.61
746.252	5.84
746.57	5.79
746.888	5.83
747.206	5.69
747.524	5.67
747.842	5.52
748.16	5.59
748.478	5.88
748.796	5.88
749.114	6.14
749.432	6.13
749.749	6.09
750.067	6.07
750.385	6.02
750.703	5.65
751.02	5.79
751.338	5.53
751.655	5.53
751.973	5.51
752.29	5.28
752.608	5.01
752.925	4.75
753.242	4.7
753.56	4.54
753.877	4.64
754.194	4.39
754.511	4.62
754.828	4.43
755.145	4.34
755.462	4.2
755.779	4.03
756.096	4.26
756.413	4.17
756.73	4.26
757.047	4.19
757.364	4.31
757.68	4.27
757.997	4.24
758.314	4.38
758.63	4.18
758.947	4.35
759.264	4.4
759.58	4.6
759.896	4.59
760.213	4.74
760.529	4.91
760.846	5.02
761.162	4.8
761.478	4.92
761.794	4.72
762.11	4.85
762.426	4.91
762.743	4.88
763.059	5.17
763.375	5.3
763.69	5.45
764.006	5.59
764.322	5.43
764.638	5.51
764.954	5.66
765.27	5.72
765.585	5.63
765.901	5.86
766.216	5.82
766.532	5.67
766.848	5.54
767.163	5.57
767.478	5.41
767.794	5.34
768.109	5.05
768.424	5.18
768.74	5.12
769.055	4.76
769.37	4.66
769.685	4.49
770	4.5
770.315	4.13
770.63	3.79
770.945	3.62
771.26	3.82
771.575	3.61
771.89	3.62
772.205	3.58
772.52	3.26
772.834	3.01
773.149	3.28
773.464	3.31
773.778	3.43
774.093	3.29
774.407	3.33
774.722	3.62
775.036	3.58
775.351	3.47
775.665	3.62
775.979	3.48
776.293	3.3
776.608	2.95
776.922	3.18
777.236	3.45
777.55	3.79
777.864	3.36
778.178	3.14
778.492	3.36
778.806	3.04
779.12	3.18
779.434	3.25
779.747	3.25
780.061	3.39
780.375	3.09
780.689	3.36
781.002	3.56
781.316	3.53
781.629	3.78
781.943	4.18
782.256	4.3
782.57	4.69
782.883	4.6
783.196	4.61
783.51	4.49
783.823	4.53
784.136	4.38
784.449	4.82
784.762	5.08
785.075	4.77
785.388	5.3
785.701	5.28
786.014	4.98
786.327	4.91
786.64	4.81
786.953	4.85
787.266	4.78
787.578	4.5
787.891	4.51
788.204	4.12
788.516	4.31
788.829	4.54
789.141	4.56
789.454	4.92
789.766	5.04
790.079	5.17
790.391	5.01
790.703	5.51
791.016	5.28
791.328	5.28
791.64	5.67
791.952	5.87
792.264	5.84
792.576	6.51
792.888	6.54
793.2	6.9
793.512	6.87
793.824	7.1
794.136	7.09
794.448	7.11
794.76	7.16
795.071	6.69
795.383	6.73
795.695	6.28
796.006	6.19
796.318	6.31
796.629	6.37
796.941	6.19
797.252	6.01
797.564	6.47
797.875	6.17
798.186	6.06
798.497	5.74
798.809	5.78
799.12	5.64
799.431	5.41
799.742	5.52
800.053	5.78
800.364	5.66
800.675	5.64
800.986	5.89
801.297	5.52
801.608	5.86
801.918	5.21
802.229	5.6
802.54	5.7
802.851	5.57
803.161	5.67
803.472	5.67
803.782	5.36
804.093	4.82
804.403	4.86
804.714	4.59
805.024	4.23
805.334	4.32
805.645	4.04
805.955	4.71
806.265	4.61
806.575	4.04
806.885	4.44
807.195	5.18
807.505	4.94
807.815	5.48
808.125	5.34
808.435	5.83
808.745	5.06
809.055	4.84
809.365	4.7
809.674	4.43
809.984	4.9
810.294	4.76
810.603	5.49
810.913	5.93
811.222	6.23
811.532	7.19
811.841	7.63
812.151	8.25
812.46	7.64
812.769	7.23
813.079	7.12
813.388	6.35
813.697	6.1
814.006	5.63
814.315	5.52
814.624	5.64
814.933	6.28
815.242	7.06
815.551	7.87
815.86	8.72
816.169	8.08
816.478	8.24
816.786	8.7
817.095	8.44
817.404	7.76
817.712	7.85
818.021	7.7
818.33	7.25
818.638	6.73
818.947	6.95
819.255	7.09
819.563	7.5
819.872	7.74
820.18	7.73
820.488	8.14
820.796	8.24
821.105	8
821.413	7.83
821.721	7.89
822.029	7.81
822.337	7.63
822.645	7.98
822.953	7.88
823.26	7.74
823.568	7.65
823.876	7.73
824.184	7.68
824.491	7.59
824.799	7.65
825.107	7.67
825.414	7.64
825.722	7.58
826.029	7.56
826.337	7.63
826.644	7.57
826.951	7.36
827.259	7.11
827.566	7
827.873	7.03
828.18	6.83
828.488	6.66
828.795	6.72
829.102	6.51
829.409	6.61
829.716	6.78
830.023	6.62
830.329	6.49
830.636	6.3
830.943	6.14
831.25	5.79
831.557	5.97
831.863	6.18
832.17	6.08
832.476	6.57
832.783	6.78
833.089	6.96
833.396	6.93
833.702	7.19
834.009	7.67
834.315	7.28
834.621	7.56
834.928	7.84
835.234	7.56
835.54	7.57
835.846	7.38
836.152	7.05
836.458	7.19
836.764	7.25
837.07	7.44
837.376	7.37
837.682	7.96
837.988	7.57
838.293	7.46
838.599	8.06
838.905	6.69
839.211	6.66
839.516	6.5
839.822	7.13
840.127	7.57
840.433	7.57
840.738	8.26
841.044	7.71
841.349	7.9
841.654	8.47
841.959	8.25
842.265	8.42
842.57	9.64
842.875	9.76
843.18	10.41
843.485	9.86
843.79	10.14
844.095	10.02
844.4	12.73
844.705	11.81
845.01	11.29
845.315	11.95
845.619	10.1
845.924	10.36
846.229	9.77
846.533	9.33
846.838	8.11
847.142	7.07
847.447	5.11
847.751	3.03
848.056	3.69
848.36	3.84
848.664	3.62
848.969	2.65
849.273	3.15
849.577	1.83
849.881	2.08
850.185	2.58
850.489	2.1
850.794	-3.31
851.097	-3.05
851.401	-2.88
851.705	-2.34
852.009	-0.43
852.313	-0.9
852.617	0.47
852.92	1.56
853.224	1.25
853.528	2.88
853.831	5.3
854.135	5.08
854.438	1.36
854.742	0.9
855.045	2.34
855.349	3.75
855.652	2.57
855.955	3.84
856.259	2.31
856.562	1.24
856.865	-0.74
857.168	1.2
857.471	3.3
857.774	3.13
858.077	1.91
858.38	1.1
858.683	2.98
858.986	2.24
859.289	2.48
859.592	3.11
859.894	2.44
860.197	4.33
860.5	4.37
860.802	6.66
861.105	7.4
861.407	7.09
861.71	4.86
862.012	5.15
862.315	3.22
862.617	5.65
862.919	6.27
863.222	9.2
863.524	7.72
863.826	8.01
864.128	8.59
864.43	10.17
864.732	11.38
865.034	10.46
865.336	8.41
865.638	6.69
865.94	4.93
866.242	3.1
866.544	2.06
866.846	2.71
867.147	2.04
867.449	1.81
867.751	-0.59
868.052	-0.11
868.354	1.64
868.655	2.52
868.957	2.14
869.258	1.57
869.56	0.52
869.861	1.79
870.162	0.52
870.463	0.56
870.765	-0.22
871.066	-2.62
871.367	-3.38
871.668	-2.35
871.969	-1.82
872.27	-1.61
872.571	-0.69
872.872	-0.43
873.173	-0.17
873.473	-1.1
873.774	-0.7
874.075	1.1
874.376	1.62
874.676	0.82
874.977	-1.64
875.277	-1.67
875.578	-2.46
875.878	-3.38
876.179	-3.39
876.479	-3.81
876.78	-5.36
877.08	-4.6
877.38	-3.66
877.68	-5.41
877.981	-5.18
878.281	-6.72
878.581	-3.07
