Data from BU26850_Reflection_00002.txt Node
Date: Mon Nov 18 16:45:24 EST 2019
User: vgr7
Spectrometer: USB2G7710
Scans to average: 3
Trigger mode: 4
Integration Time (sec): 2.000000E-2
Electric dark correction enabled: true
Boxcar width: 10
XAxis mode: Wavelengths
Number of Pixels in Spectrum: 2048
>>>>>Begin Spectral Data<<<<<
177.721	52.61
178.105	75.27
178.488	96.53
178.871	83.84
179.254	173.35
179.636	97.46
180.019	43.28
180.402	107.69
180.785	-5.52
181.168	-124.46
181.55	-200.61
181.933	274.74
182.316	739.44
182.698	538.28
183.081	719.28
183.463	-3393.51
183.846	-493.22
184.228	-576.55
184.611	1372.34
184.993	3656.96
185.376	-678.87
185.758	-1221.07
186.14	-377.15
186.522	-272.87
186.904	-306.71
187.287	-405.33
187.669	-239.21
188.051	-279.84
188.433	-183.72
188.815	-128.03
189.197	-136.33
189.579	-119.75
189.961	-115.34
190.342	-100.58
190.724	-87.35
191.106	-72.65
191.488	-68.57
191.869	-55.79
192.251	-68.21
192.633	-52.5
193.014	-56.67
193.396	-91.11
193.777	-88.26
194.159	-93.08
194.54	-76.02
194.922	-72.15
195.303	-56.37
195.684	-52.36
196.065	-45.81
196.447	-37.25
196.828	-37.27
197.209	-38.99
197.59	-51.05
197.971	-51.61
198.352	-38.17
198.733	-45.53
199.114	-47.62
199.495	-44.43
199.876	-46.78
200.257	-47.78
200.638	-42.03
201.018	-44.8
201.399	-46.93
201.78	-43.89
202.16	-55.63
202.541	-68.41
202.922	-88.31
203.302	-111.76
203.683	-118.84
204.063	-126.02
204.444	-131.52
204.824	-146.28
205.204	-183.7
205.585	-174.86
205.965	-169.57
206.345	-193.9
206.725	-204.29
207.106	-185.49
207.486	-217.18
207.866	-231.8
208.246	-248.55
208.626	-308.23
209.006	-228
209.386	-214
209.766	-231.1
210.145	-264.25
210.525	-203.59
210.905	-184.56
211.285	-138.7
211.664	-126.21
212.044	-111.17
212.424	-107.98
212.803	-117.2
213.183	-93.71
213.562	-78.94
213.942	-63.27
214.321	-65.95
214.701	-64.35
215.08	-77.37
215.459	-72.76
215.838	-59.98
216.218	-48.27
216.597	-36.62
216.976	-25.2
217.355	-29.85
217.734	-28.14
218.113	-22.97
218.492	-22.79
218.871	-17.72
219.25	-25.31
219.629	-32.8
220.008	-33.88
220.387	-49.29
220.766	-52
221.144	-64.17
221.523	-70.94
221.902	-89.42
222.28	-84.8
222.659	-70.11
223.037	-60.66
223.416	-49.23
223.794	-53.31
224.173	-55.41
224.551	-59.05
224.929	-62.03
225.308	-48.15
225.686	-47.96
226.064	-44.91
226.442	-42.16
226.821	-36
227.199	-30.39
227.577	-33.36
227.955	-35.72
228.333	-30.21
228.711	-27.88
229.089	-21.4
229.467	-21.57
229.845	-20.59
230.222	-18.78
230.6	-21.02
230.978	-19.18
231.356	-15.98
231.733	-14.49
232.111	-12.25
232.488	-11.98
232.866	-11.64
233.243	-11.88
233.621	-10.09
233.998	-9.47
234.376	-8.1
234.753	-9.13
235.13	-10.18
235.508	-7.76
235.885	-7.62
236.262	-6.79
236.639	-5.49
237.016	-6.02
237.393	-2.59
237.77	-0.56
238.147	0.7
238.524	1.16
238.901	1.76
239.278	1.59
239.655	2.19
240.032	1.83
240.409	1.63
240.785	1.56
241.162	1.99
241.539	2.14
241.915	2.21
242.292	1.66
242.668	1.54
243.045	1.76
243.421	1.69
243.798	2.26
244.174	2.13
244.551	2.08
244.927	1.81
245.303	1.45
245.679	1.34
246.056	1.26
246.432	1.1
246.808	0.81
247.184	0.53
247.56	0.46
247.936	0.57
248.312	0.41
248.688	0.57
249.064	0.43
249.44	0.19
249.815	0.28
250.191	0.47
250.567	0.79
250.943	0.7
251.318	0.62
251.694	0.56
252.069	0.5
252.445	0.59
252.82	0.7
253.196	0.64
253.571	0.31
253.947	0.18
254.322	0.64
254.697	0.65
255.073	0.54
255.448	0.46
255.823	0.47
256.198	1.08
256.573	0.85
256.948	1.02
257.323	1.36
257.698	1.43
258.073	1.39
258.448	1.34
258.823	1.31
259.198	1.27
259.573	0.99
259.948	1.12
260.322	1.01
260.697	0.93
261.072	0.89
261.446	1.26
261.821	1.28
262.195	1.25
262.57	1.34
262.944	1.44
263.319	1.32
263.693	1.27
264.067	1.19
264.442	1.26
264.816	1.16
265.19	1.08
265.564	1.14
265.938	1.15
266.313	1.03
266.687	1.22
267.061	1.29
267.435	1.47
267.809	1.42
268.183	1.49
268.556	1.47
268.93	1.63
269.304	1.4
269.678	1.46
270.051	1.33
270.425	1.13
270.799	1.06
271.172	1.14
271.546	1.24
271.919	1.25
272.293	1.31
272.666	1.39
273.04	1.45
273.413	1.3
273.787	1.42
274.16	1.36
274.533	1.28
274.906	1.29
275.279	1.26
275.653	1.19
276.026	1.23
276.399	1.39
276.772	1.49
277.145	1.34
277.518	1.38
277.891	1.53
278.263	1.66
278.636	1.83
279.009	1.79
279.382	1.82
279.755	1.8
280.127	1.88
280.5	1.88
280.872	1.92
281.245	1.92
281.617	1.84
281.99	2.01
282.362	2.14
282.735	1.98
283.107	2.11
283.479	2.22
283.852	2.08
284.224	1.9
284.596	1.66
284.968	1.79
285.34	1.71
285.713	1.7
286.085	1.76
286.457	1.88
286.829	1.93
287.201	1.88
287.572	1.9
287.944	1.9
288.316	1.86
288.688	1.73
289.06	1.82
289.431	1.78
289.803	1.65
290.175	1.55
290.546	1.73
290.918	1.66
291.289	1.69
291.661	1.82
292.032	1.91
292.403	2.03
292.775	2.05
293.146	2.1
293.517	1.98
293.889	2.04
294.26	2.02
294.631	2.16
295.002	2.2
295.373	2.2
295.744	2.16
296.115	2.23
296.486	2.18
296.857	2.14
297.228	2.19
297.599	2.27
297.97	2.34
298.34	2.4
298.711	2.43
299.082	2.36
299.452	2.27
299.823	2.42
300.194	2.43
300.564	2.4
300.935	2.48
301.305	2.6
301.676	2.45
302.046	2.33
302.416	2.23
302.787	2.14
303.157	2.07
303.527	2.03
303.897	1.93
304.267	2.08
304.637	2.01
305.008	2.08
305.378	2.02
305.748	2
306.117	1.83
306.487	1.93
306.857	1.96
307.227	2.1
307.597	2.02
307.967	1.98
308.336	1.96
308.706	1.8
309.076	1.8
309.445	1.84
309.815	1.79
310.184	1.78
310.554	1.94
310.923	2.04
311.293	2.08
311.662	2.14
312.031	2.14
312.401	2.08
312.77	2.1
313.139	2.15
313.508	2.21
313.877	2.16
314.246	2.07
314.616	2
314.985	1.98
315.353	1.98
315.722	2.03
316.091	2.08
316.46	2.2
316.829	2.03
317.198	1.97
317.567	2.02
317.935	2.12
318.304	2.02
318.672	1.87
319.041	1.97
319.41	1.93
319.778	2
320.147	2.1
320.515	2.03
320.883	1.83
321.252	1.8
321.62	2.01
321.988	1.96
322.357	2.1
322.725	1.96
323.093	1.98
323.461	1.95
323.829	1.98
324.197	1.96
324.565	2.04
324.933	2.2
325.301	2.28
325.669	2.28
326.037	2.14
326.405	2.16
326.772	1.99
327.14	2.17
327.508	2.04
327.875	2.02
328.243	2.1
328.61	2.19
328.978	2.25
329.346	2.17
329.713	2.13
330.08	2.1
330.448	2.16
330.815	2.13
331.182	2.11
331.55	2.02
331.917	1.89
332.284	1.98
332.651	1.92
333.018	2.04
333.385	2.07
333.752	2.18
334.119	2.31
334.486	2.41
334.853	2.3
335.22	2.35
335.587	2.53
335.954	2.46
336.32	2.46
336.687	2.37
337.054	2.4
337.42	2.42
337.787	2.49
338.153	2.47
338.52	2.55
338.886	2.56
339.253	2.59
339.619	2.67
339.986	2.63
340.352	2.58
340.718	2.5
341.084	2.43
341.451	2.61
341.817	2.54
342.183	2.43
342.549	2.33
342.915	2.38
343.281	2.24
343.647	2.19
344.013	2.27
344.379	2.24
344.745	2.29
345.11	2.37
345.476	2.33
345.842	2.33
346.208	2.27
346.573	2.38
346.939	2.44
347.304	2.34
347.67	2.33
348.035	2.38
348.401	2.33
348.766	2.38
349.132	2.21
349.497	2.18
349.862	2.25
350.228	2.33
350.593	2.32
350.958	2.4
351.323	2.53
351.688	2.53
352.053	2.62
352.418	2.61
352.783	2.59
353.148	2.48
353.513	2.51
353.878	2.54
354.243	2.47
354.608	2.48
354.972	2.61
355.337	2.73
355.702	2.8
356.066	2.83
356.431	2.74
356.795	2.87
357.16	2.8
357.524	2.83
357.889	2.83
358.253	2.83
358.618	2.79
358.982	2.71
359.346	2.66
359.71	2.62
360.075	2.58
360.439	2.62
360.803	2.62
361.167	2.62
361.531	2.64
361.895	2.62
362.259	2.61
362.623	2.58
362.987	2.56
363.351	2.53
363.714	2.58
364.078	2.6
364.442	2.54
364.806	2.59
365.169	2.59
365.533	2.58
365.896	2.58
366.26	2.59
366.623	2.63
366.987	2.64
367.35	2.69
367.714	2.72
368.077	2.65
368.44	2.74
368.803	2.69
369.167	2.64
369.53	2.62
369.893	2.6
370.256	2.62
370.619	2.57
370.982	2.51
371.345	2.41
371.708	2.41
372.071	2.43
372.434	2.47
372.797	2.48
373.159	2.45
373.522	2.52
373.885	2.52
374.247	2.49
374.61	2.48
374.973	2.39
375.335	2.36
375.698	2.45
376.06	2.42
376.423	2.4
376.785	2.46
377.147	2.56
377.51	2.59
377.872	2.63
378.234	2.68
378.596	2.71
378.958	2.77
379.321	2.81
379.683	2.79
380.045	2.83
380.407	2.79
380.769	2.84
381.13	2.84
381.492	2.84
381.854	2.84
382.216	2.87
382.578	2.93
382.939	2.93
383.301	2.9
383.663	2.89
384.024	2.93
384.386	2.94
384.747	2.91
385.109	2.89
385.47	2.84
385.832	2.82
386.193	2.86
386.554	2.87
386.916	2.86
387.277	2.89
387.638	2.88
387.999	2.92
388.36	2.91
388.721	2.87
389.082	2.87
389.443	2.84
389.804	2.81
390.165	2.82
390.526	2.82
390.887	2.82
391.248	2.83
391.609	2.86
391.969	2.86
392.33	2.83
392.691	2.81
393.051	2.83
393.412	2.84
393.772	2.82
394.133	2.8
394.493	2.8
394.854	2.78
395.214	2.75
395.574	2.73
395.935	2.73
396.295	2.77
396.655	2.76
397.015	2.81
397.376	2.84
397.736	2.83
398.096	2.85
398.456	2.83
398.816	2.85
399.176	2.87
399.535	2.87
399.895	2.82
400.255	2.84
400.615	2.83
400.975	2.82
401.334	2.82
401.694	2.85
402.054	2.81
402.413	2.84
402.773	2.85
403.132	2.88
403.492	2.88
403.851	2.85
404.211	2.85
404.57	2.82
404.929	2.83
405.288	2.85
405.648	2.84
406.007	2.86
406.366	2.86
406.725	2.84
407.084	2.82
407.443	2.86
407.802	2.86
408.161	2.88
408.52	2.86
408.879	2.83
409.238	2.82
409.596	2.86
409.955	2.83
410.314	2.84
410.673	2.82
411.031	2.81
411.39	2.8
411.748	2.81
412.107	2.83
412.465	2.85
412.824	2.82
413.182	2.83
413.54	2.85
413.899	2.86
414.257	2.88
414.615	2.89
414.974	2.92
415.332	2.93
415.69	2.93
416.048	2.93
416.406	2.96
416.764	2.94
417.122	2.93
417.48	2.94
417.838	2.95
418.195	2.97
418.553	2.97
418.911	2.97
419.269	2.98
419.626	2.98
419.984	2.96
420.342	2.98
420.699	2.98
421.057	2.97
421.414	2.96
421.772	2.95
422.129	2.96
422.486	2.95
422.844	2.96
423.201	2.95
423.558	2.97
423.915	2.97
424.273	2.99
424.63	2.98
424.987	2.98
425.344	2.98
425.701	2.97
426.058	2.96
426.415	2.97
426.772	2.97
427.128	2.96
427.485	2.99
427.842	2.98
428.199	2.99
428.555	3
428.912	3.01
429.269	3.03
429.625	3.02
429.982	3.01
430.338	2.99
430.695	2.99
431.051	2.97
431.407	2.98
431.764	2.96
432.12	2.98
432.476	2.98
432.832	2.96
433.189	2.99
433.545	2.99
433.901	2.98
434.257	2.99
434.613	2.99
434.969	2.97
435.325	2.98
435.681	2.99
436.036	3
436.392	3.01
436.748	2.99
437.104	2.99
437.459	3
437.815	3.03
438.171	3.05
438.526	3.06
438.882	3.05
439.237	3.06
439.593	3.07
439.948	3.08
440.304	3.08
440.659	3.07
441.014	3.09
441.369	3.09
441.725	3.07
442.08	3.09
442.435	3.08
442.79	3.09
443.145	3.09
443.5	3.07
443.855	3.05
444.21	3.05
444.565	3.07
444.92	3.07
445.275	3.05
445.629	3.04
445.984	3.03
446.339	3.02
446.693	2.99
447.048	2.99
447.403	2.98
447.757	2.98
448.112	2.98
448.466	2.97
448.82	2.97
449.175	2.97
449.529	2.96
449.883	2.96
450.238	2.94
450.592	2.93
450.946	2.92
451.3	2.93
451.654	2.93
452.008	2.92
452.362	2.92
452.716	2.92
453.07	2.94
453.424	2.94
453.778	2.97
454.132	2.98
454.486	2.96
454.839	2.96
455.193	2.97
455.547	2.95
455.9	2.97
456.254	2.97
456.607	2.97
456.961	2.98
457.314	2.97
457.668	2.99
458.021	2.99
458.375	3
458.728	3
459.081	3.03
459.434	3.02
459.787	3.02
460.141	3.03
460.494	3
460.847	3
461.2	2.99
461.553	3
461.906	3.02
462.259	3.03
462.611	3.04
462.964	3.06
463.317	3.04
463.67	3.06
464.022	3.09
464.375	3.06
464.728	3.06
465.08	3.04
465.433	3.04
465.785	3.04
466.138	3.04
466.49	3.02
466.843	3.01
467.195	3.01
467.547	3.01
467.899	3.03
468.252	3.03
468.604	3.04
468.956	3.05
469.308	3.03
469.66	3.02
470.012	3.01
470.364	3.02
470.716	3.02
471.068	3
471.42	2.98
471.772	3.01
472.123	3.02
472.475	3.05
472.827	3.06
473.178	3.07
473.53	3.07
473.882	3.07
474.233	3.08
474.585	3.07
474.936	3.07
475.288	3.09
475.639	3.09
475.99	3.1
476.342	3.09
476.693	3.12
477.044	3.15
477.395	3.17
477.746	3.16
478.097	3.16
478.448	3.18
478.8	3.16
479.15	3.14
479.501	3.15
479.852	3.14
480.203	3.14
480.554	3.14
480.905	3.15
481.255	3.16
481.606	3.16
481.957	3.17
482.307	3.18
482.658	3.18
483.009	3.19
483.359	3.19
483.709	3.2
484.06	3.2
484.41	3.2
484.761	3.19
485.111	3.2
485.461	3.2
485.811	3.2
486.162	3.21
486.512	3.22
486.862	3.22
487.212	3.23
487.562	3.24
487.912	3.25
488.262	3.24
488.612	3.23
488.961	3.23
489.311	3.24
489.661	3.24
490.011	3.24
490.36	3.24
490.71	3.24
491.06	3.23
491.409	3.22
491.759	3.22
492.108	3.23
492.458	3.22
492.807	3.23
493.157	3.23
493.506	3.23
493.855	3.23
494.204	3.24
494.554	3.25
494.903	3.23
495.252	3.23
495.601	3.24
495.95	3.26
496.299	3.26
496.648	3.24
496.997	3.25
497.346	3.26
497.695	3.26
498.043	3.27
498.392	3.27
498.741	3.27
499.09	3.26
499.438	3.27
499.787	3.26
500.135	3.26
500.484	3.27
500.832	3.3
501.181	3.3
501.529	3.31
501.878	3.3
502.226	3.31
502.574	3.31
502.923	3.31
503.271	3.31
503.619	3.32
503.967	3.34
504.315	3.33
504.663	3.34
505.011	3.36
505.359	3.36
505.707	3.37
506.055	3.38
506.403	3.4
506.751	3.41
507.098	3.43
507.446	3.45
507.794	3.44
508.141	3.43
508.489	3.43
508.837	3.42
509.184	3.44
509.531	3.43
509.879	3.44
510.226	3.46
510.574	3.46
510.921	3.46
511.268	3.46
511.616	3.45
511.963	3.45
512.31	3.44
512.657	3.45
513.004	3.47
513.351	3.47
513.698	3.47
514.045	3.46
514.392	3.47
514.739	3.45
515.086	3.47
515.432	3.47
515.779	3.47
516.126	3.47
516.473	3.45
516.819	3.47
517.166	3.48
517.512	3.47
517.859	3.48
518.205	3.48
518.552	3.48
518.898	3.51
519.245	3.5
519.591	3.5
519.937	3.5
520.283	3.51
520.629	3.5
520.976	3.5
521.322	3.51
521.668	3.52
522.014	3.52
522.36	3.52
522.706	3.51
523.052	3.53
523.398	3.54
523.743	3.57
524.089	3.56
524.435	3.57
524.781	3.57
525.126	3.58
525.472	3.6
525.817	3.61
526.163	3.6
526.509	3.61
526.854	3.62
527.199	3.61
527.545	3.61
527.89	3.62
528.235	3.62
528.581	3.61
528.926	3.61
529.271	3.62
529.616	3.61
529.961	3.62
530.306	3.61
530.651	3.61
530.996	3.6
531.341	3.61
531.686	3.6
532.031	3.61
532.376	3.6
532.721	3.6
533.065	3.59
533.41	3.6
533.755	3.6
534.099	3.6
534.444	3.6
534.788	3.6
535.133	3.59
535.477	3.6
535.822	3.6
536.166	3.59
536.51	3.6
536.855	3.6
537.199	3.6
537.543	3.61
537.887	3.61
538.231	3.61
538.576	3.6
538.92	3.61
539.264	3.61
539.608	3.61
539.951	3.61
540.295	3.63
540.639	3.63
540.983	3.63
541.327	3.64
541.671	3.64
542.014	3.63
542.358	3.63
542.701	3.63
543.045	3.64
543.389	3.66
543.732	3.66
544.075	3.68
544.419	3.69
544.762	3.68
545.105	3.68
545.449	3.68
545.792	3.69
546.135	3.69
546.478	3.69
546.821	3.72
547.165	3.72
547.508	3.74
547.851	3.73
548.194	3.73
548.536	3.72
548.879	3.75
549.222	3.77
549.565	3.79
549.908	3.79
550.25	3.79
550.593	3.78
550.936	3.75
551.278	3.76
551.621	3.78
551.963	3.82
552.306	3.84
552.648	3.87
552.991	3.89
553.333	3.9
553.675	3.87
554.017	3.87
554.36	3.88
554.702	3.86
555.044	3.83
555.386	3.85
555.728	3.86
556.07	3.87
556.412	3.84
556.754	3.82
557.096	3.82
557.438	3.81
557.78	3.82
558.121	3.85
558.463	3.86
558.805	3.86
559.147	3.85
559.488	3.83
559.83	3.8
560.171	3.79
560.513	3.79
560.854	3.8
561.196	3.81
561.537	3.83
561.878	3.83
562.22	3.84
562.561	3.81
562.902	3.84
563.243	3.84
563.584	3.85
563.925	3.89
564.266	3.88
564.607	3.89
564.948	3.9
565.289	3.89
565.63	3.87
565.971	3.86
566.312	3.83
566.653	3.85
566.993	3.87
567.334	3.85
567.675	3.87
568.015	3.9
568.356	3.87
568.696	3.85
569.037	3.85
569.377	3.88
569.718	3.87
570.058	3.85
570.398	3.84
570.739	3.87
571.079	3.87
571.419	3.87
571.759	3.89
572.099	3.89
572.439	3.88
572.779	3.88
573.119	3.89
573.459	3.93
573.799	3.93
574.139	3.94
574.479	3.94
574.819	3.9
575.158	3.88
575.498	3.89
575.838	3.89
576.177	3.88
576.517	3.85
576.856	3.87
577.196	3.86
577.535	3.85
577.875	3.83
578.214	3.83
578.553	3.84
578.893	3.81
579.232	3.81
579.571	3.82
579.91	3.83
580.25	3.81
580.589	3.76
580.928	3.8
581.267	3.76
581.606	3.77
581.945	3.79
582.283	3.83
582.622	3.87
582.961	3.92
583.3	3.93
583.639	3.96
583.977	3.96
584.316	3.97
584.654	3.95
584.993	3.96
585.332	3.94
585.67	3.95
586.008	3.96
586.347	3.94
586.685	3.95
587.024	3.91
587.362	3.9
587.7	3.9
588.038	3.89
588.376	3.93
588.715	3.95
589.053	3.99
589.391	3.96
589.729	3.96
590.067	3.91
590.404	3.93
590.742	3.92
591.08	3.94
591.418	3.95
591.756	3.98
592.093	3.97
592.431	4
592.769	4.05
593.106	4.03
593.444	4
593.781	3.97
594.119	4.01
594.456	4.03
594.793	4.05
595.131	4.02
595.468	3.98
595.805	3.96
596.143	3.93
596.48	3.93
596.817	3.92
597.154	3.95
597.491	3.92
597.828	3.91
598.165	3.88
598.502	3.87
598.839	3.89
599.176	3.89
599.512	3.87
599.849	3.83
600.186	3.83
600.523	3.87
600.859	3.93
601.196	3.91
601.532	3.9
601.869	3.89
602.205	3.89
602.542	3.93
602.878	3.93
603.215	3.94
603.551	3.93
603.887	3.89
604.223	3.9
604.56	3.9
604.896	3.92
605.232	3.97
605.568	3.94
605.904	3.91
606.24	3.93
606.576	3.94
606.912	3.97
607.248	3.99
607.583	3.98
607.919	3.95
608.255	3.95
608.591	3.97
608.926	3.94
609.262	3.95
609.597	3.97
609.933	3.98
610.268	3.96
610.604	3.98
610.939	4.02
611.275	4.03
611.61	4.05
611.945	4.06
612.281	4.04
612.616	4.1
612.951	4.11
613.286	4.1
613.621	4.1
613.956	4.07
614.291	4.05
614.626	4.1
614.961	4.09
615.296	4.16
615.631	4.16
615.966	4.22
616.3	4.23
616.635	4.2
616.97	4.19
617.304	4.22
617.639	4.24
617.973	4.25
618.308	4.2
618.642	4.18
618.977	4.11
619.311	4.09
619.646	4.07
619.98	4.07
620.314	3.99
620.648	4
620.983	4.05
621.317	4.1
621.651	4.1
621.985	4.13
622.319	4.08
622.653	4.05
622.987	4.06
623.321	4.05
623.655	4.1
623.988	4.15
624.322	4.12
624.656	4.12
624.99	4.14
625.323	4.2
625.657	4.26
625.99	4.32
626.324	4.32
626.657	4.35
626.991	4.37
627.324	4.46
627.658	4.48
627.991	4.44
628.324	4.43
628.657	4.4
628.991	4.4
629.324	4.42
629.657	4.47
629.99	4.46
630.323	4.52
630.656	4.51
630.989	4.56
631.322	4.57
631.655	4.56
631.987	4.56
632.32	4.56
632.653	4.49
632.986	4.49
633.318	4.45
633.651	4.46
633.984	4.39
634.316	4.36
634.649	4.33
634.981	4.35
635.313	4.33
635.646	4.38
635.978	4.38
636.31	4.35
636.643	4.36
636.975	4.37
637.307	4.35
637.639	4.34
637.971	4.24
638.303	4.28
638.635	4.24
638.967	4.22
639.299	4.22
639.631	4.22
639.963	4.2
640.295	4.29
640.626	4.28
640.958	4.36
641.29	4.37
641.621	4.33
641.953	4.3
642.285	4.37
642.616	4.35
642.948	4.35
643.279	4.39
643.61	4.35
643.942	4.3
644.273	4.33
644.604	4.35
644.936	4.38
645.267	4.39
645.598	4.47
645.929	4.49
646.26	4.51
646.591	4.54
646.922	4.53
647.253	4.49
647.584	4.5
647.915	4.45
648.245	4.42
648.576	4.51
648.907	4.51
649.238	4.47
649.568	4.46
649.899	4.37
650.229	4.36
650.56	4.37
650.89	4.42
651.221	4.43
651.551	4.39
651.882	4.42
652.212	4.4
652.542	4.37
652.872	4.35
653.203	4.33
653.533	4.39
653.863	4.44
654.193	4.46
654.523	4.45
654.853	4.51
655.183	4.57
655.513	4.53
655.843	4.55
656.172	4.56
656.502	4.56
656.832	4.61
657.162	4.61
657.491	4.61
657.821	4.61
658.15	4.57
658.48	4.52
658.809	4.49
659.139	4.46
659.468	4.46
659.798	4.45
660.127	4.51
660.456	4.48
660.785	4.45
661.115	4.47
661.444	4.45
661.773	4.48
662.102	4.45
662.431	4.52
662.76	4.54
663.089	4.56
663.418	4.49
663.747	4.59
664.076	4.64
664.404	4.6
664.733	4.65
665.062	4.58
665.39	4.58
665.719	4.53
666.048	4.54
666.376	4.53
666.705	4.53
667.033	4.47
667.362	4.45
667.69	4.39
668.018	4.39
668.347	4.41
668.675	4.37
669.003	4.37
669.331	4.39
669.659	4.36
669.987	4.29
670.315	4.37
670.643	4.36
670.971	4.3
671.299	4.34
671.627	4.35
671.955	4.39
672.283	4.44
672.61	4.48
672.938	4.57
673.266	4.63
673.593	4.73
673.921	4.7
674.249	4.69
674.576	4.74
674.904	4.7
675.231	4.64
675.558	4.67
675.886	4.69
676.213	4.64
676.54	4.66
676.867	4.79
677.195	4.76
677.522	4.78
677.849	4.84
678.176	4.83
678.503	4.79
678.83	4.84
679.157	4.75
679.484	4.76
679.81	4.69
680.137	4.59
680.464	4.52
680.791	4.58
681.117	4.57
681.444	4.57
681.771	4.6
682.097	4.63
682.424	4.63
682.75	4.51
683.077	4.46
683.403	4.44
683.729	4.39
684.056	4.43
684.382	4.4
684.708	4.32
685.034	4.36
685.36	4.34
685.686	4.34
686.012	4.36
686.339	4.35
686.664	4.42
686.99	4.49
687.316	4.5
687.642	4.48
687.968	4.44
688.294	4.54
688.619	4.58
688.945	4.61
689.271	4.49
689.596	4.62
689.922	4.62
690.247	4.59
690.573	4.56
690.898	4.55
691.224	4.56
691.549	4.58
691.874	4.47
692.2	4.49
692.525	4.5
692.85	4.68
693.175	4.63
693.5	4.57
693.825	4.67
694.15	4.64
694.475	4.57
694.8	4.61
695.125	4.5
695.45	4.46
695.775	4.52
696.099	4.65
696.424	4.64
696.749	4.63
697.073	4.61
697.398	4.61
697.723	4.66
698.047	4.61
698.372	4.62
698.696	4.66
699.02	4.67
699.345	4.61
699.669	4.59
699.993	4.64
700.318	4.65
700.642	4.55
700.966	4.5
701.29	4.55
701.614	4.58
701.938	4.65
702.262	4.77
702.586	4.72
702.91	4.64
703.234	4.61
703.557	4.72
703.881	4.7
704.205	4.76
704.529	4.74
704.852	4.86
705.176	4.91
705.499	4.91
705.823	4.98
706.146	5.03
706.47	4.89
706.793	4.96
707.117	4.98
707.44	5.02
707.763	5.14
708.086	5.09
708.409	5.08
708.733	5.08
709.056	4.98
709.379	5.09
709.702	5.17
710.025	5.31
710.348	5.32
710.671	5.37
710.993	5.34
711.316	5.38
711.639	5.37
711.962	5.31
712.284	5.39
712.607	5.25
712.93	5.25
713.252	5.36
713.575	5.4
713.897	5.35
714.22	5.25
714.542	5.25
714.864	5.23
715.187	5.33
715.509	5.34
715.831	5.32
716.153	5.28
716.475	5.23
716.798	5.25
717.12	5.18
717.442	5.16
717.764	4.99
718.085	4.83
718.407	4.71
718.729	4.71
719.051	4.7
719.373	4.73
719.695	4.67
720.016	4.81
720.338	4.88
720.659	4.97
720.981	5.12
721.302	4.95
721.624	5.02
721.945	5.02
722.267	4.9
722.588	4.76
722.909	4.69
723.231	4.59
723.552	4.46
723.873	4.47
724.194	4.4
724.515	4.64
724.836	4.85
725.157	4.93
725.478	5.01
725.799	4.88
726.12	5.11
726.441	5.22
726.762	5.16
727.083	5.09
727.403	5.19
727.724	5.23
728.045	5.41
728.365	5.32
728.686	5.19
729.006	5.19
729.327	5.26
729.647	5.4
729.967	5.36
730.288	5.32
730.608	5.4
730.928	5.61
731.249	5.53
731.569	5.57
731.889	5.62
732.209	5.72
732.529	5.81
732.849	5.73
733.169	5.68
733.489	5.73
733.809	5.64
734.129	5.37
734.448	5.43
734.768	5.5
735.088	5.87
735.408	6.08
735.727	6.17
736.047	6.26
736.366	6.06
736.686	6.19
737.005	6.39
737.325	6.34
737.644	6.17
737.963	6.13
738.283	5.83
738.602	5.8
738.921	5.74
739.24	5.84
739.56	5.81
739.879	5.87
740.198	5.62
740.517	5.58
740.836	5.85
741.155	5.8
741.473	5.77
741.792	5.38
742.111	5.33
742.43	5.31
742.748	5.19
743.067	5.39
743.386	5.65
743.704	5.3
744.023	5.4
744.341	5.56
744.66	5.93
744.978	6.14
745.297	5.91
745.615	5.74
745.933	5.74
746.252	5.66
746.57	5.58
746.888	5.76
747.206	5.62
747.524	5.75
747.842	5.65
748.16	5.64
748.478	5.51
748.796	5.31
749.114	5.57
749.432	5.6
749.749	5.66
750.067	5.25
750.385	5.35
750.703	5.29
751.02	5.18
751.338	5.02
751.655	5.11
751.973	5.37
752.29	5.52
752.608	5.39
752.925	5.39
753.242	5.36
753.56	5.26
753.877	5.24
754.194	5.01
754.511	4.85
754.828	4.71
755.145	5.04
755.462	5
755.779	4.97
756.096	5.17
756.413	5.03
756.73	5.32
757.047	5.56
757.364	5.62
757.68	5.73
757.997	5.57
758.314	5.42
758.63	5.62
758.947	5.66
759.264	5.79
759.58	5.96
759.896	6.05
760.213	6.21
760.529	6.47
760.846	6.37
761.162	6.49
761.478	6.6
761.794	6.43
762.11	6.45
762.426	6.36
762.743	6.47
763.059	6.56
763.375	6.45
763.69	6.54
764.006	6.45
764.322	6.5
764.638	6.67
764.954	6.93
765.27	6.62
765.585	6.52
765.901	6.51
766.216	6.42
766.532	6.34
766.848	6.14
767.163	6.04
767.478	6.27
767.794	6.55
768.109	6.43
768.424	6.53
768.74	6.71
769.055	6.77
769.37	6.31
769.685	5.99
770	6.06
770.315	5.87
770.63	5.94
770.945	5.96
771.26	5.71
771.575	5.34
771.89	5.35
772.205	5.89
772.52	5.65
772.834	5.47
773.149	5.66
773.464	5.68
773.778	5.74
774.093	5.07
774.407	4.83
774.722	4.86
775.036	4.89
775.351	4.88
775.665	4.77
775.979	5.12
776.293	5.26
776.608	5.18
776.922	4.9
777.236	4.73
777.55	4.46
777.864	4.77
778.178	4.85
778.492	4.91
778.806	4
779.12	4.48
779.434	4.63
779.747	4.47
780.061	4.57
780.375	4.48
780.689	4.81
781.002	4.81
781.316	5.28
781.629	5.67
781.943	5.48
782.256	5.27
782.57	5
782.883	4.91
783.196	5.21
783.51	4.52
783.823	4.68
784.136	4.82
784.449	4.78
784.762	4.89
785.075	5.13
785.388	5.56
785.701	5.46
786.014	5.29
786.327	5.55
786.64	5.57
786.953	5.93
787.266	5.85
787.578	5.99
787.891	5.84
788.204	5.56
788.516	5.88
788.829	6.36
789.141	6.9
789.454	7.41
789.766	7.3
790.079	7.86
790.391	8.05
790.703	8.23
791.016	8.19
791.328	8.17
791.64	7.79
791.952	7.77
792.264	7.21
792.576	7.07
792.888	6.96
793.2	7.19
793.512	6.63
793.824	6.71
794.136	6.62
794.448	6.44
794.76	6.33
795.071	6.24
795.383	5.76
795.695	5.45
796.006	5.16
796.318	5.24
796.629	5.47
796.941	4.88
797.252	5.23
797.564	5.25
797.875	5.21
798.186	5.91
798.497	5.86
798.809	6.05
799.12	6.23
799.431	6.18
799.742	6.09
800.053	6.84
800.364	6.88
800.675	6.79
800.986	6.71
801.297	6.39
801.608	6.28
801.918	5.95
802.229	5.64
802.54	5.73
802.851	5.77
803.161	5.91
803.472	6.39
803.782	5.77
804.093	5.92
804.403	5.66
804.714	5.38
805.024	4.93
805.334	5.2
805.645	5.68
805.955	5.72
806.265	6.04
806.575	5.42
806.885	5.69
807.195	5.76
807.505	6.05
807.815	6.39
808.125	6.4
808.435	7.26
808.745	7.34
809.055	7.49
809.365	7.28
809.674	7.39
809.984	7.51
810.294	7.45
810.603	7.41
810.913	8.31
811.222	8.45
811.532	9.12
811.841	9.4
812.151	9.7
812.46	9.38
812.769	8.16
813.079	8.25
813.388	8.22
813.697	8.42
814.006	7.94
814.315	7.84
814.624	7.65
814.933	7.37
815.242	7.66
815.551	7.68
815.86	7.94
816.169	7.66
816.478	7.24
816.786	7.14
817.095	6.82
817.404	6.47
817.712	5.83
818.021	5.77
818.33	5.48
818.638	5.21
818.947	5.79
819.255	6.89
819.563	7.2
819.872	6.94
820.18	6.96
820.488	7.11
820.796	7.32
821.105	7.34
821.413	7.3
821.721	7.23
822.029	7.18
822.337	7.09
822.645	7.3
822.953	7.41
823.26	7.48
823.568	7.38
823.876	7.38
824.184	7.58
824.491	7.53
824.799	7.65
825.107	7.59
825.414	7.58
825.722	7.44
826.029	7.28
826.337	7.54
826.644	7.52
826.951	7.51
827.259	7.45
827.566	7.38
827.873	7.36
828.18	7.5
828.488	7.46
828.795	7.51
829.102	7.39
829.409	7.5
829.716	7.21
830.023	7.45
830.329	7.16
830.636	7.14
830.943	7.22
831.25	6.87
831.557	6.94
831.863	6.97
832.17	6.76
832.476	7.02
832.783	6.63
833.089	6.64
833.396	6.64
833.702	6.36
834.009	6.46
834.315	6.47
834.621	6.35
834.928	6.67
835.234	6.8
835.54	6.59
835.846	6.4
836.152	6.92
836.458	6.77
836.764	6.81
837.07	6.46
837.376	6.08
837.682	6.31
837.988	6.19
838.293	5.61
838.599	5.56
838.905	5.08
839.211	4.37
839.516	4.08
839.822	3.76
840.127	3.05
840.433	3.41
840.738	3.47
841.044	2.73
841.349	1.86
841.654	1.47
841.959	1.93
842.265	1.49
842.57	0.52
842.875	0.7
843.18	1.11
843.485	1.11
843.79	1.95
844.095	1.33
844.4	2.08
844.705	2.44
845.01	2.28
845.315	1.88
845.619	2.22
845.924	2.34
846.229	1.41
846.533	2.87
846.838	1.79
847.142	1.04
847.447	0.35
847.751	0.88
848.056	-0.11
848.36	-0.96
848.664	-1.22
848.969	-0.65
849.273	-2.06
849.577	-2.85
849.881	-2.78
850.185	-0.82
850.489	1
850.794	-0.09
851.097	1.11
851.401	1.94
851.705	2.24
852.009	3.27
852.313	2.89
852.617	3.59
852.92	5.35
853.224	6.24
853.528	7.03
853.831	7.26
854.135	7.22
854.438	5.78
854.742	5.25
855.045	6.66
855.349	7.38
855.652	8.5
855.955	8.78
856.259	7.31
856.562	6.35
856.865	5.73
857.168	5.43
857.471	4.82
857.774	3.5
858.077	5.46
858.38	6.45
858.683	4.47
858.986	5.61
859.289	4.33
859.592	2.49
859.894	2.03
860.197	1.09
860.5	1.96
860.802	2.79
861.105	5.11
861.407	2.7
861.71	1.06
862.012	0.9
862.315	-0.37
862.617	0.79
862.919	1.31
863.222	1.08
863.524	2.77
863.826	3.59
864.128	4.79
864.43	4.24
864.732	5.06
865.034	6.87
865.336	6.88
865.638	3.9
865.94	3.66
866.242	4.35
866.544	6.42
866.846	5.32
867.147	6.09
867.449	2.61
867.751	3.86
868.052	5.19
868.354	4.67
868.655	7.48
868.957	8.8
869.258	5.9
869.56	4.43
869.861	2.16
870.162	0.34
870.463	-0.05
870.765	1.07
871.066	-0.56
871.367	-1.32
871.668	-2.37
871.969	-0.4
872.27	1.47
872.571	0.35
872.872	0.61
873.173	-1.64
873.473	-1.3
873.774	0.71
874.075	1.25
874.376	2.13
874.676	3.91
874.977	1.07
875.277	-0.38
875.578	1.22
875.878	1.48
876.179	2.64
876.479	3.17
876.78	3.23
877.08	1.55
877.38	1.65
877.68	2.85
877.981	3.94
878.281	3.83
878.581	2.48
