Data from BU26932_Reflection_00014.txt Node
Date: Tue Nov 19 10:44:49 EST 2019
User: vgr7
Spectrometer: USB2G7710
Scans to average: 3
Trigger mode: 4
Integration Time (sec): 2.000000E-2
Electric dark correction enabled: true
Boxcar width: 10
XAxis mode: Wavelengths
Number of Pixels in Spectrum: 2048
>>>>>Begin Spectral Data<<<<<
177.721	90.34
178.105	51.87
178.488	137.02
178.871	400
179.254	-5600
179.636	-581.82
180.019	146.01
180.402	242.86
180.785	236.36
181.168	46.78
181.55	-17.51
181.933	-22.95
182.316	-17.51
182.698	13.65
183.081	-35.57
183.463	-22.18
183.846	-25.78
184.228	10.7
184.611	16.74
184.993	5.76
185.376	9.07
185.758	15.28
186.14	0.43
186.522	13.33
186.904	8.45
187.287	-2.11
187.669	-6.53
188.051	4.56
188.433	-5.83
188.815	-6.28
189.197	-18.35
189.579	-14.29
189.961	-13.69
190.342	-10.65
190.724	-21.95
191.106	-15.72
191.488	-15.55
191.869	-4.93
192.251	-6.07
192.633	5.9
193.014	-6.36
193.396	-4.35
193.777	3.35
194.159	0.58
194.54	0.99
194.922	1.42
195.303	8.82
195.684	6.37
196.065	-18.47
196.447	-19.19
196.828	-26.86
197.209	-2.25
197.59	9.06
197.971	1.22
198.352	3.56
198.733	-6.66
199.114	-21.62
199.495	-16.21
199.876	-18.24
200.257	-25.69
200.638	-31.26
201.018	-21.45
201.399	-20.65
201.78	-34.91
202.16	-25.94
202.541	-25.41
202.922	-7.08
203.302	-0.39
203.683	0.56
204.063	4.03
204.444	5.74
204.824	10.39
205.204	1.99
205.585	5.86
205.965	7.42
206.345	5.76
206.725	21.91
207.106	27.73
207.486	24.32
207.866	16.87
208.246	24.42
208.626	23.77
209.006	23.06
209.386	14.57
209.766	18.74
210.145	9.07
210.525	1.61
210.905	-5.93
211.285	-6.38
211.664	11
212.044	9.27
212.424	18.3
212.803	15.39
213.183	21.36
213.562	6.21
213.942	4.28
214.321	-1.23
214.701	-7.35
215.08	-10.35
215.459	-2.71
215.838	-16.3
216.218	-16.5
216.597	-3.75
216.976	-2.59
217.355	-7.73
217.734	-8.93
218.113	-4.37
218.492	-1.15
218.871	0.26
219.25	-3.52
219.629	-22.84
220.008	-15.26
220.387	-22.9
220.766	-22.22
221.144	-25.83
221.523	-24.04
221.902	-20.73
222.28	-16.96
222.659	-6.09
223.037	-6.64
223.416	-10.88
223.794	3.81
224.173	0.38
224.551	-5.06
224.929	-6.2
225.308	-3.92
225.686	-2.84
226.064	-1.6
226.442	4.51
226.821	3.17
227.199	3.86
227.577	5.53
227.955	6.62
228.333	8.68
228.711	7.89
229.089	8.01
229.467	8.24
229.845	10.94
230.222	10.02
230.6	7.99
230.978	7.26
231.356	5.13
231.733	1.34
232.111	2.57
232.488	2.52
232.866	3.83
233.243	4.69
233.621	5.05
233.998	4.14
234.376	3.78
234.753	5.08
235.13	4.54
235.508	5.78
235.885	6.06
236.262	6.37
236.639	8.75
237.016	7.73
237.393	7.63
237.77	6.36
238.147	7.19
238.524	6.51
238.901	5.92
239.278	6.68
239.655	7.36
240.032	7.51
240.409	7.45
240.785	6.64
241.162	7.11
241.539	6.41
241.915	6.75
242.292	7.09
242.668	6.71
243.045	6.62
243.421	6.57
243.798	6.32
244.174	5.96
244.551	5.53
244.927	5.55
245.303	5.67
245.679	5.62
246.056	5.11
246.432	5.15
246.808	5.25
247.184	5.21
247.56	5.09
247.936	5
248.312	5.1
248.688	5.25
249.064	4.97
249.44	5.11
249.815	5.14
250.191	4.94
250.567	4.97
250.943	5.06
251.318	4.85
251.694	4.66
252.069	4.78
252.445	4.75
252.82	4.78
253.196	4.57
253.571	4.85
253.947	5
254.322	5.35
254.697	5.5
255.073	5.72
255.448	5.74
255.823	5.88
256.198	5.4
256.573	5.37
256.948	5.42
257.323	5.55
257.698	5.35
258.073	5.25
258.448	5.15
258.823	4.97
259.198	5.18
259.573	5.17
259.948	5.13
260.322	4.97
260.697	5.1
261.072	5.11
261.446	4.96
261.821	4.9
262.195	4.74
262.57	4.79
262.944	4.58
263.319	4.6
263.693	4.47
264.067	4.68
264.442	4.48
264.816	4.46
265.19	4.28
265.564	4.41
265.938	4.31
266.313	4.34
266.687	4.33
267.061	4.17
267.435	4.36
267.809	4.31
268.183	4.44
268.556	4.4
268.93	4.37
269.304	4.29
269.678	4.44
270.051	4.5
270.425	4.37
270.799	4.38
271.172	4.34
271.546	4.35
271.919	4.35
272.293	4.53
272.666	4.59
273.04	4.6
273.413	4.34
273.787	4.28
274.16	4.13
274.533	4.15
274.906	4.1
275.279	4.03
275.653	4.08
276.026	4.12
276.399	4.04
276.772	3.94
277.145	3.98
277.518	3.88
277.891	3.81
278.263	3.84
278.636	3.89
279.009	3.77
279.382	3.62
279.755	3.52
280.127	3.5
280.5	3.4
280.872	3.43
281.245	3.56
281.617	3.74
281.99	3.86
282.362	3.87
282.735	3.82
283.107	3.84
283.479	3.81
283.852	3.8
284.224	3.85
284.596	3.96
284.968	4.02
285.34	4.16
285.713	4.31
286.085	4.39
286.457	4.47
286.829	4.66
287.201	4.76
287.572	4.78
287.944	4.8
288.316	4.83
288.688	4.83
289.06	5.01
289.431	4.95
289.803	4.99
290.175	4.92
290.546	5.05
290.918	5.07
291.289	5.02
291.661	5.08
292.032	5.09
292.403	5.21
292.775	5.25
293.146	5.42
293.517	5.28
293.889	5.21
294.26	5.23
294.631	5.27
295.002	5.33
295.373	5.45
295.744	5.48
296.115	5.63
296.486	5.84
296.857	5.87
297.228	5.92
297.599	5.99
297.97	6.19
298.34	6.17
298.711	6.23
299.082	6.43
299.452	6.39
299.823	6.48
300.194	6.43
300.564	6.42
300.935	6.39
301.305	6.5
301.676	6.57
302.046	6.58
302.416	6.59
302.787	6.66
303.157	6.68
303.527	6.72
303.897	6.62
304.267	6.54
304.637	6.57
305.008	6.65
305.378	6.75
305.748	6.74
306.117	6.86
306.487	6.97
306.857	7.11
307.227	7.36
307.597	7.41
307.967	7.6
308.336	7.77
308.706	7.9
309.076	8.2
309.445	8.35
309.815	8.44
310.184	8.54
310.554	8.54
310.923	8.62
311.293	8.77
311.662	8.95
312.031	9.09
312.401	9.08
312.77	9.31
313.139	9.48
313.508	9.6
313.877	9.76
314.246	9.79
314.616	9.9
314.985	9.89
315.353	9.95
315.722	10.12
316.091	10.29
316.46	10.37
316.829	10.18
317.198	10.21
317.567	10.32
317.935	10.36
318.304	10.76
318.672	10.98
319.041	11.17
319.41	11.21
319.778	11.15
320.147	11.29
320.515	11.24
320.883	11.2
321.252	11.38
321.62	11.41
321.988	11.67
322.357	11.59
322.725	11.82
323.093	12
323.461	11.98
323.829	11.92
324.197	11.98
324.565	12.24
324.933	12.23
325.301	12.13
325.669	12.2
326.037	12.12
326.405	12.08
326.772	12.02
327.14	12.15
327.508	12.34
327.875	12.37
328.243	12.47
328.61	12.52
328.978	12.58
329.346	12.61
329.713	12.5
330.08	12.56
330.448	12.63
330.815	12.56
331.182	12.58
331.55	12.71
331.917	12.71
332.284	12.69
332.651	12.8
333.018	13.1
333.385	13.24
333.752	13.24
334.119	13.3
334.486	13.32
334.853	13.36
335.22	13.23
335.587	13.34
335.954	13.37
336.32	13.37
336.687	13.4
337.054	13.44
337.42	13.54
337.787	13.7
338.153	13.68
338.52	13.87
338.886	13.98
339.253	14.03
339.619	14.21
339.986	14.23
340.352	14.37
340.718	14.46
341.084	14.45
341.451	14.46
341.817	14.49
342.183	14.44
342.549	14.44
342.915	14.68
343.281	14.59
343.647	14.61
344.013	14.6
344.379	14.64
344.745	14.71
345.11	14.76
345.476	14.86
345.842	14.82
346.208	14.9
346.573	14.97
346.939	15.04
347.304	14.97
347.67	14.98
348.035	14.85
348.401	14.86
348.766	14.94
349.132	15.06
349.497	15.18
349.862	15.23
350.228	15.32
350.593	15.22
350.958	15.46
351.323	15.41
351.688	15.47
352.053	15.4
352.418	15.48
352.783	15.47
353.148	15.35
353.513	15.31
353.878	15.19
354.243	15.18
354.608	15.16
354.972	15.11
355.337	15.07
355.702	15.15
356.066	15.13
356.431	15.1
356.795	15.03
357.16	15.02
357.524	15
357.889	14.87
358.253	14.85
358.618	14.77
358.982	14.79
359.346	14.83
359.71	14.8
360.075	14.7
360.439	14.74
360.803	14.77
361.167	14.82
361.531	14.85
361.895	14.77
362.259	14.72
362.623	14.77
362.987	14.8
363.351	14.73
363.714	14.7
364.078	14.63
364.442	14.63
364.806	14.57
365.169	14.55
365.533	14.62
365.896	14.69
366.26	14.6
366.623	14.59
366.987	14.47
367.35	14.48
367.714	14.48
368.077	14.32
368.44	14.23
368.803	14.1
369.167	13.96
369.53	13.93
369.893	13.9
370.256	13.72
370.619	13.59
370.982	13.47
371.345	13.36
371.708	13.29
372.071	13.13
372.434	12.97
372.797	13
373.159	12.87
373.522	12.68
373.885	12.61
374.247	12.5
374.61	12.5
374.973	12.44
375.335	12.29
375.698	12.23
376.06	12.14
376.423	12.11
376.785	12.05
377.147	11.98
377.51	11.85
377.872	11.84
378.234	11.78
378.596	11.77
378.958	11.7
379.321	11.57
379.683	11.55
380.045	11.48
380.407	11.33
380.769	11.23
381.13	11.17
381.492	11.07
381.854	10.93
382.216	10.82
382.578	10.74
382.939	10.7
383.301	10.65
383.663	10.6
384.024	10.54
384.386	10.51
384.747	10.44
385.109	10.45
385.47	10.4
385.832	10.29
386.193	10.22
386.554	10.15
386.916	10.11
387.277	10.09
387.638	10.08
387.999	10.07
388.36	10.05
388.721	9.96
389.082	9.92
389.443	9.89
389.804	9.84
390.165	9.74
390.526	9.67
390.887	9.58
391.248	9.49
391.609	9.42
391.969	9.33
392.33	9.24
392.691	9.11
393.051	9.03
393.412	9.01
393.772	8.96
394.133	8.86
394.493	8.82
394.854	8.72
395.214	8.66
395.574	8.55
395.935	8.44
396.295	8.36
396.655	8.25
397.015	8.17
397.376	8.07
397.736	7.99
398.096	7.93
398.456	7.82
398.816	7.75
399.176	7.65
399.535	7.6
399.895	7.53
400.255	7.49
400.615	7.4
400.975	7.33
401.334	7.23
401.694	7.23
402.054	7.17
402.413	7.12
402.773	7.08
403.132	7.03
403.492	7.01
403.851	6.96
404.211	6.98
404.57	6.96
404.929	6.93
405.288	6.91
405.648	6.87
406.007	6.86
406.366	6.85
406.725	6.8
407.084	6.75
407.443	6.74
407.802	6.74
408.161	6.72
408.52	6.7
408.879	6.72
409.238	6.67
409.596	6.63
409.955	6.58
410.314	6.53
410.673	6.47
411.031	6.39
411.39	6.44
411.748	6.38
412.107	6.35
412.465	6.31
412.824	6.29
413.182	6.25
413.54	6.24
413.899	6.18
414.257	6.18
414.615	6.15
414.974	6.11
415.332	6.06
415.69	6.03
416.048	5.98
416.406	5.89
416.764	5.85
417.122	5.81
417.48	5.79
417.838	5.75
418.195	5.73
418.553	5.72
418.911	5.66
419.269	5.62
419.626	5.59
419.984	5.55
420.342	5.54
420.699	5.51
421.057	5.46
421.414	5.43
421.772	5.4
422.129	5.36
422.486	5.34
422.844	5.32
423.201	5.29
423.558	5.27
423.915	5.27
424.273	5.24
424.63	5.23
424.987	5.2
425.344	5.19
425.701	5.16
426.058	5.13
426.415	5.11
426.772	5.09
427.128	5.07
427.485	5.07
427.842	5.01
428.199	4.98
428.555	4.99
428.912	4.96
429.269	4.94
429.625	4.94
429.982	4.94
430.338	4.91
430.695	4.91
431.051	4.94
431.407	4.94
431.764	4.94
432.12	4.94
432.476	4.95
432.832	4.94
433.189	4.94
433.545	4.94
433.901	4.95
434.257	4.96
434.613	4.94
434.969	4.94
435.325	4.98
435.681	5.01
436.036	5.01
436.392	5.03
436.748	5.05
437.104	5.05
437.459	5.05
437.815	5.07
438.171	5.06
438.526	5.04
438.882	5.02
439.237	5.02
439.593	5.02
439.948	5
440.304	4.99
440.659	5
441.014	4.99
441.369	4.99
441.725	4.98
442.08	4.97
442.435	4.96
442.79	4.94
443.145	4.93
443.5	4.91
443.855	4.87
444.21	4.84
444.565	4.83
444.92	4.81
445.275	4.78
445.629	4.77
445.984	4.74
446.339	4.73
446.693	4.72
447.048	4.7
447.403	4.7
447.757	4.69
448.112	4.67
448.466	4.66
448.82	4.64
449.175	4.63
449.529	4.62
449.883	4.6
450.238	4.59
450.592	4.57
450.946	4.55
451.3	4.56
451.654	4.56
452.008	4.55
452.362	4.53
452.716	4.52
453.07	4.5
453.424	4.5
453.778	4.49
454.132	4.49
454.486	4.5
454.839	4.47
455.193	4.47
455.547	4.47
455.9	4.46
456.254	4.47
456.607	4.46
456.961	4.46
457.314	4.47
457.668	4.48
458.021	4.48
458.375	4.5
458.728	4.5
459.081	4.5
459.434	4.5
459.787	4.51
460.141	4.51
460.494	4.53
460.847	4.53
461.2	4.55
461.553	4.55
461.906	4.58
462.259	4.6
462.611	4.63
462.964	4.65
463.317	4.67
463.67	4.69
464.022	4.73
464.375	4.75
464.728	4.77
465.08	4.8
465.433	4.84
465.785	4.86
466.138	4.91
466.49	4.95
466.843	5
467.195	5.04
467.547	5.09
467.899	5.11
468.252	5.16
468.604	5.17
468.956	5.23
469.308	5.25
469.66	5.26
470.012	5.29
470.364	5.31
470.716	5.35
471.068	5.4
471.42	5.43
471.772	5.46
472.123	5.48
472.475	5.5
472.827	5.51
473.178	5.53
473.53	5.52
473.882	5.52
474.233	5.51
474.585	5.5
474.936	5.49
475.288	5.49
475.639	5.48
475.99	5.48
476.342	5.46
476.693	5.44
477.044	5.45
477.395	5.43
477.746	5.4
478.097	5.38
478.448	5.34
478.8	5.29
479.15	5.25
479.501	5.24
479.852	5.2
480.203	5.19
480.554	5.17
480.905	5.17
481.255	5.16
481.606	5.14
481.957	5.13
482.307	5.13
482.658	5.14
483.009	5.13
483.359	5.13
483.709	5.12
484.06	5.12
484.41	5.11
484.761	5.11
485.111	5.12
485.461	5.12
485.811	5.11
486.162	5.12
486.512	5.14
486.862	5.14
487.212	5.16
487.562	5.16
487.912	5.17
488.262	5.16
488.612	5.17
488.961	5.19
489.311	5.2
489.661	5.21
490.011	5.22
490.36	5.23
490.71	5.24
491.06	5.27
491.409	5.27
491.759	5.3
492.108	5.32
492.458	5.35
492.807	5.39
493.157	5.45
493.506	5.48
493.855	5.52
494.204	5.57
494.554	5.62
494.903	5.69
495.252	5.76
495.601	5.84
495.95	5.93
496.299	6
496.648	6.09
496.997	6.17
497.346	6.27
497.695	6.4
498.043	6.51
498.392	6.59
498.741	6.73
499.09	6.83
499.438	6.96
499.787	7.07
500.135	7.2
500.484	7.32
500.832	7.48
501.181	7.64
501.529	7.8
501.878	7.97
502.226	8.14
502.574	8.33
502.923	8.53
503.271	8.73
503.619	8.96
503.967	9.18
504.315	9.4
504.663	9.64
505.011	9.87
505.359	10.09
505.707	10.36
506.055	10.62
506.403	10.87
506.751	11.12
507.098	11.43
507.446	11.72
507.794	12.01
508.141	12.27
508.489	12.55
508.837	12.83
509.184	13.13
509.531	13.43
509.879	13.7
510.226	13.98
510.574	14.27
510.921	14.54
511.268	14.84
511.616	15.16
511.963	15.45
512.31	15.77
512.657	16.11
513.004	16.43
513.351	16.75
513.698	17.12
514.045	17.49
514.392	17.81
514.739	18.16
515.086	18.51
515.432	18.88
515.779	19.2
516.126	19.57
516.473	19.83
516.819	20.12
517.166	20.43
517.512	20.71
517.859	20.98
518.205	21.23
518.552	21.5
518.898	21.77
519.245	22.02
519.591	22.27
519.937	22.55
520.283	22.82
520.629	23.07
520.976	23.36
521.322	23.64
521.668	23.91
522.014	24.21
522.36	24.49
522.706	24.77
523.052	25.07
523.398	25.36
523.743	25.71
524.089	26.06
524.435	26.38
524.781	26.64
525.126	26.94
525.472	27.2
525.817	27.47
526.163	27.69
526.509	27.91
526.854	28.11
527.199	28.28
527.545	28.46
527.89	28.64
528.235	28.79
528.581	28.96
528.926	29.13
529.271	29.31
529.616	29.46
529.961	29.65
530.306	29.83
530.651	30.01
530.996	30.21
531.341	30.4
531.686	30.58
532.031	30.77
532.376	30.95
532.721	31.15
533.065	31.3
533.41	31.49
533.755	31.67
534.099	31.89
534.444	32.08
534.788	32.22
535.133	32.4
535.477	32.6
535.822	32.78
536.166	32.99
536.51	33.17
536.855	33.43
537.199	33.65
537.543	33.91
537.887	34.16
538.231	34.37
538.576	34.59
538.92	34.79
539.264	35.01
539.608	35.2
539.951	35.39
540.295	35.57
540.639	35.73
540.983	35.89
541.327	36.04
541.671	36.18
542.014	36.37
542.358	36.56
542.701	36.71
543.045	36.87
543.389	36.99
543.732	37.15
544.075	37.27
544.419	37.41
544.762	37.52
545.105	37.65
545.449	37.79
545.792	37.91
546.135	38.11
546.478	38.27
546.821	38.47
547.165	38.66
547.508	38.82
547.851	38.99
548.194	39.15
548.536	39.34
548.879	39.5
549.222	39.66
549.565	39.77
549.908	39.9
550.25	40.04
550.593	40.24
550.936	40.35
551.278	40.51
551.621	40.64
551.963	40.82
552.306	40.97
552.648	41.12
552.991	41.26
553.333	41.34
553.675	41.45
554.017	41.51
554.36	41.56
554.702	41.68
555.044	41.79
555.386	41.91
555.728	41.97
556.07	42.1
556.412	42.18
556.754	42.25
557.096	42.38
557.438	42.51
557.78	42.6
558.121	42.72
558.463	42.87
558.805	42.95
559.147	43.04
559.488	43.13
559.83	43.22
560.171	43.34
560.513	43.45
560.854	43.59
561.196	43.71
561.537	43.86
561.878	43.96
562.22	44.01
562.561	43.99
562.902	44.08
563.243	44.14
563.584	44.17
563.925	44.28
564.266	44.38
564.607	44.42
564.948	44.45
565.289	44.54
565.63	44.59
565.971	44.65
566.312	44.67
566.653	44.7
566.993	44.7
567.334	44.75
567.675	44.81
568.015	44.86
568.356	44.9
568.696	44.9
569.037	44.95
569.377	45.03
569.718	45.11
570.058	45.17
570.398	45.2
570.739	45.34
571.079	45.32
571.419	45.28
571.759	45.39
572.099	45.42
572.439	45.43
572.779	45.46
573.119	45.58
573.459	45.68
573.799	45.7
574.139	45.78
574.479	45.81
574.819	45.87
575.158	45.94
575.498	45.98
575.838	46.08
576.177	46.12
576.517	46.17
576.856	46.25
577.196	46.2
577.535	46.29
577.875	46.29
578.214	46.44
578.553	46.51
578.893	46.53
579.232	46.64
579.571	46.7
579.91	46.75
580.25	46.72
580.589	46.7
580.928	46.83
581.267	46.98
581.606	47.08
581.945	47.07
582.283	47.11
582.622	47.15
582.961	47.19
583.3	47.22
583.639	47.27
583.977	47.29
584.316	47.39
584.654	47.41
584.993	47.45
585.332	47.47
585.67	47.5
586.008	47.45
586.347	47.47
586.685	47.49
587.024	47.59
587.362	47.62
587.7	47.76
588.038	47.8
588.376	47.77
588.715	47.75
589.053	47.87
589.391	47.89
589.729	47.88
590.067	47.88
590.404	47.86
590.742	47.93
591.08	48
591.418	48.04
591.756	48.12
592.093	48.13
592.431	48.06
592.769	48.12
593.106	48.21
593.444	48.22
593.781	48.21
594.119	48.22
594.456	48.24
594.793	48.18
595.131	48.14
595.468	48.09
595.805	48.14
596.143	48.05
596.48	48.03
596.817	48.17
597.154	48.24
597.491	48.32
597.828	48.31
598.165	48.36
598.502	48.32
598.839	48.34
599.176	48.45
599.512	48.54
599.849	48.56
600.186	48.53
600.523	48.59
600.859	48.64
601.196	48.64
601.532	48.75
601.869	48.79
602.205	48.79
602.542	48.86
602.878	48.88
603.215	48.97
603.551	49.03
603.887	48.97
604.223	49
604.56	49
604.896	49.04
605.232	48.98
605.568	49.07
605.904	49.05
606.24	49.04
606.576	49.1
606.912	49.1
607.248	49.13
607.583	49.07
607.919	49.13
608.255	49.15
608.591	49.07
608.926	49.08
609.262	49.1
609.597	49.11
609.933	49.08
610.268	49.09
610.604	49.07
610.939	49.12
611.275	49.14
611.61	49.15
611.945	49.14
612.281	49.26
612.616	49.22
612.951	49.14
613.286	49.06
613.621	48.98
613.956	49.05
614.291	49.04
614.626	49.14
614.961	49.19
615.296	49.2
615.631	49.19
615.966	49.19
616.3	49.26
616.635	49.25
616.97	49.29
617.304	49.32
617.639	49.24
617.973	49.22
618.308	49.13
618.642	49.09
618.977	49.07
619.311	49.06
619.646	49.08
619.98	49.14
620.314	49.23
620.648	49.26
620.983	49.19
621.317	49.27
621.651	49.26
621.985	49.2
622.319	49.11
622.653	49.21
622.987	49.24
623.321	49.21
623.655	49.27
623.988	49.26
624.322	49.29
624.656	49.4
624.99	49.36
625.323	49.44
625.657	49.52
625.99	49.55
626.324	49.51
626.657	49.61
626.991	49.67
627.324	49.69
627.658	49.73
627.991	49.79
628.324	49.82
628.657	49.87
628.991	49.9
629.324	50.04
629.657	50.03
629.99	50.05
630.323	50.08
630.656	50.1
630.989	50.11
631.322	50.08
631.655	50.13
631.987	50.24
632.32	50.24
632.653	50.23
632.986	50.18
633.318	50.27
633.651	50.21
633.984	50.21
634.316	50.17
634.649	50.24
634.981	50.21
635.313	50.18
635.646	50.22
635.978	50.2
636.31	50.11
636.643	50.09
636.975	50.07
637.307	50.1
637.639	50.11
637.971	50.12
638.303	50.2
638.635	50.09
638.967	49.99
639.299	50
639.631	50
639.963	50.09
640.295	50.1
640.626	50.19
640.958	50.15
641.29	50.13
641.621	50.07
641.953	50.08
642.285	50.09
642.616	49.98
642.948	49.96
643.279	49.93
643.61	49.95
643.942	49.97
644.273	50
644.604	49.97
644.936	50.03
645.267	50.06
645.598	50.17
645.929	50.2
646.26	50.27
646.591	50.24
646.922	50.29
647.253	50.24
647.584	50.15
647.915	50.31
648.245	50.35
648.576	50.42
648.907	50.45
649.238	50.47
649.568	50.5
649.899	50.58
650.229	50.69
650.56	50.63
650.89	50.66
651.221	50.66
651.551	50.73
651.882	50.7
652.212	50.65
652.542	50.61
652.872	50.63
653.203	50.61
653.533	50.69
653.863	50.54
654.193	50.57
654.523	50.45
654.853	50.48
655.183	50.51
655.513	50.48
655.843	50.48
656.172	50.43
656.502	50.53
656.832	50.48
657.162	50.49
657.491	50.5
657.821	50.46
658.15	50.49
658.48	50.45
658.809	50.54
659.139	50.61
659.468	50.63
659.798	50.68
660.127	50.63
660.456	50.61
660.785	50.64
661.115	50.65
661.444	50.7
661.773	50.7
662.102	50.62
662.431	50.58
662.76	50.64
663.089	50.64
663.418	50.62
663.747	50.72
664.076	50.72
664.404	50.84
664.733	50.97
665.062	50.96
665.39	50.88
665.719	50.75
666.048	50.58
666.376	50.59
666.705	50.54
667.033	50.48
667.362	50.53
667.69	50.61
668.018	50.57
668.347	50.62
668.675	50.58
669.003	50.63
669.331	50.76
669.659	50.81
669.987	50.82
670.315	50.85
670.643	50.74
670.971	50.71
671.299	50.7
671.627	50.62
671.955	50.51
672.283	50.64
672.61	50.75
672.938	50.86
673.266	50.99
673.593	50.94
673.921	51.15
674.249	51.17
674.576	51.09
674.904	51.02
675.231	51.19
675.558	51.23
675.886	51.23
676.213	51.14
676.54	51.16
676.867	51.15
677.195	51.12
677.522	51.17
677.849	51.12
678.176	51.15
678.503	51.11
678.83	51.26
679.157	51.25
679.484	51.16
679.81	51.12
680.137	51.07
680.464	51.15
680.791	51.01
681.117	50.85
681.444	50.93
681.771	51.02
682.097	50.94
682.424	50.8
682.75	50.77
683.077	50.85
683.403	50.69
683.729	50.78
684.056	50.73
684.382	50.68
684.708	50.75
685.034	50.69
685.36	50.73
685.686	50.67
686.012	50.62
686.339	50.77
686.664	50.88
686.99	50.8
687.316	50.82
687.642	50.88
687.968	50.96
688.294	50.85
688.619	50.85
688.945	50.75
689.271	50.74
689.596	50.76
689.922	50.72
690.247	50.8
690.573	50.74
690.898	50.68
691.224	50.68
691.549	50.64
691.874	50.63
692.2	50.52
692.525	50.54
692.85	50.48
693.175	50.25
693.5	50.16
693.825	50.21
694.15	50.27
694.475	50.28
694.8	50.3
695.125	50.41
695.45	50.37
695.775	50.56
696.099	50.63
696.424	50.73
696.749	50.78
697.073	50.76
697.398	50.8
697.723	50.86
698.047	50.93
698.372	50.83
698.696	50.82
699.02	50.9
699.345	50.79
699.669	50.94
699.993	51.06
700.318	50.92
700.642	50.8
700.966	50.78
701.29	50.72
701.614	50.74
701.938	50.72
702.262	50.59
702.586	50.57
702.91	50.43
703.234	50.25
703.557	50.23
703.881	50.28
704.205	50.29
704.529	50.36
704.852	50.19
705.176	50.32
705.499	50.26
705.823	50.17
706.146	50.32
706.47	50.25
706.793	50.3
707.117	50.38
707.44	50.45
707.763	50.54
708.086	50.6
708.409	50.57
708.733	50.39
709.056	50.6
709.379	50.58
709.702	50.68
710.025	50.75
710.348	50.74
710.671	50.71
710.993	50.79
711.316	50.81
711.639	50.97
711.962	50.79
712.284	50.73
712.607	50.84
712.93	50.91
713.252	50.82
713.575	50.68
713.897	50.85
714.22	50.86
714.542	50.89
714.864	50.74
715.187	50.66
715.509	50.82
715.831	50.74
716.153	50.61
716.475	50.7
716.798	50.64
717.12	50.57
717.442	50.66
717.764	50.49
718.085	50.54
718.407	50.55
718.729	50.91
719.051	51.1
719.373	51.25
719.695	51.03
720.016	50.95
720.338	51.17
720.659	51.26
720.981	51.28
721.302	51.18
721.624	51.45
721.945	51.52
722.267	51.62
722.588	51.78
722.909	51.78
723.231	51.72
723.552	52.01
723.873	51.99
724.194	51.7
724.515	51.71
724.836	51.56
725.157	51.46
725.478	51.39
725.799	51.32
726.12	50.96
726.441	51.13
726.762	51.29
727.083	51.21
727.403	51.16
727.724	51.1
728.045	51.14
728.365	50.89
728.686	50.97
729.006	50.88
729.327	50.87
729.647	51.18
729.967	51.19
730.288	51.25
730.608	51.22
730.928	51.44
731.249	51.39
731.569	51.52
731.889	51.59
732.209	51.57
732.529	51.58
732.849	51.85
733.169	52
733.489	51.89
733.809	51.87
734.129	51.8
734.448	51.92
734.768	51.75
735.088	51.84
735.408	51.75
735.727	51.7
736.047	51.57
736.366	51.33
736.686	51.25
737.005	50.97
737.325	50.8
737.644	50.51
737.963	50.62
738.283	50.38
738.602	50.36
738.921	50.32
739.24	50.52
739.56	50.61
739.879	50.39
740.198	50.69
740.517	50.52
740.836	50.41
741.155	50.42
741.473	50.43
741.792	50.46
742.111	50.76
742.43	51.28
742.748	51.53
743.067	51.57
743.386	51.41
743.704	51.78
744.023	52.04
744.341	52.16
744.66	52.14
744.978	52.15
745.297	52.09
745.615	52.16
745.933	51.89
746.252	51.83
746.57	51.86
746.888	51.53
747.206	51.94
747.524	51.98
747.842	52.08
748.16	52.2
748.478	52.22
748.796	52.1
749.114	51.45
749.432	50.97
749.749	50.8
750.067	51
750.385	50.76
750.703	50.61
751.02	50.66
751.338	50.71
751.655	50.92
751.973	51.18
752.29	51.14
752.608	51.23
752.925	51.04
753.242	51.07
753.56	51.2
753.877	50.9
754.194	50.88
754.511	50.8
754.828	50.44
755.145	50.44
755.462	50.5
755.779	50.89
756.096	51.12
756.413	51.31
756.73	51.31
757.047	51.18
757.364	51.7
757.68	51.82
757.997	51.96
758.314	52.23
758.63	51.75
758.947	51.84
759.264	51.88
759.58	52.08
759.896	52.14
760.213	52.21
760.529	52.34
760.846	52.23
761.162	52.26
761.478	52.39
761.794	52.19
762.11	51.85
762.426	51.54
762.743	51.8
763.059	51.97
763.375	51.96
763.69	52.1
764.006	51.9
764.322	52.05
764.638	51.9
764.954	51.59
765.27	51.73
765.585	51.8
765.901	51.72
766.216	51.52
766.532	51.35
766.848	51.31
767.163	51.18
767.478	51.29
767.794	51.26
768.109	51.25
768.424	51.19
768.74	51.37
769.055	51.37
769.37	51
769.685	50.76
770	50.6
770.315	50.37
770.63	50.43
770.945	50.29
771.26	50.46
771.575	50.78
771.89	50.96
772.205	50.74
772.52	50.89
772.834	50.87
773.149	51.08
773.464	50.93
773.778	51.25
774.093	51.43
774.407	51.55
774.722	51.37
775.036	51.96
775.351	51.84
775.665	52.03
775.979	52.1
776.293	52.37
776.608	52.74
776.922	52.66
777.236	52.65
777.55	52.35
777.864	52.1
778.178	51.28
778.492	51.1
778.806	51.03
779.12	50.49
779.434	50.77
779.747	50.73
780.061	50.89
780.375	51.09
780.689	51.18
781.002	51.12
781.316	51.58
781.629	51.22
781.943	51.57
782.256	51.24
782.57	51.59
782.883	51.43
783.196	51.16
783.51	51.33
783.823	51.37
784.136	51.91
784.449	51.79
784.762	52.12
785.075	52.25
785.388	52.49
785.701	53.17
786.014	52.99
786.327	52.98
786.64	52.94
786.953	52.63
787.266	52.18
787.578	52.14
787.891	52.27
788.204	52.54
788.516	52.59
788.829	52.95
789.141	52.39
789.454	51.99
789.766	51.91
790.079	51.81
790.391	51.59
790.703	51.28
791.016	51.37
791.328	51.72
791.64	51.72
791.952	51.42
792.264	50.94
792.576	50.82
792.888	51.1
793.2	51.07
793.512	50.85
793.824	50.5
794.136	50.49
794.448	50.35
794.76	50.44
795.071	50.15
795.383	50.11
795.695	50.81
796.006	51.28
796.318	51.97
796.629	52.31
796.941	52.44
797.252	52.07
797.564	52.32
797.875	51.84
798.186	51.69
798.497	51.95
798.809	51.76
799.12	51.84
799.431	51.36
799.742	51.61
800.053	51.77
800.364	52.33
800.675	52.42
800.986	51.96
801.297	51.61
801.608	51.77
801.918	51.6
802.229	51.16
802.54	50.9
802.851	50.67
803.161	50.26
803.472	50.15
803.782	50.59
804.093	50.18
804.403	50.91
804.714	50.65
805.024	50.42
805.334	51.18
805.645	50.78
805.955	51.37
806.265	51.12
806.575	51.18
806.885	50.8
807.195	50.53
807.505	50.5
807.815	50.59
808.125	50.65
808.435	50.32
808.745	50.23
809.055	50.74
809.365	50.95
809.674	51.24
809.984	51.18
810.294	50.89
810.603	51.36
810.913	50.95
811.222	51.54
811.532	52.1
811.841	51.78
812.151	52.32
812.46	52.19
812.769	52.03
813.079	52.63
813.388	53.27
813.697	53.05
814.006	54.28
814.315	54.61
814.624	54.63
814.933	55.13
815.242	55.18
815.551	54.31
815.86	53.77
816.169	53.58
816.478	54.46
816.786	54.96
817.095	55.06
817.404	55.15
817.712	54.31
818.021	53.3
818.33	53.29
818.638	53.08
818.947	52.73
819.255	53.08
819.563	52.69
819.872	52.61
820.18	52.91
820.488	52.36
820.796	52.01
821.105	52.11
821.413	52.32
821.721	52.29
822.029	52.42
822.337	52.62
822.645	52.69
822.953	52.65
823.26	52.7
823.568	52.52
823.876	52.39
824.184	52.35
824.491	52.46
824.799	52.49
825.107	52.73
825.414	52.8
825.722	52.67
826.029	52.75
826.337	52.87
826.644	52.98
826.951	53.4
827.259	53.52
827.566	53.49
827.873	53.28
828.18	53.55
828.488	53.45
828.795	53.33
829.102	53.18
829.409	52.92
829.716	52.83
830.023	52.96
830.329	53.17
830.636	53.62
830.943	53.74
831.25	53.76
831.557	53.34
831.863	53.27
832.17	53.18
832.476	53.02
832.783	52.44
833.089	52.32
833.396	51.58
833.702	51.82
834.009	51.69
834.315	51.6
834.621	51.23
834.928	51.83
835.234	51.89
835.54	52.19
835.846	52.21
836.152	52.68
836.458	52.55
836.764	52.47
837.07	52.75
837.376	52.69
837.682	52.37
837.988	52.31
838.293	52.17
838.599	51.78
838.905	51.44
839.211	51.32
839.516	50.84
839.822	51.27
840.127	50.8
840.433	51.08
840.738	51.38
841.044	50.79
841.349	50.42
841.654	49.49
841.959	48.56
842.265	48.46
842.57	46.95
842.875	48.06
843.18	48.27
843.485	47.25
843.79	46.6
844.095	47.39
844.4	47.46
844.705	48.17
845.01	49.79
845.315	50.67
845.619	52.4
845.924	51.24
846.229	52.14
846.533	51.79
846.838	51.18
847.142	51.17
847.447	52.84
847.751	51.94
848.056	53.8
848.36	54.47
848.664	54.34
848.969	55.74
849.273	54.48
849.577	54.2
849.881	52.89
850.185	52.53
850.489	52.62
850.794	53.32
851.097	54.12
851.401	53.92
851.705	52.26
852.009	51.66
852.313	52.29
852.617	49.86
852.92	53.74
853.224	52.93
853.528	54.13
853.831	53.4
854.135	55.09
854.438	53.96
854.742	53.38
855.045	52.99
855.349	53.04
855.652	52.89
855.955	51.61
856.259	52.84
856.562	54.46
856.865	54.15
857.168	52.57
857.471	50.28
857.774	50.65
858.077	50.15
858.38	50.14
858.683	52.25
858.986	50.85
859.289	49.69
859.592	51.21
859.894	49.53
860.197	51.16
860.5	51.7
860.802	51.8
861.105	51.68
861.407	51.67
861.71	52.94
862.012	51.8
862.315	52.91
862.617	54.67
862.919	54.74
863.222	53.82
863.524	54.3
863.826	55.01
864.128	55.61
864.43	57.29
864.732	55.21
865.034	55
865.336	55.84
865.638	55.02
865.94	53.48
866.242	54.95
866.544	52.75
866.846	52.68
867.147	55.34
867.449	57.21
867.751	58.05
868.052	54.56
868.354	54.75
868.655	53.74
868.957	54.02
869.258	52.01
869.56	51.85
869.861	52.97
870.162	53.46
870.463	52.52
870.765	50.81
871.066	51.71
871.367	50.78
871.668	50.98
871.969	50.28
872.27	53.13
872.571	52.64
872.872	52.83
873.173	51.28
873.473	47.49
873.774	48.28
874.075	48.71
874.376	48.4
874.676	49.04
874.977	52.65
875.277	51.58
875.578	54.18
875.878	55.03
876.179	54.53
876.479	54.16
876.78	53.8
877.08	55.92
877.38	56.9
877.68	57.09
877.981	58.96
878.281	58.65
878.581	55.59
