Data from BU26851_Reflection_00009.txt Node
Date: Mon Nov 18 16:48:22 EST 2019
User: vgr7
Spectrometer: USB2G7710
Scans to average: 3
Trigger mode: 4
Integration Time (sec): 2.000000E-2
Electric dark correction enabled: true
Boxcar width: 10
XAxis mode: Wavelengths
Number of Pixels in Spectrum: 2048
>>>>>Begin Spectral Data<<<<<
177.721	-105.56
178.105	-521.62
178.488	720.25
178.871	-412.4
179.254	2015.25
179.636	-52.09
180.019	2218.64
180.402	30.56
180.785	20.61
181.168	-120.15
181.55	-200.7
181.933	66.84
182.316	147.24
182.698	123.03
183.081	126.77
183.463	-13.4
183.846	-126.84
184.228	-1416.13
184.611	712.9
184.993	896.61
185.376	56.52
185.758	97.83
186.14	422.18
186.522	289.71
186.904	-2806.98
187.287	1214.83
187.669	-852.66
188.051	981.77
188.433	-1200.75
188.815	-142.12
189.197	-289.2
189.579	-246.19
189.961	-214.64
190.342	-213.19
190.724	-206.06
191.106	-364.76
191.488	-1474.9
191.869	2533.63
192.251	-1183.74
192.633	23463.64
193.014	-1970.87
193.396	-262.05
193.777	-730.82
194.159	-872.88
194.54	-515.93
194.922	-5267.35
195.303	-555.17
195.684	-955.25
196.065	-385.34
196.447	-548.56
196.828	-462.33
197.209	-524.31
197.59	3789.66
197.971	945.16
198.352	-326.71
198.733	-182.94
199.114	-125.98
199.495	-79.54
199.876	-100.92
200.257	-43.87
200.638	-37.53
201.018	-81.45
201.399	-110.78
201.78	-76.76
202.16	-76.73
202.541	-133.51
202.922	-139.87
203.302	-189.81
203.683	-203.12
204.063	-298.06
204.444	-254.84
204.824	-350.06
205.204	-169.45
205.585	-166.15
205.965	-168.06
206.345	-270.6
206.725	-663.86
207.106	-1846.75
207.486	1661.58
207.866	1162.72
208.246	485.07
208.626	460.72
209.006	2067.74
209.386	2072.97
209.766	6873.58
210.145	842.24
210.525	1729.37
210.905	-495.57
211.285	-354.87
211.664	-212.3
212.044	-74.93
212.424	-62.15
212.803	-62.7
213.183	-45.09
213.562	-39.36
213.942	3.52
214.321	-18.13
214.701	-4.61
215.08	3.94
215.459	7.13
215.838	20.78
216.218	12.62
216.597	21.67
216.976	25.21
217.355	22.64
217.734	14.35
218.113	22.8
218.492	18.16
218.871	9.21
219.25	19.98
219.629	10.26
220.008	6.78
220.387	-0.82
220.766	2.71
221.144	-31.01
221.523	-37.65
221.902	-41.7
222.28	-32.82
222.659	-50.26
223.037	-35.06
223.416	-38.01
223.794	-37.36
224.173	-27.62
224.551	-21.1
224.929	-21.44
225.308	-11.78
225.686	-8.13
226.064	-8.08
226.442	-9.64
226.821	-1.23
227.199	-3.99
227.577	-4.94
227.955	-2.85
228.333	-1.57
228.711	-0.55
229.089	5.53
229.467	1.05
229.845	-0.97
230.222	1.89
230.6	3.58
230.978	2.69
231.356	3.95
231.733	2.28
232.111	2.09
232.488	2.57
232.866	2.73
233.243	3.58
233.621	1.65
233.998	2.74
234.376	0.83
234.753	-1.43
235.13	-1.35
235.508	0.03
235.885	-0
236.262	-0.54
236.639	-2.21
237.016	-1.69
237.393	1.18
237.77	1.52
238.147	1.48
238.524	2.82
238.901	3.13
239.278	2.99
239.655	3.97
240.032	4.02
240.409	4.31
240.785	4.35
241.162	4.95
241.539	4.93
241.915	4.18
242.292	4.12
242.668	4.08
243.045	4.39
243.421	4.22
243.798	4.1
244.174	3.84
244.551	4.02
244.927	3.95
245.303	4.02
245.679	4.1
246.056	4
246.432	3.54
246.808	3.75
247.184	3.59
247.56	3.12
247.936	3
248.312	2.73
248.688	2.76
249.064	2.27
249.44	2.32
249.815	2.38
250.191	2.51
250.567	2.77
250.943	2.55
251.318	2.67
251.694	2.48
252.069	2.47
252.445	2.53
252.82	2.39
253.196	2.03
253.571	1.71
253.947	1.62
254.322	2.11
254.697	1.72
255.073	1.5
255.448	1.97
255.823	2.15
256.198	2.28
256.573	2
256.948	2.16
257.323	2.45
257.698	2.47
258.073	2.44
258.448	2.27
258.823	2.24
259.198	2.14
259.573	2.1
259.948	2.21
260.322	2.13
260.697	2.12
261.072	2.03
261.446	2.03
261.821	1.84
262.195	1.89
262.57	1.82
262.944	1.96
263.319	1.79
263.693	1.72
264.067	1.68
264.442	1.98
264.816	1.96
265.19	1.76
265.564	1.85
265.938	1.99
266.313	1.99
266.687	2.05
267.061	2.2
267.435	2.19
267.809	2.09
268.183	2.1
268.556	2.08
268.93	2.48
269.304	2.66
269.678	2.74
270.051	2.52
270.425	2.46
270.799	2.57
271.172	2.57
271.546	2.6
271.919	2.66
272.293	2.54
272.666	2.62
273.04	2.78
273.413	2.56
273.787	2.48
274.16	2.31
274.533	2.36
274.906	2.28
275.279	2.29
275.653	2.43
276.026	2.4
276.399	2.35
276.772	2.24
277.145	2.06
277.518	2.17
277.891	2.37
278.263	2.42
278.636	2.4
279.009	2.61
279.382	2.72
279.755	2.67
280.127	2.6
280.5	2.58
280.872	2.55
281.245	2.56
281.617	2.71
281.99	2.76
282.362	2.73
282.735	2.63
283.107	2.74
283.479	2.71
283.852	2.61
284.224	2.66
284.596	2.47
284.968	2.54
285.34	2.58
285.713	2.31
286.085	2.41
286.457	2.47
286.829	2.46
287.201	2.43
287.572	2.36
287.944	2.32
288.316	2.31
288.688	2.26
289.06	2.38
289.431	2.44
289.803	2.66
290.175	2.75
290.546	2.98
290.918	2.99
291.289	3.03
291.661	3.17
292.032	3.29
292.403	3.41
292.775	3.6
293.146	3.6
293.517	3.84
293.889	3.85
294.26	3.71
294.631	3.69
295.002	3.69
295.373	3.71
295.744	3.68
296.115	3.63
296.486	3.56
296.857	3.48
297.228	3.46
297.599	3.33
297.97	3.26
298.34	3.12
298.711	3.14
299.082	3.16
299.452	3.28
299.823	3.21
300.194	3.27
300.564	3.14
300.935	3.11
301.305	3
301.676	3.01
302.046	3.01
302.416	3.07
302.787	3.06
303.157	3.02
303.527	3.23
303.897	3.38
304.267	3.68
304.637	3.84
305.008	3.67
305.378	3.81
305.748	3.84
306.117	3.82
306.487	3.92
306.857	3.88
307.227	3.85
307.597	3.87
307.967	3.93
308.336	3.95
308.706	4.1
309.076	4.32
309.445	4.37
309.815	4.38
310.184	4.35
310.554	4.39
310.923	4.43
311.293	4.38
311.662	4.41
312.031	4.26
312.401	4.27
312.77	4.33
313.139	4.36
313.508	4.46
313.877	4.5
314.246	4.46
314.616	4.45
314.985	4.42
315.353	4.54
315.722	4.58
316.091	4.55
316.46	4.43
316.829	4.44
317.198	4.55
317.567	4.59
317.935	4.68
318.304	4.76
318.672	4.75
319.041	4.84
319.41	4.89
319.778	4.91
320.147	4.97
320.515	5.15
320.883	5.05
321.252	5.17
321.62	5.35
321.988	5.43
322.357	5.48
322.725	5.54
323.093	5.64
323.461	5.67
323.829	5.8
324.197	5.97
324.565	5.84
324.933	5.86
325.301	5.95
325.669	5.94
326.037	6.03
326.405	6.18
326.772	6.24
327.14	6.12
327.508	6.25
327.875	6.12
328.243	6.04
328.61	6.16
328.978	6.11
329.346	6.14
329.713	5.96
330.08	6.03
330.448	5.88
330.815	5.59
331.182	5.66
331.55	5.63
331.917	5.56
332.284	5.65
332.651	5.58
333.018	5.52
333.385	5.59
333.752	5.64
334.119	5.69
334.486	5.56
334.853	5.62
335.22	5.66
335.587	5.84
335.954	5.88
336.32	5.94
336.687	5.98
337.054	5.93
337.42	6.18
337.787	6.22
338.153	6.4
338.52	6.63
338.886	6.52
339.253	6.52
339.619	6.52
339.986	6.51
340.352	6.63
340.718	6.64
341.084	6.66
341.451	6.62
341.817	6.68
342.183	6.75
342.549	6.83
342.915	6.8
343.281	6.73
343.647	6.77
344.013	6.8
344.379	6.71
344.745	6.75
345.11	6.67
345.476	6.65
345.842	6.73
346.208	6.69
346.573	6.81
346.939	6.94
347.304	6.98
347.67	6.97
348.035	6.93
348.401	7
348.766	7
349.132	6.96
349.497	6.88
349.862	7.09
350.228	7.07
350.593	7.14
350.958	7.21
351.323	7.22
351.688	7.16
352.053	7.28
352.418	7.32
352.783	7.37
353.148	7.45
353.513	7.35
353.878	7.43
354.243	7.39
354.608	7.39
354.972	7.43
355.337	7.51
355.702	7.58
356.066	7.62
356.431	7.52
356.795	7.62
357.16	7.55
357.524	7.35
357.889	7.33
358.253	7.26
358.618	7.28
358.982	7.23
359.346	7.24
359.71	7.14
360.075	7.12
360.439	7.15
360.803	7.09
361.167	7.05
361.531	6.99
361.895	6.96
362.259	6.91
362.623	6.85
362.987	6.76
363.351	6.7
363.714	6.71
364.078	6.74
364.442	6.63
364.806	6.68
365.169	6.68
365.533	6.67
365.896	6.63
366.26	6.59
366.623	6.62
366.987	6.54
367.35	6.62
367.714	6.54
368.077	6.5
368.44	6.48
368.803	6.51
369.167	6.48
369.53	6.42
369.893	6.32
370.256	6.35
370.619	6.43
370.982	6.37
371.345	6.3
371.708	6.34
372.071	6.27
372.434	6.18
372.797	6.19
373.159	6.15
373.522	6.12
373.885	6.08
374.247	6
374.61	6.04
374.973	5.93
375.335	5.97
375.698	5.93
376.06	5.81
376.423	5.75
376.785	5.74
377.147	5.74
377.51	5.79
377.872	5.73
378.234	5.61
378.596	5.54
378.958	5.44
379.321	5.34
379.683	5.37
380.045	5.36
380.407	5.33
380.769	5.26
381.13	5.26
381.492	5.19
381.854	5.15
382.216	5.04
382.578	5.04
382.939	4.93
383.301	4.89
383.663	4.9
384.024	4.86
384.386	4.81
384.747	4.8
385.109	4.75
385.47	4.69
385.832	4.69
386.193	4.7
386.554	4.66
386.916	4.66
387.277	4.6
387.638	4.59
387.999	4.55
388.36	4.56
388.721	4.5
389.082	4.54
389.443	4.51
389.804	4.52
390.165	4.48
390.526	4.52
390.887	4.47
391.248	4.49
391.609	4.49
391.969	4.49
392.33	4.46
392.691	4.43
393.051	4.43
393.412	4.4
393.772	4.37
394.133	4.37
394.493	4.32
394.854	4.28
395.214	4.25
395.574	4.2
395.935	4.2
396.295	4.21
396.655	4.13
397.015	4.09
397.376	4.07
397.736	4.03
398.096	3.96
398.456	3.95
398.816	3.92
399.176	3.87
399.535	3.84
399.895	3.8
400.255	3.76
400.615	3.73
400.975	3.7
401.334	3.68
401.694	3.66
402.054	3.65
402.413	3.64
402.773	3.58
403.132	3.55
403.492	3.51
403.851	3.48
404.211	3.47
404.57	3.46
404.929	3.47
405.288	3.49
405.648	3.48
406.007	3.44
406.366	3.41
406.725	3.41
407.084	3.4
407.443	3.4
407.802	3.43
408.161	3.4
408.52	3.4
408.879	3.37
409.238	3.35
409.596	3.35
409.955	3.33
410.314	3.36
410.673	3.36
411.031	3.33
411.39	3.32
411.748	3.31
412.107	3.3
412.465	3.25
412.824	3.22
413.182	3.19
413.54	3.16
413.899	3.15
414.257	3.14
414.615	3.1
414.974	3.11
415.332	3.06
415.69	3.06
416.048	3.04
416.406	3.04
416.764	3.04
417.122	3.02
417.48	3.02
417.838	3
418.195	2.99
418.553	3
418.911	2.98
419.269	2.96
419.626	2.94
419.984	2.94
420.342	2.94
420.699	2.94
421.057	2.95
421.414	2.93
421.772	2.91
422.129	2.91
422.486	2.88
422.844	2.89
423.201	2.86
423.558	2.86
423.915	2.85
424.273	2.84
424.63	2.84
424.987	2.83
425.344	2.83
425.701	2.81
426.058	2.8
426.415	2.8
426.772	2.79
427.128	2.79
427.485	2.77
427.842	2.74
428.199	2.73
428.555	2.72
428.912	2.72
429.269	2.74
429.625	2.73
429.982	2.73
430.338	2.7
430.695	2.73
431.051	2.7
431.407	2.7
431.764	2.68
432.12	2.66
432.476	2.65
432.832	2.62
433.189	2.63
433.545	2.61
433.901	2.59
434.257	2.6
434.613	2.6
434.969	2.61
435.325	2.61
435.681	2.63
436.036	2.62
436.392	2.61
436.748	2.61
437.104	2.6
437.459	2.58
437.815	2.58
438.171	2.58
438.526	2.62
438.882	2.61
439.237	2.64
439.593	2.65
439.948	2.67
440.304	2.68
440.659	2.69
441.014	2.7
441.369	2.7
441.725	2.69
442.08	2.69
442.435	2.69
442.79	2.71
443.145	2.69
443.5	2.7
443.855	2.69
444.21	2.67
444.565	2.67
444.92	2.68
445.275	2.67
445.629	2.67
445.984	2.66
446.339	2.65
446.693	2.62
447.048	2.62
447.403	2.61
447.757	2.6
448.112	2.59
448.466	2.58
448.82	2.59
449.175	2.59
449.529	2.59
449.883	2.56
450.238	2.54
450.592	2.54
450.946	2.53
451.3	2.53
451.654	2.53
452.008	2.54
452.362	2.54
452.716	2.55
453.07	2.55
453.424	2.56
453.778	2.58
454.132	2.58
454.486	2.57
454.839	2.58
455.193	2.57
455.547	2.56
455.9	2.56
456.254	2.57
456.607	2.57
456.961	2.56
457.314	2.57
457.668	2.56
458.021	2.56
458.375	2.58
458.728	2.58
459.081	2.59
459.434	2.57
459.787	2.57
460.141	2.56
460.494	2.55
460.847	2.54
461.2	2.54
461.553	2.54
461.906	2.52
462.259	2.53
462.611	2.55
462.964	2.57
463.317	2.58
463.67	2.59
464.022	2.58
464.375	2.59
464.728	2.62
465.08	2.65
465.433	2.67
465.785	2.65
466.138	2.66
466.49	2.67
466.843	2.68
467.195	2.71
467.547	2.73
467.899	2.73
468.252	2.74
468.604	2.75
468.956	2.76
469.308	2.79
469.66	2.79
470.012	2.8
470.364	2.8
470.716	2.8
471.068	2.81
471.42	2.84
471.772	2.85
472.123	2.86
472.475	2.88
472.827	2.88
473.178	2.88
473.53	2.88
473.882	2.87
474.233	2.88
474.585	2.86
474.936	2.86
475.288	2.87
475.639	2.88
475.99	2.87
476.342	2.87
476.693	2.87
477.044	2.89
477.395	2.87
477.746	2.87
478.097	2.88
478.448	2.86
478.8	2.84
479.15	2.83
479.501	2.81
479.852	2.8
480.203	2.8
480.554	2.82
480.905	2.82
481.255	2.82
481.606	2.82
481.957	2.81
482.307	2.81
482.658	2.8
483.009	2.79
483.359	2.8
483.709	2.79
484.06	2.79
484.41	2.79
484.761	2.79
485.111	2.78
485.461	2.78
485.811	2.78
486.162	2.79
486.512	2.79
486.862	2.79
487.212	2.8
487.562	2.79
487.912	2.79
488.262	2.79
488.612	2.8
488.961	2.79
489.311	2.81
489.661	2.8
490.011	2.81
490.36	2.8
490.71	2.82
491.06	2.84
491.409	2.84
491.759	2.84
492.108	2.84
492.458	2.86
492.807	2.86
493.157	2.86
493.506	2.86
493.855	2.87
494.204	2.89
494.554	2.9
494.903	2.9
495.252	2.9
495.601	2.92
495.95	2.93
496.299	2.96
496.648	2.96
496.997	2.99
497.346	3.02
497.695	3.06
498.043	3.06
498.392	3.07
498.741	3.11
499.09	3.12
499.438	3.15
499.787	3.17
500.135	3.19
500.484	3.21
500.832	3.25
501.181	3.29
501.529	3.31
501.878	3.36
502.226	3.42
502.574	3.45
502.923	3.49
503.271	3.52
503.619	3.56
503.967	3.62
504.315	3.68
504.663	3.71
505.011	3.76
505.359	3.8
505.707	3.85
506.055	3.88
506.403	3.95
506.751	4.01
507.098	4.09
507.446	4.16
507.794	4.23
508.141	4.29
508.489	4.37
508.837	4.44
509.184	4.49
509.531	4.55
509.879	4.61
510.226	4.69
510.574	4.75
510.921	4.82
511.268	4.87
511.616	4.95
511.963	5.03
512.31	5.1
512.657	5.21
513.004	5.29
513.351	5.4
513.698	5.5
514.045	5.59
514.392	5.65
514.739	5.73
515.086	5.83
515.432	5.93
515.779	5.99
516.126	6.09
516.473	6.17
516.819	6.28
517.166	6.38
517.512	6.45
517.859	6.56
518.205	6.64
518.552	6.73
518.898	6.81
519.245	6.89
519.591	6.98
519.937	7.06
520.283	7.17
520.629	7.29
520.976	7.38
521.322	7.5
521.668	7.63
522.014	7.74
522.36	7.87
522.706	8
523.052	8.16
523.398	8.32
523.743	8.46
524.089	8.62
524.435	8.77
524.781	8.93
525.126	9.06
525.472	9.18
525.817	9.31
526.163	9.43
526.509	9.54
526.854	9.64
527.199	9.73
527.545	9.82
527.89	9.91
528.235	9.99
528.581	10.09
528.926	10.18
529.271	10.29
529.616	10.37
529.961	10.47
530.306	10.58
530.651	10.68
530.996	10.79
531.341	10.91
531.686	11.02
532.031	11.13
532.376	11.25
532.721	11.41
533.065	11.52
533.41	11.67
533.755	11.81
534.099	11.94
534.444	12.1
534.788	12.25
535.133	12.39
535.477	12.56
535.822	12.73
536.166	12.9
536.51	13.07
536.855	13.26
537.199	13.46
537.543	13.66
537.887	13.89
538.231	14.09
538.576	14.3
538.92	14.53
539.264	14.74
539.608	14.94
539.951	15.11
540.295	15.3
540.639	15.45
540.983	15.62
541.327	15.8
541.671	15.94
542.014	16.09
542.358	16.26
542.701	16.41
543.045	16.58
543.389	16.73
543.732	16.92
544.075	17.11
544.419	17.3
544.762	17.48
545.105	17.69
545.449	17.91
545.792	18.13
546.135	18.33
546.478	18.56
546.821	18.78
547.165	19
547.508	19.26
547.851	19.53
548.194	19.81
548.536	20.07
548.879	20.36
549.222	20.63
549.565	20.88
549.908	21.23
550.25	21.47
550.593	21.76
550.936	22.01
551.278	22.27
551.621	22.55
551.963	22.81
552.306	23.04
552.648	23.31
552.991	23.56
553.333	23.79
553.675	24.03
554.017	24.32
554.36	24.59
554.702	24.84
555.044	25.06
555.386	25.27
555.728	25.51
556.07	25.78
556.412	26.03
556.754	26.29
557.096	26.51
557.438	26.8
557.78	27.11
558.121	27.38
558.463	27.65
558.805	27.93
559.147	28.14
559.488	28.4
559.83	28.59
560.171	28.87
560.513	29.14
560.854	29.35
561.196	29.58
561.537	29.79
561.878	30.02
562.22	30.25
562.561	30.47
562.902	30.68
563.243	30.91
563.584	31.11
563.925	31.32
564.266	31.5
564.607	31.7
564.948	31.87
565.289	32.09
565.63	32.3
565.971	32.43
566.312	32.66
566.653	32.84
566.993	33.05
567.334	33.22
567.675	33.43
568.015	33.61
568.356	33.81
568.696	33.99
569.037	34.19
569.377	34.36
569.718	34.53
570.058	34.72
570.398	34.89
570.739	35.05
571.079	35.27
571.419	35.46
571.759	35.61
572.099	35.77
572.439	35.92
572.779	36.05
573.119	36.25
573.459	36.44
573.799	36.61
574.139	36.73
574.479	36.87
574.819	37.03
575.158	37.18
575.498	37.29
575.838	37.47
576.177	37.56
576.517	37.72
576.856	37.9
577.196	38.01
577.535	38.14
577.875	38.28
578.214	38.36
578.553	38.48
578.893	38.62
579.232	38.77
579.571	38.9
579.91	38.99
580.25	39.14
580.589	39.16
580.928	39.3
581.267	39.51
581.606	39.57
581.945	39.65
582.283	39.78
582.622	39.95
582.961	40.07
583.3	40.21
583.639	40.34
583.977	40.4
584.316	40.58
584.654	40.68
584.993	40.8
585.332	40.94
585.67	41.08
586.008	41.23
586.347	41.36
586.685	41.45
587.024	41.57
587.362	41.67
587.7	41.78
588.038	41.91
588.376	42.01
588.715	42.18
589.053	42.37
589.391	42.52
589.729	42.59
590.067	42.64
590.404	42.83
590.742	42.92
591.08	43.07
591.418	43.11
591.756	43.21
592.093	43.32
592.431	43.42
592.769	43.52
593.106	43.48
593.444	43.48
593.781	43.54
594.119	43.65
594.456	43.68
594.793	43.79
595.131	43.78
595.468	43.79
595.805	43.88
596.143	43.86
596.48	43.91
596.817	43.95
597.154	44
597.491	44.02
597.828	44.07
598.165	44.14
598.502	44.25
598.839	44.35
599.176	44.42
599.512	44.46
599.849	44.51
600.186	44.62
600.523	44.73
600.859	44.82
601.196	44.87
601.532	44.86
601.869	44.9
602.205	44.95
602.542	45.05
602.878	45.07
603.215	45.11
603.551	45.2
603.887	45.22
604.223	45.32
604.56	45.27
604.896	45.29
605.232	45.3
605.568	45.32
605.904	45.31
606.24	45.4
606.576	45.46
606.912	45.55
607.248	45.63
607.583	45.66
607.919	45.75
608.255	45.78
608.591	45.92
608.926	45.96
609.262	46.01
609.597	46.04
609.933	46.1
610.268	46.14
610.604	46.15
610.939	46.27
611.275	46.28
611.61	46.41
611.945	46.5
612.281	46.59
612.616	46.69
612.951	46.67
613.286	46.67
613.621	46.75
613.956	46.77
614.291	46.84
614.626	46.92
614.961	46.92
615.296	46.99
615.631	47.04
615.966	47.06
616.3	47.13
616.635	47.2
616.97	47.19
617.304	47.27
617.639	47.32
617.973	47.37
618.308	47.39
618.642	47.37
618.977	47.38
619.311	47.35
619.646	47.34
619.98	47.46
620.314	47.53
620.648	47.44
620.983	47.37
621.317	47.36
621.651	47.45
621.985	47.46
622.319	47.63
622.653	47.61
622.987	47.73
623.321	47.78
623.655	47.82
623.988	47.92
624.322	47.86
624.656	47.73
624.99	47.71
625.323	47.74
625.657	47.81
625.99	47.84
626.324	47.87
626.657	47.85
626.991	47.94
627.324	47.94
627.658	47.99
627.991	48.1
628.324	48.12
628.657	48.12
628.991	48.18
629.324	48.14
629.657	48.25
629.99	48.24
630.323	48.24
630.656	48.25
630.989	48.2
631.322	48.3
631.655	48.42
631.987	48.45
632.32	48.51
632.653	48.56
632.986	48.66
633.318	48.68
633.651	48.65
633.984	48.72
634.316	48.75
634.649	48.81
634.981	48.73
635.313	48.76
635.646	48.8
635.978	48.73
636.31	48.71
636.643	48.78
636.975	48.81
637.307	48.84
637.639	48.81
637.971	48.96
638.303	48.99
638.635	49.07
638.967	49.17
639.299	49.24
639.631	49.18
639.963	49.11
640.295	49.19
640.626	49.33
640.958	49.29
641.29	49.3
641.621	49.31
641.953	49.36
642.285	49.4
642.616	49.37
642.948	49.46
643.279	49.47
643.61	49.34
643.942	49.42
644.273	49.56
644.604	49.66
644.936	49.58
645.267	49.62
645.598	49.66
645.929	49.59
646.26	49.57
646.591	49.73
646.922	49.81
647.253	49.78
647.584	49.83
647.915	49.92
648.245	50.03
648.576	50.02
648.907	50.2
649.238	50.24
649.568	50.39
649.899	50.47
650.229	50.55
650.56	50.64
650.89	50.67
651.221	50.53
651.551	50.53
651.882	50.62
652.212	50.61
652.542	50.6
652.872	50.67
653.203	50.68
653.533	50.65
653.863	50.66
654.193	50.66
654.523	50.72
654.853	50.73
655.183	50.72
655.513	50.78
655.843	50.68
656.172	50.69
656.502	50.69
656.832	50.66
657.162	50.64
657.491	50.65
657.821	50.52
658.15	50.72
658.48	50.74
658.809	50.68
659.139	50.77
659.468	50.75
659.798	50.81
660.127	50.78
660.456	50.84
660.785	50.81
661.115	50.86
661.444	50.86
661.773	50.88
662.102	50.88
662.431	50.85
662.76	50.85
663.089	50.89
663.418	50.86
663.747	50.92
664.076	51.01
664.404	51.04
664.733	51.26
665.062	51.11
665.39	51.19
665.719	51.17
666.048	51.1
666.376	51.17
666.705	51.23
667.033	51.25
667.362	51.33
667.69	51.43
668.018	51.34
668.347	51.19
668.675	51.07
669.003	51.11
669.331	51.28
669.659	51.28
669.987	51.28
670.315	51.24
670.643	51.18
670.971	51.19
671.299	51.27
671.627	51.18
671.955	51.27
672.283	51.09
672.61	51.17
672.938	51.08
673.266	51.15
673.593	51.2
673.921	51.25
674.249	51.21
674.576	51.25
674.904	51.28
675.231	51.51
675.558	51.64
675.886	51.64
676.213	51.56
676.54	51.66
676.867	51.66
677.195	51.77
677.522	51.84
677.849	51.7
678.176	51.55
678.503	51.65
678.83	51.69
679.157	51.73
679.484	51.71
679.81	51.79
680.137	51.8
680.464	51.69
680.791	51.69
681.117	51.65
681.444	51.65
681.771	51.79
682.097	51.75
682.424	51.72
682.75	51.74
683.077	51.79
683.403	51.77
683.729	51.77
684.056	51.72
684.382	51.7
684.708	51.88
685.034	51.99
685.36	51.98
685.686	51.93
686.012	52.1
686.339	52.23
686.664	52.27
686.99	52.29
687.316	52.35
687.642	52.47
687.968	52.52
688.294	52.6
688.619	52.66
688.945	52.62
689.271	52.55
689.596	52.57
689.922	52.64
690.247	52.64
690.573	52.65
690.898	52.66
691.224	52.7
691.549	52.67
691.874	52.49
692.2	52.43
692.525	52.62
692.85	52.55
693.175	52.53
693.5	52.58
693.825	52.56
694.15	52.47
694.475	52.31
694.8	52.27
695.125	52.3
695.45	52.14
695.775	52.12
696.099	52.11
696.424	52.04
696.749	51.85
697.073	51.89
697.398	51.93
697.723	52
698.047	51.94
698.372	52.1
698.696	52.3
699.02	52.4
699.345	52.18
699.669	52.18
699.993	52.15
700.318	52.21
700.642	52.13
700.966	52.24
701.29	52.34
701.614	52.33
701.938	52.32
702.262	52.38
702.586	52.46
702.91	52.43
703.234	52.52
703.557	52.73
703.881	52.58
704.205	52.68
704.529	52.64
704.852	52.82
705.176	52.66
705.499	52.42
705.823	52.43
706.146	52.47
706.47	52.54
706.793	52.46
707.117	52.34
707.44	52.33
707.763	52.25
708.086	52.19
708.409	52.08
708.733	52.08
709.056	52.1
709.379	52.07
709.702	52.49
710.025	52.55
710.348	52.54
710.671	52.63
710.993	52.63
711.316	52.69
711.639	52.67
711.962	52.71
712.284	52.87
712.607	52.69
712.93	52.67
713.252	52.59
713.575	52.87
713.897	52.81
714.22	53
714.542	53.23
714.864	53.2
715.187	53.35
715.509	53.26
715.831	53.44
716.153	53.49
716.475	53.13
716.798	53.02
717.12	52.86
717.442	52.94
717.764	52.82
718.085	52.76
718.407	52.68
718.729	52.77
719.051	52.77
719.373	52.79
719.695	52.96
720.016	52.9
720.338	52.75
720.659	52.87
720.981	52.64
721.302	52.48
721.624	52.72
721.945	52.52
722.267	52.46
722.588	52.23
722.909	52.26
723.231	52.41
723.552	52.55
723.873	52.72
724.194	52.63
724.515	52.8
724.836	52.63
725.157	52.71
725.478	52.41
725.799	52.41
726.12	52.2
726.441	52.35
726.762	52.69
727.083	52.66
727.403	52.78
727.724	52.93
728.045	53.02
728.365	52.61
728.686	52.78
729.006	52.73
729.327	52.8
729.647	52.9
729.967	52.8
730.288	52.82
730.608	52.69
730.928	52.87
731.249	52.73
731.569	53.09
731.889	53.05
732.209	53.15
732.529	53.33
732.849	53.59
733.169	53.37
733.489	53.18
733.809	53.03
734.129	52.83
734.448	52.94
734.768	52.79
735.088	53.12
735.408	53.02
735.727	53.2
736.047	53.18
736.366	53.24
736.686	53.32
737.005	53.25
737.325	53.21
737.644	53.1
737.963	53.13
738.283	52.97
738.602	52.83
738.921	52.93
739.24	52.69
739.56	52.75
739.879	52.74
740.198	52.85
740.517	52.98
740.836	53.01
741.155	52.87
741.473	52.99
741.792	52.9
742.111	53.22
742.43	53.21
742.748	53.24
743.067	53
743.386	53.09
743.704	53.21
744.023	53.5
744.341	53.42
744.66	53.78
744.978	53.74
745.297	54.03
745.615	53.97
745.933	54.1
746.252	53.83
746.57	53.94
746.888	54.01
747.206	53.97
747.524	54.14
747.842	54.03
748.16	54.12
748.478	53.97
748.796	53.71
749.114	53.73
749.432	53.82
749.749	53.91
750.067	53.96
750.385	53.81
750.703	53.75
751.02	54.08
751.338	53.91
751.655	53.75
751.973	53.67
752.29	53.63
752.608	53.7
752.925	53.93
753.242	53.75
753.56	53.45
753.877	53.6
754.194	53.43
754.511	53.57
754.828	53.45
755.145	53.85
755.462	53.87
755.779	53.9
756.096	54.18
756.413	54.31
756.73	54.67
757.047	54.85
757.364	54.66
757.68	54.53
757.997	54.44
758.314	54.45
758.63	54.19
758.947	54.12
759.264	54.03
759.58	54.05
759.896	54.31
760.213	54.82
760.529	54.88
760.846	54.98
761.162	54.85
761.478	55.07
761.794	54.69
762.11	54.57
762.426	54.41
762.743	53.94
763.059	54.07
763.375	53.89
763.69	53.87
764.006	54.1
764.322	53.93
764.638	54
764.954	53.91
765.27	54.12
765.585	54.02
765.901	54.14
766.216	54.24
766.532	54.04
766.848	53.71
767.163	53.65
767.478	53.76
767.794	53.89
768.109	53.61
768.424	53.97
768.74	54.36
769.055	54.6
769.37	54.6
769.685	54.51
770	54.48
770.315	54.57
770.63	54.54
770.945	54.92
771.26	54.84
771.575	55.26
771.89	55.51
772.205	55.84
772.52	55.89
772.834	56.02
773.149	56.5
773.464	56.75
773.778	56.67
774.093	56.32
774.407	56.23
774.722	56.59
775.036	56.48
775.351	56.3
775.665	56.06
775.979	56.46
776.293	56.07
776.608	56.06
776.922	56.15
777.236	56.01
777.55	55.52
777.864	55.65
778.178	55.83
778.492	55.43
778.806	55.52
779.12	55.64
779.434	55.25
779.747	55.24
780.061	55.01
780.375	55.48
780.689	55.83
781.002	56.35
781.316	56.35
781.629	56.34
781.943	56.12
782.256	56.25
782.57	56.27
782.883	56.12
783.196	55.84
783.51	55.76
783.823	55.83
784.136	56.68
784.449	56.39
784.762	56.48
785.075	56.64
785.388	56.59
785.701	56.74
786.014	56.48
786.327	56.15
786.64	56.57
786.953	56.95
787.266	56.76
787.578	56.21
787.891	55.97
788.204	56
788.516	56.25
788.829	56.02
789.141	55.85
789.454	56
789.766	56.28
790.079	56.1
790.391	56.25
790.703	55.5
791.016	55.65
791.328	55.33
791.64	55.17
791.952	55.51
792.264	54.99
792.576	55.48
792.888	55.64
793.2	55.39
793.512	54.53
793.824	54.45
794.136	54.55
794.448	54.52
794.76	54.57
795.071	54.78
795.383	54.54
795.695	54.92
796.006	55.67
796.318	55.83
796.629	55.97
796.941	55.35
797.252	55.42
797.564	55.95
797.875	55.9
798.186	56.29
798.497	56.02
798.809	55.79
799.12	55.88
799.431	55.87
799.742	55.99
800.053	56.4
800.364	56.67
800.675	56.84
800.986	56.65
801.297	55.85
801.608	54.66
801.918	54.94
802.229	55.14
802.54	54.32
802.851	54.28
803.161	53.73
803.472	53.99
803.782	53.88
804.093	53.31
804.403	53.17
804.714	52.88
805.024	52.31
805.334	52.43
805.645	52.3
805.955	52.41
806.265	52.52
806.575	51.9
806.885	52.44
807.195	52.66
807.505	52.57
807.815	53.54
808.125	53.47
808.435	53.19
808.745	52.68
809.055	52.66
809.365	52.07
809.674	52.45
809.984	53.17
810.294	53.11
810.603	52.82
810.913	53.51
811.222	53.83
811.532	54.11
811.841	54.65
812.151	54.97
812.46	54.66
812.769	54.17
813.079	54.39
813.388	54.39
813.697	54.19
814.006	54.13
814.315	53.87
814.624	54.81
814.933	55.07
815.242	54.86
815.551	54.74
815.86	55
816.169	54.63
816.478	54.27
816.786	55.19
817.095	55.44
817.404	54.81
817.712	54.73
818.021	54.95
818.33	54.75
818.638	54.52
818.947	54.73
819.255	55.51
819.563	55.42
819.872	54.76
820.18	54.85
820.488	54.83
820.796	54.9
821.105	55.02
821.413	55.24
821.721	55.53
822.029	55.64
822.337	55.58
822.645	55.58
822.953	55.8
823.26	55.65
823.568	55.69
823.876	56.03
824.184	56.07
824.491	56.03
824.799	56.28
825.107	56.3
825.414	56.22
825.722	55.92
826.029	55.97
826.337	56.16
826.644	56.01
826.951	56.14
827.259	55.99
827.566	55.77
827.873	55.9
828.18	55.82
828.488	55.64
828.795	55.84
829.102	56.08
829.409	55.71
829.716	55.68
830.023	55.82
830.329	55.31
830.636	55.66
830.943	55.81
831.25	55.47
831.557	55.69
831.863	56
832.17	56.28
832.476	56.42
832.783	56.25
833.089	56.54
833.396	56.61
833.702	57.04
834.009	57.62
834.315	57.43
834.621	57.2
834.928	57.71
835.234	57.47
835.54	57.01
835.846	57.14
836.152	57.8
836.458	57.09
836.764	57.4
837.07	56.96
837.376	56.72
837.682	56.27
837.988	56.26
838.293	55.98
838.599	56
838.905	55.43
839.211	55.22
839.516	54.88
839.822	54.58
840.127	54.5
840.433	54.99
840.738	54.94
841.044	55.33
841.349	55.58
841.654	55.99
841.959	55.87
842.265	56.19
842.57	54.45
842.875	55.46
843.18	54.45
843.485	53.84
843.79	53.58
844.095	53.72
844.4	53.04
844.705	52.75
845.01	52.35
845.315	53.52
845.619	53.01
845.924	52.85
846.229	53.53
846.533	53.66
846.838	52.21
847.142	52.11
847.447	52.17
847.751	52.43
848.056	51.93
848.36	54.13
848.664	55.03
848.969	55.75
849.273	56.09
849.577	57.78
849.881	58.7
850.185	59.56
850.489	59.57
850.794	58.92
851.097	58.35
851.401	58.52
851.705	59.25
852.009	60.65
852.313	62.65
852.617	62.93
852.92	62.42
853.224	61.68
853.528	62.21
853.831	60.26
854.135	59.41
854.438	60.79
854.742	60.47
855.045	57.73
855.349	55.99
855.652	55.01
855.955	53.87
856.259	52.54
856.562	52.81
856.865	53.33
857.168	52.95
857.471	52.97
857.774	53.17
858.077	51.71
858.38	52.33
858.683	51.47
858.986	50
859.289	48.76
859.592	50.64
859.894	49.33
860.197	48.69
860.5	47.42
860.802	46
861.105	43.28
861.407	44.51
861.71	46.32
862.012	47.23
862.315	47.53
862.617	45.58
862.919	45.52
863.222	44.65
863.524	46.98
863.826	46.87
864.128	45.39
864.43	45.3
864.732	47.03
865.034	46.49
865.336	46.58
865.638	45.93
865.94	44.55
866.242	43.43
866.544	42.78
866.846	43.8
867.147	45.12
867.449	49.82
867.751	48.8
868.052	50.2
868.354	51.11
868.655	52.42
868.957	53.33
869.258	51.02
869.56	51.12
869.861	48.84
870.162	49.71
870.463	50.89
870.765	50.72
871.066	48.71
871.367	50.63
871.668	52.07
871.969	52.42
872.27	53.02
872.571	52.98
872.872	59.79
873.173	60.1
873.473	59.89
873.774	58.82
874.075	57.37
874.376	55.84
874.676	54.03
874.977	54.26
875.277	57.31
875.578	59.58
875.878	60.49
876.179	62.31
876.479	63.7
876.78	64.13
877.08	64.96
877.38	65.24
877.68	63.67
877.981	63.57
878.281	66.55
878.581	66.97
