Data from BU26946_Reflection_00011.txt Node
Date: Tue Nov 19 10:52:10 EST 2019
User: vgr7
Spectrometer: USB2G7710
Scans to average: 3
Trigger mode: 4
Integration Time (sec): 2.000000E-2
Electric dark correction enabled: true
Boxcar width: 10
XAxis mode: Wavelengths
Number of Pixels in Spectrum: 2048
>>>>>Begin Spectral Data<<<<<
177.721	211.28
178.105	140.54
178.488	151.08
178.871	463.16
179.254	-285.71
179.636	581.13
180.019	553.49
180.402	64.29
180.785	769.23
181.168	222.01
181.55	420.81
181.933	168.02
182.316	138.24
182.698	33.78
183.081	53.74
183.463	-191.04
183.846	53.42
184.228	24.75
184.611	-120.28
184.993	40
185.376	770.21
185.758	-46.21
186.14	-144.62
186.522	-106.81
186.904	-45.16
187.287	-83.35
187.669	-39.23
188.051	-95.65
188.433	-130.61
188.815	-91.99
189.197	-93.5
189.579	-38.57
189.961	-49.72
190.342	-52.26
190.724	-61.89
191.106	-54.54
191.488	-62.65
191.869	-61.56
192.251	-50.19
192.633	-54.49
193.014	-53.46
193.396	-68.93
193.777	-71.84
194.159	-62.43
194.54	-53.48
194.922	-87.79
195.303	-101.47
195.684	-110.54
196.065	-100.05
196.447	-107.22
196.828	-86.29
197.209	-61.62
197.59	-75.81
197.971	-81.05
198.352	-87.05
198.733	-98.55
199.114	-92.26
199.495	-106.44
199.876	-101.84
200.257	-99.35
200.638	-79.45
201.018	-104.33
201.399	-90.98
201.78	-65.01
202.16	-84.54
202.541	-60.96
202.922	-46.07
203.302	-31.75
203.683	-37.94
204.063	-27.93
204.444	-18.06
204.824	-42.03
205.204	-46.7
205.585	-44.19
205.965	-46.63
206.345	-41.56
206.725	-37.74
207.106	-25.24
207.486	-16.5
207.866	-21.1
208.246	-20.53
208.626	-41.45
209.006	-25.48
209.386	-18.98
209.766	-24.96
210.145	-23.27
210.525	-39.09
210.905	-26.91
211.285	-22.29
211.664	-19.27
212.044	-20.4
212.424	-25.78
212.803	-22.94
213.183	-26.17
213.562	-24.37
213.942	-20.31
214.321	-27.38
214.701	-36.45
215.08	-43.78
215.459	-33.78
215.838	-37.71
216.218	-41.74
216.597	-25.25
216.976	-34.98
217.355	-36.71
217.734	-47.61
218.113	-34.13
218.492	-27.8
218.871	-37.94
219.25	-48.31
219.629	-71.8
220.008	-65.96
220.387	-21.4
220.766	-15.2
221.144	-2.19
221.523	2.71
221.902	23.02
222.28	35.24
222.659	44.38
223.037	36.77
223.416	27.3
223.794	14.89
224.173	12.95
224.551	12.67
224.929	10.45
225.308	7.94
225.686	1.22
226.064	-1.03
226.442	3.93
226.821	2.04
227.199	0.63
227.577	2.45
227.955	5.27
228.333	2.69
228.711	5.66
229.089	6.76
229.467	6.89
229.845	6.83
230.222	7.98
230.6	3.7
230.978	2.96
231.356	4.44
231.733	5.22
232.111	5.14
232.488	4.56
232.866	6.22
233.243	6.5
233.621	10.14
233.998	10.84
234.376	10.42
234.753	9.97
235.13	9.27
235.508	9.04
235.885	7.56
236.262	6.33
236.639	4.85
237.016	3.37
237.393	3.18
237.77	3.72
238.147	3.54
238.524	5.57
238.901	5.64
239.278	5.45
239.655	4.92
240.032	5.15
240.409	5.3
240.785	4.47
241.162	4.36
241.539	3.65
241.915	3.59
242.292	3.91
242.668	4.28
243.045	4.69
243.421	4.51
243.798	4.48
244.174	4.6
244.551	4.49
244.927	4.64
245.303	4.45
245.679	4.25
246.056	4.11
246.432	3.94
246.808	4.14
247.184	4.09
247.56	3.86
247.936	3.95
248.312	3.89
248.688	3.88
249.064	3.85
249.44	3.9
249.815	3.87
250.191	3.53
250.567	3.5
250.943	3.62
251.318	3.66
251.694	3.54
252.069	3.67
252.445	3.86
252.82	4.06
253.196	4.15
253.571	4.22
253.947	4.52
254.322	4.41
254.697	4.06
255.073	4.1
255.448	4.68
255.823	4.55
256.198	4.52
256.573	4.69
256.948	4.74
257.323	4.61
257.698	4.59
258.073	4.74
258.448	4.57
258.823	4.34
259.198	4.37
259.573	4.36
259.948	4.44
260.322	4.28
260.697	4.32
261.072	4.39
261.446	4.42
261.821	4.15
262.195	4.12
262.57	4.28
262.944	4.39
263.319	4.32
263.693	4.17
264.067	4.26
264.442	4.24
264.816	4.15
265.19	4.17
265.564	4.03
265.938	3.81
266.313	3.75
266.687	3.81
267.061	3.88
267.435	3.94
267.809	3.79
268.183	3.73
268.556	3.48
268.93	3.59
269.304	3.55
269.678	3.75
270.051	3.66
270.425	3.6
270.799	3.35
271.172	3.4
271.546	3.65
271.919	3.73
272.293	3.76
272.666	3.85
273.04	3.91
273.413	3.89
273.787	4.15
274.16	4.29
274.533	4.23
274.906	4.12
275.279	4.02
275.653	4.04
276.026	4.25
276.399	4.24
276.772	4.2
277.145	4.16
277.518	4
277.891	4.03
278.263	4.14
278.636	4.31
279.009	4.31
279.382	4.01
279.755	3.9
280.127	3.81
280.5	3.73
280.872	3.76
281.245	3.65
281.617	3.53
281.99	3.64
282.362	3.72
282.735	3.87
283.107	3.98
283.479	3.98
283.852	3.91
284.224	3.99
284.596	3.85
284.968	3.84
285.34	3.8
285.713	3.81
286.085	3.64
286.457	3.62
286.829	3.61
287.201	3.74
287.572	3.75
287.944	3.93
288.316	3.99
288.688	4.02
289.06	4.14
289.431	4.11
289.803	4.11
290.175	4.14
290.546	4.05
290.918	3.95
291.289	3.96
291.661	3.98
292.032	3.95
292.403	3.94
292.775	4.02
293.146	4.23
293.517	4.34
293.889	4.37
294.26	4.4
294.631	4.42
295.002	4.45
295.373	4.44
295.744	4.34
296.115	4.38
296.486	4.43
296.857	4.51
297.228	4.48
297.599	4.43
297.97	4.51
298.34	4.5
298.711	4.61
299.082	4.6
299.452	4.67
299.823	4.7
300.194	4.79
300.564	4.76
300.935	4.81
301.305	4.82
301.676	4.78
302.046	4.77
302.416	4.85
302.787	4.83
303.157	4.92
303.527	5.06
303.897	4.95
304.267	4.92
304.637	4.9
305.008	5.14
305.378	5.17
305.748	5.07
306.117	5.11
306.487	5.25
306.857	5.32
307.227	5.29
307.597	5.31
307.967	5.33
308.336	5.47
308.706	5.4
309.076	5.44
309.445	5.7
309.815	5.82
310.184	5.71
310.554	5.69
310.923	5.74
311.293	5.57
311.662	5.82
312.031	5.86
312.401	5.99
312.77	5.96
313.139	6.01
313.508	6
313.877	6
314.246	5.85
314.616	5.95
314.985	5.98
315.353	6.06
315.722	6.3
316.091	6.35
316.46	6.44
316.829	6.52
317.198	6.5
317.567	6.56
317.935	6.73
318.304	6.86
318.672	6.86
319.041	6.97
319.41	6.82
319.778	6.67
320.147	6.7
320.515	6.76
320.883	6.74
321.252	6.9
321.62	6.98
321.988	7.08
322.357	7
322.725	7.14
323.093	7.31
323.461	7.12
323.829	7.02
324.197	7.03
324.565	7.08
324.933	7.1
325.301	7.04
325.669	7.05
326.037	7.19
326.405	7.25
326.772	7.4
327.14	7.38
327.508	7.47
327.875	7.63
328.243	7.57
328.61	7.61
328.978	7.66
329.346	7.8
329.713	7.93
330.08	8.04
330.448	8.04
330.815	7.92
331.182	8.02
331.55	8.09
331.917	8.19
332.284	8.23
332.651	8.25
333.018	8.2
333.385	8.29
333.752	8.21
334.119	8.17
334.486	8.09
334.853	8.07
335.22	8.2
335.587	8.06
335.954	8.14
336.32	8.21
336.687	8.18
337.054	8.18
337.42	8.06
337.787	8.18
338.153	8.24
338.52	8.34
338.886	8.37
339.253	8.34
339.619	8.32
339.986	8.38
340.352	8.36
340.718	8.47
341.084	8.4
341.451	8.44
341.817	8.47
342.183	8.52
342.549	8.61
342.915	8.68
343.281	8.76
343.647	8.84
344.013	8.79
344.379	8.88
344.745	8.89
345.11	8.88
345.476	8.85
345.842	8.81
346.208	8.78
346.573	8.78
346.939	8.89
347.304	8.93
347.67	8.92
348.035	8.97
348.401	8.99
348.766	8.96
349.132	8.98
349.497	9.06
349.862	9.08
350.228	9.09
350.593	9.01
350.958	9
351.323	9
351.688	9.1
352.053	9.05
352.418	8.97
352.783	9.04
353.148	9.04
353.513	9.01
353.878	8.99
354.243	9
354.608	9
354.972	9
355.337	8.94
355.702	8.86
356.066	8.8
356.431	8.82
356.795	8.78
357.16	8.75
357.524	8.68
357.889	8.74
358.253	8.74
358.618	8.7
358.982	8.62
359.346	8.57
359.71	8.53
360.075	8.53
360.439	8.57
360.803	8.46
361.167	8.44
361.531	8.43
361.895	8.47
362.259	8.39
362.623	8.35
362.987	8.39
363.351	8.36
363.714	8.37
364.078	8.36
364.442	8.3
364.806	8.34
365.169	8.31
365.533	8.24
365.896	8.25
366.26	8.26
366.623	8.24
366.987	8.26
367.35	8.26
367.714	8.19
368.077	8.13
368.44	8.22
368.803	8.15
369.167	8.05
369.53	7.98
369.893	7.97
370.256	7.96
370.619	7.89
370.982	7.81
371.345	7.77
371.708	7.72
372.071	7.66
372.434	7.54
372.797	7.53
373.159	7.5
373.522	7.46
373.885	7.33
374.247	7.26
374.61	7.15
374.973	7.1
375.335	7.1
375.698	7.04
376.06	6.9
376.423	6.84
376.785	6.84
377.147	6.72
377.51	6.68
377.872	6.58
378.234	6.52
378.596	6.55
378.958	6.5
379.321	6.48
379.683	6.5
380.045	6.44
380.407	6.41
380.769	6.32
381.13	6.17
381.492	6.18
381.854	6.18
382.216	6.16
382.578	6.08
382.939	6
383.301	5.93
383.663	5.9
384.024	5.91
384.386	5.91
384.747	5.88
385.109	5.85
385.47	5.81
385.832	5.76
386.193	5.7
386.554	5.65
386.916	5.56
387.277	5.51
387.638	5.5
387.999	5.47
388.36	5.44
388.721	5.46
389.082	5.42
389.443	5.4
389.804	5.34
390.165	5.35
390.526	5.34
390.887	5.34
391.248	5.34
391.609	5.31
391.969	5.24
392.33	5.21
392.691	5.18
393.051	5.14
393.412	5.13
393.772	5.14
394.133	5.09
394.493	5.08
394.854	5.04
395.214	5.02
395.574	4.94
395.935	4.91
396.295	4.88
396.655	4.83
397.015	4.81
397.376	4.77
397.736	4.72
398.096	4.7
398.456	4.63
398.816	4.56
399.176	4.5
399.535	4.47
399.895	4.45
400.255	4.43
400.615	4.39
400.975	4.36
401.334	4.3
401.694	4.27
402.054	4.26
402.413	4.26
402.773	4.24
403.132	4.25
403.492	4.26
403.851	4.25
404.211	4.24
404.57	4.21
404.929	4.22
405.288	4.19
405.648	4.19
406.007	4.18
406.366	4.18
406.725	4.21
407.084	4.19
407.443	4.21
407.802	4.16
408.161	4.17
408.52	4.16
408.879	4.14
409.238	4.16
409.596	4.19
409.955	4.16
410.314	4.12
410.673	4.11
411.031	4.07
411.39	4.08
411.748	4.06
412.107	4.04
412.465	4.01
412.824	4.02
413.182	3.98
413.54	3.98
413.899	3.98
414.257	3.96
414.615	3.96
414.974	3.96
415.332	3.98
415.69	3.95
416.048	3.96
416.406	3.98
416.764	3.95
417.122	3.91
417.48	3.91
417.838	3.9
418.195	3.89
418.553	3.89
418.911	3.85
419.269	3.84
419.626	3.84
419.984	3.82
420.342	3.79
420.699	3.78
421.057	3.78
421.414	3.78
421.772	3.77
422.129	3.76
422.486	3.74
422.844	3.72
423.201	3.72
423.558	3.7
423.915	3.68
424.273	3.68
424.63	3.68
424.987	3.67
425.344	3.68
425.701	3.66
426.058	3.65
426.415	3.65
426.772	3.65
427.128	3.64
427.485	3.66
427.842	3.66
428.199	3.67
428.555	3.66
428.912	3.64
429.269	3.61
429.625	3.61
429.982	3.6
430.338	3.61
430.695	3.59
431.051	3.58
431.407	3.57
431.764	3.55
432.12	3.56
432.476	3.59
432.832	3.57
433.189	3.57
433.545	3.58
433.901	3.59
434.257	3.58
434.613	3.56
434.969	3.55
435.325	3.57
435.681	3.57
436.036	3.57
436.392	3.58
436.748	3.59
437.104	3.59
437.459	3.59
437.815	3.59
438.171	3.61
438.526	3.62
438.882	3.62
439.237	3.62
439.593	3.61
439.948	3.59
440.304	3.59
440.659	3.6
441.014	3.59
441.369	3.59
441.725	3.59
442.08	3.59
442.435	3.6
442.79	3.6
443.145	3.6
443.5	3.6
443.855	3.59
444.21	3.61
444.565	3.61
444.92	3.6
445.275	3.6
445.629	3.59
445.984	3.58
446.339	3.57
446.693	3.57
447.048	3.55
447.403	3.56
447.757	3.55
448.112	3.55
448.466	3.55
448.82	3.56
449.175	3.55
449.529	3.54
449.883	3.51
450.238	3.5
450.592	3.51
450.946	3.49
451.3	3.49
451.654	3.47
452.008	3.47
452.362	3.45
452.716	3.43
453.07	3.44
453.424	3.44
453.778	3.46
454.132	3.46
454.486	3.47
454.839	3.45
455.193	3.47
455.547	3.45
455.9	3.46
456.254	3.43
456.607	3.44
456.961	3.45
457.314	3.48
457.668	3.47
458.021	3.46
458.375	3.46
458.728	3.46
459.081	3.46
459.434	3.47
459.787	3.49
460.141	3.49
460.494	3.49
460.847	3.48
461.2	3.47
461.553	3.48
461.906	3.49
462.259	3.5
462.611	3.49
462.964	3.5
463.317	3.52
463.67	3.53
464.022	3.53
464.375	3.52
464.728	3.51
465.08	3.53
465.433	3.53
465.785	3.54
466.138	3.56
466.49	3.56
466.843	3.59
467.195	3.6
467.547	3.61
467.899	3.62
468.252	3.65
468.604	3.68
468.956	3.69
469.308	3.69
469.66	3.7
470.012	3.71
470.364	3.71
470.716	3.72
471.068	3.75
471.42	3.79
471.772	3.81
472.123	3.84
472.475	3.86
472.827	3.87
473.178	3.87
473.53	3.87
473.882	3.88
474.233	3.87
474.585	3.86
474.936	3.86
475.288	3.87
475.639	3.86
475.99	3.85
476.342	3.85
476.693	3.86
477.044	3.88
477.395	3.87
477.746	3.86
478.097	3.85
478.448	3.82
478.8	3.8
479.15	3.8
479.501	3.79
479.852	3.78
480.203	3.78
480.554	3.78
480.905	3.77
481.255	3.77
481.606	3.77
481.957	3.77
482.307	3.77
482.658	3.77
483.009	3.76
483.359	3.77
483.709	3.76
484.06	3.76
484.41	3.75
484.761	3.75
485.111	3.76
485.461	3.76
485.811	3.77
486.162	3.76
486.512	3.77
486.862	3.77
487.212	3.76
487.562	3.75
487.912	3.75
488.262	3.75
488.612	3.74
488.961	3.73
489.311	3.73
489.661	3.73
490.011	3.73
490.36	3.72
490.71	3.73
491.06	3.73
491.409	3.73
491.759	3.73
492.108	3.72
492.458	3.72
492.807	3.72
493.157	3.73
493.506	3.74
493.855	3.74
494.204	3.74
494.554	3.76
494.903	3.77
495.252	3.79
495.601	3.82
495.95	3.83
496.299	3.86
496.648	3.9
496.997	3.93
497.346	3.98
497.695	4.02
498.043	4.06
498.392	4.09
498.741	4.13
499.09	4.17
499.438	4.23
499.787	4.27
500.135	4.33
500.484	4.38
500.832	4.43
501.181	4.49
501.529	4.56
501.878	4.61
502.226	4.7
502.574	4.75
502.923	4.81
503.271	4.89
503.619	4.98
503.967	5.04
504.315	5.12
504.663	5.19
505.011	5.27
505.359	5.35
505.707	5.44
506.055	5.55
506.403	5.64
506.751	5.76
507.098	5.89
507.446	5.98
507.794	6.09
508.141	6.22
508.489	6.37
508.837	6.49
509.184	6.63
509.531	6.75
509.879	6.89
510.226	7.03
510.574	7.19
510.921	7.34
511.268	7.5
511.616	7.65
511.963	7.83
512.31	8.01
512.657	8.18
513.004	8.36
513.351	8.54
513.698	8.76
514.045	8.95
514.392	9.16
514.739	9.39
515.086	9.61
515.432	9.83
515.779	10
516.126	10.22
516.473	10.42
516.819	10.62
517.166	10.84
517.512	11.03
517.859	11.22
518.205	11.39
518.552	11.59
518.898	11.76
519.245	11.94
519.591	12.13
519.937	12.32
520.283	12.51
520.629	12.69
520.976	12.9
521.322	13.13
521.668	13.34
522.014	13.56
522.36	13.77
522.706	14.03
523.052	14.32
523.398	14.57
523.743	14.84
524.089	15.11
524.435	15.36
524.781	15.63
525.126	15.86
525.472	16.08
525.817	16.27
526.163	16.45
526.509	16.63
526.854	16.78
527.199	16.93
527.545	17.09
527.89	17.27
528.235	17.41
528.581	17.57
528.926	17.73
529.271	17.87
529.616	18.04
529.961	18.2
530.306	18.35
530.651	18.52
530.996	18.69
531.341	18.89
531.686	19.06
532.031	19.22
532.376	19.4
532.721	19.58
533.065	19.79
533.41	20.01
533.755	20.22
534.099	20.45
534.444	20.64
534.788	20.81
535.133	21
535.477	21.21
535.822	21.42
536.166	21.67
536.51	21.93
536.855	22.18
537.199	22.44
537.543	22.7
537.887	22.96
538.231	23.22
538.576	23.46
538.92	23.73
539.264	23.98
539.608	24.21
539.951	24.45
540.295	24.65
540.639	24.86
540.983	25.05
541.327	25.23
541.671	25.43
542.014	25.65
542.358	25.85
542.701	26.04
543.045	26.23
543.389	26.38
543.732	26.55
544.075	26.72
544.419	26.9
544.762	27.1
545.105	27.32
545.449	27.57
545.792	27.82
546.135	28.07
546.478	28.31
546.821	28.56
547.165	28.82
547.508	29.05
547.851	29.31
548.194	29.58
548.536	29.82
548.879	30.11
549.222	30.37
549.565	30.57
549.908	30.83
550.25	31.04
550.593	31.33
550.936	31.6
551.278	31.86
551.621	32.09
551.963	32.36
552.306	32.59
552.648	32.73
552.991	32.93
553.333	33.19
553.675	33.42
554.017	33.65
554.36	33.83
554.702	34.03
555.044	34.19
555.386	34.38
555.728	34.63
556.07	34.85
556.412	35.04
556.754	35.25
557.096	35.44
557.438	35.67
557.78	35.89
558.121	36.12
558.463	36.35
558.805	36.57
559.147	36.76
559.488	36.99
559.83	37.25
560.171	37.44
560.513	37.56
560.854	37.71
561.196	37.91
561.537	38.13
561.878	38.38
562.22	38.61
562.561	38.83
562.902	39.02
563.243	39.18
563.584	39.37
563.925	39.6
564.266	39.77
564.607	39.89
564.948	40.05
565.289	40.13
565.63	40.26
565.971	40.39
566.312	40.56
566.653	40.67
566.993	40.8
567.334	40.98
567.675	41.13
568.015	41.29
568.356	41.42
568.696	41.58
569.037	41.68
569.377	41.82
569.718	41.9
570.058	42.03
570.398	42.11
570.739	42.16
571.079	42.28
571.419	42.4
571.759	42.58
572.099	42.73
572.439	42.87
572.779	42.97
573.119	43.11
573.459	43.18
573.799	43.28
574.139	43.4
574.479	43.46
574.819	43.53
575.158	43.68
575.498	43.81
575.838	43.89
576.177	44
576.517	44.13
576.856	44.28
577.196	44.41
577.535	44.6
577.875	44.82
578.214	44.92
578.553	45.02
578.893	45.08
579.232	45.14
579.571	45.27
579.91	45.43
580.25	45.54
580.589	45.65
580.928	45.81
581.267	45.94
581.606	46.11
581.945	46.22
582.283	46.29
582.622	46.36
582.961	46.5
583.3	46.56
583.639	46.62
583.977	46.73
584.316	46.73
584.654	46.79
584.993	46.89
585.332	46.99
585.67	47.11
586.008	47.17
586.347	47.29
586.685	47.37
587.024	47.42
587.362	47.49
587.7	47.63
588.038	47.72
588.376	47.76
588.715	47.81
589.053	47.95
589.391	48.02
589.729	48.1
590.067	48.16
590.404	48.26
590.742	48.34
591.08	48.39
591.418	48.48
591.756	48.54
592.093	48.57
592.431	48.64
592.769	48.71
593.106	48.85
593.444	48.93
593.781	49.03
594.119	49.08
594.456	49.11
594.793	49.12
595.131	49.17
595.468	49.2
595.805	49.19
596.143	49.23
596.48	49.32
596.817	49.37
597.154	49.43
597.491	49.48
597.828	49.52
598.165	49.58
598.502	49.66
598.839	49.71
599.176	49.85
599.512	49.92
599.849	49.99
600.186	50.03
600.523	50.02
600.859	50.05
601.196	50.13
601.532	50.21
601.869	50.21
602.205	50.27
602.542	50.37
602.878	50.44
603.215	50.5
603.551	50.48
603.887	50.53
604.223	50.56
604.56	50.57
604.896	50.53
605.232	50.57
605.568	50.59
605.904	50.66
606.24	50.61
606.576	50.65
606.912	50.73
607.248	50.79
607.583	50.86
607.919	50.88
608.255	50.96
608.591	51.02
608.926	51.15
609.262	51.24
609.597	51.32
609.933	51.42
610.268	51.46
610.604	51.52
610.939	51.56
611.275	51.56
611.61	51.6
611.945	51.72
612.281	51.73
612.616	51.78
612.951	51.82
613.286	51.86
613.621	51.95
613.956	51.94
614.291	51.98
614.626	51.96
614.961	52.08
615.296	52.06
615.631	52.06
615.966	52.11
616.3	52.04
616.635	52.02
616.97	52.06
617.304	52.05
617.639	52.09
617.973	52.08
618.308	52.11
618.642	52.22
618.977	52.27
619.311	52.37
619.646	52.33
619.98	52.33
620.314	52.39
620.648	52.3
620.983	52.38
621.317	52.33
621.651	52.43
621.985	52.4
622.319	52.54
622.653	52.56
622.987	52.51
623.321	52.53
623.655	52.5
623.988	52.51
624.322	52.58
624.656	52.61
624.99	52.58
625.323	52.65
625.657	52.64
625.99	52.66
626.324	52.63
626.657	52.78
626.991	52.72
627.324	52.76
627.658	52.88
627.991	52.87
628.324	52.96
628.657	52.97
628.991	53.1
629.324	53.08
629.657	53.19
629.99	53.27
630.323	53.3
630.656	53.4
630.989	53.35
631.322	53.34
631.655	53.32
631.987	53.47
632.32	53.46
632.653	53.52
632.986	53.58
633.318	53.64
633.651	53.53
633.984	53.63
634.316	53.59
634.649	53.54
634.981	53.54
635.313	53.46
635.646	53.5
635.978	53.39
636.31	53.39
636.643	53.27
636.975	53.3
637.307	53.42
637.639	53.34
637.971	53.47
638.303	53.55
638.635	53.67
638.967	53.68
639.299	53.7
639.631	53.64
639.963	53.64
640.295	53.66
640.626	53.81
640.958	53.86
641.29	53.93
641.621	54.01
641.953	53.98
642.285	54.03
642.616	54.01
642.948	54.04
643.279	54
643.61	54.17
643.942	54.08
644.273	53.98
644.604	54.08
644.936	54
645.267	53.93
645.598	53.91
645.929	53.92
646.26	53.89
646.591	53.88
646.922	53.91
647.253	53.84
647.584	53.85
647.915	53.88
648.245	53.89
648.576	53.81
648.907	53.77
649.238	53.84
649.568	53.96
649.899	54.05
650.229	54.13
650.56	54.01
650.89	54.07
651.221	54
651.551	54.05
651.882	54.08
652.212	54.08
652.542	54.03
652.872	54.06
653.203	54.11
653.533	54.21
653.863	54.29
654.193	54.29
654.523	54.29
654.853	54.34
655.183	54.46
655.513	54.45
655.843	54.54
656.172	54.69
656.502	54.7
656.832	54.62
657.162	54.62
657.491	54.71
657.821	54.73
658.15	54.82
658.48	54.83
658.809	54.86
659.139	55.01
659.468	55.08
659.798	55.1
660.127	55.15
660.456	55.12
660.785	55.04
661.115	55.1
661.444	55.13
661.773	55.05
662.102	55
662.431	55.07
662.76	55.18
663.089	55.02
663.418	55.05
663.747	55.15
664.076	55.15
664.404	55.23
664.733	55.25
665.062	55.31
665.39	55.19
665.719	55.28
666.048	55.16
666.376	55.25
666.705	55.23
667.033	55.21
667.362	55.27
667.69	55.3
668.018	55.33
668.347	55.37
668.675	55.45
669.003	55.49
669.331	55.52
669.659	55.4
669.987	55.53
670.315	55.51
670.643	55.49
670.971	55.51
671.299	55.47
671.627	55.5
671.955	55.48
672.283	55.65
672.61	55.61
672.938	55.66
673.266	55.53
673.593	55.52
673.921	55.47
674.249	55.36
674.576	55.48
674.904	55.52
675.231	55.45
675.558	55.42
675.886	55.49
676.213	55.52
676.54	55.57
676.867	55.52
677.195	55.51
677.522	55.46
677.849	55.54
678.176	55.48
678.503	55.44
678.83	55.5
679.157	55.5
679.484	55.58
679.81	55.65
680.137	55.61
680.464	55.57
680.791	55.73
681.117	55.84
681.444	55.79
681.771	55.78
682.097	55.84
682.424	55.9
682.75	55.76
683.077	55.75
683.403	55.78
683.729	55.77
684.056	55.79
684.382	55.82
684.708	55.84
685.034	55.92
685.36	55.99
685.686	56.04
686.012	56.13
686.339	56
686.664	55.87
686.99	55.86
687.316	55.88
687.642	55.78
687.968	55.77
688.294	55.75
688.619	55.69
688.945	55.62
689.271	55.56
689.596	55.68
689.922	55.68
690.247	55.78
690.573	55.87
690.898	55.77
691.224	55.76
691.549	55.72
691.874	55.73
692.2	55.87
692.525	55.76
692.85	55.77
693.175	55.83
693.5	55.91
693.825	56.01
694.15	56.1
694.475	56.04
694.8	56.09
695.125	56.11
695.45	56.18
695.775	56.11
696.099	56.21
696.424	56.17
696.749	56.33
697.073	56.19
697.398	56.09
697.723	56.14
698.047	56.34
698.372	56.32
698.696	56.21
699.02	56.1
699.345	56.17
699.669	56.01
699.993	55.97
700.318	55.89
700.642	55.9
700.966	55.98
701.29	56.04
701.614	56.07
701.938	56.08
702.262	56.24
702.586	56.31
702.91	56.23
703.234	56.31
703.557	56.26
703.881	56.32
704.205	56.31
704.529	56.39
704.852	56.29
705.176	56.28
705.499	56.23
705.823	56.38
706.146	56.21
706.47	56.35
706.793	56.48
707.117	56.69
707.44	56.7
707.763	56.59
708.086	56.68
708.409	56.61
708.733	56.62
709.056	56.36
709.379	56.53
709.702	56.47
710.025	56.54
710.348	56.47
710.671	56.53
710.993	56.79
711.316	56.87
711.639	56.76
711.962	56.66
712.284	56.76
712.607	56.63
712.93	56.89
713.252	56.82
713.575	56.88
713.897	56.79
714.22	56.79
714.542	56.8
714.864	56.78
715.187	56.85
715.509	56.89
715.831	56.85
716.153	56.77
716.475	56.93
716.798	56.98
717.12	57.12
717.442	57.09
717.764	57.05
718.085	56.86
718.407	56.91
718.729	57.08
719.051	57.14
719.373	57.19
719.695	57.19
720.016	57.1
720.338	56.86
720.659	56.82
720.981	56.73
721.302	56.69
721.624	56.62
721.945	56.41
722.267	56.36
722.588	56.62
722.909	56.73
723.231	56.78
723.552	56.53
723.873	56.33
724.194	56.4
724.515	56.35
724.836	56.52
725.157	56.53
725.478	56.47
725.799	56.44
726.12	56.36
726.441	56.44
726.762	56.45
727.083	56.58
727.403	56.64
727.724	56.79
728.045	56.73
728.365	56.67
728.686	56.84
729.006	56.96
729.327	56.9
729.647	56.98
729.967	56.97
730.288	56.91
730.608	57.05
730.928	56.89
731.249	56.77
731.569	56.63
731.889	56.49
732.209	56.45
732.529	56.54
732.849	56.66
733.169	56.33
733.489	56.39
733.809	56.45
734.129	56.48
734.448	56.59
734.768	56.65
735.088	56.79
735.408	56.61
735.727	56.56
736.047	56.49
736.366	56.11
736.686	56.15
737.005	56.37
737.325	56.38
737.644	56.55
737.963	56.55
738.283	56.48
738.602	56.64
738.921	56.79
739.24	56.81
739.56	56.67
739.879	56.87
740.198	57.01
740.517	57
740.836	56.94
741.155	56.76
741.473	56.95
741.792	57.19
742.111	57.62
742.43	57.42
742.748	57.58
743.067	57.8
743.386	57.91
743.704	57.93
744.023	57.74
744.341	57.7
744.66	57.83
744.978	58.34
745.297	58.32
745.615	58.21
745.933	58.23
746.252	58.39
746.57	58.42
746.888	58.46
747.206	58.5
747.524	58.66
747.842	58.72
748.16	58.57
748.478	58.36
748.796	58.05
749.114	58.16
749.432	58.06
749.749	58.32
750.067	57.92
750.385	57.84
750.703	58.08
751.02	58.36
751.338	58.24
751.655	57.96
751.973	58.07
752.29	57.94
752.608	58.04
752.925	58.12
753.242	58.34
753.56	58.03
753.877	58.05
754.194	58.05
754.511	58.04
754.828	57.92
755.145	57.9
755.462	57.88
755.779	58.15
756.096	58.43
756.413	58.32
756.73	58.67
757.047	58.92
757.364	58.79
757.68	58.75
757.997	58.94
758.314	59.02
758.63	59.28
758.947	59.4
759.264	59.37
759.58	59.22
759.896	58.91
760.213	58.94
760.529	59.09
760.846	59.2
761.162	59.48
761.478	59.64
761.794	59.85
762.11	59.96
762.426	59.93
762.743	59.66
763.059	59.82
763.375	59.59
763.69	59.48
764.006	59.48
764.322	59.45
764.638	59.42
764.954	59.49
765.27	59.39
765.585	59.65
765.901	59.65
766.216	59.7
766.532	59.78
766.848	60.07
767.163	60.17
767.478	60.17
767.794	60.02
768.109	60.33
768.424	60.21
768.74	60.11
769.055	59.99
769.37	60.3
769.685	60.23
770	60.42
770.315	60.39
770.63	60.38
770.945	60.19
771.26	60.01
771.575	60.16
771.89	60.29
772.205	59.99
772.52	59.96
772.834	59.92
773.149	60.24
773.464	60.11
773.778	59.53
774.093	59.3
774.407	59.34
774.722	59.02
775.036	59.02
775.351	59.14
775.665	59.03
775.979	58.94
776.293	58.64
776.608	58.64
776.922	58.35
777.236	58.66
777.55	58.55
777.864	58.8
778.178	58.09
778.492	57.56
778.806	57.46
779.12	57.17
779.434	56.94
779.747	56.21
780.061	56.08
780.375	56.03
780.689	56.04
781.002	56.1
781.316	56.04
781.629	56.03
781.943	55.75
782.256	56.05
782.57	55.8
782.883	55.74
783.196	55.32
783.51	55.81
783.823	55.52
784.136	55.28
784.449	55.46
784.762	56.12
785.075	56.39
785.388	56.96
785.701	57.4
786.014	57.92
786.327	58.28
786.64	58.21
786.953	58.68
787.266	58.83
787.578	58.67
787.891	58.69
788.204	58.48
788.516	58.87
788.829	58.33
789.141	58.22
789.454	58.5
789.766	59.01
790.079	58.95
790.391	59.14
790.703	59.77
791.016	59.72
791.328	59.7
791.64	59.74
791.952	59.61
792.264	59.4
792.576	59.16
792.888	59.49
793.2	59.52
793.512	59.87
793.824	59.34
794.136	59.2
794.448	59.16
794.76	58.69
795.071	58.66
795.383	59.08
795.695	59.16
796.006	59.51
796.318	59.49
796.629	59.42
796.941	59.08
797.252	59.1
797.564	58.98
797.875	58.89
798.186	58.55
798.497	58.56
798.809	59
799.12	59.1
799.431	58.98
799.742	59.02
800.053	58.25
800.364	59.03
800.675	58.85
800.986	58.63
801.297	59.53
801.608	59.07
801.918	58.9
802.229	58.97
802.54	58.61
802.851	58.38
803.161	58.53
803.472	58.68
803.782	58.74
804.093	58.59
804.403	58.57
804.714	58.51
805.024	57.82
805.334	57.47
805.645	57.63
805.955	57.54
806.265	57.65
806.575	58.21
806.885	57.63
807.195	58.29
807.505	58.46
807.815	58.02
808.125	58.16
808.435	58.75
808.745	59.1
809.055	58.94
809.365	58.97
809.674	58.82
809.984	59.42
810.294	58.78
810.603	58.58
810.913	58.95
811.222	59.34
811.532	60.48
811.841	60.66
812.151	60.87
812.46	61.3
812.769	61.99
813.079	62.42
813.388	62.21
813.697	62.25
814.006	62.33
814.315	62.58
814.624	62.86
814.933	62.35
815.242	62.38
815.551	63.17
815.86	63.3
816.169	63.13
816.478	61.85
816.786	62.55
817.095	62.63
817.404	61.64
817.712	61.34
818.021	60.37
818.33	59.19
818.638	58.73
818.947	58.01
819.255	57.93
819.563	57.55
819.872	57.63
820.18	58.41
820.488	58.72
820.796	58.74
821.105	59.32
821.413	59.43
821.721	59.51
822.029	59.32
822.337	59.4
822.645	59.63
822.953	59.78
823.26	59.83
823.568	59.9
823.876	59.97
824.184	60.03
824.491	60.3
824.799	60.62
825.107	60.67
825.414	60.86
825.722	60.91
826.029	61.12
826.337	61.2
826.644	60.72
826.951	60.81
827.259	60.9
827.566	60.78
827.873	60.74
828.18	60.55
828.488	60.61
828.795	60.68
829.102	60.5
829.409	60.62
829.716	60.79
830.023	60.73
830.329	60.66
830.636	61.01
830.943	60.36
831.25	60.48
831.557	60.46
831.863	59.91
832.17	59.42
832.476	59.22
832.783	59.66
833.089	59.79
833.396	59.39
833.702	59.68
834.009	59.49
834.315	59.77
834.621	60.28
834.928	60.21
835.234	60.33
835.54	60.67
835.846	60.93
836.152	60.23
836.458	60.42
836.764	60.66
837.07	60.61
837.376	61.26
837.682	61.4
837.988	61.98
838.293	62.6
838.599	63.2
838.905	63.4
839.211	63.26
839.516	63.47
839.822	63.59
840.127	63.71
840.433	63.66
840.738	62.97
841.044	62.65
841.349	62.46
841.654	61.41
841.959	60.98
842.265	60.76
842.57	61.26
842.875	60.78
843.18	60.88
843.485	60.59
843.79	59.83
844.095	59.4
844.4	59.27
844.705	59.96
845.01	60.71
845.315	60.38
845.619	60.79
845.924	59.94
846.229	60.18
846.533	58.92
846.838	59.52
847.142	60.55
847.447	61.29
847.751	62.04
848.056	62.76
848.36	63.38
848.664	63.73
848.969	63.69
849.273	65.05
849.577	66.15
849.881	64.44
850.185	64.46
850.489	63.34
850.794	62.96
851.097	63.5
851.401	63.35
851.705	64.28
852.009	63.63
852.313	66.1
852.617	66.54
852.92	68.89
853.224	67.7
853.528	65.68
853.831	65.97
854.135	64.47
854.438	64.31
854.742	62.87
855.045	61.66
855.349	60.18
855.652	59.16
855.955	59.05
856.259	59.96
856.562	61.75
856.865	63.5
857.168	63.17
857.471	61.86
857.774	60.09
858.077	59.36
858.38	59.66
858.683	59.03
858.986	57.19
859.289	55.47
859.592	56.64
859.894	56.79
860.197	54.96
860.5	55.7
860.802	56.51
861.105	57.1
861.407	56.79
861.71	58.63
862.012	57.79
862.315	59.14
862.617	59.35
862.919	59.1
863.222	57.57
863.524	56.71
863.826	56.09
864.128	56.18
864.43	55.46
864.732	56.27
865.034	56.19
865.336	59.35
865.638	57.98
865.94	58.71
866.242	58.3
866.544	58.58
866.846	60.09
867.147	58.88
867.449	58.67
867.751	60.34
868.052	60.01
868.354	59.57
868.655	57.4
868.957	57.84
869.258	56.6
869.56	58.03
869.861	57.13
870.162	57.92
870.463	58.77
870.765	59.3
871.066	58.93
871.367	59.14
871.668	58.38
871.969	60.46
872.27	59.53
872.571	59.64
872.872	59.42
873.173	58.39
873.473	58.47
873.774	60.08
874.075	60.91
874.376	60.24
874.676	61.55
874.977	64.44
875.277	63.25
875.578	63.13
875.878	62.53
876.179	64.14
876.479	64.29
876.78	64.41
877.08	65.57
877.38	65.3
877.68	65.86
877.981	64.17
878.281	63.49
878.581	61.03
