Data from BU26938_Reflection_00011.txt Node
Date: Tue Nov 19 10:42:28 EST 2019
User: vgr7
Spectrometer: USB2G7710
Scans to average: 3
Trigger mode: 4
Integration Time (sec): 2.000000E-2
Electric dark correction enabled: true
Boxcar width: 10
XAxis mode: Wavelengths
Number of Pixels in Spectrum: 2048
>>>>>Begin Spectral Data<<<<<
177.721	-135.55
178.105	1061.54
178.488	-336.09
178.871	-2850
179.254	-48.39
179.636	361.36
180.019	349.15
180.402	-152.38
180.785	868.42
181.168	382.44
181.55	190.91
181.933	-20.42
182.316	307.79
182.698	-1964.52
183.081	263.5
183.463	-311.04
183.846	-703.28
184.228	-710.13
184.611	-690.7
184.993	-52.94
185.376	4242.86
185.758	-86.12
186.14	-152.46
186.522	-125.6
186.904	-272.09
187.287	-53.59
187.669	-2.16
188.051	-47.1
188.433	-244.47
188.815	-323.94
189.197	-292.54
189.579	-373.57
189.961	-767
190.342	-188.44
190.724	-439.5
191.106	-576.55
191.488	-284.43
191.869	-183.17
192.251	-135.67
192.633	-147.37
193.014	-102.07
193.396	-65.61
193.777	-70.6
194.159	-57.71
194.54	-30.26
194.922	-34.81
195.303	-41.81
195.684	-41.26
196.065	-25.91
196.447	-11.16
196.828	-4.57
197.209	2.25
197.59	14.31
197.971	11.24
198.352	4.73
198.733	2.74
199.114	-1.44
199.495	16.88
199.876	19.02
200.257	24.84
200.638	18.03
201.018	1.81
201.399	-1.2
201.78	10.43
202.16	11.37
202.541	-15.98
202.922	-10.85
203.302	-17.74
203.683	-14.81
204.063	-21.11
204.444	-27.3
204.824	-20.44
205.204	-9.52
205.585	-36.54
205.965	-25.7
206.345	-43.54
206.725	-45.76
207.106	-13.39
207.486	-20.1
207.866	-13.28
208.246	-3.09
208.626	-30.89
209.006	-21.24
209.386	-22.21
209.766	-31.49
210.145	-15.42
210.525	-56.96
210.905	-38.38
211.285	-7.37
211.664	-16.58
212.044	-56.92
212.424	-22.67
212.803	-71.89
213.183	-105.1
213.562	-46.92
213.942	-39.75
214.321	-45.25
214.701	-56.51
215.08	-71.46
215.459	-73.62
215.838	-114.77
216.218	-138.44
216.597	-97.05
216.976	-86.11
217.355	-122.38
217.734	-114.34
218.113	-93.79
218.492	-61.53
218.871	-56.88
219.25	-54.98
219.629	-49.43
220.008	-15.65
220.387	-4.53
220.766	16.35
221.144	21.33
221.523	21.04
221.902	14.16
222.28	34.07
222.659	42.37
223.037	24.75
223.416	27.92
223.794	39.37
224.173	41.45
224.551	32.98
224.929	26.75
225.308	31.62
225.686	31.12
226.064	14.78
226.442	11.5
226.821	11.77
227.199	5.56
227.577	4.39
227.955	4.01
228.333	-2.07
228.711	-2.83
229.089	-1.2
229.467	0.6
229.845	2.46
230.222	2.84
230.6	4.36
230.978	4.64
231.356	2.93
231.733	4.41
232.111	3.13
232.488	6.17
232.866	6.7
233.243	6.4
233.621	6.89
233.998	10.74
234.376	11.99
234.753	12.52
235.13	14.27
235.508	14.36
235.885	11.96
236.262	12.12
236.639	11.22
237.016	11.67
237.393	10.88
237.77	10.65
238.147	10.12
238.524	8.42
238.901	7.91
239.278	8.31
239.655	7.13
240.032	7.33
240.409	6.81
240.785	6.16
241.162	6.04
241.539	5.82
241.915	4.64
242.292	4.42
242.668	4.12
243.045	3.82
243.421	3.82
243.798	4.31
244.174	4.35
244.551	4.45
244.927	4.15
245.303	4.16
245.679	4.05
246.056	4.11
246.432	4.2
246.808	4.34
247.184	4.31
247.56	4.29
247.936	4.15
248.312	3.91
248.688	4.04
249.064	4.22
249.44	3.9
249.815	4.18
250.191	4.08
250.567	4.19
250.943	4.15
251.318	4.06
251.694	4.13
252.069	4.04
252.445	4.1
252.82	4.24
253.196	4.11
253.571	4.07
253.947	3.71
254.322	3.54
254.697	3.33
255.073	2.83
255.448	2.99
255.823	3.07
256.198	3.17
256.573	3.23
256.948	3.28
257.323	3.61
257.698	3.47
258.073	3.5
258.448	3.59
258.823	3.47
259.198	3.47
259.573	3.25
259.948	3.32
260.322	3.19
260.697	3.23
261.072	3.28
261.446	3.3
261.821	3.28
262.195	3.3
262.57	3.52
262.944	3.9
263.319	3.78
263.693	3.78
264.067	3.88
264.442	4.04
264.816	3.7
265.19	3.55
265.564	3.6
265.938	3.63
266.313	3.38
266.687	3.49
267.061	3.55
267.435	3.83
267.809	3.74
268.183	3.63
268.556	3.53
268.93	3.26
269.304	3.13
269.678	3.43
270.051	3.58
270.425	3.41
270.799	3.06
271.172	3.06
271.546	3.11
271.919	3.1
272.293	3
272.666	3.21
273.04	3.32
273.413	3.24
273.787	3.29
274.16	3.2
274.533	3.22
274.906	3.22
275.279	3.24
275.653	3.33
276.026	3.53
276.399	3.65
276.772	3.89
277.145	4.07
277.518	3.87
277.891	3.9
278.263	4.07
278.636	4.46
279.009	4.57
279.382	4.61
279.755	4.67
280.127	4.66
280.5	4.52
280.872	4.43
281.245	4.48
281.617	4.47
281.99	4.51
282.362	4.67
282.735	4.55
283.107	4.3
283.479	4.23
283.852	4.1
284.224	3.97
284.596	3.98
284.968	3.78
285.34	3.75
285.713	3.58
286.085	3.52
286.457	3.26
286.829	3.27
287.201	3.26
287.572	3.32
287.944	3.38
288.316	3.46
288.688	3.39
289.06	3.41
289.431	3.29
289.803	3.37
290.175	3.17
290.546	3.21
290.918	3.19
291.289	3.17
291.661	3.17
292.032	3.14
292.403	3.11
292.775	3.22
293.146	3.27
293.517	3.46
293.889	3.46
294.26	3.57
294.631	3.59
295.002	3.62
295.373	3.56
295.744	3.55
296.115	3.61
296.486	3.67
296.857	3.7
297.228	3.65
297.599	3.56
297.97	3.78
298.34	3.81
298.711	3.96
299.082	3.82
299.452	3.8
299.823	3.95
300.194	3.9
300.564	3.89
300.935	3.91
301.305	3.88
301.676	3.9
302.046	3.98
302.416	3.94
302.787	3.94
303.157	3.95
303.527	3.94
303.897	3.78
304.267	3.81
304.637	3.69
305.008	3.81
305.378	3.97
305.748	3.81
306.117	3.94
306.487	3.87
306.857	4.07
307.227	4.19
307.597	4.21
307.967	4.25
308.336	4.3
308.706	4.37
309.076	4.34
309.445	4.39
309.815	4.29
310.184	4.29
310.554	4.23
310.923	4.3
311.293	4.27
311.662	4.48
312.031	4.51
312.401	4.65
312.77	4.66
313.139	4.66
313.508	4.74
313.877	4.64
314.246	4.69
314.616	4.79
314.985	4.79
315.353	4.83
315.722	4.95
316.091	5
316.46	4.93
316.829	4.91
317.198	4.96
317.567	5.07
317.935	5.12
318.304	5.34
318.672	5.3
319.041	5.38
319.41	5.42
319.778	5.41
320.147	5.37
320.515	5.49
320.883	5.6
321.252	5.71
321.62	5.71
321.988	5.79
322.357	5.78
322.725	5.9
323.093	5.75
323.461	5.76
323.829	5.77
324.197	5.76
324.565	5.85
324.933	5.68
325.301	5.7
325.669	5.69
326.037	5.64
326.405	5.64
326.772	5.64
327.14	5.49
327.508	5.48
327.875	5.58
328.243	5.58
328.61	5.44
328.978	5.27
329.346	5.31
329.713	5.25
330.08	5.37
330.448	5.33
330.815	5.46
331.182	5.35
331.55	5.27
331.917	5.41
332.284	5.29
332.651	5.39
333.018	5.28
333.385	5.22
333.752	5.31
334.119	5.3
334.486	5.37
334.853	5.45
335.22	5.49
335.587	5.31
335.954	5.39
336.32	5.54
336.687	5.69
337.054	5.71
337.42	5.75
337.787	5.75
338.153	5.75
338.52	5.78
338.886	5.93
339.253	5.95
339.619	6.01
339.986	6.18
340.352	6.22
340.718	6.28
341.084	6.41
341.451	6.42
341.817	6.45
342.183	6.36
342.549	6.42
342.915	6.44
343.281	6.59
343.647	6.57
344.013	6.55
344.379	6.5
344.745	6.6
345.11	6.59
345.476	6.48
345.842	6.37
346.208	6.25
346.573	6.17
346.939	6.2
347.304	6.15
347.67	6.05
348.035	6.12
348.401	6.2
348.766	6.1
349.132	6.07
349.497	6.13
349.862	6.15
350.228	6.17
350.593	6.16
350.958	6.23
351.323	6.21
351.688	6.21
352.053	6.13
352.418	6.13
352.783	6.15
353.148	6.17
353.513	6.17
353.878	6.25
354.243	6.3
354.608	6.36
354.972	6.4
355.337	6.44
355.702	6.39
356.066	6.32
356.431	6.34
356.795	6.27
357.16	6.21
357.524	6.23
357.889	6.14
358.253	6.16
358.618	6.07
358.982	6.05
359.346	6
359.71	6.07
360.075	6.07
360.439	6.06
360.803	6.07
361.167	6.09
361.531	6.06
361.895	6.04
362.259	6.03
362.623	6
362.987	5.98
363.351	5.95
363.714	5.96
364.078	5.97
364.442	6
364.806	6
365.169	5.96
365.533	6
365.896	6
366.26	5.93
366.623	5.95
366.987	5.96
367.35	5.95
367.714	5.88
368.077	5.89
368.44	5.8
368.803	5.77
369.167	5.68
369.53	5.66
369.893	5.6
370.256	5.54
370.619	5.43
370.982	5.34
371.345	5.29
371.708	5.24
372.071	5.18
372.434	5.11
372.797	5.17
373.159	5.06
373.522	5.02
373.885	5
374.247	4.97
374.61	4.9
374.973	4.83
375.335	4.83
375.698	4.7
376.06	4.65
376.423	4.62
376.785	4.65
377.147	4.61
377.51	4.58
377.872	4.55
378.234	4.57
378.596	4.56
378.958	4.62
379.321	4.59
379.683	4.58
380.045	4.58
380.407	4.49
380.769	4.44
381.13	4.45
381.492	4.45
381.854	4.41
382.216	4.41
382.578	4.39
382.939	4.35
383.301	4.41
383.663	4.43
384.024	4.45
384.386	4.47
384.747	4.43
385.109	4.42
385.47	4.4
385.832	4.4
386.193	4.41
386.554	4.32
386.916	4.35
387.277	4.28
387.638	4.25
387.999	4.22
388.36	4.29
388.721	4.25
389.082	4.27
389.443	4.27
389.804	4.25
390.165	4.26
390.526	4.19
390.887	4.11
391.248	4.14
391.609	4.13
391.969	4.1
392.33	4.08
392.691	4.08
393.051	4.09
393.412	4.05
393.772	4.05
394.133	4.03
394.493	4
394.854	4.02
395.214	4.01
395.574	4
395.935	3.98
396.295	3.95
396.655	3.9
397.015	3.86
397.376	3.83
397.736	3.81
398.096	3.8
398.456	3.78
398.816	3.73
399.176	3.7
399.535	3.65
399.895	3.63
400.255	3.62
400.615	3.59
400.975	3.61
401.334	3.59
401.694	3.59
402.054	3.58
402.413	3.54
402.773	3.59
403.132	3.58
403.492	3.57
403.851	3.54
404.211	3.5
404.57	3.55
404.929	3.53
405.288	3.51
405.648	3.53
406.007	3.58
406.366	3.57
406.725	3.57
407.084	3.61
407.443	3.61
407.802	3.58
408.161	3.57
408.52	3.55
408.879	3.55
409.238	3.55
409.596	3.54
409.955	3.55
410.314	3.54
410.673	3.54
411.031	3.54
411.39	3.56
411.748	3.59
412.107	3.57
412.465	3.58
412.824	3.57
413.182	3.56
413.54	3.55
413.899	3.52
414.257	3.49
414.615	3.47
414.974	3.47
415.332	3.46
415.69	3.45
416.048	3.45
416.406	3.43
416.764	3.43
417.122	3.43
417.48	3.4
417.838	3.36
418.195	3.35
418.553	3.33
418.911	3.32
419.269	3.32
419.626	3.31
419.984	3.31
420.342	3.31
420.699	3.3
421.057	3.29
421.414	3.31
421.772	3.32
422.129	3.3
422.486	3.31
422.844	3.3
423.201	3.3
423.558	3.3
423.915	3.31
424.273	3.31
424.63	3.31
424.987	3.32
425.344	3.33
425.701	3.32
426.058	3.32
426.415	3.33
426.772	3.31
427.128	3.31
427.485	3.29
427.842	3.28
428.199	3.29
428.555	3.28
428.912	3.27
429.269	3.26
429.625	3.28
429.982	3.27
430.338	3.3
430.695	3.3
431.051	3.28
431.407	3.26
431.764	3.25
432.12	3.25
432.476	3.27
432.832	3.26
433.189	3.26
433.545	3.26
433.901	3.25
434.257	3.25
434.613	3.24
434.969	3.26
435.325	3.27
435.681	3.28
436.036	3.29
436.392	3.29
436.748	3.29
437.104	3.29
437.459	3.27
437.815	3.25
438.171	3.27
438.526	3.26
438.882	3.27
439.237	3.28
439.593	3.28
439.948	3.26
440.304	3.25
440.659	3.28
441.014	3.3
441.369	3.29
441.725	3.3
442.08	3.31
442.435	3.31
442.79	3.29
443.145	3.28
443.5	3.26
443.855	3.25
444.21	3.25
444.565	3.24
444.92	3.24
445.275	3.25
445.629	3.22
445.984	3.21
446.339	3.22
446.693	3.22
447.048	3.2
447.403	3.2
447.757	3.21
448.112	3.2
448.466	3.19
448.82	3.2
449.175	3.18
449.529	3.19
449.883	3.17
450.238	3.18
450.592	3.18
450.946	3.19
451.3	3.2
451.654	3.21
452.008	3.2
452.362	3.21
452.716	3.2
453.07	3.22
453.424	3.2
453.778	3.18
454.132	3.19
454.486	3.2
454.839	3.21
455.193	3.19
455.547	3.19
455.9	3.2
456.254	3.2
456.607	3.21
456.961	3.22
457.314	3.22
457.668	3.21
458.021	3.18
458.375	3.18
458.728	3.17
459.081	3.18
459.434	3.18
459.787	3.18
460.141	3.18
460.494	3.19
460.847	3.22
461.2	3.23
461.553	3.24
461.906	3.24
462.259	3.22
462.611	3.22
462.964	3.22
463.317	3.2
463.67	3.19
464.022	3.19
464.375	3.16
464.728	3.18
465.08	3.19
465.433	3.22
465.785	3.24
466.138	3.24
466.49	3.23
466.843	3.22
467.195	3.22
467.547	3.22
467.899	3.2
468.252	3.19
468.604	3.21
468.956	3.22
469.308	3.23
469.66	3.25
470.012	3.26
470.364	3.28
470.716	3.29
471.068	3.32
471.42	3.33
471.772	3.33
472.123	3.34
472.475	3.34
472.827	3.36
473.178	3.34
473.53	3.35
473.882	3.37
474.233	3.4
474.585	3.41
474.936	3.42
475.288	3.43
475.639	3.44
475.99	3.42
476.342	3.41
476.693	3.42
477.044	3.41
477.395	3.42
477.746	3.4
478.097	3.41
478.448	3.36
478.8	3.35
479.15	3.35
479.501	3.33
479.852	3.34
480.203	3.34
480.554	3.33
480.905	3.34
481.255	3.31
481.606	3.32
481.957	3.32
482.307	3.32
482.658	3.33
483.009	3.33
483.359	3.33
483.709	3.32
484.06	3.32
484.41	3.33
484.761	3.32
485.111	3.33
485.461	3.33
485.811	3.34
486.162	3.35
486.512	3.36
486.862	3.37
487.212	3.36
487.562	3.36
487.912	3.36
488.262	3.36
488.612	3.38
488.961	3.38
489.311	3.38
489.661	3.39
490.011	3.39
490.36	3.4
490.71	3.4
491.06	3.4
491.409	3.41
491.759	3.41
492.108	3.41
492.458	3.41
492.807	3.4
493.157	3.41
493.506	3.41
493.855	3.41
494.204	3.4
494.554	3.4
494.903	3.41
495.252	3.43
495.601	3.44
495.95	3.44
496.299	3.45
496.648	3.47
496.997	3.49
497.346	3.49
497.695	3.5
498.043	3.52
498.392	3.54
498.741	3.54
499.09	3.58
499.438	3.6
499.787	3.62
500.135	3.65
500.484	3.66
500.832	3.68
501.181	3.72
501.529	3.78
501.878	3.82
502.226	3.85
502.574	3.89
502.923	3.9
503.271	3.92
503.619	3.95
503.967	3.95
504.315	3.99
504.663	4.02
505.011	4.04
505.359	4.07
505.707	4.09
506.055	4.11
506.403	4.12
506.751	4.17
507.098	4.2
507.446	4.24
507.794	4.29
508.141	4.32
508.489	4.34
508.837	4.36
509.184	4.41
509.531	4.42
509.879	4.45
510.226	4.5
510.574	4.55
510.921	4.59
511.268	4.64
511.616	4.7
511.963	4.74
512.31	4.81
512.657	4.87
513.004	4.94
513.351	5.03
513.698	5.13
514.045	5.17
514.392	5.28
514.739	5.37
515.086	5.46
515.432	5.56
515.779	5.66
516.126	5.77
516.473	5.85
516.819	5.99
517.166	6.12
517.512	6.2
517.859	6.32
518.205	6.4
518.552	6.5
518.898	6.55
519.245	6.66
519.591	6.75
519.937	6.86
520.283	6.97
520.629	7.08
520.976	7.2
521.322	7.36
521.668	7.47
522.014	7.62
522.36	7.77
522.706	7.94
523.052	8.09
523.398	8.28
523.743	8.47
524.089	8.66
524.435	8.81
524.781	9
525.126	9.14
525.472	9.34
525.817	9.5
526.163	9.65
526.509	9.77
526.854	9.89
527.199	10
527.545	10.11
527.89	10.22
528.235	10.33
528.581	10.45
528.926	10.56
529.271	10.67
529.616	10.78
529.961	10.89
530.306	11.03
530.651	11.14
530.996	11.28
531.341	11.4
531.686	11.54
532.031	11.69
532.376	11.85
532.721	11.96
533.065	12.11
533.41	12.27
533.755	12.44
534.099	12.59
534.444	12.76
534.788	12.92
535.133	13.08
535.477	13.24
535.822	13.41
536.166	13.59
536.51	13.76
536.855	13.95
537.199	14.15
537.543	14.34
537.887	14.57
538.231	14.75
538.576	14.97
538.92	15.18
539.264	15.38
539.608	15.58
539.951	15.75
540.295	15.92
540.639	16.07
540.983	16.25
541.327	16.43
541.671	16.58
542.014	16.78
542.358	16.94
542.701	17.11
543.045	17.27
543.389	17.43
543.732	17.61
544.075	17.79
544.419	17.96
544.762	18.15
545.105	18.33
545.449	18.56
545.792	18.78
546.135	18.99
546.478	19.2
546.821	19.43
547.165	19.7
547.508	19.93
547.851	20.18
548.194	20.41
548.536	20.64
548.879	20.94
549.222	21.16
549.565	21.42
549.908	21.67
550.25	21.91
550.593	22.19
550.936	22.5
551.278	22.78
551.621	23.06
551.963	23.34
552.306	23.59
552.648	23.8
552.991	24
553.333	24.25
553.675	24.53
554.017	24.71
554.36	24.97
554.702	25.23
555.044	25.51
555.386	25.75
555.728	25.99
556.07	26.2
556.412	26.49
556.754	26.71
557.096	26.98
557.438	27.21
557.78	27.46
558.121	27.72
558.463	27.94
558.805	28.2
559.147	28.44
559.488	28.67
559.83	28.9
560.171	29.19
560.513	29.44
560.854	29.63
561.196	29.9
561.537	30.15
561.878	30.42
562.22	30.64
562.561	30.85
562.902	31.12
563.243	31.41
563.584	31.59
563.925	31.85
564.266	32.06
564.607	32.29
564.948	32.5
565.289	32.66
565.63	32.86
565.971	33.07
566.312	33.26
566.653	33.49
566.993	33.7
567.334	33.88
567.675	34.11
568.015	34.32
568.356	34.51
568.696	34.65
569.037	34.83
569.377	35.03
569.718	35.27
570.058	35.45
570.398	35.61
570.739	35.79
571.079	35.93
571.419	36.11
571.759	36.26
572.099	36.45
572.439	36.59
572.779	36.78
573.119	36.93
573.459	37.14
573.799	37.31
574.139	37.43
574.479	37.6
574.819	37.73
575.158	37.84
575.498	38.03
575.838	38.19
576.177	38.35
576.517	38.48
576.856	38.59
577.196	38.69
577.535	38.82
577.875	38.99
578.214	39.13
578.553	39.31
578.893	39.5
579.232	39.65
579.571	39.82
579.91	39.96
580.25	40.12
580.589	40.22
580.928	40.28
581.267	40.49
581.606	40.57
581.945	40.7
582.283	40.88
582.622	41.02
582.961	41.21
583.3	41.35
583.639	41.52
583.977	41.7
584.316	41.89
584.654	42.04
584.993	42.1
585.332	42.2
585.67	42.29
586.008	42.41
586.347	42.52
586.685	42.66
587.024	42.71
587.362	42.87
587.7	42.96
588.038	43.17
588.376	43.22
588.715	43.39
589.053	43.55
589.391	43.65
589.729	43.67
590.067	43.74
590.404	43.76
590.742	43.86
591.08	44.01
591.418	44.17
591.756	44.25
592.093	44.45
592.431	44.63
592.769	44.71
593.106	44.84
593.444	44.89
593.781	44.99
594.119	45.22
594.456	45.28
594.793	45.36
595.131	45.43
595.468	45.52
595.805	45.63
596.143	45.66
596.48	45.78
596.817	45.86
597.154	45.96
597.491	46.09
597.828	46.17
598.165	46.16
598.502	46.16
598.839	46.24
599.176	46.34
599.512	46.42
599.849	46.59
600.186	46.7
600.523	46.85
600.859	46.96
601.196	46.97
601.532	47.08
601.869	47.2
602.205	47.36
602.542	47.5
602.878	47.56
603.215	47.66
603.551	47.72
603.887	47.85
604.223	47.82
604.56	47.86
604.896	47.97
605.232	48.11
605.568	48.24
605.904	48.28
606.24	48.29
606.576	48.32
606.912	48.3
607.248	48.35
607.583	48.4
607.919	48.44
608.255	48.54
608.591	48.6
608.926	48.66
609.262	48.62
609.597	48.54
609.933	48.63
610.268	48.69
610.604	48.73
610.939	48.76
611.275	48.9
611.61	48.93
611.945	48.89
612.281	48.93
612.616	48.97
612.951	49.13
613.286	49.2
613.621	49.24
613.956	49.42
614.291	49.4
614.626	49.43
614.961	49.47
615.296	49.5
615.631	49.44
615.966	49.44
616.3	49.53
616.635	49.62
616.97	49.57
617.304	49.55
617.639	49.56
617.973	49.66
618.308	49.66
618.642	49.8
618.977	49.92
619.311	49.94
619.646	49.97
619.98	49.92
620.314	49.97
620.648	49.96
620.983	50
621.317	50.09
621.651	50.17
621.985	50.26
622.319	50.35
622.653	50.46
622.987	50.52
623.321	50.58
623.655	50.72
623.988	50.8
624.322	50.87
624.656	50.93
624.99	50.93
625.323	50.99
625.657	50.9
625.99	50.89
626.324	50.97
626.657	50.9
626.991	50.92
627.324	50.98
627.658	51.04
627.991	51
628.324	51.08
628.657	51.05
628.991	51.08
629.324	51.08
629.657	51.1
629.99	51.18
630.323	51.21
630.656	51.24
630.989	51.26
631.322	51.32
631.655	51.4
631.987	51.44
632.32	51.41
632.653	51.54
632.986	51.58
633.318	51.55
633.651	51.7
633.984	51.79
634.316	51.77
634.649	51.91
634.981	51.95
635.313	51.96
635.646	52.05
635.978	52.02
636.31	52.02
636.643	52.05
636.975	52.03
637.307	52.04
637.639	52.09
637.971	52.03
638.303	51.98
638.635	52.01
638.967	52.05
639.299	52.09
639.631	52.12
639.963	52.15
640.295	52.26
640.626	52.25
640.958	52.25
641.29	52.31
641.621	52.33
641.953	52.41
642.285	52.44
642.616	52.43
642.948	52.42
643.279	52.36
643.61	52.41
643.942	52.54
644.273	52.54
644.604	52.55
644.936	52.68
645.267	52.76
645.598	52.73
645.929	52.7
646.26	52.78
646.591	52.72
646.922	52.71
647.253	52.7
647.584	52.77
647.915	52.87
648.245	52.91
648.576	52.84
648.907	52.88
649.238	52.88
649.568	52.84
649.899	52.92
650.229	53.06
650.56	53.16
650.89	53.07
651.221	53.05
651.551	53.09
651.882	53.09
652.212	53.05
652.542	53.07
652.872	53.16
653.203	53.21
653.533	53.23
653.863	53.31
654.193	53.21
654.523	53.13
654.853	53.05
655.183	53.07
655.513	53.16
655.843	53.11
656.172	53.19
656.502	53.32
656.832	53.41
657.162	53.42
657.491	53.37
657.821	53.44
658.15	53.44
658.48	53.4
658.809	53.4
659.139	53.46
659.468	53.5
659.798	53.52
660.127	53.49
660.456	53.52
660.785	53.46
661.115	53.5
661.444	53.65
661.773	53.83
662.102	53.8
662.431	53.78
662.76	53.84
663.089	53.75
663.418	53.7
663.747	53.7
664.076	53.75
664.404	53.82
664.733	53.84
665.062	53.91
665.39	53.97
665.719	53.96
666.048	54.04
666.376	54.07
666.705	54.15
667.033	54.3
667.362	54.37
667.69	54.49
668.018	54.58
668.347	54.5
668.675	54.4
669.003	54.5
669.331	54.55
669.659	54.6
669.987	54.76
670.315	54.82
670.643	54.8
670.971	54.68
671.299	54.8
671.627	54.76
671.955	54.81
672.283	54.81
672.61	55
672.938	54.97
673.266	54.86
673.593	54.73
673.921	54.8
674.249	54.67
674.576	54.62
674.904	54.76
675.231	54.85
675.558	54.82
675.886	54.89
676.213	54.87
676.54	54.96
676.867	54.89
677.195	54.93
677.522	54.99
677.849	55.16
678.176	54.97
678.503	55
678.83	54.97
679.157	54.96
679.484	54.97
679.81	55.01
680.137	55.09
680.464	55.22
680.791	55.16
681.117	55.42
681.444	55.41
681.771	55.16
682.097	55.12
682.424	55.09
682.75	54.98
683.077	55.05
683.403	55.08
683.729	55.02
684.056	54.88
684.382	54.86
684.708	54.91
685.034	54.91
685.36	54.93
685.686	55.01
686.012	55.08
686.339	54.82
686.664	54.73
686.99	54.8
687.316	54.72
687.642	54.69
687.968	54.66
688.294	54.83
688.619	54.97
688.945	55.14
689.271	55.14
689.596	55.17
689.922	55.16
690.247	55.11
690.573	55.29
690.898	55.55
691.224	55.56
691.549	55.39
691.874	55.5
692.2	55.65
692.525	55.52
692.85	55.53
693.175	55.77
693.5	55.92
693.825	55.96
694.15	55.93
694.475	56.03
694.8	55.93
695.125	55.96
695.45	56.03
695.775	55.89
696.099	55.89
696.424	55.93
696.749	55.87
697.073	55.89
697.398	56
697.723	55.99
698.047	56.04
698.372	56.1
698.696	55.99
699.02	55.9
699.345	56.02
699.669	55.96
699.993	55.92
700.318	55.96
700.642	55.86
700.966	55.96
701.29	55.86
701.614	55.87
701.938	55.92
702.262	55.89
702.586	55.78
702.91	55.91
703.234	56.03
703.557	56.12
703.881	56.17
704.205	55.92
704.529	55.86
704.852	55.69
705.176	55.95
705.499	56.11
705.823	56.12
706.146	56.17
706.47	56.5
706.793	56.54
707.117	56.53
707.44	56.51
707.763	56.65
708.086	56.57
708.409	56.68
708.733	56.44
709.056	56.39
709.379	56.69
709.702	56.65
710.025	56.51
710.348	56.56
710.671	56.4
710.993	56.62
711.316	56.73
711.639	56.82
711.962	56.61
712.284	56.7
712.607	56.64
712.93	56.45
713.252	56.15
713.575	56.25
713.897	56.3
714.22	56.58
714.542	56.34
714.864	56.41
715.187	56.2
715.509	56.27
715.831	56.32
716.153	56.24
716.475	56.21
716.798	56.27
717.12	56.21
717.442	56.26
717.764	56.12
718.085	55.99
718.407	55.94
718.729	55.97
719.051	55.86
719.373	56.11
719.695	56.09
720.016	56.16
720.338	56.21
720.659	56.23
720.981	55.99
721.302	56.05
721.624	56.25
721.945	56.56
722.267	56.7
722.588	56.76
722.909	56.55
723.231	56.54
723.552	56.51
723.873	56.4
724.194	56.48
724.515	56.41
724.836	56.71
725.157	56.75
725.478	56.7
725.799	56.67
726.12	56.48
726.441	56.69
726.762	56.69
727.083	56.44
727.403	56.34
727.724	56.28
728.045	56.35
728.365	56.06
728.686	55.85
729.006	55.78
729.327	55.73
729.647	55.84
729.967	55.98
730.288	56.07
730.608	56.24
730.928	56.15
731.249	56.51
731.569	56.56
731.889	56.4
732.209	56.4
732.529	56.49
732.849	56.68
733.169	56.71
733.489	56.6
733.809	56.76
734.129	56.93
734.448	57.04
734.768	57.11
735.088	57.32
735.408	57.46
735.727	57.42
736.047	57.69
736.366	57.61
736.686	57.49
737.005	57.24
737.325	57.02
737.644	57
737.963	56.61
738.283	56.19
738.602	56.53
738.921	56.68
739.24	56.71
739.56	56.59
739.879	56.34
740.198	56.31
740.517	56.45
740.836	56.46
741.155	56.57
741.473	56.43
741.792	56.36
742.111	56.37
742.43	56.52
742.748	56.26
743.067	56.34
743.386	56.2
743.704	56.63
744.023	56.93
744.341	57.06
744.66	56.95
744.978	57.15
745.297	57.16
745.615	56.86
745.933	57.02
746.252	57.23
746.57	57.64
746.888	57.75
747.206	57.83
747.524	57.78
747.842	57.56
748.16	57.87
748.478	57.95
748.796	57.79
749.114	57.41
749.432	57.61
749.749	58
750.067	58.11
750.385	57.85
750.703	57.93
751.02	57.91
751.338	58.22
751.655	58.29
751.973	57.91
752.29	58.28
752.608	57.92
752.925	57.72
753.242	57.5
753.56	57.43
753.877	57.16
754.194	56.85
754.511	57.02
754.828	56.5
755.145	56.56
755.462	56.59
755.779	56.73
756.096	56.79
756.413	56.62
756.73	56.99
757.047	56.98
757.364	57.17
757.68	57.36
757.997	57.29
758.314	57.2
758.63	57.57
758.947	57.32
759.264	57.43
759.58	57.19
759.896	57.32
760.213	57.6
760.529	57.8
760.846	58.04
761.162	58.03
761.478	58.19
761.794	58.3
762.11	58.48
762.426	58.58
762.743	58.51
763.059	58.58
763.375	58.37
763.69	58.45
764.006	58.54
764.322	58.49
764.638	58.62
764.954	58.67
765.27	58.66
765.585	58.75
765.901	58.82
766.216	59.09
766.532	58.92
766.848	59.15
767.163	59.05
767.478	59.18
767.794	58.98
768.109	59.06
768.424	58.83
768.74	58.69
769.055	58.84
769.37	58.83
769.685	58.65
770	58.97
770.315	59.01
770.63	58.54
770.945	58.48
771.26	58.24
771.575	58.12
771.89	58.07
772.205	58.01
772.52	57.98
772.834	57.96
773.149	57.89
773.464	57.55
773.778	57.65
774.093	57.36
774.407	57.57
774.722	57.9
775.036	58.06
775.351	58.53
775.665	58.68
775.979	58.62
776.293	58.67
776.608	58.78
776.922	58.95
777.236	59.1
777.55	58.71
777.864	58.89
778.178	58.95
778.492	58.9
778.806	58.95
779.12	59.28
779.434	59
779.747	59.34
780.061	59.53
780.375	59.48
780.689	59.59
781.002	59.24
781.316	59.05
781.629	59.05
781.943	58.35
782.256	57.95
782.57	58.1
782.883	58.24
783.196	57.6
783.51	57.13
783.823	57.17
784.136	57.58
784.449	57.36
784.762	57.24
785.075	57.12
785.388	57.08
785.701	56.9
786.014	56.91
786.327	56.92
786.64	56.86
786.953	56.9
787.266	56.82
787.578	57.53
787.891	57.62
788.204	57.32
788.516	57.72
788.829	57.73
789.141	57.44
789.454	57.28
789.766	57.66
790.079	58.01
790.391	58.05
790.703	58.05
791.016	58.23
791.328	58.46
791.64	58.83
791.952	59.01
792.264	58.35
792.576	58.08
792.888	58.36
793.2	58.27
793.512	57.78
793.824	58.17
794.136	57.99
794.448	58.31
794.76	58.63
795.071	58.73
795.383	59.15
795.695	59.15
796.006	59.02
796.318	58.58
796.629	58.4
796.941	58.32
797.252	58.91
797.564	58.83
797.875	59.07
798.186	58.54
798.497	58.3
798.809	59.02
799.12	60.02
799.431	59.77
799.742	59.77
800.053	60
800.364	59.55
800.675	59.36
800.986	58.92
801.297	59.28
801.608	58.94
801.918	58.36
802.229	58.67
802.54	58.34
802.851	58.33
803.161	58.18
803.472	58.39
803.782	57.61
804.093	57.46
804.403	57.01
804.714	57.33
805.024	57.8
805.334	57.99
805.645	57.22
805.955	57.2
806.265	56.85
806.575	57.13
806.885	57.56
807.195	57.3
807.505	56.82
807.815	56.36
808.125	56.11
808.435	56.64
808.745	56.12
809.055	56.62
809.365	57.08
809.674	57.64
809.984	56.94
810.294	57.09
810.603	56.82
810.913	57.35
811.222	58.27
811.532	58.46
811.841	57.97
812.151	58.29
812.46	58.59
812.769	58.49
813.079	58.13
813.388	58.29
813.697	58.71
814.006	59.4
814.315	59.74
814.624	60.32
814.933	59.7
815.242	60.1
815.551	59.78
815.86	59.62
816.169	58.67
816.478	58.97
816.786	58.78
817.095	59.41
817.404	59.5
817.712	58.37
818.021	57.84
818.33	57.53
818.638	57.77
818.947	57.58
819.255	57.9
819.563	58.07
819.872	57.76
820.18	58.09
820.488	57.89
820.796	58
821.105	58.1
821.413	58.48
821.721	58.55
822.029	58.67
822.337	58.68
822.645	58.88
822.953	59.08
823.26	59.13
823.568	59.04
823.876	58.92
824.184	58.94
824.491	58.98
824.799	59.19
825.107	59.04
825.414	58.9
825.722	59.09
826.029	59.07
826.337	58.98
826.644	58.86
826.951	59.13
827.259	59.13
827.566	58.99
827.873	58.91
828.18	58.95
828.488	59.05
828.795	59.16
829.102	59.22
829.409	58.84
829.716	58.99
830.023	59.14
830.329	59.29
830.636	59.48
830.943	59.6
831.25	59.78
831.557	60.11
831.863	60.66
832.17	60.12
832.476	60.45
832.783	61.02
833.089	61.27
833.396	60.99
833.702	60.65
834.009	60.9
834.315	60.86
834.621	60
834.928	59.66
835.234	59.26
835.54	59.12
835.846	59.08
836.152	59.16
836.458	58.94
836.764	58.63
837.07	58.08
837.376	57.98
837.682	58.05
837.988	58.2
838.293	57.8
838.599	57.77
838.905	57.57
839.211	57.39
839.516	56.98
839.822	56.43
840.127	56.97
840.433	57.01
840.738	56.55
841.044	57.51
841.349	57.38
841.654	57.41
841.959	58.21
842.265	57.72
842.57	56.39
842.875	56.75
843.18	57.93
843.485	58.59
843.79	58.48
844.095	57.34
844.4	57.08
844.705	57.5
845.01	57.9
845.315	57.52
845.619	58.71
845.924	59.43
846.229	59.95
846.533	60.28
846.838	59.67
847.142	59.96
847.447	60.39
847.751	60.67
848.056	62.41
848.36	59.58
848.664	58.79
848.969	59.03
849.273	58.19
849.577	57.48
849.881	58.47
850.185	56.74
850.489	56.75
850.794	55.41
851.097	55.14
851.401	54.98
851.705	53.15
852.009	52.47
852.313	50.58
852.617	51.42
852.92	49.55
853.224	49.89
853.528	50.23
853.831	50.41
854.135	50.18
854.438	49.33
854.742	52.51
855.045	54.4
855.349	53.66
855.652	53.94
855.955	53.79
856.259	53.59
856.562	55.07
856.865	55.06
857.168	53.44
857.471	54.43
857.774	56.21
858.077	58.52
858.38	56.52
858.683	56.74
858.986	55.63
859.289	56.4
859.592	58.11
859.894	58.39
860.197	57.79
860.5	58.08
860.802	58.39
861.105	58.86
861.407	61.11
861.71	61.76
862.012	62.41
862.315	60.36
862.617	60.7
862.919	59.74
863.222	61.41
863.524	63.16
863.826	61.18
864.128	60.38
864.43	59.92
864.732	60.15
865.034	61.87
865.336	61.99
865.638	61.04
865.94	61.77
866.242	60.64
866.544	62.46
866.846	62.49
867.147	60.97
867.449	59.28
867.751	59.66
868.052	62.18
868.354	63.17
868.655	63.45
868.957	61.04
869.258	59.79
869.56	59.41
869.861	61.21
870.162	62.07
870.463	63.37
870.765	64.2
871.066	63.87
871.367	64.03
871.668	64.18
871.969	66.28
872.27	62.71
872.571	64.98
872.872	64.7
873.173	66.82
873.473	67.57
873.774	66.86
874.075	66.37
874.376	63.65
874.676	62.84
874.977	63.15
875.277	65.55
875.578	66.99
875.878	65.76
876.179	64.87
876.479	65.91
876.78	63.72
877.08	63.21
877.38	64.3
877.68	62.94
877.981	64.02
878.281	63.07
878.581	65.94
