Data from BU26943_Reflection_00013.txt Node
Date: Tue Nov 19 11:02:40 EST 2019
User: vgr7
Spectrometer: USB2G7710
Scans to average: 3
Trigger mode: 4
Integration Time (sec): 2.000000E-2
Electric dark correction enabled: true
Boxcar width: 10
XAxis mode: Wavelengths
Number of Pixels in Spectrum: 2048
>>>>>Begin Spectral Data<<<<<
177.721	-50.83
178.105	78.14
178.488	50.57
178.871	18.44
179.254	67.9
179.636	172.46
180.019	336.56
180.402	60
180.785	69.7
181.168	-162.82
181.55	-509.2
181.933	1689.74
182.316	-1829.82
182.698	680.25
183.081	-110.4
183.463	-146.09
183.846	-126.62
184.228	-147.89
184.611	-86.46
184.993	-125.99
185.376	-147.36
185.758	-102.41
186.14	-153.88
186.522	-130.36
186.904	-105.28
187.287	-105
187.669	-60.76
188.051	-47.5
188.433	-48.62
188.815	-52.17
189.197	-39.5
189.579	-31.73
189.961	-31.11
190.342	-30.53
190.724	-44.52
191.106	-45.73
191.488	-35.27
191.869	-20.68
192.251	-21.91
192.633	-28.8
193.014	-22.61
193.396	-27.61
193.777	-24.33
194.159	-21.52
194.54	-25.31
194.922	-28.05
195.303	-29.14
195.684	-37.54
196.065	-36.48
196.447	-39.23
196.828	-40.66
197.209	-49.04
197.59	-53.8
197.971	-66.96
198.352	-38.45
198.733	-42.6
199.114	-48.59
199.495	-61.19
199.876	-77.43
200.257	-77.07
200.638	-69.02
201.018	-75.86
201.399	-66.07
201.78	-67.7
202.16	-81.35
202.541	-79.63
202.922	-60.22
203.302	-57.76
203.683	-58.48
204.063	-59.64
204.444	-68.44
204.824	-68.84
205.204	-67.21
205.585	-58.9
205.965	-59.34
206.345	-63.26
206.725	-53.99
207.106	-34.36
207.486	-13.5
207.866	-4.07
208.246	-0.32
208.626	-15.18
209.006	-6.92
209.386	-6.47
209.766	-9.75
210.145	-2.1
210.525	3.88
210.905	-3.68
211.285	-2.04
211.664	-0.12
212.044	-4.3
212.424	5.86
212.803	6.29
213.183	4.73
213.562	2.48
213.942	2.03
214.321	-2.42
214.701	-7.13
215.08	-13.6
215.459	-18.35
215.838	-24.13
216.218	-30.99
216.597	-16.07
216.976	-25.62
217.355	-27.28
217.734	-21.38
218.113	-15.05
218.492	-21.45
218.871	-21.48
219.25	-20.15
219.629	-27.68
220.008	-27.59
220.387	-44.69
220.766	-34.93
221.144	-32.48
221.523	-34.32
221.902	-30.45
222.28	-24.48
222.659	-16.59
223.037	-16.76
223.416	-17.8
223.794	-18.82
224.173	-14.14
224.551	-11.67
224.929	-13.62
225.308	-13.05
225.686	-15.56
226.064	-18.92
226.442	-13.2
226.821	-10.46
227.199	-11.61
227.577	-8.39
227.955	-4.36
228.333	-1.51
228.711	-1.78
229.089	-1.53
229.467	0.79
229.845	0.88
230.222	2.14
230.6	-0.77
230.978	0.32
231.356	-2.18
231.733	-0.71
232.111	-1.67
232.488	-1.35
232.866	1.97
233.243	1.77
233.621	3.22
233.998	2.69
234.376	1.34
234.753	1.58
235.13	1.21
235.508	-0.34
235.885	-1.25
236.262	-0.75
236.639	-0.44
237.016	-0.78
237.393	-2.2
237.77	-1.32
238.147	-1.69
238.524	-0.14
238.901	-0.73
239.278	0.35
239.655	0.39
240.032	0.2
240.409	0.36
240.785	0.01
241.162	0.34
241.539	0.03
241.915	0.1
242.292	0.55
242.668	0.48
243.045	1.06
243.421	1.66
243.798	2.19
244.174	2.12
244.551	2.09
244.927	2.23
245.303	2.51
245.679	2.36
246.056	2.55
246.432	2.67
246.808	2.86
247.184	2.84
247.56	2.72
247.936	2.74
248.312	2.69
248.688	2.66
249.064	2.55
249.44	2.63
249.815	2.68
250.191	2.69
250.567	2.73
250.943	2.57
251.318	2.2
251.694	1.82
252.069	1.77
252.445	1.68
252.82	1.88
253.196	1.92
253.571	2.25
253.947	2.12
254.322	2.17
254.697	2.11
255.073	2.1
255.448	2.57
255.823	2.73
256.198	2.77
256.573	2.82
256.948	2.88
257.323	2.76
257.698	2.63
258.073	2.44
258.448	2.42
258.823	2.45
259.198	2.6
259.573	2.51
259.948	2.55
260.322	2.75
260.697	2.59
261.072	2.44
261.446	2.14
261.821	2.05
262.195	1.88
262.57	1.91
262.944	1.96
263.319	1.77
263.693	1.75
264.067	1.7
264.442	1.69
264.816	1.7
265.19	1.82
265.564	1.94
265.938	2.07
266.313	2.22
266.687	2.19
267.061	2.24
267.435	2.47
267.809	2.51
268.183	2.24
268.556	2.21
268.93	2.35
269.304	2.58
269.678	2.78
270.051	2.93
270.425	2.97
270.799	2.9
271.172	2.85
271.546	2.94
271.919	2.9
272.293	2.92
272.666	2.85
273.04	2.79
273.413	2.66
273.787	2.62
274.16	2.57
274.533	2.77
274.906	2.73
275.279	2.65
275.653	2.56
276.026	2.56
276.399	2.64
276.772	2.61
277.145	2.65
277.518	2.54
277.891	2.42
278.263	2.47
278.636	2.66
279.009	2.65
279.382	2.59
279.755	2.65
280.127	2.64
280.5	2.67
280.872	2.91
281.245	3.1
281.617	3.13
281.99	3.13
282.362	3.01
282.735	3
283.107	2.92
283.479	3.03
283.852	3.16
284.224	3.18
284.596	3.15
284.968	3
285.34	3.09
285.713	3.01
286.085	2.9
286.457	2.88
286.829	2.97
287.201	2.8
287.572	2.77
287.944	2.82
288.316	2.97
288.688	2.91
289.06	2.87
289.431	2.75
289.803	2.76
290.175	2.83
290.546	2.82
290.918	2.97
291.289	2.81
291.661	2.82
292.032	2.72
292.403	2.78
292.775	3.02
293.146	3.06
293.517	3.13
293.889	3.23
294.26	3.23
294.631	3.33
295.002	3.58
295.373	3.54
295.744	3.58
296.115	3.53
296.486	3.49
296.857	3.59
297.228	3.75
297.599	3.74
297.97	3.74
298.34	3.77
298.711	3.7
299.082	3.89
299.452	3.82
299.823	3.92
300.194	3.89
300.564	3.74
300.935	3.7
301.305	3.7
301.676	3.61
302.046	3.56
302.416	3.46
302.787	3.34
303.157	3.47
303.527	3.47
303.897	3.38
304.267	3.29
304.637	3.26
305.008	3.32
305.378	3.24
305.748	3.4
306.117	3.35
306.487	3.41
306.857	3.43
307.227	3.67
307.597	3.62
307.967	3.71
308.336	3.89
308.706	3.86
309.076	4.1
309.445	4.25
309.815	4.25
310.184	4.31
310.554	4.36
310.923	4.34
311.293	4.38
311.662	4.49
312.031	4.54
312.401	4.45
312.77	4.35
313.139	4.43
313.508	4.38
313.877	4.41
314.246	4.36
314.616	4.35
314.985	4.16
315.353	4.24
315.722	4.29
316.091	4.27
316.46	4.4
316.829	4.37
317.198	4.35
317.567	4.58
317.935	4.54
318.304	4.68
318.672	4.75
319.041	4.7
319.41	4.71
319.778	4.75
320.147	4.87
320.515	4.97
320.883	5.03
321.252	4.95
321.62	5.14
321.988	5.43
322.357	5.4
322.725	5.38
323.093	5.36
323.461	5.33
323.829	5.27
324.197	5.27
324.565	5.19
324.933	5.22
325.301	5.15
325.669	5.14
326.037	5.02
326.405	5
326.772	5.02
327.14	4.88
327.508	4.89
327.875	4.88
328.243	4.95
328.61	5.05
328.978	4.95
329.346	4.83
329.713	4.74
330.08	4.82
330.448	4.96
330.815	5.03
331.182	5.14
331.55	5.21
331.917	5.14
332.284	5.26
332.651	5.26
333.018	5.28
333.385	5.27
333.752	5.48
334.119	5.42
334.486	5.46
334.853	5.57
335.22	5.52
335.587	5.57
335.954	5.54
336.32	5.45
336.687	5.5
337.054	5.62
337.42	5.59
337.787	5.53
338.153	5.61
338.52	5.64
338.886	5.58
339.253	5.55
339.619	5.64
339.986	5.64
340.352	5.55
340.718	5.57
341.084	5.73
341.451	5.78
341.817	5.89
342.183	5.9
342.549	5.95
342.915	6.11
343.281	6.15
343.647	6.26
344.013	6.38
344.379	6.39
344.745	6.36
345.11	6.48
345.476	6.59
345.842	6.56
346.208	6.55
346.573	6.48
346.939	6.5
347.304	6.5
347.67	6.43
348.035	6.52
348.401	6.48
348.766	6.41
349.132	6.29
349.497	6.27
349.862	6.33
350.228	6.41
350.593	6.36
350.958	6.42
351.323	6.38
351.688	6.37
352.053	6.52
352.418	6.57
352.783	6.52
353.148	6.35
353.513	6.34
353.878	6.24
354.243	6.33
354.608	6.37
354.972	6.29
355.337	6.27
355.702	6.24
356.066	6.29
356.431	6.27
356.795	6.4
357.16	6.42
357.524	6.33
357.889	6.25
358.253	6.19
358.618	6.08
358.982	5.98
359.346	5.88
359.71	5.76
360.075	5.8
360.439	5.78
360.803	5.85
361.167	5.84
361.531	5.92
361.895	5.85
362.259	5.89
362.623	5.95
362.987	5.98
363.351	5.94
363.714	5.93
364.078	5.96
364.442	5.81
364.806	5.83
365.169	5.8
365.533	5.85
365.896	5.85
366.26	5.85
366.623	5.81
366.987	5.82
367.35	5.87
367.714	5.71
368.077	5.7
368.44	5.64
368.803	5.59
369.167	5.54
369.53	5.57
369.893	5.49
370.256	5.43
370.619	5.37
370.982	5.38
371.345	5.34
371.708	5.27
372.071	5.21
372.434	5.16
372.797	5.22
373.159	5.09
373.522	5.03
373.885	5.04
374.247	5.01
374.61	4.95
374.973	4.93
375.335	4.95
375.698	4.87
376.06	4.79
376.423	4.72
376.785	4.67
377.147	4.63
377.51	4.54
377.872	4.5
378.234	4.45
378.596	4.45
378.958	4.4
379.321	4.37
379.683	4.39
380.045	4.34
380.407	4.29
380.769	4.27
381.13	4.23
381.492	4.19
381.854	4.21
382.216	4.21
382.578	4.16
382.939	4.12
383.301	4.09
383.663	4.14
384.024	4.15
384.386	4.08
384.747	4.03
385.109	4.04
385.47	4.01
385.832	4.03
386.193	3.97
386.554	3.96
386.916	3.93
387.277	3.91
387.638	3.87
387.999	3.84
388.36	3.84
388.721	3.89
389.082	3.86
389.443	3.86
389.804	3.82
390.165	3.82
390.526	3.81
390.887	3.83
391.248	3.78
391.609	3.78
391.969	3.8
392.33	3.79
392.691	3.76
393.051	3.75
393.412	3.71
393.772	3.69
394.133	3.67
394.493	3.66
394.854	3.66
395.214	3.63
395.574	3.61
395.935	3.59
396.295	3.55
396.655	3.53
397.015	3.52
397.376	3.53
397.736	3.5
398.096	3.47
398.456	3.41
398.816	3.41
399.176	3.35
399.535	3.34
399.895	3.33
400.255	3.32
400.615	3.3
400.975	3.25
401.334	3.23
401.694	3.22
402.054	3.21
402.413	3.19
402.773	3.21
403.132	3.17
403.492	3.17
403.851	3.14
404.211	3.12
404.57	3.1
404.929	3.07
405.288	3.04
405.648	3.04
406.007	3.03
406.366	3.03
406.725	3.03
407.084	3.02
407.443	3.03
407.802	3.02
408.161	3
408.52	3.05
408.879	3.07
409.238	3.07
409.596	3.07
409.955	3.06
410.314	3.06
410.673	3.06
411.031	3.04
411.39	3
411.748	3.03
412.107	3.01
412.465	3.03
412.824	3.04
413.182	3.04
413.54	3.08
413.899	3.06
414.257	3.06
414.615	3.05
414.974	3.04
415.332	3.03
415.69	3.02
416.048	2.99
416.406	2.94
416.764	2.92
417.122	2.9
417.48	2.9
417.838	2.86
418.195	2.87
418.553	2.87
418.911	2.88
419.269	2.89
419.626	2.89
419.984	2.88
420.342	2.87
420.699	2.85
421.057	2.83
421.414	2.82
421.772	2.83
422.129	2.84
422.486	2.83
422.844	2.83
423.201	2.83
423.558	2.83
423.915	2.86
424.273	2.85
424.63	2.86
424.987	2.87
425.344	2.89
425.701	2.89
426.058	2.88
426.415	2.88
426.772	2.86
427.128	2.86
427.485	2.86
427.842	2.85
428.199	2.85
428.555	2.85
428.912	2.85
429.269	2.83
429.625	2.82
429.982	2.8
430.338	2.81
430.695	2.81
431.051	2.82
431.407	2.8
431.764	2.79
432.12	2.78
432.476	2.76
432.832	2.76
433.189	2.76
433.545	2.76
433.901	2.77
434.257	2.78
434.613	2.76
434.969	2.74
435.325	2.75
435.681	2.75
436.036	2.75
436.392	2.76
436.748	2.76
437.104	2.74
437.459	2.75
437.815	2.75
438.171	2.75
438.526	2.75
438.882	2.75
439.237	2.77
439.593	2.77
439.948	2.77
440.304	2.74
440.659	2.75
441.014	2.75
441.369	2.75
441.725	2.73
442.08	2.73
442.435	2.75
442.79	2.74
443.145	2.74
443.5	2.73
443.855	2.71
444.21	2.73
444.565	2.74
444.92	2.74
445.275	2.72
445.629	2.73
445.984	2.71
446.339	2.71
446.693	2.7
447.048	2.68
447.403	2.7
447.757	2.7
448.112	2.69
448.466	2.68
448.82	2.67
449.175	2.68
449.529	2.68
449.883	2.68
450.238	2.67
450.592	2.67
450.946	2.66
451.3	2.68
451.654	2.68
452.008	2.68
452.362	2.67
452.716	2.68
453.07	2.68
453.424	2.68
453.778	2.69
454.132	2.71
454.486	2.73
454.839	2.71
455.193	2.73
455.547	2.73
455.9	2.72
456.254	2.72
456.607	2.73
456.961	2.72
457.314	2.71
457.668	2.72
458.021	2.71
458.375	2.71
458.728	2.72
459.081	2.71
459.434	2.71
459.787	2.72
460.141	2.73
460.494	2.75
460.847	2.75
461.2	2.75
461.553	2.74
461.906	2.73
462.259	2.73
462.611	2.74
462.964	2.74
463.317	2.76
463.67	2.77
464.022	2.76
464.375	2.77
464.728	2.77
465.08	2.76
465.433	2.78
465.785	2.78
466.138	2.79
466.49	2.81
466.843	2.81
467.195	2.8
467.547	2.78
467.899	2.77
468.252	2.77
468.604	2.78
468.956	2.79
469.308	2.79
469.66	2.79
470.012	2.78
470.364	2.78
470.716	2.81
471.068	2.82
471.42	2.82
471.772	2.82
472.123	2.84
472.475	2.86
472.827	2.89
473.178	2.88
473.53	2.88
473.882	2.86
474.233	2.85
474.585	2.85
474.936	2.86
475.288	2.85
475.639	2.86
475.99	2.86
476.342	2.86
476.693	2.86
477.044	2.88
477.395	2.88
477.746	2.86
478.097	2.86
478.448	2.85
478.8	2.87
479.15	2.87
479.501	2.86
479.852	2.86
480.203	2.85
480.554	2.85
480.905	2.85
481.255	2.85
481.606	2.87
481.957	2.86
482.307	2.85
482.658	2.86
483.009	2.84
483.359	2.84
483.709	2.85
484.06	2.85
484.41	2.84
484.761	2.84
485.111	2.85
485.461	2.84
485.811	2.83
486.162	2.83
486.512	2.83
486.862	2.83
487.212	2.83
487.562	2.83
487.912	2.83
488.262	2.83
488.612	2.83
488.961	2.83
489.311	2.83
489.661	2.84
490.011	2.84
490.36	2.85
490.71	2.85
491.06	2.84
491.409	2.84
491.759	2.83
492.108	2.83
492.458	2.83
492.807	2.84
493.157	2.85
493.506	2.85
493.855	2.85
494.204	2.84
494.554	2.85
494.903	2.86
495.252	2.87
495.601	2.86
495.95	2.86
496.299	2.86
496.648	2.88
496.997	2.89
497.346	2.91
497.695	2.93
498.043	2.95
498.392	2.99
498.741	3
499.09	3.03
499.438	3.06
499.787	3.08
500.135	3.12
500.484	3.14
500.832	3.16
501.181	3.22
501.529	3.28
501.878	3.3
502.226	3.35
502.574	3.39
502.923	3.45
503.271	3.51
503.619	3.57
503.967	3.59
504.315	3.63
504.663	3.67
505.011	3.72
505.359	3.74
505.707	3.78
506.055	3.83
506.403	3.87
506.751	3.92
507.098	3.99
507.446	4.03
507.794	4.09
508.141	4.16
508.489	4.2
508.837	4.24
509.184	4.3
509.531	4.34
509.879	4.38
510.226	4.43
510.574	4.49
510.921	4.55
511.268	4.64
511.616	4.73
511.963	4.79
512.31	4.86
512.657	4.96
513.004	5.05
513.351	5.15
513.698	5.25
514.045	5.34
514.392	5.46
514.739	5.57
515.086	5.7
515.432	5.8
515.779	5.9
516.126	6.04
516.473	6.13
516.819	6.24
517.166	6.35
517.512	6.45
517.859	6.57
518.205	6.64
518.552	6.72
518.898	6.79
519.245	6.91
519.591	6.98
519.937	7.09
520.283	7.22
520.629	7.33
520.976	7.43
521.322	7.55
521.668	7.64
522.014	7.78
522.36	7.87
522.706	8
523.052	8.17
523.398	8.31
523.743	8.49
524.089	8.67
524.435	8.84
524.781	9
525.126	9.16
525.472	9.33
525.817	9.48
526.163	9.62
526.509	9.72
526.854	9.85
527.199	9.95
527.545	10.03
527.89	10.14
528.235	10.27
528.581	10.38
528.926	10.51
529.271	10.62
529.616	10.75
529.961	10.9
530.306	11.04
530.651	11.18
530.996	11.32
531.341	11.46
531.686	11.61
532.031	11.77
532.376	11.91
532.721	12.05
533.065	12.21
533.41	12.4
533.755	12.6
534.099	12.82
534.444	13
534.788	13.22
535.133	13.41
535.477	13.6
535.822	13.83
536.166	14.07
536.51	14.32
536.855	14.6
537.199	14.85
537.543	15.1
537.887	15.38
538.231	15.67
538.576	15.95
538.92	16.24
539.264	16.52
539.608	16.79
539.951	17.05
540.295	17.3
540.639	17.52
540.983	17.76
541.327	17.96
541.671	18.22
542.014	18.46
542.358	18.68
542.701	18.91
543.045	19.13
543.389	19.34
543.732	19.59
544.075	19.82
544.419	20.06
544.762	20.32
545.105	20.6
545.449	20.85
545.792	21.12
546.135	21.44
546.478	21.74
546.821	22.06
547.165	22.39
547.508	22.72
547.851	23.06
548.194	23.37
548.536	23.71
548.879	24.01
549.222	24.29
549.565	24.65
549.908	25.01
550.25	25.35
550.593	25.7
550.936	26
551.278	26.37
551.621	26.7
551.963	27.04
552.306	27.32
552.648	27.67
552.991	28.03
553.333	28.3
553.675	28.62
554.017	28.91
554.36	29.24
554.702	29.57
555.044	29.9
555.386	30.18
555.728	30.5
556.07	30.84
556.412	31.17
556.754	31.47
557.096	31.79
557.438	32.07
557.78	32.41
558.121	32.75
558.463	33
558.805	33.32
559.147	33.64
559.488	33.96
559.83	34.24
560.171	34.48
560.513	34.8
560.854	35.08
561.196	35.37
561.537	35.61
561.878	35.84
562.22	36.12
562.561	36.36
562.902	36.6
563.243	36.82
563.584	37.09
563.925	37.34
564.266	37.58
564.607	37.81
564.948	38.01
565.289	38.22
565.63	38.48
565.971	38.67
566.312	38.88
566.653	39.1
566.993	39.31
567.334	39.55
567.675	39.78
568.015	39.96
568.356	40.16
568.696	40.38
569.037	40.61
569.377	40.8
569.718	41.01
570.058	41.24
570.398	41.45
570.739	41.6
571.079	41.82
571.419	41.98
571.759	42.21
572.099	42.39
572.439	42.56
572.779	42.73
573.119	42.93
573.459	43.08
573.799	43.25
574.139	43.42
574.479	43.59
574.819	43.67
575.158	43.83
575.498	44.01
575.838	44.14
576.177	44.28
576.517	44.4
576.856	44.56
577.196	44.71
577.535	44.82
577.875	44.94
578.214	45
578.553	45.16
578.893	45.26
579.232	45.39
579.571	45.56
579.91	45.66
580.25	45.75
580.589	45.9
580.928	46.01
581.267	46.09
581.606	46.27
581.945	46.45
582.283	46.64
582.622	46.71
582.961	46.86
583.3	46.99
583.639	47.15
583.977	47.25
584.316	47.31
584.654	47.45
584.993	47.6
585.332	47.75
585.67	47.92
586.008	48.07
586.347	48.16
586.685	48.25
587.024	48.38
587.362	48.48
587.7	48.59
588.038	48.7
588.376	48.8
588.715	48.84
589.053	48.93
589.391	48.97
589.729	49.13
590.067	49.22
590.404	49.31
590.742	49.35
591.08	49.52
591.418	49.69
591.756	49.83
592.093	49.92
592.431	50.08
592.769	50.13
593.106	50.18
593.444	50.33
593.781	50.45
594.119	50.54
594.456	50.64
594.793	50.7
595.131	50.78
595.468	50.92
595.805	50.98
596.143	51
596.48	51.12
596.817	51.2
597.154	51.26
597.491	51.32
597.828	51.45
598.165	51.43
598.502	51.47
598.839	51.57
599.176	51.66
599.512	51.67
599.849	51.78
600.186	51.84
600.523	51.86
600.859	51.88
601.196	51.94
601.532	52.02
601.869	52.13
602.205	52.22
602.542	52.28
602.878	52.36
603.215	52.47
603.551	52.54
603.887	52.57
604.223	52.64
604.56	52.7
604.896	52.74
605.232	52.83
605.568	52.96
605.904	53
606.24	53.09
606.576	53.2
606.912	53.17
607.248	53.3
607.583	53.46
607.919	53.6
608.255	53.66
608.591	53.71
608.926	53.72
609.262	53.73
609.597	53.72
609.933	53.81
610.268	53.88
610.604	53.87
610.939	53.92
611.275	53.99
611.61	54.03
611.945	54
612.281	54.1
612.616	54.03
612.951	54.09
613.286	54.18
613.621	54.11
613.956	54.24
614.291	54.29
614.626	54.24
614.961	54.19
615.296	54.16
615.631	54.15
615.966	54.2
616.3	54.29
616.635	54.37
616.97	54.47
617.304	54.49
617.639	54.57
617.973	54.61
618.308	54.6
618.642	54.57
618.977	54.65
619.311	54.58
619.646	54.68
619.98	54.67
620.314	54.69
620.648	54.81
620.983	54.83
621.317	54.75
621.651	54.74
621.985	54.86
622.319	54.91
622.653	55.05
622.987	55.13
623.321	55.19
623.655	55.23
623.988	55.23
624.322	55.31
624.656	55.33
624.99	55.36
625.323	55.38
625.657	55.45
625.99	55.5
626.324	55.61
626.657	55.52
626.991	55.54
627.324	55.64
627.658	55.66
627.991	55.74
628.324	55.9
628.657	55.91
628.991	55.87
629.324	55.95
629.657	55.98
629.99	55.96
630.323	55.94
630.656	55.98
630.989	55.93
631.322	55.89
631.655	55.94
631.987	55.94
632.32	55.94
632.653	55.97
632.986	56.09
633.318	56.05
633.651	56.28
633.984	56.29
634.316	56.31
634.649	56.33
634.981	56.35
635.313	56.32
635.646	56.42
635.978	56.49
636.31	56.49
636.643	56.43
636.975	56.5
637.307	56.57
637.639	56.57
637.971	56.62
638.303	56.67
638.635	56.61
638.967	56.71
639.299	56.75
639.631	56.82
639.963	56.77
640.295	56.85
640.626	56.8
640.958	56.78
641.29	56.64
641.621	56.61
641.953	56.61
642.285	56.6
642.616	56.63
642.948	56.68
643.279	56.72
643.61	56.77
643.942	56.7
644.273	56.74
644.604	56.73
644.936	56.72
645.267	56.84
645.598	56.88
645.929	56.74
646.26	56.9
646.591	56.96
646.922	57.08
647.253	57.18
647.584	57.12
647.915	57.26
648.245	57.4
648.576	57.45
648.907	57.51
649.238	57.53
649.568	57.59
649.899	57.49
650.229	57.51
650.56	57.48
650.89	57.58
651.221	57.56
651.551	57.62
651.882	57.75
652.212	57.76
652.542	57.9
652.872	58.03
653.203	57.99
653.533	58.02
653.863	57.93
654.193	57.84
654.523	57.94
654.853	58
655.183	57.96
655.513	58.19
655.843	58.24
656.172	58.22
656.502	58.15
656.832	58.41
657.162	58.44
657.491	58.44
657.821	58.48
658.15	58.49
658.48	58.53
658.809	58.47
659.139	58.41
659.468	58.39
659.798	58.48
660.127	58.5
660.456	58.5
660.785	58.5
661.115	58.54
661.444	58.57
661.773	58.64
662.102	58.61
662.431	58.44
662.76	58.37
663.089	58.49
663.418	58.58
663.747	58.37
664.076	58.49
664.404	58.61
664.733	58.69
665.062	58.66
665.39	58.71
665.719	58.81
666.048	58.84
666.376	58.76
666.705	58.62
667.033	58.59
667.362	58.56
667.69	58.72
668.018	58.7
668.347	58.67
668.675	58.5
669.003	58.52
669.331	58.66
669.659	58.71
669.987	58.73
670.315	58.66
670.643	58.71
670.971	58.58
671.299	58.57
671.627	58.42
671.955	58.55
672.283	58.48
672.61	58.47
672.938	58.5
673.266	58.52
673.593	58.54
673.921	58.62
674.249	58.65
674.576	58.55
674.904	58.55
675.231	58.63
675.558	58.7
675.886	58.75
676.213	58.56
676.54	58.63
676.867	58.61
677.195	58.62
677.522	58.63
677.849	58.61
678.176	58.63
678.503	58.69
678.83	58.6
679.157	58.56
679.484	58.6
679.81	58.67
680.137	58.81
680.464	58.98
680.791	59.02
681.117	58.94
681.444	58.94
681.771	58.98
682.097	58.95
682.424	58.95
682.75	59.02
683.077	59.04
683.403	58.95
683.729	58.98
684.056	59.03
684.382	58.92
684.708	59.01
685.034	59.07
685.36	59.06
685.686	59.06
686.012	59.09
686.339	59.14
686.664	59.07
686.99	58.92
687.316	58.71
687.642	58.69
687.968	58.84
688.294	58.81
688.619	58.96
688.945	58.94
689.271	58.91
689.596	58.99
689.922	59.05
690.247	59.13
690.573	59.09
690.898	59.2
691.224	59.4
691.549	59.49
691.874	59.41
692.2	59.38
692.525	59.5
692.85	59.52
693.175	59.43
693.5	59.3
693.825	59.35
694.15	59.6
694.475	59.58
694.8	59.62
695.125	59.63
695.45	59.43
695.775	59.61
696.099	59.78
696.424	59.69
696.749	59.86
697.073	59.98
697.398	60.11
697.723	60.01
698.047	59.98
698.372	59.91
698.696	59.92
699.02	60.03
699.345	60.03
699.669	60.09
699.993	60.14
700.318	60.38
700.642	60.46
700.966	60.37
701.29	60.37
701.614	60.35
701.938	60.36
702.262	60.49
702.586	60.28
702.91	60.14
703.234	60.2
703.557	60.09
703.881	60
704.205	59.84
704.529	59.82
704.852	59.89
705.176	59.92
705.499	60.04
705.823	60
706.146	59.98
706.47	60.03
706.793	59.91
707.117	59.89
707.44	59.66
707.763	59.67
708.086	59.61
708.409	59.66
708.733	59.65
709.056	59.6
709.379	59.76
709.702	59.85
710.025	59.86
710.348	59.73
710.671	59.77
710.993	59.74
711.316	59.76
711.639	59.79
711.962	59.86
712.284	59.79
712.607	59.82
712.93	60.04
713.252	60.18
713.575	60.27
713.897	60.05
714.22	60.22
714.542	60.22
714.864	60.19
715.187	60.24
715.509	60.3
715.831	60.51
716.153	60.46
716.475	60.49
716.798	60.46
717.12	60.71
717.442	60.62
717.764	60.76
718.085	60.73
718.407	60.81
718.729	60.7
719.051	60.73
719.373	60.68
719.695	60.37
720.016	60.36
720.338	60.43
720.659	60.69
720.981	60.64
721.302	60.65
721.624	60.62
721.945	60.43
722.267	60.49
722.588	60.26
722.909	60.47
723.231	60.54
723.552	60.69
723.873	60.58
724.194	60.52
724.515	60.38
724.836	60.54
725.157	60.44
725.478	60.54
725.799	60.54
726.12	60.51
726.441	60.77
726.762	60.69
727.083	60.56
727.403	60.43
727.724	60.33
728.045	60.52
728.365	60.73
728.686	60.56
729.006	60.34
729.327	60.35
729.647	60.08
729.967	59.98
730.288	59.75
730.608	59.68
730.928	59.7
731.249	59.73
731.569	59.86
731.889	59.83
732.209	59.9
732.529	59.82
732.849	59.69
733.169	59.48
733.489	59.4
733.809	59.51
734.129	59.55
734.448	59.75
734.768	59.48
735.088	59.49
735.408	59.64
735.727	59.78
736.047	59.76
736.366	59.69
736.686	59.65
737.005	59.81
737.325	59.95
737.644	59.97
737.963	60.06
738.283	59.75
738.602	59.75
738.921	59.52
739.24	59.79
739.56	60.08
739.879	60.25
740.198	60.26
740.517	60.04
740.836	59.89
741.155	59.75
741.473	59.62
741.792	59.86
742.111	59.93
742.43	60.14
742.748	60.23
743.067	60.37
743.386	60.14
743.704	60.32
744.023	60.39
744.341	60.54
744.66	60.41
744.978	60.4
745.297	60.36
745.615	60.62
745.933	60.27
746.252	60.04
746.57	60.16
746.888	60.3
747.206	60.52
747.524	60.87
747.842	61.02
748.16	61.45
748.478	61.28
748.796	61.16
749.114	61.2
749.432	61.11
749.749	61.04
750.067	61.13
750.385	60.86
750.703	60.72
751.02	60.46
751.338	60.44
751.655	60.57
751.973	60.51
752.29	60.46
752.608	60.43
752.925	60.64
753.242	60.52
753.56	60.22
753.877	60.12
754.194	59.92
754.511	60
754.828	60.17
755.145	60.26
755.462	60.51
755.779	60.48
756.096	60.56
756.413	60.36
756.73	60.56
757.047	60.68
757.364	60.7
757.68	60.67
757.997	60.9
758.314	60.74
758.63	60.64
758.947	60.55
759.264	61.04
759.58	61
759.896	60.84
760.213	61.22
760.529	61.26
760.846	61.08
761.162	60.98
761.478	60.46
761.794	60.38
762.11	60.21
762.426	59.73
762.743	59.78
763.059	59.79
763.375	59.63
763.69	59.81
764.006	59.58
764.322	59.69
764.638	59.69
764.954	59.64
765.27	59.83
765.585	59.82
765.901	59.59
766.216	59.37
766.532	59.51
766.848	59.25
767.163	59.31
767.478	59.31
767.794	59.06
768.109	59.59
768.424	59.41
768.74	59.54
769.055	60.04
769.37	59.84
769.685	59.93
770	59.64
770.315	59.2
770.63	59.38
770.945	59.52
771.26	59.23
771.575	59.33
771.89	59.47
772.205	59.6
772.52	59.7
772.834	60.03
773.149	59.92
773.464	60.3
773.778	60.24
774.093	60.61
774.407	61.04
774.722	60.52
775.036	60.72
775.351	60.64
775.665	60.56
775.979	60.69
776.293	61.11
776.608	61.99
776.922	62.02
777.236	62.23
777.55	62.25
777.864	62.43
778.178	62.94
778.492	62.53
778.806	62.36
779.12	62.07
779.434	61.81
779.747	61.97
780.061	61.46
780.375	61.39
780.689	61.25
781.002	61.27
781.316	61.66
781.629	61.38
781.943	61.14
782.256	61.1
782.57	61.25
782.883	61.04
783.196	60.9
783.51	60.95
783.823	60.65
784.136	60.44
784.449	60.46
784.762	60.23
785.075	60.64
785.388	60.45
785.701	60.84
786.014	61.27
786.327	61.36
786.64	61.68
786.953	61.91
787.266	61.62
787.578	61.76
787.891	61.32
788.204	61.49
788.516	61.51
788.829	61.4
789.141	61.06
789.454	61.11
789.766	60.95
790.079	61
790.391	61.12
790.703	61.43
791.016	61.34
791.328	60.65
791.64	60.69
791.952	60.9
792.264	60.95
792.576	60.91
792.888	60.53
793.2	60.31
793.512	60.28
793.824	60.53
794.136	60.08
794.448	60.53
794.76	60.74
795.071	60.72
795.383	60.47
795.695	60.79
796.006	60.86
796.318	61.13
796.629	60.54
796.941	60.67
797.252	60.04
797.564	60.16
797.875	60.82
798.186	60.82
798.497	61.08
798.809	60.46
799.12	59.92
799.431	59.92
799.742	60.09
800.053	60.05
800.364	60.11
800.675	60.29
800.986	60.31
801.297	60.04
801.608	60.11
801.918	60.56
802.229	60.6
802.54	60.53
802.851	59.92
803.161	60.49
803.472	60.4
803.782	61.3
804.093	61.39
804.403	61.45
804.714	61.41
805.024	61.1
805.334	61.51
805.645	61.92
805.955	62.65
806.265	62.57
806.575	62.43
806.885	61.7
807.195	62.54
807.505	62.05
807.815	62.52
808.125	62.62
808.435	62.16
808.745	61.6
809.055	61.6
809.365	61.76
809.674	61.94
809.984	62.28
810.294	61.79
810.603	61.49
810.913	61.17
811.222	61.81
811.532	61.55
811.841	61.52
812.151	61.35
812.46	60.78
812.769	60.24
813.079	60.44
813.388	61.37
813.697	60.29
814.006	60
814.315	59.73
814.624	59.42
814.933	59.58
815.242	59.46
815.551	59.4
815.86	59.63
816.169	59.63
816.478	59.11
816.786	59.43
817.095	59.9
817.404	60.64
817.712	60.08
818.021	60.23
818.33	60.92
818.638	61.59
818.947	62.12
819.255	62.35
819.563	62.21
819.872	62.51
820.18	62.62
820.488	62.76
820.796	62.68
821.105	62.83
821.413	63.1
821.721	63.2
822.029	63.19
822.337	62.96
822.645	63
822.953	62.93
823.26	62.9
823.568	62.79
823.876	62.81
824.184	62.64
824.491	62.7
824.799	62.49
825.107	62.29
825.414	62.05
825.722	62
826.029	62.02
826.337	61.85
826.644	61.86
826.951	61.89
827.259	61.91
827.566	62
827.873	61.62
828.18	61.49
828.488	61.44
828.795	61.69
829.102	61.63
829.409	61.81
829.716	61.42
830.023	61.29
830.329	60.75
830.636	60.99
830.943	60.56
831.25	60.61
831.557	60.69
831.863	60.87
832.17	60.95
832.476	60.6
832.783	60.29
833.089	60.14
833.396	59.62
833.702	59.47
834.009	58.99
834.315	59.43
834.621	59.3
834.928	59.02
835.234	59.08
835.54	58.56
835.846	58.57
836.152	58.57
836.458	59.04
836.764	59.15
837.07	58.86
837.376	59.22
837.682	59.59
837.988	59.65
838.293	59.51
838.599	59.6
838.905	59.99
839.211	60.32
839.516	59.86
839.822	60.13
840.127	60.08
840.433	60.51
840.738	59.84
841.044	60.23
841.349	60.12
841.654	59.97
841.959	60.39
842.265	59.29
842.57	59.22
842.875	58.32
843.18	58.4
843.485	58.46
843.79	58.6
844.095	57.99
844.4	58.15
844.705	57.69
845.01	56.94
845.315	56.51
845.619	55.52
845.924	55.27
846.229	55.54
846.533	55.06
846.838	54.37
847.142	56.3
847.447	55.83
847.751	55.97
848.056	55.56
848.36	56.47
848.664	56.76
848.969	58.14
849.273	57.4
849.577	56
849.881	56.42
850.185	55.77
850.489	56.04
850.794	56.05
851.097	55.84
851.401	55.9
851.705	57.1
852.009	58.07
852.313	58.42
852.617	58.05
852.92	57.51
853.224	56.77
853.528	54.81
853.831	55.42
854.135	55.69
854.438	55.69
854.742	54.26
855.045	54.9
855.349	53.05
855.652	56.19
855.955	58.11
856.259	57.35
856.562	57.61
856.865	55.77
857.168	54.68
857.471	54.74
857.774	56.75
858.077	55.45
858.38	55.54
858.683	55.84
858.986	55.78
859.289	57.38
859.592	58.1
859.894	57.31
860.197	56.98
860.5	55.96
860.802	55.11
861.105	56.13
861.407	55.32
861.71	54.14
862.012	52.03
862.315	51.71
862.617	52.15
862.919	49.29
863.222	49.05
863.524	49.02
863.826	49.59
864.128	48.34
864.43	47.09
864.732	45.71
865.034	46.56
865.336	46.59
865.638	44.78
865.94	43.12
866.242	42.63
866.544	43.61
866.846	45.73
867.147	46.99
867.449	46.11
867.751	46.11
868.052	46.96
868.354	46.2
868.655	46.55
868.957	48.98
869.258	48.88
869.56	49.15
869.861	49.82
870.162	48.64
870.463	48.91
870.765	48.93
871.066	50.12
871.367	48.26
871.668	48.85
871.969	48.82
872.27	51.68
872.571	52.72
872.872	50.11
873.173	46.31
873.473	43.7
873.774	45.13
874.075	48.2
874.376	48.51
874.676	50.77
874.977	51.37
875.277	48.09
875.578	51.17
875.878	51.69
876.179	50.77
876.479	51.59
876.78	50.48
877.08	52.04
877.38	51.95
877.68	52.88
877.981	51.88
878.281	53.7
878.581	52.32
