Data from BU26844_Reflection_00006.txt Node
Date: Mon Nov 18 16:36:11 EST 2019
User: vgr7
Spectrometer: USB2G7710
Scans to average: 3
Trigger mode: 4
Integration Time (sec): 2.000000E-2
Electric dark correction enabled: true
Boxcar width: 10
XAxis mode: Wavelengths
Number of Pixels in Spectrum: 2048
>>>>>Begin Spectral Data<<<<<
177.721	690.21
178.105	18433.33
178.488	-328.88
178.871	-10066.67
179.254	204.43
179.636	-66.67
180.019	107.45
180.402	119.44
180.785	-67.78
181.168	-87.21
181.55	-25.19
181.933	84.19
182.316	146.05
182.698	185.27
183.081	138.18
183.463	190.61
183.846	152.06
184.228	146.53
184.611	258.47
184.993	651.62
185.376	6130.3
185.758	-482.04
186.14	-460.05
186.522	-471.61
186.904	-1111.22
187.287	1646.18
187.669	-339.34
188.051	-341.44
188.433	-212.25
188.815	-172.28
189.197	-181.32
189.579	-144.44
189.961	-174.88
190.342	-175.76
190.724	-125.13
191.106	-137.5
191.488	-153.27
191.869	-133.99
192.251	-163.7
192.633	-169.46
193.014	-203.16
193.396	-191.19
193.777	-170.39
194.159	-155.04
194.54	-128.57
194.922	-119.82
195.303	-119.24
195.684	-127.16
196.065	-112.3
196.447	-102.36
196.828	-116.12
197.209	-107.07
197.59	-108.76
197.971	-111.29
198.352	-116.7
198.733	-142.95
199.114	-96.17
199.495	-63.13
199.876	-54.45
200.257	-46.37
200.638	-34
201.018	-17.37
201.399	-28.06
201.78	-35.12
202.16	-78.48
202.541	-97.7
202.922	-125.1
203.302	-197.37
203.683	-176.87
204.063	-383.47
204.444	-535.88
204.824	-372.5
205.204	-289.37
205.585	-359.17
205.965	-174.89
206.345	-150.19
206.725	-207
207.106	-336.74
207.486	-520.64
207.866	-1001.55
208.246	-870.65
208.626	-1435.83
209.006	-319.16
209.386	-276.13
209.766	-271.04
210.145	-177.05
210.525	-175.2
210.905	-154.26
211.285	-101.72
211.664	-70.87
212.044	-68.32
212.424	-47.07
212.803	-52.1
213.183	-56.63
213.562	-58.28
213.942	-49
214.321	-53.77
214.701	-37.78
215.08	-31.69
215.459	-19.25
215.838	-9.79
216.218	-13.04
216.597	-19.23
216.976	-38.39
217.355	-41.35
217.734	-38.45
218.113	-32.12
218.492	-36.72
218.871	-35.07
219.25	-36.96
219.629	-46.31
220.008	-38.48
220.387	-40.56
220.766	-40.38
221.144	-45.59
221.523	-51.73
221.902	-62.06
222.28	-54.45
222.659	-56.03
223.037	-43.31
223.416	-68.17
223.794	-83.53
224.173	-62.24
224.551	-32.27
224.929	-20.81
225.308	-12.85
225.686	-9.82
226.064	-5.07
226.442	-8.49
226.821	-7.34
227.199	-4.78
227.577	-8.26
227.955	-8.61
228.333	-11.67
228.711	-9.48
229.089	-7.84
229.467	-8.17
229.845	-9.02
230.222	-10.26
230.6	-8.33
230.978	-10.46
231.356	-8.01
231.733	-6.82
232.111	-6.03
232.488	-6.48
232.866	-6.73
233.243	-8.43
233.621	-6.63
233.998	-5.46
234.376	-4.58
234.753	-5.17
235.13	-3.55
235.508	-1.3
235.885	-2.92
236.262	-3.68
236.639	-4.5
237.016	-3.58
237.393	-2.01
237.77	-0.36
238.147	1.41
238.524	1.21
238.901	2.44
239.278	2.94
239.655	4.03
240.032	3.9
240.409	2.96
240.785	4.1
241.162	4.44
241.539	3.7
241.915	3.6
242.292	3.47
242.668	4.16
243.045	4.22
243.421	4.04
243.798	4.5
244.174	4.96
244.551	5.42
244.927	5.4
245.303	5.79
245.679	5.9
246.056	5.51
246.432	5.44
246.808	5.17
247.184	4.96
247.56	4.47
247.936	4.32
248.312	4.46
248.688	4.17
249.064	4.29
249.44	4.5
249.815	4.47
250.191	4.65
250.567	4.35
250.943	4.23
251.318	4.32
251.694	4.25
252.069	4.32
252.445	4.06
252.82	4.02
253.196	3.41
253.571	3.1
253.947	3.22
254.322	3.13
254.697	3.06
255.073	3.1
255.448	3.24
255.823	3.38
256.198	3.66
256.573	3.46
256.948	3.35
257.323	3.37
257.698	3.45
258.073	3.54
258.448	3.72
258.823	3.66
259.198	3.54
259.573	3.57
259.948	3.39
260.322	3.44
260.697	3.33
261.072	3.27
261.446	3.36
261.821	3.34
262.195	3.41
262.57	3.46
262.944	3.45
263.319	3.39
263.693	3.3
264.067	3.28
264.442	3.42
264.816	3.35
265.19	3.26
265.564	3.22
265.938	3.03
266.313	2.84
266.687	2.79
267.061	2.98
267.435	2.96
267.809	2.96
268.183	2.93
268.556	2.99
268.93	3.16
269.304	3.2
269.678	3.14
270.051	3.19
270.425	3.27
270.799	3.35
271.172	3.43
271.546	3.46
271.919	3.33
272.293	3.31
272.666	3.33
273.04	3.35
273.413	3.3
273.787	3.28
274.16	3.24
274.533	3.24
274.906	3.08
275.279	3.08
275.653	3.11
276.026	3.09
276.399	3.1
276.772	3.16
277.145	2.99
277.518	3.12
277.891	2.98
278.263	2.98
278.636	3.08
279.009	3.13
279.382	3.37
279.755	3.35
280.127	3.43
280.5	3.58
280.872	3.56
281.245	3.55
281.617	3.74
281.99	3.9
282.362	3.96
282.735	3.92
283.107	3.99
283.479	4
283.852	3.92
284.224	3.92
284.596	3.84
284.968	3.88
285.34	3.95
285.713	4.05
286.085	4.15
286.457	4.14
286.829	4.05
287.201	4.05
287.572	4
287.944	3.98
288.316	3.82
288.688	3.77
289.06	3.81
289.431	3.75
289.803	3.75
290.175	3.69
290.546	3.9
290.918	3.85
291.289	3.88
291.661	4.01
292.032	3.97
292.403	4.03
292.775	4.03
293.146	4
293.517	3.97
293.889	4
294.26	3.88
294.631	3.9
295.002	3.82
295.373	3.88
295.744	3.79
296.115	3.85
296.486	3.83
296.857	3.8
297.228	3.7
297.599	3.72
297.97	3.72
298.34	3.62
298.711	3.71
299.082	3.72
299.452	3.7
299.823	3.76
300.194	3.79
300.564	3.77
300.935	3.77
301.305	3.73
301.676	3.57
302.046	3.66
302.416	3.79
302.787	3.87
303.157	3.89
303.527	4.11
303.897	4.24
304.267	4.28
304.637	4.34
305.008	4.44
305.378	4.4
305.748	4.38
306.117	4.28
306.487	4.12
306.857	4.1
307.227	3.95
307.597	3.9
307.967	3.82
308.336	3.84
308.706	3.89
309.076	3.95
309.445	4.05
309.815	3.96
310.184	3.84
310.554	3.68
310.923	3.77
311.293	3.64
311.662	3.57
312.031	3.56
312.401	3.5
312.77	3.5
313.139	3.53
313.508	3.64
313.877	3.72
314.246	3.79
314.616	3.76
314.985	3.86
315.353	3.89
315.722	4.01
316.091	3.98
316.46	4.02
316.829	3.9
317.198	3.86
317.567	4.01
317.935	4.09
318.304	4.15
318.672	4
319.041	4.04
319.41	4.11
319.778	4.12
320.147	4.14
320.515	4.11
320.883	3.99
321.252	4.15
321.62	4.13
321.988	4.15
322.357	4.08
322.725	3.95
323.093	3.94
323.461	3.84
323.829	3.9
324.197	3.86
324.565	3.95
324.933	4.08
325.301	4
325.669	3.97
326.037	4.05
326.405	4.1
326.772	4.16
327.14	4.1
327.508	4.06
327.875	4.08
328.243	4.05
328.61	4.08
328.978	3.96
329.346	3.99
329.713	3.9
330.08	3.97
330.448	4.07
330.815	4.11
331.182	4.14
331.55	4.04
331.917	3.96
332.284	3.98
332.651	3.85
333.018	3.87
333.385	3.95
333.752	3.98
334.119	4.13
334.486	4.02
334.853	3.98
335.22	3.97
335.587	3.91
335.954	4
336.32	3.94
336.687	3.93
337.054	3.92
337.42	4.02
337.787	3.98
338.153	4.06
338.52	4.07
338.886	3.88
339.253	3.95
339.619	4.13
339.986	4.15
340.352	4.27
340.718	4.23
341.084	4.29
341.451	4.31
341.817	4.15
342.183	4.21
342.549	4.32
342.915	4.43
343.281	4.49
343.647	4.45
344.013	4.55
344.379	4.47
344.745	4.59
345.11	4.62
345.476	4.73
345.842	4.69
346.208	4.67
346.573	4.95
346.939	4.97
347.304	4.83
347.67	4.8
348.035	4.77
348.401	4.91
348.766	4.82
349.132	4.77
349.497	4.82
349.862	4.87
350.228	4.87
350.593	4.81
350.958	4.78
351.323	4.85
351.688	4.83
352.053	4.94
352.418	4.9
352.783	4.87
353.148	4.78
353.513	4.74
353.878	4.78
354.243	4.67
354.608	4.74
354.972	4.75
355.337	4.8
355.702	4.79
356.066	4.65
356.431	4.62
356.795	4.67
357.16	4.71
357.524	4.61
357.889	4.52
358.253	4.56
358.618	4.65
358.982	4.65
359.346	4.64
359.71	4.64
360.075	4.64
360.439	4.6
360.803	4.61
361.167	4.58
361.531	4.57
361.895	4.55
362.259	4.48
362.623	4.5
362.987	4.51
363.351	4.55
363.714	4.58
364.078	4.59
364.442	4.51
364.806	4.43
365.169	4.48
365.533	4.52
365.896	4.51
366.26	4.45
366.623	4.46
366.987	4.47
367.35	4.48
367.714	4.48
368.077	4.48
368.44	4.52
368.803	4.54
369.167	4.46
369.53	4.49
369.893	4.52
370.256	4.54
370.619	4.51
370.982	4.41
371.345	4.46
371.708	4.47
372.071	4.5
372.434	4.55
372.797	4.53
373.159	4.49
373.522	4.5
373.885	4.57
374.247	4.54
374.61	4.54
374.973	4.52
375.335	4.49
375.698	4.5
376.06	4.49
376.423	4.5
376.785	4.55
377.147	4.6
377.51	4.62
377.872	4.65
378.234	4.65
378.596	4.68
378.958	4.64
379.321	4.62
379.683	4.62
380.045	4.65
380.407	4.68
380.769	4.7
381.13	4.7
381.492	4.65
381.854	4.7
382.216	4.71
382.578	4.74
382.939	4.7
383.301	4.7
383.663	4.66
384.024	4.66
384.386	4.71
384.747	4.66
385.109	4.64
385.47	4.55
385.832	4.55
386.193	4.55
386.554	4.56
386.916	4.59
387.277	4.63
387.638	4.62
387.999	4.59
388.36	4.56
388.721	4.52
389.082	4.53
389.443	4.49
389.804	4.5
390.165	4.43
390.526	4.47
390.887	4.48
391.248	4.53
391.609	4.54
391.969	4.52
392.33	4.54
392.691	4.55
393.051	4.56
393.412	4.57
393.772	4.56
394.133	4.56
394.493	4.57
394.854	4.55
395.214	4.54
395.574	4.54
395.935	4.57
396.295	4.6
396.655	4.54
397.015	4.52
397.376	4.55
397.736	4.59
398.096	4.58
398.456	4.58
398.816	4.59
399.176	4.6
399.535	4.58
399.895	4.58
400.255	4.58
400.615	4.6
400.975	4.59
401.334	4.59
401.694	4.56
402.054	4.52
402.413	4.54
402.773	4.52
403.132	4.54
403.492	4.52
403.851	4.54
404.211	4.55
404.57	4.54
404.929	4.52
405.288	4.49
405.648	4.48
406.007	4.47
406.366	4.46
406.725	4.5
407.084	4.51
407.443	4.49
407.802	4.48
408.161	4.46
408.52	4.43
408.879	4.44
409.238	4.46
409.596	4.49
409.955	4.46
410.314	4.47
410.673	4.47
411.031	4.46
411.39	4.45
411.748	4.46
412.107	4.5
412.465	4.49
412.824	4.51
413.182	4.52
413.54	4.53
413.899	4.53
414.257	4.51
414.615	4.5
414.974	4.5
415.332	4.49
415.69	4.51
416.048	4.5
416.406	4.49
416.764	4.49
417.122	4.47
417.48	4.47
417.838	4.46
418.195	4.47
418.553	4.47
418.911	4.47
419.269	4.48
419.626	4.48
419.984	4.48
420.342	4.48
420.699	4.48
421.057	4.48
421.414	4.46
421.772	4.47
422.129	4.48
422.486	4.49
422.844	4.5
423.201	4.47
423.558	4.47
423.915	4.49
424.273	4.5
424.63	4.5
424.987	4.52
425.344	4.53
425.701	4.52
426.058	4.52
426.415	4.52
426.772	4.5
427.128	4.48
427.485	4.48
427.842	4.47
428.199	4.48
428.555	4.48
428.912	4.48
429.269	4.46
429.625	4.44
429.982	4.42
430.338	4.42
430.695	4.47
431.051	4.48
431.407	4.46
431.764	4.45
432.12	4.43
432.476	4.41
432.832	4.38
433.189	4.36
433.545	4.36
433.901	4.36
434.257	4.36
434.613	4.37
434.969	4.39
435.325	4.42
435.681	4.41
436.036	4.41
436.392	4.42
436.748	4.43
437.104	4.42
437.459	4.42
437.815	4.41
438.171	4.4
438.526	4.39
438.882	4.41
439.237	4.42
439.593	4.43
439.948	4.43
440.304	4.45
440.659	4.47
441.014	4.5
441.369	4.49
441.725	4.48
442.08	4.48
442.435	4.47
442.79	4.45
443.145	4.44
443.5	4.43
443.855	4.43
444.21	4.43
444.565	4.43
444.92	4.44
445.275	4.44
445.629	4.45
445.984	4.46
446.339	4.45
446.693	4.43
447.048	4.42
447.403	4.43
447.757	4.42
448.112	4.43
448.466	4.41
448.82	4.41
449.175	4.43
449.529	4.42
449.883	4.39
450.238	4.4
450.592	4.41
450.946	4.4
451.3	4.4
451.654	4.4
452.008	4.4
452.362	4.39
452.716	4.37
453.07	4.37
453.424	4.36
453.778	4.34
454.132	4.36
454.486	4.35
454.839	4.32
455.193	4.29
455.547	4.28
455.9	4.28
456.254	4.3
456.607	4.31
456.961	4.3
457.314	4.33
457.668	4.33
458.021	4.32
458.375	4.32
458.728	4.32
459.081	4.31
459.434	4.31
459.787	4.33
460.141	4.33
460.494	4.33
460.847	4.34
461.2	4.34
461.553	4.33
461.906	4.36
462.259	4.39
462.611	4.42
462.964	4.43
463.317	4.43
463.67	4.43
464.022	4.43
464.375	4.45
464.728	4.45
465.08	4.45
465.433	4.47
465.785	4.47
466.138	4.48
466.49	4.49
466.843	4.49
467.195	4.49
467.547	4.5
467.899	4.5
468.252	4.5
468.604	4.52
468.956	4.54
469.308	4.52
469.66	4.51
470.012	4.53
470.364	4.55
470.716	4.57
471.068	4.59
471.42	4.58
471.772	4.6
472.123	4.63
472.475	4.63
472.827	4.65
473.178	4.66
473.53	4.67
473.882	4.68
474.233	4.69
474.585	4.67
474.936	4.68
475.288	4.68
475.639	4.7
475.99	4.73
476.342	4.72
476.693	4.72
477.044	4.74
477.395	4.73
477.746	4.7
478.097	4.7
478.448	4.69
478.8	4.7
479.15	4.68
479.501	4.67
479.852	4.67
480.203	4.65
480.554	4.65
480.905	4.66
481.255	4.66
481.606	4.68
481.957	4.7
482.307	4.71
482.658	4.72
483.009	4.72
483.359	4.73
483.709	4.74
484.06	4.74
484.41	4.75
484.761	4.75
485.111	4.77
485.461	4.76
485.811	4.76
486.162	4.76
486.512	4.77
486.862	4.77
487.212	4.77
487.562	4.78
487.912	4.79
488.262	4.78
488.612	4.79
488.961	4.78
489.311	4.78
489.661	4.78
490.011	4.78
490.36	4.78
490.71	4.77
491.06	4.77
491.409	4.76
491.759	4.75
492.108	4.75
492.458	4.74
492.807	4.73
493.157	4.74
493.506	4.76
493.855	4.74
494.204	4.75
494.554	4.76
494.903	4.76
495.252	4.77
495.601	4.8
495.95	4.81
496.299	4.81
496.648	4.81
496.997	4.84
497.346	4.86
497.695	4.85
498.043	4.87
498.392	4.89
498.741	4.93
499.09	4.92
499.438	4.96
499.787	4.98
500.135	5.01
500.484	5.03
500.832	5.05
501.181	5.09
501.529	5.12
501.878	5.14
502.226	5.16
502.574	5.16
502.923	5.17
503.271	5.15
503.619	5.19
503.967	5.2
504.315	5.19
504.663	5.2
505.011	5.23
505.359	5.23
505.707	5.26
506.055	5.26
506.403	5.3
506.751	5.31
507.098	5.32
507.446	5.34
507.794	5.34
508.141	5.35
508.489	5.35
508.837	5.37
509.184	5.38
509.531	5.4
509.879	5.43
510.226	5.46
510.574	5.5
510.921	5.49
511.268	5.52
511.616	5.54
511.963	5.54
512.31	5.55
512.657	5.56
513.004	5.56
513.351	5.55
513.698	5.57
514.045	5.57
514.392	5.59
514.739	5.6
515.086	5.62
515.432	5.62
515.779	5.61
516.126	5.61
516.473	5.62
516.819	5.62
517.166	5.61
517.512	5.61
517.859	5.62
518.205	5.65
518.552	5.64
518.898	5.63
519.245	5.63
519.591	5.63
519.937	5.62
520.283	5.64
520.629	5.67
520.976	5.67
521.322	5.69
521.668	5.69
522.014	5.69
522.36	5.68
522.706	5.69
523.052	5.7
523.398	5.7
523.743	5.72
524.089	5.73
524.435	5.71
524.781	5.72
525.126	5.72
525.472	5.72
525.817	5.72
526.163	5.73
526.509	5.76
526.854	5.77
527.199	5.78
527.545	5.78
527.89	5.77
528.235	5.77
528.581	5.78
528.926	5.78
529.271	5.78
529.616	5.78
529.961	5.78
530.306	5.78
530.651	5.79
530.996	5.78
531.341	5.77
531.686	5.79
532.031	5.79
532.376	5.78
532.721	5.79
533.065	5.79
533.41	5.8
533.755	5.78
534.099	5.78
534.444	5.79
534.788	5.79
535.133	5.79
535.477	5.79
535.822	5.8
536.166	5.8
536.51	5.8
536.855	5.81
537.199	5.8
537.543	5.81
537.887	5.81
538.231	5.83
538.576	5.84
538.92	5.83
539.264	5.85
539.608	5.85
539.951	5.85
540.295	5.84
540.639	5.85
540.983	5.87
541.327	5.87
541.671	5.84
542.014	5.85
542.358	5.85
542.701	5.85
543.045	5.84
543.389	5.84
543.732	5.85
544.075	5.87
544.419	5.88
544.762	5.9
545.105	5.9
545.449	5.89
545.792	5.89
546.135	5.92
546.478	5.92
546.821	5.93
547.165	5.92
547.508	5.97
547.851	5.94
548.194	5.94
548.536	5.95
548.879	5.98
549.222	5.97
549.565	6.02
549.908	6.03
550.25	6.02
550.593	6.03
550.936	6.01
551.278	5.98
551.621	5.98
551.963	5.98
552.306	5.99
552.648	6
552.991	6.01
553.333	6
553.675	5.99
554.017	6.01
554.36	5.99
554.702	5.97
555.044	5.99
555.386	6.01
555.728	6.03
556.07	6.01
556.412	5.98
556.754	5.95
557.096	5.94
557.438	5.96
557.78	5.97
558.121	6.01
558.463	6.03
558.805	6.05
559.147	5.99
559.488	5.98
559.83	6
560.171	6.02
560.513	6.03
560.854	6.01
561.196	5.98
561.537	6.01
561.878	6.01
562.22	6.01
562.561	5.99
562.902	5.99
563.243	6.03
563.584	6.08
563.925	6.09
564.266	6.1
564.607	6.09
564.948	6.08
565.289	6.08
565.63	6.11
565.971	6.1
566.312	6.11
566.653	6.11
566.993	6.09
567.334	6.08
567.675	6.09
568.015	6.1
568.356	6.13
568.696	6.15
569.037	6.14
569.377	6.13
569.718	6.15
570.058	6.15
570.398	6.12
570.739	6.12
571.079	6.11
571.419	6.1
571.759	6.11
572.099	6.11
572.439	6.11
572.779	6.08
573.119	6.09
573.459	6.1
573.799	6.12
574.139	6.12
574.479	6.12
574.819	6.11
575.158	6.1
575.498	6.11
575.838	6.08
576.177	6.05
576.517	6.05
576.856	6.04
577.196	6.05
577.535	6.04
577.875	6.03
578.214	6.04
578.553	6.07
578.893	6.04
579.232	6.04
579.571	6.05
579.91	6.06
580.25	6.08
580.589	6.07
580.928	6.08
581.267	6.09
581.606	6.09
581.945	6.08
582.283	6.06
582.622	6.05
582.961	6.04
583.3	6.08
583.639	6.15
583.977	6.18
584.316	6.17
584.654	6.15
584.993	6.12
585.332	6.11
585.67	6.12
586.008	6.11
586.347	6.1
586.685	6.12
587.024	6.13
587.362	6.13
587.7	6.16
588.038	6.19
588.376	6.19
588.715	6.17
589.053	6.18
589.391	6.23
589.729	6.23
590.067	6.24
590.404	6.24
590.742	6.19
591.08	6.16
591.418	6.19
591.756	6.21
592.093	6.26
592.431	6.24
592.769	6.24
593.106	6.24
593.444	6.25
593.781	6.23
594.119	6.22
594.456	6.2
594.793	6.17
595.131	6.13
595.468	6.15
595.805	6.11
596.143	6.13
596.48	6.14
596.817	6.16
597.154	6.18
597.491	6.17
597.828	6.2
598.165	6.18
598.502	6.18
598.839	6.19
599.176	6.15
599.512	6.19
599.849	6.21
600.186	6.23
600.523	6.25
600.859	6.27
601.196	6.27
601.532	6.3
601.869	6.35
602.205	6.38
602.542	6.4
602.878	6.42
603.215	6.43
603.551	6.43
603.887	6.45
604.223	6.45
604.56	6.47
604.896	6.41
605.232	6.44
605.568	6.41
605.904	6.42
606.24	6.45
606.576	6.42
606.912	6.42
607.248	6.4
607.583	6.41
607.919	6.37
608.255	6.37
608.591	6.37
608.926	6.33
609.262	6.33
609.597	6.3
609.933	6.32
610.268	6.27
610.604	6.25
610.939	6.18
611.275	6.18
611.61	6.18
611.945	6.26
612.281	6.25
612.616	6.25
612.951	6.23
613.286	6.23
613.621	6.23
613.956	6.2
614.291	6.26
614.626	6.22
614.961	6.27
615.296	6.28
615.631	6.27
615.966	6.28
616.3	6.27
616.635	6.27
616.97	6.32
617.304	6.37
617.639	6.43
617.973	6.44
618.308	6.43
618.642	6.39
618.977	6.36
619.311	6.34
619.646	6.36
619.98	6.39
620.314	6.4
620.648	6.44
620.983	6.49
621.317	6.5
621.651	6.56
621.985	6.55
622.319	6.54
622.653	6.55
622.987	6.57
623.321	6.56
623.655	6.55
623.988	6.55
624.322	6.53
624.656	6.49
624.99	6.49
625.323	6.5
625.657	6.58
625.99	6.56
626.324	6.6
626.657	6.63
626.991	6.66
627.324	6.65
627.658	6.69
627.991	6.69
628.324	6.62
628.657	6.62
628.991	6.6
629.324	6.61
629.657	6.64
629.99	6.69
630.323	6.72
630.656	6.8
630.989	6.79
631.322	6.82
631.655	6.83
631.987	6.9
632.32	6.93
632.653	6.91
632.986	6.93
633.318	6.93
633.651	6.92
633.984	6.88
634.316	6.88
634.649	6.85
634.981	6.82
635.313	6.86
635.646	6.81
635.978	6.82
636.31	6.84
636.643	6.79
636.975	6.75
637.307	6.76
637.639	6.73
637.971	6.72
638.303	6.68
638.635	6.65
638.967	6.61
639.299	6.63
639.631	6.62
639.963	6.57
640.295	6.65
640.626	6.64
640.958	6.68
641.29	6.72
641.621	6.71
641.953	6.67
642.285	6.66
642.616	6.79
642.948	6.82
643.279	6.83
643.61	6.8
643.942	6.78
644.273	6.79
644.604	6.74
644.936	6.77
645.267	6.77
645.598	6.77
645.929	6.8
646.26	6.84
646.591	6.87
646.922	6.89
647.253	6.81
647.584	6.79
647.915	6.71
648.245	6.68
648.576	6.69
648.907	6.79
649.238	6.81
649.568	6.7
649.899	6.69
650.229	6.71
650.56	6.73
650.89	6.79
651.221	6.74
651.551	6.73
651.882	6.7
652.212	6.77
652.542	6.81
652.872	6.78
653.203	6.67
653.533	6.65
653.863	6.7
654.193	6.7
654.523	6.7
654.853	6.79
655.183	6.83
655.513	6.8
655.843	6.8
656.172	6.77
656.502	6.77
656.832	6.78
657.162	6.79
657.491	6.79
657.821	6.79
658.15	6.84
658.48	6.81
658.809	6.89
659.139	6.85
659.468	6.84
659.798	6.86
660.127	6.94
660.456	6.97
660.785	7.02
661.115	7.07
661.444	7.09
661.773	7.09
662.102	7.02
662.431	7.1
662.76	7.09
663.089	7.13
663.418	7.17
663.747	7.06
664.076	7.01
664.404	7.05
664.733	7.11
665.062	7.01
665.39	7.07
665.719	7
666.048	7.03
666.376	6.99
666.705	6.98
667.033	6.92
667.362	6.9
667.69	6.84
668.018	6.81
668.347	6.84
668.675	6.8
669.003	6.94
669.331	6.99
669.659	6.94
669.987	6.89
670.315	6.94
670.643	7.03
670.971	7.1
671.299	7.09
671.627	7.01
671.955	7.19
672.283	7.17
672.61	7.22
672.938	7.22
673.266	7.24
673.593	7.33
673.921	7.29
674.249	7.33
674.576	7.31
674.904	7.33
675.231	7.28
675.558	7.23
675.886	7.17
676.213	7.06
676.54	7.12
676.867	7.21
677.195	7.2
677.522	7.17
677.849	7.17
678.176	7.2
678.503	7.18
678.83	7.16
679.157	7.17
679.484	7.12
679.81	7.13
680.137	7.17
680.464	7.1
680.791	7.17
681.117	7.15
681.444	7.13
681.771	7.12
682.097	7.15
682.424	7.21
682.75	7.23
683.077	7.25
683.403	7.31
683.729	7.34
684.056	7.37
684.382	7.45
684.708	7.46
685.034	7.45
685.36	7.48
685.686	7.44
686.012	7.48
686.339	7.6
686.664	7.6
686.99	7.59
687.316	7.66
687.642	7.64
687.968	7.63
688.294	7.73
688.619	7.68
688.945	7.65
689.271	7.56
689.596	7.47
689.922	7.48
690.247	7.35
690.573	7.3
690.898	7.27
691.224	7.18
691.549	7.17
691.874	7.17
692.2	7.21
692.525	7.23
692.85	7.23
693.175	7.15
693.5	7.12
693.825	7.12
694.15	7.05
694.475	7.09
694.8	7.1
695.125	7.06
695.45	7.06
695.775	7.09
696.099	7.22
696.424	7.3
696.749	7.21
697.073	7.25
697.398	7.25
697.723	7.2
698.047	7.24
698.372	7.23
698.696	7.26
699.02	7.2
699.345	7.15
699.669	7.2
699.993	7.13
700.318	7.11
700.642	7.08
700.966	7.13
701.29	7.09
701.614	7.13
701.938	7.27
702.262	7.32
702.586	7.42
702.91	7.39
703.234	7.36
703.557	7.53
703.881	7.48
704.205	7.46
704.529	7.43
704.852	7.4
705.176	7.29
705.499	7.25
705.823	7.25
706.146	7.27
706.47	7.27
706.793	7.31
707.117	7.28
707.44	7.26
707.763	7.25
708.086	7.16
708.409	7.09
708.733	6.91
709.056	6.97
709.379	7.06
709.702	7.03
710.025	7.06
710.348	6.98
710.671	6.99
710.993	7.1
711.316	7.12
711.639	7.22
711.962	7.44
712.284	7.46
712.607	7.56
712.93	7.66
713.252	7.59
713.575	7.64
713.897	7.66
714.22	7.72
714.542	7.73
714.864	7.83
715.187	7.86
715.509	7.9
715.831	7.88
716.153	7.76
716.475	7.86
716.798	8.07
717.12	8.15
717.442	8.23
717.764	8.19
718.085	8.27
718.407	8.21
718.729	8.15
719.051	8.19
719.373	8.05
719.695	8.03
720.016	8.09
720.338	8.14
720.659	8.22
720.981	8.35
721.302	8.22
721.624	8.14
721.945	8.21
722.267	8.12
722.588	8.04
722.909	7.97
723.231	7.82
723.552	7.65
723.873	7.62
724.194	7.67
724.515	7.67
724.836	7.59
725.157	7.67
725.478	7.64
725.799	7.63
726.12	7.66
726.441	7.57
726.762	7.56
727.083	7.61
727.403	7.68
727.724	7.68
728.045	7.75
728.365	7.97
728.686	7.89
729.006	8
729.327	8.04
729.647	8.11
729.967	8.23
730.288	8.23
730.608	7.99
730.928	8
731.249	8.01
731.569	8.21
731.889	8.19
732.209	8.26
732.529	8.15
732.849	8.32
733.169	8.39
733.489	8.42
733.809	8.29
734.129	8.4
734.448	8.47
734.768	8.55
735.088	8.42
735.408	8.51
735.727	8.62
736.047	8.81
736.366	8.76
736.686	8.67
737.005	8.71
737.325	8.97
737.644	8.96
737.963	8.91
738.283	8.7
738.602	8.86
738.921	8.66
739.24	8.84
739.56	8.77
739.879	8.74
740.198	8.78
740.517	8.94
740.836	8.86
741.155	8.71
741.473	8.6
741.792	8.46
742.111	8.56
742.43	8.5
742.748	8.36
743.067	8.45
743.386	8.69
743.704	8.6
744.023	8.64
744.341	8.68
744.66	9.06
744.978	9.04
745.297	8.97
745.615	9.11
745.933	9.18
746.252	9.04
746.57	9.1
746.888	9.03
747.206	8.99
747.524	9.03
747.842	9.07
748.16	9.23
748.478	9.52
748.796	9.47
749.114	9.5
749.432	9.61
749.749	9.7
750.067	9.21
750.385	9.14
750.703	9.21
751.02	9.07
751.338	8.75
751.655	8.83
751.973	9.02
752.29	8.91
752.608	8.8
752.925	9.06
753.242	9.02
753.56	8.92
753.877	8.87
754.194	8.92
754.511	8.88
754.828	8.82
755.145	8.62
755.462	8.22
755.779	8.21
756.096	8.17
756.413	8.31
756.73	8.75
757.047	8.92
757.364	8.78
757.68	8.88
757.997	8.95
758.314	9.13
758.63	8.87
758.947	8.98
759.264	8.98
759.58	8.85
759.896	8.96
760.213	9.09
760.529	9.23
760.846	9.21
761.162	9.18
761.478	9.22
761.794	9.07
762.11	9.41
762.426	9.47
762.743	9.57
763.059	9.43
763.375	9.54
763.69	9.58
764.006	9.59
764.322	9.67
764.638	9.8
764.954	9.8
765.27	9.72
765.585	9.74
765.901	9.81
766.216	9.86
766.532	9.74
766.848	9.73
767.163	9.61
767.478	9.52
767.794	9.59
768.109	9.55
768.424	9.77
768.74	9.7
769.055	9.76
769.37	9.93
769.685	9.96
770	10.09
770.315	9.86
770.63	9.88
770.945	9.44
771.26	9.42
771.575	9.34
771.89	9.81
772.205	9.96
772.52	9.84
772.834	9.63
773.149	9.81
773.464	9.79
773.778	10.05
774.093	9.93
774.407	9.94
774.722	9.94
775.036	10.18
775.351	10.28
775.665	9.9
775.979	9.63
776.293	9.91
776.608	9.36
776.922	9.42
777.236	9.52
777.55	10.01
777.864	9.95
778.178	10.05
778.492	9.85
778.806	9.89
779.12	10.06
779.434	10.33
779.747	10.15
780.061	10.05
780.375	9.76
780.689	10.05
781.002	10.26
781.316	10.32
781.629	10.54
781.943	10.45
782.256	10.59
782.57	10.28
782.883	9.94
783.196	9.92
783.51	10.26
783.823	10.24
784.136	10.22
784.449	9.84
784.762	10.45
785.075	10.55
785.388	10.4
785.701	10.29
786.014	10.13
786.327	10.69
786.64	11.38
786.953	11.84
787.266	11.39
787.578	11.31
787.891	11.29
788.204	10.96
788.516	11.51
788.829	11.83
789.141	12.4
789.454	12.57
789.766	12.98
790.079	12.91
790.391	12.6
790.703	12.33
791.016	13.04
791.328	12.54
791.64	12.03
791.952	11.79
792.264	11.29
792.576	11.35
792.888	11.13
793.2	10.88
793.512	10.62
793.824	11.25
794.136	11.04
794.448	11.24
794.76	11.52
795.071	10.86
795.383	10.45
795.695	9.85
796.006	9.54
796.318	9.18
796.629	9.53
796.941	9.7
797.252	10.41
797.564	10.27
797.875	10.46
798.186	10.56
798.497	11.02
798.809	11.7
799.12	11.53
799.431	11.23
799.742	10.76
800.053	11.24
800.364	11.65
800.675	11.5
800.986	11.19
801.297	10.57
801.608	10.51
801.918	10.41
802.229	10.78
802.54	11.01
802.851	11.15
803.161	10.82
803.472	10.48
803.782	9.89
804.093	9.59
804.403	9.34
804.714	9.74
805.024	9.04
805.334	9.13
805.645	10.07
805.955	10.01
806.265	10.51
806.575	10.24
806.885	9.86
807.195	10.52
807.505	10.9
807.815	11.54
808.125	11.76
808.435	12.31
808.745	12.21
809.055	12.62
809.365	12.77
809.674	11.95
809.984	12.64
810.294	12.76
810.603	13.07
810.913	12.95
811.222	13.33
811.532	14.19
811.841	14.45
812.151	14.25
812.46	14.41
812.769	14.64
813.079	14.92
813.388	14.62
813.697	14.57
814.006	14.65
814.315	14.21
814.624	14.13
814.933	13.96
815.242	13.88
815.551	13.49
815.86	13.28
816.169	14.15
816.478	13.83
816.786	13.55
817.095	13.34
817.404	13.61
817.712	13.33
818.021	13.27
818.33	12.75
818.638	12.6
818.947	12.89
819.255	12.87
819.563	12.84
819.872	12.89
820.18	12.55
820.488	12.31
820.796	12.41
821.105	12.56
821.413	12.52
821.721	12.63
822.029	12.71
822.337	12.76
822.645	12.76
822.953	12.8
823.26	12.82
823.568	12.75
823.876	12.75
824.184	12.76
824.491	12.64
824.799	12.66
825.107	12.75
825.414	12.88
825.722	12.82
826.029	12.76
826.337	12.81
826.644	12.77
826.951	12.9
827.259	12.9
827.566	12.73
827.873	12.77
828.18	12.84
828.488	12.94
828.795	13.03
829.102	13.13
829.409	13.1
829.716	13.08
830.023	13.44
830.329	13.27
830.636	13.25
830.943	13.32
831.25	13.29
831.557	13.42
831.863	13.18
832.17	13.19
832.476	13.03
832.783	13.06
833.089	13.45
833.396	13.67
833.702	14.29
834.009	14.44
834.315	14.64
834.621	14.1
834.928	14.06
835.234	13.68
835.54	13.4
835.846	13.63
836.152	13.68
836.458	13.1
836.764	13.09
837.07	13.01
837.376	13.05
837.682	13.25
837.988	12.64
838.293	12.4
838.599	12.25
838.905	11.87
839.211	11.13
839.516	11.07
839.822	10.78
840.127	9.62
840.433	9.79
840.738	9.61
841.044	9.86
841.349	9.28
841.654	10.42
841.959	10.63
842.265	11
842.57	11.27
842.875	11.22
843.18	11.57
843.485	11.59
843.79	12.27
844.095	12.11
844.4	13.36
844.705	14.08
845.01	13.83
845.315	14.16
845.619	14.66
845.924	15.52
846.229	15.62
846.533	16.37
846.838	16.54
847.142	15.72
847.447	14.96
847.751	14.57
848.056	12.76
848.36	11.67
848.664	9.93
848.969	9.55
849.273	10.01
849.577	8.97
849.881	8.28
850.185	7.01
850.489	6.86
850.794	4.97
851.097	5.47
851.401	6.27
851.705	4.99
852.009	5.59
852.313	4.07
852.617	2.74
852.92	4.44
853.224	3.48
853.528	5.19
853.831	6.95
854.135	7
854.438	7.82
854.742	8.36
855.045	11.1
855.349	10.48
855.652	12.52
855.955	13.71
856.259	12.33
856.562	14.18
856.865	14.09
857.168	14.13
857.471	12.45
857.774	13.09
858.077	13.43
858.38	15.41
858.683	16.4
858.986	17.07
859.289	16.07
859.592	17.11
859.894	16.09
860.197	16.19
860.5	17.69
860.802	17.14
861.105	18
861.407	17.66
861.71	19.29
862.012	18.48
862.315	17.28
862.617	20.38
862.919	18.77
863.222	19.45
863.524	19.45
863.826	19.28
864.128	17.08
864.43	18.69
864.732	18.61
865.034	17.28
865.336	16.38
865.638	14.89
865.94	13.82
866.242	10.38
866.544	9.75
866.846	7.85
867.147	7.99
867.449	8.99
867.751	9.91
868.052	10.8
868.354	9.48
868.655	11.78
868.957	11.77
869.258	10.01
869.56	9.29
869.861	7.98
870.162	7.91
870.463	9.55
870.765	9.51
871.066	7.94
871.367	8.85
871.668	9.81
871.969	10.05
872.27	9.21
872.571	13.69
872.872	13.51
873.173	15.05
873.473	16.28
873.774	14.67
874.075	13.92
874.376	11.5
874.676	12.7
874.977	9.27
875.277	9.14
875.578	10.22
875.878	10.4
876.179	11.74
876.479	12.14
876.78	11.05
877.08	11.24
877.38	11.22
877.68	10.67
877.981	11.2
878.281	10.73
878.581	13.71
