Data from BU26846_Reflection_00006.txt Node
Date: Mon Nov 18 16:33:29 EST 2019
User: vgr7
Spectrometer: USB2G7710
Scans to average: 3
Trigger mode: 4
Integration Time (sec): 2.000000E-2
Electric dark correction enabled: true
Boxcar width: 10
XAxis mode: Wavelengths
Number of Pixels in Spectrum: 2048
>>>>>Begin Spectral Data<<<<<
177.721	150.65
178.105	-692.45
178.488	145.8
178.871	-52.87
179.254	-2.96
179.636	-182.53
180.019	-84.43
180.402	130.3
180.785	44.38
181.168	110.6
181.55	-28.64
181.933	34.44
182.316	10.19
182.698	-4.05
183.081	5.77
183.463	-7.87
183.846	45.08
184.228	-30.22
184.611	80.33
184.993	-439.33
185.376	161.86
185.758	-1083.1
186.14	-55.75
186.522	19.61
186.904	-4.72
187.287	9.27
187.669	-45.19
188.051	-33.73
188.433	-44.22
188.815	-62.93
189.197	-83.23
189.579	-86.28
189.961	-147.54
190.342	-273.94
190.724	172.14
191.106	-816.03
191.488	-251.69
191.869	-80.37
192.251	-66.1
192.633	-68.44
193.014	-39.65
193.396	-43.2
193.777	-35.63
194.159	-30.25
194.54	-45.59
194.922	-64.46
195.303	-69.75
195.684	-57.4
196.065	-133.83
196.447	-83.24
196.828	-63.8
197.209	-63.16
197.59	-7.27
197.971	-17.74
198.352	-20.63
198.733	17.64
199.114	14.35
199.495	14.62
199.876	9.55
200.257	100
200.638	107.74
201.018	-17.5
201.399	-9.68
201.78	8.01
202.16	49.25
202.541	17.41
202.922	-11.51
203.302	13.92
203.683	12.7
204.063	-22.85
204.444	-12.37
204.824	-14.54
205.204	-5.12
205.585	13.83
205.965	8.59
206.345	-11.08
206.725	7.52
207.106	-17
207.486	-45.23
207.866	-26.28
208.246	-83.09
208.626	-104.49
209.006	-80.6
209.386	-128.79
209.766	-269.44
210.145	-317.76
210.525	-284.69
210.905	-150.89
211.285	-201.14
211.664	-155.65
212.044	-127.13
212.424	-115.79
212.803	-133.77
213.183	-177.84
213.562	-153.26
213.942	-159.21
214.321	-78.6
214.701	-110.88
215.08	-110.22
215.459	-97.8
215.838	-66.52
216.218	-48.92
216.597	-70.01
216.976	13.13
217.355	88.84
217.734	77.79
218.113	136.17
218.492	201.93
218.871	2532.43
219.25	75.03
219.629	150.7
220.008	-187.43
220.387	-710.81
220.766	34.07
221.144	296.72
221.523	-309.94
221.902	-16.99
222.28	435.66
222.659	-13.03
223.037	16.01
223.416	32.73
223.794	23.12
224.173	18.89
224.551	40.69
224.929	16.81
225.308	7.14
225.686	2.11
226.064	-11
226.442	-12.68
226.821	-5.49
227.199	-6.41
227.577	-5.63
227.955	-4.22
228.333	-1.26
228.711	-1.44
229.089	0.13
229.467	-0.73
229.845	-1.97
230.222	1.93
230.6	-0.2
230.978	-3.26
231.356	-2.98
231.733	-1.03
232.111	0.35
232.488	-1.78
232.866	0.15
233.243	0.05
233.621	-1.48
233.998	1.14
234.376	0.77
234.753	2.61
235.13	2.75
235.508	3.58
235.885	4.88
236.262	2.85
236.639	3
237.016	1.14
237.393	2.34
237.77	3.67
238.147	3.37
238.524	4.25
238.901	5.61
239.278	5.45
239.655	5.24
240.032	5.92
240.409	5.48
240.785	5.14
241.162	5.34
241.539	5.99
241.915	5.63
242.292	5.23
242.668	4.93
243.045	5.02
243.421	5.02
243.798	4.87
244.174	4.85
244.551	4.76
244.927	4.66
245.303	4.52
245.679	4.31
246.056	4.23
246.432	4.13
246.808	3.8
247.184	3.63
247.56	3.37
247.936	3.07
248.312	3.11
248.688	3.15
249.064	2.94
249.44	2.85
249.815	3.14
250.191	3.44
250.567	3.48
250.943	3.42
251.318	3.39
251.694	3.09
252.069	2.98
252.445	3.34
252.82	3.39
253.196	3.21
253.571	3.44
253.947	3.66
254.322	4.07
254.697	4.16
255.073	4.21
255.448	4.48
255.823	4.57
256.198	4.7
256.573	4.62
256.948	4.8
257.323	5.11
257.698	4.75
258.073	4.48
258.448	4.53
258.823	4.59
259.198	4.45
259.573	4.56
259.948	4.67
260.322	4.51
260.697	4.43
261.072	4.52
261.446	4.31
261.821	4.12
262.195	4.1
262.57	4.05
262.944	3.96
263.319	3.77
263.693	3.72
264.067	3.66
264.442	3.8
264.816	3.78
265.19	3.5
265.564	3.57
265.938	3.71
266.313	3.52
266.687	3.44
267.061	3.59
267.435	3.71
267.809	3.71
268.183	3.72
268.556	3.66
268.93	3.58
269.304	3.74
269.678	3.73
270.051	3.47
270.425	3.52
270.799	3.7
271.172	3.88
271.546	3.81
271.919	3.73
272.293	3.68
272.666	3.74
273.04	3.86
273.413	3.9
273.787	3.93
274.16	3.91
274.533	3.93
274.906	3.72
275.279	3.55
275.653	3.44
276.026	3.3
276.399	3.44
276.772	3.52
277.145	3.47
277.518	3.57
277.891	3.71
278.263	3.59
278.636	3.48
279.009	3.44
279.382	3.49
279.755	3.48
280.127	3.61
280.5	3.56
280.872	3.56
281.245	3.58
281.617	3.53
281.99	3.71
282.362	3.7
282.735	3.71
283.107	3.75
283.479	3.85
283.852	3.85
284.224	3.8
284.596	3.8
284.968	3.82
285.34	3.87
285.713	3.91
286.085	3.99
286.457	4.14
286.829	4.03
287.201	3.94
287.572	3.94
287.944	3.7
288.316	3.67
288.688	3.63
289.06	3.59
289.431	3.65
289.803	3.64
290.175	3.66
290.546	3.86
290.918	3.92
291.289	3.98
291.661	4.01
292.032	4.06
292.403	4.06
292.775	4.04
293.146	3.97
293.517	3.86
293.889	3.93
294.26	3.9
294.631	4
295.002	4.13
295.373	4.15
295.744	4.28
296.115	4.21
296.486	4.1
296.857	4.05
297.228	3.93
297.599	3.75
297.97	3.85
298.34	3.85
298.711	3.84
299.082	3.85
299.452	3.83
299.823	3.86
300.194	3.8
300.564	3.72
300.935	3.82
301.305	3.77
301.676	3.7
302.046	3.6
302.416	3.65
302.787	3.47
303.157	3.43
303.527	3.27
303.897	3.25
304.267	3.46
304.637	3.5
305.008	3.62
305.378	3.73
305.748	3.64
306.117	3.49
306.487	3.55
306.857	3.45
307.227	3.55
307.597	3.43
307.967	3.5
308.336	3.51
308.706	3.47
309.076	3.56
309.445	3.44
309.815	3.41
310.184	3.37
310.554	3.47
310.923	3.53
311.293	3.69
311.662	3.79
312.031	3.62
312.401	3.67
312.77	3.67
313.139	3.67
313.508	3.75
313.877	3.85
314.246	3.75
314.616	3.71
314.985	3.58
315.353	3.52
315.722	3.67
316.091	3.68
316.46	3.63
316.829	3.6
317.198	3.77
317.567	3.85
317.935	3.71
318.304	3.71
318.672	3.46
319.041	3.51
319.41	3.36
319.778	3.48
320.147	3.46
320.515	3.51
320.883	3.43
321.252	3.32
321.62	3.29
321.988	3.43
322.357	3.4
322.725	3.36
323.093	3.49
323.461	3.34
323.829	3.35
324.197	3.42
324.565	3.53
324.933	3.59
325.301	3.58
325.669	3.61
326.037	3.58
326.405	3.81
326.772	3.73
327.14	3.83
327.508	3.8
327.875	3.69
328.243	3.6
328.61	3.64
328.978	3.6
329.346	3.63
329.713	3.55
330.08	3.65
330.448	3.65
330.815	3.56
331.182	3.63
331.55	3.64
331.917	3.69
332.284	3.76
332.651	3.71
333.018	3.71
333.385	3.78
333.752	3.86
334.119	3.72
334.486	3.82
334.853	3.8
335.22	3.76
335.587	3.82
335.954	3.85
336.32	3.81
336.687	3.85
337.054	3.83
337.42	3.82
337.787	3.77
338.153	3.86
338.52	4.02
338.886	3.87
339.253	3.81
339.619	3.73
339.986	3.54
340.352	3.51
340.718	3.51
341.084	3.47
341.451	3.44
341.817	3.62
342.183	3.49
342.549	3.44
342.915	3.46
343.281	3.4
343.647	3.25
344.013	3.28
344.379	3.26
344.745	3.24
345.11	3.26
345.476	3.37
345.842	3.36
346.208	3.29
346.573	3.39
346.939	3.46
347.304	3.41
347.67	3.48
348.035	3.4
348.401	3.39
348.766	3.43
349.132	3.44
349.497	3.29
349.862	3.34
350.228	3.29
350.593	3.25
350.958	3.32
351.323	3.45
351.688	3.47
352.053	3.46
352.418	3.46
352.783	3.42
353.148	3.28
353.513	3.3
353.878	3.4
354.243	3.36
354.608	3.35
354.972	3.41
355.337	3.38
355.702	3.48
356.066	3.53
356.431	3.46
356.795	3.46
357.16	3.45
357.524	3.41
357.889	3.5
358.253	3.57
358.618	3.54
358.982	3.48
359.346	3.46
359.71	3.45
360.075	3.5
360.439	3.56
360.803	3.61
361.167	3.55
361.531	3.46
361.895	3.39
362.259	3.38
362.623	3.35
362.987	3.32
363.351	3.28
363.714	3.22
364.078	3.26
364.442	3.22
364.806	3.23
365.169	3.23
365.533	3.14
365.896	3.12
366.26	3.16
366.623	3.19
366.987	3.19
367.35	3.2
367.714	3.2
368.077	3.11
368.44	3.11
368.803	3.17
369.167	3.12
369.53	3.16
369.893	3.18
370.256	3.2
370.619	3.24
370.982	3.23
371.345	3.27
371.708	3.29
372.071	3.31
372.434	3.33
372.797	3.37
373.159	3.41
373.522	3.43
373.885	3.42
374.247	3.45
374.61	3.46
374.973	3.49
375.335	3.41
375.698	3.45
376.06	3.46
376.423	3.48
376.785	3.6
377.147	3.65
377.51	3.65
377.872	3.66
378.234	3.64
378.596	3.67
378.958	3.61
379.321	3.65
379.683	3.62
380.045	3.6
380.407	3.54
380.769	3.55
381.13	3.52
381.492	3.53
381.854	3.55
382.216	3.53
382.578	3.49
382.939	3.53
383.301	3.51
383.663	3.46
384.024	3.45
384.386	3.5
384.747	3.49
385.109	3.49
385.47	3.5
385.832	3.52
386.193	3.57
386.554	3.6
386.916	3.57
387.277	3.58
387.638	3.63
387.999	3.65
388.36	3.66
388.721	3.66
389.082	3.61
389.443	3.56
389.804	3.61
390.165	3.59
390.526	3.58
390.887	3.6
391.248	3.64
391.609	3.63
391.969	3.56
392.33	3.58
392.691	3.6
393.051	3.57
393.412	3.58
393.772	3.52
394.133	3.5
394.493	3.5
394.854	3.48
395.214	3.48
395.574	3.5
395.935	3.49
396.295	3.5
396.655	3.53
397.015	3.54
397.376	3.51
397.736	3.52
398.096	3.57
398.456	3.54
398.816	3.56
399.176	3.51
399.535	3.47
399.895	3.43
400.255	3.41
400.615	3.45
400.975	3.44
401.334	3.48
401.694	3.51
402.054	3.49
402.413	3.57
402.773	3.52
403.132	3.53
403.492	3.54
403.851	3.53
404.211	3.52
404.57	3.56
404.929	3.58
405.288	3.58
405.648	3.56
406.007	3.56
406.366	3.55
406.725	3.59
407.084	3.63
407.443	3.63
407.802	3.65
408.161	3.62
408.52	3.6
408.879	3.58
409.238	3.57
409.596	3.61
409.955	3.56
410.314	3.56
410.673	3.56
411.031	3.56
411.39	3.57
411.748	3.56
412.107	3.53
412.465	3.52
412.824	3.54
413.182	3.51
413.54	3.53
413.899	3.55
414.257	3.55
414.615	3.57
414.974	3.58
415.332	3.57
415.69	3.56
416.048	3.54
416.406	3.56
416.764	3.56
417.122	3.55
417.48	3.54
417.838	3.56
418.195	3.57
418.553	3.56
418.911	3.58
419.269	3.59
419.626	3.58
419.984	3.59
420.342	3.6
420.699	3.62
421.057	3.61
421.414	3.6
421.772	3.59
422.129	3.59
422.486	3.6
422.844	3.6
423.201	3.6
423.558	3.61
423.915	3.62
424.273	3.63
424.63	3.63
424.987	3.63
425.344	3.62
425.701	3.62
426.058	3.62
426.415	3.61
426.772	3.61
427.128	3.61
427.485	3.62
427.842	3.61
428.199	3.6
428.555	3.58
428.912	3.59
429.269	3.61
429.625	3.61
429.982	3.59
430.338	3.59
430.695	3.61
431.051	3.6
431.407	3.58
431.764	3.57
432.12	3.56
432.476	3.58
432.832	3.59
433.189	3.58
433.545	3.59
433.901	3.59
434.257	3.59
434.613	3.59
434.969	3.57
435.325	3.58
435.681	3.59
436.036	3.61
436.392	3.62
436.748	3.6
437.104	3.58
437.459	3.58
437.815	3.59
438.171	3.6
438.526	3.61
438.882	3.62
439.237	3.62
439.593	3.63
439.948	3.64
440.304	3.64
440.659	3.66
441.014	3.67
441.369	3.65
441.725	3.65
442.08	3.65
442.435	3.66
442.79	3.65
443.145	3.64
443.5	3.63
443.855	3.62
444.21	3.62
444.565	3.64
444.92	3.66
445.275	3.64
445.629	3.64
445.984	3.64
446.339	3.62
446.693	3.62
447.048	3.61
447.403	3.6
447.757	3.59
448.112	3.58
448.466	3.56
448.82	3.57
449.175	3.57
449.529	3.58
449.883	3.58
450.238	3.57
450.592	3.59
450.946	3.59
451.3	3.59
451.654	3.58
452.008	3.59
452.362	3.57
452.716	3.58
453.07	3.58
453.424	3.57
453.778	3.6
454.132	3.59
454.486	3.61
454.839	3.62
455.193	3.62
455.547	3.6
455.9	3.6
456.254	3.62
456.607	3.61
456.961	3.6
457.314	3.6
457.668	3.61
458.021	3.59
458.375	3.61
458.728	3.63
459.081	3.63
459.434	3.61
459.787	3.62
460.141	3.62
460.494	3.61
460.847	3.61
461.2	3.58
461.553	3.6
461.906	3.58
462.259	3.59
462.611	3.6
462.964	3.61
463.317	3.62
463.67	3.6
464.022	3.6
464.375	3.59
464.728	3.59
465.08	3.58
465.433	3.6
465.785	3.59
466.138	3.59
466.49	3.59
466.843	3.59
467.195	3.58
467.547	3.61
467.899	3.62
468.252	3.63
468.604	3.65
468.956	3.66
469.308	3.67
469.66	3.68
470.012	3.7
470.364	3.73
470.716	3.75
471.068	3.77
471.42	3.79
471.772	3.81
472.123	3.83
472.475	3.85
472.827	3.84
473.178	3.86
473.53	3.84
473.882	3.84
474.233	3.85
474.585	3.85
474.936	3.84
475.288	3.84
475.639	3.84
475.99	3.84
476.342	3.81
476.693	3.83
477.044	3.84
477.395	3.81
477.746	3.8
478.097	3.77
478.448	3.77
478.8	3.77
479.15	3.77
479.501	3.75
479.852	3.73
480.203	3.75
480.554	3.75
480.905	3.78
481.255	3.78
481.606	3.79
481.957	3.79
482.307	3.79
482.658	3.79
483.009	3.79
483.359	3.79
483.709	3.8
484.06	3.8
484.41	3.79
484.761	3.81
485.111	3.8
485.461	3.81
485.811	3.82
486.162	3.81
486.512	3.82
486.862	3.82
487.212	3.83
487.562	3.83
487.912	3.82
488.262	3.81
488.612	3.82
488.961	3.81
489.311	3.82
489.661	3.83
490.011	3.83
490.36	3.83
490.71	3.84
491.06	3.83
491.409	3.82
491.759	3.82
492.108	3.81
492.458	3.82
492.807	3.81
493.157	3.81
493.506	3.83
493.855	3.82
494.204	3.81
494.554	3.82
494.903	3.81
495.252	3.81
495.601	3.83
495.95	3.82
496.299	3.82
496.648	3.81
496.997	3.8
497.346	3.81
497.695	3.82
498.043	3.82
498.392	3.82
498.741	3.84
499.09	3.83
499.438	3.86
499.787	3.84
500.135	3.85
500.484	3.84
500.832	3.85
501.181	3.86
501.529	3.87
501.878	3.89
502.226	3.9
502.574	3.89
502.923	3.89
503.271	3.88
503.619	3.88
503.967	3.9
504.315	3.91
504.663	3.9
505.011	3.88
505.359	3.89
505.707	3.89
506.055	3.9
506.403	3.92
506.751	3.91
507.098	3.91
507.446	3.93
507.794	3.92
508.141	3.93
508.489	3.91
508.837	3.91
509.184	3.91
509.531	3.92
509.879	3.95
510.226	3.98
510.574	3.99
510.921	4.01
511.268	4
511.616	4
511.963	4.03
512.31	4.03
512.657	4.05
513.004	4.06
513.351	4.05
513.698	4.05
514.045	4.06
514.392	4.08
514.739	4.09
515.086	4.09
515.432	4.08
515.779	4.1
516.126	4.11
516.473	4.11
516.819	4.13
517.166	4.11
517.512	4.1
517.859	4.1
518.205	4.1
518.552	4.1
518.898	4.11
519.245	4.1
519.591	4.1
519.937	4.08
520.283	4.09
520.629	4.08
520.976	4.1
521.322	4.1
521.668	4.07
522.014	4.07
522.36	4.07
522.706	4.08
523.052	4.07
523.398	4.08
523.743	4.08
524.089	4.06
524.435	4.05
524.781	4.05
525.126	4.05
525.472	4.05
525.817	4.06
526.163	4.04
526.509	4.06
526.854	4.07
527.199	4.08
527.545	4.08
527.89	4.09
528.235	4.09
528.581	4.09
528.926	4.11
529.271	4.11
529.616	4.1
529.961	4.09
530.306	4.09
530.651	4.08
530.996	4.09
531.341	4.09
531.686	4.09
532.031	4.1
532.376	4.09
532.721	4.09
533.065	4.1
533.41	4.11
533.755	4.1
534.099	4.09
534.444	4.08
534.788	4.09
535.133	4.08
535.477	4.08
535.822	4.08
536.166	4.07
536.51	4.07
536.855	4.08
537.199	4.09
537.543	4.09
537.887	4.1
538.231	4.09
538.576	4.1
538.92	4.12
539.264	4.13
539.608	4.13
539.951	4.14
540.295	4.14
540.639	4.15
540.983	4.15
541.327	4.15
541.671	4.15
542.014	4.14
542.358	4.14
542.701	4.15
543.045	4.14
543.389	4.15
543.732	4.16
544.075	4.15
544.419	4.17
544.762	4.17
545.105	4.18
545.449	4.2
545.792	4.2
546.135	4.19
546.478	4.17
546.821	4.17
547.165	4.17
547.508	4.19
547.851	4.19
548.194	4.21
548.536	4.22
548.879	4.25
549.222	4.24
549.565	4.26
549.908	4.27
550.25	4.26
550.593	4.27
550.936	4.26
551.278	4.29
551.621	4.27
551.963	4.27
552.306	4.26
552.648	4.25
552.991	4.29
553.333	4.28
553.675	4.29
554.017	4.29
554.36	4.29
554.702	4.29
555.044	4.28
555.386	4.28
555.728	4.3
556.07	4.28
556.412	4.32
556.754	4.29
557.096	4.3
557.438	4.31
557.78	4.29
558.121	4.31
558.463	4.3
558.805	4.31
559.147	4.31
559.488	4.31
559.83	4.29
560.171	4.26
560.513	4.28
560.854	4.3
561.196	4.33
561.537	4.34
561.878	4.33
562.22	4.32
562.561	4.3
562.902	4.29
563.243	4.3
563.584	4.28
563.925	4.31
564.266	4.29
564.607	4.28
564.948	4.29
565.289	4.28
565.63	4.28
565.971	4.3
566.312	4.32
566.653	4.31
566.993	4.29
567.334	4.31
567.675	4.32
568.015	4.31
568.356	4.29
568.696	4.3
569.037	4.3
569.377	4.29
569.718	4.32
570.058	4.31
570.398	4.3
570.739	4.29
571.079	4.28
571.419	4.29
571.759	4.31
572.099	4.32
572.439	4.32
572.779	4.33
573.119	4.31
573.459	4.3
573.799	4.34
574.139	4.36
574.479	4.37
574.819	4.36
575.158	4.4
575.498	4.4
575.838	4.4
576.177	4.37
576.517	4.35
576.856	4.33
577.196	4.34
577.535	4.33
577.875	4.34
578.214	4.36
578.553	4.36
578.893	4.35
579.232	4.35
579.571	4.36
579.91	4.33
580.25	4.32
580.589	4.33
580.928	4.32
581.267	4.28
581.606	4.25
581.945	4.24
582.283	4.2
582.622	4.19
582.961	4.2
583.3	4.23
583.639	4.28
583.977	4.3
584.316	4.29
584.654	4.31
584.993	4.3
585.332	4.31
585.67	4.31
586.008	4.31
586.347	4.28
586.685	4.27
587.024	4.3
587.362	4.32
587.7	4.34
588.038	4.33
588.376	4.36
588.715	4.35
589.053	4.37
589.391	4.38
589.729	4.4
590.067	4.36
590.404	4.34
590.742	4.33
591.08	4.32
591.418	4.34
591.756	4.37
592.093	4.38
592.431	4.37
592.769	4.38
593.106	4.35
593.444	4.33
593.781	4.34
594.119	4.34
594.456	4.33
594.793	4.32
595.131	4.32
595.468	4.35
595.805	4.34
596.143	4.36
596.48	4.35
596.817	4.34
597.154	4.35
597.491	4.39
597.828	4.39
598.165	4.38
598.502	4.37
598.839	4.33
599.176	4.37
599.512	4.39
599.849	4.41
600.186	4.46
600.523	4.5
600.859	4.53
601.196	4.52
601.532	4.55
601.869	4.56
602.205	4.55
602.542	4.52
602.878	4.53
603.215	4.49
603.551	4.51
603.887	4.51
604.223	4.51
604.56	4.51
604.896	4.5
605.232	4.53
605.568	4.52
605.904	4.56
606.24	4.55
606.576	4.56
606.912	4.55
607.248	4.57
607.583	4.59
607.919	4.57
608.255	4.59
608.591	4.61
608.926	4.59
609.262	4.59
609.597	4.63
609.933	4.67
610.268	4.73
610.604	4.69
610.939	4.69
611.275	4.7
611.61	4.69
611.945	4.74
612.281	4.71
612.616	4.71
612.951	4.69
613.286	4.69
613.621	4.66
613.956	4.65
614.291	4.62
614.626	4.57
614.961	4.56
615.296	4.54
615.631	4.51
615.966	4.53
616.3	4.57
616.635	4.53
616.97	4.51
617.304	4.47
617.639	4.52
617.973	4.54
618.308	4.53
618.642	4.55
618.977	4.52
619.311	4.51
619.646	4.52
619.98	4.52
620.314	4.53
620.648	4.55
620.983	4.56
621.317	4.53
621.651	4.54
621.985	4.57
622.319	4.57
622.653	4.59
622.987	4.58
623.321	4.58
623.655	4.61
623.988	4.62
624.322	4.61
624.656	4.61
624.99	4.62
625.323	4.65
625.657	4.66
625.99	4.68
626.324	4.67
626.657	4.7
626.991	4.72
627.324	4.69
627.658	4.71
627.991	4.74
628.324	4.79
628.657	4.8
628.991	4.79
629.324	4.78
629.657	4.78
629.99	4.79
630.323	4.78
630.656	4.78
630.989	4.77
631.322	4.76
631.655	4.77
631.987	4.78
632.32	4.76
632.653	4.75
632.986	4.74
633.318	4.76
633.651	4.78
633.984	4.72
634.316	4.73
634.649	4.72
634.981	4.69
635.313	4.67
635.646	4.72
635.978	4.74
636.31	4.76
636.643	4.76
636.975	4.73
637.307	4.69
637.639	4.68
637.971	4.72
638.303	4.78
638.635	4.72
638.967	4.69
639.299	4.73
639.631	4.65
639.963	4.66
640.295	4.68
640.626	4.68
640.958	4.72
641.29	4.75
641.621	4.73
641.953	4.73
642.285	4.72
642.616	4.76
642.948	4.75
643.279	4.76
643.61	4.74
643.942	4.74
644.273	4.81
644.604	4.82
644.936	4.75
645.267	4.76
645.598	4.77
645.929	4.77
646.26	4.76
646.591	4.84
646.922	4.82
647.253	4.86
647.584	4.77
647.915	4.73
648.245	4.73
648.576	4.71
648.907	4.68
649.238	4.64
649.568	4.61
649.899	4.6
650.229	4.6
650.56	4.61
650.89	4.65
651.221	4.66
651.551	4.63
651.882	4.67
652.212	4.66
652.542	4.7
652.872	4.71
653.203	4.66
653.533	4.67
653.863	4.67
654.193	4.61
654.523	4.67
654.853	4.71
655.183	4.75
655.513	4.75
655.843	4.79
656.172	4.81
656.502	4.79
656.832	4.8
657.162	4.79
657.491	4.81
657.821	4.84
658.15	4.8
658.48	4.84
658.809	4.82
659.139	4.81
659.468	4.78
659.798	4.73
660.127	4.79
660.456	4.77
660.785	4.78
661.115	4.8
661.444	4.81
661.773	4.81
662.102	4.8
662.431	4.87
662.76	4.86
663.089	4.9
663.418	4.86
663.747	4.86
664.076	4.87
664.404	4.88
664.733	4.89
665.062	4.89
665.39	4.85
665.719	4.9
666.048	4.87
666.376	4.8
666.705	4.77
667.033	4.74
667.362	4.82
667.69	4.82
668.018	4.87
668.347	4.84
668.675	4.84
669.003	4.81
669.331	4.79
669.659	4.8
669.987	4.78
670.315	4.89
670.643	4.88
670.971	4.88
671.299	4.9
671.627	4.92
671.955	4.92
672.283	4.99
672.61	4.92
672.938	4.95
673.266	5.11
673.593	5.26
673.921	5.28
674.249	5.21
674.576	5.21
674.904	5.24
675.231	5.22
675.558	5.26
675.886	5.24
676.213	5.26
676.54	5.3
676.867	5.36
677.195	5.26
677.522	5.22
677.849	5.27
678.176	5.2
678.503	5.11
678.83	5.11
679.157	5.05
679.484	5.09
679.81	5.1
680.137	5.05
680.464	4.97
680.791	4.97
681.117	5.03
681.444	5.02
681.771	4.98
682.097	5.01
682.424	5
682.75	4.95
683.077	4.92
683.403	4.96
683.729	4.93
684.056	4.91
684.382	4.98
684.708	4.93
685.034	4.97
685.36	5.09
685.686	5.06
686.012	5.03
686.339	5.11
686.664	5.1
686.99	5.11
687.316	5.15
687.642	5.2
687.968	5.2
688.294	5.25
688.619	5.3
688.945	5.3
689.271	5.27
689.596	5.26
689.922	5.28
690.247	5.19
690.573	5.17
690.898	5.21
691.224	5.27
691.549	5.35
691.874	5.32
692.2	5.32
692.525	5.37
692.85	5.51
693.175	5.47
693.5	5.47
693.825	5.5
694.15	5.5
694.475	5.42
694.8	5.34
695.125	5.37
695.45	5.33
695.775	5.46
696.099	5.41
696.424	5.49
696.749	5.44
697.073	5.48
697.398	5.54
697.723	5.54
698.047	5.54
698.372	5.5
698.696	5.54
699.02	5.44
699.345	5.4
699.669	5.38
699.993	5.3
700.318	5.3
700.642	5.23
700.966	5.25
701.29	5.28
701.614	5.28
701.938	5.33
702.262	5.37
702.586	5.26
702.91	5.34
703.234	5.26
703.557	5.29
703.881	5.35
704.205	5.35
704.529	5.36
704.852	5.27
705.176	5.26
705.499	5.22
705.823	5.2
706.146	5.39
706.47	5.32
706.793	5.46
707.117	5.43
707.44	5.6
707.763	5.64
708.086	5.66
708.409	5.68
708.733	5.61
709.056	5.62
709.379	5.7
709.702	5.73
710.025	5.81
710.348	5.76
710.671	5.69
710.993	5.76
711.316	5.77
711.639	5.8
711.962	5.77
712.284	5.79
712.607	5.9
712.93	5.88
713.252	5.79
713.575	5.76
713.897	5.74
714.22	5.72
714.542	5.75
714.864	5.68
715.187	5.72
715.509	5.67
715.831	5.69
716.153	5.64
716.475	5.64
716.798	5.81
717.12	5.93
717.442	5.9
717.764	5.82
718.085	5.89
718.407	5.76
718.729	5.76
719.051	5.81
719.373	5.77
719.695	5.67
720.016	5.91
720.338	5.98
720.659	6.03
720.981	5.84
721.302	5.83
721.624	5.9
721.945	5.87
722.267	6.02
722.588	6.03
722.909	6.1
723.231	6.07
723.552	5.98
723.873	6.09
724.194	6.01
724.515	6.1
724.836	5.97
725.157	6.2
725.478	6.2
725.799	6.17
726.12	6.18
726.441	6.03
726.762	6.01
727.083	5.98
727.403	6.21
727.724	6.51
728.045	6.65
728.365	6.71
728.686	6.74
729.006	6.62
729.327	6.45
729.647	6.53
729.967	6.44
730.288	6.52
730.608	6.41
730.928	6.58
731.249	6.52
731.569	6.66
731.889	6.59
732.209	6.65
732.529	6.64
732.849	6.71
733.169	6.78
733.489	6.72
733.809	6.7
734.129	6.64
734.448	6.55
734.768	6.32
735.088	6.4
735.408	6.45
735.727	6.63
736.047	6.86
736.366	6.78
736.686	6.94
737.005	6.86
737.325	6.76
737.644	6.63
737.963	6.58
738.283	6.32
738.602	6.39
738.921	6.38
739.24	6.5
739.56	6.56
739.879	6.74
740.198	6.78
740.517	6.78
740.836	6.67
741.155	6.64
741.473	6.75
741.792	6.58
742.111	6.51
742.43	6.25
742.748	6.07
743.067	6.08
743.386	6.01
743.704	5.83
744.023	6.1
744.341	5.99
744.66	6.2
744.978	6.32
745.297	6.39
745.615	6.33
745.933	6.16
746.252	6.15
746.57	5.91
746.888	5.8
747.206	5.63
747.524	5.37
747.842	5.14
748.16	5.4
748.478	5.61
748.796	5.65
749.114	5.88
749.432	5.93
749.749	5.83
750.067	5.57
750.385	5.62
750.703	5.52
751.02	5.77
751.338	5.45
751.655	5.42
751.973	5.45
752.29	5.26
752.608	5.32
752.925	5.26
753.242	5.48
753.56	5.62
753.877	5.85
754.194	6.09
754.511	6.31
754.828	5.86
755.145	5.79
755.462	5.8
755.779	5.79
756.096	5.98
756.413	6.2
756.73	6.47
757.047	6.53
757.364	6.47
757.68	6.38
757.997	6.42
758.314	6.67
758.63	6.56
758.947	6.85
759.264	6.82
759.58	6.82
759.896	7.11
760.213	7.07
760.529	7.05
760.846	7.13
761.162	7.1
761.478	7.06
761.794	7.16
762.11	7.1
762.426	7.07
762.743	7.04
763.059	6.89
763.375	6.99
763.69	7.15
764.006	7.3
764.322	7.4
764.638	7.57
764.954	7.71
765.27	7.82
765.585	7.77
765.901	7.88
766.216	7.88
766.532	7.5
766.848	7.46
767.163	7.51
767.478	7.56
767.794	7.59
768.109	7.65
768.424	7.51
768.74	7.76
769.055	8.02
769.37	7.97
769.685	8.12
770	8.16
770.315	7.95
770.63	7.92
770.945	7.89
771.26	7.83
771.575	7.68
771.89	7.58
772.205	7.68
772.52	7.57
772.834	7.37
773.149	7.67
773.464	8.01
773.778	8.1
774.093	8.24
774.407	8.5
774.722	9
775.036	8.98
775.351	8.8
775.665	8.59
775.979	8.59
776.293	8.75
776.608	8.63
776.922	8.82
777.236	9.07
777.55	8.69
777.864	8.7
778.178	8.3
778.492	8.69
778.806	8.92
779.12	9.13
779.434	9.65
779.747	9.66
780.061	9.63
780.375	9.75
780.689	9.33
781.002	9.32
781.316	9.04
781.629	9.32
781.943	9.53
782.256	9.47
782.57	9.23
782.883	8.88
783.196	9.11
783.51	9.21
783.823	8.71
784.136	9.25
784.449	9.47
784.762	10.03
785.075	9.6
785.388	9.47
785.701	9.55
786.014	9.05
786.327	9.06
786.64	9.08
786.953	8.81
787.266	9.02
787.578	8.98
787.891	8.76
788.204	8.87
788.516	8.65
788.829	8.79
789.141	9.33
789.454	9.46
789.766	9.47
790.079	9.64
790.391	9.96
790.703	9.97
791.016	10.05
791.328	10.13
791.64	10.31
791.952	10.67
792.264	10.4
792.576	10.27
792.888	10.01
793.2	9.79
793.512	9.82
793.824	9.73
794.136	9.57
794.448	9.98
794.76	9.35
795.071	9.35
795.383	9.16
795.695	8.72
796.006	8.86
796.318	8.69
796.629	8.52
796.941	8.43
797.252	8.41
797.564	8.37
797.875	8.19
798.186	8.26
798.497	7.94
798.809	8.14
799.12	8.32
799.431	8.94
799.742	8.87
800.053	8.99
800.364	9.21
800.675	9.52
800.986	9.36
801.297	9.58
801.608	9.63
801.918	9.67
802.229	10.45
802.54	10.25
802.851	9.99
803.161	9.95
803.472	10.11
803.782	10.08
804.093	9.92
804.403	9.77
804.714	9.73
805.024	9.82
805.334	9.85
805.645	10.63
805.955	10.46
806.265	10.86
806.575	10.57
806.885	10.77
807.195	10.47
807.505	10.41
807.815	10.52
808.125	10.69
808.435	10.85
808.745	10.65
809.055	11.26
809.365	11.46
809.674	11.4
809.984	11.38
810.294	11.39
810.603	11.44
810.913	12.27
811.222	12.1
811.532	12.13
811.841	12.5
812.151	12.54
812.46	11.91
812.769	12.17
813.079	12.5
813.388	12.19
813.697	12.69
814.006	12.78
814.315	13.09
814.624	12.65
814.933	12.81
815.242	12.29
815.551	11.56
815.86	11.72
816.169	11.5
816.478	11.56
816.786	11.29
817.095	11.67
817.404	11.51
817.712	11.35
818.021	11.19
818.33	11.01
818.638	10.34
818.947	11.16
819.255	10.66
819.563	10.79
819.872	10.4
820.18	10.49
820.488	10.47
820.796	10.5
821.105	10.63
821.413	10.35
821.721	10.41
822.029	10.59
822.337	10.58
822.645	10.71
822.953	10.56
823.26	10.62
823.568	10.43
823.876	10.2
824.184	10.17
824.491	10.27
824.799	10.18
825.107	10.2
825.414	9.93
825.722	9.96
826.029	9.81
826.337	10.05
826.644	9.82
826.951	9.92
827.259	9.72
827.566	9.67
827.873	9.85
828.18	9.85
828.488	9.88
828.795	9.82
829.102	9.77
829.409	9.65
829.716	9.52
830.023	9.46
830.329	9.5
830.636	9.75
830.943	9.31
831.25	9.45
831.557	9.33
831.863	9.7
832.17	9.74
832.476	10.23
832.783	10.17
833.089	10.07
833.396	9.88
833.702	10.48
834.009	10.83
834.315	10.58
834.621	10.38
834.928	10.17
835.234	10.36
835.54	10.2
835.846	10.45
836.152	10.8
836.458	11.2
836.764	11.28
837.07	11.16
837.376	11.49
837.682	11.56
837.988	11.72
838.293	11.6
838.599	11.59
838.905	10.75
839.211	10.31
839.516	10.79
839.822	10.74
840.127	9.78
840.433	9.24
840.738	9.85
841.044	10.04
841.349	9.84
841.654	9.61
841.959	9.53
842.265	9.81
842.57	10.05
842.875	9.69
843.18	9.78
843.485	9.98
843.79	10.04
844.095	9.33
844.4	9.78
844.705	9.34
845.01	9.74
845.315	10.58
845.619	10.63
845.924	11.19
846.229	11.67
846.533	12.26
846.838	11.33
847.142	10.66
847.447	9.32
847.751	10.21
848.056	8.81
848.36	9.51
848.664	9.26
848.969	7.86
849.273	7.34
849.577	6.44
849.881	5.96
850.185	6.15
850.489	6.88
850.794	5.53
851.097	6.79
851.401	5.4
851.705	4.23
852.009	5.16
852.313	5.03
852.617	4.54
852.92	5.15
853.224	5.68
853.528	6.25
853.831	5.67
854.135	2.74
854.438	3.21
854.742	2.95
855.045	1.88
855.349	1.12
855.652	1.92
855.955	2.09
856.259	1.75
856.562	1.17
856.865	0.32
857.168	2.22
857.471	-0.55
857.774	0.99
858.077	2.15
858.38	0.99
858.683	-0.18
858.986	0.93
859.289	2.37
859.592	2.77
859.894	2.93
860.197	2.55
860.5	4.47
860.802	6.38
861.105	5.01
861.407	6.14
861.71	6.72
862.012	4.27
862.315	4.15
862.617	2.44
862.919	2.54
863.222	4.9
863.524	3.87
863.826	7.56
864.128	6.39
864.43	5.87
864.732	8.16
865.034	8.18
865.336	5.75
865.638	3.63
865.94	2.49
866.242	1.33
866.544	1.69
866.846	2.16
867.147	2.61
867.449	4.23
867.751	4.46
868.052	5.44
868.354	6.58
868.655	8.08
868.957	8.32
869.258	8.19
869.56	5.42
869.861	6.16
870.162	2.94
870.463	6.31
870.765	7.4
871.066	7.12
871.367	8.11
871.668	10.37
871.969	10.05
872.27	12.34
872.571	9.47
872.872	14.2
873.173	9.88
873.473	5.6
873.774	6.45
874.075	5.11
874.376	3.46
874.676	6.02
874.977	4.8
875.277	8.21
875.578	10.15
875.878	11.36
876.179	10.84
876.479	12.91
876.78	8.66
877.08	7.58
877.38	5.12
877.68	4.5
877.981	3.18
878.281	3.07
878.581	0.97
