Data from BU26944_Reflection_00003.txt Node
Date: Tue Nov 19 10:54:32 EST 2019
User: vgr7
Spectrometer: USB2G7710
Scans to average: 3
Trigger mode: 4
Integration Time (sec): 2.000000E-2
Electric dark correction enabled: true
Boxcar width: 10
XAxis mode: Wavelengths
Number of Pixels in Spectrum: 2048
>>>>>Begin Spectral Data<<<<<
177.721	-191.73
178.105	-85.84
178.488	-89.49
178.871	5.71
179.254	-80
179.636	68.88
180.019	-61.26
180.402	-525
180.785	11.76
181.168	45.61
181.55	106.44
181.933	103.86
182.316	60.77
182.698	10.93
183.081	-21.96
183.463	-44.18
183.846	-97.75
184.228	-58.1
184.611	1275.68
184.993	520
185.376	630.08
185.758	-460.24
186.14	-200
186.522	163.98
186.904	2.41
187.287	-5.21
187.669	35.2
188.051	12.72
188.433	23.73
188.815	30.07
189.197	27.27
189.579	28.47
189.961	25.15
190.342	24.52
190.724	13.35
191.106	-2.67
191.488	0.25
191.869	8.91
192.251	14.48
192.633	11.41
193.014	-0.13
193.396	-11.4
193.777	5.02
194.159	-3.57
194.54	-7.61
194.922	-16.55
195.303	-17.53
195.684	-21.99
196.065	-22.92
196.447	-21.22
196.828	-21.05
197.209	-20.44
197.59	-15.24
197.971	-11.4
198.352	3.69
198.733	12.32
199.114	31.54
199.495	27.12
199.876	15.81
200.257	6.85
200.638	6.64
201.018	8.47
201.399	17.7
201.78	19.14
202.16	32.31
202.541	20.01
202.922	29.91
203.302	33.86
203.683	27.96
204.063	36.59
204.444	30.74
204.824	30.77
205.204	29.44
205.585	27.35
205.965	6.6
206.345	1.35
206.725	-22.04
207.106	-31.21
207.486	-21.76
207.866	-37.85
208.246	-35.41
208.626	-52.1
209.006	-49.89
209.386	-49.88
209.766	-47.15
210.145	-63.79
210.525	-59.91
210.905	-44.41
211.285	-46.37
211.664	-14.99
212.044	-24.03
212.424	-24.48
212.803	-48.24
213.183	-23.89
213.562	-19.02
213.942	-0.52
214.321	-11.35
214.701	3.59
215.08	5.63
215.459	7.06
215.838	14.93
216.218	13.83
216.597	36.34
216.976	11.58
217.355	-4.71
217.734	-10.01
218.113	4.03
218.492	11.05
218.871	5.09
219.25	-5.5
219.629	-59.57
220.008	-58.67
220.387	-58.82
220.766	-15.11
221.144	-52.07
221.523	-82.13
221.902	-66.01
222.28	-19.77
222.659	-11.5
223.037	-37.75
223.416	-30.7
223.794	-25.54
224.173	-16.99
224.551	-13.38
224.929	-9.76
225.308	-17.53
225.686	-16.3
226.064	-15.03
226.442	-11.32
226.821	-8.81
227.199	-4.19
227.577	-4.48
227.955	-3.47
228.333	-2.95
228.711	-3.57
229.089	-5.83
229.467	-5.88
229.845	-4.92
230.222	-5.49
230.6	-4.8
230.978	-0.86
231.356	-3.64
231.733	-2.88
232.111	-2.15
232.488	-1.74
232.866	-0.06
233.243	2.08
233.621	2.82
233.998	3.32
234.376	2.65
234.753	1.09
235.13	0.07
235.508	1.63
235.885	1.64
236.262	0.3
236.639	0.09
237.016	0.93
237.393	1.21
237.77	2.08
238.147	1.51
238.524	0.65
238.901	1.4
239.278	2.54
239.655	3.08
240.032	2.11
240.409	2.44
240.785	2.28
241.162	2.54
241.539	2.27
241.915	1.87
242.292	2.27
242.668	3.01
243.045	3.55
243.421	3.52
243.798	3.6
244.174	3.7
244.551	3.85
244.927	3.93
245.303	4
245.679	3.61
246.056	3.65
246.432	4.12
246.808	3.85
247.184	3.81
247.56	3.77
247.936	4.09
248.312	3.99
248.688	3.99
249.064	3.77
249.44	3.8
249.815	3.95
250.191	3.68
250.567	3.42
250.943	3.32
251.318	3.2
251.694	2.69
252.069	2.75
252.445	2.51
252.82	2.38
253.196	2.47
253.571	2.98
253.947	2.94
254.322	2.76
254.697	2.88
255.073	3.03
255.448	2.62
255.823	2.38
256.198	2.29
256.573	2.28
256.948	2.47
257.323	2.64
257.698	2.72
258.073	2.75
258.448	2.83
258.823	2.72
259.198	2.91
259.573	3.09
259.948	3.06
260.322	3.09
260.697	3.17
261.072	3.09
261.446	2.89
261.821	2.95
262.195	2.85
262.57	2.98
262.944	2.81
263.319	2.82
263.693	2.89
264.067	2.87
264.442	2.95
264.816	2.9
265.19	2.93
265.564	2.72
265.938	2.73
266.313	2.56
266.687	2.64
267.061	2.58
267.435	2.7
267.809	2.71
268.183	2.82
268.556	2.69
268.93	2.66
269.304	2.58
269.678	2.61
270.051	2.66
270.425	2.6
270.799	2.52
271.172	2.64
271.546	2.64
271.919	2.73
272.293	2.59
272.666	2.5
273.04	2.37
273.413	2.37
273.787	2.41
274.16	2.33
274.533	2.48
274.906	2.4
275.279	2.23
275.653	2.32
276.026	2.13
276.399	2.17
276.772	2.42
277.145	2.62
277.518	2.54
277.891	2.46
278.263	2.31
278.636	2.59
279.009	2.6
279.382	2.64
279.755	2.47
280.127	2.49
280.5	2.7
280.872	2.63
281.245	2.61
281.617	2.63
281.99	2.72
282.362	2.47
282.735	2.51
283.107	2.62
283.479	2.62
283.852	2.68
284.224	2.77
284.596	2.55
284.968	2.39
285.34	2.32
285.713	2.35
286.085	2.44
286.457	2.36
286.829	2.26
287.201	2.16
287.572	2.22
287.944	2.32
288.316	2.16
288.688	2.27
289.06	2.38
289.431	2.47
289.803	2.64
290.175	2.75
290.546	2.7
290.918	2.61
291.289	2.53
291.661	2.55
292.032	2.51
292.403	2.52
292.775	2.76
293.146	2.83
293.517	2.75
293.889	2.71
294.26	2.74
294.631	2.78
295.002	2.88
295.373	2.89
295.744	2.78
296.115	2.97
296.486	2.89
296.857	3.02
297.228	2.94
297.599	2.78
297.97	2.76
298.34	2.83
298.711	2.91
299.082	2.9
299.452	2.88
299.823	2.88
300.194	2.9
300.564	2.78
300.935	2.89
301.305	2.92
301.676	2.78
302.046	2.64
302.416	2.62
302.787	2.61
303.157	2.6
303.527	2.7
303.897	2.57
304.267	2.47
304.637	2.33
305.008	2.33
305.378	2.42
305.748	2.46
306.117	2.41
306.487	2.45
306.857	2.48
307.227	2.52
307.597	2.5
307.967	2.55
308.336	2.54
308.706	2.38
309.076	2.52
309.445	2.77
309.815	2.92
310.184	2.89
310.554	2.9
310.923	2.78
311.293	2.69
311.662	2.71
312.031	2.88
312.401	2.78
312.77	2.71
313.139	2.78
313.508	2.76
313.877	2.82
314.246	2.7
314.616	2.7
314.985	2.73
315.353	2.81
315.722	2.75
316.091	2.8
316.46	2.87
316.829	2.66
317.198	2.62
317.567	2.54
317.935	2.71
318.304	2.68
318.672	2.77
319.041	2.81
319.41	2.73
319.778	2.6
320.147	2.66
320.515	2.92
320.883	2.79
321.252	2.86
321.62	2.86
321.988	2.9
322.357	2.94
322.725	2.92
323.093	2.84
323.461	2.89
323.829	2.82
324.197	2.82
324.565	2.84
324.933	2.73
325.301	2.65
325.669	2.57
326.037	2.51
326.405	2.47
326.772	2.48
327.14	2.5
327.508	2.55
327.875	2.61
328.243	2.43
328.61	2.51
328.978	2.43
329.346	2.22
329.713	2.3
330.08	2.32
330.448	2.21
330.815	2.3
331.182	2.3
331.55	2.32
331.917	2.28
332.284	2.3
332.651	2.35
333.018	2.38
333.385	2.42
333.752	2.5
334.119	2.67
334.486	2.72
334.853	2.76
335.22	2.77
335.587	2.68
335.954	2.67
336.32	2.59
336.687	2.65
337.054	2.76
337.42	2.72
337.787	2.63
338.153	2.68
338.52	2.63
338.886	2.48
339.253	2.37
339.619	2.52
339.986	2.48
340.352	2.4
340.718	2.42
341.084	2.38
341.451	2.39
341.817	2.36
342.183	2.29
342.549	2.25
342.915	2.26
343.281	2.26
343.647	2.31
344.013	2.3
344.379	2.3
344.745	2.19
345.11	2.21
345.476	2.27
345.842	2.16
346.208	2.13
346.573	2.27
346.939	2.34
347.304	2.2
347.67	2.31
348.035	2.35
348.401	2.36
348.766	2.27
349.132	2.29
349.497	2.32
349.862	2.35
350.228	2.35
350.593	2.32
350.958	2.49
351.323	2.38
351.688	2.42
352.053	2.37
352.418	2.5
352.783	2.53
353.148	2.53
353.513	2.56
353.878	2.55
354.243	2.45
354.608	2.52
354.972	2.5
355.337	2.49
355.702	2.55
356.066	2.52
356.431	2.58
356.795	2.6
357.16	2.57
357.524	2.57
357.889	2.64
358.253	2.57
358.618	2.49
358.982	2.59
359.346	2.6
359.71	2.63
360.075	2.64
360.439	2.64
360.803	2.67
361.167	2.66
361.531	2.66
361.895	2.67
362.259	2.68
362.623	2.68
362.987	2.63
363.351	2.61
363.714	2.6
364.078	2.62
364.442	2.53
364.806	2.55
365.169	2.54
365.533	2.49
365.896	2.58
366.26	2.57
366.623	2.54
366.987	2.51
367.35	2.54
367.714	2.54
368.077	2.62
368.44	2.6
368.803	2.61
369.167	2.61
369.53	2.71
369.893	2.66
370.256	2.72
370.619	2.76
370.982	2.71
371.345	2.71
371.708	2.75
372.071	2.79
372.434	2.73
372.797	2.79
373.159	2.77
373.522	2.71
373.885	2.69
374.247	2.69
374.61	2.74
374.973	2.72
375.335	2.7
375.698	2.59
376.06	2.59
376.423	2.64
376.785	2.65
377.147	2.59
377.51	2.58
377.872	2.56
378.234	2.56
378.596	2.56
378.958	2.56
379.321	2.48
379.683	2.52
380.045	2.58
380.407	2.53
380.769	2.56
381.13	2.58
381.492	2.62
381.854	2.61
382.216	2.6
382.578	2.61
382.939	2.59
383.301	2.6
383.663	2.62
384.024	2.6
384.386	2.57
384.747	2.56
385.109	2.58
385.47	2.57
385.832	2.56
386.193	2.57
386.554	2.6
386.916	2.64
387.277	2.66
387.638	2.67
387.999	2.64
388.36	2.66
388.721	2.69
389.082	2.68
389.443	2.68
389.804	2.67
390.165	2.63
390.526	2.67
390.887	2.67
391.248	2.66
391.609	2.68
391.969	2.71
392.33	2.73
392.691	2.72
393.051	2.74
393.412	2.76
393.772	2.76
394.133	2.75
394.493	2.76
394.854	2.74
395.214	2.71
395.574	2.72
395.935	2.69
396.295	2.65
396.655	2.62
397.015	2.61
397.376	2.62
397.736	2.62
398.096	2.61
398.456	2.6
398.816	2.59
399.176	2.6
399.535	2.58
399.895	2.6
400.255	2.6
400.615	2.6
400.975	2.61
401.334	2.64
401.694	2.64
402.054	2.63
402.413	2.64
402.773	2.61
403.132	2.62
403.492	2.63
403.851	2.66
404.211	2.7
404.57	2.74
404.929	2.72
405.288	2.74
405.648	2.72
406.007	2.72
406.366	2.71
406.725	2.69
407.084	2.71
407.443	2.71
407.802	2.71
408.161	2.72
408.52	2.71
408.879	2.71
409.238	2.73
409.596	2.75
409.955	2.75
410.314	2.75
410.673	2.8
411.031	2.81
411.39	2.83
411.748	2.81
412.107	2.79
412.465	2.78
412.824	2.76
413.182	2.76
413.54	2.75
413.899	2.75
414.257	2.74
414.615	2.72
414.974	2.72
415.332	2.75
415.69	2.75
416.048	2.75
416.406	2.75
416.764	2.75
417.122	2.73
417.48	2.74
417.838	2.75
418.195	2.72
418.553	2.72
418.911	2.72
419.269	2.73
419.626	2.73
419.984	2.73
420.342	2.75
420.699	2.75
421.057	2.78
421.414	2.79
421.772	2.8
422.129	2.81
422.486	2.81
422.844	2.8
423.201	2.8
423.558	2.82
423.915	2.82
424.273	2.82
424.63	2.82
424.987	2.82
425.344	2.83
425.701	2.83
426.058	2.85
426.415	2.83
426.772	2.82
427.128	2.83
427.485	2.83
427.842	2.84
428.199	2.87
428.555	2.86
428.912	2.87
429.269	2.85
429.625	2.83
429.982	2.83
430.338	2.83
430.695	2.83
431.051	2.8
431.407	2.79
431.764	2.79
432.12	2.82
432.476	2.81
432.832	2.81
433.189	2.8
433.545	2.77
433.901	2.78
434.257	2.76
434.613	2.75
434.969	2.76
435.325	2.75
435.681	2.73
436.036	2.73
436.392	2.71
436.748	2.73
437.104	2.76
437.459	2.74
437.815	2.74
438.171	2.73
438.526	2.72
438.882	2.73
439.237	2.72
439.593	2.71
439.948	2.71
440.304	2.71
440.659	2.73
441.014	2.74
441.369	2.75
441.725	2.76
442.08	2.77
442.435	2.76
442.79	2.76
443.145	2.76
443.5	2.74
443.855	2.75
444.21	2.73
444.565	2.73
444.92	2.74
445.275	2.74
445.629	2.74
445.984	2.74
446.339	2.74
446.693	2.76
447.048	2.75
447.403	2.75
447.757	2.74
448.112	2.74
448.466	2.74
448.82	2.73
449.175	2.73
449.529	2.74
449.883	2.76
450.238	2.75
450.592	2.76
450.946	2.75
451.3	2.76
451.654	2.78
452.008	2.77
452.362	2.77
452.716	2.77
453.07	2.76
453.424	2.76
453.778	2.77
454.132	2.73
454.486	2.75
454.839	2.75
455.193	2.76
455.547	2.77
455.9	2.77
456.254	2.76
456.607	2.77
456.961	2.77
457.314	2.76
457.668	2.77
458.021	2.76
458.375	2.78
458.728	2.79
459.081	2.8
459.434	2.78
459.787	2.77
460.141	2.78
460.494	2.79
460.847	2.79
461.2	2.79
461.553	2.81
461.906	2.82
462.259	2.81
462.611	2.81
462.964	2.8
463.317	2.8
463.67	2.82
464.022	2.82
464.375	2.82
464.728	2.81
465.08	2.8
465.433	2.81
465.785	2.81
466.138	2.83
466.49	2.82
466.843	2.83
467.195	2.87
467.547	2.86
467.899	2.86
468.252	2.87
468.604	2.88
468.956	2.87
469.308	2.85
469.66	2.86
470.012	2.86
470.364	2.87
470.716	2.86
471.068	2.86
471.42	2.87
471.772	2.88
472.123	2.91
472.475	2.92
472.827	2.93
473.178	2.9
473.53	2.9
473.882	2.9
474.233	2.89
474.585	2.88
474.936	2.88
475.288	2.9
475.639	2.89
475.99	2.87
476.342	2.87
476.693	2.88
477.044	2.87
477.395	2.87
477.746	2.85
478.097	2.86
478.448	2.85
478.8	2.85
479.15	2.84
479.501	2.83
479.852	2.84
480.203	2.84
480.554	2.87
480.905	2.87
481.255	2.88
481.606	2.91
481.957	2.91
482.307	2.91
482.658	2.92
483.009	2.92
483.359	2.93
483.709	2.94
484.06	2.95
484.41	2.96
484.761	2.97
485.111	2.98
485.461	2.98
485.811	2.98
486.162	2.99
486.512	3
486.862	3.01
487.212	3
487.562	3
487.912	2.99
488.262	2.99
488.612	2.99
488.961	2.98
489.311	2.99
489.661	2.99
490.011	2.99
490.36	2.98
490.71	2.98
491.06	2.97
491.409	2.96
491.759	2.95
492.108	2.94
492.458	2.94
492.807	2.94
493.157	2.95
493.506	2.95
493.855	2.94
494.204	2.93
494.554	2.94
494.903	2.95
495.252	2.95
495.601	2.96
495.95	2.94
496.299	2.94
496.648	2.94
496.997	2.94
497.346	2.93
497.695	2.96
498.043	2.97
498.392	3
498.741	3
499.09	3.01
499.438	3.04
499.787	3.03
500.135	3.02
500.484	3.02
500.832	3.02
501.181	3.02
501.529	3.02
501.878	3.02
502.226	3.02
502.574	3.02
502.923	3.02
503.271	3.02
503.619	3.03
503.967	3.01
504.315	3
504.663	3.01
505.011	3.01
505.359	3.01
505.707	2.99
506.055	2.99
506.403	3
506.751	2.99
507.098	3
507.446	3.02
507.794	3.02
508.141	3.03
508.489	3.03
508.837	3.03
509.184	3.02
509.531	3.02
509.879	3.01
510.226	3.01
510.574	3.03
510.921	3.02
511.268	3.04
511.616	3.07
511.963	3.06
512.31	3.05
512.657	3.05
513.004	3.04
513.351	3.06
513.698	3.05
514.045	3.04
514.392	3.04
514.739	3.06
515.086	3.08
515.432	3.08
515.779	3.08
516.126	3.1
516.473	3.08
516.819	3.11
517.166	3.12
517.512	3.12
517.859	3.13
518.205	3.12
518.552	3.12
518.898	3.1
519.245	3.11
519.591	3.12
519.937	3.12
520.283	3.14
520.629	3.13
520.976	3.12
521.322	3.12
521.668	3.11
522.014	3.1
522.36	3.1
522.706	3.09
523.052	3.11
523.398	3.11
523.743	3.13
524.089	3.11
524.435	3.12
524.781	3.13
525.126	3.14
525.472	3.15
525.817	3.15
526.163	3.16
526.509	3.16
526.854	3.16
527.199	3.17
527.545	3.18
527.89	3.18
528.235	3.19
528.581	3.2
528.926	3.22
529.271	3.22
529.616	3.22
529.961	3.22
530.306	3.22
530.651	3.22
530.996	3.23
531.341	3.24
531.686	3.25
532.031	3.25
532.376	3.25
532.721	3.25
533.065	3.26
533.41	3.26
533.755	3.25
534.099	3.24
534.444	3.24
534.788	3.22
535.133	3.21
535.477	3.22
535.822	3.21
536.166	3.21
536.51	3.21
536.855	3.2
537.199	3.19
537.543	3.19
537.887	3.19
538.231	3.18
538.576	3.18
538.92	3.17
539.264	3.16
539.608	3.16
539.951	3.16
540.295	3.15
540.639	3.17
540.983	3.16
541.327	3.18
541.671	3.18
542.014	3.2
542.358	3.21
542.701	3.21
543.045	3.22
543.389	3.22
543.732	3.22
544.075	3.22
544.419	3.24
544.762	3.23
545.105	3.23
545.449	3.25
545.792	3.24
546.135	3.25
546.478	3.25
546.821	3.26
547.165	3.25
547.508	3.27
547.851	3.25
548.194	3.27
548.536	3.27
548.879	3.27
549.222	3.26
549.565	3.24
549.908	3.23
550.25	3.22
550.593	3.21
550.936	3.21
551.278	3.17
551.621	3.17
551.963	3.17
552.306	3.17
552.648	3.15
552.991	3.14
553.333	3.12
553.675	3.11
554.017	3.09
554.36	3.09
554.702	3.08
555.044	3.11
555.386	3.12
555.728	3.12
556.07	3.1
556.412	3.13
556.754	3.1
557.096	3.1
557.438	3.1
557.78	3.1
558.121	3.12
558.463	3.14
558.805	3.14
559.147	3.15
559.488	3.14
559.83	3.15
560.171	3.16
560.513	3.18
560.854	3.17
561.196	3.2
561.537	3.23
561.878	3.23
562.22	3.21
562.561	3.18
562.902	3.15
563.243	3.14
563.584	3.13
563.925	3.16
564.266	3.18
564.607	3.21
564.948	3.21
565.289	3.21
565.63	3.19
565.971	3.2
566.312	3.22
566.653	3.23
566.993	3.22
567.334	3.24
567.675	3.24
568.015	3.25
568.356	3.25
568.696	3.24
569.037	3.23
569.377	3.23
569.718	3.25
570.058	3.27
570.398	3.28
570.739	3.26
571.079	3.24
571.419	3.22
571.759	3.22
572.099	3.21
572.439	3.19
572.779	3.2
573.119	3.19
573.459	3.17
573.799	3.14
574.139	3.15
574.479	3.12
574.819	3.13
575.158	3.12
575.498	3.1
575.838	3.11
576.177	3.14
576.517	3.15
576.856	3.15
577.196	3.2
577.535	3.2
577.875	3.19
578.214	3.23
578.553	3.23
578.893	3.22
579.232	3.25
579.571	3.29
579.91	3.31
580.25	3.31
580.589	3.33
580.928	3.36
581.267	3.35
581.606	3.35
581.945	3.36
582.283	3.33
582.622	3.33
582.961	3.34
583.3	3.31
583.639	3.31
583.977	3.31
584.316	3.26
584.654	3.26
584.993	3.29
585.332	3.28
585.67	3.3
586.008	3.29
586.347	3.29
586.685	3.22
587.024	3.23
587.362	3.25
587.7	3.26
588.038	3.27
588.376	3.27
588.715	3.3
589.053	3.28
589.391	3.32
589.729	3.33
590.067	3.32
590.404	3.32
590.742	3.29
591.08	3.34
591.418	3.35
591.756	3.36
592.093	3.35
592.431	3.38
592.769	3.37
593.106	3.35
593.444	3.35
593.781	3.39
594.119	3.36
594.456	3.36
594.793	3.34
595.131	3.33
595.468	3.4
595.805	3.39
596.143	3.4
596.48	3.43
596.817	3.43
597.154	3.44
597.491	3.44
597.828	3.48
598.165	3.44
598.502	3.46
598.839	3.46
599.176	3.45
599.512	3.42
599.849	3.42
600.186	3.45
600.523	3.42
600.859	3.45
601.196	3.46
601.532	3.47
601.869	3.5
602.205	3.5
602.542	3.47
602.878	3.49
603.215	3.48
603.551	3.42
603.887	3.47
604.223	3.43
604.56	3.44
604.896	3.41
605.232	3.41
605.568	3.4
605.904	3.36
606.24	3.41
606.576	3.44
606.912	3.41
607.248	3.42
607.583	3.45
607.919	3.41
608.255	3.43
608.591	3.45
608.926	3.41
609.262	3.44
609.597	3.45
609.933	3.43
610.268	3.45
610.604	3.45
610.939	3.41
611.275	3.46
611.61	3.45
611.945	3.45
612.281	3.47
612.616	3.45
612.951	3.49
613.286	3.47
613.621	3.46
613.956	3.5
614.291	3.53
614.626	3.49
614.961	3.55
615.296	3.55
615.631	3.52
615.966	3.52
616.3	3.53
616.635	3.49
616.97	3.46
617.304	3.48
617.639	3.55
617.973	3.51
618.308	3.52
618.642	3.53
618.977	3.54
619.311	3.56
619.646	3.6
619.98	3.56
620.314	3.55
620.648	3.55
620.983	3.55
621.317	3.54
621.651	3.55
621.985	3.53
622.319	3.56
622.653	3.55
622.987	3.53
623.321	3.5
623.655	3.54
623.988	3.54
624.322	3.54
624.656	3.51
624.99	3.5
625.323	3.51
625.657	3.51
625.99	3.51
626.324	3.45
626.657	3.44
626.991	3.5
627.324	3.51
627.658	3.49
627.991	3.5
628.324	3.48
628.657	3.48
628.991	3.49
629.324	3.48
629.657	3.45
629.99	3.54
630.323	3.53
630.656	3.48
630.989	3.51
631.322	3.49
631.655	3.5
631.987	3.54
632.32	3.54
632.653	3.5
632.986	3.51
633.318	3.53
633.651	3.54
633.984	3.53
634.316	3.57
634.649	3.57
634.981	3.55
635.313	3.55
635.646	3.58
635.978	3.56
636.31	3.5
636.643	3.52
636.975	3.49
637.307	3.53
637.639	3.58
637.971	3.59
638.303	3.57
638.635	3.58
638.967	3.61
639.299	3.58
639.631	3.64
639.963	3.61
640.295	3.61
640.626	3.6
640.958	3.59
641.29	3.55
641.621	3.57
641.953	3.59
642.285	3.57
642.616	3.6
642.948	3.62
643.279	3.61
643.61	3.64
643.942	3.64
644.273	3.69
644.604	3.69
644.936	3.68
645.267	3.75
645.598	3.78
645.929	3.71
646.26	3.72
646.591	3.71
646.922	3.73
647.253	3.73
647.584	3.76
647.915	3.74
648.245	3.75
648.576	3.77
648.907	3.72
649.238	3.69
649.568	3.63
649.899	3.65
650.229	3.73
650.56	3.71
650.89	3.75
651.221	3.68
651.551	3.7
651.882	3.65
652.212	3.62
652.542	3.61
652.872	3.61
653.203	3.58
653.533	3.64
653.863	3.64
654.193	3.64
654.523	3.57
654.853	3.6
655.183	3.59
655.513	3.59
655.843	3.65
656.172	3.72
656.502	3.75
656.832	3.67
657.162	3.64
657.491	3.67
657.821	3.6
658.15	3.61
658.48	3.59
658.809	3.61
659.139	3.6
659.468	3.53
659.798	3.6
660.127	3.62
660.456	3.55
660.785	3.54
661.115	3.5
661.444	3.58
661.773	3.57
662.102	3.55
662.431	3.56
662.76	3.54
663.089	3.57
663.418	3.55
663.747	3.59
664.076	3.67
664.404	3.71
664.733	3.75
665.062	3.8
665.39	3.78
665.719	3.8
666.048	3.74
666.376	3.77
666.705	3.7
667.033	3.71
667.362	3.66
667.69	3.67
668.018	3.74
668.347	3.66
668.675	3.67
669.003	3.63
669.331	3.61
669.659	3.61
669.987	3.52
670.315	3.51
670.643	3.49
670.971	3.42
671.299	3.29
671.627	3.27
671.955	3.18
672.283	3.22
672.61	3.22
672.938	3.26
673.266	3.34
673.593	3.4
673.921	3.43
674.249	3.5
674.576	3.53
674.904	3.52
675.231	3.64
675.558	3.61
675.886	3.66
676.213	3.64
676.54	3.64
676.867	3.66
677.195	3.76
677.522	3.72
677.849	3.7
678.176	3.78
678.503	3.75
678.83	3.76
679.157	3.79
679.484	3.69
679.81	3.71
680.137	3.74
680.464	3.69
680.791	3.67
681.117	3.66
681.444	3.63
681.771	3.63
682.097	3.53
682.424	3.57
682.75	3.61
683.077	3.63
683.403	3.63
683.729	3.66
684.056	3.57
684.382	3.63
684.708	3.66
685.034	3.62
685.36	3.62
685.686	3.63
686.012	3.64
686.339	3.79
686.664	3.74
686.99	3.6
687.316	3.62
687.642	3.6
687.968	3.67
688.294	3.7
688.619	3.73
688.945	3.8
689.271	3.81
689.596	3.77
689.922	3.78
690.247	3.78
690.573	3.76
690.898	3.8
691.224	3.89
691.549	3.89
691.874	3.91
692.2	4.04
692.525	4.03
692.85	4.07
693.175	4.01
693.5	4.02
693.825	4.18
694.15	4.23
694.475	4.28
694.8	4.23
695.125	4.2
695.45	4.1
695.775	4.07
696.099	4.03
696.424	4.02
696.749	4.04
697.073	4.05
697.398	4.05
697.723	4.11
698.047	4.07
698.372	4.06
698.696	4.07
699.02	4.02
699.345	4.02
699.669	3.93
699.993	3.99
700.318	4.08
700.642	4.07
700.966	4.08
701.29	4.08
701.614	3.99
701.938	4.02
702.262	4.08
702.586	4.15
702.91	4.19
703.234	4.1
703.557	4.13
703.881	4.11
704.205	4.2
704.529	4.14
704.852	4.14
705.176	4.18
705.499	4.26
705.823	4.29
706.146	4.37
706.47	4.5
706.793	4.57
707.117	4.38
707.44	4.31
707.763	4.31
708.086	4.24
708.409	4.31
708.733	4.37
709.056	4.36
709.379	4.43
709.702	4.43
710.025	4.59
710.348	4.46
710.671	4.49
710.993	4.45
711.316	4.45
711.639	4.41
711.962	4.41
712.284	4.31
712.607	4.29
712.93	4.23
713.252	4.14
713.575	4.04
713.897	4.15
714.22	4.1
714.542	4.07
714.864	4.08
715.187	4.04
715.509	3.94
715.831	3.9
716.153	3.99
716.475	4.01
716.798	4.03
717.12	4.12
717.442	4.19
717.764	4.11
718.085	4.19
718.407	4.08
718.729	4.11
719.051	4.13
719.373	4.24
719.695	4.29
720.016	4.31
720.338	4.32
720.659	4.45
720.981	4.49
721.302	4.66
721.624	4.78
721.945	4.84
722.267	5.02
722.588	5.05
722.909	4.9
723.231	4.81
723.552	4.68
723.873	4.61
724.194	4.59
724.515	4.69
724.836	4.46
725.157	4.67
725.478	4.52
725.799	4.58
726.12	4.37
726.441	4.11
726.762	4.18
727.083	4.24
727.403	4.07
727.724	4.22
728.045	4
728.365	3.94
728.686	4.04
729.006	3.92
729.327	3.95
729.647	3.83
729.967	3.95
730.288	4
730.608	4.01
730.928	4.06
731.249	4.17
731.569	4.29
731.889	4.22
732.209	4.37
732.529	4.28
732.849	4.42
733.169	4.69
733.489	4.61
733.809	4.64
734.129	4.8
734.448	4.68
734.768	4.64
735.088	4.6
735.408	4.46
735.727	4.55
736.047	4.62
736.366	4.61
736.686	4.34
737.005	4.41
737.325	4.39
737.644	4.29
737.963	4.2
738.283	4.09
738.602	4.14
738.921	4.21
739.24	4.35
739.56	4.26
739.879	4.14
740.198	4.11
740.517	4
740.836	3.9
741.155	4.02
741.473	4.21
741.792	4.25
742.111	4.57
742.43	4.57
742.748	4.53
743.067	4.6
743.386	4.63
743.704	4.5
744.023	4.56
744.341	4.53
744.66	4.41
744.978	4.6
745.297	4.54
745.615	4.46
745.933	4.55
746.252	4.61
746.57	4.81
746.888	4.86
747.206	4.75
747.524	4.56
747.842	4.46
748.16	4.46
748.478	4.38
748.796	4.15
749.114	4.13
749.432	4
749.749	3.97
750.067	4.33
750.385	4.52
750.703	4.54
751.02	4.55
751.338	4.5
751.655	4.55
751.973	4.53
752.29	4.34
752.608	4.05
752.925	4.03
753.242	3.9
753.56	3.75
753.877	3.71
754.194	4.06
754.511	4.05
754.828	3.99
755.145	4.15
755.462	4.3
755.779	4.06
756.096	4.24
756.413	4.23
756.73	4.34
757.047	4.19
757.364	4.17
757.68	4.26
757.997	4.5
758.314	4.41
758.63	4.55
758.947	4.84
759.264	4.94
759.58	5.26
759.896	5.36
760.213	5.46
760.529	5.74
760.846	5.76
761.162	5.56
761.478	5.34
761.794	5.47
762.11	5.37
762.426	5.57
762.743	5.44
763.059	5.5
763.375	5.26
763.69	5.41
764.006	5.42
764.322	5.37
764.638	5.5
764.954	5.69
765.27	5.87
765.585	5.87
765.901	5.72
766.216	5.68
766.532	5.55
766.848	5.72
767.163	5.67
767.478	5.55
767.794	5.67
768.109	5.9
768.424	5.7
768.74	5.81
769.055	5.93
769.37	5.96
769.685	6.09
770	6.08
770.315	6.11
770.63	5.96
770.945	6.01
771.26	5.6
771.575	5.17
771.89	4.66
772.205	4.66
772.52	4.96
772.834	4.76
773.149	4.83
773.464	4.65
773.778	4.71
774.093	4.72
774.407	5.07
774.722	5.03
775.036	5.25
775.351	5.59
775.665	5.32
775.979	5.37
776.293	5.31
776.608	5.44
776.922	5.37
777.236	5.54
777.55	5.53
777.864	5.37
778.178	5.34
778.492	5.49
778.806	5.53
779.12	5.37
779.434	5.55
779.747	5.53
780.061	5.51
780.375	5.13
780.689	5.01
781.002	4.9
781.316	4.83
781.629	4.73
781.943	4.41
782.256	4.46
782.57	4.65
782.883	4.59
783.196	4.76
783.51	4.51
783.823	4.64
784.136	4.48
784.449	4.75
784.762	4.87
785.075	5.12
785.388	5.26
785.701	5.17
786.014	4.95
786.327	5.21
786.64	5.48
786.953	5.74
787.266	5.9
787.578	5.83
787.891	6.13
788.204	6.34
788.516	6.22
788.829	6.09
789.141	6.38
789.454	6.22
789.766	6.2
790.079	6.33
790.391	6.05
790.703	6.5
791.016	6.8
791.328	6.98
791.64	6.91
791.952	6.71
792.264	6.75
792.576	6.84
792.888	6.51
793.2	6.26
793.512	5.79
793.824	5.83
794.136	5.79
794.448	5.71
794.76	5.65
795.071	5.43
795.383	5.44
795.695	5.01
796.006	5.09
796.318	4.88
796.629	4.8
796.941	5.38
797.252	5.08
797.564	5.19
797.875	4.99
798.186	4.93
798.497	4.87
798.809	5.07
799.12	4.83
799.431	5.2
799.742	5.02
800.053	5.56
800.364	5.81
800.675	5.83
800.986	5.77
801.297	5.51
801.608	5.55
801.918	5.68
802.229	5.78
802.54	5.83
802.851	6.16
803.161	6.57
803.472	6.24
803.782	6.37
804.093	5.77
804.403	6.01
804.714	6.26
805.024	6.39
805.334	6.33
805.645	6.59
805.955	6.02
806.265	6.62
806.575	6.65
806.885	6.49
807.195	6.5
807.505	6.34
807.815	6.62
808.125	7.47
808.435	7.81
808.745	8.13
809.055	8.4
809.365	8.52
809.674	8.26
809.984	8.23
810.294	8.4
810.603	8.53
810.913	8.73
811.222	8.31
811.532	8.31
811.841	9.06
812.151	8.79
812.46	9.96
812.769	9.51
813.079	9.66
813.388	9.91
813.697	9.62
814.006	9.96
814.315	9.11
814.624	8.24
814.933	8.01
815.242	7.62
815.551	7.59
815.86	7.65
816.169	7.69
816.478	7.63
816.786	7.32
817.095	7.6
817.404	7.1
817.712	7.58
818.021	7.17
818.33	6.54
818.638	7.32
818.947	6.55
819.255	6.55
819.563	6.37
819.872	6.16
820.18	6.25
820.488	6.38
820.796	6.66
821.105	6.69
821.413	6.89
821.721	6.87
822.029	6.81
822.337	6.76
822.645	6.83
822.953	6.88
823.26	6.97
823.568	6.91
823.876	6.97
824.184	6.9
824.491	6.94
824.799	6.91
825.107	6.83
825.414	6.79
825.722	6.82
826.029	6.89
826.337	6.85
826.644	6.85
826.951	6.74
827.259	6.83
827.566	6.95
827.873	6.81
828.18	6.85
828.488	6.81
828.795	6.73
829.102	6.65
829.409	6.36
829.716	6.21
830.023	6.31
830.329	6.35
830.636	6.37
830.943	6.42
831.25	6.8
831.557	6.44
831.863	6.73
832.17	6.65
832.476	6.58
832.783	6.63
833.089	6.83
833.396	7.08
833.702	7.1
834.009	6.83
834.315	6.95
834.621	6.86
834.928	6.81
835.234	7.27
835.54	7.29
835.846	7.95
836.152	7.78
836.458	7.96
836.764	8.12
837.07	7.71
837.376	7.89
837.682	6.98
837.988	7.04
838.293	7.4
838.599	7.69
838.905	8.07
839.211	8.06
839.516	7.91
839.822	8.24
840.127	8.04
840.433	8.02
840.738	7.11
841.044	7.08
841.349	7.38
841.654	6.55
841.959	6.58
842.265	5.94
842.57	6.42
842.875	5.39
843.18	5.3
843.485	5.58
843.79	4.97
844.095	5.68
844.4	6.54
844.705	5.34
845.01	5.28
845.315	4.93
845.619	6.83
845.924	7.42
846.229	6.27
846.533	5.51
846.838	5.79
847.142	7.05
847.447	7.35
847.751	6.51
848.056	5.95
848.36	5.9
848.664	6.25
848.969	5.29
849.273	5.41
849.577	3.76
849.881	3.43
850.185	2.29
850.489	2.25
850.794	2.12
851.097	2.64
851.401	2.58
851.705	1.66
852.009	-1.19
852.313	-2.28
852.617	-3.63
852.92	-2.37
853.224	-1.32
853.528	-3.01
853.831	-3.66
854.135	-3.86
854.438	-2.31
854.742	-3.19
855.045	-3.8
855.349	-2.88
855.652	-1.79
855.955	0.29
856.259	3.35
856.562	4.61
856.865	3.48
857.168	2.56
857.471	4.6
857.774	5.27
858.077	3.9
858.38	5.62
858.683	6.3
858.986	9.56
859.289	9.34
859.592	8.8
859.894	10.77
860.197	11.76
860.5	14.06
860.802	13.68
861.105	14.76
861.407	15.14
861.71	14.41
862.012	13.28
862.315	12.4
862.617	9.97
862.919	10.29
863.222	13.64
863.524	14.52
863.826	11.5
864.128	10.1
864.43	11.73
864.732	10.71
865.034	10.76
865.336	9.68
865.638	8.92
865.94	8.37
866.242	8.11
866.544	8.67
866.846	6.97
867.147	7.77
867.449	6.48
867.751	4.95
868.052	5.78
868.354	7.26
868.655	7.54
868.957	6.67
869.258	6.76
869.56	4.77
869.861	4.33
870.162	5.83
870.463	6.36
870.765	7.17
871.066	5.5
871.367	3.8
871.668	3.06
871.969	2.51
872.27	2.93
872.571	3.93
872.872	2.22
873.173	2.41
873.473	0.31
873.774	2.73
874.075	6.67
874.376	6.06
874.676	5.38
874.977	7.25
875.277	7.05
875.578	7.39
875.878	8.2
876.179	8.2
876.479	7.42
876.78	7.23
877.08	6.54
877.38	8.43
877.68	10.45
877.981	11.42
878.281	13.57
878.581	13.29
