Data from BU26941_Reflection_00011.txt Node
Date: Tue Nov 19 11:03:42 EST 2019
User: vgr7
Spectrometer: USB2G7710
Scans to average: 3
Trigger mode: 4
Integration Time (sec): 2.000000E-2
Electric dark correction enabled: true
Boxcar width: 10
XAxis mode: Wavelengths
Number of Pixels in Spectrum: 2048
>>>>>Begin Spectral Data<<<<<
177.721	11.12
178.105	-9.14
178.488	-10.82
178.871	77.03
179.254	167.21
179.636	165.92
180.019	83.03
180.402	360
180.785	22.64
181.168	14100
181.55	-328.93
181.933	-1047.89
182.316	374.44
182.698	451.24
183.081	2059.46
183.463	-495.81
183.846	-559.66
184.228	844.9
184.611	-163.07
184.993	-125.37
185.376	114.45
185.758	179.85
186.14	167.09
186.522	103.9
186.904	157.89
187.287	199.42
187.669	213.91
188.051	216.9
188.433	265.74
188.815	192.08
189.197	200.26
189.579	464.56
189.961	506.52
190.342	406.24
190.724	427.68
191.106	430.19
191.488	391.77
191.869	262.57
192.251	255.3
192.633	456.76
193.014	532.01
193.396	464.02
193.777	270.19
194.159	258.93
194.54	270.19
194.922	600
195.303	616.22
195.684	395.22
196.065	316.09
196.447	226.71
196.828	222.15
197.209	311.67
197.59	157.72
197.971	116.8
198.352	135.21
198.733	105.66
199.114	93.35
199.495	62.13
199.876	52.24
200.257	82.04
200.638	38.56
201.018	30.03
201.399	46.6
201.78	40.9
202.16	50.88
202.541	45.19
202.922	23.81
203.302	36.39
203.683	2.55
204.063	15.08
204.444	-46.99
204.824	-70.87
205.204	-63.06
205.585	-101.3
205.965	-120.36
206.345	-263.81
206.725	-107.4
207.106	-78.3
207.486	-52.17
207.866	18.71
208.246	22.4
208.626	-2.54
209.006	8.98
209.386	-29.33
209.766	-48.98
210.145	18.89
210.525	80.6
210.905	87.08
211.285	184.86
211.664	394.03
212.044	276.17
212.424	313.6
212.803	369.23
213.183	257.14
213.562	331.34
213.942	337.4
214.321	387.54
214.701	884.67
215.08	1408.99
215.459	407.07
215.838	303.42
216.218	112.32
216.597	734.83
216.976	-324.81
217.355	-50400
217.734	183.73
218.113	362.38
218.492	526.83
218.871	159.18
219.25	-6.27
219.629	-94.88
220.008	-102.13
220.387	33.03
220.766	10.77
221.144	27.24
221.523	38.45
221.902	23.52
222.28	34.58
222.659	73.54
223.037	55.22
223.416	48.94
223.794	68.95
224.173	79.28
224.551	55.08
224.929	46.29
225.308	38.5
225.686	39.28
226.064	23.17
226.442	20.78
226.821	20.86
227.199	20.97
227.577	20.35
227.955	15.83
228.333	8.65
228.711	10.04
229.089	11.8
229.467	11.63
229.845	11.92
230.222	12.16
230.6	9.69
230.978	11.37
231.356	11.61
231.733	8.79
232.111	7.53
232.488	8.67
232.866	9.07
233.243	10.73
233.621	9.13
233.998	11.77
234.376	13.19
234.753	11.31
235.13	11.41
235.508	12.77
235.885	13.5
236.262	15.43
236.639	14.81
237.016	12.96
237.393	13.1
237.77	13.16
238.147	11.83
238.524	10.52
238.901	9.66
239.278	9.84
239.655	8.89
240.032	8.77
240.409	8.16
240.785	8.43
241.162	8.54
241.539	8.44
241.915	7.96
242.292	7.8
242.668	7.65
243.045	7.71
243.421	7.03
243.798	6.74
244.174	6.17
244.551	5.65
244.927	5.65
245.303	5.4
245.679	5.06
246.056	4.79
246.432	4.54
246.808	4.74
247.184	4.66
247.56	4.59
247.936	4.63
248.312	4.79
248.688	4.65
249.064	4.45
249.44	4.55
249.815	4.57
250.191	4.31
250.567	4.34
250.943	4.14
251.318	4.03
251.694	4.13
252.069	4.01
252.445	4.23
252.82	4.57
253.196	4.74
253.571	4.77
253.947	4.81
254.322	4.93
254.697	4.49
255.073	4.51
255.448	4.3
255.823	4.17
256.198	3.99
256.573	3.69
256.948	3.67
257.323	3.59
257.698	3.6
258.073	3.65
258.448	3.46
258.823	3.35
259.198	3.53
259.573	3.2
259.948	3.4
260.322	3.27
260.697	3.07
261.072	3.07
261.446	3.08
261.821	3.15
262.195	3.25
262.57	3.33
262.944	3.32
263.319	3.42
263.693	3.5
264.067	3.41
264.442	3.46
264.816	3.49
265.19	3.44
265.564	3.43
265.938	3.4
266.313	3.46
266.687	3.41
267.061	3.31
267.435	3.69
267.809	3.33
268.183	3.36
268.556	3.42
268.93	3.62
269.304	3.65
269.678	3.64
270.051	3.72
270.425	3.65
270.799	3.34
271.172	3.44
271.546	3.48
271.919	3.38
272.293	3.46
272.666	3.55
273.04	3.59
273.413	3.52
273.787	3.53
274.16	3.47
274.533	3.49
274.906	3.61
275.279	3.38
275.653	3.6
276.026	3.68
276.399	3.57
276.772	3.36
277.145	3.26
277.518	3.15
277.891	3.11
278.263	3.31
278.636	3.76
279.009	3.75
279.382	3.6
279.755	3.72
280.127	3.79
280.5	3.68
280.872	3.63
281.245	3.7
281.617	3.77
281.99	3.81
282.362	3.79
282.735	3.81
283.107	3.84
283.479	3.78
283.852	3.69
284.224	3.81
284.596	3.63
284.968	3.62
285.34	3.65
285.713	3.51
286.085	3.33
286.457	3.17
286.829	3.19
287.201	3.24
287.572	3.29
287.944	3.33
288.316	3.36
288.688	3.55
289.06	3.37
289.431	3.42
289.803	3.51
290.175	3.61
290.546	3.6
290.918	3.64
291.289	3.65
291.661	3.59
292.032	3.57
292.403	3.71
292.775	3.85
293.146	3.9
293.517	4.09
293.889	4.33
294.26	4.39
294.631	4.33
295.002	4.37
295.373	4.35
295.744	4.25
296.115	4.3
296.486	4.08
296.857	4.27
297.228	4.12
297.599	4.17
297.97	4.26
298.34	4.19
298.711	4.28
299.082	4.26
299.452	4.32
299.823	4.33
300.194	4.41
300.564	4.4
300.935	4.46
301.305	4.39
301.676	4.18
302.046	4.18
302.416	4.27
302.787	4.18
303.157	4.33
303.527	4.61
303.897	4.51
304.267	4.58
304.637	4.52
305.008	4.6
305.378	4.62
305.748	4.65
306.117	4.8
306.487	4.86
306.857	4.95
307.227	5.23
307.597	5.27
307.967	5.27
308.336	5.17
308.706	5.25
309.076	5.43
309.445	5.59
309.815	5.66
310.184	5.55
310.554	5.77
310.923	5.76
311.293	5.49
311.662	5.44
312.031	5.46
312.401	5.51
312.77	5.58
313.139	5.6
313.508	5.53
313.877	5.61
314.246	5.55
314.616	5.71
314.985	5.57
315.353	5.64
315.722	5.72
316.091	5.92
316.46	5.88
316.829	5.79
317.198	5.77
317.567	5.77
317.935	5.95
318.304	5.96
318.672	6.05
319.041	6.22
319.41	6.38
319.778	6.44
320.147	6.59
320.515	6.66
320.883	6.63
321.252	6.7
321.62	6.53
321.988	6.6
322.357	6.57
322.725	6.65
323.093	6.66
323.461	6.67
323.829	6.7
324.197	6.66
324.565	6.81
324.933	6.76
325.301	6.65
325.669	6.74
326.037	6.77
326.405	6.76
326.772	6.9
327.14	6.91
327.508	7.05
327.875	7.06
328.243	6.99
328.61	7.03
328.978	7.13
329.346	7.18
329.713	7.3
330.08	7.28
330.448	7.32
330.815	7.41
331.182	7.34
331.55	7.27
331.917	7.36
332.284	7.31
332.651	7.32
333.018	7.37
333.385	7.35
333.752	7.45
334.119	7.36
334.486	7.25
334.853	7.39
335.22	7.31
335.587	7.27
335.954	7.29
336.32	7.32
336.687	7.37
337.054	7.43
337.42	7.42
337.787	7.47
338.153	7.54
338.52	7.62
338.886	7.74
339.253	7.78
339.619	7.78
339.986	7.78
340.352	7.94
340.718	8.06
341.084	8.07
341.451	8
341.817	8.15
342.183	8.17
342.549	8.13
342.915	8.17
343.281	8.2
343.647	8.18
344.013	8.2
344.379	8.09
344.745	8.12
345.11	8.08
345.476	8.03
345.842	7.97
346.208	7.94
346.573	7.89
346.939	7.94
347.304	7.99
347.67	7.92
348.035	7.76
348.401	7.7
348.766	7.76
349.132	7.73
349.497	7.82
349.862	7.98
350.228	7.95
350.593	7.99
350.958	7.99
351.323	8.05
351.688	8
352.053	8.1
352.418	8.15
352.783	8.04
353.148	8.09
353.513	8.07
353.878	7.92
354.243	7.86
354.608	7.83
354.972	7.86
355.337	7.89
355.702	7.96
356.066	7.99
356.431	7.9
356.795	7.94
357.16	7.8
357.524	7.69
357.889	7.62
358.253	7.59
358.618	7.59
358.982	7.55
359.346	7.56
359.71	7.46
360.075	7.49
360.439	7.52
360.803	7.49
361.167	7.49
361.531	7.5
361.895	7.55
362.259	7.54
362.623	7.49
362.987	7.53
363.351	7.55
363.714	7.51
364.078	7.47
364.442	7.38
364.806	7.37
365.169	7.3
365.533	7.36
365.896	7.32
366.26	7.24
366.623	7.27
366.987	7.19
367.35	7.18
367.714	7.1
368.077	7.07
368.44	7.05
368.803	7.02
369.167	6.98
369.53	6.9
369.893	6.87
370.256	6.78
370.619	6.66
370.982	6.58
371.345	6.56
371.708	6.48
372.071	6.45
372.434	6.39
372.797	6.43
373.159	6.32
373.522	6.25
373.885	6.29
374.247	6.23
374.61	6.21
374.973	6.18
375.335	6.1
375.698	6.04
376.06	5.95
376.423	5.89
376.785	5.91
377.147	5.85
377.51	5.76
377.872	5.74
378.234	5.71
378.596	5.75
378.958	5.63
379.321	5.64
379.683	5.62
380.045	5.63
380.407	5.53
380.769	5.5
381.13	5.46
381.492	5.41
381.854	5.35
382.216	5.31
382.578	5.25
382.939	5.19
383.301	5.21
383.663	5.18
384.024	5.14
384.386	5.06
384.747	5.01
385.109	4.96
385.47	4.96
385.832	4.96
386.193	4.87
386.554	4.85
386.916	4.86
387.277	4.83
387.638	4.73
387.999	4.71
388.36	4.67
388.721	4.65
389.082	4.6
389.443	4.58
389.804	4.56
390.165	4.54
390.526	4.51
390.887	4.45
391.248	4.4
391.609	4.4
391.969	4.4
392.33	4.38
392.691	4.36
393.051	4.33
393.412	4.29
393.772	4.3
394.133	4.26
394.493	4.23
394.854	4.19
395.214	4.18
395.574	4.15
395.935	4.15
396.295	4.12
396.655	4.07
397.015	4.04
397.376	4.01
397.736	3.97
398.096	3.94
398.456	3.91
398.816	3.89
399.176	3.81
399.535	3.78
399.895	3.76
400.255	3.76
400.615	3.76
400.975	3.75
401.334	3.68
401.694	3.7
402.054	3.6
402.413	3.58
402.773	3.56
403.132	3.53
403.492	3.5
403.851	3.46
404.211	3.48
404.57	3.47
404.929	3.43
405.288	3.43
405.648	3.42
406.007	3.42
406.366	3.42
406.725	3.43
407.084	3.44
407.443	3.44
407.802	3.43
408.161	3.4
408.52	3.37
408.879	3.38
409.238	3.37
409.596	3.4
409.955	3.36
410.314	3.36
410.673	3.35
411.031	3.34
411.39	3.36
411.748	3.33
412.107	3.33
412.465	3.33
412.824	3.31
413.182	3.32
413.54	3.33
413.899	3.31
414.257	3.29
414.615	3.28
414.974	3.28
415.332	3.26
415.69	3.23
416.048	3.23
416.406	3.2
416.764	3.18
417.122	3.17
417.48	3.18
417.838	3.17
418.195	3.16
418.553	3.13
418.911	3.11
419.269	3.11
419.626	3.1
419.984	3.1
420.342	3.09
420.699	3.07
421.057	3.05
421.414	3.04
421.772	3.04
422.129	3.02
422.486	3.01
422.844	3.01
423.201	3.01
423.558	3
423.915	3.01
424.273	3
424.63	3.01
424.987	3.01
425.344	3
425.701	3
426.058	3
426.415	3
426.772	3
427.128	3
427.485	3
427.842	3
428.199	3.02
428.555	3.01
428.912	3.01
429.269	3
429.625	3
429.982	3.01
430.338	3.01
430.695	2.99
431.051	3
431.407	3
431.764	2.99
432.12	3
432.476	3.01
432.832	3.01
433.189	3.01
433.545	3
433.901	3.01
434.257	3
434.613	2.98
434.969	2.98
435.325	2.97
435.681	2.96
436.036	2.95
436.392	2.97
436.748	2.97
437.104	2.99
437.459	2.98
437.815	2.96
438.171	2.97
438.526	2.96
438.882	2.94
439.237	2.93
439.593	2.93
439.948	2.91
440.304	2.91
440.659	2.91
441.014	2.92
441.369	2.92
441.725	2.92
442.08	2.92
442.435	2.93
442.79	2.92
443.145	2.92
443.5	2.93
443.855	2.92
444.21	2.9
444.565	2.88
444.92	2.87
445.275	2.86
445.629	2.85
445.984	2.85
446.339	2.86
446.693	2.87
447.048	2.83
447.403	2.82
447.757	2.82
448.112	2.81
448.466	2.81
448.82	2.79
449.175	2.8
449.529	2.8
449.883	2.79
450.238	2.79
450.592	2.77
450.946	2.77
451.3	2.77
451.654	2.78
452.008	2.78
452.362	2.79
452.716	2.8
453.07	2.79
453.424	2.8
453.778	2.79
454.132	2.75
454.486	2.78
454.839	2.8
455.193	2.8
455.547	2.79
455.9	2.79
456.254	2.82
456.607	2.78
456.961	2.78
457.314	2.78
457.668	2.79
458.021	2.8
458.375	2.8
458.728	2.8
459.081	2.82
459.434	2.82
459.787	2.82
460.141	2.82
460.494	2.84
460.847	2.83
461.2	2.83
461.553	2.85
461.906	2.87
462.259	2.86
462.611	2.87
462.964	2.88
463.317	2.89
463.67	2.89
464.022	2.92
464.375	2.94
464.728	2.95
465.08	2.95
465.433	2.97
465.785	2.98
466.138	3
466.49	3
466.843	3.02
467.195	3.01
467.547	3.02
467.899	3
468.252	3.04
468.604	3.03
468.956	3.05
469.308	3.03
469.66	3.05
470.012	3.06
470.364	3.07
470.716	3.07
471.068	3.08
471.42	3.09
471.772	3.07
472.123	3.09
472.475	3.1
472.827	3.11
473.178	3.12
473.53	3.13
473.882	3.13
474.233	3.12
474.585	3.13
474.936	3.13
475.288	3.14
475.639	3.13
475.99	3.14
476.342	3.13
476.693	3.13
477.044	3.12
477.395	3.11
477.746	3.07
478.097	3.07
478.448	3.04
478.8	3.03
479.15	3.01
479.501	3
479.852	2.99
480.203	2.98
480.554	2.98
480.905	2.96
481.255	2.96
481.606	2.97
481.957	2.97
482.307	2.97
482.658	2.97
483.009	2.96
483.359	2.96
483.709	2.96
484.06	2.96
484.41	2.97
484.761	2.97
485.111	2.98
485.461	2.98
485.811	2.99
486.162	2.99
486.512	3
486.862	3
487.212	3.01
487.562	3.02
487.912	3.02
488.262	3.04
488.612	3.04
488.961	3.03
489.311	3.04
489.661	3.04
490.011	3.05
490.36	3.06
490.71	3.06
491.06	3.07
491.409	3.08
491.759	3.09
492.108	3.08
492.458	3.09
492.807	3.1
493.157	3.11
493.506	3.13
493.855	3.15
494.204	3.17
494.554	3.17
494.903	3.18
495.252	3.17
495.601	3.18
495.95	3.2
496.299	3.24
496.648	3.28
496.997	3.31
497.346	3.35
497.695	3.36
498.043	3.41
498.392	3.46
498.741	3.49
499.09	3.53
499.438	3.61
499.787	3.64
500.135	3.68
500.484	3.72
500.832	3.77
501.181	3.82
501.529	3.87
501.878	3.91
502.226	3.97
502.574	4.04
502.923	4.11
503.271	4.15
503.619	4.23
503.967	4.28
504.315	4.35
504.663	4.41
505.011	4.48
505.359	4.55
505.707	4.63
506.055	4.72
506.403	4.81
506.751	4.89
507.098	4.95
507.446	5.04
507.794	5.14
508.141	5.24
508.489	5.33
508.837	5.44
509.184	5.56
509.531	5.67
509.879	5.78
510.226	5.87
510.574	6.01
510.921	6.12
511.268	6.24
511.616	6.35
511.963	6.48
512.31	6.61
512.657	6.75
513.004	6.87
513.351	7.01
513.698	7.15
514.045	7.27
514.392	7.45
514.739	7.62
515.086	7.79
515.432	7.95
515.779	8.1
516.126	8.25
516.473	8.39
516.819	8.53
517.166	8.65
517.512	8.8
517.859	8.92
518.205	9.02
518.552	9.17
518.898	9.32
519.245	9.44
519.591	9.57
519.937	9.7
520.283	9.86
520.629	9.99
520.976	10.16
521.322	10.34
521.668	10.51
522.014	10.68
522.36	10.86
522.706	11.04
523.052	11.26
523.398	11.46
523.743	11.71
524.089	11.95
524.435	12.17
524.781	12.39
525.126	12.61
525.472	12.82
525.817	12.99
526.163	13.16
526.509	13.33
526.854	13.48
527.199	13.61
527.545	13.76
527.89	13.91
528.235	14.04
528.581	14.19
528.926	14.34
529.271	14.48
529.616	14.63
529.961	14.79
530.306	14.94
530.651	15.12
530.996	15.29
531.341	15.46
531.686	15.67
532.031	15.87
532.376	16.04
532.721	16.23
533.065	16.44
533.41	16.65
533.755	16.88
534.099	17.12
534.444	17.38
534.788	17.61
535.133	17.85
535.477	18.1
535.822	18.34
536.166	18.61
536.51	18.92
536.855	19.18
537.199	19.49
537.543	19.82
537.887	20.15
538.231	20.47
538.576	20.81
538.92	21.11
539.264	21.42
539.608	21.72
539.951	22.01
540.295	22.24
540.639	22.52
540.983	22.74
541.327	22.97
541.671	23.2
542.014	23.43
542.358	23.67
542.701	23.91
543.045	24.15
543.389	24.37
543.732	24.6
544.075	24.86
544.419	25.13
544.762	25.37
545.105	25.63
545.449	25.89
545.792	26.16
546.135	26.45
546.478	26.73
546.821	27.02
547.165	27.34
547.508	27.65
547.851	27.96
548.194	28.26
548.536	28.57
548.879	28.86
549.222	29.19
549.565	29.49
549.908	29.77
550.25	30.1
550.593	30.39
550.936	30.69
551.278	30.97
551.621	31.21
551.963	31.5
552.306	31.78
552.648	32.06
552.991	32.34
553.333	32.61
553.675	32.88
554.017	33.12
554.36	33.36
554.702	33.61
555.044	33.83
555.386	34.11
555.728	34.39
556.07	34.64
556.412	34.88
556.754	35.14
557.096	35.4
557.438	35.62
557.78	35.82
558.121	36.09
558.463	36.33
558.805	36.56
559.147	36.8
559.488	37
559.83	37.19
560.171	37.39
560.513	37.57
560.854	37.77
561.196	38.09
561.537	38.3
561.878	38.54
562.22	38.78
562.561	39.01
562.902	39.18
563.243	39.37
563.584	39.55
563.925	39.7
564.266	39.87
564.607	40.07
564.948	40.26
565.289	40.46
565.63	40.63
565.971	40.85
566.312	41.05
566.653	41.21
566.993	41.36
567.334	41.55
567.675	41.78
568.015	41.9
568.356	42.02
568.696	42.16
569.037	42.3
569.377	42.46
569.718	42.64
570.058	42.79
570.398	42.94
570.739	43.08
571.079	43.27
571.419	43.41
571.759	43.48
572.099	43.69
572.439	43.76
572.779	43.86
573.119	43.99
573.459	44.07
573.799	44.24
574.139	44.44
574.479	44.57
574.819	44.7
575.158	44.86
575.498	44.95
575.838	45.02
576.177	45.12
576.517	45.24
576.856	45.33
577.196	45.45
577.535	45.6
577.875	45.71
578.214	45.81
578.553	45.96
578.893	46.16
579.232	46.23
579.571	46.4
579.91	46.59
580.25	46.69
580.589	46.77
580.928	46.76
581.267	46.81
581.606	46.9
581.945	46.9
582.283	46.98
582.622	47.11
582.961	47.32
583.3	47.42
583.639	47.46
583.977	47.53
584.316	47.64
584.654	47.75
584.993	47.82
585.332	47.88
585.67	47.97
586.008	48
586.347	48.05
586.685	48.09
587.024	48.1
587.362	48.2
587.7	48.31
588.038	48.46
588.376	48.58
588.715	48.64
589.053	48.75
589.391	48.87
589.729	48.91
590.067	48.98
590.404	49.05
590.742	49.13
591.08	49.22
591.418	49.3
591.756	49.32
592.093	49.37
592.431	49.49
592.769	49.57
593.106	49.69
593.444	49.75
593.781	49.82
594.119	49.98
594.456	50
594.793	50.09
595.131	50.19
595.468	50.29
595.805	50.36
596.143	50.44
596.48	50.4
596.817	50.42
597.154	50.38
597.491	50.44
597.828	50.54
598.165	50.58
598.502	50.62
598.839	50.68
599.176	50.76
599.512	50.76
599.849	50.83
600.186	50.87
600.523	50.88
600.859	51.01
601.196	51.09
601.532	51.15
601.869	51.18
602.205	51.14
602.542	51.12
602.878	51.2
603.215	51.19
603.551	51.3
603.887	51.38
604.223	51.49
604.56	51.5
604.896	51.47
605.232	51.56
605.568	51.61
605.904	51.67
606.24	51.72
606.576	51.73
606.912	51.75
607.248	51.81
607.583	51.87
607.919	51.88
608.255	51.85
608.591	51.89
608.926	51.89
609.262	52
609.597	52.07
609.933	52.06
610.268	52.11
610.604	52.18
610.939	52.28
611.275	52.31
611.61	52.34
611.945	52.41
612.281	52.4
612.616	52.43
612.951	52.48
613.286	52.53
613.621	52.66
613.956	52.62
614.291	52.6
614.626	52.76
614.961	52.8
615.296	52.89
615.631	53.03
615.966	53.17
616.3	53.1
616.635	53.03
616.97	53.12
617.304	53.2
617.639	53.24
617.973	53.23
618.308	53.29
618.642	53.44
618.977	53.4
619.311	53.49
619.646	53.51
619.98	53.54
620.314	53.54
620.648	53.52
620.983	53.64
621.317	53.71
621.651	53.65
621.985	53.64
622.319	53.59
622.653	53.5
622.987	53.51
623.321	53.59
623.655	53.63
623.988	53.64
624.322	53.71
624.656	53.73
624.99	53.76
625.323	53.78
625.657	53.8
625.99	53.93
626.324	53.84
626.657	53.78
626.991	53.81
627.324	53.82
627.658	53.88
627.991	53.94
628.324	53.95
628.657	54.1
628.991	54.15
629.324	54.28
629.657	54.36
629.99	54.37
630.323	54.34
630.656	54.39
630.989	54.42
631.322	54.36
631.655	54.28
631.987	54.28
632.32	54.24
632.653	54.18
632.986	54.15
633.318	54.35
633.651	54.47
633.984	54.49
634.316	54.55
634.649	54.57
634.981	54.57
635.313	54.65
635.646	54.52
635.978	54.58
636.31	54.52
636.643	54.53
636.975	54.58
637.307	54.67
637.639	54.66
637.971	54.63
638.303	54.64
638.635	54.67
638.967	54.72
639.299	54.82
639.631	54.78
639.963	54.8
640.295	54.74
640.626	54.77
640.958	54.79
641.29	54.8
641.621	54.73
641.953	54.66
642.285	54.68
642.616	54.79
642.948	54.71
643.279	54.68
643.61	54.7
643.942	54.69
644.273	54.67
644.604	54.77
644.936	54.85
645.267	54.97
645.598	55.05
645.929	55.03
646.26	55.03
646.591	55.2
646.922	55.26
647.253	55.25
647.584	55.35
647.915	55.32
648.245	55.38
648.576	55.5
648.907	55.54
649.238	55.44
649.568	55.51
649.899	55.61
650.229	55.7
650.56	55.79
650.89	55.9
651.221	56.09
651.551	56.09
651.882	56.09
652.212	56.01
652.542	56.02
652.872	56.13
653.203	56.22
653.533	56.18
653.863	56.14
654.193	56.16
654.523	56.05
654.853	56.1
655.183	56.06
655.513	56.05
655.843	56
656.172	56.08
656.502	56.06
656.832	56
657.162	56.12
657.491	56.11
657.821	56.09
658.15	55.96
658.48	56.02
658.809	56.05
659.139	56.07
659.468	56.1
659.798	56.05
660.127	55.97
660.456	55.96
660.785	56.01
661.115	55.9
661.444	55.92
661.773	55.92
662.102	55.93
662.431	55.88
662.76	56.11
663.089	56.15
663.418	56.08
663.747	56.17
664.076	56.03
664.404	55.99
664.733	55.89
665.062	55.98
665.39	55.91
665.719	55.72
666.048	55.69
666.376	55.77
666.705	55.85
667.033	55.96
667.362	56.04
667.69	56.09
668.018	56.24
668.347	56.29
668.675	56.39
669.003	56.48
669.331	56.59
669.659	56.47
669.987	56.44
670.315	56.52
670.643	56.45
670.971	56.49
671.299	56.59
671.627	56.68
671.955	56.64
672.283	56.62
672.61	56.87
672.938	57.02
673.266	57
673.593	56.8
673.921	56.71
674.249	56.75
674.576	56.71
674.904	56.78
675.231	56.9
675.558	56.96
675.886	56.92
676.213	56.79
676.54	56.77
676.867	56.73
677.195	56.79
677.522	56.79
677.849	56.84
678.176	56.86
678.503	56.8
678.83	56.9
679.157	56.88
679.484	56.92
679.81	56.86
680.137	56.97
680.464	57.2
680.791	57.21
681.117	57.15
681.444	57.19
681.771	57.09
682.097	56.95
682.424	56.87
682.75	56.9
683.077	56.97
683.403	57.01
683.729	57.14
684.056	57.07
684.382	57.2
684.708	57.12
685.034	56.97
685.36	57.05
685.686	56.99
686.012	57.14
686.339	57.16
686.664	57.15
686.99	57
687.316	56.82
687.642	56.88
687.968	56.89
688.294	56.92
688.619	57.03
688.945	57.01
689.271	57.03
689.596	56.93
689.922	56.95
690.247	56.96
690.573	56.88
690.898	56.92
691.224	56.95
691.549	56.92
691.874	57.09
692.2	57.06
692.525	57.12
692.85	57.16
693.175	57.21
693.5	57.32
693.825	57.33
694.15	57.56
694.475	57.64
694.8	57.67
695.125	57.57
695.45	57.59
695.775	57.62
696.099	57.58
696.424	57.74
696.749	57.81
697.073	57.94
697.398	57.88
697.723	58
698.047	58.04
698.372	58.08
698.696	57.95
699.02	58.02
699.345	57.96
699.669	58
699.993	57.82
700.318	57.77
700.642	57.83
700.966	57.68
701.29	57.64
701.614	57.62
701.938	57.81
702.262	57.88
702.586	58.01
702.91	57.99
703.234	57.95
703.557	57.85
703.881	57.66
704.205	57.92
704.529	57.97
704.852	57.8
705.176	58.05
705.499	58.22
705.823	58.25
706.146	58.45
706.47	58.28
706.793	58.39
707.117	58.34
707.44	58.23
707.763	58.41
708.086	58.4
708.409	58.35
708.733	58.21
709.056	58.09
709.379	58.05
709.702	58.13
710.025	58.06
710.348	58.15
710.671	58.43
710.993	58.29
711.316	58.15
711.639	58.2
711.962	58.06
712.284	58.01
712.607	57.94
712.93	57.72
713.252	57.7
713.575	57.5
713.897	57.74
714.22	57.81
714.542	57.59
714.864	57.62
715.187	57.75
715.509	57.84
715.831	57.78
716.153	57.74
716.475	57.71
716.798	57.91
717.12	57.81
717.442	57.55
717.764	57.56
718.085	57.58
718.407	57.47
718.729	57.51
719.051	57.53
719.373	57.63
719.695	57.63
720.016	57.78
720.338	58
720.659	58.03
720.981	58.07
721.302	58.42
721.624	58.36
721.945	58.39
722.267	58.33
722.588	58.45
722.909	58.58
723.231	58.67
723.552	58.64
723.873	58.91
724.194	58.92
724.515	59.09
724.836	59.22
725.157	59.4
725.478	59.36
725.799	59.34
726.12	59.31
726.441	59.57
726.762	59.58
727.083	59.69
727.403	59.29
727.724	59.36
728.045	59.26
728.365	59.35
728.686	59.51
729.006	59.38
729.327	59.27
729.647	59.13
729.967	59.1
730.288	58.78
730.608	58.88
730.928	59
731.249	58.89
731.569	58.63
731.889	58.76
732.209	58.61
732.529	58.88
732.849	58.89
733.169	58.67
733.489	58.57
733.809	58.54
734.129	58.9
734.448	58.82
734.768	58.62
735.088	58.53
735.408	58.2
735.727	58.15
736.047	58.42
736.366	58.52
736.686	58.34
737.005	58.3
737.325	58.28
737.644	58.29
737.963	58.18
738.283	58.34
738.602	58.13
738.921	58.48
739.24	58.14
739.56	58.16
739.879	58.46
740.198	58.55
740.517	58.92
740.836	58.75
741.155	58.7
741.473	59.03
741.792	59.02
742.111	59.16
742.43	59.57
742.748	59.49
743.067	59.19
743.386	59.47
743.704	59.88
744.023	59.65
744.341	59.64
744.66	59.71
744.978	59.58
745.297	59.8
745.615	59.51
745.933	59.7
746.252	59.5
746.57	59.19
746.888	59.1
747.206	58.71
747.524	58.6
747.842	58.85
748.16	58.47
748.478	58.73
748.796	58.94
749.114	58.69
749.432	58.67
749.749	58.84
750.067	58.55
750.385	58.4
750.703	58.27
751.02	57.99
751.338	58.07
751.655	58.14
751.973	57.92
752.29	58.29
752.608	58.13
752.925	58.28
753.242	58.39
753.56	58.18
753.877	57.92
754.194	58.11
754.511	57.79
754.828	57.98
755.145	57.98
755.462	57.69
755.779	57.85
756.096	57.9
756.413	58.08
756.73	58.56
757.047	58.83
757.364	58.8
757.68	59.23
757.997	59.34
758.314	59.42
758.63	59.31
758.947	59.03
759.264	59.03
759.58	59.1
759.896	59.07
760.213	59.4
760.529	59.64
760.846	59.6
761.162	59.88
761.478	59.83
761.794	59.82
762.11	59.77
762.426	59.67
762.743	59.55
763.059	59.86
763.375	59.71
763.69	59.52
764.006	59.63
764.322	59.54
764.638	59.51
764.954	59.61
765.27	59.72
765.585	59.76
765.901	59.73
766.216	59.82
766.532	59.83
766.848	59.73
767.163	59.54
767.478	59.54
767.794	59.46
768.109	59.55
768.424	59.67
768.74	59.97
769.055	60.02
769.37	59.86
769.685	59.36
770	59.55
770.315	59.79
770.63	59.7
770.945	59.78
771.26	59.92
771.575	60.16
771.89	60.31
772.205	60.41
772.52	60.73
772.834	60.81
773.149	61.03
773.464	60.85
773.778	60.9
774.093	61.06
774.407	61.07
774.722	61.18
775.036	60.87
775.351	60.9
775.665	60.62
775.979	60.82
776.293	61.17
776.608	60.64
776.922	60.4
777.236	60.84
777.55	60.82
777.864	60.43
778.178	59.96
778.492	60.08
778.806	60.12
779.12	59.79
779.434	59.69
779.747	60.01
780.061	60.17
780.375	60.52
780.689	60.29
781.002	60.33
781.316	60.58
781.629	60.47
781.943	60.24
782.256	60.44
782.57	60.44
782.883	60.34
783.196	60.64
783.51	60.71
783.823	60.82
784.136	60.89
784.449	61.27
784.762	61.89
785.075	61.76
785.388	62.08
785.701	62.39
786.014	62.79
786.327	62.39
786.64	62.78
786.953	62.86
787.266	63.15
787.578	63.51
787.891	63.12
788.204	62.97
788.516	62.7
788.829	62.92
789.141	63.29
789.454	63.62
789.766	63.98
790.079	64.18
790.391	63.82
790.703	63.79
791.016	63.59
791.328	62.68
791.64	62.38
791.952	62.63
792.264	61.97
792.576	61.21
792.888	61.26
793.2	61.39
793.512	61.08
793.824	61.4
794.136	60.64
794.448	61.29
794.76	61.78
795.071	62.26
795.383	62.38
795.695	62.61
796.006	61.87
796.318	61.34
796.629	60.75
796.941	61.11
797.252	61.15
797.564	61.49
797.875	61.97
798.186	62.57
798.497	62.24
798.809	62.81
799.12	62.69
799.431	62.55
799.742	62.41
800.053	62.76
800.364	62.09
800.675	62.9
800.986	62.41
801.297	62.11
801.608	61.87
801.918	61.89
802.229	61.34
802.54	61.51
802.851	61.64
803.161	62.08
803.472	61.88
803.782	61.89
804.093	62.13
804.403	61.91
804.714	61.92
805.024	61.58
805.334	61.2
805.645	62.27
805.955	62.77
806.265	62.53
806.575	62.28
806.885	62.38
807.195	62.28
807.505	61.8
807.815	62.28
808.125	61.65
808.435	61.37
808.745	61.09
809.055	61.07
809.365	60.88
809.674	61.15
809.984	61.07
810.294	60.54
810.603	59.78
810.913	60.01
811.222	59.92
811.532	60.07
811.841	60.81
812.151	60.1
812.46	59.42
812.769	59.33
813.079	59.25
813.388	59.38
813.697	58.03
814.006	59.01
814.315	59.06
814.624	60.04
814.933	60.48
815.242	60.7
815.551	60.81
815.86	61.48
816.169	61.28
816.478	61.03
816.786	61.74
817.095	62.2
817.404	62.2
817.712	61.85
818.021	61.6
818.33	61.22
818.638	61.06
818.947	61.73
819.255	61.53
819.563	61.51
819.872	61.26
820.18	61.26
820.488	60.62
820.796	60.24
821.105	60.31
821.413	60.25
821.721	60.36
822.029	60.32
822.337	60.21
822.645	60.37
822.953	60.49
823.26	60.42
823.568	60.17
823.876	60.07
824.184	60.19
824.491	60.26
824.799	60.35
825.107	60.36
825.414	60.14
825.722	60.12
826.029	60.15
826.337	60.14
826.644	60.34
826.951	60.47
827.259	60.75
827.566	60.78
827.873	60.67
828.18	60.63
828.488	60.68
828.795	60.81
829.102	60.5
829.409	60.35
829.716	60.38
830.023	60.81
830.329	61.01
830.636	60.71
830.943	60.62
831.25	60.75
831.557	60.73
831.863	60.83
832.17	60.88
832.476	60.81
832.783	61.09
833.089	61.26
833.396	61.66
833.702	61.12
834.009	60.66
834.315	61.13
834.621	60.88
834.928	60.79
835.234	60.45
835.54	60.83
835.846	61.23
836.152	61.17
836.458	60.78
836.764	60.75
837.07	60.53
837.376	60.25
837.682	59.56
837.988	59.59
838.293	60.33
838.599	60.72
838.905	60.99
839.211	61.29
839.516	61.58
839.822	62.02
840.127	62.52
840.433	64.11
840.738	63.75
841.044	64.89
841.349	66.02
841.654	65.63
841.959	66.24
842.265	66.08
842.57	65.96
842.875	67.66
843.18	68.01
843.485	69.5
843.79	70.5
844.095	73.01
844.4	73.53
844.705	72.31
845.01	71.45
845.315	72.47
845.619	71.87
845.924	71.05
846.229	70.34
846.533	70.2
846.838	67.57
847.142	67.79
847.447	67.84
847.751	67.14
848.056	70.03
848.36	70.11
848.664	70.74
848.969	72.22
849.273	69.12
849.577	66.97
849.881	66.39
850.185	67.01
850.489	64.34
850.794	64.03
851.097	64.45
851.401	64.79
851.705	64.11
852.009	65.13
852.313	64.87
852.617	64.42
852.92	64.75
853.224	66.69
853.528	65.98
853.831	65.56
854.135	65.73
854.438	63.36
854.742	61.69
855.045	60.58
855.349	59.38
855.652	60.32
855.955	64.43
856.259	65.07
856.562	64.42
856.865	64.67
857.168	63.7
857.471	63.45
857.774	65.14
858.077	61.4
858.38	62.64
858.683	62.25
858.986	62.35
859.289	62.9
859.592	61.99
859.894	62.44
860.197	63
860.5	62.59
860.802	62.45
861.105	62.89
861.407	63.08
861.71	65.19
862.012	64.73
862.315	65.26
862.617	64.07
862.919	67.53
863.222	68.86
863.524	71.36
863.826	71.79
864.128	71.24
864.43	74.33
864.732	71.92
865.034	72.22
865.336	72.96
865.638	72.94
865.94	73.17
866.242	74.88
866.544	74.05
866.846	72.05
867.147	74.82
867.449	77.27
867.751	77.05
868.052	71.47
868.354	76.57
868.655	73.61
868.957	73.62
869.258	70.42
869.56	69.27
869.861	68.44
870.162	66.21
870.463	66.8
870.765	65.76
871.066	66.79
871.367	65.66
871.668	65.32
871.969	63.47
872.27	65.53
872.571	62.59
872.872	60.74
873.173	63.73
873.473	62.11
873.774	61.17
874.075	61.89
874.376	65.14
874.676	61.5
874.977	60.76
875.277	60.68
875.578	64.44
875.878	64.65
876.179	64.8
876.479	66.65
876.78	65.05
877.08	66.52
877.38	65.53
877.68	67.63
877.981	67.47
878.281	70
878.581	67.09
