Data from BU26845_Reflection_00008.txt Node
Date: Mon Nov 18 16:28:04 EST 2019
User: vgr7
Spectrometer: USB2G7710
Scans to average: 3
Trigger mode: 4
Integration Time (sec): 2.000000E-2
Electric dark correction enabled: true
Boxcar width: 10
XAxis mode: Wavelengths
Number of Pixels in Spectrum: 2048
>>>>>Begin Spectral Data<<<<<
177.721	19.23
178.105	-2.17
178.488	51.47
178.871	116.73
179.254	106.68
179.636	-138.94
180.019	90.9
180.402	164
180.785	414.69
181.168	-462.5
181.55	-1198.51
181.933	161.79
182.316	220.95
182.698	303.24
183.081	246.54
183.463	266.95
183.846	159.51
184.228	203.45
184.611	107.47
184.993	200.26
185.376	93.23
185.758	-15.56
186.14	19.44
186.522	-5.08
186.904	4.16
187.287	-16.62
187.669	-11.17
188.051	-15.47
188.433	5.29
188.815	10.81
189.197	5.98
189.579	20.64
189.961	23.97
190.342	26.72
190.724	24.09
191.106	25.53
191.488	16.53
191.869	9.49
192.251	17.41
192.633	16.07
193.014	15.91
193.396	16.68
193.777	28.51
194.159	21.25
194.54	24.18
194.922	18.83
195.303	23.67
195.684	40.47
196.065	40.49
196.447	37.02
196.828	36.88
197.209	43.25
197.59	43.68
197.971	44.61
198.352	39.61
198.733	44.96
199.114	45.71
199.495	42.3
199.876	56
200.257	50.01
200.638	55.58
201.018	33.24
201.399	23.14
201.78	17.12
202.16	23.14
202.541	16.33
202.922	17.37
203.302	23.92
203.683	-1.14
204.063	-7.25
204.444	0.22
204.824	-16.96
205.204	-11.83
205.585	-13.87
205.965	-8.8
206.345	-9.27
206.725	-18.53
207.106	-46.22
207.486	-49.7
207.866	-56.84
208.246	-75.08
208.626	-75.82
209.006	-55.82
209.386	-57.74
209.766	-72.84
210.145	-71.9
210.525	-49.79
210.905	-38.32
211.285	-39.55
211.664	-31.01
212.044	-23.15
212.424	-31.81
212.803	-30.39
213.183	-32.65
213.562	-24.86
213.942	-21.04
214.321	-15.3
214.701	-14.03
215.08	-17.28
215.459	-7.19
215.838	-7.39
216.218	2.25
216.597	18.97
216.976	16.76
217.355	14.84
217.734	10.07
218.113	22.05
218.492	28.71
218.871	26.98
219.25	17.19
219.629	16.61
220.008	15.62
220.387	17.56
220.766	24.11
221.144	24.1
221.523	20.75
221.902	30.99
222.28	16.5
222.659	24.41
223.037	45.11
223.416	48.87
223.794	63.09
224.173	41.88
224.551	37.03
224.929	30.74
225.308	29.39
225.686	30.71
226.064	20.06
226.442	8.84
226.821	9.35
227.199	11.4
227.577	10.78
227.955	7.74
228.333	10.96
228.711	8.34
229.089	12.82
229.467	9.44
229.845	4.9
230.222	5.11
230.6	3.42
230.978	-0.47
231.356	0.45
231.733	-0.57
232.111	2.22
232.488	0.67
232.866	2.11
233.243	2.93
233.621	2.77
233.998	5.73
234.376	6.2
234.753	5.77
235.13	4.42
235.508	5.01
235.885	4.99
236.262	2.58
236.639	3.72
237.016	2.55
237.393	5.16
237.77	5.44
238.147	6.37
238.524	6.2
238.901	7.23
239.278	6.11
239.655	6.7
240.032	6.46
240.409	6.3
240.785	5.52
241.162	4.91
241.539	5.08
241.915	4.71
242.292	4.53
242.668	4.26
243.045	4.61
243.421	4.53
243.798	4.38
244.174	4.35
244.551	4.57
244.927	4.11
245.303	3.88
245.679	3.85
246.056	3.7
246.432	3.71
246.808	3.84
247.184	3.56
247.56	3.36
247.936	3.05
248.312	2.97
248.688	2.97
249.064	3.17
249.44	2.94
249.815	2.81
250.191	3
250.567	3.27
250.943	3
251.318	2.88
251.694	2.84
252.069	2.84
252.445	2.51
252.82	2.77
253.196	2.46
253.571	2.61
253.947	2.58
254.322	2.72
254.697	2.09
255.073	2.28
255.448	2.17
255.823	2.56
256.198	2.44
256.573	2.7
256.948	2.72
257.323	2.93
257.698	3.01
258.073	3
258.448	2.81
258.823	2.91
259.198	2.8
259.573	2.81
259.948	2.91
260.322	2.82
260.697	2.86
261.072	2.87
261.446	2.86
261.821	2.95
262.195	2.94
262.57	3.04
262.944	3.06
263.319	2.99
263.693	3
264.067	2.99
264.442	3.04
264.816	2.91
265.19	2.9
265.564	2.95
265.938	2.94
266.313	3.01
266.687	3.1
267.061	3.34
267.435	3.53
267.809	3.31
268.183	3.35
268.556	3.17
268.93	3.31
269.304	3.29
269.678	3.23
270.051	3.19
270.425	3.11
270.799	3.09
271.172	3.12
271.546	3.09
271.919	3.27
272.293	3.06
272.666	3.17
273.04	3.09
273.413	3
273.787	2.96
274.16	2.89
274.533	2.79
274.906	2.48
275.279	2.45
275.653	2.54
276.026	2.62
276.399	2.53
276.772	2.65
277.145	2.62
277.518	2.58
277.891	2.49
278.263	2.41
278.636	2.56
279.009	2.45
279.382	2.46
279.755	2.46
280.127	2.74
280.5	2.71
280.872	2.69
281.245	2.71
281.617	2.86
281.99	2.95
282.362	3.11
282.735	3.19
283.107	3.14
283.479	3.12
283.852	3.12
284.224	3.29
284.596	3.24
284.968	3.28
285.34	3.41
285.713	3.37
286.085	3.61
286.457	3.69
286.829	3.83
287.201	3.81
287.572	3.61
287.944	3.55
288.316	3.57
288.688	3.6
289.06	3.58
289.431	3.35
289.803	3.4
290.175	3.2
290.546	3.34
290.918	3.18
291.289	3.25
291.661	3.35
292.032	3.44
292.403	3.46
292.775	3.5
293.146	3.42
293.517	3.47
293.889	3.48
294.26	3.38
294.631	3.35
295.002	3.39
295.373	3.47
295.744	3.54
296.115	3.42
296.486	3.37
296.857	3.4
297.228	3.55
297.599	3.47
297.97	3.64
298.34	3.62
298.711	3.77
299.082	3.71
299.452	3.65
299.823	3.85
300.194	3.81
300.564	3.71
300.935	3.77
301.305	3.85
301.676	3.85
302.046	3.93
302.416	4.01
302.787	3.93
303.157	4.05
303.527	3.88
303.897	4.01
304.267	4.23
304.637	4.38
305.008	4.44
305.378	4.51
305.748	4.45
306.117	4.48
306.487	4.51
306.857	4.66
307.227	4.72
307.597	4.32
307.967	4.26
308.336	4.32
308.706	4.3
309.076	4.34
309.445	4.31
309.815	4.2
310.184	4.19
310.554	4.28
310.923	4.39
311.293	4.55
311.662	4.64
312.031	4.58
312.401	4.52
312.77	4.64
313.139	4.67
313.508	4.7
313.877	4.74
314.246	4.84
314.616	4.83
314.985	4.87
315.353	5.16
315.722	5.37
316.091	5.51
316.46	5.48
316.829	5.5
317.198	5.61
317.567	5.76
317.935	5.8
318.304	5.92
318.672	5.81
319.041	5.91
319.41	5.87
319.778	5.96
320.147	5.92
320.515	5.7
320.883	5.67
321.252	5.84
321.62	5.77
321.988	5.76
322.357	5.82
322.725	5.74
323.093	5.59
323.461	5.53
323.829	5.54
324.197	5.6
324.565	5.65
324.933	5.73
325.301	5.75
325.669	5.77
326.037	5.72
326.405	5.77
326.772	5.76
327.14	5.82
327.508	5.88
327.875	5.93
328.243	6.12
328.61	6.17
328.978	6.31
329.346	6.43
329.713	6.3
330.08	6.28
330.448	6.46
330.815	6.45
331.182	6.36
331.55	6.37
331.917	6.47
332.284	6.58
332.651	6.48
333.018	6.52
333.385	6.56
333.752	6.56
334.119	6.66
334.486	6.5
334.853	6.5
335.22	6.46
335.587	6.5
335.954	6.47
336.32	6.58
336.687	6.55
337.054	6.53
337.42	6.69
337.787	6.69
338.153	6.65
338.52	6.79
338.886	6.82
339.253	6.84
339.619	6.83
339.986	6.71
340.352	6.88
340.718	6.94
341.084	6.93
341.451	7.1
341.817	7.06
342.183	7.13
342.549	7.19
342.915	7.22
343.281	7.29
343.647	7.31
344.013	7.42
344.379	7.36
344.745	7.4
345.11	7.37
345.476	7.49
345.842	7.51
346.208	7.54
346.573	7.59
346.939	7.63
347.304	7.7
347.67	7.73
348.035	7.69
348.401	7.72
348.766	7.81
349.132	7.75
349.497	7.83
349.862	7.92
350.228	7.88
350.593	7.82
350.958	7.8
351.323	7.79
351.688	7.7
352.053	7.7
352.418	7.73
352.783	7.81
353.148	7.76
353.513	7.77
353.878	7.76
354.243	7.87
354.608	7.78
354.972	7.75
355.337	7.82
355.702	7.82
356.066	7.78
356.431	7.71
356.795	7.73
357.16	7.67
357.524	7.65
357.889	7.57
358.253	7.64
358.618	7.63
358.982	7.57
359.346	7.52
359.71	7.5
360.075	7.51
360.439	7.5
360.803	7.49
361.167	7.5
361.531	7.47
361.895	7.36
362.259	7.34
362.623	7.34
362.987	7.3
363.351	7.27
363.714	7.29
364.078	7.31
364.442	7.18
364.806	7.17
365.169	7.15
365.533	7.17
365.896	7.1
366.26	7.06
366.623	7.08
366.987	7.06
367.35	7.05
367.714	6.95
368.077	6.86
368.44	6.82
368.803	6.67
369.167	6.62
369.53	6.64
369.893	6.64
370.256	6.6
370.619	6.52
370.982	6.5
371.345	6.41
371.708	6.42
372.071	6.43
372.434	6.4
372.797	6.38
373.159	6.34
373.522	6.32
373.885	6.28
374.247	6.19
374.61	6.18
374.973	6.06
375.335	6
375.698	5.97
376.06	5.93
376.423	5.97
376.785	5.97
377.147	5.9
377.51	5.86
377.872	5.86
378.234	5.84
378.596	5.81
378.958	5.74
379.321	5.72
379.683	5.68
380.045	5.58
380.407	5.53
380.769	5.5
381.13	5.48
381.492	5.47
381.854	5.44
382.216	5.33
382.578	5.34
382.939	5.34
383.301	5.32
383.663	5.22
384.024	5.17
384.386	5.14
384.747	5.16
385.109	5.12
385.47	5.02
385.832	5.01
386.193	4.98
386.554	4.98
386.916	4.91
387.277	4.91
387.638	4.94
387.999	4.89
388.36	4.84
388.721	4.82
389.082	4.78
389.443	4.75
389.804	4.76
390.165	4.71
390.526	4.68
390.887	4.68
391.248	4.71
391.609	4.66
391.969	4.6
392.33	4.55
392.691	4.54
393.051	4.51
393.412	4.46
393.772	4.39
394.133	4.32
394.493	4.3
394.854	4.27
395.214	4.24
395.574	4.22
395.935	4.21
396.295	4.16
396.655	4.11
397.015	4.09
397.376	4.05
397.736	4.06
398.096	4.03
398.456	3.97
398.816	3.93
399.176	3.9
399.535	3.86
399.895	3.82
400.255	3.81
400.615	3.79
400.975	3.75
401.334	3.71
401.694	3.71
402.054	3.67
402.413	3.64
402.773	3.6
403.132	3.58
403.492	3.56
403.851	3.56
404.211	3.58
404.57	3.51
404.929	3.5
405.288	3.48
405.648	3.49
406.007	3.48
406.366	3.46
406.725	3.5
407.084	3.51
407.443	3.52
407.802	3.49
408.161	3.5
408.52	3.5
408.879	3.53
409.238	3.54
409.596	3.55
409.955	3.54
410.314	3.57
410.673	3.56
411.031	3.57
411.39	3.57
411.748	3.55
412.107	3.58
412.465	3.59
412.824	3.56
413.182	3.52
413.54	3.51
413.899	3.5
414.257	3.45
414.615	3.44
414.974	3.41
415.332	3.4
415.69	3.37
416.048	3.36
416.406	3.36
416.764	3.33
417.122	3.33
417.48	3.29
417.838	3.26
418.195	3.27
418.553	3.27
418.911	3.24
419.269	3.24
419.626	3.22
419.984	3.2
420.342	3.22
420.699	3.21
421.057	3.21
421.414	3.19
421.772	3.18
422.129	3.18
422.486	3.18
422.844	3.17
423.201	3.16
423.558	3.16
423.915	3.14
424.273	3.13
424.63	3.11
424.987	3.13
425.344	3.12
425.701	3.1
426.058	3.09
426.415	3.1
426.772	3.07
427.128	3.06
427.485	3.05
427.842	3.04
428.199	3.05
428.555	3.05
428.912	3.04
429.269	3.04
429.625	3.02
429.982	3.01
430.338	3
430.695	3
431.051	2.98
431.407	2.97
431.764	2.98
432.12	2.97
432.476	2.98
432.832	2.95
433.189	2.97
433.545	2.95
433.901	2.96
434.257	2.98
434.613	3
434.969	3
435.325	2.98
435.681	2.95
436.036	2.98
436.392	2.99
436.748	3.01
437.104	2.99
437.459	2.99
437.815	2.99
438.171	2.99
438.526	3.02
438.882	3.03
439.237	3.03
439.593	3.04
439.948	3.02
440.304	3.02
440.659	3
441.014	3.01
441.369	3
441.725	2.98
442.08	2.98
442.435	2.98
442.79	2.98
443.145	2.97
443.5	2.94
443.855	2.93
444.21	2.92
444.565	2.94
444.92	2.94
445.275	2.93
445.629	2.93
445.984	2.91
446.339	2.89
446.693	2.88
447.048	2.88
447.403	2.87
447.757	2.85
448.112	2.85
448.466	2.85
448.82	2.84
449.175	2.85
449.529	2.84
449.883	2.82
450.238	2.82
450.592	2.84
450.946	2.83
451.3	2.83
451.654	2.81
452.008	2.8
452.362	2.79
452.716	2.8
453.07	2.81
453.424	2.8
453.778	2.82
454.132	2.82
454.486	2.81
454.839	2.84
455.193	2.85
455.547	2.86
455.9	2.85
456.254	2.86
456.607	2.87
456.961	2.88
457.314	2.88
457.668	2.89
458.021	2.88
458.375	2.89
458.728	2.9
459.081	2.91
459.434	2.91
459.787	2.92
460.141	2.91
460.494	2.91
460.847	2.92
461.2	2.91
461.553	2.91
461.906	2.92
462.259	2.92
462.611	2.95
462.964	2.95
463.317	2.96
463.67	2.96
464.022	2.98
464.375	2.99
464.728	3
465.08	3.01
465.433	3.03
465.785	3.03
466.138	3.04
466.49	3.06
466.843	3.07
467.195	3.08
467.547	3.1
467.899	3.11
468.252	3.12
468.604	3.14
468.956	3.17
469.308	3.17
469.66	3.18
470.012	3.17
470.364	3.18
470.716	3.19
471.068	3.18
471.42	3.17
471.772	3.19
472.123	3.21
472.475	3.23
472.827	3.23
473.178	3.26
473.53	3.27
473.882	3.26
474.233	3.27
474.585	3.27
474.936	3.25
475.288	3.24
475.639	3.23
475.99	3.23
476.342	3.21
476.693	3.19
477.044	3.19
477.395	3.19
477.746	3.18
478.097	3.16
478.448	3.17
478.8	3.15
479.15	3.12
479.501	3.09
479.852	3.07
480.203	3.07
480.554	3.05
480.905	3.03
481.255	3.03
481.606	3.05
481.957	3.05
482.307	3.04
482.658	3.04
483.009	3.04
483.359	3.04
483.709	3.05
484.06	3.06
484.41	3.06
484.761	3.07
485.111	3.07
485.461	3.08
485.811	3.07
486.162	3.07
486.512	3.08
486.862	3.09
487.212	3.1
487.562	3.1
487.912	3.11
488.262	3.12
488.612	3.12
488.961	3.12
489.311	3.14
489.661	3.16
490.011	3.17
490.36	3.18
490.71	3.19
491.06	3.21
491.409	3.22
491.759	3.23
492.108	3.24
492.458	3.25
492.807	3.27
493.157	3.29
493.506	3.32
493.855	3.34
494.204	3.36
494.554	3.39
494.903	3.43
495.252	3.47
495.601	3.51
495.95	3.56
496.299	3.59
496.648	3.61
496.997	3.63
497.346	3.69
497.695	3.75
498.043	3.79
498.392	3.83
498.741	3.86
499.09	3.91
499.438	3.96
499.787	4.03
500.135	4.1
500.484	4.15
500.832	4.22
501.181	4.3
501.529	4.36
501.878	4.46
502.226	4.55
502.574	4.65
502.923	4.74
503.271	4.82
503.619	4.92
503.967	5.03
504.315	5.17
504.663	5.26
505.011	5.38
505.359	5.5
505.707	5.67
506.055	5.82
506.403	5.99
506.751	6.16
507.098	6.3
507.446	6.44
507.794	6.62
508.141	6.79
508.489	6.99
508.837	7.18
509.184	7.37
509.531	7.57
509.879	7.77
510.226	8.01
510.574	8.21
510.921	8.44
511.268	8.68
511.616	8.91
511.963	9.17
512.31	9.42
512.657	9.69
513.004	9.94
513.351	10.24
513.698	10.56
514.045	10.86
514.392	11.2
514.739	11.56
515.086	11.89
515.432	12.23
515.779	12.56
516.126	12.88
516.473	13.19
516.819	13.5
517.166	13.78
517.512	14.05
517.859	14.37
518.205	14.64
518.552	14.91
518.898	15.19
519.245	15.45
519.591	15.73
519.937	16
520.283	16.29
520.629	16.59
520.976	16.91
521.322	17.25
521.668	17.59
522.014	17.92
522.36	18.3
522.706	18.68
523.052	19.06
523.398	19.5
523.743	19.95
524.089	20.37
524.435	20.77
524.781	21.15
525.126	21.48
525.472	21.81
525.817	22.11
526.163	22.4
526.509	22.68
526.854	22.93
527.199	23.14
527.545	23.38
527.89	23.6
528.235	23.81
528.581	24.02
528.926	24.22
529.271	24.42
529.616	24.62
529.961	24.82
530.306	25.05
530.651	25.26
530.996	25.49
531.341	25.72
531.686	25.97
532.031	26.21
532.376	26.47
532.721	26.71
533.065	26.95
533.41	27.22
533.755	27.46
534.099	27.71
534.444	27.98
534.788	28.24
535.133	28.49
535.477	28.73
535.822	28.99
536.166	29.3
536.51	29.61
536.855	29.94
537.199	30.25
537.543	30.57
537.887	30.87
538.231	31.17
538.576	31.48
538.92	31.74
539.264	32.03
539.608	32.33
539.951	32.59
540.295	32.81
540.639	33.03
540.983	33.24
541.327	33.46
541.671	33.68
542.014	33.86
542.358	34.07
542.701	34.28
543.045	34.49
543.389	34.64
543.732	34.81
544.075	34.97
544.419	35.14
544.762	35.32
545.105	35.51
545.449	35.68
545.792	35.85
546.135	36.08
546.478	36.28
546.821	36.43
547.165	36.63
547.508	36.88
547.851	37.1
548.194	37.32
548.536	37.58
548.879	37.78
549.222	37.97
549.565	38.19
549.908	38.38
550.25	38.58
550.593	38.84
550.936	39.03
551.278	39.26
551.621	39.51
551.963	39.72
552.306	39.97
552.648	40.23
552.991	40.47
553.333	40.71
553.675	40.88
554.017	41.1
554.36	41.31
554.702	41.47
555.044	41.62
555.386	41.84
555.728	41.96
556.07	42.14
556.412	42.34
556.754	42.45
557.096	42.64
557.438	42.75
557.78	42.87
558.121	43.07
558.463	43.23
558.805	43.33
559.147	43.49
559.488	43.56
559.83	43.69
560.171	43.81
560.513	43.94
560.854	44.04
561.196	44.2
561.537	44.33
561.878	44.46
562.22	44.59
562.561	44.65
562.902	44.8
563.243	44.88
563.584	44.96
563.925	45.11
564.266	45.14
564.607	45.28
564.948	45.42
565.289	45.56
565.63	45.69
565.971	45.78
566.312	45.92
566.653	46.09
566.993	46.18
567.334	46.31
567.675	46.42
568.015	46.54
568.356	46.65
568.696	46.73
569.037	46.83
569.377	46.99
569.718	47.12
570.058	47.23
570.398	47.39
570.739	47.56
571.079	47.64
571.419	47.81
571.759	47.91
572.099	48.02
572.439	48.08
572.779	48.15
573.119	48.33
573.459	48.39
573.799	48.49
574.139	48.6
574.479	48.69
574.819	48.79
575.158	48.88
575.498	48.94
575.838	49.05
576.177	49.15
576.517	49.2
576.856	49.29
577.196	49.42
577.535	49.48
577.875	49.57
578.214	49.71
578.553	49.8
578.893	49.89
579.232	49.97
579.571	50.1
579.91	50.19
580.25	50.2
580.589	50.25
580.928	50.32
581.267	50.38
581.606	50.5
581.945	50.54
582.283	50.63
582.622	50.63
582.961	50.74
583.3	50.88
583.639	50.94
583.977	51
584.316	51.08
584.654	51.18
584.993	51.22
585.332	51.26
585.67	51.34
586.008	51.43
586.347	51.46
586.685	51.54
587.024	51.63
587.362	51.67
587.7	51.76
588.038	51.8
588.376	51.83
588.715	51.79
589.053	51.84
589.391	51.87
589.729	51.96
590.067	51.97
590.404	51.99
590.742	52.1
591.08	52.2
591.418	52.21
591.756	52.19
592.093	52.28
592.431	52.4
592.769	52.48
593.106	52.5
593.444	52.55
593.781	52.58
594.119	52.64
594.456	52.68
594.793	52.72
595.131	52.77
595.468	52.88
595.805	52.94
596.143	52.98
596.48	53.05
596.817	53.17
597.154	53.26
597.491	53.26
597.828	53.23
598.165	53.2
598.502	53.23
598.839	53.34
599.176	53.33
599.512	53.35
599.849	53.35
600.186	53.35
600.523	53.43
600.859	53.46
601.196	53.48
601.532	53.49
601.869	53.52
602.205	53.54
602.542	53.56
602.878	53.59
603.215	53.66
603.551	53.68
603.887	53.65
604.223	53.69
604.56	53.76
604.896	53.82
605.232	53.96
605.568	54.01
605.904	54.05
606.24	54.13
606.576	54.11
606.912	54.15
607.248	54.26
607.583	54.31
607.919	54.31
608.255	54.39
608.591	54.42
608.926	54.46
609.262	54.53
609.597	54.55
609.933	54.63
610.268	54.65
610.604	54.7
610.939	54.81
611.275	54.77
611.61	54.76
611.945	54.83
612.281	54.81
612.616	54.74
612.951	54.85
613.286	54.83
613.621	54.86
613.956	54.93
614.291	54.99
614.626	55.02
614.961	55.15
615.296	55.13
615.631	55.22
615.966	55.25
616.3	55.36
616.635	55.36
616.97	55.36
617.304	55.4
617.639	55.39
617.973	55.3
618.308	55.29
618.642	55.42
618.977	55.46
619.311	55.5
619.646	55.63
619.98	55.58
620.314	55.63
620.648	55.72
620.983	55.76
621.317	55.68
621.651	55.71
621.985	55.66
622.319	55.72
622.653	55.77
622.987	55.9
623.321	55.77
623.655	55.75
623.988	55.79
624.322	55.82
624.656	55.84
624.99	55.84
625.323	55.92
625.657	55.86
625.99	55.79
626.324	55.75
626.657	55.77
626.991	55.83
627.324	55.79
627.658	55.81
627.991	55.8
628.324	55.87
628.657	55.89
628.991	55.94
629.324	55.95
629.657	56
629.99	56.01
630.323	56.03
630.656	56.07
630.989	56.14
631.322	56.27
631.655	56.35
631.987	56.45
632.32	56.42
632.653	56.45
632.986	56.52
633.318	56.57
633.651	56.64
633.984	56.62
634.316	56.76
634.649	56.78
634.981	56.84
635.313	56.82
635.646	56.9
635.978	56.95
636.31	57.05
636.643	57.09
636.975	57.07
637.307	57.2
637.639	57.26
637.971	57.23
638.303	57.1
638.635	57.06
638.967	57
639.299	57.11
639.631	57.13
639.963	57.06
640.295	57.11
640.626	57.02
640.958	57.05
641.29	56.96
641.621	56.94
641.953	56.98
642.285	57.03
642.616	57.06
642.948	57.05
643.279	56.95
643.61	56.86
643.942	56.8
644.273	56.68
644.604	56.61
644.936	56.59
645.267	56.69
645.598	56.75
645.929	56.81
646.26	56.77
646.591	56.81
646.922	56.82
647.253	56.78
647.584	56.77
647.915	56.79
648.245	56.88
648.576	56.93
648.907	56.93
649.238	56.98
649.568	56.97
649.899	56.95
650.229	56.95
650.56	57.02
650.89	57.1
651.221	57.21
651.551	57.28
651.882	57.3
652.212	57.28
652.542	57.21
652.872	57.15
653.203	57.21
653.533	57.28
653.863	57.39
654.193	57.28
654.523	57.36
654.853	57.37
655.183	57.24
655.513	57.27
655.843	57.37
656.172	57.35
656.502	57.28
656.832	57.25
657.162	57.3
657.491	57.42
657.821	57.49
658.15	57.47
658.48	57.46
658.809	57.59
659.139	57.55
659.468	57.58
659.798	57.66
660.127	57.64
660.456	57.59
660.785	57.63
661.115	57.71
661.444	57.84
661.773	57.88
662.102	57.99
662.431	58.03
662.76	57.91
663.089	57.84
663.418	57.7
663.747	57.79
664.076	57.73
664.404	57.68
664.733	57.53
665.062	57.64
665.39	57.64
665.719	57.47
666.048	57.57
666.376	57.58
666.705	57.73
667.033	57.7
667.362	57.65
667.69	57.57
668.018	57.6
668.347	57.56
668.675	57.51
669.003	57.48
669.331	57.46
669.659	57.52
669.987	57.59
670.315	57.79
670.643	57.78
670.971	57.76
671.299	57.79
671.627	57.84
671.955	57.7
672.283	57.7
672.61	57.77
672.938	57.7
673.266	57.68
673.593	57.62
673.921	57.77
674.249	57.95
674.576	58.01
674.904	58.04
675.231	57.92
675.558	57.93
675.886	57.96
676.213	57.9
676.54	57.88
676.867	57.9
677.195	57.96
677.522	57.9
677.849	58.15
678.176	58.02
678.503	58.02
678.83	58.03
679.157	58.08
679.484	58.1
679.81	58.13
680.137	58.15
680.464	58.13
680.791	58.04
681.117	57.96
681.444	58
681.771	58.02
682.097	58.03
682.424	58.17
682.75	58.13
683.077	58.17
683.403	58.25
683.729	58.2
684.056	58.08
684.382	58.14
684.708	57.97
685.034	58.07
685.36	58.13
685.686	58.08
686.012	57.97
686.339	57.88
686.664	57.81
686.99	57.86
687.316	57.9
687.642	57.99
687.968	57.88
688.294	57.69
688.619	57.7
688.945	57.64
689.271	57.41
689.596	57.48
689.922	57.52
690.247	57.33
690.573	57.4
690.898	57.47
691.224	57.46
691.549	57.67
691.874	57.62
692.2	57.55
692.525	57.53
692.85	57.7
693.175	57.83
693.5	57.74
693.825	57.65
694.15	57.53
694.475	57.4
694.8	57.47
695.125	57.53
695.45	57.48
695.775	57.54
696.099	57.6
696.424	57.45
696.749	57.33
697.073	57.39
697.398	57.37
697.723	57.38
698.047	57.53
698.372	57.36
698.696	57.41
699.02	57.43
699.345	57.49
699.669	57.42
699.993	57.36
700.318	57.39
700.642	57.43
700.966	57.39
701.29	57.41
701.614	57.45
701.938	57.44
702.262	57.61
702.586	57.79
702.91	57.74
703.234	58
703.557	58.03
703.881	57.95
704.205	58.01
704.529	58.03
704.852	57.94
705.176	57.98
705.499	57.86
705.823	57.79
706.146	57.9
706.47	57.94
706.793	57.9
707.117	58.14
707.44	58.12
707.763	58.32
708.086	58.25
708.409	58.15
708.733	58.3
709.056	58.19
709.379	58.13
709.702	58.2
710.025	58.08
710.348	58.12
710.671	58.29
710.993	58.43
711.316	58.44
711.639	58.35
711.962	58.24
712.284	58.27
712.607	58.25
712.93	58.27
713.252	58.42
713.575	58.61
713.897	58.67
714.22	58.64
714.542	58.51
714.864	58.73
715.187	59.02
715.509	58.78
715.831	58.6
716.153	58.71
716.475	58.75
716.798	58.61
717.12	58.58
717.442	58.76
717.764	58.57
718.085	58.34
718.407	58.4
718.729	58.41
719.051	58.53
719.373	58.58
719.695	58.45
720.016	58.28
720.338	58.14
720.659	58.02
720.981	58.05
721.302	57.97
721.624	57.6
721.945	57.38
722.267	57.49
722.588	57.58
722.909	57.08
723.231	57
723.552	57.3
723.873	57.31
724.194	56.98
724.515	56.96
724.836	57.19
725.157	57.16
725.478	57.31
725.799	57.33
726.12	57.19
726.441	57.29
726.762	57.14
727.083	57.12
727.403	57.01
727.724	57.17
728.045	57.19
728.365	57.48
728.686	57.42
729.006	57.52
729.327	57.53
729.647	57.75
729.967	57.63
730.288	57.77
730.608	57.89
730.928	57.94
731.249	57.99
731.569	58.02
731.889	57.85
732.209	57.78
732.529	57.64
732.849	57.89
733.169	57.82
733.489	57.9
733.809	57.82
734.129	57.95
734.448	57.97
734.768	58.13
735.088	58.25
735.408	58.24
735.727	58.21
736.047	58.31
736.366	58.21
736.686	58.31
737.005	58.07
737.325	58.05
737.644	57.98
737.963	58.25
738.283	58.22
738.602	58.49
738.921	58.48
739.24	58.71
739.56	58.65
739.879	58.82
740.198	58.65
740.517	58.65
740.836	58.68
741.155	58.59
741.473	58.46
741.792	58.32
742.111	58.44
742.43	58.54
742.748	58.6
743.067	58.99
743.386	58.76
743.704	58.7
744.023	58.66
744.341	58.64
744.66	58.41
744.978	58.46
745.297	58.36
745.615	58.58
745.933	58.3
746.252	58.42
746.57	58.4
746.888	58.55
747.206	58.79
747.524	58.65
747.842	58.65
748.16	58.68
748.478	58.81
748.796	58.74
749.114	58.56
749.432	58.41
749.749	58.23
750.067	58.41
750.385	58.36
750.703	58.26
751.02	58.48
751.338	58.75
751.655	58.6
751.973	58.46
752.29	58.23
752.608	58.49
752.925	58.54
753.242	58.52
753.56	58.62
753.877	58.62
754.194	58.56
754.511	58.49
754.828	58.7
755.145	58.57
755.462	58.8
755.779	59.17
756.096	59.14
756.413	58.88
756.73	58.92
757.047	59.26
757.364	59.01
757.68	58.52
757.997	58.04
758.314	57.97
758.63	58.02
758.947	58.2
759.264	57.94
759.58	57.69
759.896	57.83
760.213	58.26
760.529	58.38
760.846	58.5
761.162	58.46
761.478	58.28
761.794	58.26
762.11	58.2
762.426	58.25
762.743	58.49
763.059	58.62
763.375	58.63
763.69	58.45
764.006	58.56
764.322	58.72
764.638	58.83
764.954	59.07
765.27	58.94
765.585	58.99
765.901	59.05
766.216	59.31
766.532	59.06
766.848	58.83
767.163	58.73
767.478	58.78
767.794	58.97
768.109	58.92
768.424	58.95
768.74	58.47
769.055	58.13
769.37	57.92
769.685	57.97
770	58.17
770.315	57.81
770.63	58.06
770.945	58.04
771.26	58.24
771.575	58.09
771.89	58.51
772.205	58.45
772.52	58.78
772.834	58.38
773.149	58.64
773.464	58.44
773.778	58.2
774.093	58.12
774.407	58.2
774.722	58.54
775.036	58.54
775.351	58.91
775.665	59.25
775.979	59.41
776.293	59.26
776.608	59.51
776.922	59.7
777.236	59.61
777.55	59.84
777.864	59.63
778.178	59.39
778.492	59.11
778.806	58.94
779.12	58.93
779.434	58.66
779.747	58.56
780.061	58.61
780.375	58.94
780.689	58.87
781.002	58.86
781.316	58.71
781.629	58.95
781.943	59.24
782.256	59.17
782.57	59
782.883	59.09
783.196	58.93
783.51	58.81
783.823	58.64
784.136	58.36
784.449	58.67
784.762	58.61
785.075	59.16
785.388	59.36
785.701	58.97
786.014	59.28
786.327	59.71
786.64	59.67
786.953	59.63
787.266	59.5
787.578	59.1
787.891	58.92
788.204	58.57
788.516	58.52
788.829	58.82
789.141	58.7
789.454	58.6
789.766	58.5
790.079	58.53
790.391	58.76
790.703	59.03
791.016	58.79
791.328	59.51
791.64	59.35
791.952	59.2
792.264	59.12
792.576	58.78
792.888	57.93
793.2	57.79
793.512	57.58
793.824	57.58
794.136	57.6
794.448	57.73
794.76	57.34
795.071	57.07
795.383	56.52
795.695	56.78
796.006	57.04
796.318	56.73
796.629	57.48
796.941	57.49
797.252	57.6
797.564	57.54
797.875	57.2
798.186	56.73
798.497	56.86
798.809	57.27
799.12	57.96
799.431	58.16
799.742	58.43
800.053	58.47
800.364	58.74
800.675	58.48
800.986	58.33
801.297	58.68
801.608	58.45
801.918	58.18
802.229	58.18
802.54	57.7
802.851	57.72
803.161	56.91
803.472	57.12
803.782	57.01
804.093	57.29
804.403	57.04
804.714	56.87
805.024	56.84
805.334	57.05
805.645	56.99
805.955	57.51
806.265	57.67
806.575	58.28
806.885	57.86
807.195	58.52
807.505	59.18
807.815	59.33
808.125	59.69
808.435	60.02
808.745	59.83
809.055	60.11
809.365	60.33
809.674	61.04
809.984	60.41
810.294	60.72
810.603	61.09
810.913	61.69
811.222	62.99
811.532	63.19
811.841	62.94
812.151	63.25
812.46	62.54
812.769	61.67
813.079	61.29
813.388	61.45
813.697	61.98
814.006	61.14
814.315	61.56
814.624	61.45
814.933	61.42
815.242	61.82
815.551	62.23
815.86	61.95
816.169	62.07
816.478	62.28
816.786	62.13
817.095	61.5
817.404	61.07
817.712	60.2
818.021	60.37
818.33	59.51
818.638	59.1
818.947	59.5
819.255	59.92
819.563	59.65
819.872	59.53
820.18	59.49
820.488	59.67
820.796	59.66
821.105	59.66
821.413	59.79
821.721	59.62
822.029	59.4
822.337	59.5
822.645	59.32
822.953	59.23
823.26	59.07
823.568	59.09
823.876	59.32
824.184	59.32
824.491	59.21
824.799	59.24
825.107	59.2
825.414	59.3
825.722	59.28
826.029	59.53
826.337	59.53
826.644	59.49
826.951	59.49
827.259	59.36
827.566	59.42
827.873	59.25
828.18	59.28
828.488	59.43
828.795	59.22
829.102	59.25
829.409	59.48
829.716	59.66
830.023	59.66
830.329	59.09
830.636	59.32
830.943	59.54
831.25	59.55
831.557	59.49
831.863	59.19
832.17	59.24
832.476	58.94
832.783	59.38
833.089	58.92
833.396	58.96
833.702	59.29
834.009	59.26
834.315	59.65
834.621	60.04
834.928	60.11
835.234	60.19
835.54	60.25
835.846	60.22
836.152	60.63
836.458	60.15
836.764	60.5
837.07	59.98
837.376	59.43
837.682	60.21
837.988	60.23
838.293	60.79
838.599	61.33
838.905	60.68
839.211	60.24
839.516	60.76
839.822	60.54
840.127	59.45
840.433	59.43
840.738	58.8
841.044	57.66
841.349	57.62
841.654	58.5
841.959	58.81
842.265	58.52
842.57	58.25
842.875	58.19
843.18	57.94
843.485	58.88
843.79	59.09
844.095	57.73
844.4	58.59
844.705	57.8
845.01	55.09
845.315	56.28
845.619	56.62
845.924	56.8
846.229	57.4
846.533	58.84
846.838	59.78
847.142	60.47
847.447	61.6
847.751	61.73
848.056	60.35
848.36	58.98
848.664	58.63
848.969	56.81
849.273	57.52
849.577	57.73
849.881	57.41
850.185	57.27
850.489	59.97
850.794	58.32
851.097	59.82
851.401	62.46
851.705	62.66
852.009	62.11
852.313	60.94
852.617	60.74
852.92	60.88
853.224	60.04
853.528	60.08
853.831	59.84
854.135	58.71
854.438	57.97
854.742	58.05
855.045	60.96
855.349	61.74
855.652	62.98
855.955	62.58
856.259	62.15
856.562	62.86
856.865	59.94
857.168	61.03
857.471	59.27
857.774	59.3
858.077	58.53
858.38	59.39
858.683	61.56
858.986	61.04
859.289	60.09
859.592	61.48
859.894	61.2
860.197	61.78
860.5	62.61
860.802	64.42
861.105	64.08
861.407	63.44
861.71	64.47
862.012	64.47
862.315	64.95
862.617	64.39
862.919	64.9
863.222	66.24
863.524	67.5
863.826	66.44
864.128	66.79
864.43	66.66
864.732	64.78
865.034	62.09
865.336	61.45
865.638	61.26
865.94	58.9
866.242	57.96
866.544	56.92
866.846	57.66
867.147	57.54
867.449	57.4
867.751	55.97
868.052	55.52
868.354	53.43
868.655	53.28
868.957	53.7
869.258	54.52
869.56	56.53
869.861	54.68
870.162	57.38
870.463	57.74
870.765	58.54
871.066	60.1
871.367	60.2
871.668	61.98
871.969	64.82
872.27	63
872.571	62.57
872.872	63.7
873.173	61.59
873.473	60.08
873.774	60.87
874.075	60.38
874.376	61.99
874.676	62.79
874.977	60.81
875.277	61.02
875.578	60.33
875.878	57.96
876.179	58.61
876.479	56.5
876.78	54.94
877.08	54.2
877.38	53.29
877.68	53.77
877.981	52.6
878.281	48.06
878.581	51.43
