Data from BU26846_Reflection_00010.txt Node
Date: Mon Nov 18 16:33:39 EST 2019
User: vgr7
Spectrometer: USB2G7710
Scans to average: 3
Trigger mode: 4
Integration Time (sec): 2.000000E-2
Electric dark correction enabled: true
Boxcar width: 10
XAxis mode: Wavelengths
Number of Pixels in Spectrum: 2048
>>>>>Begin Spectral Data<<<<<
177.721	91.56
178.105	-484.91
178.488	138.17
178.871	-17.83
179.254	30.41
179.636	67.47
180.019	40.48
180.402	78.79
180.785	119.7
181.168	257.24
181.55	190.35
181.933	68.17
182.316	67.15
182.698	54.2
183.081	10.85
183.463	-41.97
183.846	-94.51
184.228	-142.07
184.611	-237.7
184.993	-787.64
185.376	419.59
185.758	-1097.18
186.14	-153.4
186.522	-113.15
186.904	-32.51
187.287	11.21
187.669	14.26
188.051	6.99
188.433	-29.69
188.815	-46.26
189.197	-80.8
189.579	-130.32
189.961	-137.72
190.342	-225.78
190.724	174.15
191.106	-228.24
191.488	-40.32
191.869	-23.09
192.251	-10.06
192.633	-15.1
193.014	20.86
193.396	12.49
193.777	18.34
194.159	30.25
194.54	20.92
194.922	8.74
195.303	2.3
195.684	-1.82
196.065	-41.08
196.447	-46.44
196.828	-4.15
197.209	-49.57
197.59	-122.88
197.971	-86.42
198.352	-97.32
198.733	-74.38
199.114	-153.19
199.495	-297.15
199.876	1130.15
200.257	472.92
200.638	325.81
201.018	343.57
201.399	230.67
201.78	118.74
202.16	118.02
202.541	76.2
202.922	88.59
203.302	92.5
203.683	104.73
204.063	128.39
204.444	69.33
204.824	75.36
205.204	58.68
205.585	68.4
205.965	47.81
206.345	44.78
206.725	38.72
207.106	39.38
207.486	32.13
207.866	71.74
208.246	85.18
208.626	86.83
209.006	120.74
209.386	58.75
209.766	94.3
210.145	143.39
210.525	187.9
210.905	143.23
211.285	141.83
211.664	104.52
212.044	77.92
212.424	128.93
212.803	146.6
213.183	240.02
213.562	146.82
213.942	368.11
214.321	301.86
214.701	301.67
215.08	600.73
215.459	676.14
215.838	326.5
216.218	321.78
216.597	434.12
216.976	374.04
217.355	396.74
217.734	291.71
218.113	249.96
218.492	386.52
218.871	6451.35
219.25	275.86
219.629	914.08
220.008	-1846.11
220.387	7586.49
220.766	497.17
221.144	4444.26
221.523	-1545.96
221.902	-521.17
222.28	-1249.65
222.659	299.37
223.037	58.47
223.416	30.06
223.794	43.73
224.173	43.37
224.551	34.2
224.929	24.63
225.308	12.16
225.686	13.29
226.064	18.8
226.442	13.23
226.821	19.85
227.199	20.42
227.577	12.35
227.955	15.45
228.333	12.2
228.711	13.46
229.089	17.42
229.467	16.77
229.845	13.77
230.222	10.29
230.6	8.18
230.978	8.7
231.356	13.15
231.733	13.73
232.111	12.96
232.488	13.46
232.866	12.72
233.243	14.45
233.621	15.4
233.998	15.12
234.376	14.86
234.753	12.89
235.13	12.13
235.508	14.08
235.885	12.78
236.262	12.33
236.639	10.08
237.016	8.82
237.393	10.18
237.77	11.73
238.147	12.66
238.524	11.65
238.901	11.17
239.278	9.84
239.655	9.32
240.032	8.31
240.409	7.52
240.785	7.41
241.162	7.61
241.539	7.3
241.915	7.15
242.292	7.2
242.668	7.3
243.045	7.25
243.421	6.78
243.798	6.27
244.174	6.46
244.551	6.37
244.927	5.99
245.303	5.72
245.679	5.41
246.056	4.93
246.432	5.04
246.808	4.73
247.184	4.42
247.56	4.28
247.936	4.29
248.312	4.17
248.688	4.25
249.064	4.01
249.44	4.06
249.815	4.05
250.191	3.97
250.567	3.89
250.943	3.81
251.318	3.9
251.694	4.11
252.069	4.14
252.445	4.24
252.82	4.26
253.196	4.1
253.571	4.23
253.947	4.45
254.322	4.35
254.697	4.42
255.073	4.76
255.448	4.69
255.823	4.9
256.198	5.08
256.573	5.02
256.948	4.81
257.323	4.58
257.698	4.62
258.073	4.37
258.448	4.3
258.823	4.25
259.198	4.1
259.573	4.01
259.948	4.04
260.322	4.05
260.697	4.11
261.072	4.07
261.446	3.91
261.821	3.89
262.195	3.96
262.57	3.89
262.944	3.81
263.319	3.82
263.693	3.62
264.067	3.54
264.442	3.47
264.816	3.69
265.19	3.77
265.564	3.62
265.938	3.78
266.313	3.8
266.687	3.81
267.061	3.85
267.435	3.9
267.809	3.78
268.183	3.77
268.556	3.73
268.93	3.92
269.304	3.79
269.678	3.83
270.051	3.59
270.425	3.58
270.799	3.66
271.172	3.69
271.546	3.87
271.919	3.8
272.293	3.75
272.666	3.61
273.04	3.6
273.413	3.64
273.787	3.58
274.16	3.6
274.533	3.51
274.906	3.4
275.279	3.31
275.653	3.18
276.026	3.1
276.399	3.03
276.772	2.91
277.145	3.15
277.518	3.14
277.891	3.35
278.263	3.32
278.636	3.28
279.009	3.26
279.382	3.19
279.755	3.29
280.127	3.44
280.5	3.51
280.872	3.48
281.245	3.24
281.617	3.36
281.99	3.48
282.362	3.59
282.735	3.58
283.107	3.66
283.479	3.75
283.852	3.79
284.224	3.82
284.596	3.8
284.968	3.76
285.34	3.69
285.713	3.59
286.085	3.66
286.457	3.62
286.829	3.57
287.201	3.49
287.572	3.4
287.944	3.33
288.316	3.28
288.688	3.27
289.06	3.45
289.431	3.48
289.803	3.55
290.175	3.54
290.546	3.56
290.918	3.51
291.289	3.47
291.661	3.48
292.032	3.39
292.403	3.51
292.775	3.48
293.146	3.52
293.517	3.6
293.889	3.76
294.26	3.88
294.631	3.97
295.002	4.06
295.373	4.14
295.744	4.12
296.115	4.18
296.486	4.23
296.857	4.28
297.228	4.34
297.599	4.14
297.97	4.05
298.34	4.16
298.711	4.19
299.082	4.31
299.452	4.33
299.823	4.56
300.194	4.53
300.564	4.69
300.935	4.86
301.305	4.89
301.676	4.95
302.046	4.99
302.416	5.22
302.787	5.24
303.157	5.28
303.527	5.35
303.897	5.42
304.267	5.48
304.637	5.58
305.008	5.5
305.378	5.69
305.748	5.83
306.117	5.83
306.487	5.85
306.857	5.88
307.227	5.97
307.597	5.98
307.967	6.1
308.336	6.08
308.706	6.06
309.076	6.13
309.445	6.07
309.815	6.08
310.184	5.96
310.554	6.05
310.923	6.12
311.293	6.35
311.662	6.3
312.031	6.28
312.401	6.29
312.77	6.47
313.139	6.59
313.508	6.72
313.877	6.85
314.246	7.1
314.616	7.11
314.985	7.18
315.353	7.24
315.722	7.33
316.091	7.44
316.46	7.48
316.829	7.4
317.198	7.49
317.567	7.57
317.935	7.62
318.304	7.69
318.672	7.78
319.041	7.69
319.41	7.88
319.778	8.1
320.147	8.21
320.515	8.08
320.883	8.06
321.252	8.15
321.62	8.23
321.988	8.05
322.357	8.05
322.725	8.07
323.093	8.25
323.461	8.16
323.829	8.23
324.197	8.3
324.565	8.45
324.933	8.54
325.301	8.59
325.669	8.62
326.037	8.65
326.405	8.54
326.772	8.48
327.14	8.47
327.508	8.47
327.875	8.36
328.243	8.44
328.61	8.4
328.978	8.43
329.346	8.39
329.713	8.46
330.08	8.57
330.448	8.6
330.815	8.36
331.182	8.44
331.55	8.35
331.917	8.34
332.284	8.41
332.651	8.44
333.018	8.48
333.385	8.56
333.752	8.73
334.119	9.01
334.486	9.15
334.853	9.12
335.22	9.12
335.587	9.3
335.954	9.37
336.32	9.39
336.687	9.37
337.054	9.43
337.42	9.39
337.787	9.52
338.153	9.58
338.52	9.73
338.886	9.63
339.253	9.7
339.619	9.72
339.986	9.74
340.352	9.77
340.718	9.77
341.084	9.77
341.451	9.67
341.817	9.55
342.183	9.46
342.549	9.49
342.915	9.56
343.281	9.51
343.647	9.42
344.013	9.53
344.379	9.47
344.745	9.47
345.11	9.58
345.476	9.46
345.842	9.46
346.208	9.47
346.573	9.59
346.939	9.7
347.304	9.73
347.67	9.7
348.035	9.67
348.401	9.61
348.766	9.6
349.132	9.58
349.497	9.55
349.862	9.71
350.228	9.74
350.593	9.6
350.958	9.61
351.323	9.61
351.688	9.59
352.053	9.6
352.418	9.62
352.783	9.58
353.148	9.6
353.513	9.56
353.878	9.49
354.243	9.53
354.608	9.43
354.972	9.47
355.337	9.41
355.702	9.45
356.066	9.52
356.431	9.49
356.795	9.53
357.16	9.56
357.524	9.43
357.889	9.38
358.253	9.5
358.618	9.48
358.982	9.45
359.346	9.41
359.71	9.41
360.075	9.36
360.439	9.32
360.803	9.26
361.167	9.22
361.531	9.23
361.895	9.23
362.259	9.24
362.623	9.13
362.987	9.18
363.351	9.15
363.714	9.09
364.078	9.05
364.442	9.04
364.806	8.99
365.169	8.98
365.533	8.99
365.896	8.89
366.26	8.84
366.623	8.82
366.987	8.72
367.35	8.64
367.714	8.6
368.077	8.54
368.44	8.5
368.803	8.45
369.167	8.38
369.53	8.25
369.893	8.13
370.256	8.16
370.619	8.12
370.982	8.02
371.345	7.89
371.708	7.82
372.071	7.67
372.434	7.64
372.797	7.58
373.159	7.48
373.522	7.39
373.885	7.36
374.247	7.31
374.61	7.33
374.973	7.29
375.335	7.23
375.698	7.21
376.06	7.16
376.423	7.09
376.785	7.04
377.147	7
377.51	6.97
377.872	6.89
378.234	6.79
378.596	6.76
378.958	6.75
379.321	6.68
379.683	6.68
380.045	6.62
380.407	6.58
380.769	6.54
381.13	6.45
381.492	6.32
381.854	6.26
382.216	6.14
382.578	6.1
382.939	5.99
383.301	5.91
383.663	5.81
384.024	5.8
384.386	5.76
384.747	5.69
385.109	5.66
385.47	5.57
385.832	5.53
386.193	5.49
386.554	5.43
386.916	5.42
387.277	5.36
387.638	5.3
387.999	5.21
388.36	5.16
388.721	5.18
389.082	5.17
389.443	5.13
389.804	5.11
390.165	5.02
390.526	5.02
390.887	5.01
391.248	5.08
391.609	5.02
391.969	4.98
392.33	4.96
392.691	4.94
393.051	4.94
393.412	4.89
393.772	4.8
394.133	4.8
394.493	4.8
394.854	4.74
395.214	4.68
395.574	4.71
395.935	4.65
396.295	4.63
396.655	4.59
397.015	4.55
397.376	4.53
397.736	4.52
398.096	4.49
398.456	4.44
398.816	4.35
399.176	4.28
399.535	4.24
399.895	4.18
400.255	4.13
400.615	4.09
400.975	4.1
401.334	4.08
401.694	4.03
402.054	3.96
402.413	3.96
402.773	3.95
403.132	3.92
403.492	3.91
403.851	3.87
404.211	3.84
404.57	3.83
404.929	3.81
405.288	3.82
405.648	3.78
406.007	3.79
406.366	3.76
406.725	3.81
407.084	3.79
407.443	3.77
407.802	3.76
408.161	3.75
408.52	3.7
408.879	3.7
409.238	3.7
409.596	3.69
409.955	3.66
410.314	3.71
410.673	3.67
411.031	3.67
411.39	3.66
411.748	3.66
412.107	3.67
412.465	3.62
412.824	3.6
413.182	3.59
413.54	3.58
413.899	3.57
414.257	3.51
414.615	3.5
414.974	3.51
415.332	3.48
415.69	3.45
416.048	3.42
416.406	3.4
416.764	3.38
417.122	3.36
417.48	3.33
417.838	3.3
418.195	3.28
418.553	3.28
418.911	3.27
419.269	3.26
419.626	3.24
419.984	3.24
420.342	3.24
420.699	3.22
421.057	3.18
421.414	3.17
421.772	3.16
422.129	3.14
422.486	3.12
422.844	3.12
423.201	3.1
423.558	3.1
423.915	3.09
424.273	3.08
424.63	3.07
424.987	3.08
425.344	3.08
425.701	3.07
426.058	3.05
426.415	3.05
426.772	3.03
427.128	3.02
427.485	3.01
427.842	2.99
428.199	3.01
428.555	3
428.912	3
429.269	3
429.625	2.99
429.982	3
430.338	3
430.695	3
431.051	2.99
431.407	3.01
431.764	3
432.12	2.99
432.476	2.99
432.832	2.97
433.189	2.97
433.545	2.96
433.901	2.95
434.257	2.93
434.613	2.94
434.969	2.94
435.325	2.96
435.681	2.96
436.036	2.97
436.392	2.98
436.748	2.97
437.104	2.99
437.459	2.99
437.815	2.98
438.171	3
438.526	3.02
438.882	3
439.237	3.01
439.593	3.02
439.948	3.01
440.304	3
440.659	3
441.014	3.01
441.369	3.01
441.725	3.01
442.08	3
442.435	3
442.79	2.98
443.145	2.98
443.5	2.97
443.855	2.95
444.21	2.96
444.565	2.95
444.92	2.94
445.275	2.93
445.629	2.92
445.984	2.9
446.339	2.9
446.693	2.88
447.048	2.86
447.403	2.87
447.757	2.86
448.112	2.84
448.466	2.83
448.82	2.83
449.175	2.85
449.529	2.86
449.883	2.85
450.238	2.84
450.592	2.84
450.946	2.82
451.3	2.83
451.654	2.82
452.008	2.8
452.362	2.78
452.716	2.78
453.07	2.77
453.424	2.75
453.778	2.76
454.132	2.76
454.486	2.76
454.839	2.74
455.193	2.73
455.547	2.73
455.9	2.73
456.254	2.72
456.607	2.71
456.961	2.7
457.314	2.71
457.668	2.72
458.021	2.71
458.375	2.72
458.728	2.72
459.081	2.72
459.434	2.72
459.787	2.75
460.141	2.74
460.494	2.77
460.847	2.8
461.2	2.79
461.553	2.81
461.906	2.83
462.259	2.85
462.611	2.87
462.964	2.88
463.317	2.89
463.67	2.9
464.022	2.91
464.375	2.91
464.728	2.91
465.08	2.91
465.433	2.95
465.785	2.95
466.138	2.95
466.49	2.97
466.843	2.98
467.195	2.98
467.547	3.02
467.899	3.02
468.252	3
468.604	3.01
468.956	3.04
469.308	3.03
469.66	3.02
470.012	3.04
470.364	3.07
470.716	3.08
471.068	3.09
471.42	3.11
471.772	3.14
472.123	3.15
472.475	3.18
472.827	3.19
473.178	3.2
473.53	3.2
473.882	3.2
474.233	3.23
474.585	3.23
474.936	3.23
475.288	3.22
475.639	3.23
475.99	3.24
476.342	3.23
476.693	3.23
477.044	3.26
477.395	3.25
477.746	3.24
478.097	3.24
478.448	3.23
478.8	3.2
479.15	3.16
479.501	3.14
479.852	3.12
480.203	3.1
480.554	3.09
480.905	3.09
481.255	3.08
481.606	3.08
481.957	3.08
482.307	3.07
482.658	3.06
483.009	3.05
483.359	3.05
483.709	3.04
484.06	3.03
484.41	3.02
484.761	3.01
485.111	3.01
485.461	3
485.811	3.01
486.162	3.02
486.512	3.03
486.862	3.03
487.212	3.03
487.562	3.03
487.912	3.02
488.262	3.01
488.612	3.01
488.961	3
489.311	3.01
489.661	3.01
490.011	3.02
490.36	3.02
490.71	3.02
491.06	3.02
491.409	3.04
491.759	3.05
492.108	3.05
492.458	3.05
492.807	3.05
493.157	3.07
493.506	3.08
493.855	3.09
494.204	3.1
494.554	3.11
494.903	3.11
495.252	3.13
495.601	3.18
495.95	3.21
496.299	3.23
496.648	3.25
496.997	3.28
497.346	3.32
497.695	3.37
498.043	3.4
498.392	3.45
498.741	3.49
499.09	3.53
499.438	3.57
499.787	3.62
500.135	3.68
500.484	3.71
500.832	3.76
501.181	3.81
501.529	3.87
501.878	3.95
502.226	4.03
502.574	4.11
502.923	4.18
503.271	4.26
503.619	4.37
503.967	4.47
504.315	4.55
504.663	4.65
505.011	4.74
505.359	4.86
505.707	4.99
506.055	5.08
506.403	5.24
506.751	5.4
507.098	5.53
507.446	5.71
507.794	5.86
508.141	6.02
508.489	6.2
508.837	6.37
509.184	6.54
509.531	6.73
509.879	6.94
510.226	7.15
510.574	7.35
510.921	7.53
511.268	7.74
511.616	7.97
511.963	8.21
512.31	8.46
512.657	8.7
513.004	8.95
513.351	9.26
513.698	9.55
514.045	9.83
514.392	10.14
514.739	10.47
515.086	10.82
515.432	11.15
515.779	11.5
516.126	11.78
516.473	12.09
516.819	12.4
517.166	12.68
517.512	12.97
517.859	13.27
518.205	13.56
518.552	13.85
518.898	14.13
519.245	14.4
519.591	14.69
519.937	14.99
520.283	15.31
520.629	15.63
520.976	15.94
521.322	16.27
521.668	16.63
522.014	16.97
522.36	17.34
522.706	17.7
523.052	18.09
523.398	18.55
523.743	18.96
524.089	19.4
524.435	19.81
524.781	20.19
525.126	20.54
525.472	20.87
525.817	21.16
526.163	21.43
526.509	21.69
526.854	21.96
527.199	22.21
527.545	22.42
527.89	22.63
528.235	22.84
528.581	23.07
528.926	23.3
529.271	23.52
529.616	23.74
529.961	23.96
530.306	24.19
530.651	24.42
530.996	24.68
531.341	24.9
531.686	25.14
532.031	25.4
532.376	25.69
532.721	25.98
533.065	26.25
533.41	26.55
533.755	26.85
534.099	27.12
534.444	27.41
534.788	27.71
535.133	27.97
535.477	28.28
535.822	28.56
536.166	28.86
536.51	29.17
536.855	29.5
537.199	29.88
537.543	30.22
537.887	30.54
538.231	30.91
538.576	31.28
538.92	31.66
539.264	31.94
539.608	32.23
539.951	32.5
540.295	32.78
540.639	33.03
540.983	33.28
541.327	33.5
541.671	33.7
542.014	33.95
542.358	34.16
542.701	34.38
543.045	34.62
543.389	34.83
543.732	35.07
544.075	35.27
544.419	35.48
544.762	35.73
545.105	36.02
545.449	36.25
545.792	36.55
546.135	36.8
546.478	37.13
546.821	37.36
547.165	37.67
547.508	37.95
547.851	38.26
548.194	38.55
548.536	38.86
548.879	39.15
549.222	39.42
549.565	39.73
549.908	40.02
550.25	40.29
550.593	40.51
550.936	40.75
551.278	41.02
551.621	41.3
551.963	41.57
552.306	41.8
552.648	42
552.991	42.16
553.333	42.38
553.675	42.58
554.017	42.79
554.36	42.98
554.702	43.15
555.044	43.31
555.386	43.46
555.728	43.64
556.07	43.89
556.412	44.06
556.754	44.26
557.096	44.43
557.438	44.63
557.78	44.91
558.121	45.13
558.463	45.37
558.805	45.5
559.147	45.62
559.488	45.76
559.83	45.89
560.171	46.04
560.513	46.18
560.854	46.28
561.196	46.48
561.537	46.64
561.878	46.77
562.22	46.99
562.561	47.2
562.902	47.4
563.243	47.51
563.584	47.69
563.925	47.79
564.266	47.93
564.607	48.05
564.948	48.18
565.289	48.25
565.63	48.33
565.971	48.45
566.312	48.6
566.653	48.71
566.993	48.82
567.334	48.87
567.675	49.03
568.015	49.18
568.356	49.27
568.696	49.35
569.037	49.51
569.377	49.56
569.718	49.68
570.058	49.76
570.398	49.84
570.739	49.93
571.079	50.07
571.419	50.21
571.759	50.26
572.099	50.35
572.439	50.47
572.779	50.65
573.119	50.76
573.459	50.84
573.799	50.89
574.139	50.96
574.479	51.09
574.819	51.13
575.158	51.2
575.498	51.29
575.838	51.37
576.177	51.48
576.517	51.54
576.856	51.54
577.196	51.65
577.535	51.77
577.875	51.85
578.214	51.93
578.553	52.04
578.893	52.19
579.232	52.24
579.571	52.35
579.91	52.38
580.25	52.49
580.589	52.55
580.928	52.72
581.267	52.86
581.606	52.99
581.945	53.1
582.283	53.28
582.622	53.35
582.961	53.5
583.3	53.52
583.639	53.66
583.977	53.75
584.316	53.81
584.654	53.89
584.993	53.86
585.332	53.93
585.67	53.97
586.008	54.02
586.347	54.04
586.685	54.06
587.024	54.13
587.362	54.17
587.7	54.29
588.038	54.35
588.376	54.36
588.715	54.41
589.053	54.5
589.391	54.47
589.729	54.53
590.067	54.53
590.404	54.62
590.742	54.67
591.08	54.77
591.418	54.78
591.756	54.85
592.093	54.96
592.431	55.01
592.769	55
593.106	55.05
593.444	55.15
593.781	55.27
594.119	55.28
594.456	55.39
594.793	55.35
595.131	55.37
595.468	55.5
595.805	55.61
596.143	55.64
596.48	55.7
596.817	55.79
597.154	55.88
597.491	55.94
597.828	55.97
598.165	56
598.502	56.1
598.839	56.12
599.176	56.18
599.512	56.28
599.849	56.41
600.186	56.43
600.523	56.48
600.859	56.51
601.196	56.57
601.532	56.57
601.869	56.68
602.205	56.72
602.542	56.71
602.878	56.72
603.215	56.79
603.551	56.83
603.887	56.82
604.223	56.85
604.56	56.84
604.896	56.85
605.232	56.86
605.568	56.82
605.904	56.86
606.24	56.93
606.576	56.96
606.912	56.95
607.248	57
607.583	57.02
607.919	57.05
608.255	57.14
608.591	57.16
608.926	57.14
609.262	57.2
609.597	57.2
609.933	57.2
610.268	57.19
610.604	57.21
610.939	57.19
611.275	57.12
611.61	57.15
611.945	57.21
612.281	57.27
612.616	57.38
612.951	57.44
613.286	57.49
613.621	57.54
613.956	57.53
614.291	57.54
614.626	57.67
614.961	57.71
615.296	57.66
615.631	57.71
615.966	57.79
616.3	57.8
616.635	57.84
616.97	57.88
617.304	57.91
617.639	57.96
617.973	58.03
618.308	58.15
618.642	58.21
618.977	58.28
619.311	58.29
619.646	58.32
619.98	58.32
620.314	58.36
620.648	58.38
620.983	58.37
621.317	58.39
621.651	58.43
621.985	58.44
622.319	58.48
622.653	58.56
622.987	58.51
623.321	58.54
623.655	58.64
623.988	58.67
624.322	58.71
624.656	58.68
624.99	58.71
625.323	58.76
625.657	58.82
625.99	58.81
626.324	58.84
626.657	58.9
626.991	59.01
627.324	58.99
627.658	59.01
627.991	59.15
628.324	59.22
628.657	59.21
628.991	59.17
629.324	59.18
629.657	59.14
629.99	59.2
630.323	59.25
630.656	59.25
630.989	59.21
631.322	59.16
631.655	59.33
631.987	59.37
632.32	59.34
632.653	59.33
632.986	59.29
633.318	59.3
633.651	59.17
633.984	58.98
634.316	59.02
634.649	58.98
634.981	58.95
635.313	58.93
635.646	58.82
635.978	58.91
636.31	59.04
636.643	59
636.975	59.08
637.307	59.1
637.639	59.19
637.971	59.25
638.303	59.3
638.635	59.17
638.967	59.2
639.299	59.17
639.631	59.19
639.963	59.29
640.295	59.28
640.626	59.38
640.958	59.49
641.29	59.48
641.621	59.47
641.953	59.48
642.285	59.61
642.616	59.69
642.948	59.67
643.279	59.63
643.61	59.81
643.942	59.86
644.273	59.9
644.604	59.76
644.936	59.87
645.267	59.92
645.598	59.96
645.929	60
646.26	59.99
646.591	60.04
646.922	59.98
647.253	60.01
647.584	60.03
647.915	60.03
648.245	60
648.576	60.12
648.907	60.14
649.238	60.05
649.568	60.14
649.899	60.17
650.229	60.14
650.56	60.02
650.89	59.88
651.221	59.88
651.551	59.98
651.882	59.87
652.212	59.88
652.542	59.94
652.872	59.88
653.203	59.87
653.533	59.82
653.863	59.86
654.193	59.96
654.523	60.04
654.853	60.11
655.183	60.11
655.513	60.12
655.843	60.13
656.172	60.17
656.502	60.23
656.832	60.24
657.162	60.31
657.491	60.36
657.821	60.43
658.15	60.37
658.48	60.48
658.809	60.5
659.139	60.51
659.468	60.5
659.798	60.46
660.127	60.62
660.456	60.59
660.785	60.63
661.115	60.54
661.444	60.5
661.773	60.43
662.102	60.6
662.431	60.55
662.76	60.52
663.089	60.51
663.418	60.54
663.747	60.49
664.076	60.45
664.404	60.34
664.733	60.3
665.062	60.33
665.39	60.23
665.719	60.29
666.048	60.31
666.376	60.35
666.705	60.5
667.033	60.45
667.362	60.62
667.69	60.65
668.018	60.72
668.347	60.78
668.675	60.8
669.003	60.68
669.331	60.71
669.659	60.84
669.987	60.84
670.315	60.79
670.643	60.76
670.971	60.81
671.299	60.98
671.627	61.21
671.955	61.26
672.283	61.36
672.61	61.29
672.938	61.25
673.266	61.13
673.593	61.08
673.921	61.06
674.249	60.95
674.576	60.92
674.904	60.99
675.231	60.94
675.558	60.99
675.886	61.01
676.213	60.95
676.54	60.83
676.867	60.84
677.195	60.83
677.522	60.87
677.849	60.88
678.176	60.88
678.503	60.83
678.83	60.79
679.157	60.68
679.484	60.85
679.81	60.98
680.137	61.04
680.464	61.08
680.791	61.07
681.117	61.06
681.444	61.03
681.771	60.97
682.097	60.92
682.424	60.82
682.75	60.77
683.077	60.88
683.403	60.96
683.729	61.03
684.056	60.99
684.382	61.1
684.708	60.96
685.034	60.95
685.36	60.9
685.686	60.87
686.012	60.88
686.339	60.81
686.664	60.7
686.99	60.71
687.316	60.72
687.642	60.82
687.968	60.82
688.294	60.72
688.619	60.75
688.945	60.95
689.271	60.92
689.596	61
689.922	60.98
690.247	61.06
690.573	61.13
690.898	61.13
691.224	60.96
691.549	60.98
691.874	61.02
692.2	61.15
692.525	61.3
692.85	61.2
693.175	61.13
693.5	61.13
693.825	61.07
694.15	61.06
694.475	61.14
694.8	61.22
695.125	61.34
695.45	61.34
695.775	61.26
696.099	61.37
696.424	61.33
696.749	61.29
697.073	61.24
697.398	61.21
697.723	61.25
698.047	61.46
698.372	61.44
698.696	61.49
699.02	61.38
699.345	61.37
699.669	61.54
699.993	61.62
700.318	61.63
700.642	61.66
700.966	61.64
701.29	61.59
701.614	61.56
701.938	61.63
702.262	61.67
702.586	61.71
702.91	61.76
703.234	61.8
703.557	61.92
703.881	61.92
704.205	61.94
704.529	61.88
704.852	61.84
705.176	61.98
705.499	61.77
705.823	61.79
706.146	61.67
706.47	61.66
706.793	61.71
707.117	61.71
707.44	61.81
707.763	61.83
708.086	61.67
708.409	61.62
708.733	61.5
709.056	61.4
709.379	61.41
709.702	61.49
710.025	61.46
710.348	61.57
710.671	61.64
710.993	61.64
711.316	61.73
711.639	61.67
711.962	61.6
712.284	61.67
712.607	61.62
712.93	61.66
713.252	61.51
713.575	61.27
713.897	61.31
714.22	61.27
714.542	61.33
714.864	61.5
715.187	61.63
715.509	61.72
715.831	61.82
716.153	61.83
716.475	61.68
716.798	61.81
717.12	61.55
717.442	61.49
717.764	61.53
718.085	61.67
718.407	61.74
718.729	61.95
719.051	62.01
719.373	62
719.695	61.98
720.016	62.07
720.338	62.24
720.659	62.28
720.981	62.48
721.302	62.41
721.624	62.37
721.945	62.34
722.267	62.43
722.588	62.44
722.909	62.38
723.231	62.34
723.552	62.36
723.873	62.45
724.194	62.37
724.515	62.12
724.836	62
725.157	61.87
725.478	61.62
725.799	61.68
726.12	62.01
726.441	62.12
726.762	62.15
727.083	62.21
727.403	62.17
727.724	62.11
728.045	62.26
728.365	62.18
728.686	61.93
729.006	62.04
729.327	61.86
729.647	61.93
729.967	62.03
730.288	62.06
730.608	61.85
730.928	62.07
731.249	62.2
731.569	62.13
731.889	62.21
732.209	62.4
732.529	62.3
732.849	62.23
733.169	62.19
733.489	62.4
733.809	62.4
734.129	62.4
734.448	62.53
734.768	62.46
735.088	62.53
735.408	62.64
735.727	62.58
736.047	62.81
736.366	62.76
736.686	62.81
737.005	62.81
737.325	63.18
737.644	62.77
737.963	62.75
738.283	63.06
738.602	63.18
738.921	63.09
739.24	63.48
739.56	63.14
739.879	63.14
740.198	62.94
740.517	62.62
740.836	62.5
741.155	62.51
741.473	62.35
741.792	62.56
742.111	63.06
742.43	62.9
742.748	62.94
743.067	63.08
743.386	63.32
743.704	63.47
744.023	63.43
744.341	63.58
744.66	63.74
744.978	63.78
745.297	63.79
745.615	63.86
745.933	63.51
746.252	63.82
746.57	64.18
746.888	64.44
747.206	64.73
747.524	64.99
747.842	64.7
748.16	65
748.478	64.81
748.796	64.34
749.114	64.15
749.432	64.01
749.749	64.02
750.067	63.57
750.385	63.38
750.703	63.78
751.02	63.97
751.338	63.91
751.655	63.47
751.973	63.4
752.29	63.25
752.608	62.95
752.925	63.05
753.242	62.54
753.56	62.22
753.877	62.29
754.194	62.1
754.511	62.32
754.828	62.38
755.145	62.8
755.462	63.05
755.779	63.25
756.096	63.18
756.413	63.19
756.73	63.83
757.047	63.81
757.364	63.55
757.68	63.68
757.997	63.45
758.314	63.69
758.63	63.68
758.947	63.75
759.264	63.97
759.58	63.82
759.896	64.02
760.213	64.02
760.529	63.82
760.846	63.83
761.162	63.57
761.478	63.35
761.794	62.98
762.11	63.17
762.426	63.13
762.743	63.28
763.059	62.96
763.375	62.52
763.69	62.56
764.006	62.29
764.322	62.45
764.638	62.73
764.954	62.66
765.27	62.53
765.585	62.6
765.901	62.69
766.216	62.6
766.532	62.71
766.848	62.54
767.163	62.73
767.478	62.77
767.794	63.02
768.109	63
768.424	63.06
768.74	62.94
769.055	63.1
769.37	63.32
769.685	63.82
770	63.89
770.315	63.96
770.63	64.36
770.945	63.83
771.26	63.86
771.575	64.1
771.89	64.39
772.205	64.67
772.52	64.25
772.834	63.85
773.149	63.79
773.464	64.12
773.778	64.51
774.093	64.71
774.407	64.45
774.722	64.46
775.036	64.41
775.351	64.02
775.665	64.19
775.979	63.73
776.293	63.61
776.608	63.96
776.922	63.49
777.236	63.54
777.55	64.03
777.864	63.75
778.178	63.48
778.492	63.62
778.806	63.47
779.12	64.23
779.434	65.06
779.747	65.05
780.061	65.24
780.375	65.23
780.689	64.82
781.002	65.02
781.316	65.15
781.629	65.32
781.943	65.79
782.256	65.42
782.57	65.65
782.883	65.74
783.196	65.83
783.51	65.87
783.823	65.78
784.136	64.94
784.449	65.29
784.762	65.43
785.075	65.33
785.388	64.98
785.701	64.51
786.014	64.22
786.327	64.19
786.64	63.58
786.953	63.27
787.266	63.51
787.578	63.21
787.891	63.47
788.204	63.61
788.516	63.69
788.829	63.7
789.141	63.64
789.454	63.61
789.766	63.51
790.079	63.85
790.391	63.7
790.703	64.45
791.016	64.54
791.328	64.94
791.64	64.94
791.952	65.46
792.264	65.78
792.576	65.73
792.888	65.51
793.2	65.98
793.512	65.81
793.824	66
794.136	66.67
794.448	66.43
794.76	66.17
795.071	65.8
795.383	66.39
795.695	66.16
796.006	66.15
796.318	66.3
796.629	66.49
796.941	66.28
797.252	65.89
797.564	66.09
797.875	65.32
798.186	64.87
798.497	64.09
798.809	63.69
799.12	63.84
799.431	63.84
799.742	64.37
800.053	64.31
800.364	63.9
800.675	63.74
800.986	63.83
801.297	63.7
801.608	63.87
801.918	63.6
802.229	63.87
802.54	63.57
802.851	62.85
803.161	63.08
803.472	63.66
803.782	64.39
804.093	63.24
804.403	63.37
804.714	63.97
805.024	64.43
805.334	65.37
805.645	65.28
805.955	65.6
806.265	65.42
806.575	65.72
806.885	66.3
807.195	65.56
807.505	65.68
807.815	65.81
808.125	65.24
808.435	64.74
808.745	65.06
809.055	65.49
809.365	66.28
809.674	65.68
809.984	64.97
810.294	64.74
810.603	65.89
810.913	65.99
811.222	66.01
811.532	66.25
811.841	66.89
812.151	67.17
812.46	67.51
812.769	67.31
813.079	67.99
813.388	67.34
813.697	68.66
814.006	68.19
814.315	68.05
814.624	68.05
814.933	68.65
815.242	68.32
815.551	67.87
815.86	67.93
816.169	67.98
816.478	68.14
816.786	67.97
817.095	67.79
817.404	67.57
817.712	67.48
818.021	67.35
818.33	65.96
818.638	65.48
818.947	64.99
819.255	65.04
819.563	64.25
819.872	64.35
820.18	64.09
820.488	64.13
820.796	64.18
821.105	64.31
821.413	64.04
821.721	64
822.029	64.19
822.337	63.94
822.645	64.1
822.953	64.05
823.26	64.03
823.568	63.91
823.876	64.03
824.184	64.07
824.491	64.09
824.799	64.1
825.107	64.19
825.414	64.14
825.722	64.07
826.029	64.01
826.337	64
826.644	63.96
826.951	63.85
827.259	63.93
827.566	64.03
827.873	64.15
828.18	63.93
828.488	63.69
828.795	63.79
829.102	63.86
829.409	63.8
829.716	63.51
830.023	63.06
830.329	63.07
830.636	62.76
830.943	62.71
831.25	62.48
831.557	62.36
831.863	62.66
832.17	62.59
832.476	63.3
832.783	63.14
833.089	63.19
833.396	63.51
833.702	62.84
834.009	62.95
834.315	62.93
834.621	63.56
834.928	63.87
835.234	64.35
835.54	64.02
835.846	64.18
836.152	64.39
836.458	65.42
836.764	64.94
837.07	65.17
837.376	64.96
837.682	65.96
837.988	65.99
838.293	66.21
838.599	66.32
838.905	65.95
839.211	66.3
839.516	66.39
839.822	67.27
840.127	68.82
840.433	68.19
840.738	68.87
841.044	69.09
841.349	68.93
841.654	69.11
841.959	69.11
842.265	69.95
842.57	69.92
842.875	69.69
843.18	70.43
843.485	71.47
843.79	72.62
844.095	72.56
844.4	73.32
844.705	72.17
845.01	72.91
845.315	72.38
845.619	71.91
845.924	71.94
846.229	71.92
846.533	69.4
846.838	69.46
847.142	68.72
847.447	68.18
847.751	69.61
848.056	70.03
848.36	70.37
848.664	69.49
848.969	70.93
849.273	69.75
849.577	71.74
849.881	70.5
850.185	70.09
850.489	71.16
850.794	68.15
851.097	70.44
851.401	69.91
851.705	69.88
852.009	74.18
852.313	73.75
852.617	71.31
852.92	74.23
853.224	74.23
853.528	74.35
853.831	76.27
854.135	76.5
854.438	75.51
854.742	76.33
855.045	75.87
855.349	74.66
855.652	76.02
855.955	73.63
856.259	73.4
856.562	73.1
856.865	71.82
857.168	72.36
857.471	71.59
857.774	70.67
858.077	70.71
858.38	70.2
858.683	69.16
858.986	70.11
859.289	70.24
859.592	72.15
859.894	73.36
860.197	69.34
860.5	65.67
860.802	63.75
861.105	64.06
861.407	65.47
861.71	66.45
862.012	65.16
862.315	64.52
862.617	66.47
862.919	65.64
863.222	62.68
863.524	66.15
863.826	65.45
864.128	65.69
864.43	65.82
864.732	63.15
865.034	64.12
865.336	64.73
865.638	64.14
865.94	63.61
866.242	62.28
866.544	65.28
866.846	67.76
867.147	69.42
867.449	68.87
867.751	67.78
868.052	69.32
868.354	68.96
868.655	69.78
868.957	69.01
869.258	69.56
869.56	74.94
869.861	74.2
870.162	75.87
870.463	78.48
870.765	79.29
871.066	80.69
871.367	81.66
871.668	84.22
871.969	83.54
872.27	80.89
872.571	82.76
872.872	81.84
873.173	83.29
873.473	85.45
873.774	85.47
874.075	88.04
874.376	85.47
874.676	87.33
874.977	90.21
875.277	91.52
875.578	91.56
875.878	87.76
876.179	87.87
876.479	87.72
876.78	86.08
877.08	87.85
877.38	88.35
877.68	88.2
877.981	83.84
878.281	86.82
878.581	93.46
