Data from BU26845_Reflection_00004.txt Node
Date: Mon Nov 18 16:27:54 EST 2019
User: vgr7
Spectrometer: USB2G7710
Scans to average: 3
Trigger mode: 4
Integration Time (sec): 2.000000E-2
Electric dark correction enabled: true
Boxcar width: 10
XAxis mode: Wavelengths
Number of Pixels in Spectrum: 2048
>>>>>Begin Spectral Data<<<<<
177.721	68.35
178.105	22.6
178.488	35.89
178.871	40.52
179.254	97.77
179.636	11.5
180.019	-16.28
180.402	160
180.785	680.42
181.168	-1056.25
181.55	-1138.81
181.933	151.16
182.316	250.99
182.698	335.59
183.081	303.69
183.463	503.04
183.846	357.88
184.228	379.2
184.611	283.4
184.993	961.18
185.376	964.56
185.758	-656.55
186.14	-446.72
186.522	-311.01
186.904	-171.33
187.287	-192.85
187.669	-118.97
188.051	-108.34
188.433	-89.21
188.815	-70.23
189.197	-77.34
189.579	-64.62
189.961	-52.82
190.342	-52.01
190.724	-46.28
191.106	-53.14
191.488	-52.08
191.869	-40.92
192.251	-37.92
192.633	-40.15
193.014	-47.59
193.396	-53.74
193.777	-71.83
194.159	-70.53
194.54	-75.53
194.922	-92.39
195.303	-85.08
195.684	-83.59
196.065	-71.64
196.447	-77.04
196.828	-91.96
197.209	-77.09
197.59	-101.01
197.971	-120.02
198.352	-103.11
198.733	-105.7
199.114	-76.38
199.495	-86.51
199.876	-108.94
200.257	-107.34
200.638	-102.5
201.018	-96.25
201.399	-98.31
201.78	-69.77
202.16	-87.95
202.541	-103.66
202.922	-132.07
203.302	-132.07
203.683	-152.16
204.063	-202.72
204.444	-192.51
204.824	-197.57
205.204	-205.02
205.585	-187.87
205.965	-184.02
206.345	-187.41
206.725	-177.18
207.106	-205.51
207.486	-185.59
207.866	-160.88
208.246	-161.91
208.626	-147.99
209.006	-147.94
209.386	-153.3
209.766	-178.87
210.145	-142.87
210.525	-117.57
210.905	-92.54
211.285	-116.49
211.664	-114.73
212.044	-92.72
212.424	-84.45
212.803	-83.15
213.183	-73.57
213.562	-70.5
213.942	-59.14
214.321	-59.1
214.701	-66.32
215.08	-66.49
215.459	-71.35
215.838	-71.49
216.218	-74.91
216.597	-69.02
216.976	-67.31
217.355	-61.51
217.734	-68.65
218.113	-67.89
218.492	-64.49
218.871	-62.01
219.25	-49.47
219.629	-52.68
220.008	-63.87
220.387	-65.51
220.766	-74.79
221.144	-89.82
221.523	-98.21
221.902	-117.17
222.28	-117.03
222.659	-118.32
223.037	-121.72
223.416	-115.65
223.794	-121.27
224.173	-110.83
224.551	-95
224.929	-86.23
225.308	-75.87
225.686	-67.69
226.064	-59.21
226.442	-53.87
226.821	-49.75
227.199	-43.63
227.577	-35.53
227.955	-34.05
228.333	-34.72
228.711	-28.65
229.089	-21.33
229.467	-21.3
229.845	-20.93
230.222	-21.06
230.6	-21.4
230.978	-20.76
231.356	-19.78
231.733	-16.71
232.111	-14.16
232.488	-14.44
232.866	-14.66
233.243	-13.7
233.621	-12.76
233.998	-11.39
234.376	-11.23
234.753	-10.74
235.13	-11.06
235.508	-10.54
235.885	-10.27
236.262	-10.8
236.639	-10.8
237.016	-10.15
237.393	-8.74
237.77	-6.01
238.147	-3.91
238.524	-2.45
238.901	-2.17
239.278	-2.07
239.655	-1.51
240.032	-1.07
240.409	-0.11
240.785	0.61
241.162	1.21
241.539	1.79
241.915	1.31
242.292	1.24
242.668	1.85
243.045	2.11
243.421	1.95
243.798	1.66
244.174	2.02
244.551	2.48
244.927	2.29
245.303	2.32
245.679	2.39
246.056	2.45
246.432	2.64
246.808	3.03
247.184	2.93
247.56	2.55
247.936	2.25
248.312	2.05
248.688	2.27
249.064	1.79
249.44	1.56
249.815	1.91
250.191	2.08
250.567	2
250.943	1.84
251.318	1.99
251.694	2.04
252.069	1.88
252.445	1.7
252.82	1.49
253.196	1.41
253.571	1.17
253.947	0.9
254.322	0.88
254.697	0.86
255.073	1.08
255.448	1.31
255.823	1.48
256.198	1.86
256.573	1.71
256.948	2.08
257.323	2.26
257.698	1.8
258.073	1.78
258.448	1.6
258.823	1.85
259.198	1.67
259.573	1.78
259.948	1.77
260.322	1.66
260.697	1.94
261.072	1.89
261.446	1.88
261.821	1.95
262.195	1.92
262.57	1.78
262.944	1.79
263.319	1.9
263.693	1.86
264.067	1.82
264.442	2.12
264.816	2.12
265.19	2.12
265.564	2.37
265.938	2.23
266.313	2.41
266.687	2.38
267.061	2.52
267.435	2.48
267.809	2.56
268.183	2.71
268.556	2.5
268.93	2.67
269.304	2.66
269.678	2.65
270.051	2.57
270.425	2.65
270.799	2.68
271.172	2.53
271.546	2.68
271.919	2.64
272.293	2.34
272.666	2.4
273.04	2.23
273.413	2.18
273.787	2.24
274.16	2.09
274.533	2.05
274.906	2.08
275.279	2.16
275.653	2.12
276.026	1.94
276.399	2.06
276.772	2.04
277.145	2.13
277.518	2.16
277.891	2.27
278.263	2.25
278.636	2.23
279.009	2.21
279.382	2.18
279.755	2.2
280.127	2.44
280.5	2.4
280.872	2.59
281.245	2.63
281.617	2.73
281.99	2.95
282.362	2.83
282.735	2.67
283.107	2.64
283.479	2.71
283.852	2.82
284.224	2.7
284.596	2.47
284.968	2.41
285.34	2.38
285.713	2.32
286.085	2.36
286.457	2.28
286.829	2.48
287.201	2.45
287.572	2.43
287.944	2.24
288.316	2.31
288.688	2.23
289.06	2.23
289.431	2.28
289.803	2.27
290.175	2.42
290.546	2.49
290.918	2.36
291.289	2.3
291.661	2.35
292.032	2.39
292.403	2.61
292.775	2.62
293.146	2.57
293.517	2.57
293.889	2.54
294.26	2.6
294.631	2.59
295.002	2.57
295.373	2.4
295.744	2.55
296.115	2.35
296.486	2.42
296.857	2.36
297.228	2.2
297.599	2.1
297.97	1.99
298.34	2.12
298.711	2.26
299.082	2.29
299.452	2.26
299.823	2.34
300.194	2.36
300.564	2.3
300.935	2.42
301.305	2.42
301.676	2.49
302.046	2.51
302.416	2.49
302.787	2.52
303.157	2.75
303.527	2.63
303.897	2.8
304.267	2.94
304.637	3.07
305.008	3.16
305.378	3.25
305.748	3.22
306.117	3.08
306.487	3.14
306.857	3.05
307.227	3.15
307.597	3.15
307.967	3.08
308.336	3.17
308.706	3.19
309.076	3.12
309.445	3.07
309.815	3
310.184	2.88
310.554	2.78
310.923	2.67
311.293	2.68
311.662	2.62
312.031	2.47
312.401	2.31
312.77	2.39
313.139	2.3
313.508	2.36
313.877	2.39
314.246	2.37
314.616	2.43
314.985	2.4
315.353	2.32
315.722	2.41
316.091	2.31
316.46	2.16
316.829	2.36
317.198	2.25
317.567	2.27
317.935	2.27
318.304	2.31
318.672	2.35
319.041	2.34
319.41	2.25
319.778	2.29
320.147	2.37
320.515	2.23
320.883	2.2
321.252	2.22
321.62	2.07
321.988	1.97
322.357	1.96
322.725	1.9
323.093	1.94
323.461	1.73
323.829	1.73
324.197	1.77
324.565	1.71
324.933	1.7
325.301	1.82
325.669	1.8
326.037	1.73
326.405	1.78
326.772	1.86
327.14	1.93
327.508	1.92
327.875	1.98
328.243	2.06
328.61	2.23
328.978	2.21
329.346	2.31
329.713	2.22
330.08	2.31
330.448	2.27
330.815	2.12
331.182	2.18
331.55	2.28
331.917	2.24
332.284	2.24
332.651	2.19
333.018	2.19
333.385	2.25
333.752	2.46
334.119	2.45
334.486	2.34
334.853	2.27
335.22	2.2
335.587	2.13
335.954	2.05
336.32	1.88
336.687	1.81
337.054	1.82
337.42	1.93
337.787	1.88
338.153	1.85
338.52	1.9
338.886	1.85
339.253	1.78
339.619	1.76
339.986	1.7
340.352	1.86
340.718	1.7
341.084	1.71
341.451	1.69
341.817	1.59
342.183	1.64
342.549	1.68
342.915	1.72
343.281	1.7
343.647	1.79
344.013	1.72
344.379	1.79
344.745	1.78
345.11	1.82
345.476	1.74
345.842	1.78
346.208	1.88
346.573	2.08
346.939	2.11
347.304	2.21
347.67	2.15
348.035	2.08
348.401	2.16
348.766	2.17
349.132	2.2
349.497	2.23
349.862	2.25
350.228	2.31
350.593	2.23
350.958	2.3
351.323	2.24
351.688	2.35
352.053	2.38
352.418	2.49
352.783	2.56
353.148	2.54
353.513	2.49
353.878	2.45
354.243	2.48
354.608	2.49
354.972	2.48
355.337	2.54
355.702	2.62
356.066	2.69
356.431	2.72
356.795	2.68
357.16	2.75
357.524	2.72
357.889	2.64
358.253	2.7
358.618	2.63
358.982	2.66
359.346	2.64
359.71	2.63
360.075	2.62
360.439	2.56
360.803	2.57
361.167	2.62
361.531	2.58
361.895	2.5
362.259	2.54
362.623	2.55
362.987	2.55
363.351	2.51
363.714	2.49
364.078	2.44
364.442	2.43
364.806	2.41
365.169	2.39
365.533	2.48
365.896	2.49
366.26	2.51
366.623	2.49
366.987	2.48
367.35	2.48
367.714	2.46
368.077	2.43
368.44	2.51
368.803	2.56
369.167	2.53
369.53	2.52
369.893	2.54
370.256	2.59
370.619	2.56
370.982	2.53
371.345	2.49
371.708	2.55
372.071	2.54
372.434	2.48
372.797	2.53
373.159	2.5
373.522	2.59
373.885	2.67
374.247	2.65
374.61	2.71
374.973	2.7
375.335	2.66
375.698	2.63
376.06	2.58
376.423	2.49
376.785	2.59
377.147	2.57
377.51	2.48
377.872	2.46
378.234	2.47
378.596	2.49
378.958	2.49
379.321	2.45
379.683	2.46
380.045	2.5
380.407	2.48
380.769	2.47
381.13	2.4
381.492	2.32
381.854	2.36
382.216	2.33
382.578	2.35
382.939	2.33
383.301	2.38
383.663	2.36
384.024	2.43
384.386	2.44
384.747	2.49
385.109	2.53
385.47	2.48
385.832	2.49
386.193	2.5
386.554	2.52
386.916	2.56
387.277	2.57
387.638	2.58
387.999	2.57
388.36	2.58
388.721	2.63
389.082	2.7
389.443	2.68
389.804	2.67
390.165	2.68
390.526	2.71
390.887	2.69
391.248	2.76
391.609	2.74
391.969	2.72
392.33	2.72
392.691	2.71
393.051	2.73
393.412	2.78
393.772	2.78
394.133	2.79
394.493	2.79
394.854	2.76
395.214	2.77
395.574	2.77
395.935	2.75
396.295	2.76
396.655	2.73
397.015	2.72
397.376	2.76
397.736	2.75
398.096	2.77
398.456	2.81
398.816	2.81
399.176	2.81
399.535	2.79
399.895	2.77
400.255	2.79
400.615	2.79
400.975	2.74
401.334	2.74
401.694	2.72
402.054	2.71
402.413	2.71
402.773	2.7
403.132	2.7
403.492	2.71
403.851	2.68
404.211	2.68
404.57	2.68
404.929	2.69
405.288	2.69
405.648	2.67
406.007	2.67
406.366	2.62
406.725	2.6
407.084	2.62
407.443	2.64
407.802	2.63
408.161	2.61
408.52	2.62
408.879	2.63
409.238	2.66
409.596	2.64
409.955	2.65
410.314	2.67
410.673	2.68
411.031	2.65
411.39	2.67
411.748	2.68
412.107	2.69
412.465	2.67
412.824	2.68
413.182	2.68
413.54	2.68
413.899	2.7
414.257	2.7
414.615	2.69
414.974	2.67
415.332	2.68
415.69	2.7
416.048	2.7
416.406	2.7
416.764	2.68
417.122	2.68
417.48	2.68
417.838	2.69
418.195	2.68
418.553	2.72
418.911	2.72
419.269	2.73
419.626	2.75
419.984	2.75
420.342	2.76
420.699	2.77
421.057	2.78
421.414	2.77
421.772	2.77
422.129	2.79
422.486	2.78
422.844	2.79
423.201	2.78
423.558	2.79
423.915	2.8
424.273	2.81
424.63	2.8
424.987	2.79
425.344	2.79
425.701	2.79
426.058	2.78
426.415	2.78
426.772	2.78
427.128	2.76
427.485	2.76
427.842	2.75
428.199	2.73
428.555	2.72
428.912	2.73
429.269	2.73
429.625	2.74
429.982	2.73
430.338	2.73
430.695	2.76
431.051	2.74
431.407	2.72
431.764	2.73
432.12	2.75
432.476	2.76
432.832	2.75
433.189	2.76
433.545	2.76
433.901	2.78
434.257	2.77
434.613	2.78
434.969	2.78
435.325	2.77
435.681	2.79
436.036	2.79
436.392	2.79
436.748	2.8
437.104	2.8
437.459	2.8
437.815	2.81
438.171	2.79
438.526	2.82
438.882	2.83
439.237	2.83
439.593	2.83
439.948	2.84
440.304	2.84
440.659	2.85
441.014	2.85
441.369	2.83
441.725	2.82
442.08	2.83
442.435	2.84
442.79	2.84
443.145	2.85
443.5	2.85
443.855	2.85
444.21	2.84
444.565	2.83
444.92	2.84
445.275	2.83
445.629	2.84
445.984	2.83
446.339	2.81
446.693	2.79
447.048	2.8
447.403	2.81
447.757	2.83
448.112	2.82
448.466	2.82
448.82	2.82
449.175	2.84
449.529	2.83
449.883	2.81
450.238	2.82
450.592	2.82
450.946	2.82
451.3	2.82
451.654	2.83
452.008	2.84
452.362	2.84
452.716	2.84
453.07	2.84
453.424	2.84
453.778	2.84
454.132	2.85
454.486	2.82
454.839	2.82
455.193	2.79
455.547	2.79
455.9	2.8
456.254	2.82
456.607	2.81
456.961	2.82
457.314	2.83
457.668	2.84
458.021	2.82
458.375	2.83
458.728	2.83
459.081	2.82
459.434	2.8
459.787	2.8
460.141	2.81
460.494	2.81
460.847	2.81
461.2	2.8
461.553	2.8
461.906	2.81
462.259	2.82
462.611	2.83
462.964	2.82
463.317	2.79
463.67	2.78
464.022	2.79
464.375	2.77
464.728	2.76
465.08	2.75
465.433	2.77
465.785	2.78
466.138	2.79
466.49	2.78
466.843	2.79
467.195	2.79
467.547	2.81
467.899	2.83
468.252	2.83
468.604	2.85
468.956	2.86
469.308	2.86
469.66	2.84
470.012	2.84
470.364	2.86
470.716	2.87
471.068	2.87
471.42	2.86
471.772	2.89
472.123	2.91
472.475	2.9
472.827	2.92
473.178	2.92
473.53	2.9
473.882	2.91
474.233	2.92
474.585	2.91
474.936	2.88
475.288	2.88
475.639	2.88
475.99	2.87
476.342	2.89
476.693	2.9
477.044	2.93
477.395	2.95
477.746	2.94
478.097	2.95
478.448	2.96
478.8	2.96
479.15	2.94
479.501	2.93
479.852	2.94
480.203	2.94
480.554	2.95
480.905	2.97
481.255	2.97
481.606	2.97
481.957	2.99
482.307	3
482.658	3
483.009	3
483.359	3
483.709	3.01
484.06	3
484.41	3
484.761	2.99
485.111	2.99
485.461	2.99
485.811	2.99
486.162	3
486.512	3.01
486.862	3.01
487.212	3
487.562	3
487.912	3
488.262	2.99
488.612	3
488.961	3
489.311	3
489.661	2.99
490.011	2.99
490.36	2.98
490.71	2.99
491.06	2.99
491.409	2.99
491.759	2.99
492.108	3
492.458	3
492.807	3.01
493.157	3.02
493.506	3.02
493.855	3.02
494.204	3.02
494.554	3.01
494.903	3
495.252	2.98
495.601	2.99
495.95	2.99
496.299	2.99
496.648	2.98
496.997	2.99
497.346	3
497.695	3.02
498.043	3
498.392	2.98
498.741	2.98
499.09	2.97
499.438	2.96
499.787	2.94
500.135	2.95
500.484	2.93
500.832	2.91
501.181	2.91
501.529	2.92
501.878	2.95
502.226	2.96
502.574	2.97
502.923	2.97
503.271	2.96
503.619	2.95
503.967	2.96
504.315	2.95
504.663	2.94
505.011	2.93
505.359	2.95
505.707	2.97
506.055	2.96
506.403	2.98
506.751	2.98
507.098	2.99
507.446	2.99
507.794	3
508.141	2.99
508.489	2.99
508.837	3.01
509.184	2.98
509.531	3.01
509.879	3.02
510.226	3.05
510.574	3.04
510.921	3.05
511.268	3.06
511.616	3.07
511.963	3.08
512.31	3.08
512.657	3.08
513.004	3.09
513.351	3.11
513.698	3.12
514.045	3.11
514.392	3.11
514.739	3.11
515.086	3.1
515.432	3.12
515.779	3.11
516.126	3.13
516.473	3.15
516.819	3.16
517.166	3.15
517.512	3.14
517.859	3.16
518.205	3.16
518.552	3.15
518.898	3.15
519.245	3.14
519.591	3.16
519.937	3.15
520.283	3.14
520.629	3.15
520.976	3.14
521.322	3.15
521.668	3.15
522.014	3.14
522.36	3.15
522.706	3.15
523.052	3.16
523.398	3.16
523.743	3.15
524.089	3.15
524.435	3.15
524.781	3.14
525.126	3.14
525.472	3.15
525.817	3.15
526.163	3.16
526.509	3.17
526.854	3.18
527.199	3.19
527.545	3.19
527.89	3.2
528.235	3.2
528.581	3.21
528.926	3.21
529.271	3.21
529.616	3.22
529.961	3.21
530.306	3.22
530.651	3.21
530.996	3.22
531.341	3.21
531.686	3.21
532.031	3.21
532.376	3.21
532.721	3.21
533.065	3.19
533.41	3.19
533.755	3.19
534.099	3.17
534.444	3.17
534.788	3.17
535.133	3.16
535.477	3.16
535.822	3.15
536.166	3.15
536.51	3.15
536.855	3.15
537.199	3.17
537.543	3.15
537.887	3.17
538.231	3.15
538.576	3.18
538.92	3.19
539.264	3.2
539.608	3.2
539.951	3.22
540.295	3.23
540.639	3.24
540.983	3.23
541.327	3.22
541.671	3.21
542.014	3.21
542.358	3.22
542.701	3.24
543.045	3.25
543.389	3.26
543.732	3.25
544.075	3.26
544.419	3.26
544.762	3.24
545.105	3.23
545.449	3.24
545.792	3.23
546.135	3.22
546.478	3.22
546.821	3.19
547.165	3.17
547.508	3.18
547.851	3.17
548.194	3.18
548.536	3.21
548.879	3.22
549.222	3.19
549.565	3.17
549.908	3.14
550.25	3.15
550.593	3.14
550.936	3.13
551.278	3.12
551.621	3.11
551.963	3.13
552.306	3.12
552.648	3.1
552.991	3.13
553.333	3.16
553.675	3.16
554.017	3.17
554.36	3.2
554.702	3.22
555.044	3.21
555.386	3.21
555.728	3.21
556.07	3.22
556.412	3.23
556.754	3.23
557.096	3.26
557.438	3.23
557.78	3.23
558.121	3.27
558.463	3.26
558.805	3.25
559.147	3.25
559.488	3.25
559.83	3.27
560.171	3.25
560.513	3.24
560.854	3.25
561.196	3.26
561.537	3.27
561.878	3.25
562.22	3.25
562.561	3.25
562.902	3.23
563.243	3.21
563.584	3.24
563.925	3.28
564.266	3.26
564.607	3.27
564.948	3.27
565.289	3.26
565.63	3.26
565.971	3.29
566.312	3.3
566.653	3.32
566.993	3.3
567.334	3.28
567.675	3.27
568.015	3.26
568.356	3.26
568.696	3.23
569.037	3.23
569.377	3.26
569.718	3.28
570.058	3.28
570.398	3.3
570.739	3.3
571.079	3.29
571.419	3.31
571.759	3.33
572.099	3.32
572.439	3.33
572.779	3.35
573.119	3.34
573.459	3.35
573.799	3.36
574.139	3.37
574.479	3.39
574.819	3.39
575.158	3.39
575.498	3.38
575.838	3.41
576.177	3.4
576.517	3.35
576.856	3.34
577.196	3.37
577.535	3.36
577.875	3.37
578.214	3.35
578.553	3.38
578.893	3.37
579.232	3.39
579.571	3.35
579.91	3.33
580.25	3.32
580.589	3.31
580.928	3.29
581.267	3.29
581.606	3.28
581.945	3.32
582.283	3.3
582.622	3.33
582.961	3.29
583.3	3.31
583.639	3.33
583.977	3.3
584.316	3.32
584.654	3.3
584.993	3.29
585.332	3.27
585.67	3.23
586.008	3.2
586.347	3.18
586.685	3.2
587.024	3.2
587.362	3.23
587.7	3.24
588.038	3.27
588.376	3.3
588.715	3.29
589.053	3.26
589.391	3.27
589.729	3.25
590.067	3.24
590.404	3.23
590.742	3.23
591.08	3.23
591.418	3.22
591.756	3.23
592.093	3.24
592.431	3.25
592.769	3.28
593.106	3.28
593.444	3.28
593.781	3.27
594.119	3.29
594.456	3.27
594.793	3.25
595.131	3.22
595.468	3.2
595.805	3.21
596.143	3.2
596.48	3.18
596.817	3.18
597.154	3.19
597.491	3.18
597.828	3.19
598.165	3.18
598.502	3.15
598.839	3.15
599.176	3.16
599.512	3.14
599.849	3.14
600.186	3.14
600.523	3.15
600.859	3.2
601.196	3.19
601.532	3.19
601.869	3.17
602.205	3.14
602.542	3.14
602.878	3.15
603.215	3.15
603.551	3.17
603.887	3.21
604.223	3.26
604.56	3.29
604.896	3.27
605.232	3.29
605.568	3.31
605.904	3.32
606.24	3.3
606.576	3.32
606.912	3.3
607.248	3.29
607.583	3.3
607.919	3.28
608.255	3.23
608.591	3.26
608.926	3.29
609.262	3.32
609.597	3.36
609.933	3.34
610.268	3.37
610.604	3.38
610.939	3.38
611.275	3.33
611.61	3.29
611.945	3.29
612.281	3.3
612.616	3.29
612.951	3.29
613.286	3.28
613.621	3.28
613.956	3.26
614.291	3.25
614.626	3.25
614.961	3.27
615.296	3.29
615.631	3.27
615.966	3.3
616.3	3.3
616.635	3.24
616.97	3.28
617.304	3.23
617.639	3.24
617.973	3.22
618.308	3.24
618.642	3.27
618.977	3.29
619.311	3.3
619.646	3.29
619.98	3.29
620.314	3.31
620.648	3.33
620.983	3.35
621.317	3.37
621.651	3.34
621.985	3.38
622.319	3.4
622.653	3.43
622.987	3.41
623.321	3.39
623.655	3.42
623.988	3.46
624.322	3.45
624.656	3.45
624.99	3.44
625.323	3.4
625.657	3.42
625.99	3.45
626.324	3.38
626.657	3.38
626.991	3.34
627.324	3.34
627.658	3.34
627.991	3.38
628.324	3.39
628.657	3.42
628.991	3.38
629.324	3.41
629.657	3.41
629.99	3.45
630.323	3.48
630.656	3.5
630.989	3.46
631.322	3.52
631.655	3.48
631.987	3.49
632.32	3.54
632.653	3.51
632.986	3.48
633.318	3.5
633.651	3.51
633.984	3.57
634.316	3.57
634.649	3.52
634.981	3.5
635.313	3.52
635.646	3.47
635.978	3.47
636.31	3.44
636.643	3.43
636.975	3.41
637.307	3.44
637.639	3.43
637.971	3.36
638.303	3.31
638.635	3.33
638.967	3.35
639.299	3.34
639.631	3.38
639.963	3.43
640.295	3.45
640.626	3.48
640.958	3.49
641.29	3.51
641.621	3.58
641.953	3.54
642.285	3.52
642.616	3.59
642.948	3.55
643.279	3.58
643.61	3.53
643.942	3.56
644.273	3.48
644.604	3.43
644.936	3.52
645.267	3.51
645.598	3.52
645.929	3.53
646.26	3.58
646.591	3.53
646.922	3.44
647.253	3.48
647.584	3.46
647.915	3.36
648.245	3.37
648.576	3.37
648.907	3.42
649.238	3.43
649.568	3.45
649.899	3.46
650.229	3.46
650.56	3.53
650.89	3.43
651.221	3.49
651.551	3.49
651.882	3.48
652.212	3.51
652.542	3.48
652.872	3.41
653.203	3.37
653.533	3.42
653.863	3.5
654.193	3.46
654.523	3.45
654.853	3.55
655.183	3.48
655.513	3.47
655.843	3.4
656.172	3.38
656.502	3.37
656.832	3.36
657.162	3.38
657.491	3.3
657.821	3.33
658.15	3.32
658.48	3.33
658.809	3.31
659.139	3.29
659.468	3.26
659.798	3.3
660.127	3.3
660.456	3.32
660.785	3.3
661.115	3.3
661.444	3.3
661.773	3.3
662.102	3.33
662.431	3.38
662.76	3.35
663.089	3.36
663.418	3.33
663.747	3.31
664.076	3.3
664.404	3.36
664.733	3.37
665.062	3.4
665.39	3.39
665.719	3.37
666.048	3.36
666.376	3.4
666.705	3.34
667.033	3.3
667.362	3.23
667.69	3.2
668.018	3.2
668.347	3.24
668.675	3.21
669.003	3.24
669.331	3.27
669.659	3.36
669.987	3.33
670.315	3.32
670.643	3.3
670.971	3.24
671.299	3.25
671.627	3.27
671.955	3.23
672.283	3.21
672.61	3.28
672.938	3.27
673.266	3.36
673.593	3.46
673.921	3.53
674.249	3.57
674.576	3.51
674.904	3.53
675.231	3.44
675.558	3.38
675.886	3.36
676.213	3.29
676.54	3.3
676.867	3.35
677.195	3.38
677.522	3.47
677.849	3.55
678.176	3.56
678.503	3.54
678.83	3.55
679.157	3.61
679.484	3.53
679.81	3.66
680.137	3.53
680.464	3.41
680.791	3.38
681.117	3.37
681.444	3.43
681.771	3.37
682.097	3.4
682.424	3.49
682.75	3.45
683.077	3.44
683.403	3.41
683.729	3.42
684.056	3.41
684.382	3.46
684.708	3.37
685.034	3.36
685.36	3.35
685.686	3.24
686.012	3.19
686.339	3.3
686.664	3.19
686.99	3.28
687.316	3.37
687.642	3.38
687.968	3.44
688.294	3.45
688.619	3.57
688.945	3.53
689.271	3.48
689.596	3.52
689.922	3.56
690.247	3.58
690.573	3.58
690.898	3.56
691.224	3.45
691.549	3.49
691.874	3.45
692.2	3.45
692.525	3.66
692.85	3.67
693.175	3.6
693.5	3.63
693.825	3.66
694.15	3.64
694.475	3.63
694.8	3.58
695.125	3.52
695.45	3.46
695.775	3.57
696.099	3.64
696.424	3.64
696.749	3.61
697.073	3.57
697.398	3.57
697.723	3.6
698.047	3.58
698.372	3.57
698.696	3.58
699.02	3.63
699.345	3.53
699.669	3.58
699.993	3.55
700.318	3.57
700.642	3.59
700.966	3.57
701.29	3.65
701.614	3.57
701.938	3.71
702.262	3.82
702.586	3.75
702.91	3.71
703.234	3.76
703.557	3.72
703.881	3.79
704.205	3.79
704.529	3.71
704.852	3.73
705.176	3.81
705.499	3.8
705.823	3.72
706.146	3.74
706.47	3.8
706.793	3.83
707.117	3.84
707.44	3.75
707.763	3.78
708.086	3.66
708.409	3.63
708.733	3.58
709.056	3.62
709.379	3.67
709.702	3.69
710.025	3.64
710.348	3.71
710.671	3.62
710.993	3.63
711.316	3.71
711.639	3.81
711.962	3.78
712.284	3.78
712.607	3.8
712.93	3.87
713.252	3.77
713.575	3.76
713.897	3.79
714.22	3.88
714.542	3.97
714.864	3.96
715.187	4.2
715.509	4.12
715.831	4.04
716.153	4.11
716.475	4.15
716.798	4.17
717.12	4.16
717.442	4.29
717.764	4.27
718.085	4.4
718.407	4.36
718.729	4.38
719.051	4.38
719.373	4.41
719.695	4.44
720.016	4.59
720.338	4.57
720.659	4.5
720.981	4.44
721.302	4.41
721.624	4.42
721.945	4.37
722.267	4.42
722.588	4.44
722.909	4.37
723.231	4.14
723.552	4.09
723.873	4.11
724.194	4.06
724.515	4.11
724.836	3.9
725.157	3.98
725.478	3.77
725.799	3.81
726.12	3.82
726.441	3.73
726.762	3.59
727.083	3.71
727.403	3.81
727.724	3.84
728.045	3.83
728.365	3.77
728.686	3.74
729.006	3.78
729.327	3.73
729.647	3.82
729.967	4.21
730.288	4.23
730.608	4.1
730.928	4.06
731.249	4.06
731.569	4.15
731.889	3.97
732.209	4.05
732.529	4.22
732.849	4.09
733.169	3.88
733.489	3.94
733.809	3.97
734.129	3.88
734.448	3.87
734.768	3.75
735.088	3.9
735.408	3.92
735.727	3.95
736.047	4.11
736.366	3.89
736.686	3.68
737.005	3.7
737.325	3.84
737.644	3.9
737.963	3.87
738.283	3.74
738.602	3.84
738.921	4.01
739.24	3.8
739.56	3.9
739.879	4.22
740.198	4.14
740.517	4.01
740.836	4.07
741.155	4.11
741.473	4.29
741.792	4.31
742.111	4.27
742.43	4.07
742.748	3.85
743.067	4
743.386	3.95
743.704	3.88
744.023	3.83
744.341	3.63
744.66	3.74
744.978	3.49
745.297	3.58
745.615	3.3
745.933	3.51
746.252	3.69
746.57	3.58
746.888	3.58
747.206	3.69
747.524	3.75
747.842	3.82
748.16	3.84
748.478	3.84
748.796	3.83
749.114	4.04
749.432	4.05
749.749	4.03
750.067	4
750.385	4
750.703	3.9
751.02	4.03
751.338	3.97
751.655	4.26
751.973	4.19
752.29	4.08
752.608	4.02
752.925	3.93
753.242	4
753.56	4.04
753.877	3.89
754.194	3.64
754.511	3.74
754.828	3.63
755.145	3.41
755.462	3.45
755.779	3.41
756.096	3.7
756.413	3.84
756.73	4.08
757.047	4.35
757.364	4.36
757.68	4.43
757.997	4.4
758.314	4.63
758.63	4.63
758.947	4.74
759.264	4.62
759.58	4.43
759.896	4.48
760.213	4.5
760.529	4.65
760.846	4.99
761.162	4.72
761.478	4.68
761.794	4.9
762.11	4.82
762.426	4.94
762.743	4.88
763.059	4.88
763.375	4.62
763.69	4.59
764.006	4.81
764.322	4.88
764.638	5.07
764.954	5.1
765.27	5.1
765.585	5.2
765.901	5.24
766.216	5.35
766.532	5.2
766.848	5.1
767.163	4.97
767.478	4.73
767.794	4.82
768.109	4.7
768.424	4.7
768.74	4.83
769.055	4.61
769.37	4.51
769.685	4.31
770	4.88
770.315	4.68
770.63	4.5
770.945	4.38
771.26	4.08
771.575	3.83
771.89	3.75
772.205	3.79
772.52	3.9
772.834	3.75
773.149	4.03
773.464	4.25
773.778	4.72
774.093	4.74
774.407	4.74
774.722	5.13
775.036	5.02
775.351	4.96
775.665	4.94
775.979	4.82
776.293	4.83
776.608	4.47
776.922	4.16
777.236	4.2
777.55	4.26
777.864	4.25
778.178	4.62
778.492	5.08
778.806	5.18
779.12	5.17
779.434	5.31
779.747	5.2
780.061	5.37
780.375	4.96
780.689	5
781.002	4.9
781.316	4.94
781.629	5.03
781.943	5.07
782.256	5.25
782.57	5.09
782.883	4.87
783.196	4.84
783.51	5.28
783.823	5.23
784.136	5.31
784.449	5.52
784.762	5.5
785.075	5.48
785.388	5.49
785.701	5.43
786.014	5.63
786.327	5.9
786.64	5.84
786.953	5.92
787.266	5.91
787.578	5.89
787.891	5.7
788.204	5.64
788.516	5.26
788.829	5.19
789.141	5.59
789.454	5.98
789.766	5.92
790.079	6.03
790.391	6.1
790.703	5.72
791.016	5.61
791.328	5.14
791.64	4.53
791.952	4.72
792.264	4.37
792.576	4
792.888	4.03
793.2	3.93
793.512	3.85
793.824	4
794.136	4.08
794.448	4.19
794.76	4.02
795.071	4.32
795.383	3.94
795.695	3.49
796.006	3.43
796.318	3.17
796.629	3.13
796.941	3.14
797.252	3.87
797.564	4.03
797.875	4.23
798.186	4.35
798.497	3.75
798.809	3.56
799.12	3.74
799.431	3.29
799.742	3.38
800.053	3.5
800.364	3
800.675	2.79
800.986	2.79
801.297	2.75
801.608	2.62
801.918	2.71
802.229	2.96
802.54	2.91
802.851	2.69
803.161	2.75
803.472	2.81
803.782	2.27
804.093	2.35
804.403	2.29
804.714	2.35
805.024	2.54
805.334	3.36
805.645	3.34
805.955	3.4
806.265	3.29
806.575	3.18
806.885	3.61
807.195	4
807.505	3.84
807.815	4.1
808.125	3.98
808.435	4.23
808.745	3.67
809.055	3.75
809.365	3.9
809.674	3.8
809.984	3.74
810.294	3.38
810.603	3.42
810.913	3.7
811.222	3.7
811.532	3.96
811.841	4.16
812.151	4.77
812.46	4.53
812.769	3.96
813.079	4.3
813.388	4.94
813.697	4.92
814.006	4.52
814.315	4.42
814.624	4.42
814.933	4.34
815.242	4.89
815.551	4.94
815.86	4.94
816.169	4.68
816.478	4.43
816.786	5.08
817.095	4.98
817.404	5.14
817.712	5.02
818.021	4.5
818.33	4.4
818.638	3.98
818.947	4.71
819.255	5.36
819.563	5.14
819.872	4.89
820.18	5.23
820.488	5.65
820.796	5.96
821.105	6.15
821.413	6.35
821.721	6.31
822.029	6.45
822.337	6.73
822.645	6.95
822.953	6.95
823.26	6.94
823.568	6.87
823.876	6.77
824.184	6.76
824.491	6.92
824.799	6.87
825.107	6.93
825.414	6.83
825.722	6.93
826.029	7.02
826.337	7.1
826.644	7.04
826.951	6.82
827.259	6.62
827.566	6.48
827.873	6.36
828.18	6.45
828.488	6.37
828.795	6.24
829.102	6.19
829.409	6.21
829.716	5.9
830.023	5.88
830.329	5.9
830.636	5.92
830.943	5.89
831.25	5.62
831.557	5.69
831.863	5.83
832.17	5.29
832.476	5.48
832.783	5.66
833.089	5.69
833.396	6.04
833.702	6.32
834.009	6.4
834.315	6.61
834.621	6.68
834.928	6.27
835.234	6.3
835.54	6.13
835.846	6.39
836.152	6.72
836.458	6.71
836.764	6.29
837.07	6.4
837.376	5.88
837.682	6.13
837.988	6.12
838.293	5.58
838.599	5.96
838.905	5.43
839.211	5.35
839.516	5.14
839.822	4.41
840.127	4.43
840.433	5.02
840.738	4.92
841.044	4.98
841.349	5.54
841.654	5.48
841.959	5.02
842.265	4.59
842.57	4.34
842.875	4.13
843.18	5.04
843.485	5.37
843.79	5.91
844.095	5.7
844.4	5.45
844.705	5.62
845.01	4.77
845.315	3.42
845.619	2.55
845.924	2.25
846.229	2.53
846.533	1.58
846.838	1.24
847.142	-0.16
847.447	-1.96
847.751	-2.94
848.056	-3.53
848.36	-3.17
848.664	-3.85
848.969	-4.75
849.273	-6.01
849.577	-6.91
849.881	-8.31
850.185	-8.15
850.489	-7.61
850.794	-8.64
851.097	-7.02
851.401	-6.18
851.705	-4.6
852.009	-3.13
852.313	-2.66
852.617	-1.59
852.92	0.16
853.224	-0.44
853.528	1.62
853.831	1.45
854.135	1.83
854.438	-0.22
854.742	-0.47
855.045	-0.13
855.349	0.19
855.652	2.07
855.955	2.38
856.259	4.37
856.562	5.15
856.865	4.27
857.168	3.58
857.471	3.14
857.774	2.72
858.077	4.41
858.38	2.87
858.683	2.07
858.986	1.63
859.289	0.06
859.592	-1.52
859.894	-4.04
860.197	-3.18
860.5	-4.21
860.802	-3.95
861.105	-4.99
861.407	-6.53
861.71	-6.15
862.012	-6.96
862.315	-6.69
862.617	-8.22
862.919	-9.89
863.222	-10.02
863.524	-8.53
863.826	-8.98
864.128	-7.92
864.43	-9.13
864.732	-7.98
865.034	-9.13
865.336	-10.52
865.638	-10.8
865.94	-10.32
866.242	-8.84
866.544	-9.17
866.846	-7.8
867.147	-5.9
867.449	-6.79
867.751	-5.58
868.052	-4.77
868.354	-5.07
868.655	-7.02
868.957	-7.68
869.258	-5.7
869.56	-3.5
869.861	-3.44
870.162	-2.8
870.463	-3.05
870.765	-1.1
871.066	-1.19
871.367	-0.23
871.668	0.95
871.969	-0.38
872.27	-0.74
872.571	-1
872.872	-0.42
873.173	-0.18
873.473	-0.81
873.774	0.07
874.075	1.46
874.376	-0.85
874.676	0.85
874.977	1.65
875.277	2.45
875.578	2.84
875.878	0.89
876.179	0.55
876.479	-0.16
876.78	-1.23
877.08	-3.98
877.38	-5.1
877.68	-4.75
877.981	-4.75
878.281	-2.48
878.581	0.64
