Data from BU26944_Reflection_00007.txt Node
Date: Tue Nov 19 10:54:41 EST 2019
User: vgr7
Spectrometer: USB2G7710
Scans to average: 3
Trigger mode: 4
Integration Time (sec): 2.000000E-2
Electric dark correction enabled: true
Boxcar width: 10
XAxis mode: Wavelengths
Number of Pixels in Spectrum: 2048
>>>>>Begin Spectral Data<<<<<
177.721	11.94
178.105	69.03
178.488	33.29
178.871	274.29
179.254	-1080
179.636	-9.96
180.019	-26.77
180.402	-450
180.785	-28.24
181.168	-21.18
181.55	84.98
181.933	129.56
182.316	50.81
182.698	23.19
183.081	-1.9
183.463	-12.14
183.846	21.22
184.228	60.15
184.611	-372.97
184.993	-188.57
185.376	-302.26
185.758	310.84
186.14	568.42
186.522	-338.39
186.904	-209.64
187.287	-139.48
187.669	4.8
188.051	43.84
188.433	22.19
188.815	3.43
189.197	11.81
189.579	36.54
189.961	51.72
190.342	46.5
190.724	51.49
191.106	31.25
191.488	16.41
191.869	39.56
192.251	45.22
192.633	76.44
193.014	110.05
193.396	138.63
193.777	103.71
194.159	100.24
194.54	167.69
194.922	140.53
195.303	133.15
195.684	105.33
196.065	82.59
196.447	108.52
196.828	119.69
197.209	120.24
197.59	98.39
197.971	95.87
198.352	102.23
198.733	83.34
199.114	75.4
199.495	74.64
199.876	78.58
200.257	77.66
200.638	52.5
201.018	29.36
201.399	21.65
201.78	9.91
202.16	-0
202.541	-23.16
202.922	-18.47
203.302	-10.78
203.683	1.82
204.063	7.57
204.444	21.39
204.824	23.87
205.204	15.61
205.585	22.03
205.965	36.4
206.345	32.08
206.725	56.12
207.106	73.06
207.486	100.42
207.866	114.1
208.246	91.95
208.626	90.52
209.006	85.47
209.386	109.68
209.766	114.07
210.145	138.1
210.525	192.95
210.905	175.89
211.285	146.59
211.664	119.31
212.044	116.36
212.424	91.47
212.803	108.64
213.183	94.2
213.562	104.26
213.942	78.85
214.321	72.24
214.701	96.2
215.08	76.93
215.459	92.34
215.838	96.05
216.218	146.31
216.597	178.89
216.976	171.87
217.355	130.7
217.734	170.43
218.113	121.47
218.492	95.53
218.871	93.82
219.25	102.83
219.629	123.15
220.008	155.71
220.387	166.39
220.766	157.26
221.144	213.27
221.523	227.56
221.902	191.58
222.28	148.29
222.659	80.74
223.037	88.92
223.416	44.7
223.794	29.47
224.173	14.5
224.551	2.7
224.929	-6.27
225.308	-8.55
225.686	-3.89
226.064	-6.88
226.442	-8.49
226.821	-10.68
227.199	-11.29
227.577	-10.3
227.955	-11.21
228.333	-9.08
228.711	-11.28
229.089	-11.34
229.467	-11.38
229.845	-10.9
230.222	-9.63
230.6	-5.5
230.978	-4.04
231.356	-5.35
231.733	-2.17
232.111	0.74
232.488	4.4
232.866	6.6
233.243	7.79
233.621	6.46
233.998	7.12
234.376	8.33
234.753	10.86
235.13	8.99
235.508	8.47
235.885	9.86
236.262	7.71
236.639	7.31
237.016	7.15
237.393	7.51
237.77	7.65
238.147	7.19
238.524	6.4
238.901	6.58
239.278	7.54
239.655	6.73
240.032	6.41
240.409	5.97
240.785	6.19
241.162	6.08
241.539	5.96
241.915	6.16
242.292	6.14
242.668	6.36
243.045	7.03
243.421	7.42
243.798	7.2
244.174	7.37
244.551	7.03
244.927	6.65
245.303	6.41
245.679	6.23
246.056	6.23
246.432	6.1
246.808	6.2
247.184	5.99
247.56	5.84
247.936	5.94
248.312	6.03
248.688	5.98
249.064	5.79
249.44	5.74
249.815	5.81
250.191	5.67
250.567	5.31
250.943	5.14
251.318	4.8
251.694	4.74
252.069	4.94
252.445	5.17
252.82	5.65
253.196	5.8
253.571	6.04
253.947	5.97
254.322	5.95
254.697	5.6
255.073	5.56
255.448	5.41
255.823	5.05
256.198	4.75
256.573	4.37
256.948	4.46
257.323	4.36
257.698	4.22
258.073	4.09
258.448	4.16
258.823	4.09
259.198	4
259.573	3.8
259.948	3.75
260.322	3.67
260.697	3.47
261.072	3.39
261.446	3.38
261.821	3.35
262.195	3.27
262.57	3.36
262.944	3.21
263.319	3.26
263.693	3.39
264.067	3.34
264.442	3.32
264.816	3.21
265.19	3.31
265.564	2.99
265.938	2.91
266.313	2.82
266.687	2.87
267.061	3.02
267.435	3.32
267.809	3.13
268.183	2.96
268.556	3.05
268.93	3.23
269.304	3.06
269.678	3.21
270.051	3.4
270.425	3.49
270.799	3.55
271.172	3.7
271.546	3.68
271.919	3.62
272.293	3.73
272.666	3.69
273.04	3.68
273.413	3.81
273.787	3.9
274.16	3.79
274.533	3.66
274.906	3.63
275.279	3.4
275.653	3.54
276.026	3.65
276.399	3.53
276.772	3.47
277.145	3.58
277.518	3.31
277.891	3.22
278.263	3.21
278.636	3.5
279.009	3.43
279.382	3.38
279.755	3.42
280.127	3.48
280.5	3.58
280.872	3.61
281.245	3.64
281.617	3.67
281.99	3.92
282.362	3.96
282.735	3.95
283.107	4.01
283.479	4.08
283.852	4.18
284.224	4.28
284.596	4.11
284.968	3.98
285.34	4.1
285.713	4.21
286.085	4.13
286.457	4.02
286.829	4.01
287.201	3.93
287.572	3.98
287.944	3.88
288.316	3.86
288.688	3.89
289.06	3.96
289.431	4.1
289.803	4.02
290.175	3.96
290.546	3.96
290.918	3.99
291.289	3.71
291.661	3.67
292.032	3.51
292.403	3.57
292.775	3.63
293.146	3.7
293.517	3.58
293.889	3.6
294.26	3.59
294.631	3.49
295.002	3.6
295.373	3.58
295.744	3.66
296.115	3.71
296.486	3.65
296.857	3.6
297.228	3.52
297.599	3.55
297.97	3.65
298.34	3.74
298.711	3.85
299.082	3.96
299.452	3.95
299.823	4
300.194	4.06
300.564	4.01
300.935	4
301.305	4.04
301.676	3.98
302.046	3.96
302.416	4.06
302.787	4.12
303.157	4.21
303.527	4.39
303.897	4.36
304.267	4.42
304.637	4.53
305.008	4.49
305.378	4.5
305.748	4.52
306.117	4.49
306.487	4.41
306.857	4.49
307.227	4.57
307.597	4.64
307.967	4.64
308.336	4.73
308.706	4.84
309.076	4.93
309.445	5.05
309.815	5.15
310.184	5.11
310.554	5.08
310.923	5.01
311.293	4.89
311.662	4.9
312.031	4.97
312.401	4.99
312.77	5.08
313.139	5.04
313.508	5.02
313.877	5.03
314.246	5.06
314.616	5.12
314.985	5.05
315.353	5.09
315.722	5.17
316.091	5.31
316.46	5.35
316.829	5.41
317.198	5.38
317.567	5.34
317.935	5.42
318.304	5.58
318.672	5.79
319.041	5.86
319.41	5.99
319.778	6.11
320.147	6.12
320.515	6.19
320.883	6.35
321.252	6.44
321.62	6.47
321.988	6.58
322.357	6.61
322.725	6.85
323.093	6.96
323.461	6.96
323.829	6.97
324.197	7.03
324.565	6.84
324.933	6.93
325.301	7.01
325.669	7.1
326.037	7.07
326.405	6.94
326.772	6.96
327.14	6.95
327.508	6.8
327.875	6.76
328.243	6.69
328.61	6.73
328.978	6.78
329.346	7.03
329.713	6.99
330.08	7.11
330.448	7.08
330.815	7.12
331.182	7.11
331.55	6.99
331.917	6.85
332.284	7.11
332.651	7.14
333.018	7.08
333.385	7.1
333.752	7.21
334.119	7.26
334.486	7.34
334.853	7.34
335.22	7.51
335.587	7.66
335.954	7.73
336.32	7.65
336.687	7.67
337.054	7.51
337.42	7.63
337.787	7.54
338.153	7.47
338.52	7.39
338.886	7.5
339.253	7.5
339.619	7.53
339.986	7.49
340.352	7.61
340.718	7.67
341.084	7.76
341.451	7.64
341.817	7.71
342.183	7.75
342.549	7.82
342.915	7.7
343.281	7.71
343.647	7.67
344.013	7.67
344.379	7.62
344.745	7.68
345.11	7.56
345.476	7.62
345.842	7.62
346.208	7.67
346.573	7.7
346.939	7.81
347.304	7.84
347.67	7.79
348.035	7.62
348.401	7.61
348.766	7.54
349.132	7.6
349.497	7.57
349.862	7.57
350.228	7.47
350.593	7.49
350.958	7.58
351.323	7.73
351.688	7.79
352.053	7.85
352.418	7.88
352.783	7.92
353.148	7.9
353.513	7.88
353.878	7.89
354.243	7.87
354.608	7.88
354.972	7.85
355.337	7.93
355.702	7.96
356.066	8.02
356.431	7.98
356.795	7.96
357.16	8
357.524	7.97
357.889	7.96
358.253	7.9
358.618	7.72
358.982	7.59
359.346	7.5
359.71	7.42
360.075	7.36
360.439	7.3
360.803	7.18
361.167	7.13
361.531	7.08
361.895	7
362.259	6.94
362.623	6.91
362.987	6.8
363.351	6.81
363.714	6.71
364.078	6.71
364.442	6.67
364.806	6.66
365.169	6.61
365.533	6.61
365.896	6.7
366.26	6.69
366.623	6.66
366.987	6.71
367.35	6.71
367.714	6.67
368.077	6.68
368.44	6.72
368.803	6.78
369.167	6.78
369.53	6.74
369.893	6.69
370.256	6.68
370.619	6.68
370.982	6.57
371.345	6.64
371.708	6.5
372.071	6.45
372.434	6.38
372.797	6.37
373.159	6.28
373.522	6.18
373.885	6.18
374.247	6.16
374.61	6.12
374.973	6.09
375.335	6.03
375.698	5.95
376.06	5.94
376.423	5.84
376.785	5.79
377.147	5.77
377.51	5.73
377.872	5.72
378.234	5.7
378.596	5.67
378.958	5.56
379.321	5.62
379.683	5.64
380.045	5.55
380.407	5.46
380.769	5.47
381.13	5.43
381.492	5.37
381.854	5.34
382.216	5.32
382.578	5.3
382.939	5.3
383.301	5.32
383.663	5.29
384.024	5.28
384.386	5.24
384.747	5.22
385.109	5.16
385.47	5.13
385.832	5.05
386.193	5.01
386.554	5.02
386.916	5.02
387.277	4.96
387.638	4.99
387.999	4.94
388.36	4.88
388.721	4.88
389.082	4.87
389.443	4.84
389.804	4.81
390.165	4.8
390.526	4.8
390.887	4.71
391.248	4.7
391.609	4.7
391.969	4.7
392.33	4.67
392.691	4.65
393.051	4.62
393.412	4.61
393.772	4.61
394.133	4.58
394.493	4.5
394.854	4.49
395.214	4.43
395.574	4.41
395.935	4.41
396.295	4.36
396.655	4.34
397.015	4.33
397.376	4.3
397.736	4.21
398.096	4.14
398.456	4.16
398.816	4.12
399.176	4.07
399.535	4
399.895	3.98
400.255	3.96
400.615	3.91
400.975	3.92
401.334	3.92
401.694	3.89
402.054	3.9
402.413	3.86
402.773	3.84
403.132	3.85
403.492	3.83
403.851	3.82
404.211	3.78
404.57	3.73
404.929	3.73
405.288	3.77
405.648	3.79
406.007	3.77
406.366	3.75
406.725	3.75
407.084	3.75
407.443	3.75
407.802	3.72
408.161	3.74
408.52	3.7
408.879	3.69
409.238	3.68
409.596	3.66
409.955	3.64
410.314	3.62
410.673	3.59
411.031	3.59
411.39	3.58
411.748	3.6
412.107	3.62
412.465	3.59
412.824	3.57
413.182	3.54
413.54	3.53
413.899	3.54
414.257	3.55
414.615	3.54
414.974	3.51
415.332	3.53
415.69	3.49
416.048	3.47
416.406	3.44
416.764	3.42
417.122	3.38
417.48	3.39
417.838	3.37
418.195	3.38
418.553	3.37
418.911	3.36
419.269	3.34
419.626	3.34
419.984	3.33
420.342	3.33
420.699	3.32
421.057	3.3
421.414	3.29
421.772	3.25
422.129	3.25
422.486	3.25
422.844	3.25
423.201	3.25
423.558	3.25
423.915	3.26
424.273	3.26
424.63	3.28
424.987	3.29
425.344	3.3
425.701	3.28
426.058	3.28
426.415	3.26
426.772	3.25
427.128	3.25
427.485	3.24
427.842	3.23
428.199	3.23
428.555	3.24
428.912	3.23
429.269	3.24
429.625	3.23
429.982	3.23
430.338	3.21
430.695	3.2
431.051	3.2
431.407	3.19
431.764	3.19
432.12	3.19
432.476	3.19
432.832	3.17
433.189	3.17
433.545	3.17
433.901	3.17
434.257	3.16
434.613	3.14
434.969	3.14
435.325	3.14
435.681	3.12
436.036	3.12
436.392	3.12
436.748	3.13
437.104	3.14
437.459	3.13
437.815	3.13
438.171	3.15
438.526	3.15
438.882	3.15
439.237	3.15
439.593	3.14
439.948	3.13
440.304	3.13
440.659	3.14
441.014	3.15
441.369	3.16
441.725	3.15
442.08	3.16
442.435	3.16
442.79	3.15
443.145	3.18
443.5	3.17
443.855	3.17
444.21	3.17
444.565	3.16
444.92	3.17
445.275	3.16
445.629	3.17
445.984	3.15
446.339	3.13
446.693	3.12
447.048	3.11
447.403	3.1
447.757	3.1
448.112	3.09
448.466	3.09
448.82	3.08
449.175	3.1
449.529	3.1
449.883	3.1
450.238	3.1
450.592	3.09
450.946	3.1
451.3	3.1
451.654	3.06
452.008	3.05
452.362	3.04
452.716	3.05
453.07	3.02
453.424	3.03
453.778	3.04
454.132	3.02
454.486	3.01
454.839	3.03
455.193	3.03
455.547	3.05
455.9	3.03
456.254	3.03
456.607	3.02
456.961	3.02
457.314	3.01
457.668	3
458.021	3
458.375	2.98
458.728	3
459.081	3.01
459.434	3.02
459.787	3.03
460.141	3.03
460.494	3.04
460.847	3.04
461.2	3.06
461.553	3.08
461.906	3.08
462.259	3.08
462.611	3.06
462.964	3.06
463.317	3.06
463.67	3.06
464.022	3.07
464.375	3.06
464.728	3.05
465.08	3.06
465.433	3.06
465.785	3.07
466.138	3.06
466.49	3.07
466.843	3.07
467.195	3.08
467.547	3.06
467.899	3.09
468.252	3.11
468.604	3.09
468.956	3.1
469.308	3.11
469.66	3.13
470.012	3.15
470.364	3.15
470.716	3.18
471.068	3.2
471.42	3.21
471.772	3.24
472.123	3.25
472.475	3.25
472.827	3.27
473.178	3.29
473.53	3.3
473.882	3.32
474.233	3.33
474.585	3.3
474.936	3.32
475.288	3.31
475.639	3.3
475.99	3.32
476.342	3.3
476.693	3.3
477.044	3.29
477.395	3.3
477.746	3.28
478.097	3.28
478.448	3.26
478.8	3.25
479.15	3.23
479.501	3.23
479.852	3.21
480.203	3.21
480.554	3.2
480.905	3.19
481.255	3.18
481.606	3.18
481.957	3.2
482.307	3.19
482.658	3.19
483.009	3.18
483.359	3.18
483.709	3.18
484.06	3.19
484.41	3.2
484.761	3.19
485.111	3.19
485.461	3.19
485.811	3.19
486.162	3.19
486.512	3.19
486.862	3.19
487.212	3.21
487.562	3.19
487.912	3.2
488.262	3.21
488.612	3.21
488.961	3.21
489.311	3.22
489.661	3.22
490.011	3.21
490.36	3.21
490.71	3.2
491.06	3.22
491.409	3.21
491.759	3.21
492.108	3.21
492.458	3.22
492.807	3.22
493.157	3.24
493.506	3.24
493.855	3.24
494.204	3.24
494.554	3.23
494.903	3.27
495.252	3.26
495.601	3.26
495.95	3.28
496.299	3.3
496.648	3.28
496.997	3.3
497.346	3.34
497.695	3.37
498.043	3.42
498.392	3.41
498.741	3.43
499.09	3.44
499.438	3.45
499.787	3.47
500.135	3.5
500.484	3.53
500.832	3.57
501.181	3.6
501.529	3.64
501.878	3.68
502.226	3.71
502.574	3.75
502.923	3.78
503.271	3.8
503.619	3.82
503.967	3.86
504.315	3.88
504.663	3.91
505.011	3.95
505.359	3.95
505.707	3.99
506.055	4.04
506.403	4.08
506.751	4.12
507.098	4.14
507.446	4.18
507.794	4.22
508.141	4.25
508.489	4.3
508.837	4.34
509.184	4.38
509.531	4.43
509.879	4.48
510.226	4.55
510.574	4.62
510.921	4.67
511.268	4.73
511.616	4.78
511.963	4.83
512.31	4.88
512.657	4.96
513.004	5.02
513.351	5.08
513.698	5.16
514.045	5.24
514.392	5.34
514.739	5.42
515.086	5.5
515.432	5.58
515.779	5.64
516.126	5.74
516.473	5.82
516.819	5.9
517.166	5.97
517.512	6.04
517.859	6.08
518.205	6.13
518.552	6.21
518.898	6.3
519.245	6.38
519.591	6.46
519.937	6.53
520.283	6.63
520.629	6.71
520.976	6.81
521.322	6.9
521.668	7.01
522.014	7.12
522.36	7.24
522.706	7.35
523.052	7.5
523.398	7.62
523.743	7.74
524.089	7.86
524.435	8.01
524.781	8.15
525.126	8.28
525.472	8.41
525.817	8.49
526.163	8.58
526.509	8.67
526.854	8.76
527.199	8.85
527.545	8.92
527.89	9
528.235	9.08
528.581	9.16
528.926	9.23
529.271	9.3
529.616	9.39
529.961	9.48
530.306	9.55
530.651	9.63
530.996	9.73
531.341	9.83
531.686	9.93
532.031	10.03
532.376	10.12
532.721	10.22
533.065	10.35
533.41	10.48
533.755	10.6
534.099	10.72
534.444	10.84
534.788	10.98
535.133	11.12
535.477	11.23
535.822	11.38
536.166	11.53
536.51	11.7
536.855	11.87
537.199	12.01
537.543	12.2
537.887	12.4
538.231	12.57
538.576	12.76
538.92	12.94
539.264	13.11
539.608	13.29
539.951	13.44
540.295	13.58
540.639	13.73
540.983	13.89
541.327	14.04
541.671	14.17
542.014	14.33
542.358	14.49
542.701	14.65
543.045	14.8
543.389	14.96
543.732	15.1
544.075	15.26
544.419	15.44
544.762	15.61
545.105	15.78
545.449	16.01
545.792	16.2
546.135	16.4
546.478	16.6
546.821	16.85
547.165	17.09
547.508	17.34
547.851	17.59
548.194	17.83
548.536	18.08
548.879	18.35
549.222	18.6
549.565	18.84
549.908	19.08
550.25	19.35
550.593	19.66
550.936	19.94
551.278	20.23
551.621	20.49
551.963	20.78
552.306	21.07
552.648	21.33
552.991	21.61
553.333	21.89
553.675	22.16
554.017	22.39
554.36	22.66
554.702	22.91
555.044	23.18
555.386	23.45
555.728	23.74
556.07	23.98
556.412	24.2
556.754	24.47
557.096	24.77
557.438	25.11
557.78	25.38
558.121	25.69
558.463	25.97
558.805	26.3
559.147	26.58
559.488	26.88
559.83	27.17
560.171	27.43
560.513	27.68
560.854	28.04
561.196	28.34
561.537	28.64
561.878	28.97
562.22	29.26
562.561	29.55
562.902	29.79
563.243	30.12
563.584	30.43
563.925	30.72
564.266	31.01
564.607	31.23
564.948	31.46
565.289	31.68
565.63	31.94
565.971	32.2
566.312	32.47
566.653	32.69
566.993	32.95
567.334	33.23
567.675	33.5
568.015	33.72
568.356	34.02
568.696	34.3
569.037	34.53
569.377	34.71
569.718	34.94
570.058	35.19
570.398	35.45
570.739	35.7
571.079	35.95
571.419	36.15
571.759	36.42
572.099	36.64
572.439	36.9
572.779	37.14
573.119	37.34
573.459	37.54
573.799	37.75
574.139	37.93
574.479	38.14
574.819	38.39
575.158	38.57
575.498	38.72
575.838	38.94
576.177	39.13
576.517	39.42
576.856	39.64
577.196	39.9
577.535	40.05
577.875	40.21
578.214	40.4
578.553	40.61
578.893	40.78
579.232	41.01
579.571	41.21
579.91	41.4
580.25	41.61
580.589	41.81
580.928	42
581.267	42.25
581.606	42.38
581.945	42.54
582.283	42.75
582.622	42.97
582.961	43.1
583.3	43.29
583.639	43.48
583.977	43.7
584.316	43.79
584.654	44.02
584.993	44.31
585.332	44.48
585.67	44.63
586.008	44.75
586.347	44.88
586.685	45.04
587.024	45.17
587.362	45.3
587.7	45.45
588.038	45.64
588.376	45.75
588.715	45.89
589.053	45.99
589.391	46.11
589.729	46.26
590.067	46.44
590.404	46.54
590.742	46.63
591.08	46.69
591.418	46.88
591.756	47.02
592.093	47.06
592.431	47.19
592.769	47.35
593.106	47.47
593.444	47.6
593.781	47.65
594.119	47.84
594.456	47.95
594.793	47.99
595.131	48.02
595.468	48.09
595.805	48.23
596.143	48.33
596.48	48.43
596.817	48.46
597.154	48.54
597.491	48.59
597.828	48.7
598.165	48.84
598.502	48.95
598.839	49
599.176	49.16
599.512	49.27
599.849	49.34
600.186	49.52
600.523	49.54
600.859	49.67
601.196	49.71
601.532	49.78
601.869	49.83
602.205	49.93
602.542	50.03
602.878	50.11
603.215	50.13
603.551	50.22
603.887	50.31
604.223	50.37
604.56	50.43
604.896	50.52
605.232	50.54
605.568	50.64
605.904	50.68
606.24	50.77
606.576	50.87
606.912	50.98
607.248	50.97
607.583	51.1
607.919	51.16
608.255	51.19
608.591	51.29
608.926	51.47
609.262	51.63
609.597	51.69
609.933	51.65
610.268	51.84
610.604	51.83
610.939	51.88
611.275	51.95
611.61	52.04
611.945	52.09
612.281	52.15
612.616	52.11
612.951	52.18
613.286	52.21
613.621	52.31
613.956	52.4
614.291	52.54
614.626	52.61
614.961	52.68
615.296	52.81
615.631	52.86
615.966	52.86
616.3	52.88
616.635	52.85
616.97	52.95
617.304	53.01
617.639	53.13
617.973	53.15
618.308	53.14
618.642	53.21
618.977	53.25
619.311	53.29
619.646	53.39
619.98	53.46
620.314	53.43
620.648	53.4
620.983	53.39
621.317	53.4
621.651	53.43
621.985	53.51
622.319	53.52
622.653	53.59
622.987	53.71
623.321	53.71
623.655	53.78
623.988	53.81
624.322	53.86
624.656	53.9
624.99	53.98
625.323	54.07
625.657	54.09
625.99	54.05
626.324	54.09
626.657	54.14
626.991	54.12
627.324	54.21
627.658	54.2
627.991	54.24
628.324	54.23
628.657	54.35
628.991	54.47
629.324	54.49
629.657	54.52
629.99	54.53
630.323	54.54
630.656	54.61
630.989	54.64
631.322	54.61
631.655	54.58
631.987	54.6
632.32	54.59
632.653	54.7
632.986	54.71
633.318	54.76
633.651	54.74
633.984	54.85
634.316	54.83
634.649	54.92
634.981	54.93
635.313	55.03
635.646	54.95
635.978	54.88
636.31	54.81
636.643	54.81
636.975	54.74
637.307	54.79
637.639	54.81
637.971	54.8
638.303	54.78
638.635	54.81
638.967	54.9
639.299	54.87
639.631	54.79
639.963	54.9
640.295	54.99
640.626	54.97
640.958	55
641.29	55.1
641.621	55.06
641.953	55.09
642.285	55.13
642.616	55.19
642.948	55.18
643.279	55.28
643.61	55.37
643.942	55.46
644.273	55.4
644.604	55.44
644.936	55.52
645.267	55.67
645.598	55.71
645.929	55.65
646.26	55.71
646.591	55.71
646.922	55.73
647.253	55.66
647.584	55.71
647.915	55.69
648.245	55.71
648.576	55.7
648.907	55.71
649.238	55.73
649.568	55.66
649.899	55.77
650.229	55.87
650.56	55.76
650.89	55.78
651.221	55.92
651.551	55.87
651.882	55.92
652.212	55.83
652.542	55.86
652.872	55.9
653.203	55.93
653.533	56.01
653.863	56.03
654.193	56.12
654.523	56.09
654.853	56.1
655.183	56.07
655.513	56.12
655.843	56.23
656.172	56.29
656.502	56.39
656.832	56.39
657.162	56.36
657.491	56.4
657.821	56.32
658.15	56.34
658.48	56.5
658.809	56.53
659.139	56.67
659.468	56.76
659.798	56.75
660.127	56.74
660.456	56.74
660.785	56.8
661.115	56.75
661.444	56.9
661.773	56.96
662.102	56.99
662.431	57.14
662.76	57.07
663.089	57.08
663.418	57.01
663.747	56.99
664.076	57
664.404	56.99
664.733	57.07
665.062	57.09
665.39	57.01
665.719	57.02
666.048	56.97
666.376	56.95
666.705	57.07
667.033	57.05
667.362	57.09
667.69	57.01
668.018	57.06
668.347	56.96
668.675	57
669.003	57.06
669.331	56.98
669.659	56.96
669.987	56.88
670.315	56.95
670.643	56.87
670.971	56.97
671.299	57.13
671.627	57.1
671.955	57.07
672.283	57.01
672.61	57.04
672.938	57.07
673.266	57.04
673.593	56.99
673.921	57.06
674.249	57.01
674.576	57.12
674.904	57.05
675.231	57.23
675.558	57.21
675.886	57.16
676.213	57.2
676.54	57.19
676.867	57.24
677.195	57.34
677.522	57.28
677.849	57.25
678.176	57.22
678.503	57.32
678.83	57.31
679.157	57.47
679.484	57.39
679.81	57.44
680.137	57.48
680.464	57.55
680.791	57.6
681.117	57.67
681.444	57.68
681.771	57.83
682.097	57.73
682.424	57.77
682.75	57.82
683.077	57.85
683.403	57.9
683.729	57.91
684.056	57.89
684.382	58.01
684.708	57.94
685.034	57.98
685.36	57.96
685.686	57.98
686.012	58.1
686.339	58.26
686.664	58.23
686.99	58.09
687.316	58.04
687.642	58.04
687.968	58.06
688.294	58.1
688.619	57.99
688.945	57.94
689.271	58
689.596	57.9
689.922	57.87
690.247	58.02
690.573	58.01
690.898	58.17
691.224	58.21
691.549	58.33
691.874	58.12
692.2	58.09
692.525	58.07
692.85	57.83
693.175	57.76
693.5	57.74
693.825	57.78
694.15	57.78
694.475	57.8
694.8	57.77
695.125	57.77
695.45	57.73
695.775	57.79
696.099	57.76
696.424	57.92
696.749	57.88
697.073	57.76
697.398	57.84
697.723	57.79
698.047	57.73
698.372	57.74
698.696	57.9
699.02	58.01
699.345	58.12
699.669	58.1
699.993	58.17
700.318	58.23
700.642	58.31
700.966	58.32
701.29	58.36
701.614	58.39
701.938	58.36
702.262	58.56
702.586	58.61
702.91	58.5
703.234	58.42
703.557	58.46
703.881	58.47
704.205	58.32
704.529	58.29
704.852	58.24
705.176	58.27
705.499	58.33
705.823	58.27
706.146	58.18
706.47	58.32
706.793	58.45
707.117	58.51
707.44	58.55
707.763	58.57
708.086	58.53
708.409	58.57
708.733	58.67
709.056	58.58
709.379	58.78
709.702	58.85
710.025	58.86
710.348	58.83
710.671	58.8
710.993	58.8
711.316	58.93
711.639	59.25
711.962	59.1
712.284	59.24
712.607	59.32
712.93	59.25
713.252	59.36
713.575	59.25
713.897	59.03
714.22	58.97
714.542	59.05
714.864	59.1
715.187	58.95
715.509	58.88
715.831	58.9
716.153	58.74
716.475	58.6
716.798	58.73
717.12	58.77
717.442	58.88
717.764	58.97
718.085	58.78
718.407	58.4
718.729	58.53
719.051	58.39
719.373	58.36
719.695	58.5
720.016	58.29
720.338	58.25
720.659	58.39
720.981	58.62
721.302	58.61
721.624	58.65
721.945	58.63
722.267	58.62
722.588	58.54
722.909	58.34
723.231	58.62
723.552	58.58
723.873	58.36
724.194	58.46
724.515	58.75
724.836	58.85
725.157	59.2
725.478	59.31
725.799	59.32
726.12	59.23
726.441	59.08
726.762	59.15
727.083	59.18
727.403	58.99
727.724	58.91
728.045	58.9
728.365	58.83
728.686	59.39
729.006	59.29
729.327	59.46
729.647	59.68
729.967	59.62
730.288	59.51
730.608	59.75
730.928	59.69
731.249	59.48
731.569	59.42
731.889	59.36
732.209	59.29
732.529	59.28
732.849	59.28
733.169	59.34
733.489	59.34
733.809	59.38
734.129	59.61
734.448	59.46
734.768	59.27
735.088	59.1
735.408	58.52
735.727	58.59
736.047	58.49
736.366	58.46
736.686	58.45
737.005	58.67
737.325	58.77
737.644	58.74
737.963	58.7
738.283	58.6
738.602	58.58
738.921	58.24
739.24	58.37
739.56	58.49
739.879	58.77
740.198	58.83
740.517	58.66
740.836	58.73
741.155	58.82
741.473	58.77
741.792	59
742.111	59.38
742.43	59.34
742.748	59.33
743.067	59.32
743.386	59.33
743.704	58.93
744.023	58.61
744.341	58.56
744.66	58.61
744.978	58.68
745.297	58.82
745.615	59.24
745.933	59.28
746.252	59.36
746.57	59.41
746.888	59.15
747.206	59.07
747.524	58.96
747.842	58.92
748.16	59.11
748.478	59.42
748.796	59.56
749.114	59.7
749.432	59.58
749.749	59.52
750.067	59.72
750.385	59.98
750.703	60.22
751.02	60.39
751.338	60.42
751.655	60.61
751.973	60.9
752.29	60.68
752.608	60.33
752.925	60.46
753.242	60.49
753.56	60.59
753.877	60.71
754.194	60.82
754.511	60.86
754.828	60.94
755.145	60.68
755.462	60.3
755.779	60.16
756.096	60.4
756.413	60.23
756.73	59.89
757.047	60.05
757.364	59.76
757.68	59.77
757.997	59.6
758.314	59.51
758.63	59.22
758.947	59.37
759.264	59.55
759.58	59.35
759.896	59.6
760.213	59.71
760.529	59.74
760.846	59.37
761.162	59.18
761.478	58.96
761.794	58.97
762.11	59.08
762.426	59.04
762.743	59.12
763.059	59.32
763.375	59.65
763.69	59.61
764.006	59.96
764.322	60.07
764.638	60.22
764.954	60.42
765.27	60.54
765.585	60.51
765.901	60.32
766.216	60.48
766.532	60.13
766.848	60.02
767.163	60.27
767.478	60.47
767.794	60.9
768.109	61.12
768.424	60.87
768.74	60.92
769.055	61.01
769.37	61.26
769.685	61.53
770	61.2
770.315	61.3
770.63	61.59
770.945	61.3
771.26	61.4
771.575	61.1
771.89	60.98
772.205	61.06
772.52	61.24
772.834	61.19
773.149	61.45
773.464	61.61
773.778	61.65
774.093	61.81
774.407	61.65
774.722	61.79
775.036	62.53
775.351	62.44
775.665	62.76
775.979	62.69
776.293	62.17
776.608	62.63
776.922	62.68
777.236	62.53
777.55	62.58
777.864	62.53
778.178	62.42
778.492	62.27
778.806	62.55
779.12	62.72
779.434	62.65
779.747	62.2
780.061	62.2
780.375	62.22
780.689	62.37
781.002	62.51
781.316	62.73
781.629	62.29
781.943	62.29
782.256	62.26
782.57	61.63
782.883	61.69
783.196	61.69
783.51	61.47
783.823	60.64
784.136	60.24
784.449	60.17
784.762	60.44
785.075	60.37
785.388	60.14
785.701	59.74
786.014	59.76
786.327	59.86
786.64	60.22
786.953	60.07
787.266	59.98
787.578	59.91
787.891	59.91
788.204	60.26
788.516	60.42
788.829	60.46
789.141	60.84
789.454	60.74
789.766	60.83
790.079	60.4
790.391	61.01
790.703	61.54
791.016	61.39
791.328	61.41
791.64	61.32
791.952	61.66
792.264	61.88
792.576	62.27
792.888	62.26
793.2	62.29
793.512	62.03
793.824	61.95
794.136	61.93
794.448	61.69
794.76	61.52
795.071	61.47
795.383	61.41
795.695	61.3
796.006	61.22
796.318	60.41
796.629	60.87
796.941	60.48
797.252	60.05
797.564	60.05
797.875	60.21
798.186	60.37
798.497	59.66
798.809	59.78
799.12	59.47
799.431	59.34
799.742	58.95
800.053	59.42
800.364	59.76
800.675	60.07
800.986	60.33
801.297	60.32
801.608	60.57
801.918	60.31
802.229	60.11
802.54	60.64
802.851	61.36
803.161	61.46
803.472	61.48
803.782	61.96
804.093	61.77
804.403	61.93
804.714	62.14
805.024	62.88
805.334	63.54
805.645	63.37
805.955	63.97
806.265	64.34
806.575	64.09
806.885	63.93
807.195	64.29
807.505	63.61
807.815	63.76
808.125	63.31
808.435	63.7
808.745	64.19
809.055	64.3
809.365	63.89
809.674	64.26
809.984	64.82
810.294	65.07
810.603	65.29
810.913	64.93
811.222	64.59
811.532	64.27
811.841	63.81
812.151	63.83
812.46	64.34
812.769	64.49
813.079	64.41
813.388	64
813.697	62.67
814.006	63.42
814.315	63.65
814.624	63.39
814.933	63.27
815.242	63.33
815.551	63.69
815.86	63.83
816.169	63.31
816.478	62.99
816.786	63.12
817.095	63.35
817.404	62.7
817.712	63.07
818.021	62.63
818.33	62.98
818.638	63.48
818.947	62.7
819.255	62.4
819.563	62.19
819.872	62.02
820.18	62.11
820.488	61.79
820.796	61.75
821.105	61.97
821.413	61.62
821.721	61.3
822.029	61.14
822.337	61.07
822.645	61.15
822.953	61.22
823.26	61.16
823.568	61.09
823.876	61.29
824.184	61.34
824.491	61.35
824.799	61.33
825.107	61.15
825.414	61.35
825.722	61.38
826.029	61.29
826.337	61.42
826.644	61.49
826.951	61.47
827.259	61.17
827.566	61.07
827.873	61.4
828.18	61.66
828.488	61.76
828.795	62.02
829.102	61.86
829.409	62.18
829.716	62.08
830.023	62.45
830.329	62.34
830.636	62.32
830.943	62.85
831.25	62.29
831.557	62.36
831.863	61.96
832.17	61.62
832.476	61.79
832.783	62.31
833.089	62.42
833.396	62.73
833.702	63.08
834.009	63.45
834.315	63.15
834.621	62.93
834.928	62.76
835.234	62.74
835.54	62.8
835.846	62.34
836.152	62.88
836.458	62.75
836.764	62.79
837.07	62.68
837.376	62.22
837.682	62.72
837.988	63.45
838.293	63.54
838.599	64.11
838.905	64.69
839.211	65.14
839.516	65.12
839.822	65.43
840.127	65.98
840.433	65.32
840.738	65.89
841.044	66.45
841.349	66.67
841.654	66.78
841.959	67.69
842.265	67.99
842.57	67.97
842.875	67.47
843.18	67.49
843.485	66.97
843.79	67.54
844.095	68.07
844.4	66.9
844.705	66.79
845.01	67.57
845.315	67.66
845.619	65.19
845.924	65.55
846.229	65.46
846.533	65.41
846.838	65.59
847.142	65.48
847.447	65.5
847.751	65.12
848.056	64.71
848.36	65.69
848.664	65.71
848.969	65.65
849.273	66.63
849.577	67.01
849.881	68.69
850.185	69.32
850.489	69.44
850.794	68.7
851.097	69.45
851.401	67.91
851.705	65.53
852.009	67
852.313	65.28
852.617	65.06
852.92	66.72
853.224	67.74
853.528	69.41
853.831	70.85
854.135	73
854.438	71.73
854.742	69.59
855.045	69.32
855.349	68.01
855.652	67.13
855.955	66.65
856.259	67.27
856.562	67.63
856.865	66.13
857.168	65.12
857.471	64.67
857.774	65.14
858.077	67.56
858.38	66.97
858.683	68.12
858.986	67.48
859.289	66.48
859.592	66.1
859.894	66.88
860.197	63.45
860.5	62.73
860.802	64.46
861.105	64.46
861.407	65.4
861.71	64.79
862.012	68.23
862.315	70.37
862.617	69.68
862.919	68.28
863.222	71.53
863.524	73.11
863.826	72.12
864.128	73.17
864.43	72.54
864.732	74.41
865.034	74.99
865.336	76.22
865.638	74.36
865.94	74.84
866.242	71.13
866.544	72.72
866.846	72.58
867.147	73.63
867.449	75.6
867.751	74.45
868.052	73.75
868.354	71.21
868.655	68.35
868.957	68.51
869.258	67.89
869.56	64.62
869.861	63.37
870.162	66.84
870.463	66.46
870.765	65.76
871.066	64.54
871.367	64.45
871.668	66.21
871.969	67.63
872.27	67.45
872.571	69.02
872.872	69.63
873.173	69.36
873.473	68.37
873.774	65.59
874.075	67.01
874.376	68.83
874.676	68.39
874.977	69.96
875.277	68.29
875.578	70.07
875.878	71.46
876.179	74.45
876.479	72.25
876.78	71.36
877.08	72.52
877.38	72.5
877.68	72.3
877.981	69.39
878.281	69.21
878.581	68.96
