Data from BU26941_Reflection_00007.txt Node
Date: Tue Nov 19 11:03:33 EST 2019
User: vgr7
Spectrometer: USB2G7710
Scans to average: 3
Trigger mode: 4
Integration Time (sec): 2.000000E-2
Electric dark correction enabled: true
Boxcar width: 10
XAxis mode: Wavelengths
Number of Pixels in Spectrum: 2048
>>>>>Begin Spectral Data<<<<<
177.721	-47.22
178.105	-21.83
178.488	52.28
178.871	75.68
179.254	50.82
179.636	85.53
180.019	-134.99
180.402	80
180.785	-273.58
181.168	100
181.55	23.86
181.933	-449.3
182.316	145.11
182.698	0.83
183.081	-1521.62
183.463	297.6
183.846	377.31
184.228	-940.82
184.611	162.72
184.993	261.19
185.376	377.46
185.758	195.82
186.14	160.76
186.522	137.44
186.904	145.11
187.287	117.42
187.669	105.22
188.051	-11.98
188.433	49.86
188.815	12.22
189.197	-0.91
189.579	-21.9
189.961	-10.48
190.342	-6.9
190.724	-48.83
191.106	-158.76
191.488	-38.82
191.869	-52.9
192.251	-66.97
192.633	-106.9
193.014	-248.44
193.396	-273.94
193.777	-223.47
194.159	-199.3
194.54	-204.44
194.922	-502.87
195.303	-451.35
195.684	-207.17
196.065	-155.52
196.447	-68.44
196.828	-72.99
197.209	-51.03
197.59	-12.66
197.971	9.62
198.352	41.5
198.733	-5.05
199.114	4.81
199.495	-23.68
199.876	-34.22
200.257	-39.05
200.638	-35.29
201.018	-2.87
201.399	41.75
201.78	71.72
202.16	68.2
202.541	100
202.922	97.29
203.302	82.31
203.683	89.79
204.063	163.32
204.444	168.1
204.824	194.49
205.204	220.56
205.585	300.37
205.965	318.84
206.345	286.77
206.725	192.94
207.106	222.91
207.486	235.65
207.866	353.9
208.246	406.48
208.626	398.1
209.006	376.81
209.386	252.75
209.766	381.63
210.145	252.54
210.525	341.79
210.905	267
211.285	342.82
211.664	395.52
212.044	203.87
212.424	271.84
212.803	338.73
213.183	245.05
213.562	332.84
213.942	489.92
214.321	524.93
214.701	1260.58
215.08	1414.61
215.459	476.21
215.838	590.49
216.218	646.8
216.597	1549.44
216.976	-1072.93
217.355	-143900
217.734	702.87
218.113	1525.74
218.492	3978.05
218.871	712.24
219.25	654.01
219.629	400.67
220.008	665.35
220.387	386.24
220.766	245.72
221.144	312.28
221.523	200.71
221.902	129.98
222.28	138.64
222.659	156.26
223.037	146.32
223.416	145.32
223.794	110.27
224.173	104.39
224.551	92.94
224.929	78.96
225.308	81.13
225.686	71.45
226.064	65.65
226.442	53.07
226.821	48.16
227.199	41.93
227.577	41.11
227.955	33.08
228.333	34.93
228.711	33.75
229.089	32.44
229.467	31.06
229.845	28.31
230.222	26.73
230.6	22.32
230.978	23.51
231.356	19.74
231.733	19.61
232.111	19.26
232.488	16.03
232.866	15.65
233.243	14.46
233.621	15.04
233.998	12.67
234.376	12.8
234.753	12.58
235.13	11.25
235.508	11.09
235.885	8.7
236.262	5.92
236.639	4.09
237.016	3.3
237.393	6.37
237.77	6.67
238.147	5.67
238.524	5.97
238.901	4.61
239.278	4.41
239.655	4.93
240.032	4.78
240.409	5.01
240.785	4.41
241.162	4.03
241.539	3.7
241.915	4.27
242.292	4.21
242.668	3.95
243.045	4.47
243.421	4.14
243.798	4.35
244.174	4.81
244.551	4.83
244.927	4.83
245.303	4.21
245.679	4.34
246.056	4.33
246.432	4.54
246.808	4.57
247.184	4.69
247.56	4.6
247.936	4.75
248.312	4.73
248.688	4.72
249.064	4.85
249.44	4.88
249.815	4.71
250.191	4.75
250.567	4.87
250.943	4.91
251.318	5.03
251.694	4.95
252.069	4.96
252.445	5.32
252.82	5.42
253.196	5.65
253.571	5.68
253.947	5.68
254.322	5.66
254.697	5.85
255.073	5.86
255.448	5.9
255.823	5.72
256.198	5.68
256.573	5.84
256.948	5.7
257.323	5.6
257.698	5.32
258.073	5.33
258.448	5.21
258.823	4.97
259.198	4.72
259.573	4.8
259.948	4.6
260.322	4.46
260.697	4.55
261.072	4.63
261.446	4.58
261.821	4.53
262.195	4.33
262.57	4.23
262.944	4.31
263.319	4.26
263.693	4.17
264.067	4.12
264.442	4.05
264.816	3.94
265.19	3.82
265.564	3.95
265.938	3.88
266.313	3.81
266.687	3.71
267.061	4.01
267.435	4.05
267.809	4.06
268.183	3.92
268.556	3.81
268.93	3.76
269.304	3.65
269.678	3.76
270.051	3.93
270.425	3.9
270.799	3.56
271.172	3.49
271.546	3.56
271.919	3.49
272.293	3.46
272.666	3.58
273.04	3.74
273.413	3.7
273.787	3.61
274.16	3.53
274.533	3.67
274.906	3.53
275.279	3.46
275.653	3.61
276.026	3.74
276.399	3.76
276.772	3.64
277.145	3.64
277.518	3.49
277.891	3.34
278.263	3.53
278.636	3.68
279.009	3.67
279.382	3.55
279.755	3.64
280.127	3.68
280.5	3.6
280.872	3.5
281.245	3.65
281.617	3.75
281.99	3.78
282.362	3.8
282.735	3.95
283.107	3.87
283.479	3.85
283.852	3.78
284.224	3.87
284.596	3.87
284.968	3.91
285.34	3.99
285.713	4.04
286.085	3.92
286.457	4.08
286.829	4.09
287.201	4.1
287.572	4.15
287.944	4.2
288.316	4.2
288.688	4.35
289.06	4.35
289.431	4.41
289.803	4.4
290.175	4.39
290.546	4.36
290.918	4.47
291.289	4.36
291.661	4.44
292.032	4.49
292.403	4.47
292.775	4.61
293.146	4.75
293.517	4.68
293.889	4.75
294.26	4.64
294.631	4.78
295.002	4.86
295.373	4.91
295.744	4.96
296.115	5.03
296.486	4.92
296.857	4.93
297.228	4.87
297.599	4.93
297.97	4.93
298.34	5.05
298.711	5.16
299.082	5.25
299.452	5.23
299.823	5.18
300.194	5.34
300.564	5.28
300.935	5.32
301.305	5.46
301.676	5.44
302.046	5.57
302.416	5.59
302.787	5.74
303.157	5.82
303.527	5.91
303.897	6.04
304.267	6.17
304.637	6.1
305.008	6.13
305.378	6.27
305.748	6.34
306.117	6.27
306.487	6.23
306.857	6.38
307.227	6.64
307.597	6.73
307.967	6.79
308.336	6.91
308.706	6.9
309.076	7.01
309.445	7.19
309.815	7.11
310.184	7.15
310.554	7.08
310.923	7.12
311.293	7.18
311.662	7.22
312.031	7.22
312.401	7.38
312.77	7.53
313.139	7.6
313.508	7.68
313.877	7.76
314.246	7.87
314.616	7.94
314.985	7.85
315.353	7.83
315.722	7.86
316.091	7.91
316.46	8.02
316.829	8.14
317.198	8.24
317.567	8.48
317.935	8.59
318.304	8.84
318.672	9.01
319.041	9.1
319.41	9.11
319.778	9.33
320.147	9.43
320.515	9.61
320.883	9.61
321.252	9.64
321.62	9.83
321.988	9.82
322.357	9.75
322.725	9.95
323.093	10.21
323.461	10.35
323.829	10.34
324.197	10.31
324.565	10.32
324.933	10.24
325.301	10.25
325.669	10.05
326.037	10.06
326.405	10.09
326.772	10.02
327.14	10.06
327.508	10.11
327.875	9.97
328.243	9.92
328.61	10.16
328.978	10.28
329.346	10.26
329.713	10.44
330.08	10.57
330.448	10.55
330.815	10.52
331.182	10.54
331.55	10.63
331.917	10.54
332.284	10.62
332.651	10.82
333.018	10.88
333.385	11.16
333.752	11.07
334.119	11.05
334.486	10.99
334.853	10.96
335.22	11
335.587	11.08
335.954	11.03
336.32	10.89
336.687	11.02
337.054	11.03
337.42	11.03
337.787	10.95
338.153	10.92
338.52	10.89
338.886	10.96
339.253	10.92
339.619	11.13
339.986	11.07
340.352	11.07
340.718	11.09
341.084	11.1
341.451	11.25
341.817	11.29
342.183	11.33
342.549	11.43
342.915	11.43
343.281	11.59
343.647	11.7
344.013	11.69
344.379	11.63
344.745	11.61
345.11	11.57
345.476	11.71
345.842	11.77
346.208	11.79
346.573	11.72
346.939	11.75
347.304	11.79
347.67	11.92
348.035	11.91
348.401	11.93
348.766	12.01
349.132	11.97
349.497	12.01
349.862	12.11
350.228	12.17
350.593	12.21
350.958	12.29
351.323	12.28
351.688	12.37
352.053	12.33
352.418	12.4
352.783	12.39
353.148	12.39
353.513	12.41
353.878	12.38
354.243	12.34
354.608	12.41
354.972	12.32
355.337	12.14
355.702	12.15
356.066	12.13
356.431	12.04
356.795	12.01
357.16	11.96
357.524	11.89
357.889	11.73
358.253	11.64
358.618	11.52
358.982	11.45
359.346	11.36
359.71	11.32
360.075	11.24
360.439	11.27
360.803	11.24
361.167	11.17
361.531	11.11
361.895	11.06
362.259	11.01
362.623	11.01
362.987	11.04
363.351	10.96
363.714	10.89
364.078	10.86
364.442	10.79
364.806	10.77
365.169	10.81
365.533	10.8
365.896	10.75
366.26	10.69
366.623	10.67
366.987	10.69
367.35	10.72
367.714	10.65
368.077	10.5
368.44	10.43
368.803	10.4
369.167	10.39
369.53	10.4
369.893	10.33
370.256	10.21
370.619	10.22
370.982	10.14
371.345	10.1
371.708	10.01
372.071	9.92
372.434	9.76
372.797	9.63
373.159	9.58
373.522	9.54
373.885	9.48
374.247	9.32
374.61	9.17
374.973	8.99
375.335	8.87
375.698	8.81
376.06	8.75
376.423	8.67
376.785	8.58
377.147	8.47
377.51	8.38
377.872	8.35
378.234	8.22
378.596	8.16
378.958	8.09
379.321	7.99
379.683	8
380.045	7.92
380.407	7.88
380.769	7.78
381.13	7.71
381.492	7.63
381.854	7.67
382.216	7.68
382.578	7.63
382.939	7.61
383.301	7.53
383.663	7.45
384.024	7.39
384.386	7.33
384.747	7.28
385.109	7.26
385.47	7.23
385.832	7.13
386.193	7.09
386.554	6.98
386.916	6.96
387.277	6.87
387.638	6.84
387.999	6.8
388.36	6.76
388.721	6.67
389.082	6.66
389.443	6.55
389.804	6.49
390.165	6.44
390.526	6.4
390.887	6.35
391.248	6.32
391.609	6.31
391.969	6.3
392.33	6.21
392.691	6.13
393.051	6.04
393.412	6
393.772	5.97
394.133	5.94
394.493	5.89
394.854	5.83
395.214	5.81
395.574	5.71
395.935	5.67
396.295	5.66
396.655	5.61
397.015	5.57
397.376	5.53
397.736	5.48
398.096	5.44
398.456	5.4
398.816	5.35
399.176	5.23
399.535	5.16
399.895	5.15
400.255	5.12
400.615	5.1
400.975	5.08
401.334	5.04
401.694	5.01
402.054	4.95
402.413	4.91
402.773	4.88
403.132	4.87
403.492	4.81
403.851	4.75
404.211	4.7
404.57	4.69
404.929	4.64
405.288	4.59
405.648	4.55
406.007	4.56
406.366	4.53
406.725	4.51
407.084	4.48
407.443	4.45
407.802	4.44
408.161	4.41
408.52	4.39
408.879	4.38
409.238	4.38
409.596	4.38
409.955	4.39
410.314	4.36
410.673	4.32
411.031	4.33
411.39	4.32
411.748	4.32
412.107	4.28
412.465	4.27
412.824	4.27
413.182	4.24
413.54	4.22
413.899	4.19
414.257	4.21
414.615	4.17
414.974	4.15
415.332	4.14
415.69	4.1
416.048	4.09
416.406	4.04
416.764	4.02
417.122	3.97
417.48	3.93
417.838	3.9
418.195	3.89
418.553	3.88
418.911	3.85
419.269	3.82
419.626	3.79
419.984	3.77
420.342	3.75
420.699	3.74
421.057	3.73
421.414	3.7
421.772	3.66
422.129	3.65
422.486	3.64
422.844	3.61
423.201	3.61
423.558	3.59
423.915	3.57
424.273	3.55
424.63	3.56
424.987	3.56
425.344	3.55
425.701	3.52
426.058	3.49
426.415	3.48
426.772	3.47
427.128	3.47
427.485	3.47
427.842	3.46
428.199	3.45
428.555	3.43
428.912	3.42
429.269	3.43
429.625	3.44
429.982	3.43
430.338	3.42
430.695	3.38
431.051	3.38
431.407	3.4
431.764	3.38
432.12	3.38
432.476	3.38
432.832	3.4
433.189	3.4
433.545	3.41
433.901	3.41
434.257	3.41
434.613	3.41
434.969	3.39
435.325	3.4
435.681	3.39
436.036	3.39
436.392	3.41
436.748	3.41
437.104	3.41
437.459	3.42
437.815	3.42
438.171	3.46
438.526	3.44
438.882	3.42
439.237	3.42
439.593	3.43
439.948	3.43
440.304	3.4
440.659	3.41
441.014	3.42
441.369	3.42
441.725	3.43
442.08	3.42
442.435	3.43
442.79	3.41
443.145	3.39
443.5	3.38
443.855	3.35
444.21	3.35
444.565	3.34
444.92	3.32
445.275	3.31
445.629	3.3
445.984	3.31
446.339	3.31
446.693	3.32
447.048	3.29
447.403	3.28
447.757	3.27
448.112	3.25
448.466	3.24
448.82	3.22
449.175	3.2
449.529	3.19
449.883	3.17
450.238	3.16
450.592	3.18
450.946	3.17
451.3	3.17
451.654	3.14
452.008	3.11
452.362	3.11
452.716	3.09
453.07	3.07
453.424	3.04
453.778	3.04
454.132	3.03
454.486	3.05
454.839	3.05
455.193	3.08
455.547	3.08
455.9	3.1
456.254	3.1
456.607	3.1
456.961	3.09
457.314	3.11
457.668	3.12
458.021	3.11
458.375	3.14
458.728	3.15
459.081	3.16
459.434	3.17
459.787	3.19
460.141	3.21
460.494	3.21
460.847	3.22
461.2	3.24
461.553	3.26
461.906	3.26
462.259	3.26
462.611	3.27
462.964	3.28
463.317	3.27
463.67	3.31
464.022	3.33
464.375	3.35
464.728	3.38
465.08	3.41
465.433	3.45
465.785	3.46
466.138	3.46
466.49	3.49
466.843	3.53
467.195	3.55
467.547	3.55
467.899	3.57
468.252	3.6
468.604	3.59
468.956	3.59
469.308	3.61
469.66	3.63
470.012	3.63
470.364	3.64
470.716	3.67
471.068	3.66
471.42	3.68
471.772	3.68
472.123	3.69
472.475	3.7
472.827	3.7
473.178	3.71
473.53	3.72
473.882	3.72
474.233	3.72
474.585	3.71
474.936	3.73
475.288	3.73
475.639	3.72
475.99	3.72
476.342	3.73
476.693	3.73
477.044	3.72
477.395	3.7
477.746	3.69
478.097	3.67
478.448	3.67
478.8	3.65
479.15	3.64
479.501	3.62
479.852	3.6
480.203	3.58
480.554	3.57
480.905	3.57
481.255	3.57
481.606	3.56
481.957	3.57
482.307	3.55
482.658	3.55
483.009	3.53
483.359	3.53
483.709	3.53
484.06	3.52
484.41	3.51
484.761	3.51
485.111	3.51
485.461	3.5
485.811	3.5
486.162	3.5
486.512	3.51
486.862	3.52
487.212	3.52
487.562	3.52
487.912	3.53
488.262	3.53
488.612	3.53
488.961	3.53
489.311	3.52
489.661	3.54
490.011	3.54
490.36	3.55
490.71	3.56
491.06	3.57
491.409	3.58
491.759	3.6
492.108	3.62
492.458	3.64
492.807	3.67
493.157	3.69
493.506	3.71
493.855	3.73
494.204	3.76
494.554	3.79
494.903	3.82
495.252	3.86
495.601	3.9
495.95	3.95
496.299	3.98
496.648	4.04
496.997	4.09
497.346	4.16
497.695	4.21
498.043	4.28
498.392	4.33
498.741	4.4
499.09	4.45
499.438	4.55
499.787	4.63
500.135	4.71
500.484	4.8
500.832	4.88
501.181	4.99
501.529	5.1
501.878	5.2
502.226	5.33
502.574	5.45
502.923	5.59
503.271	5.72
503.619	5.89
503.967	6.02
504.315	6.17
504.663	6.32
505.011	6.49
505.359	6.65
505.707	6.81
506.055	6.98
506.403	7.17
506.751	7.31
507.098	7.52
507.446	7.71
507.794	7.91
508.141	8.12
508.489	8.33
508.837	8.5
509.184	8.73
509.531	8.92
509.879	9.12
510.226	9.32
510.574	9.53
510.921	9.74
511.268	9.99
511.616	10.24
511.963	10.47
512.31	10.7
512.657	10.96
513.004	11.24
513.351	11.51
513.698	11.8
514.045	12.15
514.392	12.43
514.739	12.76
515.086	13.07
515.432	13.38
515.779	13.68
516.126	14.01
516.473	14.3
516.819	14.59
517.166	14.89
517.512	15.16
517.859	15.43
518.205	15.66
518.552	15.9
518.898	16.14
519.245	16.41
519.591	16.69
519.937	16.96
520.283	17.22
520.629	17.5
520.976	17.79
521.322	18.06
521.668	18.35
522.014	18.63
522.36	18.92
522.706	19.22
523.052	19.57
523.398	19.92
523.743	20.27
524.089	20.65
524.435	20.99
524.781	21.32
525.126	21.61
525.472	21.9
525.817	22.16
526.163	22.41
526.509	22.65
526.854	22.86
527.199	23.05
527.545	23.25
527.89	23.44
528.235	23.63
528.581	23.82
528.926	24.04
529.271	24.25
529.616	24.47
529.961	24.69
530.306	24.89
530.651	25.08
530.996	25.31
531.341	25.53
531.686	25.78
532.031	26
532.376	26.24
532.721	26.52
533.065	26.78
533.41	27.03
533.755	27.29
534.099	27.55
534.444	27.84
534.788	28.1
535.133	28.38
535.477	28.65
535.822	28.95
536.166	29.26
536.51	29.58
536.855	29.89
537.199	30.22
537.543	30.58
537.887	30.96
538.231	31.29
538.576	31.65
538.92	31.98
539.264	32.33
539.608	32.64
539.951	32.9
540.295	33.18
540.639	33.45
540.983	33.72
541.327	33.97
541.671	34.2
542.014	34.44
542.358	34.69
542.701	34.93
543.045	35.15
543.389	35.38
543.732	35.61
544.075	35.83
544.419	36.05
544.762	36.28
545.105	36.52
545.449	36.76
545.792	37.01
546.135	37.3
546.478	37.56
546.821	37.86
547.165	38.16
547.508	38.48
547.851	38.76
548.194	39.01
548.536	39.29
548.879	39.57
549.222	39.85
549.565	40.1
549.908	40.36
550.25	40.61
550.593	40.82
550.936	41.08
551.278	41.37
551.621	41.64
551.963	41.86
552.306	42.12
552.648	42.37
552.991	42.58
553.333	42.74
553.675	42.96
554.017	43.13
554.36	43.28
554.702	43.41
555.044	43.62
555.386	43.83
555.728	44.02
556.07	44.23
556.412	44.47
556.754	44.65
557.096	44.86
557.438	45.06
557.78	45.23
558.121	45.35
558.463	45.52
558.805	45.7
559.147	45.92
559.488	46.07
559.83	46.25
560.171	46.47
560.513	46.68
560.854	46.84
561.196	47.05
561.537	47.25
561.878	47.44
562.22	47.6
562.561	47.76
562.902	47.92
563.243	48.06
563.584	48.19
563.925	48.33
564.266	48.45
564.607	48.57
564.948	48.75
565.289	48.96
565.63	49.1
565.971	49.28
566.312	49.38
566.653	49.54
566.993	49.62
567.334	49.72
567.675	49.89
568.015	49.99
568.356	50.12
568.696	50.26
569.037	50.36
569.377	50.46
569.718	50.59
570.058	50.73
570.398	50.87
570.739	50.94
571.079	51.05
571.419	51.17
571.759	51.24
572.099	51.3
572.439	51.34
572.779	51.42
573.119	51.48
573.459	51.56
573.799	51.67
574.139	51.83
574.479	51.94
574.819	51.98
575.158	52.07
575.498	52.08
575.838	52.12
576.177	52.22
576.517	52.3
576.856	52.32
577.196	52.38
577.535	52.43
577.875	52.54
578.214	52.6
578.553	52.68
578.893	52.85
579.232	52.93
579.571	53.07
579.91	53.18
580.25	53.26
580.589	53.25
580.928	53.28
581.267	53.26
581.606	53.33
581.945	53.42
582.283	53.47
582.622	53.63
582.961	53.74
583.3	53.77
583.639	53.8
583.977	53.88
584.316	53.93
584.654	54.01
584.993	54.05
585.332	54.18
585.67	54.21
586.008	54.24
586.347	54.38
586.685	54.44
587.024	54.41
587.362	54.46
587.7	54.68
588.038	54.79
588.376	54.88
588.715	54.87
589.053	54.91
589.391	55.02
589.729	55.04
590.067	55.07
590.404	55.1
590.742	55.24
591.08	55.35
591.418	55.41
591.756	55.4
592.093	55.48
592.431	55.53
592.769	55.62
593.106	55.72
593.444	55.71
593.781	55.74
594.119	55.86
594.456	55.93
594.793	55.89
595.131	55.92
595.468	55.94
595.805	55.97
596.143	56.01
596.48	56
596.817	56.08
597.154	56.06
597.491	56.11
597.828	56.13
598.165	56.12
598.502	56.15
598.839	56.26
599.176	56.27
599.512	56.26
599.849	56.25
600.186	56.23
600.523	56.25
600.859	56.27
601.196	56.37
601.532	56.35
601.869	56.43
602.205	56.34
602.542	56.38
602.878	56.43
603.215	56.46
603.551	56.55
603.887	56.57
604.223	56.64
604.56	56.74
604.896	56.72
605.232	56.81
605.568	56.81
605.904	56.88
606.24	56.93
606.576	57.04
606.912	57.05
607.248	57.13
607.583	57.12
607.919	57.17
608.255	57.1
608.591	57.16
608.926	57.19
609.262	57.29
609.597	57.36
609.933	57.41
610.268	57.45
610.604	57.5
610.939	57.55
611.275	57.61
611.61	57.62
611.945	57.67
612.281	57.68
612.616	57.8
612.951	57.85
613.286	57.8
613.621	57.76
613.956	57.82
614.291	57.74
614.626	57.9
614.961	57.96
615.296	58.09
615.631	58.16
615.966	58.21
616.3	58.2
616.635	58.16
616.97	58.18
617.304	58.17
617.639	58.11
617.973	58.1
618.308	58.23
618.642	58.26
618.977	58.32
619.311	58.36
619.646	58.34
619.98	58.37
620.314	58.4
620.648	58.47
620.983	58.54
621.317	58.63
621.651	58.59
621.985	58.61
622.319	58.62
622.653	58.56
622.987	58.54
623.321	58.63
623.655	58.74
623.988	58.8
624.322	58.82
624.656	58.95
624.99	58.98
625.323	58.95
625.657	58.96
625.99	59.04
626.324	59.02
626.657	58.98
626.991	58.9
627.324	58.99
627.658	59
627.991	58.98
628.324	58.98
628.657	59.07
628.991	59.14
629.324	59.18
629.657	59.29
629.99	59.29
630.323	59.26
630.656	59.21
630.989	59.09
631.322	59.17
631.655	59.05
631.987	59
632.32	59
632.653	58.92
632.986	58.85
633.318	58.91
633.651	58.99
633.984	59.03
634.316	59.06
634.649	59.1
634.981	59.14
635.313	59.27
635.646	59.16
635.978	59.07
636.31	59.02
636.643	58.96
636.975	59.11
637.307	59.13
637.639	59.15
637.971	59.29
638.303	59.27
638.635	59.33
638.967	59.47
639.299	59.49
639.631	59.62
639.963	59.58
640.295	59.62
640.626	59.66
640.958	59.67
641.29	59.65
641.621	59.46
641.953	59.46
642.285	59.41
642.616	59.59
642.948	59.64
643.279	59.72
643.61	59.75
643.942	59.63
644.273	59.68
644.604	59.81
644.936	59.8
645.267	59.82
645.598	59.85
645.929	59.8
646.26	59.8
646.591	59.76
646.922	59.79
647.253	59.71
647.584	59.72
647.915	59.74
648.245	59.79
648.576	60.03
648.907	60.01
649.238	59.89
649.568	59.84
649.899	59.82
650.229	59.75
650.56	59.75
650.89	59.82
651.221	59.94
651.551	59.88
651.882	59.94
652.212	59.87
652.542	59.92
652.872	59.96
653.203	59.99
653.533	60.02
653.863	60.09
654.193	60.15
654.523	60.11
654.853	60.19
655.183	60.23
655.513	60.21
655.843	60.23
656.172	60.31
656.502	60.33
656.832	60.45
657.162	60.55
657.491	60.65
657.821	60.62
658.15	60.48
658.48	60.48
658.809	60.46
659.139	60.57
659.468	60.52
659.798	60.57
660.127	60.51
660.456	60.45
660.785	60.49
661.115	60.51
661.444	60.5
661.773	60.44
662.102	60.41
662.431	60.46
662.76	60.67
663.089	60.72
663.418	60.68
663.747	60.69
664.076	60.66
664.404	60.54
664.733	60.57
665.062	60.7
665.39	60.68
665.719	60.65
666.048	60.6
666.376	60.62
666.705	60.55
667.033	60.69
667.362	60.84
667.69	60.68
668.018	60.74
668.347	60.78
668.675	60.88
669.003	60.89
669.331	60.74
669.659	60.65
669.987	60.57
670.315	60.63
670.643	60.55
670.971	60.53
671.299	60.68
671.627	60.64
671.955	60.61
672.283	60.52
672.61	60.6
672.938	60.69
673.266	60.77
673.593	60.73
673.921	60.7
674.249	60.6
674.576	60.78
674.904	60.71
675.231	60.7
675.558	60.77
675.886	60.87
676.213	60.95
676.54	60.91
676.867	60.92
677.195	60.92
677.522	60.93
677.849	61
678.176	61.07
678.503	61.05
678.83	61.05
679.157	61.18
679.484	61.11
679.81	60.97
680.137	61.06
680.464	61.07
680.791	61.13
681.117	61.04
681.444	61.03
681.771	61.15
682.097	61.25
682.424	61.17
682.75	61.19
683.077	61.15
683.403	61.24
683.729	61.35
684.056	61.31
684.382	61.41
684.708	61.4
685.034	61.24
685.36	61.29
685.686	61.36
686.012	61.45
686.339	61.61
686.664	61.72
686.99	61.63
687.316	61.77
687.642	61.69
687.968	61.99
688.294	62.13
688.619	62.09
688.945	61.96
689.271	62.07
689.596	61.98
689.922	62.15
690.247	62.11
690.573	62.12
690.898	62.2
691.224	62.23
691.549	62.21
691.874	62.34
692.2	62.36
692.525	62.42
692.85	62.48
693.175	62.57
693.5	62.62
693.825	62.52
694.15	62.45
694.475	62.42
694.8	62.27
695.125	62.14
695.45	62.19
695.775	62.21
696.099	62.12
696.424	62.05
696.749	61.99
697.073	61.95
697.398	61.84
697.723	61.88
698.047	61.85
698.372	61.8
698.696	61.64
699.02	61.67
699.345	61.53
699.669	61.39
699.993	61.14
700.318	61.15
700.642	61.33
700.966	61.33
701.29	61.42
701.614	61.44
701.938	61.42
702.262	61.28
702.586	61.48
702.91	61.53
703.234	61.58
703.557	61.53
703.881	61.53
704.205	61.67
704.529	61.51
704.852	61.52
705.176	61.6
705.499	61.84
705.823	61.92
706.146	62.08
706.47	62.33
706.793	62.46
707.117	62.4
707.44	62.33
707.763	62.53
708.086	62.61
708.409	62.69
708.733	62.65
709.056	62.63
709.379	62.49
709.702	62.53
710.025	62.57
710.348	62.59
710.671	62.61
710.993	62.58
711.316	62.77
711.639	62.66
711.962	62.65
712.284	62.63
712.607	62.55
712.93	62.45
713.252	62.26
713.575	62.32
713.897	62.5
714.22	62.38
714.542	62.19
714.864	62.15
715.187	62.13
715.509	62.29
715.831	62.45
716.153	62.4
716.475	62.26
716.798	62.45
717.12	62.44
717.442	62.53
717.764	62.52
718.085	62.51
718.407	62.49
718.729	62.63
719.051	62.69
719.373	62.81
719.695	62.97
720.016	62.84
720.338	63.07
720.659	63.1
720.981	63.04
721.302	63.2
721.624	63.12
721.945	63.14
722.267	62.95
722.588	62.99
722.909	63.08
723.231	62.97
723.552	62.62
723.873	62.51
724.194	62.34
724.515	62.45
724.836	62.61
725.157	62.69
725.478	62.4
725.799	62.35
726.12	62.43
726.441	62.31
726.762	62.47
727.083	62.16
727.403	61.89
727.724	62.17
728.045	62.14
728.365	62.06
728.686	62.2
729.006	62.32
729.327	62.47
729.647	62.39
729.967	62.46
730.288	62.55
730.608	62.76
730.928	62.83
731.249	62.65
731.569	62.61
731.889	62.67
732.209	62.92
732.529	62.87
732.849	62.81
733.169	62.94
733.489	62.92
733.809	62.99
734.129	63.2
734.448	63.11
734.768	62.94
735.088	63.04
735.408	63.12
735.727	63.23
736.047	63.28
736.366	63.36
736.686	63.4
737.005	63.36
737.325	63.31
737.644	63.44
737.963	63.68
738.283	63.89
738.602	63.93
738.921	64.05
739.24	64.19
739.56	64.08
739.879	63.96
740.198	64.25
740.517	64.36
740.836	64.02
741.155	64.12
741.473	64.68
741.792	64.6
742.111	64.39
742.43	64.27
742.748	64.17
743.067	64.23
743.386	64.28
743.704	64.31
744.023	64.33
744.341	64.27
744.66	64.17
744.978	63.94
745.297	64.03
745.615	63.96
745.933	63.96
746.252	63.89
746.57	64.04
746.888	63.64
747.206	63.39
747.524	63.81
747.842	63.72
748.16	63.11
748.478	63.4
748.796	63.53
749.114	63.72
749.432	63.56
749.749	63.43
750.067	63.53
750.385	63.57
750.703	63.47
751.02	63.61
751.338	63.43
751.655	63.23
751.973	63.13
752.29	63.16
752.608	62.96
752.925	62.73
753.242	62.95
753.56	62.9
753.877	63.15
754.194	63.14
754.511	63.16
754.828	63.2
755.145	62.97
755.462	62.95
755.779	62.87
756.096	62.85
756.413	62.83
756.73	63
757.047	63.24
757.364	63.53
757.68	63.2
757.997	63.21
758.314	63.16
758.63	62.94
758.947	63.04
759.264	63.35
759.58	64.12
759.896	63.65
760.213	63.87
760.529	63.66
760.846	63.6
761.162	63.83
761.478	63.96
761.794	63.88
762.11	63.58
762.426	63.61
762.743	63.47
763.059	63.7
763.375	63.73
763.69	63.91
764.006	63.9
764.322	64.22
764.638	64.31
764.954	64.41
765.27	64.7
765.585	64.7
765.901	64.79
766.216	64.48
766.532	64.79
766.848	65.03
767.163	65.35
767.478	65.21
767.794	65.12
768.109	65.14
768.424	65.47
768.74	65.8
769.055	65.81
769.37	66.21
769.685	66.03
770	66.03
770.315	66.1
770.63	66.08
770.945	65.95
771.26	66.08
771.575	66.42
771.89	66.17
772.205	66.13
772.52	65.8
772.834	65.8
773.149	65.73
773.464	65.43
773.778	65.03
774.093	65.32
774.407	65.23
774.722	65.3
775.036	65.47
775.351	65.69
775.665	65.98
775.979	65.79
776.293	65.95
776.608	65.84
776.922	65.31
777.236	65.29
777.55	65.56
777.864	65.82
778.178	65.31
778.492	65.57
778.806	65.84
779.12	65.75
779.434	65.77
779.747	65.73
780.061	65.76
780.375	66.25
780.689	66.4
781.002	66.23
781.316	66.2
781.629	65.84
781.943	65.82
782.256	65.67
782.57	65.46
782.883	65.03
783.196	65.32
783.51	65.23
783.823	65.35
784.136	64.78
784.449	64.56
784.762	65.05
785.075	65.58
785.388	65.47
785.701	65.65
786.014	65.64
786.327	65.44
786.64	65.34
786.953	65.49
787.266	65.32
787.578	65.4
787.891	65.47
788.204	65.2
788.516	64.88
788.829	64.48
789.141	64.75
789.454	65.04
789.766	64.87
790.079	65.4
790.391	65.58
790.703	65.23
791.016	65.22
791.328	65.05
791.64	64.72
791.952	65.07
792.264	64.71
792.576	65.19
792.888	65.12
793.2	65.28
793.512	64.96
793.824	64.88
794.136	64.93
794.448	65.16
794.76	66.15
795.071	66.06
795.383	66.45
795.695	66.68
796.006	66.9
796.318	66.73
796.629	66.02
796.941	66.2
797.252	66.69
797.564	66.17
797.875	65.85
798.186	65.62
798.497	64.81
798.809	64.95
799.12	65.14
799.431	65.23
799.742	65.69
800.053	64.96
800.364	64.89
800.675	65.26
800.986	65.04
801.297	64.5
801.608	64.64
801.918	64.47
802.229	64.09
802.54	63.8
802.851	63.87
803.161	63.83
803.472	63.37
803.782	63.37
804.093	63.81
804.403	63.97
804.714	64.32
805.024	64.86
805.334	65.3
805.645	65.06
805.955	65.67
806.265	65.62
806.575	65.89
806.885	65.95
807.195	66.13
807.505	66.01
807.815	66.12
808.125	66.21
808.435	66.62
808.745	67.05
809.055	67.03
809.365	66.91
809.674	67.55
809.984	67.64
810.294	68.5
810.603	69.1
810.913	69.73
811.222	69.62
811.532	69.24
811.841	69.27
812.151	68.98
812.46	68.35
812.769	67.58
813.079	67.38
813.388	67.79
813.697	66.76
814.006	67.15
814.315	67.06
814.624	66.92
814.933	66.54
815.242	66.52
815.551	67.12
815.86	67.98
816.169	67.4
816.478	67.27
816.786	66.95
817.095	66.66
817.404	65.99
817.712	66.15
818.021	66.34
818.33	66.57
818.638	66.23
818.947	66.44
819.255	66.26
819.563	66.48
819.872	66.3
820.18	66.39
820.488	65.83
820.796	65.71
821.105	65.7
821.413	65.86
821.721	65.83
822.029	65.75
822.337	65.57
822.645	65.83
822.953	65.86
823.26	65.67
823.568	65.61
823.876	65.46
824.184	65.35
824.491	65.36
824.799	65.18
825.107	65.18
825.414	65.09
825.722	65.17
826.029	65.2
826.337	65.11
826.644	65.07
826.951	65.19
827.259	65.38
827.566	65.47
827.873	65.19
828.18	65.03
828.488	64.7
828.795	64.6
829.102	64.43
829.409	64.18
829.716	64.08
830.023	64.06
830.329	64.4
830.636	64.32
830.943	63.89
831.25	64.07
831.557	63.73
831.863	63.38
832.17	63.24
832.476	63.52
832.783	63.69
833.089	63.92
833.396	64.4
833.702	63.52
834.009	63.4
834.315	63.41
834.621	63.72
834.928	64.08
835.234	63.79
835.54	63.55
835.846	63.98
836.152	64.22
836.458	63.75
836.764	63.89
837.07	63.75
837.376	63.67
837.682	63.43
837.988	64.16
838.293	64.65
838.599	64.68
838.905	64.34
839.211	64.19
839.516	64.2
839.822	64.26
840.127	65.18
840.433	65.9
840.738	65.82
841.044	65.94
841.349	66.18
841.654	65.72
841.959	66.33
842.265	65.54
842.57	65.89
842.875	66.58
843.18	65.1
843.485	66.28
843.79	67.53
844.095	68.48
844.4	67.5
844.705	67.26
845.01	67.3
845.315	67.2
845.619	67.25
845.924	66.66
846.229	66.65
846.533	66.3
846.838	65.4
847.142	65.39
847.447	65.25
847.751	64.15
848.056	67.31
848.36	65.97
848.664	67.09
848.969	66.35
849.273	66.97
849.577	68.91
849.881	67.01
850.185	66.58
850.489	65.57
850.794	66.62
851.097	67.38
851.401	69.05
851.705	69.19
852.009	69.01
852.313	68.64
852.617	67.74
852.92	68.25
853.224	68.23
853.528	68.68
853.831	67.56
854.135	68.58
854.438	66.36
854.742	68.24
855.045	67.98
855.349	69.43
855.652	67.81
855.955	67.56
856.259	67.84
856.562	67.32
856.865	68.11
857.168	66.65
857.471	67.46
857.774	67.8
858.077	65.23
858.38	65.07
858.683	65.68
858.986	65.8
859.289	65.71
859.592	65.99
859.894	66.58
860.197	68.34
860.5	68.67
860.802	67.61
861.105	66.66
861.407	66.53
861.71	65.95
862.012	66.8
862.315	66.61
862.617	67.4
862.919	70.15
863.222	67.9
863.524	68.74
863.826	70.16
864.128	66.76
864.43	68.21
864.732	68.81
865.034	67.87
865.336	68.39
865.638	66.53
865.94	65.51
866.242	67.9
866.544	68.03
866.846	67.04
867.147	70.03
867.449	71.85
867.751	69.86
868.052	68.87
868.354	69.84
868.655	70.17
868.957	69.46
869.258	68.86
869.56	70.92
869.861	71.89
870.162	68.61
870.463	71.8
870.765	73.04
871.066	71.99
871.367	74.01
871.668	71.96
871.969	74.45
872.27	75.46
872.571	72.32
872.872	69.23
873.173	70.89
873.473	70.42
873.774	68.43
874.075	68.83
874.376	69.85
874.676	69.9
874.977	69.08
875.277	70.38
875.578	70.54
875.878	69.78
876.179	69.58
876.479	70.79
876.78	68.71
877.08	69.15
877.38	70.54
877.68	68.92
877.981	70.36
878.281	68.41
878.581	67.06
