Data from BU26942_Reflection_00015.txt Node
Date: Mon Nov 18 16:50:59 EST 2019
User: vgr7
Spectrometer: USB2G7710
Scans to average: 3
Trigger mode: 4
Integration Time (sec): 2.000000E-2
Electric dark correction enabled: true
Boxcar width: 10
XAxis mode: Wavelengths
Number of Pixels in Spectrum: 2048
>>>>>Begin Spectral Data<<<<<
177.721	117.89
178.105	153.05
178.488	986.26
178.871	423.94
179.254	-142.6
179.636	2715.38
180.019	423.94
180.402	152.17
180.785	-44.82
181.168	-132.67
181.55	-56.32
181.933	264.04
182.316	361.54
182.698	381.17
183.081	352.83
183.463	3869.23
183.846	62.65
184.228	198.67
184.611	488.68
184.993	851.48
185.376	-246.5
185.758	-197.3
186.14	-98.59
186.522	157100
186.904	875.4
187.287	613.51
187.669	-643.02
188.051	-369.74
188.433	-247.26
188.815	-502.48
189.197	-160.32
189.579	-64.58
189.961	-60.32
190.342	-24.71
190.724	-5.15
191.106	-64.4
191.488	-39.59
191.869	17.05
192.251	47.3
192.633	53.75
193.014	59.07
193.396	13.02
193.777	42.61
194.159	-0.44
194.54	3.46
194.922	-9.78
195.303	-18.29
195.684	-27.07
196.065	-25.74
196.447	-35.56
196.828	-81.32
197.209	-73.51
197.59	-117.85
197.971	-86.72
198.352	-85.4
198.733	-65.84
199.114	-40.25
199.495	-57.34
199.876	-21.94
200.257	-36.27
200.638	-12.52
201.018	-39.43
201.399	-13.59
201.78	-39.44
202.16	-34.44
202.541	-57.71
202.922	-94.11
203.302	-102.08
203.683	-113.51
204.063	-140.03
204.444	-147.33
204.824	-66.77
205.204	-67.73
205.585	-74.73
205.965	-122.64
206.345	-117.68
206.725	-288.43
207.106	-231.11
207.486	-324.03
207.866	-285.6
208.246	-262.79
208.626	-293.52
209.006	-239.94
209.386	-194.38
209.766	-209.67
210.145	-237.25
210.525	-192.91
210.905	-174.7
211.285	-131.81
211.664	-94.93
212.044	-88.12
212.424	-88.16
212.803	-86.53
213.183	-65.14
213.562	-61.34
213.942	-51.23
214.321	-47.98
214.701	-48.55
215.08	-46.11
215.459	-28.86
215.838	-26.98
216.218	-23.5
216.597	-23.63
216.976	-1.65
217.355	14.55
217.734	16.88
218.113	29.46
218.492	27.07
218.871	16.97
219.25	21.65
219.629	16.86
220.008	4.96
220.387	7.91
220.766	1.36
221.144	-19.39
221.523	-23.9
221.902	-26.29
222.28	-30.47
222.659	-20.05
223.037	4
223.416	-2.01
223.794	-13.3
224.173	-0.96
224.551	2.38
224.929	-7.12
225.308	-10.6
225.686	-0.37
226.064	-2.63
226.442	-5.53
226.821	-4.55
227.199	-6.28
227.577	-5.74
227.955	-0.19
228.333	1.21
228.711	3.19
229.089	10.67
229.467	8.13
229.845	8.67
230.222	9.61
230.6	7.49
230.978	4.23
231.356	5.68
231.733	9.79
232.111	8.91
232.488	9.79
232.866	8.57
233.243	7.84
233.621	4.89
233.998	4.66
234.376	4.94
234.753	5.33
235.13	5.84
235.508	6.59
235.885	5.53
236.262	3.88
236.639	3.6
237.016	3.41
237.393	5.93
237.77	6.61
238.147	6.24
238.524	6.68
238.901	7.27
239.278	6.95
239.655	6.23
240.032	6.08
240.409	5.29
240.785	5.51
241.162	6.03
241.539	6.24
241.915	6.35
242.292	5.89
242.668	6.11
243.045	6.06
243.421	5.47
243.798	5.08
244.174	5
244.551	4.99
244.927	4.52
245.303	4.59
245.679	4.71
246.056	4.57
246.432	4.36
246.808	4.15
247.184	4.12
247.56	3.84
247.936	3.7
248.312	3.98
248.688	4.12
249.064	3.97
249.44	3.87
249.815	4.02
250.191	4.23
250.567	4.01
250.943	4.13
251.318	4.45
251.694	4.46
252.069	4.6
252.445	4.77
252.82	4.92
253.196	4.76
253.571	4.45
253.947	4.59
254.322	5.1
254.697	5.32
255.073	4.95
255.448	5.24
255.823	5.55
256.198	5.3
256.573	5.03
256.948	5.02
257.323	5.02
257.698	4.69
258.073	4.52
258.448	4.62
258.823	4.47
259.198	4.29
259.573	4.38
259.948	4.35
260.322	4.37
260.697	4.37
261.072	4.25
261.446	4.28
261.821	4.27
262.195	4.2
262.57	4.11
262.944	4.2
263.319	4.05
263.693	3.88
264.067	3.98
264.442	4.12
264.816	4.06
265.19	3.96
265.564	3.99
265.938	3.95
266.313	3.73
266.687	3.62
267.061	3.68
267.435	3.56
267.809	3.45
268.183	3.36
268.556	3.32
268.93	3.45
269.304	3.45
269.678	3.48
270.051	3.4
270.425	3.5
270.799	3.58
271.172	3.63
271.546	3.56
271.919	3.44
272.293	3.37
272.666	3.38
273.04	3.5
273.413	3.43
273.787	3.45
274.16	3.59
274.533	3.76
274.906	3.82
275.279	3.92
275.653	3.97
276.026	3.98
276.399	3.96
276.772	3.84
277.145	3.89
277.518	3.83
277.891	3.87
278.263	3.81
278.636	3.75
279.009	3.77
279.382	3.92
279.755	3.85
280.127	3.96
280.5	4.09
280.872	4.16
281.245	4.27
281.617	4.35
281.99	4.32
282.362	4.3
282.735	4.14
283.107	4.15
283.479	4.13
283.852	4.05
284.224	4.08
284.596	4.07
284.968	4.06
285.34	4.19
285.713	4.18
286.085	4.09
286.457	4.23
286.829	4.4
287.201	4.26
287.572	4.27
287.944	4.17
288.316	4.13
288.688	3.98
289.06	3.96
289.431	3.91
289.803	3.98
290.175	3.92
290.546	4.1
290.918	4.16
291.289	4.2
291.661	4.33
292.032	4.34
292.403	4.48
292.775	4.61
293.146	4.53
293.517	4.62
293.889	4.82
294.26	4.68
294.631	4.6
295.002	4.78
295.373	4.8
295.744	4.75
296.115	4.81
296.486	4.79
296.857	4.84
297.228	4.95
297.599	4.85
297.97	4.88
298.34	4.88
298.711	4.92
299.082	4.85
299.452	4.92
299.823	5.08
300.194	5.12
300.564	5.04
300.935	5.12
301.305	5.22
301.676	5.26
302.046	5.32
302.416	5.39
302.787	5.47
303.157	5.58
303.527	5.72
303.897	5.76
304.267	5.98
304.637	6.04
305.008	6.22
305.378	6.47
305.748	6.76
306.117	6.69
306.487	6.74
306.857	6.99
307.227	7.14
307.597	6.96
307.967	7.03
308.336	7.11
308.706	7.16
309.076	7.18
309.445	7.17
309.815	7.23
310.184	7.22
310.554	7.2
310.923	7.29
311.293	7.41
311.662	7.43
312.031	7.51
312.401	7.55
312.77	7.61
313.139	7.62
313.508	7.57
313.877	7.67
314.246	7.7
314.616	7.72
314.985	7.67
315.353	7.76
315.722	7.77
316.091	7.85
316.46	7.9
316.829	7.99
317.198	8.09
317.567	8.26
317.935	8.33
318.304	8.5
318.672	8.61
319.041	8.85
319.41	8.91
319.778	8.79
320.147	8.83
320.515	8.74
320.883	8.71
321.252	8.74
321.62	8.84
321.988	8.94
322.357	9.02
322.725	9
323.093	9.22
323.461	9.31
323.829	9.42
324.197	9.53
324.565	9.63
324.933	9.65
325.301	9.61
325.669	9.74
326.037	9.7
326.405	9.65
326.772	9.51
327.14	9.56
327.508	9.8
327.875	9.79
328.243	9.94
328.61	10.11
328.978	10.15
329.346	10.33
329.713	10.2
330.08	10.38
330.448	10.47
330.815	10.42
331.182	10.44
331.55	10.43
331.917	10.47
332.284	10.36
332.651	10.33
333.018	10.41
333.385	10.52
333.752	10.67
334.119	10.83
334.486	10.87
334.853	11.01
335.22	10.96
335.587	11.09
335.954	11
336.32	10.96
336.687	11.08
337.054	11.04
337.42	11.11
337.787	11.01
338.153	11.12
338.52	11.22
338.886	11.23
339.253	11.15
339.619	11.15
339.986	11.17
340.352	11.29
340.718	11.37
341.084	11.24
341.451	11.3
341.817	11.32
342.183	11.27
342.549	11.17
342.915	11.2
343.281	11.1
343.647	11.1
344.013	11.11
344.379	10.97
344.745	10.98
345.11	11.09
345.476	11.16
345.842	11.08
346.208	11.11
346.573	11.22
346.939	11.39
347.304	11.35
347.67	11.34
348.035	11.31
348.401	11.29
348.766	11.38
349.132	11.22
349.497	11.15
349.862	11.22
350.228	11.41
350.593	11.45
350.958	11.62
351.323	11.66
351.688	11.63
352.053	11.63
352.418	11.65
352.783	11.6
353.148	11.53
353.513	11.58
353.878	11.44
354.243	11.4
354.608	11.39
354.972	11.36
355.337	11.42
355.702	11.43
356.066	11.39
356.431	11.33
356.795	11.44
357.16	11.41
357.524	11.37
357.889	11.22
358.253	11.15
358.618	11.12
358.982	11.09
359.346	11.09
359.71	11.14
360.075	11.17
360.439	11.19
360.803	11.15
361.167	11.1
361.531	11.14
361.895	11.09
362.259	11.01
362.623	11.05
362.987	11.01
363.351	10.99
363.714	11.03
364.078	11.02
364.442	10.98
364.806	10.91
365.169	10.89
365.533	10.9
365.896	10.84
366.26	10.74
366.623	10.71
366.987	10.67
367.35	10.58
367.714	10.43
368.077	10.35
368.44	10.29
368.803	10.18
369.167	10.08
369.53	10
369.893	9.99
370.256	9.88
370.619	9.83
370.982	9.66
371.345	9.51
371.708	9.4
372.071	9.27
372.434	9.26
372.797	9.19
373.159	9.11
373.522	9.08
373.885	8.99
374.247	8.98
374.61	8.91
374.973	8.84
375.335	8.81
375.698	8.73
376.06	8.62
376.423	8.61
376.785	8.57
377.147	8.55
377.51	8.49
377.872	8.46
378.234	8.34
378.596	8.33
378.958	8.22
379.321	8.2
379.683	8.18
380.045	8.06
380.407	8.01
380.769	7.88
381.13	7.79
381.492	7.74
381.854	7.66
382.216	7.63
382.578	7.56
382.939	7.45
383.301	7.41
383.663	7.41
384.024	7.34
384.386	7.3
384.747	7.21
385.109	7.12
385.47	7.01
385.832	7.02
386.193	7
386.554	7
386.916	6.95
387.277	6.91
387.638	6.94
387.999	6.9
388.36	6.9
388.721	6.84
389.082	6.82
389.443	6.76
389.804	6.68
390.165	6.64
390.526	6.62
390.887	6.56
391.248	6.55
391.609	6.54
391.969	6.5
392.33	6.45
392.691	6.43
393.051	6.43
393.412	6.36
393.772	6.29
394.133	6.24
394.493	6.18
394.854	6.12
395.214	6.02
395.574	5.93
395.935	5.86
396.295	5.87
396.655	5.8
397.015	5.76
397.376	5.7
397.736	5.65
398.096	5.6
398.456	5.56
398.816	5.51
399.176	5.4
399.535	5.33
399.895	5.28
400.255	5.23
400.615	5.16
400.975	5.1
401.334	5.05
401.694	4.98
402.054	4.95
402.413	4.92
402.773	4.91
403.132	4.95
403.492	4.91
403.851	4.91
404.211	4.9
404.57	4.88
404.929	4.89
405.288	4.88
405.648	4.85
406.007	4.86
406.366	4.82
406.725	4.83
407.084	4.86
407.443	4.85
407.802	4.87
408.161	4.85
408.52	4.84
408.879	4.84
409.238	4.88
409.596	4.88
409.955	4.85
410.314	4.83
410.673	4.8
411.031	4.8
411.39	4.71
411.748	4.72
412.107	4.7
412.465	4.66
412.824	4.65
413.182	4.67
413.54	4.65
413.899	4.65
414.257	4.61
414.615	4.57
414.974	4.54
415.332	4.49
415.69	4.51
416.048	4.49
416.406	4.48
416.764	4.45
417.122	4.43
417.48	4.41
417.838	4.39
418.195	4.36
418.553	4.34
418.911	4.34
419.269	4.32
419.626	4.29
419.984	4.28
420.342	4.26
420.699	4.22
421.057	4.19
421.414	4.16
421.772	4.14
422.129	4.13
422.486	4.1
422.844	4.09
423.201	4.07
423.558	4.05
423.915	4.03
424.273	4.01
424.63	3.98
424.987	3.97
425.344	3.96
425.701	3.96
426.058	3.96
426.415	3.94
426.772	3.92
427.128	3.92
427.485	3.89
427.842	3.86
428.199	3.86
428.555	3.84
428.912	3.83
429.269	3.85
429.625	3.84
429.982	3.85
430.338	3.82
430.695	3.81
431.051	3.79
431.407	3.78
431.764	3.78
432.12	3.78
432.476	3.78
432.832	3.75
433.189	3.74
433.545	3.73
433.901	3.75
434.257	3.74
434.613	3.73
434.969	3.73
435.325	3.75
435.681	3.75
436.036	3.79
436.392	3.8
436.748	3.78
437.104	3.78
437.459	3.79
437.815	3.8
438.171	3.81
438.526	3.83
438.882	3.83
439.237	3.85
439.593	3.86
439.948	3.87
440.304	3.88
440.659	3.88
441.014	3.87
441.369	3.84
441.725	3.85
442.08	3.85
442.435	3.87
442.79	3.86
443.145	3.86
443.5	3.84
443.855	3.82
444.21	3.81
444.565	3.82
444.92	3.81
445.275	3.8
445.629	3.79
445.984	3.77
446.339	3.75
446.693	3.73
447.048	3.71
447.403	3.7
447.757	3.69
448.112	3.68
448.466	3.7
448.82	3.7
449.175	3.7
449.529	3.68
449.883	3.65
450.238	3.63
450.592	3.62
450.946	3.61
451.3	3.62
451.654	3.62
452.008	3.62
452.362	3.6
452.716	3.6
453.07	3.6
453.424	3.6
453.778	3.62
454.132	3.62
454.486	3.61
454.839	3.61
455.193	3.61
455.547	3.6
455.9	3.58
456.254	3.61
456.607	3.61
456.961	3.62
457.314	3.62
457.668	3.63
458.021	3.63
458.375	3.62
458.728	3.63
459.081	3.62
459.434	3.61
459.787	3.63
460.141	3.63
460.494	3.62
460.847	3.65
461.2	3.64
461.553	3.65
461.906	3.67
462.259	3.68
462.611	3.69
462.964	3.7
463.317	3.71
463.67	3.71
464.022	3.73
464.375	3.73
464.728	3.76
465.08	3.78
465.433	3.79
465.785	3.83
466.138	3.84
466.49	3.85
466.843	3.87
467.195	3.87
467.547	3.89
467.899	3.9
468.252	3.89
468.604	3.93
468.956	3.95
469.308	3.95
469.66	3.95
470.012	3.96
470.364	3.99
470.716	4.02
471.068	4.03
471.42	4.04
471.772	4.07
472.123	4.08
472.475	4.09
472.827	4.09
473.178	4.08
473.53	4.08
473.882	4.1
474.233	4.09
474.585	4.06
474.936	4.07
475.288	4.08
475.639	4.07
475.99	4.06
476.342	4.05
476.693	4.04
477.044	4.06
477.395	4.06
477.746	4.05
478.097	4.02
478.448	3.99
478.8	3.95
479.15	3.93
479.501	3.91
479.852	3.9
480.203	3.89
480.554	3.89
480.905	3.89
481.255	3.88
481.606	3.89
481.957	3.89
482.307	3.89
482.658	3.9
483.009	3.89
483.359	3.89
483.709	3.9
484.06	3.9
484.41	3.9
484.761	3.89
485.111	3.89
485.461	3.9
485.811	3.9
486.162	3.91
486.512	3.93
486.862	3.93
487.212	3.93
487.562	3.95
487.912	3.95
488.262	3.95
488.612	3.95
488.961	3.96
489.311	3.98
489.661	3.98
490.011	3.98
490.36	3.98
490.71	3.99
491.06	3.98
491.409	3.99
491.759	4
492.108	4.01
492.458	4.02
492.807	4.02
493.157	4.03
493.506	4.05
493.855	4.04
494.204	4.02
494.554	4.05
494.903	4.08
495.252	4.11
495.601	4.14
495.95	4.18
496.299	4.2
496.648	4.23
496.997	4.26
497.346	4.3
497.695	4.37
498.043	4.41
498.392	4.46
498.741	4.51
499.09	4.57
499.438	4.64
499.787	4.71
500.135	4.77
500.484	4.84
500.832	4.9
501.181	4.99
501.529	5.1
501.878	5.19
502.226	5.28
502.574	5.37
502.923	5.46
503.271	5.53
503.619	5.66
503.967	5.76
504.315	5.84
504.663	5.94
505.011	6.03
505.359	6.15
505.707	6.28
506.055	6.39
506.403	6.52
506.751	6.65
507.098	6.76
507.446	6.89
507.794	7.02
508.141	7.12
508.489	7.25
508.837	7.39
509.184	7.52
509.531	7.63
509.879	7.79
510.226	7.94
510.574	8.09
510.921	8.21
511.268	8.34
511.616	8.51
511.963	8.68
512.31	8.84
512.657	8.98
513.004	9.14
513.351	9.3
513.698	9.47
514.045	9.64
514.392	9.81
514.739	10
515.086	10.18
515.432	10.38
515.779	10.54
516.126	10.71
516.473	10.86
516.819	11.03
517.166	11.17
517.512	11.28
517.859	11.4
518.205	11.53
518.552	11.68
518.898	11.79
519.245	11.89
519.591	12.01
519.937	12.14
520.283	12.27
520.629	12.43
520.976	12.55
521.322	12.7
521.668	12.87
522.014	13.06
522.36	13.19
522.706	13.35
523.052	13.54
523.398	13.73
523.743	13.95
524.089	14.15
524.435	14.34
524.781	14.55
525.126	14.75
525.472	14.92
525.817	15.07
526.163	15.21
526.509	15.35
526.854	15.5
527.199	15.64
527.545	15.77
527.89	15.88
528.235	16.01
528.581	16.14
528.926	16.27
529.271	16.38
529.616	16.52
529.961	16.68
530.306	16.84
530.651	17.02
530.996	17.17
531.341	17.34
531.686	17.51
532.031	17.69
532.376	17.88
532.721	18.08
533.065	18.28
533.41	18.52
533.755	18.74
534.099	18.94
534.444	19.14
534.788	19.35
535.133	19.54
535.477	19.77
535.822	20
536.166	20.24
536.51	20.52
536.855	20.8
537.199	21.08
537.543	21.36
537.887	21.62
538.231	21.9
538.576	22.21
538.92	22.52
539.264	22.78
539.608	23.03
539.951	23.25
540.295	23.51
540.639	23.73
540.983	23.98
541.327	24.2
541.671	24.42
542.014	24.65
542.358	24.92
542.701	25.14
543.045	25.37
543.389	25.59
543.732	25.83
544.075	26.08
544.419	26.32
544.762	26.55
545.105	26.81
545.449	27.07
545.792	27.34
546.135	27.64
546.478	27.96
546.821	28.3
547.165	28.63
547.508	28.97
547.851	29.27
548.194	29.58
548.536	29.91
548.879	30.28
549.222	30.62
549.565	30.92
549.908	31.26
550.25	31.64
550.593	31.96
550.936	32.27
551.278	32.58
551.621	32.92
551.963	33.22
552.306	33.56
552.648	33.88
552.991	34.2
553.333	34.51
553.675	34.78
554.017	35.03
554.36	35.28
554.702	35.51
555.044	35.83
555.386	36.08
555.728	36.33
556.07	36.64
556.412	36.91
556.754	37.25
557.096	37.51
557.438	37.71
557.78	38.04
558.121	38.3
558.463	38.57
558.805	38.83
559.147	39.11
559.488	39.33
559.83	39.57
560.171	39.77
560.513	39.97
560.854	40.22
561.196	40.47
561.537	40.73
561.878	40.94
562.22	41.17
562.561	41.43
562.902	41.64
563.243	41.79
563.584	42.01
563.925	42.19
564.266	42.35
564.607	42.63
564.948	42.74
565.289	42.92
565.63	43.11
565.971	43.24
566.312	43.44
566.653	43.61
566.993	43.77
567.334	43.91
567.675	44.01
568.015	44.23
568.356	44.35
568.696	44.55
569.037	44.68
569.377	44.85
569.718	44.96
570.058	45.13
570.398	45.27
570.739	45.4
571.079	45.53
571.419	45.71
571.759	45.8
572.099	46
572.439	46.07
572.779	46.18
573.119	46.35
573.459	46.42
573.799	46.59
574.139	46.7
574.479	46.83
574.819	47.02
575.158	47.09
575.498	47.26
575.838	47.32
576.177	47.47
576.517	47.53
576.856	47.66
577.196	47.78
577.535	47.98
577.875	48.09
578.214	48.2
578.553	48.29
578.893	48.41
579.232	48.48
579.571	48.66
579.91	48.86
580.25	48.98
580.589	49.07
580.928	49.1
581.267	49.2
581.606	49.3
581.945	49.34
582.283	49.39
582.622	49.45
582.961	49.54
583.3	49.59
583.639	49.66
583.977	49.77
584.316	49.84
584.654	49.89
584.993	49.98
585.332	50.05
585.67	50.15
586.008	50.23
586.347	50.31
586.685	50.45
587.024	50.49
587.362	50.56
587.7	50.7
588.038	50.76
588.376	50.74
588.715	50.82
589.053	50.9
589.391	51
589.729	51.07
590.067	51.07
590.404	51.18
590.742	51.24
591.08	51.29
591.418	51.4
591.756	51.42
592.093	51.46
592.431	51.47
592.769	51.53
593.106	51.55
593.444	51.6
593.781	51.58
594.119	51.62
594.456	51.6
594.793	51.63
595.131	51.76
595.468	51.88
595.805	51.93
596.143	51.98
596.48	52.04
596.817	52.08
597.154	52.2
597.491	52.27
597.828	52.38
598.165	52.42
598.502	52.42
598.839	52.44
599.176	52.43
599.512	52.5
599.849	52.48
600.186	52.5
600.523	52.51
600.859	52.53
601.196	52.61
601.532	52.72
601.869	52.83
602.205	52.81
602.542	52.85
602.878	52.84
603.215	52.87
603.551	52.9
603.887	52.97
604.223	53.03
604.56	53.14
604.896	53.13
605.232	53.15
605.568	53.2
605.904	53.28
606.24	53.36
606.576	53.41
606.912	53.51
607.248	53.53
607.583	53.64
607.919	53.68
608.255	53.66
608.591	53.72
608.926	53.77
609.262	53.81
609.597	53.85
609.933	53.99
610.268	54.04
610.604	54.08
610.939	54.14
611.275	54.15
611.61	54.09
611.945	54.13
612.281	54.18
612.616	54.16
612.951	54.15
613.286	54.15
613.621	54.14
613.956	54.12
614.291	54.18
614.626	54.18
614.961	54.23
615.296	54.24
615.631	54.26
615.966	54.17
616.3	54.28
616.635	54.34
616.97	54.26
617.304	54.19
617.639	54.26
617.973	54.15
618.308	54.19
618.642	54.21
618.977	54.22
619.311	54.22
619.646	54.29
619.98	54.36
620.314	54.4
620.648	54.5
620.983	54.61
621.317	54.65
621.651	54.66
621.985	54.67
622.319	54.78
622.653	54.87
622.987	54.95
623.321	54.93
623.655	55.01
623.988	55.09
624.322	55.29
624.656	55.34
624.99	55.42
625.323	55.42
625.657	55.44
625.99	55.43
626.324	55.5
626.657	55.57
626.991	55.52
627.324	55.61
627.658	55.6
627.991	55.52
628.324	55.57
628.657	55.57
628.991	55.6
629.324	55.58
629.657	55.48
629.99	55.51
630.323	55.59
630.656	55.55
630.989	55.58
631.322	55.42
631.655	55.33
631.987	55.36
632.32	55.37
632.653	55.32
632.986	55.38
633.318	55.31
633.651	55.27
633.984	55.28
634.316	55.19
634.649	55.19
634.981	55.24
635.313	55.26
635.646	55.35
635.978	55.42
636.31	55.43
636.643	55.51
636.975	55.49
637.307	55.45
637.639	55.44
637.971	55.41
638.303	55.53
638.635	55.53
638.967	55.58
639.299	55.68
639.631	55.72
639.963	55.66
640.295	55.78
640.626	55.8
640.958	55.82
641.29	55.93
641.621	56.01
641.953	56.02
642.285	55.94
642.616	55.92
642.948	55.87
643.279	55.93
643.61	55.88
643.942	55.9
644.273	55.86
644.604	55.88
644.936	55.96
645.267	56.03
645.598	56.18
645.929	56.2
646.26	56.2
646.591	56.27
646.922	56.34
647.253	56.32
647.584	56.38
647.915	56.49
648.245	56.48
648.576	56.46
648.907	56.62
649.238	56.66
649.568	56.73
649.899	56.79
650.229	56.78
650.56	56.81
650.89	56.73
651.221	56.71
651.551	56.6
651.882	56.59
652.212	56.51
652.542	56.43
652.872	56.32
653.203	56.33
653.533	56.36
653.863	56.42
654.193	56.42
654.523	56.47
654.853	56.55
655.183	56.55
655.513	56.47
655.843	56.52
656.172	56.54
656.502	56.46
656.832	56.4
657.162	56.38
657.491	56.36
657.821	56.45
658.15	56.48
658.48	56.65
658.809	56.64
659.139	56.64
659.468	56.69
659.798	56.68
660.127	56.62
660.456	56.62
660.785	56.57
661.115	56.61
661.444	56.61
661.773	56.51
662.102	56.47
662.431	56.63
662.76	56.61
663.089	56.69
663.418	56.71
663.747	56.77
664.076	56.74
664.404	56.69
664.733	56.79
665.062	56.86
665.39	56.72
665.719	56.89
666.048	56.99
666.376	56.88
666.705	56.92
667.033	56.89
667.362	56.91
667.69	56.96
668.018	56.93
668.347	56.81
668.675	56.88
669.003	56.89
669.331	56.83
669.659	56.68
669.987	56.64
670.315	56.71
670.643	56.75
670.971	56.91
671.299	56.91
671.627	56.89
671.955	56.91
672.283	56.99
672.61	56.88
672.938	56.86
673.266	56.91
673.593	57.04
673.921	57.19
674.249	57.15
674.576	57.05
674.904	57.08
675.231	57.3
675.558	57.32
675.886	57.48
676.213	57.55
676.54	57.63
676.867	57.67
677.195	57.68
677.522	57.63
677.849	57.59
678.176	57.64
678.503	57.64
678.83	57.63
679.157	57.58
679.484	57.51
679.81	57.52
680.137	57.5
680.464	57.45
680.791	57.32
681.117	57.36
681.444	57.53
681.771	57.56
682.097	57.35
682.424	57.29
682.75	57.23
683.077	57.22
683.403	57.19
683.729	57.24
684.056	57.27
684.382	57.39
684.708	57.25
685.034	57.28
685.36	57.32
685.686	57.25
686.012	57.23
686.339	57.1
686.664	57.05
686.99	57.09
687.316	57.2
687.642	57.18
687.968	57.16
688.294	57.17
688.619	57.06
688.945	57.11
689.271	57
689.596	56.94
689.922	57.06
690.247	57.08
690.573	57.03
690.898	57
691.224	56.95
691.549	57.04
691.874	57.03
692.2	56.92
692.525	56.97
692.85	56.98
693.175	57.11
693.5	57.13
693.825	57.24
694.15	57.23
694.475	57.31
694.8	57.19
695.125	57.18
695.45	57.16
695.775	57.13
696.099	57.27
696.424	57.28
696.749	57.1
697.073	57.07
697.398	57.02
697.723	57.08
698.047	57
698.372	57.04
698.696	57.19
699.02	57.32
699.345	57.34
699.669	57.38
699.993	57.35
700.318	57.39
700.642	57.3
700.966	57.22
701.29	57.26
701.614	57.33
701.938	57.14
702.262	57.18
702.586	57.23
702.91	57.24
703.234	57.31
703.557	57.52
703.881	57.56
704.205	57.66
704.529	57.64
704.852	57.7
705.176	57.66
705.499	57.46
705.823	57.3
706.146	57.05
706.47	57.13
706.793	57.23
707.117	57.24
707.44	57.3
707.763	57.43
708.086	57.62
708.409	57.74
708.733	58.09
709.056	58.28
709.379	58.56
709.702	58.43
710.025	58.48
710.348	58.07
710.671	58.04
710.993	57.94
711.316	57.92
711.639	58.02
711.962	58.13
712.284	58.24
712.607	58.31
712.93	58.69
713.252	58.51
713.575	58.69
713.897	58.62
714.22	58.59
714.542	58.67
714.864	58.36
715.187	58.34
715.509	58.2
715.831	58.07
716.153	57.91
716.475	57.91
716.798	57.92
717.12	58
717.442	58.05
717.764	57.99
718.085	57.81
718.407	57.72
718.729	57.52
719.051	57.5
719.373	57.36
719.695	57.03
720.016	57.08
720.338	57.04
720.659	56.98
720.981	56.89
721.302	56.88
721.624	56.93
721.945	57.03
722.267	56.8
722.588	56.95
722.909	57.07
723.231	57.08
723.552	57.02
723.873	57.2
724.194	57.27
724.515	57.12
724.836	57.39
725.157	57.33
725.478	57.28
725.799	57.26
726.12	57.52
726.441	57.95
726.762	58.22
727.083	58.05
727.403	58.11
727.724	58.36
728.045	58.15
728.365	58.21
728.686	58.11
729.006	58.29
729.327	58.22
729.647	58.12
729.967	58.28
730.288	58.3
730.608	58.06
730.928	57.88
731.249	58.17
731.569	57.99
731.889	58.14
732.209	58.4
732.529	58.5
732.849	58.43
733.169	58.35
733.489	58.41
733.809	58.61
734.129	58.7
734.448	58.5
734.768	58.41
735.088	58.43
735.408	58.32
735.727	58.45
736.047	58.3
736.366	58.18
736.686	58.14
737.005	58.23
737.325	58.42
737.644	58.51
737.963	58.43
738.283	58.74
738.602	58.74
738.921	58.61
739.24	58.59
739.56	58.45
739.879	58.47
740.198	58.31
740.517	58.18
740.836	58.24
741.155	58.55
741.473	58.69
741.792	58.97
742.111	59.27
742.43	59.14
742.748	59.35
743.067	59.49
743.386	59.54
743.704	59.46
744.023	59.27
744.341	59.54
744.66	59.59
744.978	59.07
745.297	59.13
745.615	59.08
745.933	58.97
746.252	59.42
746.57	59.39
746.888	59.33
747.206	59.55
747.524	59.41
747.842	59.19
748.16	59.29
748.478	58.98
748.796	58.89
749.114	58.89
749.432	58.99
749.749	58.93
750.067	59.12
750.385	59.3
750.703	59.44
751.02	59.3
751.338	59.56
751.655	59.92
751.973	59.65
752.29	59.61
752.608	59.89
752.925	59.74
753.242	59.71
753.56	59.42
753.877	59
754.194	59.29
754.511	59.56
754.828	59.32
755.145	59.22
755.462	59.2
755.779	59.48
756.096	59.28
756.413	59.36
756.73	59.18
757.047	58.97
757.364	59.29
757.68	59.28
757.997	59.02
758.314	59.42
758.63	59.75
758.947	60.05
759.264	59.96
759.58	59.75
759.896	59.84
760.213	60.07
760.529	60.26
760.846	60.01
761.162	59.74
761.478	59.78
761.794	59.8
762.11	59.77
762.426	59.62
762.743	59.75
763.059	59.59
763.375	59.86
763.69	59.88
764.006	59.82
764.322	59.76
764.638	59.93
764.954	59.6
765.27	59.13
765.585	58.89
765.901	58.76
766.216	58.66
766.532	58.61
766.848	58.74
767.163	58.91
767.478	58.96
767.794	58.69
768.109	58.89
768.424	59.07
768.74	58.98
769.055	59.04
769.37	58.85
769.685	58.97
770	58.82
770.315	58.51
770.63	58.56
770.945	58.58
771.26	58.49
771.575	58.79
771.89	59.72
772.205	60.14
772.52	60.21
772.834	60.63
773.149	60.55
773.464	60.7
773.778	60.38
774.093	60.33
774.407	60.68
774.722	60.47
775.036	60.42
775.351	60.82
775.665	60.71
775.979	60.39
776.293	60.4
776.608	60.11
776.922	60.3
777.236	59.86
777.55	59.84
777.864	60.12
778.178	59.51
778.492	58.95
778.806	58.92
779.12	58.81
779.434	58.52
779.747	58.83
780.061	58.34
780.375	58.32
780.689	58.38
781.002	58.65
781.316	58.55
781.629	58.6
781.943	58.37
782.256	58.07
782.57	58.09
782.883	58.08
783.196	58.09
783.51	58.34
783.823	58.83
784.136	59.5
784.449	58.88
784.762	59.35
785.075	59.49
785.388	58.84
785.701	59.03
786.014	58.82
786.327	58.76
786.64	59.08
786.953	59.47
787.266	59.33
787.578	59.57
787.891	59.51
788.204	59.58
788.516	59.6
788.829	60.23
789.141	61.1
789.454	61.19
789.766	61.04
790.079	61.22
790.391	61.09
790.703	60.17
791.016	59.94
791.328	60
791.64	59.92
791.952	60.26
792.264	59.92
792.576	60.36
792.888	60.36
793.2	61.06
793.512	60.63
793.824	60.88
794.136	60.56
794.448	60.78
794.76	60.24
795.071	60.04
795.383	59.31
795.695	59.06
796.006	59.24
796.318	59.75
796.629	59.24
796.941	59.04
797.252	59.44
797.564	59.58
797.875	59.79
798.186	59.93
798.497	60.31
798.809	60.51
799.12	60.38
799.431	59.43
799.742	58.45
800.053	58.51
800.364	58.8
800.675	58.61
800.986	59.33
801.297	59.31
801.608	58.95
801.918	59.33
802.229	58.94
802.54	58.95
802.851	59.16
803.161	59.26
803.472	59.62
803.782	59.53
804.093	59.94
804.403	59.16
804.714	59.37
805.024	59.3
805.334	59.25
805.645	59.36
805.955	60.5
806.265	60.81
806.575	61.24
806.885	61.4
807.195	62.03
807.505	61.22
807.815	61.31
808.125	62.48
808.435	62.24
808.745	62.81
809.055	62.91
809.365	62.19
809.674	62.21
809.984	61.74
810.294	62.07
810.603	62.22
810.913	63.01
811.222	62.97
811.532	62.66
811.841	62.9
812.151	62.54
812.46	61.59
812.769	61.23
813.079	61.28
813.388	60.67
813.697	61.26
814.006	60.7
814.315	61.2
814.624	60.08
814.933	59.96
815.242	60.1
815.551	60.69
815.86	60.76
816.169	61.49
816.478	61.95
816.786	61.73
817.095	61.29
817.404	61.13
817.712	61.52
818.021	61.77
818.33	61.82
818.638	61.57
818.947	61.67
819.255	61.51
819.563	61.36
819.872	61.34
820.18	60.51
820.488	60.5
820.796	60.43
821.105	60.47
821.413	60.54
821.721	60.26
822.029	60.04
822.337	60.31
822.645	60.27
822.953	60.03
823.26	60
823.568	60.2
823.876	60.21
824.184	59.94
824.491	59.92
824.799	59.97
825.107	60.19
825.414	60.36
825.722	60.44
826.029	60.25
826.337	60.29
826.644	60.32
826.951	60.32
827.259	60.1
827.566	60.38
827.873	60.58
828.18	60.76
828.488	60.57
828.795	60.15
829.102	60.16
829.409	60.61
829.716	60.59
830.023	60.57
830.329	60.7
830.636	60.67
830.943	60.59
831.25	60.4
831.557	60.14
831.863	59.64
832.17	59.25
832.476	59.5
832.783	59.62
833.089	59.93
833.396	60.45
833.702	61.03
834.009	61
834.315	60.66
834.621	60.72
834.928	61.06
835.234	61.25
835.54	61.34
835.846	61.22
836.152	61.37
836.458	61.5
836.764	61.34
837.07	61.49
837.376	61.41
837.682	61.52
837.988	61.71
838.293	61.92
838.599	62.26
838.905	62.45
839.211	61.68
839.516	61.21
839.822	60.84
840.127	61.25
840.433	60.38
840.738	60.32
841.044	59.63
841.349	59.4
841.654	58.43
841.959	57.15
842.265	56.31
842.57	57.54
842.875	57.21
843.18	57.64
843.485	58.7
843.79	59.06
844.095	59.29
844.4	59.8
844.705	58.36
845.01	59.52
845.315	59.75
845.619	60.11
845.924	60.64
846.229	60.41
846.533	60.53
846.838	60.95
847.142	60.28
847.447	59.83
847.751	60.79
848.056	60.31
848.36	59.66
848.664	61.04
848.969	57.73
849.273	56.98
849.577	56.16
849.881	53.71
850.185	56.17
850.489	55.94
850.794	54.24
851.097	56.7
851.401	55.11
851.705	54.05
852.009	54.9
852.313	53.27
852.617	54.54
852.92	51.86
853.224	50.72
853.528	54.36
853.831	54.86
854.135	53.47
854.438	55.84
854.742	56.8
855.045	55.93
855.349	55.44
855.652	54.26
855.955	53.43
856.259	55.66
856.562	54.01
856.865	53.36
857.168	52.37
857.471	52.65
857.774	52.49
858.077	53.78
858.38	53.5
858.683	53.85
858.986	54.05
859.289	57.26
859.592	56.91
859.894	53.05
860.197	54.07
860.5	56.34
860.802	55.31
861.105	56.42
861.407	55.15
861.71	55.96
862.012	57.14
862.315	57.59
862.617	54.77
862.919	52.63
863.222	52.9
863.524	53.42
863.826	54.55
864.128	54.98
864.43	54.83
864.732	54.87
865.034	56.85
865.336	54.55
865.638	51.5
865.94	50.1
866.242	51.2
866.544	51.58
866.846	49.01
867.147	50.41
867.449	49.08
867.751	52.14
868.052	53.58
868.354	52.8
868.655	52.69
868.957	54.4
869.258	54.54
869.56	54.63
869.861	55.42
870.162	54.66
870.463	54.08
870.765	52.62
871.066	53.65
871.367	50.99
871.668	54.48
871.969	56.65
872.27	58.85
872.571	55.54
872.872	53.96
873.173	54.29
873.473	54.12
873.774	55.41
874.075	53.29
874.376	54.07
874.676	55.71
874.977	56.29
875.277	55.17
875.578	55.45
875.878	55.47
876.179	55.12
876.479	54.22
876.78	54.87
877.08	55.49
877.38	53.86
877.68	55.67
877.981	52.65
878.281	50.83
878.581	51.88
