Data from BU26850_Reflection_00014.txt Node
Date: Mon Nov 18 16:45:52 EST 2019
User: vgr7
Spectrometer: USB2G7710
Scans to average: 3
Trigger mode: 4
Integration Time (sec): 2.000000E-2
Electric dark correction enabled: true
Boxcar width: 10
XAxis mode: Wavelengths
Number of Pixels in Spectrum: 2048
>>>>>Begin Spectral Data<<<<<
177.721	-76.84
178.105	-34.28
178.488	72.2
178.871	-21.97
179.254	32.02
179.636	-103.05
180.019	-48.28
180.402	-0
180.785	127.11
181.168	17.96
181.55	-206.75
181.933	171.58
182.316	297.18
182.698	-10.91
183.081	-78.31
183.463	749.35
183.846	90.31
184.228	299.46
184.611	-393.62
184.993	-1596.2
185.376	267.08
185.758	287.29
186.14	114.88
186.522	16.98
186.904	55.29
187.287	37.92
187.669	55.95
188.051	36.59
188.433	19.62
188.815	33.55
189.197	14.55
189.579	10.86
189.961	14.41
190.342	14.3
190.724	-4.5
191.106	2.23
191.488	-1.41
191.869	4.34
192.251	1.23
192.633	8.07
193.014	6.03
193.396	17.85
193.777	30.41
194.159	14.25
194.54	27.39
194.922	38.77
195.303	29.7
195.684	21.52
196.065	40.44
196.447	35.55
196.828	28.11
197.209	30.73
197.59	31.15
197.971	35.27
198.352	41.78
198.733	43.21
199.114	31.82
199.495	40.83
199.876	41.54
200.257	32.23
200.638	31.14
201.018	22.49
201.399	16.65
201.78	10.28
202.16	11.81
202.541	5.77
202.922	-4.06
203.302	-0.55
203.683	3.68
204.063	-2.76
204.444	9.34
204.824	7.9
205.204	28.64
205.585	24.34
205.965	16.04
206.345	-2.36
206.725	3.95
207.106	12.99
207.486	-14.12
207.866	-17.26
208.246	-3.05
208.626	-5.26
209.006	35.36
209.386	21.58
209.766	48.44
210.145	76.81
210.525	68.04
210.905	72.07
211.285	49.16
211.664	51.84
212.044	37.27
212.424	32.41
212.803	46.85
213.183	27.39
213.562	25.83
213.942	31.47
214.321	35.27
214.701	33.4
215.08	41.68
215.459	36.49
215.838	42.94
216.218	37.18
216.597	37.63
216.976	29.67
217.355	34.86
217.734	17.18
218.113	10.96
218.492	18.63
218.871	14.41
219.25	21.66
219.629	21.22
220.008	17.35
220.387	17.08
220.766	20.52
221.144	18.67
221.523	18.29
221.902	17.58
222.28	6.11
222.659	2.28
223.037	8.75
223.416	16.31
223.794	4.83
224.173	5.38
224.551	9.46
224.929	-0.36
225.308	5.98
225.686	15.62
226.064	11.3
226.442	9.01
226.821	9.99
227.199	8.01
227.577	11.5
227.955	13.86
228.333	11.63
228.711	8.36
229.089	12.83
229.467	9.37
229.845	8.34
230.222	11.05
230.6	9.43
230.978	8.02
231.356	9.57
231.733	11.7
232.111	11.04
232.488	11.25
232.866	11.28
233.243	8.63
233.621	7.57
233.998	9.52
234.376	9.54
234.753	8.91
235.13	7.97
235.508	7.04
235.885	8.2
236.262	7.71
236.639	9.5
237.016	7.94
237.393	7.61
237.77	7.04
238.147	7.97
238.524	8.5
238.901	8.6
239.278	8.62
239.655	9.28
240.032	8.7
240.409	7.79
240.785	7.09
241.162	7.88
241.539	8.02
241.915	7.58
242.292	6.25
242.668	6.3
243.045	6.64
243.421	6.44
243.798	6.05
244.174	6.12
244.551	5.99
244.927	6.01
245.303	6.26
245.679	6.69
246.056	6.34
246.432	6.13
246.808	6.01
247.184	5.86
247.56	5.63
247.936	5.8
248.312	5.81
248.688	6
249.064	5.75
249.44	5.64
249.815	5.8
250.191	6.24
250.567	6.12
250.943	5.99
251.318	6.08
251.694	6.31
252.069	6.05
252.445	6.1
252.82	6.01
253.196	6.16
253.571	5.84
253.947	6.01
254.322	6.23
254.697	5.81
255.073	5.81
255.448	5.52
255.823	5.42
256.198	5.33
256.573	5.31
256.948	5.43
257.323	5.55
257.698	5.2
258.073	5.02
258.448	5.11
258.823	5.05
259.198	4.93
259.573	4.76
259.948	5.05
260.322	5.03
260.697	4.93
261.072	4.74
261.446	4.72
261.821	4.57
262.195	4.69
262.57	4.83
262.944	4.74
263.319	4.84
263.693	4.8
264.067	4.9
264.442	4.97
264.816	4.72
265.19	4.62
265.564	4.83
265.938	4.91
266.313	4.83
266.687	4.89
267.061	4.97
267.435	4.93
267.809	4.8
268.183	4.65
268.556	4.71
268.93	4.9
269.304	4.8
269.678	5
270.051	4.93
270.425	4.95
270.799	4.95
271.172	4.99
271.546	5.03
271.919	4.98
272.293	4.99
272.666	5.14
273.04	5.13
273.413	5.04
273.787	4.9
274.16	4.76
274.533	4.85
274.906	4.79
275.279	5.06
275.653	5.03
276.026	5.11
276.399	5.21
276.772	5.14
277.145	5.02
277.518	5.04
277.891	4.94
278.263	4.97
278.636	4.84
279.009	4.77
279.382	4.55
279.755	4.47
280.127	4.59
280.5	4.59
280.872	4.78
281.245	4.87
281.617	5.06
281.99	5.09
282.362	5
282.735	5
283.107	4.83
283.479	4.82
283.852	4.74
284.224	4.77
284.596	4.7
284.968	4.9
285.34	4.7
285.713	4.64
286.085	4.73
286.457	5.01
286.829	4.96
287.201	5.15
287.572	5.15
287.944	5.13
288.316	5.13
288.688	5
289.06	4.98
289.431	4.95
289.803	5.09
290.175	4.99
290.546	5.24
290.918	5.23
291.289	5.33
291.661	5.39
292.032	5.38
292.403	5.66
292.775	5.81
293.146	5.88
293.517	6.04
293.889	6.17
294.26	6.09
294.631	6.26
295.002	6.31
295.373	6.39
295.744	6.47
296.115	6.55
296.486	6.49
296.857	6.45
297.228	6.44
297.599	6.48
297.97	6.69
298.34	6.58
298.711	6.79
299.082	6.71
299.452	6.91
299.823	7.08
300.194	6.97
300.564	6.73
300.935	6.99
301.305	7.03
301.676	7.02
302.046	7.09
302.416	7.31
302.787	7.3
303.157	7.48
303.527	7.47
303.897	7.65
304.267	7.95
304.637	8.19
305.008	8.3
305.378	8.35
305.748	8.45
306.117	8.42
306.487	8.51
306.857	8.71
307.227	8.52
307.597	8.53
307.967	8.71
308.336	8.98
308.706	9.02
309.076	9.14
309.445	9.12
309.815	9.31
310.184	9.19
310.554	9.33
310.923	9.31
311.293	9.43
311.662	9.23
312.031	9.31
312.401	9.35
312.77	9.62
313.139	9.65
313.508	9.71
313.877	9.78
314.246	9.93
314.616	10.05
314.985	10.34
315.353	10.32
315.722	10.38
316.091	10.36
316.46	10.24
316.829	10.29
317.198	10.37
317.567	10.34
317.935	10.43
318.304	10.58
318.672	10.71
319.041	10.86
319.41	11.17
319.778	11.21
320.147	11.32
320.515	11.23
320.883	11.53
321.252	11.72
321.62	12.05
321.988	11.97
322.357	11.86
322.725	11.98
323.093	12.27
323.461	12.29
323.829	12.45
324.197	12.74
324.565	12.74
324.933	12.8
325.301	13.02
325.669	13.09
326.037	13.11
326.405	13.27
326.772	13.29
327.14	13.39
327.508	13.44
327.875	13.41
328.243	13.55
328.61	13.5
328.978	13.49
329.346	13.5
329.713	13.53
330.08	13.85
330.448	13.71
330.815	13.63
331.182	13.65
331.55	13.71
331.917	13.63
332.284	13.76
332.651	13.95
333.018	14.01
333.385	13.95
333.752	14.13
334.119	14.11
334.486	14.15
334.853	14.04
335.22	14
335.587	14.18
335.954	14.12
336.32	14.15
336.687	14.22
337.054	14.28
337.42	14.41
337.787	14.35
338.153	14.45
338.52	14.5
338.886	14.64
339.253	14.58
339.619	14.69
339.986	14.63
340.352	14.53
340.718	14.34
341.084	14.39
341.451	14.28
341.817	14.38
342.183	14.28
342.549	14.41
342.915	14.51
343.281	14.4
343.647	14.48
344.013	14.54
344.379	14.43
344.745	14.46
345.11	14.41
345.476	14.36
345.842	14.43
346.208	14.49
346.573	14.63
346.939	14.73
347.304	14.77
347.67	14.85
348.035	14.92
348.401	14.96
348.766	15.05
349.132	15.13
349.497	14.99
349.862	15.17
350.228	15.18
350.593	15.17
350.958	15.31
351.323	15.34
351.688	15.3
352.053	15.36
352.418	15.37
352.783	15.41
353.148	15.41
353.513	15.4
353.878	15.38
354.243	15.32
354.608	15.43
354.972	15.42
355.337	15.47
355.702	15.43
356.066	15.52
356.431	15.46
356.795	15.41
357.16	15.4
357.524	15.24
357.889	15.27
358.253	15.31
358.618	15.23
358.982	15.16
359.346	15.18
359.71	15.17
360.075	15.1
360.439	15.07
360.803	15.06
361.167	15.03
361.531	14.94
361.895	14.86
362.259	14.76
362.623	14.67
362.987	14.57
363.351	14.48
363.714	14.37
364.078	14.34
364.442	14.36
364.806	14.36
365.169	14.42
365.533	14.29
365.896	14.17
366.26	14.12
366.623	14.06
366.987	13.99
367.35	13.87
367.714	13.78
368.077	13.66
368.44	13.65
368.803	13.55
369.167	13.54
369.53	13.46
369.893	13.5
370.256	13.43
370.619	13.34
370.982	13.33
371.345	13.29
371.708	13.25
372.071	13.12
372.434	13.07
372.797	13.02
373.159	12.98
373.522	12.97
373.885	12.88
374.247	12.83
374.61	12.79
374.973	12.7
375.335	12.69
375.698	12.6
376.06	12.5
376.423	12.42
376.785	12.37
377.147	12.34
377.51	12.22
377.872	12.16
378.234	12.16
378.596	12.09
378.958	11.98
379.321	11.88
379.683	11.88
380.045	11.78
380.407	11.72
380.769	11.61
381.13	11.52
381.492	11.52
381.854	11.5
382.216	11.42
382.578	11.37
382.939	11.27
383.301	11.24
383.663	11.16
384.024	11.1
384.386	11
384.747	10.94
385.109	10.84
385.47	10.77
385.832	10.72
386.193	10.67
386.554	10.6
386.916	10.54
387.277	10.42
387.638	10.36
387.999	10.22
388.36	10.16
388.721	10.08
389.082	10
389.443	9.88
389.804	9.81
390.165	9.74
390.526	9.67
390.887	9.6
391.248	9.59
391.609	9.5
391.969	9.46
392.33	9.38
392.691	9.35
393.051	9.27
393.412	9.18
393.772	9.1
394.133	9.05
394.493	8.98
394.854	8.93
395.214	8.86
395.574	8.82
395.935	8.74
396.295	8.7
396.655	8.59
397.015	8.56
397.376	8.49
397.736	8.43
398.096	8.36
398.456	8.31
398.816	8.2
399.176	8.13
399.535	8.07
399.895	7.99
400.255	7.9
400.615	7.85
400.975	7.78
401.334	7.77
401.694	7.74
402.054	7.68
402.413	7.67
402.773	7.62
403.132	7.55
403.492	7.52
403.851	7.48
404.211	7.49
404.57	7.41
404.929	7.36
405.288	7.32
405.648	7.3
406.007	7.26
406.366	7.24
406.725	7.25
407.084	7.24
407.443	7.22
407.802	7.22
408.161	7.19
408.52	7.17
408.879	7.12
409.238	7.1
409.596	7.09
409.955	7.04
410.314	7.02
410.673	6.99
411.031	6.98
411.39	6.95
411.748	6.92
412.107	6.88
412.465	6.87
412.824	6.86
413.182	6.8
413.54	6.77
413.899	6.73
414.257	6.69
414.615	6.6
414.974	6.56
415.332	6.52
415.69	6.48
416.048	6.44
416.406	6.41
416.764	6.38
417.122	6.33
417.48	6.27
417.838	6.23
418.195	6.2
418.553	6.17
418.911	6.11
419.269	6.07
419.626	6.04
419.984	5.99
420.342	5.95
420.699	5.92
421.057	5.89
421.414	5.86
421.772	5.83
422.129	5.83
422.486	5.79
422.844	5.78
423.201	5.75
423.558	5.73
423.915	5.7
424.273	5.66
424.63	5.63
424.987	5.61
425.344	5.58
425.701	5.56
426.058	5.54
426.415	5.53
426.772	5.51
427.128	5.51
427.485	5.49
427.842	5.47
428.199	5.48
428.555	5.47
428.912	5.46
429.269	5.44
429.625	5.4
429.982	5.37
430.338	5.32
430.695	5.32
431.051	5.31
431.407	5.3
431.764	5.28
432.12	5.27
432.476	5.26
432.832	5.24
433.189	5.23
433.545	5.23
433.901	5.23
434.257	5.23
434.613	5.24
434.969	5.24
435.325	5.25
435.681	5.22
436.036	5.21
436.392	5.21
436.748	5.21
437.104	5.21
437.459	5.24
437.815	5.26
438.171	5.28
438.526	5.28
438.882	5.29
439.237	5.31
439.593	5.32
439.948	5.33
440.304	5.33
440.659	5.35
441.014	5.34
441.369	5.35
441.725	5.34
442.08	5.33
442.435	5.33
442.79	5.31
443.145	5.32
443.5	5.31
443.855	5.29
444.21	5.29
444.565	5.29
444.92	5.28
445.275	5.24
445.629	5.21
445.984	5.2
446.339	5.17
446.693	5.13
447.048	5.11
447.403	5.09
447.757	5.08
448.112	5.06
448.466	5.05
448.82	5.02
449.175	5.01
449.529	4.97
449.883	4.95
450.238	4.94
450.592	4.92
450.946	4.91
451.3	4.88
451.654	4.84
452.008	4.81
452.362	4.78
452.716	4.77
453.07	4.78
453.424	4.79
453.778	4.8
454.132	4.81
454.486	4.79
454.839	4.79
455.193	4.77
455.547	4.76
455.9	4.75
456.254	4.76
456.607	4.77
456.961	4.78
457.314	4.78
457.668	4.78
458.021	4.78
458.375	4.78
458.728	4.82
459.081	4.83
459.434	4.82
459.787	4.84
460.141	4.85
460.494	4.84
460.847	4.84
461.2	4.84
461.553	4.86
461.906	4.89
462.259	4.92
462.611	4.95
462.964	4.98
463.317	5
463.67	5
464.022	5.02
464.375	5.04
464.728	5.07
465.08	5.08
465.433	5.1
465.785	5.11
466.138	5.12
466.49	5.15
466.843	5.21
467.195	5.24
467.547	5.26
467.899	5.29
468.252	5.32
468.604	5.34
468.956	5.38
469.308	5.38
469.66	5.37
470.012	5.4
470.364	5.43
470.716	5.45
471.068	5.49
471.42	5.5
471.772	5.55
472.123	5.57
472.475	5.63
472.827	5.65
473.178	5.68
473.53	5.71
473.882	5.73
474.233	5.75
474.585	5.73
474.936	5.76
475.288	5.76
475.639	5.75
475.99	5.76
476.342	5.75
476.693	5.78
477.044	5.79
477.395	5.78
477.746	5.78
478.097	5.77
478.448	5.74
478.8	5.73
479.15	5.68
479.501	5.66
479.852	5.63
480.203	5.62
480.554	5.59
480.905	5.58
481.255	5.57
481.606	5.55
481.957	5.55
482.307	5.52
482.658	5.52
483.009	5.51
483.359	5.49
483.709	5.49
484.06	5.47
484.41	5.46
484.761	5.45
485.111	5.44
485.461	5.43
485.811	5.42
486.162	5.41
486.512	5.41
486.862	5.4
487.212	5.4
487.562	5.39
487.912	5.39
488.262	5.4
488.612	5.39
488.961	5.4
489.311	5.4
489.661	5.4
490.011	5.41
490.36	5.41
490.71	5.42
491.06	5.42
491.409	5.43
491.759	5.44
492.108	5.47
492.458	5.48
492.807	5.5
493.157	5.54
493.506	5.58
493.855	5.61
494.204	5.64
494.554	5.69
494.903	5.72
495.252	5.77
495.601	5.82
495.95	5.88
496.299	5.94
496.648	6
496.997	6.1
497.346	6.18
497.695	6.28
498.043	6.36
498.392	6.43
498.741	6.51
499.09	6.59
499.438	6.66
499.787	6.77
500.135	6.88
500.484	6.98
500.832	7.09
501.181	7.2
501.529	7.34
501.878	7.47
502.226	7.6
502.574	7.73
502.923	7.86
503.271	8.01
503.619	8.15
503.967	8.32
504.315	8.43
504.663	8.59
505.011	8.76
505.359	8.92
505.707	9.09
506.055	9.28
506.403	9.49
506.751	9.72
507.098	9.89
507.446	10.06
507.794	10.22
508.141	10.43
508.489	10.65
508.837	10.84
509.184	11.04
509.531	11.27
509.879	11.47
510.226	11.7
510.574	11.92
510.921	12.11
511.268	12.31
511.616	12.56
511.963	12.81
512.31	13.04
512.657	13.26
513.004	13.52
513.351	13.81
513.698	14.06
514.045	14.29
514.392	14.57
514.739	14.85
515.086	15.16
515.432	15.43
515.779	15.69
516.126	15.95
516.473	16.2
516.819	16.41
517.166	16.66
517.512	16.86
517.859	17.08
518.205	17.32
518.552	17.51
518.898	17.69
519.245	17.88
519.591	18.1
519.937	18.32
520.283	18.57
520.629	18.79
520.976	19.03
521.322	19.31
521.668	19.57
522.014	19.85
522.36	20.07
522.706	20.33
523.052	20.58
523.398	20.91
523.743	21.2
524.089	21.53
524.435	21.79
524.781	22.05
525.126	22.28
525.472	22.48
525.817	22.69
526.163	22.89
526.509	23.07
526.854	23.24
527.199	23.4
527.545	23.52
527.89	23.68
528.235	23.81
528.581	23.95
528.926	24.11
529.271	24.28
529.616	24.45
529.961	24.59
530.306	24.76
530.651	24.92
530.996	25.08
531.341	25.26
531.686	25.45
532.031	25.66
532.376	25.86
532.721	26.1
533.065	26.33
533.41	26.54
533.755	26.76
534.099	26.96
534.444	27.2
534.788	27.43
535.133	27.62
535.477	27.9
535.822	28.12
536.166	28.35
536.51	28.62
536.855	28.9
537.199	29.24
537.543	29.54
537.887	29.84
538.231	30.16
538.576	30.49
538.92	30.79
539.264	31.04
539.608	31.3
539.951	31.52
540.295	31.75
540.639	31.98
540.983	32.19
541.327	32.42
541.671	32.59
542.014	32.82
542.358	33.03
542.701	33.2
543.045	33.43
543.389	33.63
543.732	33.82
544.075	34.02
544.419	34.2
544.762	34.42
545.105	34.64
545.449	34.9
545.792	35.08
546.135	35.31
546.478	35.59
546.821	35.89
547.165	36.18
547.508	36.47
547.851	36.76
548.194	37.05
548.536	37.33
548.879	37.69
549.222	38
549.565	38.3
549.908	38.62
550.25	38.84
550.593	39.16
550.936	39.41
551.278	39.66
551.621	39.98
551.963	40.27
552.306	40.53
552.648	40.78
552.991	41.1
553.333	41.41
553.675	41.69
554.017	41.9
554.36	42.16
554.702	42.4
555.044	42.65
555.386	42.89
555.728	43.17
556.07	43.44
556.412	43.62
556.754	43.85
557.096	44.1
557.438	44.42
557.78	44.67
558.121	44.96
558.463	45.23
558.805	45.43
559.147	45.65
559.488	45.84
559.83	46.04
560.171	46.18
560.513	46.32
560.854	46.47
561.196	46.65
561.537	46.87
561.878	47.05
562.22	47.21
562.561	47.41
562.902	47.56
563.243	47.71
563.584	47.93
563.925	48.14
564.266	48.26
564.607	48.41
564.948	48.59
565.289	48.71
565.63	48.79
565.971	48.91
566.312	49.05
566.653	49.22
566.993	49.43
567.334	49.57
567.675	49.74
568.015	49.92
568.356	50.09
568.696	50.19
569.037	50.29
569.377	50.51
569.718	50.63
570.058	50.79
570.398	50.94
570.739	51.03
571.079	51.13
571.419	51.24
571.759	51.35
572.099	51.45
572.439	51.57
572.779	51.76
573.119	51.89
573.459	52.02
573.799	52.15
574.139	52.19
574.479	52.34
574.819	52.46
575.158	52.52
575.498	52.55
575.838	52.7
576.177	52.87
576.517	52.93
576.856	53.03
577.196	53.11
577.535	53.16
577.875	53.3
578.214	53.42
578.553	53.51
578.893	53.63
579.232	53.73
579.571	53.89
579.91	53.94
580.25	54.12
580.589	54.2
580.928	54.25
581.267	54.41
581.606	54.47
581.945	54.54
582.283	54.7
582.622	54.86
582.961	54.91
583.3	54.97
583.639	55
583.977	55.06
584.316	55.05
584.654	55.15
584.993	55.21
585.332	55.25
585.67	55.41
586.008	55.39
586.347	55.47
586.685	55.47
587.024	55.49
587.362	55.53
587.7	55.61
588.038	55.7
588.376	55.71
588.715	55.84
589.053	55.89
589.391	55.92
589.729	56
590.067	56.05
590.404	56.04
590.742	56.16
591.08	56.29
591.418	56.4
591.756	56.41
592.093	56.46
592.431	56.55
592.769	56.49
593.106	56.67
593.444	56.66
593.781	56.7
594.119	56.82
594.456	56.85
594.793	56.86
595.131	56.86
595.468	56.9
595.805	56.81
596.143	56.82
596.48	56.88
596.817	56.9
597.154	56.95
597.491	57.06
597.828	57.09
598.165	57.09
598.502	57.08
598.839	57.1
599.176	57.17
599.512	57.23
599.849	57.36
600.186	57.32
600.523	57.41
600.859	57.45
601.196	57.53
601.532	57.56
601.869	57.6
602.205	57.69
602.542	57.71
602.878	57.81
603.215	57.82
603.551	57.82
603.887	57.8
604.223	57.81
604.56	57.82
604.896	57.82
605.232	57.82
605.568	57.9
605.904	57.91
606.24	57.91
606.576	57.89
606.912	57.93
607.248	57.97
607.583	58.03
607.919	58.06
608.255	58.11
608.591	58.17
608.926	58.25
609.262	58.25
609.597	58.37
609.933	58.42
610.268	58.49
610.604	58.48
610.939	58.55
611.275	58.61
611.61	58.7
611.945	58.69
612.281	58.81
612.616	58.82
612.951	58.98
613.286	58.98
613.621	59.14
613.956	59.18
614.291	59.28
614.626	59.32
614.961	59.38
615.296	59.38
615.631	59.32
615.966	59.32
616.3	59.28
616.635	59.19
616.97	59.19
617.304	59.11
617.639	59.16
617.973	59.12
618.308	59.05
618.642	58.96
618.977	59.02
619.311	59.05
619.646	59.04
619.98	59.01
620.314	59.14
620.648	59.13
620.983	59.17
621.317	59.18
621.651	59.21
621.985	59.29
622.319	59.3
622.653	59.37
622.987	59.35
623.321	59.41
623.655	59.38
623.988	59.41
624.322	59.44
624.656	59.55
624.99	59.61
625.323	59.64
625.657	59.68
625.99	59.75
626.324	59.73
626.657	59.84
626.991	59.78
627.324	59.77
627.658	59.73
627.991	59.75
628.324	59.68
628.657	59.59
628.991	59.55
629.324	59.59
629.657	59.5
629.99	59.58
630.323	59.62
630.656	59.66
630.989	59.69
631.322	59.79
631.655	59.78
631.987	59.88
632.32	59.94
632.653	59.92
632.986	59.83
633.318	59.85
633.651	59.89
633.984	59.98
634.316	59.95
634.649	59.94
634.981	59.92
635.313	60
635.646	60.11
635.978	60.18
636.31	60.13
636.643	60.23
636.975	60.27
637.307	60.25
637.639	60.35
637.971	60.41
638.303	60.4
638.635	60.31
638.967	60.27
639.299	60.16
639.631	60.27
639.963	60.32
640.295	60.45
640.626	60.3
640.958	60.37
641.29	60.38
641.621	60.37
641.953	60.36
642.285	60.47
642.616	60.5
642.948	60.51
643.279	60.48
643.61	60.56
643.942	60.51
644.273	60.5
644.604	60.55
644.936	60.56
645.267	60.55
645.598	60.61
645.929	60.63
646.26	60.63
646.591	60.63
646.922	60.61
647.253	60.53
647.584	60.57
647.915	60.55
648.245	60.57
648.576	60.5
648.907	60.59
649.238	60.55
649.568	60.46
649.899	60.33
650.229	60.43
650.56	60.23
650.89	60.19
651.221	60.36
651.551	60.27
651.882	60.21
652.212	60.25
652.542	60.36
652.872	60.28
653.203	60.43
653.533	60.34
653.863	60.36
654.193	60.3
654.523	60.34
654.853	60.22
655.183	60.19
655.513	60.34
655.843	60.29
656.172	60.3
656.502	60.39
656.832	60.52
657.162	60.57
657.491	60.67
657.821	60.65
658.15	60.66
658.48	60.67
658.809	60.66
659.139	60.6
659.468	60.63
659.798	60.65
660.127	60.63
660.456	60.75
660.785	60.89
661.115	61
661.444	61.07
661.773	61.11
662.102	61.14
662.431	61.19
662.76	61.17
663.089	61.18
663.418	61.23
663.747	61.3
664.076	61.15
664.404	61.17
664.733	61.22
665.062	61.02
665.39	61.08
665.719	61.17
666.048	61.23
666.376	61.13
666.705	61
667.033	60.98
667.362	60.81
667.69	60.63
668.018	60.49
668.347	60.6
668.675	60.71
669.003	60.74
669.331	60.61
669.659	60.65
669.987	60.55
670.315	60.4
670.643	60.38
670.971	60.35
671.299	60.37
671.627	60.41
671.955	60.46
672.283	60.46
672.61	60.46
672.938	60.5
673.266	60.43
673.593	60.62
673.921	60.66
674.249	60.77
674.576	60.85
674.904	60.93
675.231	60.73
675.558	60.72
675.886	60.69
676.213	60.73
676.54	60.76
676.867	60.83
677.195	60.81
677.522	60.71
677.849	60.91
678.176	60.95
678.503	60.92
678.83	61.03
679.157	60.93
679.484	60.87
679.81	60.92
680.137	60.94
680.464	60.9
680.791	60.98
681.117	61.11
681.444	61.08
681.771	61.01
682.097	60.94
682.424	60.9
682.75	60.91
683.077	60.94
683.403	60.89
683.729	60.78
684.056	60.91
684.382	60.94
684.708	60.94
685.034	60.9
685.36	60.86
685.686	60.99
686.012	61.04
686.339	61.09
686.664	60.95
686.99	60.89
687.316	60.81
687.642	60.71
687.968	60.5
688.294	60.63
688.619	60.6
688.945	60.55
689.271	60.56
689.596	60.52
689.922	60.4
690.247	60.41
690.573	60.56
690.898	60.39
691.224	60.36
691.549	60.19
691.874	60.21
692.2	60.34
692.525	60.01
692.85	60.1
693.175	59.95
693.5	60.05
693.825	60.14
694.15	60.18
694.475	60.13
694.8	60.24
695.125	60.03
695.45	60.21
695.775	60.53
696.099	60.45
696.424	60.49
696.749	60.46
697.073	60.51
697.398	60.47
697.723	60.59
698.047	60.5
698.372	60.66
698.696	60.53
699.02	60.55
699.345	60.66
699.669	60.71
699.993	60.73
700.318	60.72
700.642	60.68
700.966	60.85
701.29	60.93
701.614	60.86
701.938	60.92
702.262	60.78
702.586	60.57
702.91	60.62
703.234	60.68
703.557	60.8
703.881	60.68
704.205	60.72
704.529	60.57
704.852	60.63
705.176	60.44
705.499	60.62
705.823	60.62
706.146	60.58
706.47	60.41
706.793	60.42
707.117	60.69
707.44	60.77
707.763	60.81
708.086	60.65
708.409	60.84
708.733	60.76
709.056	60.85
709.379	61.06
709.702	61.14
710.025	61.2
710.348	61.27
710.671	61.19
710.993	61.26
711.316	61.45
711.639	61.52
711.962	61.64
712.284	61.66
712.607	61.49
712.93	61.57
713.252	61.66
713.575	61.75
713.897	61.59
714.22	61.53
714.542	61.23
714.864	61.36
715.187	61.37
715.509	61.48
715.831	61.51
716.153	61.39
716.475	61.5
716.798	61.34
717.12	61.38
717.442	61.51
717.764	61.46
718.085	61.39
718.407	61.43
718.729	61.41
719.051	61.31
719.373	61.54
719.695	61.58
720.016	61.67
720.338	61.6
720.659	61.36
720.981	61.54
721.302	61.63
721.624	61.59
721.945	61.28
722.267	61.34
722.588	61.14
722.909	60.95
723.231	60.66
723.552	60.69
723.873	60.64
724.194	60.72
724.515	60.43
724.836	60.39
725.157	60.49
725.478	60.68
725.799	60.78
726.12	60.86
726.441	60.74
726.762	60.73
727.083	60.8
727.403	60.9
727.724	60.91
728.045	60.87
728.365	60.76
728.686	60.92
729.006	60.95
729.327	61.22
729.647	61.67
729.967	61.84
730.288	61.87
730.608	61.89
730.928	61.89
731.249	62.12
731.569	62.15
731.889	62.05
732.209	61.96
732.529	61.96
732.849	61.99
733.169	62.07
733.489	62.06
733.809	62.2
734.129	62.45
734.448	62.53
734.768	62.76
735.088	62.95
735.408	62.9
735.727	63.14
736.047	62.99
736.366	62.45
736.686	62.57
737.005	62.84
737.325	62.86
737.644	62.82
737.963	62.78
738.283	62.88
738.602	62.8
738.921	62.63
739.24	63.02
739.56	62.66
739.879	62.62
740.198	62.5
740.517	62.44
740.836	62.24
741.155	62.18
741.473	62.32
741.792	62.24
742.111	62.32
742.43	61.95
742.748	62.03
743.067	62.17
743.386	62.12
743.704	62.02
744.023	62.16
744.341	62.23
744.66	62.22
744.978	62.05
745.297	62.07
745.615	62.09
745.933	61.87
746.252	61.92
746.57	61.94
746.888	61.8
747.206	61.68
747.524	61.82
747.842	61.82
748.16	61.82
748.478	61.84
748.796	61.92
749.114	62.17
749.432	62.36
749.749	62.45
750.067	62.41
750.385	62.22
750.703	62.01
751.02	61.88
751.338	62.27
751.655	62.28
751.973	62.17
752.29	62.28
752.608	61.98
752.925	62.29
753.242	62.06
753.56	62.17
753.877	62.53
754.194	62.51
754.511	62.29
754.828	61.96
755.145	62.2
755.462	62.2
755.779	61.93
756.096	61.95
756.413	62.05
756.73	61.96
757.047	62.18
757.364	61.91
757.68	61.87
757.997	61.37
758.314	61.67
758.63	62.16
758.947	62.32
759.264	62.44
759.58	62.27
759.896	62.4
760.213	62.61
760.529	62.45
760.846	62.81
761.162	62.94
761.478	62.87
761.794	62.6
762.11	62.4
762.426	62.62
762.743	62.63
763.059	62.57
763.375	62.6
763.69	62.6
764.006	62.97
764.322	62.96
764.638	63.17
764.954	62.99
765.27	62.72
765.585	62.75
765.901	62.93
766.216	63.06
766.532	63.14
766.848	63.12
767.163	63.09
767.478	62.75
767.794	62.75
768.109	62.85
768.424	63.16
768.74	63.56
769.055	63.48
769.37	63.32
769.685	63.46
770	63.66
770.315	63.61
770.63	63.38
770.945	63.59
771.26	63.76
771.575	63.74
771.89	63.8
772.205	63.6
772.52	63.17
772.834	63.15
773.149	63.18
773.464	63.05
773.778	63.09
774.093	62.73
774.407	62.8
774.722	62.98
775.036	62.89
775.351	62.7
775.665	62.97
775.979	62.93
776.293	62.61
776.608	62.36
776.922	62.43
777.236	62.21
777.55	62.31
777.864	62.14
778.178	62.6
778.492	62.57
778.806	62.83
779.12	63.19
779.434	63.57
779.747	63.81
780.061	64.15
780.375	64.07
780.689	64.42
781.002	64.66
781.316	64.95
781.629	65.21
781.943	65.36
782.256	64.96
782.57	65.11
782.883	65.67
783.196	65.76
783.51	65.79
783.823	66.01
784.136	65.99
784.449	66.03
784.762	65.85
785.075	66.3
785.388	66.16
785.701	66.17
786.014	65.67
786.327	65.69
786.64	65.73
786.953	66.35
787.266	66.54
787.578	66.41
787.891	65.79
788.204	65.82
788.516	65.52
788.829	65.64
789.141	65.78
789.454	65.62
789.766	65.92
790.079	65.77
790.391	65.84
790.703	65.74
791.016	66.1
791.328	65.83
791.64	65.71
791.952	65.27
792.264	65.19
792.576	65.77
792.888	65.37
793.2	64.87
793.512	64
793.824	63.78
794.136	63.89
794.448	63.78
794.76	63.38
795.071	63.22
795.383	63.3
795.695	63.27
796.006	63.33
796.318	62.58
796.629	62.43
796.941	62.27
797.252	62.59
797.564	62.16
797.875	62.3
798.186	61.79
798.497	62.38
798.809	62.25
799.12	61.45
799.431	61.37
799.742	61.6
800.053	61.9
800.364	62.02
800.675	62.09
800.986	62.73
801.297	63.31
801.608	63.94
801.918	64.07
802.229	64.3
802.54	64.64
802.851	64.57
803.161	64.71
803.472	64.81
803.782	64.21
804.093	64.37
804.403	64.42
804.714	64.62
805.024	63.58
805.334	63.76
805.645	63.59
805.955	64.35
806.265	64.35
806.575	64.21
806.885	64.33
807.195	63.71
807.505	63.75
807.815	63.39
808.125	63.29
808.435	62.81
808.745	62.4
809.055	61.55
809.365	62.16
809.674	61.99
809.984	62.42
810.294	62.46
810.603	62.23
810.913	62.41
811.222	62.81
811.532	63.83
811.841	63.12
812.151	64.3
812.46	63.52
812.769	63.14
813.079	62.93
813.388	62.75
813.697	62.73
814.006	62.43
814.315	62.44
814.624	62.68
814.933	63.01
815.242	63.09
815.551	63.8
815.86	63.29
816.169	63.95
816.478	63.13
816.786	63.02
817.095	62.94
817.404	62.55
817.712	62.76
818.021	62.71
818.33	62.73
818.638	62.6
818.947	62.98
819.255	63.23
819.563	63.14
819.872	62.46
820.18	62.75
820.488	62.83
820.796	62.83
821.105	62.51
821.413	62.39
821.721	62.31
822.029	62.2
822.337	62.27
822.645	62.33
822.953	62.52
823.26	62.57
823.568	62.57
823.876	62.65
824.184	62.6
824.491	62.48
824.799	62.67
825.107	62.38
825.414	62.2
825.722	62.22
826.029	62.11
826.337	62.36
826.644	62.41
826.951	62.24
827.259	62.02
827.566	62.16
827.873	62.29
828.18	62.71
828.488	62.74
828.795	62.96
829.102	62.41
829.409	62.17
829.716	62.44
830.023	62.48
830.329	62.16
830.636	62.17
830.943	62.09
831.25	61.95
831.557	62.49
831.863	62.76
832.17	62.47
832.476	63.25
832.783	63.22
833.089	62.93
833.396	62.96
833.702	63.47
834.009	63.77
834.315	63.89
834.621	63.27
834.928	63.24
835.234	62.85
835.54	63.21
835.846	63.45
836.152	63.3
836.458	63.64
836.764	64.19
837.07	64.27
837.376	64.04
837.682	64.19
837.988	64.07
838.293	64.46
838.599	64.99
838.905	64.17
839.211	64.22
839.516	63.58
839.822	64.19
840.127	64.52
840.433	63.85
840.738	63.79
841.044	63.79
841.349	64.84
841.654	66.16
841.959	67.14
842.265	68.61
842.57	68.59
842.875	68.18
843.18	67.83
843.485	68.63
843.79	69.96
844.095	69.47
844.4	69.14
844.705	69.44
845.01	68.96
845.315	69.03
845.619	69.57
845.924	71.89
846.229	71.61
846.533	70.57
846.838	71
847.142	70.84
847.447	69.76
847.751	67.98
848.056	65.58
848.36	65.38
848.664	62.84
848.969	62.79
849.273	63.16
849.577	62.06
849.881	61.09
850.185	63.67
850.489	64.35
850.794	64.89
851.097	63.94
851.401	62.87
851.705	64.58
852.009	63.91
852.313	63.42
852.617	62.41
852.92	63.91
853.224	61.56
853.528	62
853.831	64.27
854.135	66.17
854.438	68.01
854.742	66.16
855.045	68.47
855.349	69.23
855.652	70.01
855.955	72
856.259	70.2
856.562	69.25
856.865	71.09
857.168	71.55
857.471	74.41
857.774	78.2
858.077	78.27
858.38	81.35
858.683	80.53
858.986	83.35
859.289	82.03
859.592	84.1
859.894	85.1
860.197	83.94
860.5	82.53
860.802	79.52
861.105	81.8
861.407	79.63
861.71	79.12
862.012	77.76
862.315	78.59
862.617	80.53
862.919	77.78
863.222	77.39
863.524	78.06
863.826	73.69
864.128	71.25
864.43	72.29
864.732	71.37
865.034	71.58
865.336	70.11
865.638	69.19
865.94	70.67
866.242	69.19
866.544	66.5
866.846	68.22
867.147	73.38
867.449	73.46
867.751	71.43
868.052	71.21
868.354	68.91
868.655	68.88
868.957	71.85
869.258	72.02
869.56	69.28
869.861	69.57
870.162	70.27
870.463	71.26
870.765	70.12
871.066	70.24
871.367	70.59
871.668	69.66
871.969	69.83
872.27	67.7
872.571	69.32
872.872	72.76
873.173	69.44
873.473	66.43
873.774	65.89
874.075	66.15
874.376	66.42
874.676	68.75
874.977	67.55
875.277	66.72
875.578	66.67
875.878	67.6
876.179	66.59
876.479	67.2
876.78	66.61
877.08	65.82
877.38	63.44
877.68	61.79
877.981	62.78
878.281	62.49
878.581	65.34
