Data from BU26844_Reflection_00014.txt Node
Date: Mon Nov 18 16:36:31 EST 2019
User: vgr7
Spectrometer: USB2G7710
Scans to average: 3
Trigger mode: 4
Integration Time (sec): 2.000000E-2
Electric dark correction enabled: true
Boxcar width: 10
XAxis mode: Wavelengths
Number of Pixels in Spectrum: 2048
>>>>>Begin Spectral Data<<<<<
177.721	338.53
178.105	9100
178.488	-323.45
178.871	-9150
179.254	185.84
179.636	-900
180.019	183.07
180.402	125
180.785	117.74
181.168	158.22
181.55	145.25
181.933	161.86
182.316	240.21
182.698	260.68
183.081	192.31
183.463	254.61
183.846	309.79
184.228	241.49
184.611	368.85
184.993	984.96
185.376	11009.09
185.758	-729.02
186.14	-572.06
186.522	-592.02
186.904	-1444.55
187.287	1907.23
187.669	-514.84
188.051	-548.65
188.433	-216.3
188.815	-106.79
189.197	-100.26
189.579	-84.62
189.961	-85.51
190.342	-70.21
190.724	-52.16
191.106	-61.82
191.488	-32.91
191.869	-19.8
192.251	-23.15
192.633	-9.26
193.014	-11.4
193.396	-18.81
193.777	-3.12
194.159	-3.91
194.54	1.78
194.922	10.15
195.303	-1.54
195.684	-3.52
196.065	11.32
196.447	-15.36
196.828	-18.94
197.209	-12.48
197.59	-13.74
197.971	-12.05
198.352	-2.3
198.733	16.41
199.114	35.31
199.495	10.09
199.876	6.27
200.257	10.93
200.638	11.71
201.018	-3.78
201.399	0.86
201.78	3.74
202.16	-11.61
202.541	-15.81
202.922	-79.62
203.302	-61.85
203.683	-18.87
204.063	-114.48
204.444	-116.87
204.824	-75.08
205.204	-33.33
205.585	-28.51
205.965	39.73
206.345	4.76
206.725	-33.33
207.106	-91.42
207.486	-109.21
207.866	-45.7
208.246	-138.99
208.626	-68.22
209.006	40.23
209.386	-53.09
209.766	-43.96
210.145	-45.56
210.525	-55.84
210.905	-15.32
211.285	-5.81
211.664	-17.65
212.044	2.76
212.424	7.81
212.803	1.15
213.183	-6.33
213.562	-9.99
213.942	-30.35
214.321	-16.41
214.701	-21.6
215.08	-16.16
215.459	-13.23
215.838	-16.03
216.218	-19.63
216.597	-20.06
216.976	-23.78
217.355	-16.62
217.734	-23.03
218.113	-16.55
218.492	-20.15
218.871	-41.51
219.25	-40.01
219.629	-39.73
220.008	-43.36
220.387	-42.48
220.766	-42.45
221.144	-46.61
221.523	-55.14
221.902	-63.13
222.28	-79.73
222.659	-62.53
223.037	-60.85
223.416	-92.92
223.794	-111.95
224.173	-90.61
224.551	-71.71
224.929	-70.67
225.308	-53.42
225.686	-45.83
226.064	-31.63
226.442	-25.38
226.821	-7.27
227.199	-8.09
227.577	-7.4
227.955	-10.39
228.333	-8.93
228.711	-8.18
229.089	-5.46
229.467	-2.72
229.845	-0.55
230.222	1.47
230.6	0.54
230.978	0.33
231.356	3.65
231.733	5.59
232.111	7.15
232.488	6.74
232.866	7.28
233.243	7.49
233.621	8.1
233.998	8.4
234.376	7.12
234.753	3.65
235.13	3.88
235.508	4.89
235.885	6.68
236.262	5.61
236.639	4.49
237.016	3.54
237.393	4.55
237.77	4.3
238.147	5.16
238.524	5.67
238.901	6.24
239.278	5.96
239.655	5.56
240.032	5.13
240.409	4.31
240.785	4.93
241.162	4.79
241.539	5.22
241.915	4.75
242.292	4.23
242.668	4.34
243.045	4.62
243.421	4.59
243.798	4.44
244.174	4.37
244.551	4.45
244.927	4.6
245.303	4.58
245.679	4.65
246.056	4.38
246.432	4.36
246.808	4.43
247.184	4.23
247.56	4.04
247.936	4.05
248.312	4.15
248.688	4
249.064	3.92
249.44	3.54
249.815	3.8
250.191	4.18
250.567	4.1
250.943	3.73
251.318	3.7
251.694	3.72
252.069	3.79
252.445	3.77
252.82	3.56
253.196	3.36
253.571	3.52
253.947	3.65
254.322	3.66
254.697	3.49
255.073	3.63
255.448	3.66
255.823	3.56
256.198	3.79
256.573	3.73
256.948	3.92
257.323	4.25
257.698	4
258.073	3.8
258.448	3.81
258.823	3.9
259.198	3.88
259.573	3.82
259.948	3.9
260.322	3.96
260.697	4.04
261.072	3.97
261.446	3.93
261.821	3.92
262.195	3.85
262.57	3.74
262.944	3.75
263.319	3.72
263.693	3.82
264.067	3.72
264.442	3.83
264.816	3.74
265.19	3.53
265.564	3.75
265.938	3.82
266.313	3.84
266.687	3.89
267.061	3.91
267.435	3.92
267.809	3.91
268.183	3.93
268.556	3.75
268.93	3.64
269.304	3.59
269.678	3.73
270.051	3.71
270.425	3.77
270.799	3.69
271.172	3.72
271.546	3.81
271.919	3.67
272.293	3.62
272.666	3.59
273.04	3.56
273.413	3.44
273.787	3.49
274.16	3.43
274.533	3.34
274.906	3.32
275.279	3.45
275.653	3.44
276.026	3.4
276.399	3.54
276.772	3.82
277.145	3.71
277.518	3.63
277.891	3.6
278.263	3.56
278.636	3.63
279.009	3.74
279.382	3.84
279.755	3.95
280.127	4
280.5	4.11
280.872	4.23
281.245	4.34
281.617	4.36
281.99	4.45
282.362	4.53
282.735	4.34
283.107	4.21
283.479	4.14
283.852	4.15
284.224	4.08
284.596	4.04
284.968	4.26
285.34	4.22
285.713	4.26
286.085	4.43
286.457	4.46
286.829	4.55
287.201	4.45
287.572	4.5
287.944	4.46
288.316	4.47
288.688	4.43
289.06	4.31
289.431	4.33
289.803	4.34
290.175	4.44
290.546	4.61
290.918	4.72
291.289	4.87
291.661	4.98
292.032	5.17
292.403	5.19
292.775	5.07
293.146	5.13
293.517	5.14
293.889	5.15
294.26	5.27
294.631	5.26
295.002	5.31
295.373	5.28
295.744	5.34
296.115	5.33
296.486	5.31
296.857	5.37
297.228	5.45
297.599	5.5
297.97	5.46
298.34	5.61
298.711	5.61
299.082	5.53
299.452	5.62
299.823	5.76
300.194	5.86
300.564	5.93
300.935	5.96
301.305	5.95
301.676	6.04
302.046	6.08
302.416	6.25
302.787	6.3
303.157	6.39
303.527	6.51
303.897	6.63
304.267	6.97
304.637	7.12
305.008	7.17
305.378	7.36
305.748	7.53
306.117	7.4
306.487	7.52
306.857	7.71
307.227	7.65
307.597	7.58
307.967	7.56
308.336	7.67
308.706	7.83
309.076	7.98
309.445	7.89
309.815	7.96
310.184	7.96
310.554	8.07
310.923	8.27
311.293	8.33
311.662	8.49
312.031	8.4
312.401	8.42
312.77	8.47
313.139	8.45
313.508	8.5
313.877	8.69
314.246	8.73
314.616	8.65
314.985	8.87
315.353	8.99
315.722	8.94
316.091	9.04
316.46	9.09
316.829	9.28
317.198	9.55
317.567	9.48
317.935	9.43
318.304	9.57
318.672	9.64
319.041	9.64
319.41	9.43
319.778	9.5
320.147	9.63
320.515	9.63
320.883	9.73
321.252	9.82
321.62	9.93
321.988	10.02
322.357	10.3
322.725	10.32
323.093	10.38
323.461	10.66
323.829	10.82
324.197	10.92
324.565	10.85
324.933	10.91
325.301	11.19
325.669	11.36
326.037	11.34
326.405	11.4
326.772	11.45
327.14	11.64
327.508	11.85
327.875	11.94
328.243	11.88
328.61	11.89
328.978	11.97
329.346	12.04
329.713	12.1
330.08	11.99
330.448	12.03
330.815	11.96
331.182	12.13
331.55	12.01
331.917	11.99
332.284	12.22
332.651	12.24
333.018	12.22
333.385	12.16
333.752	12.11
334.119	12.11
334.486	12.15
334.853	12.19
335.22	12.08
335.587	12.1
335.954	12.35
336.32	12.31
336.687	12.22
337.054	12.16
337.42	12.25
337.787	12.31
338.153	12.19
338.52	12.22
338.886	12.09
339.253	12.07
339.619	12.12
339.986	12.09
340.352	12.2
340.718	12.12
341.084	12.19
341.451	12.32
341.817	12.4
342.183	12.52
342.549	12.6
342.915	12.72
343.281	12.74
343.647	12.66
344.013	12.77
344.379	12.76
344.745	12.74
345.11	12.78
345.476	12.86
345.842	12.98
346.208	13.1
346.573	13.09
346.939	13.25
347.304	13.23
347.67	13.11
348.035	13
348.401	13.05
348.766	13.09
349.132	13.03
349.497	12.91
349.862	12.99
350.228	12.95
350.593	12.87
350.958	12.8
351.323	12.9
351.688	12.92
352.053	13.05
352.418	13.17
352.783	13.19
353.148	13.12
353.513	13.12
353.878	13.14
354.243	13.21
354.608	13.17
354.972	13.18
355.337	13.21
355.702	13.25
356.066	13.28
356.431	13.2
356.795	13.25
357.16	13.23
357.524	13.17
357.889	13.23
358.253	13.36
358.618	13.43
358.982	13.4
359.346	13.32
359.71	13.24
360.075	13.19
360.439	13.11
360.803	13.12
361.167	13.08
361.531	13.03
361.895	13.02
362.259	12.91
362.623	12.94
362.987	12.88
363.351	12.84
363.714	12.79
364.078	12.73
364.442	12.64
364.806	12.63
365.169	12.56
365.533	12.47
365.896	12.34
366.26	12.22
366.623	12.21
366.987	12.18
367.35	12.15
367.714	12.11
368.077	12.08
368.44	11.98
368.803	12
369.167	11.87
369.53	11.66
369.893	11.69
370.256	11.55
370.619	11.57
370.982	11.47
371.345	11.41
371.708	11.42
372.071	11.31
372.434	11.27
372.797	11.25
373.159	11.15
373.522	11.06
373.885	10.99
374.247	10.89
374.61	10.86
374.973	10.71
375.335	10.62
375.698	10.51
376.06	10.43
376.423	10.32
376.785	10.3
377.147	10.37
377.51	10.33
377.872	10.28
378.234	10.16
378.596	10.17
378.958	10.04
379.321	9.95
379.683	9.9
380.045	9.8
380.407	9.66
380.769	9.63
381.13	9.56
381.492	9.48
381.854	9.41
382.216	9.27
382.578	9.22
382.939	9.17
383.301	9.11
383.663	9.04
384.024	8.98
384.386	8.99
384.747	8.88
385.109	8.81
385.47	8.73
385.832	8.71
386.193	8.62
386.554	8.63
386.916	8.59
387.277	8.56
387.638	8.54
387.999	8.49
388.36	8.39
388.721	8.34
389.082	8.29
389.443	8.19
389.804	8.17
390.165	8.14
390.526	8.06
390.887	7.93
391.248	7.93
391.609	7.86
391.969	7.77
392.33	7.73
392.691	7.65
393.051	7.61
393.412	7.55
393.772	7.52
394.133	7.44
394.493	7.38
394.854	7.35
395.214	7.25
395.574	7.19
395.935	7.16
396.295	7.11
396.655	7.06
397.015	7.02
397.376	6.94
397.736	6.85
398.096	6.79
398.456	6.82
398.816	6.73
399.176	6.65
399.535	6.56
399.895	6.49
400.255	6.43
400.615	6.37
400.975	6.32
401.334	6.28
401.694	6.19
402.054	6.1
402.413	6.03
402.773	5.98
403.132	5.95
403.492	5.89
403.851	5.8
404.211	5.78
404.57	5.72
404.929	5.72
405.288	5.67
405.648	5.63
406.007	5.59
406.366	5.57
406.725	5.56
407.084	5.56
407.443	5.53
407.802	5.53
408.161	5.46
408.52	5.42
408.879	5.38
409.238	5.41
409.596	5.45
409.955	5.42
410.314	5.43
410.673	5.42
411.031	5.41
411.39	5.4
411.748	5.36
412.107	5.34
412.465	5.32
412.824	5.34
413.182	5.34
413.54	5.32
413.899	5.31
414.257	5.3
414.615	5.24
414.974	5.22
415.332	5.2
415.69	5.19
416.048	5.13
416.406	5.1
416.764	5.05
417.122	5
417.48	4.97
417.838	4.96
418.195	4.92
418.553	4.9
418.911	4.88
419.269	4.87
419.626	4.86
419.984	4.83
420.342	4.79
420.699	4.76
421.057	4.72
421.414	4.67
421.772	4.65
422.129	4.63
422.486	4.61
422.844	4.58
423.201	4.56
423.558	4.56
423.915	4.54
424.273	4.51
424.63	4.48
424.987	4.47
425.344	4.44
425.701	4.42
426.058	4.4
426.415	4.38
426.772	4.35
427.128	4.31
427.485	4.3
427.842	4.28
428.199	4.28
428.555	4.28
428.912	4.28
429.269	4.27
429.625	4.23
429.982	4.2
430.338	4.19
430.695	4.18
431.051	4.16
431.407	4.14
431.764	4.15
432.12	4.14
432.476	4.13
432.832	4.1
433.189	4.1
433.545	4.08
433.901	4.08
434.257	4.09
434.613	4.11
434.969	4.09
435.325	4.1
435.681	4.11
436.036	4.1
436.392	4.11
436.748	4.09
437.104	4.12
437.459	4.13
437.815	4.13
438.171	4.12
438.526	4.15
438.882	4.17
439.237	4.18
439.593	4.18
439.948	4.19
440.304	4.21
440.659	4.21
441.014	4.22
441.369	4.2
441.725	4.2
442.08	4.19
442.435	4.2
442.79	4.18
443.145	4.16
443.5	4.15
443.855	4.12
444.21	4.13
444.565	4.12
444.92	4.13
445.275	4.11
445.629	4.11
445.984	4.09
446.339	4.07
446.693	4.04
447.048	4.04
447.403	4.02
447.757	4
448.112	3.99
448.466	3.97
448.82	3.96
449.175	3.96
449.529	3.93
449.883	3.91
450.238	3.89
450.592	3.88
450.946	3.88
451.3	3.87
451.654	3.85
452.008	3.84
452.362	3.81
452.716	3.81
453.07	3.79
453.424	3.8
453.778	3.78
454.132	3.77
454.486	3.74
454.839	3.73
455.193	3.73
455.547	3.73
455.9	3.75
456.254	3.75
456.607	3.72
456.961	3.74
457.314	3.74
457.668	3.74
458.021	3.74
458.375	3.74
458.728	3.75
459.081	3.77
459.434	3.76
459.787	3.78
460.141	3.79
460.494	3.79
460.847	3.81
461.2	3.82
461.553	3.85
461.906	3.87
462.259	3.89
462.611	3.9
462.964	3.92
463.317	3.94
463.67	3.95
464.022	4
464.375	4.02
464.728	4.06
465.08	4.12
465.433	4.17
465.785	4.19
466.138	4.21
466.49	4.22
466.843	4.25
467.195	4.28
467.547	4.32
467.899	4.35
468.252	4.34
468.604	4.38
468.956	4.41
469.308	4.44
469.66	4.43
470.012	4.45
470.364	4.48
470.716	4.49
471.068	4.52
471.42	4.53
471.772	4.57
472.123	4.59
472.475	4.55
472.827	4.57
473.178	4.6
473.53	4.61
473.882	4.63
474.233	4.64
474.585	4.63
474.936	4.61
475.288	4.63
475.639	4.63
475.99	4.63
476.342	4.62
476.693	4.63
477.044	4.66
477.395	4.69
477.746	4.69
478.097	4.68
478.448	4.65
478.8	4.64
479.15	4.59
479.501	4.56
479.852	4.57
480.203	4.54
480.554	4.53
480.905	4.52
481.255	4.5
481.606	4.49
481.957	4.48
482.307	4.47
482.658	4.45
483.009	4.44
483.359	4.43
483.709	4.43
484.06	4.41
484.41	4.41
484.761	4.39
485.111	4.38
485.461	4.38
485.811	4.37
486.162	4.37
486.512	4.38
486.862	4.39
487.212	4.37
487.562	4.38
487.912	4.37
488.262	4.36
488.612	4.36
488.961	4.36
489.311	4.37
489.661	4.38
490.011	4.38
490.36	4.4
490.71	4.42
491.06	4.42
491.409	4.44
491.759	4.44
492.108	4.45
492.458	4.47
492.807	4.47
493.157	4.52
493.506	4.54
493.855	4.58
494.204	4.6
494.554	4.64
494.903	4.66
495.252	4.71
495.601	4.77
495.95	4.83
496.299	4.9
496.648	4.95
496.997	5.03
497.346	5.1
497.695	5.17
498.043	5.24
498.392	5.32
498.741	5.42
499.09	5.53
499.438	5.63
499.787	5.74
500.135	5.87
500.484	5.99
500.832	6.12
501.181	6.23
501.529	6.39
501.878	6.53
502.226	6.71
502.574	6.88
502.923	7.06
503.271	7.23
503.619	7.42
503.967	7.63
504.315	7.83
504.663	8.07
505.011	8.3
505.359	8.51
505.707	8.75
506.055	8.96
506.403	9.18
506.751	9.41
507.098	9.64
507.446	9.9
507.794	10.14
508.141	10.42
508.489	10.67
508.837	10.94
509.184	11.22
509.531	11.49
509.879	11.77
510.226	12.06
510.574	12.35
510.921	12.61
511.268	12.86
511.616	13.15
511.963	13.42
512.31	13.71
512.657	14.03
513.004	14.4
513.351	14.77
513.698	15.14
514.045	15.5
514.392	15.88
514.739	16.22
515.086	16.59
515.432	16.94
515.779	17.31
516.126	17.64
516.473	17.98
516.819	18.32
517.166	18.64
517.512	18.9
517.859	19.19
518.205	19.46
518.552	19.75
518.898	20.02
519.245	20.31
519.591	20.57
519.937	20.85
520.283	21.11
520.629	21.41
520.976	21.7
521.322	22.04
521.668	22.32
522.014	22.67
522.36	23
522.706	23.35
523.052	23.68
523.398	24.07
523.743	24.44
524.089	24.79
524.435	25.12
524.781	25.5
525.126	25.85
525.472	26.15
525.817	26.42
526.163	26.67
526.509	26.91
526.854	27.13
527.199	27.31
527.545	27.5
527.89	27.68
528.235	27.86
528.581	28.05
528.926	28.25
529.271	28.43
529.616	28.58
529.961	28.76
530.306	28.97
530.651	29.14
530.996	29.36
531.341	29.58
531.686	29.81
532.031	30
532.376	30.18
532.721	30.38
533.065	30.61
533.41	30.83
533.755	31.05
534.099	31.28
534.444	31.53
534.788	31.78
535.133	32
535.477	32.23
535.822	32.44
536.166	32.68
536.51	32.94
536.855	33.25
537.199	33.54
537.543	33.82
537.887	34.11
538.231	34.36
538.576	34.65
538.92	34.92
539.264	35.16
539.608	35.41
539.951	35.66
540.295	35.85
540.639	36.04
540.983	36.21
541.327	36.4
541.671	36.56
542.014	36.72
542.358	36.9
542.701	37.09
543.045	37.23
543.389	37.37
543.732	37.51
544.075	37.65
544.419	37.8
544.762	37.94
545.105	38.13
545.449	38.3
545.792	38.44
546.135	38.59
546.478	38.8
546.821	38.97
547.165	39.17
547.508	39.39
547.851	39.58
548.194	39.82
548.536	40
548.879	40.19
549.222	40.35
549.565	40.54
549.908	40.71
550.25	40.95
550.593	41.19
550.936	41.36
551.278	41.62
551.621	41.78
551.963	41.99
552.306	42.17
552.648	42.35
552.991	42.54
553.333	42.68
553.675	42.84
554.017	43.04
554.36	43.17
554.702	43.25
555.044	43.41
555.386	43.53
555.728	43.67
556.07	43.86
556.412	44.02
556.754	44.13
557.096	44.26
557.438	44.45
557.78	44.64
558.121	44.84
558.463	44.95
558.805	45.11
559.147	45.2
559.488	45.3
559.83	45.5
560.171	45.59
560.513	45.81
560.854	45.94
561.196	45.96
561.537	46.06
561.878	46.24
562.22	46.3
562.561	46.39
562.902	46.53
563.243	46.61
563.584	46.72
563.925	46.84
564.266	46.88
564.607	46.92
564.948	46.96
565.289	47
565.63	47.09
565.971	47.2
566.312	47.35
566.653	47.48
566.993	47.51
567.334	47.59
567.675	47.67
568.015	47.79
568.356	47.92
568.696	48
569.037	48.1
569.377	48.25
569.718	48.39
570.058	48.44
570.398	48.49
570.739	48.55
571.079	48.62
571.419	48.72
571.759	48.8
572.099	48.95
572.439	49
572.779	49.08
573.119	49.18
573.459	49.23
573.799	49.23
574.139	49.31
574.479	49.41
574.819	49.46
575.158	49.5
575.498	49.57
575.838	49.66
576.177	49.7
576.517	49.75
576.856	49.81
577.196	49.93
577.535	50.03
577.875	50.12
578.214	50.19
578.553	50.32
578.893	50.4
579.232	50.44
579.571	50.56
579.91	50.58
580.25	50.58
580.589	50.66
580.928	50.78
581.267	50.89
581.606	50.94
581.945	50.96
582.283	50.97
582.622	51.08
582.961	51.14
583.3	51.22
583.639	51.29
583.977	51.38
584.316	51.4
584.654	51.47
584.993	51.6
585.332	51.67
585.67	51.68
586.008	51.73
586.347	51.72
586.685	51.77
587.024	51.83
587.362	51.95
587.7	52.02
588.038	52.12
588.376	52.15
588.715	52.18
589.053	52.29
589.391	52.42
589.729	52.55
590.067	52.62
590.404	52.64
590.742	52.75
591.08	52.8
591.418	52.87
591.756	52.93
592.093	52.96
592.431	52.98
592.769	53.05
593.106	53.11
593.444	53.16
593.781	53.28
594.119	53.41
594.456	53.43
594.793	53.45
595.131	53.48
595.468	53.53
595.805	53.57
596.143	53.64
596.48	53.69
596.817	53.61
597.154	53.6
597.491	53.69
597.828	53.66
598.165	53.64
598.502	53.66
598.839	53.73
599.176	53.71
599.512	53.8
599.849	53.83
600.186	53.91
600.523	54.01
600.859	53.98
601.196	54.01
601.532	54.03
601.869	54.09
602.205	54.09
602.542	54.07
602.878	54.09
603.215	54.09
603.551	54.06
603.887	54.14
604.223	54.2
604.56	54.22
604.896	54.27
605.232	54.36
605.568	54.41
605.904	54.45
606.24	54.51
606.576	54.48
606.912	54.5
607.248	54.53
607.583	54.62
607.919	54.72
608.255	54.7
608.591	54.74
608.926	54.74
609.262	54.8
609.597	54.9
609.933	54.98
610.268	55.05
610.604	55.09
610.939	55.1
611.275	55.14
611.61	55.22
611.945	55.2
612.281	55.19
612.616	55.21
612.951	55.25
613.286	55.34
613.621	55.51
613.956	55.54
614.291	55.57
614.626	55.51
614.961	55.44
615.296	55.5
615.631	55.59
615.966	55.72
616.3	55.72
616.635	55.76
616.97	55.84
617.304	55.83
617.639	55.82
617.973	55.85
618.308	55.81
618.642	55.81
618.977	55.93
619.311	56.02
619.646	56.01
619.98	55.98
620.314	56
620.648	55.98
620.983	56.08
621.317	56.1
621.651	56.13
621.985	56.21
622.319	56.2
622.653	56.21
622.987	56.17
623.321	56.18
623.655	56.16
623.988	56.1
624.322	56.01
624.656	56.09
624.99	56.13
625.323	56.18
625.657	56.22
625.99	56.2
626.324	56.17
626.657	56.17
626.991	56.16
627.324	56.14
627.658	56.11
627.991	56.06
628.324	56.06
628.657	56.15
628.991	56.2
629.324	56.34
629.657	56.36
629.99	56.43
630.323	56.46
630.656	56.53
630.989	56.51
631.322	56.55
631.655	56.6
631.987	56.63
632.32	56.72
632.653	56.62
632.986	56.61
633.318	56.7
633.651	56.77
633.984	56.78
634.316	56.79
634.649	56.93
634.981	56.99
635.313	56.97
635.646	56.88
635.978	56.9
636.31	56.78
636.643	56.81
636.975	56.75
637.307	56.71
637.639	56.6
637.971	56.68
638.303	56.79
638.635	56.78
638.967	56.77
639.299	56.77
639.631	56.85
639.963	56.86
640.295	56.73
640.626	56.8
640.958	56.9
641.29	56.96
641.621	56.92
641.953	56.93
642.285	57.07
642.616	57.19
642.948	57.17
643.279	57.19
643.61	57.08
643.942	57.16
644.273	57.32
644.604	57.41
644.936	57.39
645.267	57.36
645.598	57.45
645.929	57.57
646.26	57.55
646.591	57.54
646.922	57.58
647.253	57.77
647.584	57.78
647.915	57.72
648.245	57.8
648.576	57.8
648.907	57.84
649.238	57.7
649.568	57.73
649.899	57.74
650.229	57.88
650.56	57.96
650.89	57.93
651.221	57.93
651.551	57.82
651.882	57.75
652.212	57.93
652.542	57.78
652.872	57.75
653.203	57.82
653.533	58.01
653.863	58.03
654.193	57.86
654.523	57.87
654.853	57.99
655.183	57.98
655.513	58.06
655.843	58.1
656.172	58.16
656.502	58.17
656.832	58.29
657.162	58.19
657.491	58.14
657.821	58.15
658.15	58.18
658.48	58.34
658.809	58.47
659.139	58.42
659.468	58.46
659.798	58.39
660.127	58.28
660.456	58.23
660.785	58.27
661.115	58.41
661.444	58.35
661.773	58.37
662.102	58.33
662.431	58.31
662.76	58.35
663.089	58.41
663.418	58.35
663.747	58.26
664.076	58.2
664.404	58.23
664.733	58.3
665.062	58.29
665.39	58.29
665.719	58.22
666.048	58.19
666.376	58.22
666.705	58.28
667.033	58.34
667.362	58.25
667.69	58.25
668.018	58.37
668.347	58.43
668.675	58.33
669.003	58.52
669.331	58.5
669.659	58.41
669.987	58.37
670.315	58.39
670.643	58.31
670.971	58.46
671.299	58.59
671.627	58.51
671.955	58.42
672.283	58.52
672.61	58.6
672.938	58.64
673.266	58.68
673.593	58.72
673.921	58.81
674.249	58.8
674.576	58.88
674.904	58.73
675.231	58.67
675.558	58.8
675.886	58.61
676.213	58.54
676.54	58.68
676.867	58.79
677.195	58.86
677.522	58.88
677.849	58.88
678.176	58.94
678.503	58.84
678.83	58.83
679.157	58.87
679.484	58.92
679.81	58.93
680.137	58.94
680.464	58.89
680.791	58.84
681.117	58.95
681.444	58.87
681.771	58.88
682.097	58.98
682.424	58.98
682.75	59.06
683.077	59.09
683.403	58.93
683.729	58.87
684.056	58.78
684.382	58.82
684.708	58.7
685.034	58.47
685.36	58.63
685.686	58.73
686.012	58.36
686.339	58.31
686.664	58.26
686.99	58.29
687.316	58.18
687.642	58.08
687.968	58.09
688.294	58.17
688.619	58.23
688.945	58.12
689.271	57.97
689.596	57.92
689.922	58.12
690.247	58.29
690.573	58.26
690.898	58.2
691.224	58.42
691.549	58.59
691.874	58.64
692.2	58.67
692.525	58.73
692.85	58.91
693.175	58.85
693.5	58.83
693.825	58.85
694.15	58.92
694.475	59.15
694.8	59.03
695.125	58.97
695.45	58.96
695.775	58.97
696.099	59
696.424	59.01
696.749	58.88
697.073	58.77
697.398	58.82
697.723	58.95
698.047	58.81
698.372	58.78
698.696	58.83
699.02	58.9
699.345	58.91
699.669	58.97
699.993	59.03
700.318	59.17
700.642	59.19
700.966	59.35
701.29	59.29
701.614	59.31
701.938	59.35
702.262	59.43
702.586	59.53
702.91	59.59
703.234	59.54
703.557	59.59
703.881	59.6
704.205	59.71
704.529	59.62
704.852	59.63
705.176	59.61
705.499	59.64
705.823	59.58
706.146	59.5
706.47	59.52
706.793	59.42
707.117	59.41
707.44	59.23
707.763	59.17
708.086	59.21
708.409	59.31
708.733	59.17
709.056	59.08
709.379	59.27
709.702	59.16
710.025	59.15
710.348	59.15
710.671	59.1
710.993	59.04
711.316	59
711.639	59.05
711.962	59.2
712.284	59.25
712.607	59.15
712.93	59.18
713.252	59.34
713.575	59.45
713.897	59.31
714.22	59.57
714.542	59.47
714.864	59.34
715.187	59.19
715.509	59.26
715.831	59.25
716.153	59.16
716.475	59.4
716.798	59.47
717.12	59.43
717.442	59.44
717.764	59.36
718.085	59.37
718.407	59.35
718.729	59.34
719.051	59.38
719.373	59.28
719.695	59.2
720.016	59.05
720.338	59.04
720.659	59.05
720.981	58.98
721.302	59.03
721.624	59.04
721.945	59.38
722.267	59.32
722.588	59.45
722.909	59.61
723.231	59.47
723.552	59.6
723.873	59.54
724.194	59.91
724.515	60.01
724.836	60.34
725.157	60.25
725.478	60.02
725.799	59.85
726.12	60.18
726.441	60.14
726.762	60.12
727.083	60.27
727.403	60.07
727.724	59.97
728.045	60.01
728.365	60.31
728.686	60.09
729.006	60.04
729.327	59.92
729.647	59.49
729.967	59.72
730.288	59.61
730.608	59.64
730.928	59.57
731.249	59.59
731.569	59.49
731.889	59.55
732.209	59.65
732.529	59.9
732.849	59.84
733.169	59.77
733.489	59.68
733.809	59.45
734.129	59.7
734.448	59.95
734.768	59.9
735.088	59.75
735.408	59.84
735.727	60.12
736.047	60.25
736.366	60.65
736.686	60.58
737.005	60.67
737.325	60.94
737.644	60.62
737.963	60.56
738.283	60.49
738.602	60.37
738.921	60.18
739.24	60.14
739.56	60.17
739.879	60.26
740.198	60.42
740.517	60.59
740.836	60.36
741.155	59.98
741.473	60.09
741.792	60.02
742.111	59.72
742.43	59.45
742.748	59.21
743.067	59.23
743.386	59.31
743.704	59.38
744.023	59.05
744.341	59.28
744.66	59.64
744.978	59.77
745.297	59.74
745.615	59.87
745.933	59.97
746.252	59.91
746.57	59.82
746.888	60.1
747.206	60.16
747.524	60.33
747.842	60.47
748.16	60.63
748.478	60.96
748.796	61.44
749.114	61.59
749.432	62.03
749.749	61.83
750.067	61.39
750.385	61.33
750.703	61.25
751.02	60.89
751.338	60.47
751.655	60.36
751.973	60.57
752.29	60.85
752.608	60.62
752.925	60.59
753.242	60.89
753.56	60.57
753.877	60.7
754.194	60.8
754.511	61.02
754.828	60.64
755.145	60.1
755.462	59.92
755.779	60.12
756.096	59.89
756.413	59.66
756.73	59.85
757.047	59.93
757.364	60.09
757.68	60.76
757.997	60.86
758.314	60.96
758.63	60.78
758.947	60.52
759.264	60.58
759.58	60.73
759.896	60.8
760.213	60.62
760.529	60.29
760.846	60.51
761.162	60.2
761.478	60.1
761.794	60.04
762.11	60.22
762.426	60.1
762.743	59.88
763.059	60.03
763.375	59.98
763.69	59.81
764.006	59.92
764.322	59.74
764.638	59.75
764.954	59.81
765.27	59.89
765.585	60.11
765.901	59.97
766.216	59.97
766.532	59.88
766.848	60.18
767.163	60.19
767.478	60.03
767.794	60.41
768.109	60.73
768.424	61.3
768.74	61.03
769.055	61.04
769.37	61.02
769.685	61.31
770	61.68
770.315	61.84
770.63	61.97
770.945	62.2
771.26	62.39
771.575	62.22
771.89	62.45
772.205	62.22
772.52	62.56
772.834	62.82
773.149	62.73
773.464	62.47
773.778	62.75
774.093	62.79
774.407	62.64
774.722	62.61
775.036	62.66
775.351	62.98
775.665	63.05
775.979	63.44
776.293	63.34
776.608	63
776.922	63.38
777.236	62.93
777.55	62.6
777.864	62.38
778.178	62.72
778.492	62.96
778.806	63.25
779.12	63
779.434	62.63
779.747	62.94
780.061	62.87
780.375	62.88
780.689	62.86
781.002	62.69
781.316	62.87
781.629	62.46
781.943	62.23
782.256	62.44
782.57	62.47
782.883	62.28
783.196	62.23
783.51	61.72
783.823	62.1
784.136	61.83
784.449	61.73
784.762	61.47
785.075	61.17
785.388	60.81
785.701	61.25
786.014	60.96
786.327	60.28
786.64	60.45
786.953	60.47
787.266	60.17
787.578	60.01
787.891	60.07
788.204	60.09
788.516	60.27
788.829	60.23
789.141	60.42
789.454	60.52
789.766	60.45
790.079	60.25
790.391	60.31
790.703	60.58
791.016	60.46
791.328	60.89
791.64	60.84
791.952	61.14
792.264	60.4
792.576	60.85
792.888	61.06
793.2	61.38
793.512	61.65
793.824	62.04
794.136	62.08
794.448	62.04
794.76	62.14
795.071	62.11
795.383	61.7
795.695	61.85
796.006	61.33
796.318	61.63
796.629	62.01
796.941	61.93
797.252	62.23
797.564	62.42
797.875	61.96
798.186	61.71
798.497	61.34
798.809	61.77
799.12	61.5
799.431	62.33
799.742	61.94
800.053	61.99
800.364	62.13
800.675	62.25
800.986	62.28
801.297	62.37
801.608	62.38
801.918	62.72
802.229	62.11
802.54	62.72
802.851	62.21
803.161	62.4
803.472	62.24
803.782	62.13
804.093	62.22
804.403	62.14
804.714	62.58
805.024	62.97
805.334	63.05
805.645	63.58
805.955	63.1
806.265	62.99
806.575	62.27
806.885	61.94
807.195	62.58
807.505	62.06
807.815	61.99
808.125	61.72
808.435	61.86
808.745	61.9
809.055	61.69
809.365	62.26
809.674	62.04
809.984	62.41
810.294	62.3
810.603	62.76
810.913	63.22
811.222	62.74
811.532	62.06
811.841	62.06
812.151	61.9
812.46	61.95
812.769	61.87
813.079	62.58
813.388	62.65
813.697	61.66
814.006	62.17
814.315	61.72
814.624	62.14
814.933	61.99
815.242	61.75
815.551	61.85
815.86	61.61
816.169	62.05
816.478	60.94
816.786	59.86
817.095	59.8
817.404	59.58
817.712	59.33
818.021	60.08
818.33	59.94
818.638	59.42
818.947	59.89
819.255	60.31
819.563	60.32
819.872	60.4
820.18	60.78
820.488	60.29
820.796	60.57
821.105	60.54
821.413	60.56
821.721	60.53
822.029	60.36
822.337	60.31
822.645	60.23
822.953	60.56
823.26	60.9
823.568	60.8
823.876	60.75
824.184	60.94
824.491	61.03
824.799	61.04
825.107	61.38
825.414	61.35
825.722	61.34
826.029	61.52
826.337	61.6
826.644	61.35
826.951	61.62
827.259	61.86
827.566	61.7
827.873	61.79
828.18	62.17
828.488	62.41
828.795	62.88
829.102	63.13
829.409	62.87
829.716	63.07
830.023	63.06
830.329	63.3
830.636	63.74
830.943	63.18
831.25	63.56
831.557	63.21
831.863	62.53
832.17	63.03
832.476	62.74
832.783	62.56
833.089	62.74
833.396	63.19
833.702	62.98
834.009	63.27
834.315	63.41
834.621	62.98
834.928	63.5
835.234	63.27
835.54	62.61
835.846	63.28
836.152	63.22
836.458	63.55
836.764	63.52
837.07	63.24
837.376	63.85
837.682	63.53
837.988	63.77
838.293	64.19
838.599	63.3
838.905	62.65
839.211	62.16
839.516	62.01
839.822	61.93
840.127	61.57
840.433	61.99
840.738	61.52
841.044	62.9
841.349	62.49
841.654	62.3
841.959	62.79
842.265	61.25
842.57	60.18
842.875	59.39
843.18	58.85
843.485	58.47
843.79	57.6
844.095	57.67
844.4	57.44
844.705	57.94
845.01	56.97
845.315	56.78
845.619	58.09
845.924	58.16
846.229	56.75
846.533	56.56
846.838	55.55
847.142	54.67
847.447	51.65
847.751	50.75
848.056	49.52
848.36	50.6
848.664	50.97
848.969	52.46
849.273	52.72
849.577	52.09
849.881	52.07
850.185	54.26
850.489	55.46
850.794	54.85
851.097	54.47
851.401	57.33
851.705	59.43
852.009	58.9
852.313	59.32
852.617	59.63
852.92	59.95
853.224	60.79
853.528	62.76
853.831	66.41
854.135	67.33
854.438	70.3
854.742	69.98
855.045	70.15
855.349	67.05
855.652	68.2
855.955	70.56
856.259	70.9
856.562	69.39
856.865	65.89
857.168	66.66
857.471	68.03
857.774	69.19
858.077	70.28
858.38	73.02
858.683	72.75
858.986	72.55
859.289	69.08
859.592	68.86
859.894	68.73
860.197	65.58
860.5	64.14
860.802	62.12
861.105	59.46
861.407	61.24
861.71	65.09
862.012	66.46
862.315	63.73
862.617	63.12
862.919	64.42
863.222	66.45
863.524	66.86
863.826	65.59
864.128	62.15
864.43	60.4
864.732	59.7
865.034	58.66
865.336	55.41
865.638	56.62
865.94	57.41
866.242	57.68
866.544	56.38
866.846	58.33
867.147	58.86
867.449	60.39
867.751	58.71
868.052	57.79
868.354	54.94
868.655	55.72
868.957	56.19
869.258	54.17
869.56	52.48
869.861	51.93
870.162	53.97
870.463	55.09
870.765	55.17
871.066	51.09
871.367	54.74
871.668	57.84
871.969	57.68
872.27	56.11
872.571	55.59
872.872	57.25
873.173	56.1
873.473	54.23
873.774	55.35
874.075	57.27
874.376	57.23
874.676	58.44
874.977	59.22
875.277	59.81
875.578	60.18
875.878	61.92
876.179	61.45
876.479	59.38
876.78	59.3
877.08	59.03
877.38	61.89
877.68	59.8
877.981	60.97
878.281	64.04
878.581	65.88
