Data from BU26940_Reflection_00003.txt Node
Date: Tue Nov 19 11:00:11 EST 2019
User: vgr7
Spectrometer: USB2G7710
Scans to average: 3
Trigger mode: 4
Integration Time (sec): 2.000000E-2
Electric dark correction enabled: true
Boxcar width: 10
XAxis mode: Wavelengths
Number of Pixels in Spectrum: 2048
>>>>>Begin Spectral Data<<<<<
177.721	191.86
178.105	-8233.33
178.488	326.91
178.871	174.36
179.254	308.33
179.636	168.84
180.019	213.1
180.402	90
180.785	-154.39
181.168	-118.93
181.55	-49.57
181.933	13.86
182.316	89.42
182.698	29.6
183.081	-6.81
183.463	-14.52
183.846	-46.31
184.228	-27.71
184.611	-15.18
184.993	-44.44
185.376	-67.93
185.758	-63.96
186.14	-35.24
186.522	-85.02
186.904	-108.89
187.287	-44.69
187.669	-41.03
188.051	-69.93
188.433	93.59
188.815	-733.33
189.197	-1194.87
189.579	-228.43
189.961	-501.19
190.342	-113.96
190.724	-131.06
191.106	-109.37
191.488	-61.74
191.869	-48.91
192.251	-55.38
192.633	-41.71
193.014	-21.45
193.396	-31.41
193.777	-9.82
194.159	-12.16
194.54	-9.28
194.922	-14.62
195.303	-3.14
195.684	-0.12
196.065	7.71
196.447	18.72
196.828	27.48
197.209	30.44
197.59	31.92
197.971	14.05
198.352	13.77
198.733	21.68
199.114	10.74
199.495	-6.58
199.876	-17.22
200.257	-11.62
200.638	10.55
201.018	-28.42
201.399	-12.48
201.78	-30.91
202.16	-23.56
202.541	-30.91
202.922	-27.15
203.302	-26.88
203.683	-31.56
204.063	-33.77
204.444	-25.99
204.824	-17.68
205.204	-9.39
205.585	-16.3
205.965	-7.63
206.345	-7.38
206.725	-6.49
207.106	3.61
207.486	8.33
207.866	21.31
208.246	17.02
208.626	4.11
209.006	11.29
209.386	13.56
209.766	14.49
210.145	10.98
210.525	12.32
210.905	25.31
211.285	31.02
211.664	30.16
212.044	27.4
212.424	20.84
212.803	25.41
213.183	22.48
213.562	37.6
213.942	28.77
214.321	33.41
214.701	25.5
215.08	21.86
215.459	26.95
215.838	6.53
216.218	11.4
216.597	15.8
216.976	10.26
217.355	9.8
217.734	6.2
218.113	16.11
218.492	15.27
218.871	17.62
219.25	18.42
219.629	16.46
220.008	5.25
220.387	5.99
220.766	-4.38
221.144	9.06
221.523	4.9
221.902	4.76
222.28	-0.6
222.659	15.96
223.037	15.84
223.416	10.84
223.794	16.27
224.173	15.74
224.551	13.53
224.929	13.25
225.308	7.36
225.686	10.44
226.064	6.4
226.442	8.16
226.821	2.07
227.199	-2.33
227.577	1.08
227.955	0.5
228.333	3.63
228.711	4.22
229.089	2.18
229.467	-2.61
229.845	-0.6
230.222	-0.46
230.6	-5.2
230.978	-3.88
231.356	-1.55
231.733	0.03
232.111	0.52
232.488	2.32
232.866	3.45
233.243	3.63
233.621	4.36
233.998	4.33
234.376	2.23
234.753	2.82
235.13	4.06
235.508	3.45
235.885	3.01
236.262	0.44
236.639	1
237.016	0.86
237.393	2.5
237.77	2.97
238.147	3.12
238.524	3.53
238.901	2.88
239.278	1.97
239.655	2.46
240.032	2.41
240.409	2.21
240.785	1.67
241.162	2.15
241.539	2.19
241.915	2.18
242.292	3.17
242.668	2.9
243.045	2.96
243.421	3.39
243.798	3.78
244.174	3.96
244.551	3.8
244.927	3.64
245.303	3.5
245.679	3.46
246.056	3.79
246.432	3.8
246.808	4.08
247.184	4.37
247.56	4.01
247.936	4.1
248.312	3.93
248.688	4.22
249.064	4.05
249.44	3.91
249.815	4.05
250.191	3.93
250.567	4.07
250.943	4.21
251.318	3.9
251.694	3.46
252.069	3.66
252.445	3.63
252.82	3.94
253.196	4.15
253.571	4.19
253.947	3.87
254.322	3.62
254.697	3.5
255.073	3.48
255.448	3.78
255.823	3.58
256.198	3.64
256.573	3.63
256.948	3.66
257.323	3.94
257.698	3.9
258.073	3.67
258.448	3.74
258.823	3.56
259.198	3.59
259.573	3.72
259.948	3.58
260.322	3.61
260.697	3.66
261.072	3.64
261.446	3.6
261.821	3.54
262.195	3.74
262.57	3.46
262.944	3.47
263.319	3.41
263.693	3.37
264.067	3.37
264.442	3.2
264.816	3.24
265.19	2.9
265.564	2.8
265.938	2.74
266.313	2.63
266.687	2.61
267.061	2.74
267.435	2.81
267.809	2.7
268.183	2.8
268.556	2.77
268.93	2.85
269.304	2.89
269.678	2.89
270.051	2.8
270.425	3.03
270.799	2.76
271.172	2.85
271.546	2.9
271.919	3.1
272.293	3.27
272.666	3.26
273.04	3.55
273.413	3.54
273.787	3.75
274.16	3.82
274.533	3.94
274.906	3.81
275.279	3.77
275.653	3.82
276.026	3.74
276.399	3.78
276.772	3.62
277.145	3.69
277.518	3.64
277.891	3.6
278.263	3.69
278.636	3.92
279.009	3.84
279.382	3.8
279.755	3.62
280.127	3.53
280.5	3.35
280.872	3.2
281.245	3.22
281.617	3.04
281.99	2.93
282.362	2.99
282.735	2.94
283.107	2.87
283.479	3.01
283.852	3.07
284.224	3.03
284.596	3.05
284.968	2.96
285.34	2.94
285.713	3.01
286.085	2.95
286.457	2.87
286.829	2.79
287.201	2.71
287.572	2.68
287.944	2.69
288.316	2.78
288.688	2.86
289.06	2.82
289.431	2.88
289.803	2.88
290.175	2.75
290.546	2.68
290.918	2.73
291.289	2.61
291.661	2.53
292.032	2.43
292.403	2.49
292.775	2.52
293.146	2.64
293.517	2.57
293.889	2.57
294.26	2.54
294.631	2.75
295.002	2.85
295.373	2.91
295.744	2.82
296.115	2.84
296.486	2.81
296.857	2.88
297.228	2.83
297.599	2.81
297.97	2.92
298.34	3.1
298.711	3.13
299.082	3.16
299.452	3.19
299.823	3.29
300.194	3.34
300.564	3.31
300.935	3.36
301.305	3.39
301.676	3.29
302.046	3.25
302.416	3.11
302.787	3.01
303.157	2.99
303.527	3.26
303.897	3.27
304.267	3.27
304.637	3.24
305.008	3.4
305.378	3.42
305.748	3.31
306.117	3.38
306.487	3.52
306.857	3.56
307.227	3.69
307.597	3.6
307.967	3.48
308.336	3.45
308.706	3.38
309.076	3.44
309.445	3.56
309.815	3.67
310.184	3.81
310.554	3.85
310.923	3.75
311.293	3.63
311.662	3.69
312.031	3.59
312.401	3.56
312.77	3.36
313.139	3.37
313.508	3.37
313.877	3.27
314.246	3.08
314.616	3.09
314.985	2.91
315.353	2.98
315.722	3.01
316.091	3.05
316.46	3.11
316.829	3.14
317.198	3.16
317.567	3.26
317.935	3.07
318.304	3.21
318.672	3.33
319.041	3.4
319.41	3.2
319.778	3.24
320.147	3.24
320.515	3.46
320.883	3.49
321.252	3.63
321.62	3.55
321.988	3.69
322.357	3.79
322.725	3.95
323.093	3.85
323.461	3.94
323.829	4.01
324.197	4.01
324.565	3.91
324.933	3.82
325.301	3.61
325.669	3.67
326.037	3.58
326.405	3.6
326.772	3.48
327.14	3.63
327.508	3.56
327.875	3.67
328.243	3.51
328.61	3.55
328.978	3.4
329.346	3.4
329.713	3.29
330.08	3.29
330.448	3.18
330.815	3.14
331.182	2.99
331.55	2.93
331.917	2.74
332.284	2.91
332.651	2.97
333.018	2.98
333.385	2.93
333.752	2.94
334.119	2.78
334.486	2.78
334.853	2.72
335.22	2.71
335.587	2.68
335.954	2.62
336.32	2.51
336.687	2.63
337.054	2.72
337.42	2.7
337.787	2.65
338.153	2.67
338.52	2.78
338.886	2.84
339.253	2.92
339.619	3.01
339.986	2.84
340.352	2.77
340.718	2.82
341.084	2.83
341.451	2.85
341.817	2.96
342.183	3
342.549	3.05
342.915	3.09
343.281	3.12
343.647	3.2
344.013	3.23
344.379	3.11
344.745	3.13
345.11	3.23
345.476	3.17
345.842	3.18
346.208	3.1
346.573	3.05
346.939	2.92
347.304	2.97
347.67	3.05
348.035	3.02
348.401	3.05
348.766	3.02
349.132	3.05
349.497	3.02
349.862	3
350.228	2.96
350.593	2.98
350.958	2.91
351.323	2.81
351.688	2.86
352.053	2.9
352.418	2.83
352.783	2.73
353.148	2.73
353.513	2.72
353.878	2.75
354.243	2.75
354.608	2.91
354.972	2.87
355.337	2.83
355.702	2.89
356.066	2.91
356.431	2.87
356.795	2.8
357.16	2.72
357.524	2.76
357.889	2.76
358.253	2.74
358.618	2.74
358.982	2.82
359.346	2.78
359.71	2.81
360.075	2.85
360.439	2.96
360.803	2.99
361.167	2.94
361.531	2.96
361.895	3.01
362.259	3.03
362.623	3.08
362.987	3.05
363.351	3.04
363.714	3.04
364.078	3.06
364.442	3.04
364.806	3.15
365.169	3.07
365.533	3.09
365.896	3.11
366.26	3.13
366.623	3.12
366.987	3.07
367.35	3.09
367.714	3.1
368.077	3.14
368.44	3.13
368.803	3.18
369.167	3.12
369.53	3.08
369.893	3.03
370.256	2.92
370.619	2.91
370.982	2.87
371.345	2.83
371.708	2.86
372.071	2.91
372.434	2.84
372.797	2.9
373.159	2.9
373.522	2.91
373.885	2.92
374.247	2.92
374.61	2.94
374.973	2.95
375.335	2.99
375.698	2.9
376.06	2.87
376.423	2.84
376.785	2.89
377.147	2.93
377.51	2.91
377.872	2.97
378.234	3.01
378.596	3.05
378.958	3.04
379.321	3.03
379.683	3.04
380.045	3.07
380.407	3.07
380.769	3
381.13	3.01
381.492	2.99
381.854	3
382.216	3.09
382.578	3.1
382.939	3.02
383.301	3.03
383.663	3.03
384.024	3.06
384.386	3.05
384.747	3
385.109	2.97
385.47	2.96
385.832	2.93
386.193	2.87
386.554	2.85
386.916	2.87
387.277	2.82
387.638	2.81
387.999	2.84
388.36	2.89
388.721	2.89
389.082	2.94
389.443	2.94
389.804	2.92
390.165	2.9
390.526	2.93
390.887	2.94
391.248	2.94
391.609	2.94
391.969	2.91
392.33	2.93
392.691	2.96
393.051	2.99
393.412	3.01
393.772	3.04
394.133	3.07
394.493	3.06
394.854	3.09
395.214	3.13
395.574	3.13
395.935	3.14
396.295	3.14
396.655	3.1
397.015	3.08
397.376	3.05
397.736	3.04
398.096	3.03
398.456	3.01
398.816	3.03
399.176	2.99
399.535	3.02
399.895	3.02
400.255	3
400.615	2.98
400.975	3.04
401.334	3.05
401.694	3.04
402.054	3.07
402.413	3.06
402.773	3.01
403.132	3
403.492	2.98
403.851	2.95
404.211	2.99
404.57	3
404.929	3.02
405.288	3.03
405.648	3.04
406.007	3.06
406.366	3.05
406.725	3.06
407.084	3.07
407.443	3.07
407.802	3.08
408.161	3.09
408.52	3.08
408.879	3.09
409.238	3.1
409.596	3.09
409.955	3.09
410.314	3.11
410.673	3.12
411.031	3.13
411.39	3.14
411.748	3.11
412.107	3.12
412.465	3.11
412.824	3.09
413.182	3.08
413.54	3.07
413.899	3.07
414.257	3.07
414.615	3.06
414.974	3.04
415.332	3.05
415.69	3.03
416.048	3.03
416.406	3.02
416.764	3.04
417.122	3.03
417.48	3.04
417.838	3.04
418.195	3.04
418.553	3.03
418.911	3.03
419.269	3.03
419.626	3.03
419.984	3.06
420.342	3.06
420.699	3.07
421.057	3.07
421.414	3.08
421.772	3.09
422.129	3.09
422.486	3.09
422.844	3.08
423.201	3.09
423.558	3.08
423.915	3.09
424.273	3.09
424.63	3.09
424.987	3.09
425.344	3.09
425.701	3.08
426.058	3.1
426.415	3.1
426.772	3.11
427.128	3.12
427.485	3.1
427.842	3.09
428.199	3.1
428.555	3.09
428.912	3.08
429.269	3.08
429.625	3.09
429.982	3.11
430.338	3.12
430.695	3.12
431.051	3.12
431.407	3.1
431.764	3.1
432.12	3.1
432.476	3.11
432.832	3.13
433.189	3.14
433.545	3.14
433.901	3.16
434.257	3.17
434.613	3.15
434.969	3.16
435.325	3.17
435.681	3.15
436.036	3.16
436.392	3.16
436.748	3.17
437.104	3.17
437.459	3.18
437.815	3.19
438.171	3.19
438.526	3.2
438.882	3.2
439.237	3.18
439.593	3.18
439.948	3.18
440.304	3.17
440.659	3.18
441.014	3.19
441.369	3.18
441.725	3.17
442.08	3.18
442.435	3.18
442.79	3.18
443.145	3.2
443.5	3.19
443.855	3.19
444.21	3.18
444.565	3.17
444.92	3.16
445.275	3.16
445.629	3.17
445.984	3.16
446.339	3.17
446.693	3.18
447.048	3.17
447.403	3.18
447.757	3.17
448.112	3.17
448.466	3.17
448.82	3.2
449.175	3.2
449.529	3.2
449.883	3.2
450.238	3.21
450.592	3.2
450.946	3.2
451.3	3.2
451.654	3.2
452.008	3.2
452.362	3.19
452.716	3.18
453.07	3.17
453.424	3.18
453.778	3.17
454.132	3.16
454.486	3.18
454.839	3.17
455.193	3.19
455.547	3.2
455.9	3.18
456.254	3.16
456.607	3.16
456.961	3.17
457.314	3.16
457.668	3.15
458.021	3.14
458.375	3.17
458.728	3.17
459.081	3.16
459.434	3.17
459.787	3.18
460.141	3.2
460.494	3.2
460.847	3.19
461.2	3.2
461.553	3.22
461.906	3.22
462.259	3.22
462.611	3.23
462.964	3.22
463.317	3.22
463.67	3.21
464.022	3.22
464.375	3.2
464.728	3.21
465.08	3.21
465.433	3.22
465.785	3.21
466.138	3.22
466.49	3.24
466.843	3.24
467.195	3.24
467.547	3.21
467.899	3.22
468.252	3.24
468.604	3.26
468.956	3.25
469.308	3.25
469.66	3.26
470.012	3.26
470.364	3.28
470.716	3.29
471.068	3.3
471.42	3.3
471.772	3.31
472.123	3.31
472.475	3.3
472.827	3.31
473.178	3.3
473.53	3.3
473.882	3.31
474.233	3.31
474.585	3.31
474.936	3.33
475.288	3.32
475.639	3.3
475.99	3.28
476.342	3.28
476.693	3.29
477.044	3.29
477.395	3.29
477.746	3.27
478.097	3.27
478.448	3.26
478.8	3.25
479.15	3.26
479.501	3.28
479.852	3.29
480.203	3.29
480.554	3.3
480.905	3.31
481.255	3.31
481.606	3.32
481.957	3.33
482.307	3.33
482.658	3.34
483.009	3.36
483.359	3.35
483.709	3.36
484.06	3.36
484.41	3.36
484.761	3.36
485.111	3.37
485.461	3.37
485.811	3.38
486.162	3.39
486.512	3.39
486.862	3.39
487.212	3.4
487.562	3.4
487.912	3.4
488.262	3.4
488.612	3.4
488.961	3.41
489.311	3.4
489.661	3.4
490.011	3.4
490.36	3.39
490.71	3.4
491.06	3.4
491.409	3.4
491.759	3.4
492.108	3.4
492.458	3.39
492.807	3.4
493.157	3.4
493.506	3.39
493.855	3.39
494.204	3.37
494.554	3.37
494.903	3.37
495.252	3.37
495.601	3.37
495.95	3.37
496.299	3.37
496.648	3.37
496.997	3.37
497.346	3.4
497.695	3.4
498.043	3.42
498.392	3.4
498.741	3.42
499.09	3.42
499.438	3.43
499.787	3.43
500.135	3.42
500.484	3.42
500.832	3.44
501.181	3.44
501.529	3.47
501.878	3.48
502.226	3.49
502.574	3.49
502.923	3.48
503.271	3.47
503.619	3.46
503.967	3.46
504.315	3.45
504.663	3.43
505.011	3.44
505.359	3.4
505.707	3.4
506.055	3.38
506.403	3.39
506.751	3.39
507.098	3.4
507.446	3.4
507.794	3.39
508.141	3.39
508.489	3.4
508.837	3.4
509.184	3.41
509.531	3.41
509.879	3.41
510.226	3.42
510.574	3.43
510.921	3.45
511.268	3.45
511.616	3.46
511.963	3.42
512.31	3.43
512.657	3.45
513.004	3.47
513.351	3.47
513.698	3.47
514.045	3.48
514.392	3.49
514.739	3.5
515.086	3.52
515.432	3.52
515.779	3.51
516.126	3.54
516.473	3.52
516.819	3.52
517.166	3.52
517.512	3.53
517.859	3.55
518.205	3.53
518.552	3.54
518.898	3.53
519.245	3.55
519.591	3.55
519.937	3.56
520.283	3.55
520.629	3.56
520.976	3.57
521.322	3.57
521.668	3.57
522.014	3.57
522.36	3.56
522.706	3.56
523.052	3.56
523.398	3.54
523.743	3.55
524.089	3.57
524.435	3.57
524.781	3.58
525.126	3.56
525.472	3.6
525.817	3.6
526.163	3.62
526.509	3.64
526.854	3.63
527.199	3.63
527.545	3.64
527.89	3.64
528.235	3.64
528.581	3.63
528.926	3.63
529.271	3.63
529.616	3.63
529.961	3.63
530.306	3.63
530.651	3.64
530.996	3.65
531.341	3.64
531.686	3.64
532.031	3.65
532.376	3.65
532.721	3.62
533.065	3.63
533.41	3.64
533.755	3.64
534.099	3.65
534.444	3.66
534.788	3.65
535.133	3.65
535.477	3.66
535.822	3.67
536.166	3.68
536.51	3.68
536.855	3.7
537.199	3.68
537.543	3.69
537.887	3.7
538.231	3.69
538.576	3.7
538.92	3.72
539.264	3.7
539.608	3.71
539.951	3.72
540.295	3.72
540.639	3.7
540.983	3.68
541.327	3.69
541.671	3.7
542.014	3.71
542.358	3.72
542.701	3.72
543.045	3.72
543.389	3.73
543.732	3.74
544.075	3.74
544.419	3.77
544.762	3.77
545.105	3.77
545.449	3.78
545.792	3.78
546.135	3.78
546.478	3.79
546.821	3.81
547.165	3.8
547.508	3.82
547.851	3.86
548.194	3.86
548.536	3.87
548.879	3.84
549.222	3.86
549.565	3.84
549.908	3.83
550.25	3.83
550.593	3.81
550.936	3.81
551.278	3.78
551.621	3.76
551.963	3.79
552.306	3.8
552.648	3.79
552.991	3.78
553.333	3.75
553.675	3.75
554.017	3.73
554.36	3.73
554.702	3.73
555.044	3.71
555.386	3.71
555.728	3.69
556.07	3.71
556.412	3.67
556.754	3.68
557.096	3.69
557.438	3.7
557.78	3.7
558.121	3.7
558.463	3.73
558.805	3.75
559.147	3.72
559.488	3.69
559.83	3.7
560.171	3.68
560.513	3.71
560.854	3.72
561.196	3.73
561.537	3.73
561.878	3.72
562.22	3.72
562.561	3.73
562.902	3.75
563.243	3.73
563.584	3.74
563.925	3.75
564.266	3.73
564.607	3.71
564.948	3.72
565.289	3.71
565.63	3.7
565.971	3.69
566.312	3.67
566.653	3.68
566.993	3.67
567.334	3.71
567.675	3.73
568.015	3.74
568.356	3.69
568.696	3.71
569.037	3.73
569.377	3.71
569.718	3.71
570.058	3.71
570.398	3.72
570.739	3.71
571.079	3.72
571.419	3.75
571.759	3.74
572.099	3.75
572.439	3.75
572.779	3.76
573.119	3.78
573.459	3.79
573.799	3.8
574.139	3.82
574.479	3.81
574.819	3.83
575.158	3.81
575.498	3.85
575.838	3.83
576.177	3.79
576.517	3.82
576.856	3.81
577.196	3.8
577.535	3.78
577.875	3.78
578.214	3.79
578.553	3.79
578.893	3.8
579.232	3.81
579.571	3.81
579.91	3.81
580.25	3.83
580.589	3.79
580.928	3.77
581.267	3.73
581.606	3.76
581.945	3.73
582.283	3.74
582.622	3.74
582.961	3.78
583.3	3.81
583.639	3.77
583.977	3.78
584.316	3.79
584.654	3.84
584.993	3.84
585.332	3.85
585.67	3.86
586.008	3.87
586.347	3.88
586.685	3.86
587.024	3.86
587.362	3.84
587.7	3.88
588.038	3.94
588.376	3.93
588.715	3.89
589.053	3.87
589.391	3.87
589.729	3.88
590.067	3.85
590.404	3.83
590.742	3.88
591.08	3.89
591.418	3.87
591.756	3.88
592.093	3.9
592.431	3.89
592.769	3.88
593.106	3.9
593.444	3.9
593.781	3.92
594.119	3.91
594.456	3.92
594.793	3.9
595.131	3.9
595.468	3.93
595.805	3.92
596.143	3.93
596.48	3.95
596.817	3.96
597.154	3.95
597.491	3.98
597.828	3.98
598.165	4.01
598.502	4.02
598.839	3.98
599.176	3.99
599.512	3.98
599.849	3.97
600.186	3.98
600.523	3.98
600.859	3.98
601.196	4
601.532	4
601.869	4
602.205	3.97
602.542	4
602.878	4.02
603.215	4.01
603.551	3.98
603.887	3.94
604.223	3.95
604.56	3.93
604.896	3.91
605.232	3.89
605.568	3.92
605.904	3.93
606.24	3.94
606.576	3.95
606.912	3.96
607.248	3.99
607.583	4
607.919	4.02
608.255	4.03
608.591	4.03
608.926	4.01
609.262	4.02
609.597	3.99
609.933	3.98
610.268	4.02
610.604	4.03
610.939	4.1
611.275	4.13
611.61	4.13
611.945	4.14
612.281	4.13
612.616	4.14
612.951	4.16
613.286	4.14
613.621	4.14
613.956	4.16
614.291	4.09
614.626	4.07
614.961	4.04
615.296	4.06
615.631	4.1
615.966	4.17
616.3	4.21
616.635	4.22
616.97	4.25
617.304	4.21
617.639	4.24
617.973	4.17
618.308	4.14
618.642	4.15
618.977	4.15
619.311	4.14
619.646	4.1
619.98	4.1
620.314	4.14
620.648	4.14
620.983	4.15
621.317	4.2
621.651	4.22
621.985	4.23
622.319	4.17
622.653	4.2
622.987	4.18
623.321	4.16
623.655	4.19
623.988	4.19
624.322	4.19
624.656	4.15
624.99	4.19
625.323	4.22
625.657	4.26
625.99	4.25
626.324	4.24
626.657	4.27
626.991	4.25
627.324	4.24
627.658	4.27
627.991	4.29
628.324	4.29
628.657	4.24
628.991	4.28
629.324	4.3
629.657	4.26
629.99	4.27
630.323	4.25
630.656	4.22
630.989	4.22
631.322	4.23
631.655	4.24
631.987	4.23
632.32	4.24
632.653	4.22
632.986	4.3
633.318	4.36
633.651	4.35
633.984	4.42
634.316	4.39
634.649	4.37
634.981	4.35
635.313	4.35
635.646	4.43
635.978	4.41
636.31	4.39
636.643	4.38
636.975	4.39
637.307	4.41
637.639	4.41
637.971	4.44
638.303	4.54
638.635	4.57
638.967	4.54
639.299	4.53
639.631	4.52
639.963	4.47
640.295	4.4
640.626	4.4
640.958	4.41
641.29	4.47
641.621	4.45
641.953	4.4
642.285	4.39
642.616	4.38
642.948	4.38
643.279	4.39
643.61	4.37
643.942	4.38
644.273	4.41
644.604	4.43
644.936	4.38
645.267	4.3
645.598	4.34
645.929	4.4
646.26	4.32
646.591	4.29
646.922	4.39
647.253	4.42
647.584	4.48
647.915	4.44
648.245	4.45
648.576	4.4
648.907	4.42
649.238	4.39
649.568	4.39
649.899	4.36
650.229	4.4
650.56	4.4
650.89	4.41
651.221	4.4
651.551	4.42
651.882	4.42
652.212	4.35
652.542	4.31
652.872	4.25
653.203	4.34
653.533	4.39
653.863	4.35
654.193	4.35
654.523	4.29
654.853	4.26
655.183	4.24
655.513	4.33
655.843	4.31
656.172	4.36
656.502	4.32
656.832	4.34
657.162	4.3
657.491	4.38
657.821	4.36
658.15	4.36
658.48	4.38
658.809	4.41
659.139	4.47
659.468	4.5
659.798	4.54
660.127	4.53
660.456	4.55
660.785	4.48
661.115	4.5
661.444	4.54
661.773	4.58
662.102	4.59
662.431	4.58
662.76	4.6
663.089	4.62
663.418	4.68
663.747	4.72
664.076	4.79
664.404	4.72
664.733	4.71
665.062	4.71
665.39	4.68
665.719	4.67
666.048	4.65
666.376	4.67
666.705	4.71
667.033	4.68
667.362	4.64
667.69	4.65
668.018	4.64
668.347	4.66
668.675	4.66
669.003	4.64
669.331	4.72
669.659	4.69
669.987	4.65
670.315	4.62
670.643	4.57
670.971	4.55
671.299	4.57
671.627	4.62
671.955	4.62
672.283	4.62
672.61	4.61
672.938	4.63
673.266	4.63
673.593	4.52
673.921	4.58
674.249	4.63
674.576	4.66
674.904	4.56
675.231	4.51
675.558	4.54
675.886	4.51
676.213	4.38
676.54	4.48
676.867	4.49
677.195	4.45
677.522	4.49
677.849	4.55
678.176	4.6
678.503	4.55
678.83	4.52
679.157	4.55
679.484	4.6
679.81	4.57
680.137	4.64
680.464	4.67
680.791	4.66
681.117	4.68
681.444	4.59
681.771	4.7
682.097	4.73
682.424	4.7
682.75	4.67
683.077	4.74
683.403	4.64
683.729	4.66
684.056	4.73
684.382	4.77
684.708	4.71
685.034	4.71
685.36	4.77
685.686	4.79
686.012	4.86
686.339	4.84
686.664	4.92
686.99	4.77
687.316	4.83
687.642	4.78
687.968	4.86
688.294	4.97
688.619	5.02
688.945	5.02
689.271	5.04
689.596	5.16
689.922	5.15
690.247	5.17
690.573	5.1
690.898	5.13
691.224	5.03
691.549	5.04
691.874	5.01
692.2	4.93
692.525	4.98
692.85	4.83
693.175	4.83
693.5	4.71
693.825	4.78
694.15	4.77
694.475	4.76
694.8	4.67
695.125	4.61
695.45	4.52
695.775	4.48
696.099	4.52
696.424	4.51
696.749	4.66
697.073	4.69
697.398	4.78
697.723	4.71
698.047	4.83
698.372	4.8
698.696	4.83
699.02	4.85
699.345	4.87
699.669	4.94
699.993	5
700.318	5.11
700.642	5.11
700.966	5.11
701.29	5.21
701.614	5.22
701.938	5.32
702.262	5.4
702.586	5.45
702.91	5.38
703.234	5.28
703.557	5.14
703.881	5.29
704.205	5.18
704.529	5.3
704.852	5.25
705.176	5.38
705.499	5.39
705.823	5.39
706.146	5.28
706.47	5.29
706.793	5.13
707.117	5.2
707.44	5.09
707.763	5.04
708.086	4.87
708.409	4.88
708.733	4.79
709.056	4.75
709.379	4.85
709.702	4.84
710.025	5.04
710.348	5.07
710.671	5.03
710.993	5.18
711.316	5.08
711.639	5.11
711.962	5.06
712.284	5.1
712.607	5.01
712.93	5
713.252	4.91
713.575	5.03
713.897	4.91
714.22	5.03
714.542	5.09
714.864	5.05
715.187	4.93
715.509	4.98
715.831	4.97
716.153	4.89
716.475	4.77
716.798	4.65
717.12	4.61
717.442	4.45
717.764	4.37
718.085	4.42
718.407	4.33
718.729	4.19
719.051	3.98
719.373	4.16
719.695	4.2
720.016	4.16
720.338	4.13
720.659	4.19
720.981	4.11
721.302	4.17
721.624	4.27
721.945	4.45
722.267	4.41
722.588	4.51
722.909	4.52
723.231	4.67
723.552	4.67
723.873	4.66
724.194	4.68
724.515	4.81
724.836	4.73
725.157	4.77
725.478	4.76
725.799	4.81
726.12	4.8
726.441	4.89
726.762	5.13
727.083	5.08
727.403	5.18
727.724	5.25
728.045	5.19
728.365	5.21
728.686	5.27
729.006	5.3
729.327	5.22
729.647	5.29
729.967	5.33
730.288	5.45
730.608	5.58
730.928	5.69
731.249	5.6
731.569	5.61
731.889	5.61
732.209	5.66
732.529	5.72
732.849	5.67
733.169	5.52
733.489	5.28
733.809	5.38
734.129	5.27
734.448	5.32
734.768	5.35
735.088	5.31
735.408	5.26
735.727	5.49
736.047	5.51
736.366	5.41
736.686	5.29
737.005	5.29
737.325	5.14
737.644	5.12
737.963	4.99
738.283	5.16
738.602	5.19
738.921	5.52
739.24	5.7
739.56	5.85
739.879	5.92
740.198	6.2
740.517	6.18
740.836	6.14
741.155	6.18
741.473	6.23
741.792	6.59
742.111	6.71
742.43	6.64
742.748	6.63
743.067	6.73
743.386	6.71
743.704	6.35
744.023	6.38
744.341	6.32
744.66	6.3
744.978	6.29
745.297	6.17
745.615	6.03
745.933	5.87
746.252	5.73
746.57	5.82
746.888	5.76
747.206	5.87
747.524	6
747.842	5.7
748.16	5.8
748.478	5.36
748.796	5.3
749.114	5.11
749.432	5.24
749.749	5.31
750.067	5.36
750.385	5.82
750.703	5.85
751.02	5.96
751.338	6.03
751.655	5.96
751.973	6.12
752.29	5.93
752.608	5.84
752.925	5.9
753.242	6.07
753.56	5.9
753.877	5.82
754.194	5.81
754.511	5.97
754.828	5.92
755.145	6.12
755.462	6.12
755.779	6.05
756.096	5.96
756.413	5.88
756.73	6.06
757.047	5.72
757.364	5.73
757.68	5.77
757.997	5.97
758.314	5.96
758.63	5.76
758.947	5.97
759.264	6.11
759.58	6.15
759.896	6.12
760.213	6.09
760.529	6.13
760.846	6.13
761.162	6.06
761.478	6.06
761.794	6.29
762.11	6.22
762.426	6.22
762.743	6.2
763.059	6.31
763.375	6.38
763.69	6.62
764.006	6.65
764.322	6.62
764.638	6.7
764.954	6.73
765.27	6.93
765.585	6.79
765.901	6.88
766.216	6.93
766.532	6.87
766.848	6.93
767.163	6.77
767.478	6.65
767.794	6.96
768.109	6.95
768.424	6.66
768.74	6.73
769.055	6.77
769.37	6.73
769.685	6.86
770	6.69
770.315	6.58
770.63	6.34
770.945	6.57
771.26	6.24
771.575	6.18
771.89	6.11
772.205	6.13
772.52	5.84
772.834	5.71
773.149	5.61
773.464	5.48
773.778	5.69
774.093	5.72
774.407	5.19
774.722	5.11
775.036	5.12
775.351	5.15
775.665	5.29
775.979	5.68
776.293	5.66
776.608	5.74
776.922	5.67
777.236	5.87
777.55	5.68
777.864	6.17
778.178	6.17
778.492	5.96
778.806	6.12
779.12	6.35
779.434	6.42
779.747	6.71
780.061	6.87
780.375	6.92
780.689	6.76
781.002	6.96
781.316	6.95
781.629	7.02
781.943	7.01
782.256	6.63
782.57	6.43
782.883	6.22
783.196	6.35
783.51	6.63
783.823	7.01
784.136	7
784.449	6.66
784.762	6.66
785.075	6.98
785.388	7.02
785.701	6.79
786.014	6.91
786.327	6.53
786.64	6.77
786.953	6.57
787.266	6.79
787.578	6.75
787.891	6.89
788.204	6.82
788.516	6.68
788.829	7.26
789.141	7.01
789.454	7.06
789.766	7.14
790.079	7.1
790.391	6.83
790.703	6.59
791.016	6.23
791.328	6.6
791.64	6.36
791.952	6.27
792.264	6.39
792.576	6.42
792.888	6.8
793.2	6.61
793.512	6.86
793.824	7.11
794.136	7.27
794.448	7.45
794.76	7.83
795.071	7.8
795.383	7.35
795.695	7.42
796.006	7.59
796.318	7.62
796.629	7.68
796.941	7.56
797.252	7.7
797.564	8.14
797.875	7.65
798.186	7.71
798.497	7.84
798.809	7.89
799.12	7.66
799.431	7.36
799.742	7.93
800.053	8.09
800.364	8.06
800.675	7.95
800.986	7.9
801.297	7.36
801.608	7.51
801.918	7.86
802.229	8.38
802.54	8.53
802.851	8.8
803.161	9.06
803.472	9.08
803.782	9.6
804.093	9.43
804.403	9.56
804.714	10.07
805.024	9.87
805.334	10.27
805.645	10.33
805.955	10.41
806.265	9.66
806.575	9.46
806.885	9.6
807.195	10.14
807.505	9.84
807.815	9.89
808.125	9.87
808.435	9.91
808.745	9.45
809.055	9.63
809.365	9.5
809.674	8.33
809.984	8.6
810.294	7.76
810.603	7.33
810.913	7.06
811.222	6.79
811.532	6.79
811.841	6.62
812.151	6.94
812.46	7.42
812.769	7.55
813.079	7.66
813.388	7.52
813.697	6.89
814.006	7.07
814.315	7.24
814.624	6.85
814.933	6.53
815.242	6.52
815.551	6.15
815.86	5.96
816.169	6.43
816.478	6.58
816.786	7
817.095	7.18
817.404	7.84
817.712	7.83
818.021	7.96
818.33	7.47
818.638	7.17
818.947	7.01
819.255	7.08
819.563	7.03
819.872	7.11
820.18	7.53
820.488	7.66
820.796	7.88
821.105	8.22
821.413	8.25
821.721	8.23
822.029	8.31
822.337	8.28
822.645	8.42
822.953	8.53
823.26	8.63
823.568	8.65
823.876	8.6
824.184	8.52
824.491	8.43
824.799	8.54
825.107	8.6
825.414	8.52
825.722	8.53
826.029	8.6
826.337	8.57
826.644	8.46
826.951	8.55
827.259	8.58
827.566	8.43
827.873	8.52
828.18	8.66
828.488	8.44
828.795	8.43
829.102	8.47
829.409	8.16
829.716	8.02
830.023	7.96
830.329	8.16
830.636	8.29
830.943	8.39
831.25	8.46
831.557	8.7
831.863	8.92
832.17	8.83
832.476	8.64
832.783	8.49
833.089	8.63
833.396	8.98
833.702	8.84
834.009	8.92
834.315	8.78
834.621	8.68
834.928	8.71
835.234	8.63
835.54	8.47
835.846	8.76
836.152	8.43
836.458	8.77
836.764	8.11
837.07	7.8
837.376	7.73
837.682	7.85
837.988	7.34
838.293	7.2
838.599	7.98
838.905	8.21
839.211	8.62
839.516	8.9
839.822	8.66
840.127	8.2
840.433	8.9
840.738	9.21
841.044	8.82
841.349	8.74
841.654	9.23
841.959	8.72
842.265	8.54
842.57	9.1
842.875	8.4
843.18	9
843.485	8.92
843.79	8.48
844.095	8.55
844.4	8.14
844.705	8.87
845.01	7.82
845.315	7.54
845.619	7.94
845.924	7.19
846.229	7.1
846.533	7.88
846.838	5.68
847.142	4.65
847.447	5.97
847.751	7.38
848.056	6.57
848.36	6.94
848.664	6.97
848.969	5.32
849.273	6.69
849.577	5.59
849.881	6.46
850.185	5.81
850.489	5.54
850.794	7.45
851.097	6.09
851.401	5.11
851.705	6.4
852.009	7.7
852.313	6.49
852.617	5.12
852.92	5.39
853.224	7.18
853.528	8.28
853.831	7.88
854.135	6.32
854.438	5.87
854.742	6.81
855.045	6.58
855.349	8.91
855.652	8.3
855.955	10.27
856.259	9.58
856.562	11.56
856.865	11.61
857.168	10.22
857.471	10.95
857.774	11.08
858.077	10.38
858.38	9.94
858.683	11.55
858.986	11.92
859.289	13.43
859.592	12.72
859.894	13.06
860.197	13.36
860.5	14.73
860.802	16.33
861.105	15.2
861.407	14.86
861.71	12.46
862.012	14.54
862.315	13.32
862.617	13.11
862.919	13.55
863.222	13.77
863.524	13.58
863.826	11.61
864.128	13.87
864.43	13.72
864.732	12.25
865.034	11.97
865.336	11
865.638	8.33
865.94	9.63
866.242	8.45
866.544	8.6
866.846	8.03
867.147	8.41
867.449	8.11
867.751	9.55
868.052	11.13
868.354	10.02
868.655	10.62
868.957	10.78
869.258	10.3
869.56	10.27
869.861	9.32
870.162	11.78
870.463	11.52
870.765	10.19
871.066	11.78
871.367	10.74
871.668	9.25
871.969	10.17
872.27	6.7
872.571	6.4
872.872	4.6
873.173	4.75
873.473	0.7
873.774	2.55
874.075	3.03
874.376	2.06
874.676	2.09
874.977	2.38
875.277	4.43
875.578	4.52
875.878	3.24
876.179	5.03
876.479	3.68
876.78	2.27
877.08	3.26
877.38	0.5
877.68	1.07
877.981	2.92
878.281	2.59
878.581	5.79
