Data from BU26844_Reflection_00013.txt Node
Date: Mon Nov 18 16:36:28 EST 2019
User: vgr7
Spectrometer: USB2G7710
Scans to average: 3
Trigger mode: 4
Integration Time (sec): 2.000000E-2
Electric dark correction enabled: true
Boxcar width: 10
XAxis mode: Wavelengths
Number of Pixels in Spectrum: 2048
>>>>>Begin Spectral Data<<<<<
177.721	-224.16
178.105	-7233.33
178.488	17.48
178.871	-1983.33
179.254	17.02
179.636	1329.17
180.019	-83.17
180.402	91.67
180.785	-27.12
181.168	-3.88
181.55	66.82
181.933	113.75
182.316	175.6
182.698	185.98
183.081	203.7
183.463	211.39
183.846	204.12
184.228	181.58
184.611	279.23
184.993	743.07
185.376	7978.79
185.758	-473.4
186.14	-396.63
186.522	-488.09
186.904	-1431.35
187.287	1867.07
187.669	-460.66
188.051	-659.33
188.433	-461.23
188.815	-290.94
189.197	-267.58
189.579	-181.71
189.961	-226.13
190.342	-221.23
190.724	-147.39
191.106	-142.47
191.488	-153.54
191.869	-137.16
192.251	-162.41
192.633	-157.06
193.014	-175.6
193.396	-159.46
193.777	-147.4
194.159	-142.47
194.54	-115.26
194.922	-87.84
195.303	-76.08
195.684	-82.26
196.065	-60.97
196.447	-40.87
196.828	-36.18
197.209	-20.66
197.59	-35.86
197.971	-28.12
198.352	-4.27
198.733	-4.66
199.114	-4.82
199.495	1.05
199.876	-4.81
200.257	-0.67
200.638	-0.78
201.018	13.52
201.399	17.38
201.78	22.28
202.16	17.55
202.541	-1.2
202.922	-53.14
203.302	-93.96
203.683	-79.3
204.063	-148.44
204.444	-288.22
204.824	-265.88
205.204	-319.32
205.585	-400.67
205.965	-263.47
206.345	-246.18
206.725	-306.58
207.106	-443.45
207.486	-555.51
207.866	-858.06
208.246	-759.54
208.626	-915.58
209.006	-237.16
209.386	-252.26
209.766	-266.75
210.145	-133.87
210.525	-138.71
210.905	-135.04
211.285	-91.83
211.664	-100.08
212.044	-101.84
212.424	-85.01
212.803	-78.88
213.183	-67.84
213.562	-74.03
213.942	-59.75
214.321	-57.69
214.701	-50.76
215.08	-51.6
215.459	-46.74
215.838	-45.58
216.218	-48.9
216.597	-46.41
216.976	-50.94
217.355	-49.7
217.734	-49.81
218.113	-58.7
218.492	-60.93
218.871	-57.36
219.25	-48.99
219.629	-47.56
220.008	-35.62
220.387	-33.4
220.766	-36.05
221.144	-33.58
221.523	-36.3
221.902	-41.73
222.28	-38.09
222.659	-24.02
223.037	-5.66
223.416	-0.39
223.794	0.66
224.173	-6.65
224.551	-14.84
224.929	-10.18
225.308	-5.94
225.686	0.28
226.064	5.18
226.442	5.57
226.821	6.31
227.199	3.6
227.577	3.13
227.955	0.19
228.333	-1.98
228.711	-2.36
229.089	-2.06
229.467	-3.38
229.845	-7.66
230.222	-8.44
230.6	-10.14
230.978	-11.97
231.356	-10.95
231.733	-10
232.111	-8.69
232.488	-6.32
232.866	-4.68
233.243	-4.54
233.621	-4.8
233.998	-3.83
234.376	-4.43
234.753	-4.66
235.13	-4.09
235.508	-2.5
235.885	-0.68
236.262	-0.56
236.639	-0.41
237.016	1.41
237.393	3
237.77	5.73
238.147	6.37
238.524	6.58
238.901	6.98
239.278	6.56
239.655	6.84
240.032	7.06
240.409	6.57
240.785	6.16
241.162	5.6
241.539	5.41
241.915	4.83
242.292	4.4
242.668	4.45
243.045	4.61
243.421	4.62
243.798	4.36
244.174	4.33
244.551	4.03
244.927	3.65
245.303	3.81
245.679	3.89
246.056	3.82
246.432	3.81
246.808	3.71
247.184	3.69
247.56	3.46
247.936	3.41
248.312	3.16
248.688	3.35
249.064	3.71
249.44	3.52
249.815	3.69
250.191	4.04
250.567	4.09
250.943	3.7
251.318	3.94
251.694	3.78
252.069	3.57
252.445	3.78
252.82	4.14
253.196	3.91
253.571	3.68
253.947	3.67
254.322	3.7
254.697	3.8
255.073	3.51
255.448	3.76
255.823	3.75
256.198	3.9
256.573	3.68
256.948	3.54
257.323	3.66
257.698	3.67
258.073	3.72
258.448	3.56
258.823	3.64
259.198	3.41
259.573	3.44
259.948	3.68
260.322	3.71
260.697	3.55
261.072	3.51
261.446	3.38
261.821	3.3
262.195	3.3
262.57	3.27
262.944	3.32
263.319	3.23
263.693	3.13
264.067	3.15
264.442	3.32
264.816	3.22
265.19	3.09
265.564	3.1
265.938	2.99
266.313	3.11
266.687	3.11
267.061	3.32
267.435	3.36
267.809	3.22
268.183	3.19
268.556	3.21
268.93	3.22
269.304	3.39
269.678	3.55
270.051	3.48
270.425	3.4
270.799	3.36
271.172	3.33
271.546	3.25
271.919	3.14
272.293	2.86
272.666	2.86
273.04	2.9
273.413	2.88
273.787	2.8
274.16	2.78
274.533	2.84
274.906	2.68
275.279	2.6
275.653	2.6
276.026	2.44
276.399	2.49
276.772	2.71
277.145	2.5
277.518	2.37
277.891	2.4
278.263	2.26
278.636	2.35
279.009	2.3
279.382	2.73
279.755	2.63
280.127	2.94
280.5	3.06
280.872	3.23
281.245	2.93
281.617	3.12
281.99	3.14
282.362	3.07
282.735	3.02
283.107	3.06
283.479	3.15
283.852	3.24
284.224	3.19
284.596	3.23
284.968	3.37
285.34	3.47
285.713	3.52
286.085	3.78
286.457	3.92
286.829	4
287.201	3.77
287.572	3.87
287.944	3.87
288.316	3.85
288.688	3.79
289.06	3.98
289.431	3.93
289.803	4.01
290.175	4.13
290.546	4.27
290.918	4.44
291.289	4.48
291.661	4.63
292.032	4.66
292.403	4.51
292.775	4.5
293.146	4.51
293.517	4.51
293.889	4.44
294.26	4.54
294.631	4.69
295.002	4.75
295.373	4.84
295.744	4.83
296.115	4.96
296.486	4.93
296.857	5.01
297.228	5.05
297.599	5.1
297.97	5.12
298.34	5.11
298.711	5.12
299.082	5.08
299.452	5.09
299.823	5.25
300.194	5.47
300.564	5.52
300.935	5.67
301.305	5.73
301.676	5.82
302.046	5.65
302.416	5.72
302.787	5.84
303.157	5.92
303.527	5.96
303.897	6.01
304.267	6.27
304.637	6.37
305.008	6.4
305.378	6.53
305.748	6.58
306.117	6.62
306.487	6.67
306.857	6.84
307.227	6.97
307.597	7.04
307.967	7.07
308.336	7.12
308.706	7.07
309.076	7.21
309.445	7.28
309.815	7.35
310.184	7.31
310.554	7.41
310.923	7.47
311.293	7.58
311.662	7.66
312.031	7.72
312.401	7.85
312.77	8.13
313.139	8.27
313.508	8.36
313.877	8.49
314.246	8.52
314.616	8.56
314.985	8.65
315.353	8.75
315.722	8.86
316.091	8.97
316.46	9.11
316.829	9.23
317.198	9.49
317.567	9.82
317.935	9.82
318.304	9.95
318.672	10.14
319.041	10.34
319.41	10.33
319.778	10.36
320.147	10.48
320.515	10.24
320.883	10.17
321.252	10.39
321.62	10.39
321.988	10.55
322.357	10.71
322.725	10.84
323.093	11.05
323.461	11.15
323.829	11.37
324.197	11.45
324.565	11.44
324.933	11.37
325.301	11.33
325.669	11.67
326.037	11.67
326.405	11.72
326.772	11.75
327.14	11.95
327.508	12.09
327.875	12.05
328.243	12.26
328.61	12.37
328.978	12.38
329.346	12.64
329.713	12.68
330.08	12.75
330.448	12.71
330.815	12.54
331.182	12.5
331.55	12.52
331.917	12.76
332.284	12.93
332.651	12.92
333.018	13.01
333.385	12.86
333.752	13.04
334.119	13.05
334.486	12.93
334.853	12.85
335.22	12.79
335.587	12.89
335.954	13.02
336.32	13.06
336.687	13.05
337.054	13.01
337.42	13.06
337.787	13.03
338.153	13.07
338.52	13.15
338.886	13.1
339.253	13.03
339.619	13.02
339.986	12.94
340.352	13.01
340.718	12.96
341.084	12.98
341.451	13
341.817	13.06
342.183	13.22
342.549	13.31
342.915	13.37
343.281	13.39
343.647	13.31
344.013	13.36
344.379	13.43
344.745	13.49
345.11	13.52
345.476	13.6
345.842	13.57
346.208	13.58
346.573	13.72
346.939	13.81
347.304	13.67
347.67	13.65
348.035	13.68
348.401	13.71
348.766	13.74
349.132	13.77
349.497	13.79
349.862	13.73
350.228	13.64
350.593	13.53
350.958	13.53
351.323	13.53
351.688	13.57
352.053	13.6
352.418	13.54
352.783	13.6
353.148	13.56
353.513	13.62
353.878	13.6
354.243	13.56
354.608	13.55
354.972	13.63
355.337	13.66
355.702	13.77
356.066	13.84
356.431	13.82
356.795	13.8
357.16	13.7
357.524	13.65
357.889	13.69
358.253	13.78
358.618	13.71
358.982	13.66
359.346	13.57
359.71	13.51
360.075	13.57
360.439	13.52
360.803	13.48
361.167	13.49
361.531	13.52
361.895	13.5
362.259	13.49
362.623	13.41
362.987	13.33
363.351	13.22
363.714	13.13
364.078	13.14
364.442	13.03
364.806	12.96
365.169	12.95
365.533	12.88
365.896	12.83
366.26	12.83
366.623	12.82
366.987	12.78
367.35	12.78
367.714	12.67
368.077	12.57
368.44	12.57
368.803	12.5
369.167	12.34
369.53	12.23
369.893	12.18
370.256	12.14
370.619	12.17
370.982	12.06
371.345	12.02
371.708	11.96
372.071	11.82
372.434	11.75
372.797	11.69
373.159	11.63
373.522	11.56
373.885	11.46
374.247	11.4
374.61	11.29
374.973	11.12
375.335	10.98
375.698	10.95
376.06	10.77
376.423	10.61
376.785	10.61
377.147	10.58
377.51	10.51
377.872	10.43
378.234	10.31
378.596	10.26
378.958	10.12
379.321	10.06
379.683	10.12
380.045	10.09
380.407	9.97
380.769	9.85
381.13	9.79
381.492	9.73
381.854	9.61
382.216	9.52
382.578	9.48
382.939	9.41
383.301	9.33
383.663	9.29
384.024	9.27
384.386	9.15
384.747	9.07
385.109	8.98
385.47	8.92
385.832	8.88
386.193	8.85
386.554	8.85
386.916	8.7
387.277	8.55
387.638	8.49
387.999	8.42
388.36	8.36
388.721	8.3
389.082	8.2
389.443	8.13
389.804	8.11
390.165	7.98
390.526	7.93
390.887	7.86
391.248	7.79
391.609	7.74
391.969	7.72
392.33	7.65
392.691	7.59
393.051	7.51
393.412	7.45
393.772	7.33
394.133	7.26
394.493	7.23
394.854	7.17
395.214	7.1
395.574	7.06
395.935	7.02
396.295	6.92
396.655	6.87
397.015	6.79
397.376	6.68
397.736	6.65
398.096	6.59
398.456	6.5
398.816	6.51
399.176	6.43
399.535	6.35
399.895	6.27
400.255	6.21
400.615	6.17
400.975	6.1
401.334	6.06
401.694	5.98
402.054	5.92
402.413	5.9
402.773	5.84
403.132	5.74
403.492	5.68
403.851	5.65
404.211	5.61
404.57	5.57
404.929	5.6
405.288	5.55
405.648	5.52
406.007	5.49
406.366	5.42
406.725	5.41
407.084	5.38
407.443	5.39
407.802	5.35
408.161	5.32
408.52	5.28
408.879	5.23
409.238	5.23
409.596	5.23
409.955	5.17
410.314	5.17
410.673	5.17
411.031	5.14
411.39	5.12
411.748	5.12
412.107	5.12
412.465	5.06
412.824	5.05
413.182	5
413.54	4.98
413.899	4.95
414.257	4.91
414.615	4.88
414.974	4.82
415.332	4.79
415.69	4.76
416.048	4.75
416.406	4.73
416.764	4.68
417.122	4.64
417.48	4.61
417.838	4.59
418.195	4.57
418.553	4.56
418.911	4.52
419.269	4.5
419.626	4.46
419.984	4.44
420.342	4.42
420.699	4.41
421.057	4.39
421.414	4.36
421.772	4.33
422.129	4.32
422.486	4.31
422.844	4.3
423.201	4.28
423.558	4.25
423.915	4.24
424.273	4.23
424.63	4.22
424.987	4.21
425.344	4.17
425.701	4.16
426.058	4.13
426.415	4.12
426.772	4.1
427.128	4.08
427.485	4.06
427.842	4.04
428.199	4.03
428.555	4
428.912	4.01
429.269	4
429.625	3.98
429.982	3.97
430.338	3.95
430.695	3.93
431.051	3.9
431.407	3.91
431.764	3.9
432.12	3.88
432.476	3.89
432.832	3.9
433.189	3.89
433.545	3.9
433.901	3.89
434.257	3.89
434.613	3.9
434.969	3.91
435.325	3.91
435.681	3.9
436.036	3.92
436.392	3.91
436.748	3.91
437.104	3.91
437.459	3.9
437.815	3.9
438.171	3.9
438.526	3.91
438.882	3.91
439.237	3.93
439.593	3.96
439.948	3.95
440.304	3.95
440.659	3.94
441.014	3.95
441.369	3.93
441.725	3.92
442.08	3.91
442.435	3.9
442.79	3.89
443.145	3.87
443.5	3.85
443.855	3.86
444.21	3.84
444.565	3.83
444.92	3.82
445.275	3.8
445.629	3.8
445.984	3.8
446.339	3.77
446.693	3.73
447.048	3.68
447.403	3.65
447.757	3.64
448.112	3.62
448.466	3.6
448.82	3.6
449.175	3.59
449.529	3.58
449.883	3.55
450.238	3.54
450.592	3.56
450.946	3.54
451.3	3.52
451.654	3.5
452.008	3.5
452.362	3.47
452.716	3.48
453.07	3.47
453.424	3.46
453.778	3.46
454.132	3.46
454.486	3.48
454.839	3.48
455.193	3.48
455.547	3.48
455.9	3.49
456.254	3.48
456.607	3.48
456.961	3.45
457.314	3.48
457.668	3.5
458.021	3.48
458.375	3.5
458.728	3.5
459.081	3.51
459.434	3.5
459.787	3.55
460.141	3.55
460.494	3.55
460.847	3.57
461.2	3.56
461.553	3.58
461.906	3.6
462.259	3.62
462.611	3.64
462.964	3.67
463.317	3.7
463.67	3.73
464.022	3.74
464.375	3.79
464.728	3.81
465.08	3.83
465.433	3.85
465.785	3.87
466.138	3.89
466.49	3.92
466.843	3.95
467.195	3.96
467.547	3.99
467.899	4.02
468.252	4.02
468.604	4.09
468.956	4.11
469.308	4.13
469.66	4.16
470.012	4.19
470.364	4.21
470.716	4.24
471.068	4.24
471.42	4.28
471.772	4.31
472.123	4.33
472.475	4.36
472.827	4.4
473.178	4.39
473.53	4.4
473.882	4.41
474.233	4.44
474.585	4.43
474.936	4.42
475.288	4.42
475.639	4.43
475.99	4.42
476.342	4.42
476.693	4.43
477.044	4.42
477.395	4.4
477.746	4.37
478.097	4.33
478.448	4.31
478.8	4.28
479.15	4.24
479.501	4.22
479.852	4.18
480.203	4.16
480.554	4.15
480.905	4.14
481.255	4.13
481.606	4.12
481.957	4.12
482.307	4.12
482.658	4.11
483.009	4.09
483.359	4.09
483.709	4.07
484.06	4.05
484.41	4.04
484.761	4.04
485.111	4.04
485.461	4.04
485.811	4.03
486.162	4.03
486.512	4.02
486.862	4.02
487.212	4.03
487.562	4.03
487.912	4.04
488.262	4.03
488.612	4.03
488.961	4.03
489.311	4.03
489.661	4.04
490.011	4.03
490.36	4.04
490.71	4.05
491.06	4.07
491.409	4.1
491.759	4.11
492.108	4.12
492.458	4.15
492.807	4.17
493.157	4.21
493.506	4.26
493.855	4.31
494.204	4.35
494.554	4.38
494.903	4.42
495.252	4.46
495.601	4.53
495.95	4.61
496.299	4.66
496.648	4.73
496.997	4.78
497.346	4.87
497.695	4.96
498.043	5.02
498.392	5.1
498.741	5.2
499.09	5.29
499.438	5.4
499.787	5.52
500.135	5.65
500.484	5.77
500.832	5.88
501.181	6.02
501.529	6.17
501.878	6.33
502.226	6.5
502.574	6.67
502.923	6.85
503.271	7.05
503.619	7.28
503.967	7.5
504.315	7.73
504.663	7.96
505.011	8.21
505.359	8.48
505.707	8.73
506.055	8.98
506.403	9.28
506.751	9.55
507.098	9.81
507.446	10.09
507.794	10.38
508.141	10.69
508.489	10.96
508.837	11.29
509.184	11.6
509.531	11.94
509.879	12.31
510.226	12.62
510.574	12.92
510.921	13.23
511.268	13.55
511.616	13.89
511.963	14.25
512.31	14.6
512.657	14.99
513.004	15.37
513.351	15.76
513.698	16.17
514.045	16.6
514.392	17.02
514.739	17.43
515.086	17.83
515.432	18.25
515.779	18.66
516.126	19.03
516.473	19.41
516.819	19.76
517.166	20.07
517.512	20.39
517.859	20.7
518.205	21.03
518.552	21.34
518.898	21.63
519.245	21.92
519.591	22.21
519.937	22.48
520.283	22.77
520.629	23.1
520.976	23.42
521.322	23.75
521.668	24.07
522.014	24.43
522.36	24.82
522.706	25.15
523.052	25.52
523.398	25.92
523.743	26.3
524.089	26.7
524.435	27.07
524.781	27.48
525.126	27.8
525.472	28.11
525.817	28.36
526.163	28.61
526.509	28.86
526.854	29.09
527.199	29.31
527.545	29.52
527.89	29.7
528.235	29.9
528.581	30.1
528.926	30.29
529.271	30.47
529.616	30.63
529.961	30.83
530.306	31.03
530.651	31.22
530.996	31.46
531.341	31.66
531.686	31.84
532.031	32.01
532.376	32.24
532.721	32.45
533.065	32.7
533.41	32.95
533.755	33.16
534.099	33.39
534.444	33.61
534.788	33.84
535.133	34.04
535.477	34.28
535.822	34.49
536.166	34.75
536.51	35.02
536.855	35.3
537.199	35.58
537.543	35.84
537.887	36.09
538.231	36.34
538.576	36.63
538.92	36.88
539.264	37.14
539.608	37.35
539.951	37.56
540.295	37.74
540.639	37.9
540.983	38.08
541.327	38.26
541.671	38.4
542.014	38.51
542.358	38.7
542.701	38.82
543.045	38.98
543.389	39.09
543.732	39.22
544.075	39.37
544.419	39.49
544.762	39.62
545.105	39.78
545.449	39.92
545.792	40.05
546.135	40.26
546.478	40.45
546.821	40.63
547.165	40.81
547.508	40.98
547.851	41.16
548.194	41.3
548.536	41.44
548.879	41.64
549.222	41.89
549.565	42.03
549.908	42.24
550.25	42.46
550.593	42.64
550.936	42.77
551.278	42.97
551.621	43.18
551.963	43.39
552.306	43.54
552.648	43.68
552.991	43.81
553.333	43.97
553.675	44.11
554.017	44.3
554.36	44.44
554.702	44.58
555.044	44.73
555.386	44.91
555.728	45.06
556.07	45.24
556.412	45.34
556.754	45.45
557.096	45.57
557.438	45.7
557.78	45.83
558.121	46.02
558.463	46.15
558.805	46.27
559.147	46.42
559.488	46.55
559.83	46.68
560.171	46.77
560.513	46.9
560.854	47.01
561.196	47.03
561.537	47.13
561.878	47.26
562.22	47.3
562.561	47.39
562.902	47.48
563.243	47.52
563.584	47.64
563.925	47.75
564.266	47.75
564.607	47.77
564.948	47.89
565.289	47.91
565.63	47.99
565.971	48.04
566.312	48.03
566.653	48.13
566.993	48.18
567.334	48.29
567.675	48.36
568.015	48.41
568.356	48.51
568.696	48.6
569.037	48.63
569.377	48.76
569.718	48.86
570.058	48.96
570.398	49.06
570.739	49.09
571.079	49.21
571.419	49.35
571.759	49.44
572.099	49.53
572.439	49.63
572.779	49.67
573.119	49.76
573.459	49.88
573.799	49.91
574.139	49.98
574.479	50.06
574.819	50.08
575.158	50.16
575.498	50.26
575.838	50.29
576.177	50.4
576.517	50.48
576.856	50.5
577.196	50.54
577.535	50.58
577.875	50.63
578.214	50.69
578.553	50.75
578.893	50.81
579.232	50.82
579.571	50.92
579.91	50.98
580.25	51.08
580.589	51.12
580.928	51.26
581.267	51.33
581.606	51.33
581.945	51.38
582.283	51.38
582.622	51.41
582.961	51.51
583.3	51.56
583.639	51.67
583.977	51.8
584.316	51.94
584.654	51.99
584.993	52.08
585.332	52.04
585.67	52.05
586.008	52.05
586.347	52.08
586.685	52.09
587.024	52.18
587.362	52.17
587.7	52.19
588.038	52.23
588.376	52.34
588.715	52.46
589.053	52.55
589.391	52.68
589.729	52.75
590.067	52.79
590.404	52.76
590.742	52.81
591.08	52.83
591.418	52.83
591.756	52.94
592.093	52.98
592.431	53.08
592.769	53.15
593.106	53.2
593.444	53.25
593.781	53.32
594.119	53.28
594.456	53.3
594.793	53.36
595.131	53.38
595.468	53.39
595.805	53.43
596.143	53.46
596.48	53.47
596.817	53.47
597.154	53.52
597.491	53.67
597.828	53.61
598.165	53.63
598.502	53.68
598.839	53.73
599.176	53.71
599.512	53.77
599.849	53.93
600.186	54.03
600.523	54.14
600.859	54.2
601.196	54.3
601.532	54.34
601.869	54.42
602.205	54.47
602.542	54.46
602.878	54.43
603.215	54.45
603.551	54.49
603.887	54.53
604.223	54.49
604.56	54.5
604.896	54.6
605.232	54.68
605.568	54.71
605.904	54.76
606.24	54.87
606.576	54.85
606.912	54.79
607.248	54.82
607.583	54.87
607.919	54.92
608.255	54.91
608.591	54.97
608.926	54.98
609.262	55
609.597	55.05
609.933	55.11
610.268	55.19
610.604	55.18
610.939	55.15
611.275	55.27
611.61	55.24
611.945	55.21
612.281	55.19
612.616	55.28
612.951	55.29
613.286	55.36
613.621	55.45
613.956	55.45
614.291	55.41
614.626	55.41
614.961	55.38
615.296	55.53
615.631	55.52
615.966	55.53
616.3	55.63
616.635	55.72
616.97	55.77
617.304	55.83
617.639	55.89
617.973	55.97
618.308	55.99
618.642	56.12
618.977	56.21
619.311	56.17
619.646	56.11
619.98	56.08
620.314	56.14
620.648	56.22
620.983	56.21
621.317	56.3
621.651	56.29
621.985	56.35
622.319	56.36
622.653	56.41
622.987	56.5
623.321	56.42
623.655	56.35
623.988	56.35
624.322	56.25
624.656	56.3
624.99	56.35
625.323	56.36
625.657	56.36
625.99	56.33
626.324	56.37
626.657	56.37
626.991	56.41
627.324	56.34
627.658	56.32
627.991	56.35
628.324	56.35
628.657	56.45
628.991	56.48
629.324	56.45
629.657	56.56
629.99	56.5
630.323	56.54
630.656	56.57
630.989	56.53
631.322	56.54
631.655	56.55
631.987	56.56
632.32	56.62
632.653	56.6
632.986	56.64
633.318	56.71
633.651	56.74
633.984	56.66
634.316	56.63
634.649	56.61
634.981	56.72
635.313	56.77
635.646	56.67
635.978	56.68
636.31	56.75
636.643	56.71
636.975	56.78
637.307	56.82
637.639	56.84
637.971	56.98
638.303	57.11
638.635	57.03
638.967	57.07
639.299	57.03
639.631	57.1
639.963	57.14
640.295	57.06
640.626	57.06
640.958	57.14
641.29	57.26
641.621	57.22
641.953	57.22
642.285	57.14
642.616	57.23
642.948	57.23
643.279	57.17
643.61	57.12
643.942	57.16
644.273	57.18
644.604	57.23
644.936	57.23
645.267	57.19
645.598	57.36
645.929	57.38
646.26	57.3
646.591	57.22
646.922	57.17
647.253	57.39
647.584	57.41
647.915	57.42
648.245	57.46
648.576	57.57
648.907	57.59
649.238	57.68
649.568	57.67
649.899	57.65
650.229	57.71
650.56	57.74
650.89	57.8
651.221	57.83
651.551	57.8
651.882	57.75
652.212	57.85
652.542	57.79
652.872	57.74
653.203	57.72
653.533	57.89
653.863	57.87
654.193	57.8
654.523	57.84
654.853	57.87
655.183	57.9
655.513	57.99
655.843	58.05
656.172	58.08
656.502	58.09
656.832	58.21
657.162	58.27
657.491	58.29
657.821	58.26
658.15	58.23
658.48	58.28
658.809	58.24
659.139	58.11
659.468	58.11
659.798	58.21
660.127	58.34
660.456	58.27
660.785	58.33
661.115	58.31
661.444	58.39
661.773	58.35
662.102	58.3
662.431	58.23
662.76	58.29
663.089	58.33
663.418	58.39
663.747	58.4
664.076	58.27
664.404	58.33
664.733	58.32
665.062	58.36
665.39	58.46
665.719	58.61
666.048	58.77
666.376	58.81
666.705	58.76
667.033	58.76
667.362	58.84
667.69	58.86
668.018	59.03
668.347	59.01
668.675	59.09
669.003	59.19
669.331	59.26
669.659	59.07
669.987	59.03
670.315	59.06
670.643	58.93
670.971	59
671.299	58.92
671.627	58.91
671.955	58.79
672.283	58.78
672.61	58.78
672.938	58.69
673.266	58.75
673.593	58.71
673.921	58.74
674.249	58.64
674.576	58.81
674.904	58.69
675.231	58.72
675.558	58.78
675.886	58.68
676.213	58.6
676.54	58.75
676.867	58.84
677.195	58.71
677.522	58.67
677.849	58.74
678.176	58.79
678.503	58.71
678.83	58.76
679.157	58.77
679.484	58.71
679.81	58.7
680.137	58.49
680.464	58.51
680.791	58.5
681.117	58.63
681.444	58.49
681.771	58.55
682.097	58.55
682.424	58.52
682.75	58.54
683.077	58.65
683.403	58.56
683.729	58.44
684.056	58.48
684.382	58.56
684.708	58.61
685.034	58.56
685.36	58.77
685.686	58.86
686.012	58.83
686.339	58.84
686.664	58.9
686.99	59.09
687.316	58.98
687.642	58.99
687.968	58.91
688.294	59.08
688.619	58.99
688.945	58.96
689.271	58.81
689.596	58.74
689.922	58.81
690.247	58.89
690.573	58.88
690.898	58.87
691.224	58.95
691.549	58.96
691.874	58.87
692.2	58.79
692.525	58.79
692.85	58.78
693.175	58.87
693.5	58.87
693.825	58.86
694.15	59.02
694.475	59.05
694.8	59.05
695.125	58.9
695.45	58.94
695.775	58.84
696.099	59.03
696.424	59.12
696.749	58.97
697.073	58.79
697.398	58.86
697.723	58.75
698.047	58.57
698.372	58.56
698.696	58.72
699.02	58.77
699.345	58.79
699.669	58.8
699.993	58.63
700.318	58.7
700.642	58.82
700.966	58.93
701.29	58.98
701.614	59.05
701.938	59.11
702.262	59.2
702.586	59.35
702.91	59.21
703.234	59.16
703.557	59.21
703.881	59.45
704.205	59.4
704.529	59.39
704.852	59.57
705.176	59.5
705.499	59.47
705.823	59.32
706.146	59.5
706.47	59.43
706.793	59.64
707.117	59.54
707.44	59.33
707.763	59.21
708.086	59.1
708.409	59.06
708.733	59.11
709.056	58.91
709.379	58.98
709.702	59.03
710.025	58.99
710.348	58.86
710.671	58.66
710.993	58.68
711.316	58.82
711.639	58.87
711.962	58.93
712.284	59
712.607	59.25
712.93	59.11
713.252	59.2
713.575	59.12
713.897	58.96
714.22	59.02
714.542	58.96
714.864	59.03
715.187	58.97
715.509	58.92
715.831	59.02
716.153	59.02
716.475	59.32
716.798	59.46
717.12	59.63
717.442	59.65
717.764	59.73
718.085	59.73
718.407	59.66
718.729	59.6
719.051	59.5
719.373	59.25
719.695	59
720.016	58.99
720.338	59
720.659	59.37
720.981	59.61
721.302	59.82
721.624	59.68
721.945	59.6
722.267	59.51
722.588	59.61
722.909	59.6
723.231	59.16
723.552	59.02
723.873	58.77
724.194	58.94
724.515	58.88
724.836	59.08
725.157	59.08
725.478	59.06
725.799	59.19
726.12	59.2
726.441	59.29
726.762	59.4
727.083	59.56
727.403	59.53
727.724	59.34
728.045	59.06
728.365	59.39
728.686	59.32
729.006	59.36
729.327	59.22
729.647	58.96
729.967	59.3
730.288	59.38
730.608	59.57
730.928	59.56
731.249	59.49
731.569	59.41
731.889	59.56
732.209	59.58
732.529	59.57
732.849	59.85
733.169	59.9
733.489	60.05
733.809	59.89
734.129	59.74
734.448	59.77
734.768	59.87
735.088	59.67
735.408	59.95
735.727	60.01
736.047	60.11
736.366	60.39
736.686	60.31
737.005	60.26
737.325	60.5
737.644	60.58
737.963	60.98
738.283	60.88
738.602	60.83
738.921	60.71
739.24	60.73
739.56	60.48
739.879	60.56
740.198	60.33
740.517	60.52
740.836	60.53
741.155	60.54
741.473	60.49
741.792	60.37
742.111	60.2
742.43	59.99
742.748	59.9
743.067	59.93
743.386	59.83
743.704	59.92
744.023	59.81
744.341	59.55
744.66	59.48
744.978	59.64
745.297	59.56
745.615	59.74
745.933	59.66
746.252	59.58
746.57	59.32
746.888	59.31
747.206	59.49
747.524	59.47
747.842	59.35
748.16	59.66
748.478	59.62
748.796	59.79
749.114	60.03
749.432	60.18
749.749	59.98
750.067	59.84
750.385	59.8
750.703	59.83
751.02	59.61
751.338	59.19
751.655	59.04
751.973	59.23
752.29	59.43
752.608	59.31
752.925	59.39
753.242	59.52
753.56	59.27
753.877	59.46
754.194	59.64
754.511	59.88
754.828	59.52
755.145	59.69
755.462	59.91
755.779	60.14
756.096	60.04
756.413	59.9
756.73	60.04
757.047	60.13
757.364	59.82
757.68	60.15
757.997	60.51
758.314	60.69
758.63	60.71
758.947	60.53
759.264	60.73
759.58	60.6
759.896	60.5
760.213	60.57
760.529	59.89
760.846	59.9
761.162	59.76
761.478	59.84
761.794	59.77
762.11	59.28
762.426	59.18
762.743	59.18
763.059	59.45
763.375	59.66
763.69	59.41
764.006	59.69
764.322	59.58
764.638	59.71
764.954	59.65
765.27	59.53
765.585	59.54
765.901	59.46
766.216	59.63
766.532	59.77
766.848	60.08
767.163	60.35
767.478	60.17
767.794	60.42
768.109	60.41
768.424	60.47
768.74	60.62
769.055	60.64
769.37	60.58
769.685	60.51
770	60.31
770.315	60.38
770.63	60.1
770.945	60.41
771.26	59.81
771.575	60.18
771.89	60.06
772.205	60.1
772.52	60.16
772.834	60.32
773.149	60.35
773.464	60.04
773.778	60.36
774.093	60.46
774.407	60.23
774.722	60.47
775.036	60.28
775.351	60.89
775.665	61.05
775.979	61.21
776.293	61.03
776.608	60.97
776.922	61.41
777.236	61.71
777.55	61.88
777.864	62.15
778.178	61.79
778.492	62.33
778.806	62.48
779.12	62.59
779.434	62.59
779.747	62.93
780.061	62.96
780.375	63.01
780.689	62.78
781.002	62.79
781.316	62.61
781.629	63.11
781.943	62.36
782.256	62.32
782.57	62.1
782.883	62.23
783.196	62.36
783.51	61.97
783.823	61.43
784.136	60.5
784.449	60.58
784.762	60.65
785.075	60.64
785.388	60.43
785.701	60.65
786.014	59.92
786.327	58.74
786.64	58.81
786.953	58.27
787.266	58.65
787.578	58.18
787.891	58.46
788.204	58.43
788.516	58.76
788.829	58.36
789.141	59.02
789.454	59.25
789.766	59.11
790.079	58.88
790.391	59.11
790.703	59.85
791.016	60.04
791.328	60.21
791.64	59.86
791.952	60.26
792.264	59.82
792.576	60.26
792.888	61.36
793.2	61.29
793.512	62.07
793.824	62.27
794.136	63.04
794.448	62.87
794.76	62.49
795.071	62.02
795.383	62.67
795.695	61.96
796.006	61.76
796.318	62.23
796.629	62.83
796.941	63.2
797.252	62.96
797.564	62.69
797.875	62.27
798.186	61.98
798.497	61.33
798.809	61.67
799.12	61.56
799.431	62.03
799.742	62.47
800.053	61.56
800.364	61.86
800.675	61.09
800.986	61.02
801.297	61.26
801.608	61.66
801.918	61.24
802.229	61.34
802.54	61.26
802.851	60.92
803.161	61.1
803.472	61.11
803.782	61.37
804.093	61.12
804.403	61.46
804.714	61.99
805.024	61.5
805.334	61.13
805.645	61.68
805.955	60.7
806.265	59.92
806.575	60.03
806.885	59.59
807.195	60.31
807.505	59.94
807.815	60.02
808.125	59.89
808.435	59.96
808.745	60.2
809.055	60.55
809.365	60.28
809.674	59.78
809.984	59.61
810.294	59.41
810.603	59.74
810.913	60.35
811.222	59.5
811.532	60.37
811.841	59.98
812.151	59.82
812.46	60.3
812.769	60.37
813.079	60.51
813.388	60.28
813.697	60.3
814.006	60.68
814.315	60.46
814.624	60.25
814.933	60.44
815.242	60.2
815.551	59.79
815.86	60.42
816.169	60.96
816.478	60.54
816.786	60.16
817.095	60.43
817.404	59.4
817.712	60.19
818.021	60.46
818.33	61.35
818.638	61.53
818.947	61.46
819.255	61.99
819.563	62.55
819.872	62.69
820.18	62.65
820.488	62.34
820.796	62.3
821.105	62.5
821.413	62.57
821.721	62.42
822.029	62.62
822.337	62.51
822.645	62.44
822.953	62.45
823.26	62.54
823.568	62.37
823.876	62.63
824.184	62.5
824.491	62.34
824.799	62.13
825.107	62.1
825.414	62.17
825.722	62.14
826.029	61.92
826.337	62.05
826.644	61.9
826.951	62.05
827.259	62.01
827.566	62.01
827.873	61.93
828.18	61.94
828.488	61.56
828.795	61.35
829.102	61.19
829.409	61.4
829.716	61.35
830.023	61.59
830.329	61.1
830.636	61.3
830.943	61.23
831.25	61.59
831.557	61.57
831.863	61.23
832.17	61.32
832.476	61.36
832.783	61.02
833.089	60.97
833.396	61.21
833.702	61.76
834.009	61.56
834.315	61.61
834.621	61.86
834.928	62.22
835.234	62.58
835.54	62.15
835.846	61.89
836.152	61.89
836.458	61.57
836.764	61.63
837.07	61.02
837.376	61.72
837.682	61.35
837.988	61.51
838.293	60.92
838.599	60.79
838.905	60.62
839.211	60.35
839.516	60.61
839.822	60.29
840.127	59.42
840.433	58.71
840.738	58.05
841.044	58.88
841.349	59.31
841.654	59.32
841.959	60.67
842.265	60.75
842.57	60.64
842.875	60.78
843.18	60.94
843.485	62.45
843.79	62.01
844.095	62.06
844.4	60.8
844.705	62.45
845.01	60.96
845.315	60.25
845.619	60.52
845.924	60.91
846.229	60.67
846.533	60.6
846.838	61.22
847.142	61.03
847.447	59.22
847.751	57.64
848.056	57.01
848.36	55.8
848.664	54.38
848.969	54.39
849.273	55.4
849.577	55.4
849.881	53.21
850.185	52.27
850.489	53.02
850.794	52.52
851.097	52.92
851.401	54.49
851.705	55.72
852.009	56.51
852.313	56.3
852.617	55.73
852.92	55.72
853.224	56.54
853.528	57.87
853.831	58.12
854.135	58.85
854.438	58.87
854.742	58.88
855.045	58.42
855.349	58.17
855.652	57.31
855.955	58.18
856.259	59.93
856.562	59.99
856.865	59.43
857.168	61.81
857.471	61.89
857.774	61.79
858.077	61.07
858.38	60.83
858.683	60.62
858.986	62.49
859.289	62.69
859.592	62.97
859.894	61.86
860.197	62.97
860.5	62.62
860.802	62.24
861.105	62.26
861.407	63.58
861.71	65.42
862.012	67.38
862.315	65.22
862.617	63.83
862.919	65.33
863.222	65.2
863.524	64.06
863.826	63.58
864.128	62.85
864.43	61.65
864.732	61.91
865.034	60.84
865.336	57.96
865.638	56.18
865.94	55.99
866.242	56.62
866.544	54.53
866.846	56.07
867.147	57.01
867.449	57.73
867.751	58.84
868.052	59.44
868.354	54.69
868.655	56.59
868.957	57.27
869.258	55.62
869.56	55.45
869.861	56.59
870.162	57.77
870.463	58.21
870.765	60.13
871.066	60.21
871.367	61.08
871.668	63.59
871.969	65.14
872.27	62.8
872.571	61.39
872.872	63.74
873.173	63.51
873.473	63.36
873.774	62.73
874.075	61.09
874.376	58.14
874.676	63.33
874.977	63.61
875.277	63.48
875.578	64.07
875.878	64.58
876.179	63.84
876.479	62.57
876.78	62.22
877.08	62.69
877.38	60.89
877.68	61.12
877.981	60.83
878.281	61.48
878.581	65.42
