Data from BU26942_Reflection_00014.txt Node
Date: Mon Nov 18 16:50:56 EST 2019
User: vgr7
Spectrometer: USB2G7710
Scans to average: 3
Trigger mode: 4
Integration Time (sec): 2.000000E-2
Electric dark correction enabled: true
Boxcar width: 10
XAxis mode: Wavelengths
Number of Pixels in Spectrum: 2048
>>>>>Begin Spectral Data<<<<<
177.721	-7.66
178.105	-61.8
178.488	-663.03
178.871	-822.54
179.254	531.95
179.636	-3284.62
180.019	-505.63
180.402	100
180.785	21.07
181.168	38.12
181.55	-17.77
181.933	48.31
182.316	176.92
182.698	146.45
183.081	81.13
183.463	-1207.69
183.846	5.02
184.228	-22.24
184.611	149.06
184.993	-284.62
185.376	87.43
185.758	146.1
186.14	56.52
186.522	-94900
186.904	-279.68
187.287	-359.46
187.669	865.36
188.051	512.1
188.433	504.7
188.815	1062.73
189.197	259.78
189.579	130.26
189.961	73.4
190.342	99.23
190.724	103.63
191.106	128.43
191.488	83.98
191.869	82.68
192.251	63.31
192.633	76.5
193.014	22.42
193.396	20.86
193.777	-18.16
194.159	-5.68
194.54	-21.32
194.922	-2.23
195.303	-28.82
195.684	-63.23
196.065	-18.64
196.447	-8.52
196.828	0.05
197.209	47.88
197.59	79.81
197.971	50.55
198.352	34.86
198.733	23.63
199.114	63.91
199.495	82.43
199.876	60.44
200.257	55.1
200.638	54.77
201.018	59.87
201.399	81.13
201.78	124.3
202.16	95.39
202.541	99.57
202.922	132.94
203.302	113.32
203.683	83.98
204.063	95.42
204.444	133.69
204.824	110.23
205.204	37.9
205.585	44.79
205.965	81.13
206.345	71.2
206.725	128.1
207.106	24.1
207.486	33.47
207.866	-37.56
208.246	17.24
208.626	0.07
209.006	36.44
209.386	-0.22
209.766	-17.16
210.145	-9.57
210.525	-4.49
210.905	41.18
211.285	33.01
211.664	57.26
212.044	56.83
212.424	32.29
212.803	28.36
213.183	46.64
213.562	46.53
213.942	52.75
214.321	54.88
214.701	43.57
215.08	39.32
215.459	26.63
215.838	52.98
216.218	43.72
216.597	41.93
216.976	32.96
217.355	34.11
217.734	32.33
218.113	32.06
218.492	41.1
218.871	32.5
219.25	48.15
219.629	44.5
220.008	34.34
220.387	42.85
220.766	35.39
221.144	42.2
221.523	46.71
221.902	26.36
222.28	-11.55
222.659	14.44
223.037	34.7
223.416	24.6
223.794	10.58
224.173	9.88
224.551	18.47
224.929	18.35
225.308	16.29
225.686	11.54
226.064	12.02
226.442	8.05
226.821	4.77
227.199	3.5
227.577	-3.98
227.955	1.4
228.333	3.93
228.711	3.57
229.089	5.66
229.467	3.46
229.845	2.25
230.222	8.52
230.6	8.78
230.978	6.97
231.356	9.69
231.733	13.41
232.111	14.7
232.488	13.54
232.866	11.98
233.243	12.21
233.621	12.76
233.998	14.48
234.376	13.21
234.753	12.87
235.13	10.95
235.508	13.68
235.885	13.04
236.262	11.34
236.639	11.76
237.016	9.93
237.393	10.2
237.77	11.48
238.147	10.26
238.524	9.54
238.901	9.6
239.278	9.66
239.655	8.49
240.032	7.81
240.409	7.23
240.785	7.63
241.162	7.73
241.539	7.63
241.915	7.26
242.292	6.97
242.668	7.6
243.045	7.3
243.421	7.04
243.798	6.56
244.174	6.68
244.551	6.66
244.927	6.64
245.303	6.57
245.679	6.41
246.056	6.27
246.432	6.11
246.808	5.99
247.184	5.53
247.56	5.21
247.936	5.16
248.312	5.16
248.688	4.99
249.064	5.05
249.44	5.01
249.815	4.88
250.191	5.29
250.567	5.2
250.943	5.34
251.318	5.54
251.694	5.61
252.069	5.31
252.445	5.33
252.82	5.23
253.196	5.25
253.571	5.24
253.947	5.18
254.322	5.37
254.697	5.29
255.073	5.32
255.448	5.16
255.823	5.26
256.198	5.44
256.573	5.58
256.948	5.38
257.323	5.41
257.698	5.29
258.073	5.09
258.448	5
258.823	5.1
259.198	4.89
259.573	4.86
259.948	4.91
260.322	4.85
260.697	4.86
261.072	4.75
261.446	4.76
261.821	4.71
262.195	4.64
262.57	4.71
262.944	4.68
263.319	4.77
263.693	4.78
264.067	4.63
264.442	4.78
264.816	4.78
265.19	4.63
265.564	4.74
265.938	4.62
266.313	4.37
266.687	4.29
267.061	4.37
267.435	4.28
267.809	4.12
268.183	4.08
268.556	4.01
268.93	4.2
269.304	4.26
269.678	4.49
270.051	4.44
270.425	4.46
270.799	4.45
271.172	4.52
271.546	4.41
271.919	4.44
272.293	4.34
272.666	4.4
273.04	4.58
273.413	4.58
273.787	4.63
274.16	4.73
274.533	4.66
274.906	4.54
275.279	4.73
275.653	5.04
276.026	4.96
276.399	5.04
276.772	5.08
277.145	4.94
277.518	5.09
277.891	5.17
278.263	5.08
278.636	5.1
279.009	5.2
279.382	5.36
279.755	5.36
280.127	5.32
280.5	5.41
280.872	5.39
281.245	5.3
281.617	5.32
281.99	5.43
282.362	5.37
282.735	5.16
283.107	5.12
283.479	4.99
283.852	5.01
284.224	5.01
284.596	4.91
284.968	4.93
285.34	4.8
285.713	4.98
286.085	5.03
286.457	5.18
286.829	5.28
287.201	5.3
287.572	5.38
287.944	5.25
288.316	5.14
288.688	5.03
289.06	5.12
289.431	5.17
289.803	5.14
290.175	5.27
290.546	5.6
290.918	5.5
291.289	5.6
291.661	5.71
292.032	5.83
292.403	5.86
292.775	5.89
293.146	5.84
293.517	5.72
293.889	5.71
294.26	5.69
294.631	5.61
295.002	5.49
295.373	5.4
295.744	5.49
296.115	5.64
296.486	5.56
296.857	5.63
297.228	5.61
297.599	5.65
297.97	5.8
298.34	5.69
298.711	5.86
299.082	5.91
299.452	5.89
299.823	5.9
300.194	5.92
300.564	5.94
300.935	6.1
301.305	6.1
301.676	6.16
302.046	6.24
302.416	6.3
302.787	6.34
303.157	6.34
303.527	6.42
303.897	6.32
304.267	6.54
304.637	6.53
305.008	6.68
305.378	6.79
305.748	6.77
306.117	6.84
306.487	6.72
306.857	6.73
307.227	6.86
307.597	6.82
307.967	6.91
308.336	6.94
308.706	6.91
309.076	7.11
309.445	7.09
309.815	7.16
310.184	7.18
310.554	7.32
310.923	7.38
311.293	7.45
311.662	7.48
312.031	7.51
312.401	7.45
312.77	7.6
313.139	7.72
313.508	7.74
313.877	7.88
314.246	8.13
314.616	8.08
314.985	8.1
315.353	8.18
315.722	8.19
316.091	8.27
316.46	8.27
316.829	8.19
317.198	8.35
317.567	8.34
317.935	8.42
318.304	8.55
318.672	8.73
319.041	8.76
319.41	8.84
319.778	8.88
320.147	9.13
320.515	9.07
320.883	8.88
321.252	8.95
321.62	8.82
321.988	8.82
322.357	8.94
322.725	8.9
323.093	8.95
323.461	9.11
323.829	9.22
324.197	9.23
324.565	9.18
324.933	9.14
325.301	9.29
325.669	9.34
326.037	9.34
326.405	9.51
326.772	9.68
327.14	9.92
327.508	10.15
327.875	10.08
328.243	10.03
328.61	10.14
328.978	10.14
329.346	10.29
329.713	10.38
330.08	10.42
330.448	10.46
330.815	10.51
331.182	10.43
331.55	10.51
331.917	10.78
332.284	10.9
332.651	10.99
333.018	10.95
333.385	10.96
333.752	10.91
334.119	10.82
334.486	10.8
334.853	10.71
335.22	10.6
335.587	10.71
335.954	10.79
336.32	10.75
336.687	10.74
337.054	10.83
337.42	10.79
337.787	10.86
338.153	10.95
338.52	11.02
338.886	11.04
339.253	10.99
339.619	10.85
339.986	10.99
340.352	11.08
340.718	11.1
341.084	11.16
341.451	11.24
341.817	11.28
342.183	11.29
342.549	11.28
342.915	11.24
343.281	11.19
343.647	11.26
344.013	11.33
344.379	11.35
344.745	11.36
345.11	11.36
345.476	11.37
345.842	11.37
346.208	11.38
346.573	11.5
346.939	11.57
347.304	11.54
347.67	11.48
348.035	11.45
348.401	11.49
348.766	11.57
349.132	11.65
349.497	11.6
349.862	11.67
350.228	11.79
350.593	11.77
350.958	11.81
351.323	11.83
351.688	11.84
352.053	11.86
352.418	11.9
352.783	11.98
353.148	11.86
353.513	11.87
353.878	11.8
354.243	11.78
354.608	11.69
354.972	11.75
355.337	11.81
355.702	11.82
356.066	11.88
356.431	11.82
356.795	11.7
357.16	11.71
357.524	11.56
357.889	11.51
358.253	11.63
358.618	11.66
358.982	11.54
359.346	11.46
359.71	11.43
360.075	11.36
360.439	11.27
360.803	11.31
361.167	11.22
361.531	11.26
361.895	11.22
362.259	11.27
362.623	11.19
362.987	11.11
363.351	11.12
363.714	11.13
364.078	11.04
364.442	11
364.806	10.97
365.169	11
365.533	10.96
365.896	10.82
366.26	10.77
366.623	10.79
366.987	10.8
367.35	10.79
367.714	10.77
368.077	10.74
368.44	10.74
368.803	10.76
369.167	10.68
369.53	10.54
369.893	10.48
370.256	10.47
370.619	10.37
370.982	10.23
371.345	10
371.708	9.96
372.071	9.93
372.434	9.86
372.797	9.81
373.159	9.68
373.522	9.65
373.885	9.59
374.247	9.48
374.61	9.42
374.973	9.34
375.335	9.26
375.698	9.2
376.06	9
376.423	8.86
376.785	8.8
377.147	8.82
377.51	8.68
377.872	8.66
378.234	8.63
378.596	8.59
378.958	8.54
379.321	8.52
379.683	8.47
380.045	8.36
380.407	8.28
380.769	8.26
381.13	8.23
381.492	8.16
381.854	8.09
382.216	7.99
382.578	7.97
382.939	7.85
383.301	7.79
383.663	7.76
384.024	7.77
384.386	7.73
384.747	7.65
385.109	7.63
385.47	7.55
385.832	7.51
386.193	7.48
386.554	7.45
386.916	7.38
387.277	7.33
387.638	7.33
387.999	7.26
388.36	7.24
388.721	7.24
389.082	7.18
389.443	7.15
389.804	7.14
390.165	7.06
390.526	7.05
390.887	6.98
391.248	6.99
391.609	6.92
391.969	6.88
392.33	6.86
392.691	6.84
393.051	6.78
393.412	6.74
393.772	6.7
394.133	6.65
394.493	6.62
394.854	6.57
395.214	6.51
395.574	6.52
395.935	6.46
396.295	6.41
396.655	6.38
397.015	6.35
397.376	6.29
397.736	6.27
398.096	6.25
398.456	6.23
398.816	6.19
399.176	6.16
399.535	6.09
399.895	6
400.255	5.94
400.615	5.93
400.975	5.89
401.334	5.8
401.694	5.76
402.054	5.7
402.413	5.68
402.773	5.63
403.132	5.56
403.492	5.51
403.851	5.46
404.211	5.41
404.57	5.41
404.929	5.4
405.288	5.36
405.648	5.29
406.007	5.28
406.366	5.26
406.725	5.25
407.084	5.25
407.443	5.28
407.802	5.29
408.161	5.26
408.52	5.23
408.879	5.24
409.238	5.24
409.596	5.23
409.955	5.22
410.314	5.22
410.673	5.19
411.031	5.19
411.39	5.15
411.748	5.11
412.107	5.09
412.465	5.03
412.824	5.01
413.182	5.03
413.54	5.01
413.899	4.99
414.257	4.98
414.615	4.94
414.974	4.88
415.332	4.83
415.69	4.8
416.048	4.79
416.406	4.8
416.764	4.77
417.122	4.76
417.48	4.73
417.838	4.72
418.195	4.7
418.553	4.68
418.911	4.66
419.269	4.67
419.626	4.63
419.984	4.62
420.342	4.62
420.699	4.59
421.057	4.58
421.414	4.56
421.772	4.53
422.129	4.53
422.486	4.53
422.844	4.51
423.201	4.49
423.558	4.47
423.915	4.44
424.273	4.43
424.63	4.4
424.987	4.39
425.344	4.37
425.701	4.38
426.058	4.36
426.415	4.33
426.772	4.32
427.128	4.31
427.485	4.32
427.842	4.3
428.199	4.3
428.555	4.29
428.912	4.28
429.269	4.28
429.625	4.26
429.982	4.22
430.338	4.24
430.695	4.24
431.051	4.26
431.407	4.25
431.764	4.24
432.12	4.25
432.476	4.27
432.832	4.26
433.189	4.24
433.545	4.27
433.901	4.29
434.257	4.28
434.613	4.3
434.969	4.28
435.325	4.29
435.681	4.29
436.036	4.3
436.392	4.29
436.748	4.28
437.104	4.3
437.459	4.3
437.815	4.3
438.171	4.31
438.526	4.31
438.882	4.31
439.237	4.31
439.593	4.32
439.948	4.31
440.304	4.31
440.659	4.32
441.014	4.32
441.369	4.3
441.725	4.3
442.08	4.28
442.435	4.29
442.79	4.27
443.145	4.25
443.5	4.24
443.855	4.24
444.21	4.24
444.565	4.23
444.92	4.23
445.275	4.22
445.629	4.2
445.984	4.18
446.339	4.18
446.693	4.15
447.048	4.13
447.403	4.12
447.757	4.13
448.112	4.1
448.466	4.09
448.82	4.08
449.175	4.08
449.529	4.05
449.883	4.04
450.238	4.05
450.592	4.05
450.946	4.02
451.3	4.02
451.654	4.02
452.008	4.02
452.362	4.01
452.716	4.01
453.07	4.01
453.424	4.02
453.778	4
454.132	4.02
454.486	4.03
454.839	4.02
455.193	4.01
455.547	4.03
455.9	4.02
456.254	4.04
456.607	4.02
456.961	4.03
457.314	4.02
457.668	4.03
458.021	4
458.375	4.03
458.728	4.03
459.081	4.03
459.434	4.01
459.787	4.01
460.141	4.01
460.494	4.02
460.847	4.02
461.2	4.02
461.553	4.01
461.906	4.01
462.259	4.02
462.611	4.05
462.964	4.06
463.317	4.07
463.67	4.07
464.022	4.1
464.375	4.11
464.728	4.14
465.08	4.14
465.433	4.17
465.785	4.17
466.138	4.17
466.49	4.19
466.843	4.22
467.195	4.25
467.547	4.26
467.899	4.28
468.252	4.29
468.604	4.33
468.956	4.35
469.308	4.35
469.66	4.36
470.012	4.36
470.364	4.37
470.716	4.4
471.068	4.41
471.42	4.42
471.772	4.44
472.123	4.45
472.475	4.45
472.827	4.46
473.178	4.47
473.53	4.48
473.882	4.48
474.233	4.5
474.585	4.49
474.936	4.48
475.288	4.48
475.639	4.5
475.99	4.47
476.342	4.48
476.693	4.49
477.044	4.48
477.395	4.48
477.746	4.46
478.097	4.42
478.448	4.42
478.8	4.42
479.15	4.39
479.501	4.36
479.852	4.36
480.203	4.36
480.554	4.35
480.905	4.33
481.255	4.32
481.606	4.32
481.957	4.32
482.307	4.32
482.658	4.31
483.009	4.29
483.359	4.29
483.709	4.3
484.06	4.3
484.41	4.29
484.761	4.29
485.111	4.29
485.461	4.29
485.811	4.29
486.162	4.29
486.512	4.29
486.862	4.3
487.212	4.29
487.562	4.28
487.912	4.29
488.262	4.29
488.612	4.29
488.961	4.29
489.311	4.29
489.661	4.29
490.011	4.31
490.36	4.31
490.71	4.33
491.06	4.31
491.409	4.32
491.759	4.33
492.108	4.35
492.458	4.36
492.807	4.36
493.157	4.39
493.506	4.4
493.855	4.41
494.204	4.43
494.554	4.46
494.903	4.48
495.252	4.51
495.601	4.56
495.95	4.59
496.299	4.63
496.648	4.68
496.997	4.73
497.346	4.78
497.695	4.85
498.043	4.88
498.392	4.94
498.741	5
499.09	5.07
499.438	5.13
499.787	5.19
500.135	5.26
500.484	5.31
500.832	5.38
501.181	5.46
501.529	5.53
501.878	5.65
502.226	5.74
502.574	5.87
502.923	5.93
503.271	6.02
503.619	6.15
503.967	6.24
504.315	6.32
504.663	6.41
505.011	6.51
505.359	6.62
505.707	6.74
506.055	6.85
506.403	6.97
506.751	7.09
507.098	7.22
507.446	7.37
507.794	7.48
508.141	7.63
508.489	7.78
508.837	7.92
509.184	8.06
509.531	8.2
509.879	8.32
510.226	8.47
510.574	8.61
510.921	8.75
511.268	8.9
511.616	9.06
511.963	9.22
512.31	9.4
512.657	9.58
513.004	9.74
513.351	9.9
513.698	10.07
514.045	10.24
514.392	10.41
514.739	10.59
515.086	10.78
515.432	10.94
515.779	11.11
516.126	11.29
516.473	11.44
516.819	11.6
517.166	11.75
517.512	11.87
517.859	12.02
518.205	12.15
518.552	12.28
518.898	12.42
519.245	12.54
519.591	12.66
519.937	12.77
520.283	12.92
520.629	13.1
520.976	13.24
521.322	13.42
521.668	13.6
522.014	13.77
522.36	13.94
522.706	14.13
523.052	14.32
523.398	14.51
523.743	14.72
524.089	14.93
524.435	15.13
524.781	15.34
525.126	15.54
525.472	15.71
525.817	15.85
526.163	15.99
526.509	16.13
526.854	16.3
527.199	16.45
527.545	16.58
527.89	16.7
528.235	16.85
528.581	16.97
528.926	17.09
529.271	17.22
529.616	17.36
529.961	17.51
530.306	17.67
530.651	17.83
530.996	17.99
531.341	18.16
531.686	18.34
532.031	18.53
532.376	18.7
532.721	18.9
533.065	19.1
533.41	19.32
533.755	19.53
534.099	19.72
534.444	19.92
534.788	20.11
535.133	20.32
535.477	20.54
535.822	20.75
536.166	21.03
536.51	21.3
536.855	21.57
537.199	21.84
537.543	22.13
537.887	22.44
538.231	22.73
538.576	23.05
538.92	23.33
539.264	23.64
539.608	23.92
539.951	24.18
540.295	24.42
540.639	24.68
540.983	24.92
541.327	25.15
541.671	25.39
542.014	25.63
542.358	25.88
542.701	26.08
543.045	26.3
543.389	26.55
543.732	26.81
544.075	27.04
544.419	27.32
544.762	27.57
545.105	27.84
545.449	28.14
545.792	28.42
546.135	28.73
546.478	29.02
546.821	29.32
547.165	29.66
547.508	30.02
547.851	30.35
548.194	30.7
548.536	31.03
548.879	31.38
549.222	31.72
549.565	32.01
549.908	32.37
550.25	32.75
550.593	33.06
550.936	33.33
551.278	33.69
551.621	33.96
551.963	34.27
552.306	34.55
552.648	34.84
552.991	35.12
553.333	35.43
553.675	35.72
554.017	36
554.36	36.2
554.702	36.45
555.044	36.69
555.386	36.86
555.728	37.13
556.07	37.38
556.412	37.62
556.754	37.91
557.096	38.24
557.438	38.47
557.78	38.74
558.121	39.01
558.463	39.23
558.805	39.5
559.147	39.73
559.488	39.95
559.83	40.15
560.171	40.43
560.513	40.62
560.854	40.88
561.196	41.18
561.537	41.44
561.878	41.68
562.22	41.91
562.561	42.16
562.902	42.36
563.243	42.61
563.584	42.8
563.925	42.98
564.266	43.08
564.607	43.29
564.948	43.47
565.289	43.65
565.63	43.9
565.971	44.09
566.312	44.33
566.653	44.48
566.993	44.68
567.334	44.81
567.675	44.94
568.015	45.04
568.356	45.14
568.696	45.3
569.037	45.46
569.377	45.64
569.718	45.82
570.058	45.94
570.398	46.03
570.739	46.18
571.079	46.33
571.419	46.48
571.759	46.55
572.099	46.7
572.439	46.8
572.779	46.87
573.119	46.97
573.459	47
573.799	47.12
574.139	47.23
574.479	47.34
574.819	47.5
575.158	47.57
575.498	47.71
575.838	47.83
576.177	47.92
576.517	47.97
576.856	48.09
577.196	48.28
577.535	48.47
577.875	48.57
578.214	48.67
578.553	48.85
578.893	49.02
579.232	49.1
579.571	49.19
579.91	49.33
580.25	49.47
580.589	49.61
580.928	49.78
581.267	49.84
581.606	49.9
581.945	49.91
582.283	50.06
582.622	50.12
582.961	50.25
583.3	50.36
583.639	50.39
583.977	50.4
584.316	50.5
584.654	50.62
584.993	50.72
585.332	50.78
585.67	50.83
586.008	50.92
586.347	50.97
586.685	51.11
587.024	51.1
587.362	51.2
587.7	51.29
588.038	51.26
588.376	51.31
588.715	51.4
589.053	51.54
589.391	51.58
589.729	51.6
590.067	51.69
590.404	51.65
590.742	51.82
591.08	51.94
591.418	51.91
591.756	51.82
592.093	51.85
592.431	51.93
592.769	51.88
593.106	51.87
593.444	51.92
593.781	51.94
594.119	52.03
594.456	52.09
594.793	52.1
595.131	52.15
595.468	52.2
595.805	52.23
596.143	52.31
596.48	52.39
596.817	52.45
597.154	52.46
597.491	52.55
597.828	52.54
598.165	52.6
598.502	52.61
598.839	52.71
599.176	52.7
599.512	52.78
599.849	52.89
600.186	52.95
600.523	53.03
600.859	53.1
601.196	53.15
601.532	53.18
601.869	53.3
602.205	53.31
602.542	53.36
602.878	53.34
603.215	53.35
603.551	53.36
603.887	53.42
604.223	53.45
604.56	53.62
604.896	53.62
605.232	53.61
605.568	53.71
605.904	53.69
606.24	53.78
606.576	53.75
606.912	53.74
607.248	53.8
607.583	53.82
607.919	53.84
608.255	53.85
608.591	53.84
608.926	53.87
609.262	54.02
609.597	54.06
609.933	54.17
610.268	54.23
610.604	54.29
610.939	54.34
611.275	54.32
611.61	54.27
611.945	54.36
612.281	54.39
612.616	54.39
612.951	54.52
613.286	54.59
613.621	54.64
613.956	54.74
614.291	54.77
614.626	54.78
614.961	54.82
615.296	54.88
615.631	54.89
615.966	54.91
616.3	54.88
616.635	54.95
616.97	54.95
617.304	54.91
617.639	55.06
617.973	54.95
618.308	54.95
618.642	54.92
618.977	54.95
619.311	54.98
619.646	55.08
619.98	54.97
620.314	54.99
620.648	55.02
620.983	55.08
621.317	55.14
621.651	55.17
621.985	55.21
622.319	55.21
622.653	55.27
622.987	55.3
623.321	55.32
623.655	55.34
623.988	55.38
624.322	55.45
624.656	55.38
624.99	55.43
625.323	55.5
625.657	55.56
625.99	55.56
626.324	55.66
626.657	55.65
626.991	55.77
627.324	55.76
627.658	55.78
627.991	55.7
628.324	55.72
628.657	55.75
628.991	55.78
629.324	55.83
629.657	55.74
629.99	55.73
630.323	55.78
630.656	55.77
630.989	55.77
631.322	55.72
631.655	55.69
631.987	55.84
632.32	55.81
632.653	55.8
632.986	55.83
633.318	55.7
633.651	55.63
633.984	55.64
634.316	55.75
634.649	55.84
634.981	55.95
635.313	55.91
635.646	55.89
635.978	55.9
636.31	55.91
636.643	56.01
636.975	56.01
637.307	55.95
637.639	56.02
637.971	56.08
638.303	56.13
638.635	56.15
638.967	56.09
639.299	56.22
639.631	56.22
639.963	56.25
640.295	56.41
640.626	56.45
640.958	56.47
641.29	56.43
641.621	56.42
641.953	56.44
642.285	56.53
642.616	56.49
642.948	56.48
643.279	56.5
643.61	56.55
643.942	56.56
644.273	56.61
644.604	56.64
644.936	56.65
645.267	56.68
645.598	56.77
645.929	56.82
646.26	56.79
646.591	56.84
646.922	56.78
647.253	56.79
647.584	56.8
647.915	56.72
648.245	56.64
648.576	56.67
648.907	56.77
649.238	56.71
649.568	56.79
649.899	56.83
650.229	56.8
650.56	56.87
650.89	56.86
651.221	57.02
651.551	56.93
651.882	56.92
652.212	56.82
652.542	56.85
652.872	56.79
653.203	56.79
653.533	56.84
653.863	57.03
654.193	56.94
654.523	56.95
654.853	57.09
655.183	57.21
655.513	57.13
655.843	57.09
656.172	57.18
656.502	57.3
656.832	57.31
657.162	57.44
657.491	57.49
657.821	57.44
658.15	57.4
658.48	57.48
658.809	57.53
659.139	57.67
659.468	57.62
659.798	57.67
660.127	57.65
660.456	57.58
660.785	57.47
661.115	57.72
661.444	57.83
661.773	57.86
662.102	57.9
662.431	58.01
662.76	58.01
663.089	58.05
663.418	58.02
663.747	58.15
664.076	58.03
664.404	57.87
664.733	57.99
665.062	57.85
665.39	57.72
665.719	57.71
666.048	57.65
666.376	57.61
666.705	57.6
667.033	57.64
667.362	57.77
667.69	57.85
668.018	57.59
668.347	57.53
668.675	57.46
669.003	57.37
669.331	57.39
669.659	57.39
669.987	57.36
670.315	57.39
670.643	57.33
670.971	57.57
671.299	57.59
671.627	57.72
671.955	57.81
672.283	57.89
672.61	57.87
672.938	57.96
673.266	58.05
673.593	58.22
673.921	58.13
674.249	58.03
674.576	57.86
674.904	57.9
675.231	57.91
675.558	57.96
675.886	58.13
676.213	58.11
676.54	58.13
676.867	58.11
677.195	58.09
677.522	58.17
677.849	58.01
678.176	58.01
678.503	58.05
678.83	58.02
679.157	58.14
679.484	58.07
679.81	58.02
680.137	58.04
680.464	57.94
680.791	58.05
681.117	58.01
681.444	58.17
681.771	58.22
682.097	58.12
682.424	58.08
682.75	57.95
683.077	57.93
683.403	57.91
683.729	58.04
684.056	58.02
684.382	57.91
684.708	57.9
685.034	57.85
685.36	57.81
685.686	57.88
686.012	57.87
686.339	57.82
686.664	57.71
686.99	57.7
687.316	57.75
687.642	57.73
687.968	57.79
688.294	57.77
688.619	57.79
688.945	57.78
689.271	57.75
689.596	57.8
689.922	57.87
690.247	57.8
690.573	57.76
690.898	57.68
691.224	57.78
691.549	57.79
691.874	57.95
692.2	57.86
692.525	57.83
692.85	57.73
693.175	57.92
693.5	58.26
693.825	58.13
694.15	58.02
694.475	58.1
694.8	58.19
695.125	58.22
695.45	58.17
695.775	58.2
696.099	58.35
696.424	58.28
696.749	58.18
697.073	58.29
697.398	58.17
697.723	58.3
698.047	58.2
698.372	58.28
698.696	58.25
699.02	58.34
699.345	58.32
699.669	58.3
699.993	58.21
700.318	58.06
700.642	58.07
700.966	58.13
701.29	58.05
701.614	58.02
701.938	57.87
702.262	57.93
702.586	57.91
702.91	57.84
703.234	57.97
703.557	57.95
703.881	57.83
704.205	57.83
704.529	57.79
704.852	57.83
705.176	57.83
705.499	57.88
705.823	57.78
706.146	57.71
706.47	57.68
706.793	57.81
707.117	57.84
707.44	58.06
707.763	57.92
708.086	58.02
708.409	57.86
708.733	57.99
709.056	58.06
709.379	58.35
709.702	58.21
710.025	58.14
710.348	58.38
710.671	58.36
710.993	58.26
711.316	58.36
711.639	58.36
711.962	58.42
712.284	58.35
712.607	58.13
712.93	58.25
713.252	58.32
713.575	58.41
713.897	58.53
714.22	58.47
714.542	58.58
714.864	58.43
715.187	58.37
715.509	58.2
715.831	57.94
716.153	57.89
716.475	58
716.798	57.96
717.12	57.75
717.442	57.85
717.764	58.21
718.085	58.08
718.407	58.12
718.729	57.92
719.051	57.95
719.373	57.98
719.695	57.96
720.016	57.88
720.338	57.89
720.659	57.7
720.981	57.64
721.302	57.84
721.624	57.82
721.945	58.03
722.267	58.19
722.588	58.52
722.909	58.19
723.231	58.13
723.552	58.31
723.873	58.21
724.194	58
724.515	57.7
724.836	57.62
725.157	57.59
725.478	57.37
725.799	57.51
726.12	57.73
726.441	57.65
726.762	57.86
727.083	57.67
727.403	57.77
727.724	57.9
728.045	57.9
728.365	57.99
728.686	58.26
729.006	58.18
729.327	57.96
729.647	58.2
729.967	58.06
730.288	58.18
730.608	57.99
730.928	58.24
731.249	58.34
731.569	58.46
731.889	58.44
732.209	58.89
732.529	58.67
732.849	58.7
733.169	58.83
733.489	58.84
733.809	58.83
734.129	58.8
734.448	58.6
734.768	58.3
735.088	58.34
735.408	58.31
735.727	58.79
736.047	59.06
736.366	59.12
736.686	59.37
737.005	59.28
737.325	59.45
737.644	59.41
737.963	59.28
738.283	59.25
738.602	59.4
738.921	59.28
739.24	59.54
739.56	59.45
739.879	59.5
740.198	59.45
740.517	59.6
740.836	59.56
741.155	59.51
741.473	59.87
741.792	59.98
742.111	60.04
742.43	59.52
742.748	59.41
743.067	59.49
743.386	59.21
743.704	59.17
744.023	59.33
744.341	59.56
744.66	59.8
744.978	59.6
745.297	59.4
745.615	59.39
745.933	59.39
746.252	59.59
746.57	59.41
746.888	59.44
747.206	59.49
747.524	59.6
747.842	59.86
748.16	59.98
748.478	60
748.796	59.55
749.114	59.72
749.432	59.85
749.749	59.5
750.067	59.64
750.385	59.32
750.703	59.44
751.02	59.53
751.338	59.4
751.655	59.97
751.973	60.56
752.29	60.22
752.608	60.02
752.925	59.85
753.242	60.08
753.56	59.76
753.877	59.71
754.194	59.68
754.511	59.83
754.828	59.48
755.145	59.5
755.462	59.6
755.779	59.94
756.096	59.93
756.413	60.2
756.73	60.41
757.047	60.74
757.364	60.65
757.68	60.4
757.997	60.3
758.314	60.18
758.63	59.86
758.947	60.35
759.264	60.36
759.58	60.44
759.896	60.39
760.213	60.64
760.529	60.73
760.846	60.63
761.162	60.45
761.478	60.47
761.794	60.41
762.11	60.43
762.426	60.11
762.743	60.16
763.059	60.03
763.375	59.97
763.69	60.11
764.006	60.12
764.322	60.13
764.638	60.14
764.954	59.94
765.27	59.93
765.585	59.81
765.901	59.94
766.216	60.12
766.532	60.34
766.848	60.47
767.163	60.58
767.478	60.67
767.794	60.66
768.109	60.63
768.424	60.69
768.74	60.97
769.055	61.21
769.37	61.16
769.685	61.47
770	61.55
770.315	61.05
770.63	61.11
770.945	60.95
771.26	61.36
771.575	61.61
771.89	61.74
772.205	61.7
772.52	61.36
772.834	61.3
773.149	61.09
773.464	60.97
773.778	60.62
774.093	60.6
774.407	60.68
774.722	60.82
775.036	60.77
775.351	60.5
775.665	60.36
775.979	59.59
776.293	59.44
776.608	59.46
776.922	59.59
777.236	59.86
777.55	60.04
777.864	59.49
778.178	59.31
778.492	59.25
778.806	58.95
779.12	58.94
779.434	59.16
779.747	59.72
780.061	60.2
780.375	60.26
780.689	60.27
781.002	60.27
781.316	60.57
781.629	60.81
781.943	60.92
782.256	60.69
782.57	61.65
782.883	61.52
783.196	61.44
783.51	61.74
783.823	61.84
784.136	62.27
784.449	62.64
784.762	63.18
785.075	63.32
785.388	63.37
785.701	63.73
786.014	63.08
786.327	62.73
786.64	62.76
786.953	63.07
787.266	63.15
787.578	63.51
787.891	62.89
788.204	62.55
788.516	61.92
788.829	62.02
789.141	62.54
789.454	63.11
789.766	62.99
790.079	63.43
790.391	62.97
790.703	63.15
791.016	62.82
791.328	62.43
791.64	62.06
791.952	61.97
792.264	62.04
792.576	62.35
792.888	62.16
793.2	61.99
793.512	61.97
793.824	61.94
794.136	61.43
794.448	61.82
794.76	62
795.071	62.61
795.383	62.28
795.695	61.77
796.006	61.45
796.318	61.67
796.629	61.11
796.941	61.38
797.252	61.19
797.564	61.71
797.875	62.15
798.186	62.08
798.497	62.45
798.809	62.21
799.12	62.22
799.431	62.01
799.742	61.34
800.053	60.92
800.364	60.84
800.675	60.79
800.986	61.31
801.297	61.26
801.608	61.13
801.918	62.11
802.229	61.67
802.54	61.5
802.851	61.66
803.161	61.39
803.472	61.1
803.782	60.83
804.093	60.38
804.403	59.59
804.714	60.45
805.024	60.69
805.334	60.63
805.645	60.84
805.955	61.29
806.265	61.41
806.575	61.49
806.885	61.61
807.195	62.24
807.505	60.91
807.815	61.62
808.125	61.69
808.435	60.98
808.745	61.11
809.055	61.1
809.365	60.74
809.674	60.86
809.984	60.87
810.294	61.42
810.603	62
810.913	62.95
811.222	62.14
811.532	61.82
811.841	62.11
812.151	61.3
812.46	60.68
812.769	61.18
813.079	61.62
813.388	62.23
813.697	62.49
814.006	62.93
814.315	62.2
814.624	62.31
814.933	62.67
815.242	63.45
815.551	63.99
815.86	63.98
816.169	64.55
816.478	65.35
816.786	65.79
817.095	65.22
817.404	65.05
817.712	64.92
818.021	64.8
818.33	64.87
818.638	64.98
818.947	64.74
819.255	64.47
819.563	63.61
819.872	63.02
820.18	62.67
820.488	61.99
820.796	62.33
821.105	62.36
821.413	62.35
821.721	61.85
822.029	61.83
822.337	61.96
822.645	61.71
822.953	61.5
823.26	61.32
823.568	61.16
823.876	61.08
824.184	61.14
824.491	61.33
824.799	61.42
825.107	61.69
825.414	61.82
825.722	61.76
826.029	61.99
826.337	62.02
826.644	61.98
826.951	62.44
827.259	62.3
827.566	62.21
827.873	62.19
828.18	62.48
828.488	62.48
828.795	62.49
829.102	62.8
829.409	62.88
829.716	62.81
830.023	63.35
830.329	63.53
830.636	63.83
830.943	63.52
831.25	63.43
831.557	62.6
831.863	62.47
832.17	62.45
832.476	62.26
832.783	62.86
833.089	62.91
833.396	63.12
833.702	63.53
834.009	63.64
834.315	63.74
834.621	64.17
834.928	64.34
835.234	64.2
835.54	64.05
835.846	63.92
836.152	64.18
836.458	64.11
836.764	63.82
837.07	63.19
837.376	63.25
837.682	63.28
837.988	64.44
838.293	65.08
838.599	65.5
838.905	65.92
839.211	64.95
839.516	64.76
839.822	64.26
840.127	63.73
840.433	63.46
840.738	63.07
841.044	62.64
841.349	62.21
841.654	62.5
841.959	62.83
842.265	63.25
842.57	62.94
842.875	63.4
843.18	64.27
843.485	65.18
843.79	65.29
844.095	66.24
844.4	65.06
844.705	63.1
845.01	62.7
845.315	64.14
845.619	65.69
845.924	66.26
846.229	66.08
846.533	65.38
846.838	66.65
847.142	66.34
847.447	65.6
847.751	65.27
848.056	63.27
848.36	62.49
848.664	62.87
848.969	61.77
849.273	59.7
849.577	60.26
849.881	58.72
850.185	61.34
850.489	59.69
850.794	58.69
851.097	59.45
851.401	59.25
851.705	55.94
852.009	56.95
852.313	55.87
852.617	59.01
852.92	59.21
853.224	58.35
853.528	60.36
853.831	61.01
854.135	64.49
854.438	65.84
854.742	66.03
855.045	66.15
855.349	65.73
855.652	67.57
855.955	66.01
856.259	67.34
856.562	65.55
856.865	66.26
857.168	67.95
857.471	69.06
857.774	68.26
858.077	69.24
858.38	68.99
858.683	69.99
858.986	68.31
859.289	68.83
859.592	68.12
859.894	68.57
860.197	68
860.5	65.28
860.802	66.61
861.105	67.9
861.407	67.04
861.71	70.44
862.012	70.43
862.315	70.27
862.617	68.52
862.919	68.72
863.222	67.54
863.524	65.25
863.826	65.16
864.128	65.9
864.43	64.9
864.732	64.79
865.034	66.78
865.336	64.68
865.638	63.9
865.94	66.46
866.242	65.61
866.544	66.91
866.846	66.66
867.147	65.72
867.449	65.64
867.751	68.02
868.052	67.49
868.354	67.77
868.655	69.81
868.957	70.55
869.258	70.51
869.56	73.58
869.861	75.24
870.162	75.67
870.463	76.81
870.765	77.83
871.066	78.15
871.367	74.58
871.668	78.01
871.969	81.17
872.27	80.21
872.571	81.05
872.872	78.29
873.173	79.94
873.473	80.41
873.774	78.58
874.075	76.95
874.376	75.01
874.676	72.98
874.977	70.12
875.277	72.95
875.578	71.4
875.878	69.11
876.179	69.86
876.479	69.23
876.78	68.32
877.08	69.88
877.38	67.93
877.68	70.54
877.981	68.98
878.281	65.88
878.581	64.77
