Data from BU26844_Reflection_00011.txt Node
Date: Mon Nov 18 16:36:23 EST 2019
User: vgr7
Spectrometer: USB2G7710
Scans to average: 3
Trigger mode: 4
Integration Time (sec): 2.000000E-2
Electric dark correction enabled: true
Boxcar width: 10
XAxis mode: Wavelengths
Number of Pixels in Spectrum: 2048
>>>>>Begin Spectral Data<<<<<
177.721	-1034.56
178.105	-15566.67
178.488	270.47
178.871	6683.33
179.254	24.18
179.636	464.58
180.019	120.23
180.402	30.56
180.785	114.04
181.168	111.42
181.55	56.26
181.933	80.07
182.316	59.45
182.698	33.05
183.081	8.26
183.463	-63.76
183.846	-85.7
184.228	-52.33
184.611	-82.51
184.993	-374.93
185.376	-4051.52
185.758	232.99
186.14	114.84
186.522	91.13
186.904	294.72
187.287	-88.76
187.669	21.08
188.051	-86.62
188.433	26.2
188.815	46.33
189.197	13.74
189.579	-13.16
189.961	-47.82
190.342	-68.13
190.724	-55.82
191.106	-73.08
191.488	-86.02
191.869	-84.32
192.251	-85.76
192.633	-95.04
193.014	-107.43
193.396	-98.27
193.777	-81.8
194.159	-76.75
194.54	-56.13
194.922	-56.59
195.303	-72.47
195.684	-78.06
196.065	-66.77
196.447	-79.52
196.828	-101.9
197.209	-81.21
197.59	-72.2
197.971	-60.48
198.352	-51.47
198.733	-87.9
199.114	-81.79
199.495	-71.61
199.876	-57.47
200.257	-64.46
200.638	-62.1
201.018	-76.67
201.399	-96.7
201.78	-109.98
202.16	-208.2
202.541	-260.46
202.922	-311.63
203.302	-343.8
203.683	-254.14
204.063	-496.07
204.444	-616.2
204.824	-480.25
205.204	-480.68
205.585	-744.71
205.965	-454.34
206.345	-435.9
206.725	-458.85
207.106	-653.58
207.486	-905.58
207.866	-1478.37
208.246	-1348.64
208.626	-1977.88
209.006	-424.9
209.386	-473.66
209.766	-461.27
210.145	-211.98
210.525	-238.28
210.905	-193.79
211.285	-127.53
211.664	-106.88
212.044	-79.37
212.424	-77.17
212.803	-89.17
213.183	-83.22
213.562	-79.96
213.942	-76.65
214.321	-63.67
214.701	-62.31
215.08	-66.76
215.459	-52.43
215.838	-40.86
216.218	-43.91
216.597	-37.24
216.976	-54.89
217.355	-51.58
217.734	-60.82
218.113	-59.61
218.492	-67.3
218.871	-78.18
219.25	-73.58
219.629	-77.24
220.008	-74.83
220.387	-84.56
220.766	-79.95
221.144	-77.36
221.523	-73.38
221.902	-80.05
222.28	-88.87
222.659	-74.84
223.037	-50.4
223.416	-68.17
223.794	-80.35
224.173	-66.33
224.551	-60.89
224.929	-48.28
225.308	-35.55
225.686	-31.63
226.064	-28.46
226.442	-16.98
226.821	-9.06
227.199	-10.69
227.577	-14.18
227.955	-14.15
228.333	-13.35
228.711	-10.73
229.089	-10.17
229.467	-10.73
229.845	-12.39
230.222	-9.72
230.6	-10.61
230.978	-9.48
231.356	-5.55
231.733	-7.24
232.111	-5.63
232.488	-6.48
232.866	-5.97
233.243	-5.82
233.621	-4.95
233.998	-2.69
234.376	-4.58
234.753	-6.61
235.13	-5.44
235.508	-2.13
235.885	-1.63
236.262	-1.95
236.639	-2.88
237.016	-2.33
237.393	-1.39
237.77	-0.48
238.147	-0.25
238.524	0.45
238.901	0.55
239.278	0.24
239.655	0.78
240.032	1.41
240.409	1.31
240.785	1.25
241.162	1.56
241.539	2.08
241.915	1.73
242.292	1.61
242.668	1.83
243.045	1.88
243.421	1.66
243.798	1.92
244.174	2.1
244.551	2.44
244.927	2.58
245.303	2.48
245.679	2.57
246.056	2.54
246.432	2.41
246.808	2.58
247.184	2.31
247.56	2.3
247.936	2.15
248.312	2.43
248.688	2.44
249.064	2.27
249.44	2.06
249.815	2.07
250.191	1.95
250.567	1.97
250.943	1.72
251.318	1.67
251.694	1.57
252.069	1.23
252.445	1.11
252.82	0.85
253.196	0.9
253.571	0.89
253.947	1.2
254.322	1.38
254.697	1.01
255.073	1.06
255.448	1.02
255.823	1.08
256.198	1.24
256.573	1.23
256.948	1.48
257.323	1.63
257.698	1.74
258.073	2
258.448	2.09
258.823	2.29
259.198	2.15
259.573	2.19
259.948	2.48
260.322	2.52
260.697	2.61
261.072	2.57
261.446	2.72
261.821	2.58
262.195	2.63
262.57	2.62
262.944	2.72
263.319	2.83
263.693	2.7
264.067	2.77
264.442	3.12
264.816	3.11
265.19	3
265.564	2.93
265.938	2.79
266.313	2.74
266.687	2.7
267.061	2.98
267.435	2.89
267.809	2.73
268.183	2.58
268.556	2.41
268.93	2.56
269.304	2.47
269.678	2.55
270.051	2.42
270.425	2.57
270.799	2.57
271.172	2.37
271.546	2.47
271.919	2.3
272.293	2.03
272.666	1.99
273.04	2.12
273.413	2.06
273.787	2.09
274.16	2
274.533	2.1
274.906	2.03
275.279	2.02
275.653	2.08
276.026	2.3
276.399	2.34
276.772	2.38
277.145	2.34
277.518	2.35
277.891	2.52
278.263	2.46
278.636	2.47
279.009	2.72
279.382	2.78
279.755	3.05
280.127	3.36
280.5	3.38
280.872	3.43
281.245	3.54
281.617	3.65
281.99	3.72
282.362	3.7
282.735	3.58
283.107	3.48
283.479	3.48
283.852	3.36
284.224	3.38
284.596	3.44
284.968	3.52
285.34	3.5
285.713	3.44
286.085	3.35
286.457	3.48
286.829	3.54
287.201	3.52
287.572	3.32
287.944	3.14
288.316	3.14
288.688	3.1
289.06	3.1
289.431	3.08
289.803	3.11
290.175	3.06
290.546	3.17
290.918	3.32
291.289	3.32
291.661	3.4
292.032	3.53
292.403	3.49
292.775	3.55
293.146	3.5
293.517	3.53
293.889	3.68
294.26	3.75
294.631	3.74
295.002	3.76
295.373	3.81
295.744	3.94
296.115	3.94
296.486	3.79
296.857	3.89
297.228	3.95
297.599	3.91
297.97	3.95
298.34	4
298.711	4
299.082	4.01
299.452	3.99
299.823	4.1
300.194	4.16
300.564	4.05
300.935	4.14
301.305	4.04
301.676	4.04
302.046	3.97
302.416	3.97
302.787	3.94
303.157	3.96
303.527	3.98
303.897	4.08
304.267	4.31
304.637	4.41
305.008	4.53
305.378	4.61
305.748	4.72
306.117	4.76
306.487	4.76
306.857	4.81
307.227	4.81
307.597	4.81
307.967	4.79
308.336	5.01
308.706	5.02
309.076	5.13
309.445	5.13
309.815	5.06
310.184	5.11
310.554	5.24
310.923	5.32
311.293	5.25
311.662	5.19
312.031	5.35
312.401	5.28
312.77	5.31
313.139	5.51
313.508	5.45
313.877	5.57
314.246	5.64
314.616	5.72
314.985	5.75
315.353	5.64
315.722	5.75
316.091	5.5
316.46	5.56
316.829	5.69
317.198	5.81
317.567	5.88
317.935	5.85
318.304	5.73
318.672	5.77
319.041	5.95
319.41	6.12
319.778	5.97
320.147	5.99
320.515	5.8
320.883	5.7
321.252	5.86
321.62	5.7
321.988	5.69
322.357	5.77
322.725	5.93
323.093	6.09
323.461	6.01
323.829	6.28
324.197	6.39
324.565	6.44
324.933	6.49
325.301	6.51
325.669	6.59
326.037	6.75
326.405	6.73
326.772	6.74
327.14	6.75
327.508	6.81
327.875	6.85
328.243	7.09
328.61	7.05
328.978	7
329.346	7.09
329.713	7.27
330.08	7.3
330.448	7.19
330.815	7.11
331.182	7.18
331.55	7.11
331.917	7.21
332.284	7.11
332.651	7.19
333.018	7.34
333.385	7.29
333.752	7.37
334.119	7.48
334.486	7.43
334.853	7.39
335.22	7.49
335.587	7.57
335.954	7.5
336.32	7.63
336.687	7.61
337.054	7.74
337.42	7.7
337.787	7.8
338.153	7.79
338.52	7.89
338.886	7.92
339.253	8.08
339.619	8.05
339.986	8.12
340.352	8.18
340.718	8.25
341.084	8.35
341.451	8.35
341.817	8.37
342.183	8.46
342.549	8.47
342.915	8.45
343.281	8.33
343.647	8.4
344.013	8.4
344.379	8.49
344.745	8.35
345.11	8.46
345.476	8.35
345.842	8.39
346.208	8.35
346.573	8.34
346.939	8.32
347.304	8.39
347.67	8.37
348.035	8.29
348.401	8.2
348.766	8.15
349.132	8.17
349.497	8.1
349.862	8.1
350.228	8.15
350.593	8.15
350.958	8.29
351.323	8.33
351.688	8.3
352.053	8.37
352.418	8.55
352.783	8.53
353.148	8.62
353.513	8.66
353.878	8.69
354.243	8.72
354.608	8.69
354.972	8.59
355.337	8.61
355.702	8.7
356.066	8.8
356.431	8.79
356.795	8.73
357.16	8.71
357.524	8.63
357.889	8.57
358.253	8.6
358.618	8.6
358.982	8.58
359.346	8.57
359.71	8.46
360.075	8.33
360.439	8.26
360.803	8.23
361.167	8.21
361.531	8.19
361.895	8.12
362.259	8.08
362.623	8.05
362.987	8.06
363.351	8.01
363.714	7.98
364.078	7.98
364.442	7.96
364.806	7.98
365.169	7.96
365.533	7.97
365.896	7.91
366.26	7.85
366.623	7.78
366.987	7.66
367.35	7.71
367.714	7.75
368.077	7.78
368.44	7.71
368.803	7.66
369.167	7.6
369.53	7.49
369.893	7.52
370.256	7.52
370.619	7.42
370.982	7.26
371.345	7.17
371.708	7.16
372.071	7.13
372.434	7.08
372.797	7.08
373.159	7.02
373.522	6.98
373.885	6.99
374.247	6.88
374.61	6.88
374.973	6.75
375.335	6.68
375.698	6.59
376.06	6.53
376.423	6.48
376.785	6.43
377.147	6.48
377.51	6.37
377.872	6.31
378.234	6.25
378.596	6.29
378.958	6.21
379.321	6.14
379.683	6.06
380.045	5.93
380.407	5.88
380.769	5.82
381.13	5.76
381.492	5.65
381.854	5.69
382.216	5.65
382.578	5.65
382.939	5.57
383.301	5.5
383.663	5.47
384.024	5.48
384.386	5.53
384.747	5.52
385.109	5.51
385.47	5.47
385.832	5.42
386.193	5.41
386.554	5.39
386.916	5.33
387.277	5.31
387.638	5.36
387.999	5.27
388.36	5.24
388.721	5.24
389.082	5.25
389.443	5.19
389.804	5.17
390.165	5.1
390.526	5.1
390.887	5.07
391.248	5.07
391.609	5.02
391.969	4.94
392.33	4.86
392.691	4.85
393.051	4.81
393.412	4.82
393.772	4.75
394.133	4.74
394.493	4.73
394.854	4.74
395.214	4.69
395.574	4.7
395.935	4.65
396.295	4.65
396.655	4.56
397.015	4.54
397.376	4.46
397.736	4.42
398.096	4.41
398.456	4.4
398.816	4.35
399.176	4.28
399.535	4.24
399.895	4.25
400.255	4.21
400.615	4.21
400.975	4.16
401.334	4.13
401.694	4.09
402.054	4.06
402.413	4.02
402.773	3.98
403.132	3.98
403.492	3.95
403.851	3.93
404.211	3.91
404.57	3.87
404.929	3.89
405.288	3.91
405.648	3.86
406.007	3.84
406.366	3.81
406.725	3.84
407.084	3.82
407.443	3.8
407.802	3.78
408.161	3.73
408.52	3.75
408.879	3.75
409.238	3.75
409.596	3.75
409.955	3.76
410.314	3.75
410.673	3.74
411.031	3.73
411.39	3.69
411.748	3.7
412.107	3.72
412.465	3.73
412.824	3.73
413.182	3.72
413.54	3.7
413.899	3.7
414.257	3.69
414.615	3.68
414.974	3.69
415.332	3.71
415.69	3.72
416.048	3.68
416.406	3.69
416.764	3.65
417.122	3.63
417.48	3.59
417.838	3.6
418.195	3.57
418.553	3.56
418.911	3.56
419.269	3.54
419.626	3.52
419.984	3.5
420.342	3.49
420.699	3.49
421.057	3.48
421.414	3.48
421.772	3.47
422.129	3.48
422.486	3.47
422.844	3.46
423.201	3.45
423.558	3.45
423.915	3.43
424.273	3.43
424.63	3.43
424.987	3.44
425.344	3.42
425.701	3.41
426.058	3.4
426.415	3.4
426.772	3.39
427.128	3.38
427.485	3.37
427.842	3.37
428.199	3.36
428.555	3.36
428.912	3.36
429.269	3.37
429.625	3.35
429.982	3.35
430.338	3.32
430.695	3.32
431.051	3.3
431.407	3.32
431.764	3.32
432.12	3.32
432.476	3.31
432.832	3.31
433.189	3.3
433.545	3.31
433.901	3.31
434.257	3.3
434.613	3.34
434.969	3.33
435.325	3.32
435.681	3.34
436.036	3.35
436.392	3.33
436.748	3.32
437.104	3.33
437.459	3.31
437.815	3.33
438.171	3.34
438.526	3.34
438.882	3.34
439.237	3.34
439.593	3.34
439.948	3.34
440.304	3.36
440.659	3.37
441.014	3.38
441.369	3.38
441.725	3.37
442.08	3.35
442.435	3.37
442.79	3.38
443.145	3.36
443.5	3.34
443.855	3.35
444.21	3.34
444.565	3.33
444.92	3.34
445.275	3.31
445.629	3.3
445.984	3.29
446.339	3.29
446.693	3.28
447.048	3.26
447.403	3.24
447.757	3.23
448.112	3.23
448.466	3.22
448.82	3.19
449.175	3.22
449.529	3.21
449.883	3.18
450.238	3.17
450.592	3.17
450.946	3.15
451.3	3.13
451.654	3.13
452.008	3.13
452.362	3.11
452.716	3.12
453.07	3.12
453.424	3.14
453.778	3.13
454.132	3.13
454.486	3.15
454.839	3.18
455.193	3.16
455.547	3.13
455.9	3.14
456.254	3.16
456.607	3.13
456.961	3.14
457.314	3.16
457.668	3.18
458.021	3.16
458.375	3.18
458.728	3.19
459.081	3.17
459.434	3.18
459.787	3.19
460.141	3.19
460.494	3.19
460.847	3.19
461.2	3.2
461.553	3.21
461.906	3.21
462.259	3.21
462.611	3.23
462.964	3.27
463.317	3.28
463.67	3.28
464.022	3.3
464.375	3.28
464.728	3.29
465.08	3.27
465.433	3.32
465.785	3.33
466.138	3.33
466.49	3.37
466.843	3.37
467.195	3.38
467.547	3.42
467.899	3.43
468.252	3.42
468.604	3.44
468.956	3.43
469.308	3.42
469.66	3.43
470.012	3.44
470.364	3.44
470.716	3.46
471.068	3.47
471.42	3.49
471.772	3.52
472.123	3.53
472.475	3.56
472.827	3.54
473.178	3.54
473.53	3.57
473.882	3.57
474.233	3.58
474.585	3.57
474.936	3.56
475.288	3.57
475.639	3.59
475.99	3.58
476.342	3.58
476.693	3.62
477.044	3.63
477.395	3.64
477.746	3.63
478.097	3.61
478.448	3.59
478.8	3.57
479.15	3.54
479.501	3.53
479.852	3.52
480.203	3.51
480.554	3.5
480.905	3.5
481.255	3.49
481.606	3.49
481.957	3.49
482.307	3.49
482.658	3.48
483.009	3.48
483.359	3.46
483.709	3.47
484.06	3.45
484.41	3.45
484.761	3.44
485.111	3.44
485.461	3.45
485.811	3.45
486.162	3.45
486.512	3.46
486.862	3.46
487.212	3.46
487.562	3.47
487.912	3.47
488.262	3.46
488.612	3.47
488.961	3.46
489.311	3.47
489.661	3.47
490.011	3.47
490.36	3.47
490.71	3.49
491.06	3.49
491.409	3.51
491.759	3.51
492.108	3.52
492.458	3.53
492.807	3.52
493.157	3.54
493.506	3.56
493.855	3.57
494.204	3.57
494.554	3.6
494.903	3.62
495.252	3.63
495.601	3.68
495.95	3.69
496.299	3.72
496.648	3.72
496.997	3.75
497.346	3.79
497.695	3.82
498.043	3.84
498.392	3.86
498.741	3.9
499.09	3.93
499.438	3.97
499.787	4.03
500.135	4.09
500.484	4.16
500.832	4.21
501.181	4.27
501.529	4.32
501.878	4.41
502.226	4.48
502.574	4.57
502.923	4.63
503.271	4.73
503.619	4.84
503.967	4.95
504.315	5.05
504.663	5.17
505.011	5.32
505.359	5.45
505.707	5.6
506.055	5.72
506.403	5.86
506.751	6.02
507.098	6.16
507.446	6.3
507.794	6.44
508.141	6.62
508.489	6.8
508.837	7
509.184	7.17
509.531	7.33
509.879	7.55
510.226	7.74
510.574	7.92
510.921	8.12
511.268	8.31
511.616	8.53
511.963	8.75
512.31	8.97
512.657	9.23
513.004	9.48
513.351	9.76
513.698	10.06
514.045	10.35
514.392	10.64
514.739	10.96
515.086	11.28
515.432	11.59
515.779	11.88
516.126	12.18
516.473	12.51
516.819	12.81
517.166	13.07
517.512	13.38
517.859	13.66
518.205	13.94
518.552	14.23
518.898	14.48
519.245	14.75
519.591	15.04
519.937	15.31
520.283	15.59
520.629	15.89
520.976	16.18
521.322	16.5
521.668	16.83
522.014	17.19
522.36	17.54
522.706	17.89
523.052	18.26
523.398	18.66
523.743	19.05
524.089	19.46
524.435	19.86
524.781	20.26
525.126	20.63
525.472	20.94
525.817	21.23
526.163	21.52
526.509	21.81
526.854	22.06
527.199	22.28
527.545	22.51
527.89	22.72
528.235	22.94
528.581	23.17
528.926	23.39
529.271	23.6
529.616	23.83
529.961	24.06
530.306	24.3
530.651	24.52
530.996	24.78
531.341	25.02
531.686	25.3
532.031	25.55
532.376	25.81
532.721	26.11
533.065	26.4
533.41	26.72
533.755	26.99
534.099	27.28
534.444	27.6
534.788	27.9
535.133	28.19
535.477	28.49
535.822	28.8
536.166	29.13
536.51	29.49
536.855	29.85
537.199	30.25
537.543	30.63
537.887	31.03
538.231	31.38
538.576	31.76
538.92	32.06
539.264	32.4
539.608	32.71
539.951	33
540.295	33.29
540.639	33.52
540.983	33.78
541.327	34
541.671	34.21
542.014	34.42
542.358	34.68
542.701	34.9
543.045	35.11
543.389	35.33
543.732	35.52
544.075	35.71
544.419	35.87
544.762	36.08
545.105	36.31
545.449	36.52
545.792	36.77
546.135	37.07
546.478	37.3
546.821	37.54
547.165	37.8
547.508	38.08
547.851	38.36
548.194	38.61
548.536	38.9
548.879	39.22
549.222	39.48
549.565	39.73
549.908	39.97
550.25	40.25
550.593	40.51
550.936	40.78
551.278	41.07
551.621	41.34
551.963	41.65
552.306	41.86
552.648	42.13
552.991	42.37
553.333	42.57
553.675	42.77
554.017	43.07
554.36	43.25
554.702	43.4
555.044	43.58
555.386	43.75
555.728	43.93
556.07	44.15
556.412	44.34
556.754	44.48
557.096	44.69
557.438	44.92
557.78	45.11
558.121	45.31
558.463	45.51
558.805	45.73
559.147	45.88
559.488	46.08
559.83	46.28
560.171	46.42
560.513	46.63
560.854	46.77
561.196	46.82
561.537	47.02
561.878	47.21
562.22	47.33
562.561	47.49
562.902	47.64
563.243	47.79
563.584	47.98
563.925	48.15
564.266	48.26
564.607	48.34
564.948	48.48
565.289	48.59
565.63	48.69
565.971	48.81
566.312	48.89
566.653	48.98
566.993	49.02
567.334	49.14
567.675	49.21
568.015	49.37
568.356	49.51
568.696	49.54
569.037	49.61
569.377	49.72
569.718	49.81
570.058	49.89
570.398	49.98
570.739	50.04
571.079	50.12
571.419	50.25
571.759	50.36
572.099	50.45
572.439	50.55
572.779	50.64
573.119	50.73
573.459	50.79
573.799	50.89
574.139	51.01
574.479	51.11
574.819	51.17
575.158	51.27
575.498	51.35
575.838	51.46
576.177	51.54
576.517	51.67
576.856	51.77
577.196	51.89
577.535	51.95
577.875	52.07
578.214	52.17
578.553	52.24
578.893	52.35
579.232	52.5
579.571	52.61
579.91	52.77
580.25	52.84
580.589	53.02
580.928	53.1
581.267	53.17
581.606	53.22
581.945	53.27
582.283	53.34
582.622	53.48
582.961	53.59
583.3	53.66
583.639	53.76
583.977	53.91
584.316	53.96
584.654	54.02
584.993	54.15
585.332	54.25
585.67	54.35
586.008	54.32
586.347	54.3
586.685	54.34
587.024	54.32
587.362	54.44
587.7	54.49
588.038	54.58
588.376	54.72
588.715	54.81
589.053	55
589.391	55.12
589.729	55.2
590.067	55.31
590.404	55.38
590.742	55.44
591.08	55.38
591.418	55.46
591.756	55.58
592.093	55.59
592.431	55.71
592.769	55.73
593.106	55.81
593.444	55.89
593.781	55.94
594.119	55.96
594.456	55.94
594.793	55.98
595.131	56.06
595.468	56.12
595.805	56.1
596.143	56.09
596.48	56.04
596.817	56.01
597.154	56.03
597.491	56.1
597.828	56.14
598.165	56.22
598.502	56.27
598.839	56.36
599.176	56.36
599.512	56.38
599.849	56.51
600.186	56.6
600.523	56.69
600.859	56.76
601.196	56.88
601.532	56.94
601.869	57
602.205	57.01
602.542	57
602.878	57.07
603.215	57.12
603.551	57.21
603.887	57.3
604.223	57.4
604.56	57.44
604.896	57.48
605.232	57.62
605.568	57.68
605.904	57.71
606.24	57.75
606.576	57.73
606.912	57.76
607.248	57.78
607.583	57.82
607.919	57.89
608.255	57.94
608.591	57.97
608.926	58.02
609.262	58.02
609.597	58.11
609.933	58.14
610.268	58.21
610.604	58.18
610.939	58.2
611.275	58.21
611.61	58.27
611.945	58.28
612.281	58.16
612.616	58.14
612.951	58.16
613.286	58.29
613.621	58.38
613.956	58.34
614.291	58.35
614.626	58.39
614.961	58.37
615.296	58.36
615.631	58.37
615.966	58.42
616.3	58.51
616.635	58.6
616.97	58.63
617.304	58.68
617.639	58.74
617.973	58.78
618.308	58.81
618.642	58.84
618.977	58.88
619.311	58.92
619.646	59
619.98	59.04
620.314	59.01
620.648	59.05
620.983	59.09
621.317	59.2
621.651	59.17
621.985	59.27
622.319	59.34
622.653	59.46
622.987	59.48
623.321	59.41
623.655	59.35
623.988	59.34
624.322	59.2
624.656	59.14
624.99	59.21
625.323	59.25
625.657	59.26
625.99	59.32
626.324	59.45
626.657	59.41
626.991	59.37
627.324	59.34
627.658	59.35
627.991	59.33
628.324	59.3
628.657	59.43
628.991	59.42
629.324	59.44
629.657	59.5
629.99	59.49
630.323	59.55
630.656	59.54
630.989	59.63
631.322	59.71
631.655	59.84
631.987	59.87
632.32	60
632.653	60.03
632.986	60
633.318	59.9
633.651	60.01
633.984	60.08
634.316	60.04
634.649	60.11
634.981	60.24
635.313	60.3
635.646	60.16
635.978	60.24
636.31	60.23
636.643	60.25
636.975	60.25
637.307	60.29
637.639	60.36
637.971	60.37
638.303	60.41
638.635	60.48
638.967	60.36
639.299	60.25
639.631	60.26
639.963	60.31
640.295	60.42
640.626	60.37
640.958	60.43
641.29	60.63
641.621	60.62
641.953	60.62
642.285	60.57
642.616	60.73
642.948	60.66
643.279	60.63
643.61	60.63
643.942	60.71
644.273	60.83
644.604	60.78
644.936	60.83
645.267	60.93
645.598	60.96
645.929	61.09
646.26	61.12
646.591	61.11
646.922	61.07
647.253	61.26
647.584	61.31
647.915	61.21
648.245	61.18
648.576	61.21
648.907	61.21
649.238	61.23
649.568	61.13
649.899	61.2
650.229	61.25
650.56	61.23
650.89	61.21
651.221	61.19
651.551	61.29
651.882	61.19
652.212	61.23
652.542	61.12
652.872	61.1
653.203	61.01
653.533	61.16
653.863	61.19
654.193	60.99
654.523	60.93
654.853	61
655.183	61.09
655.513	61.17
655.843	61.22
656.172	61.33
656.502	61.47
656.832	61.5
657.162	61.66
657.491	61.71
657.821	61.8
658.15	61.81
658.48	61.82
658.809	61.87
659.139	61.8
659.468	61.84
659.798	61.81
660.127	61.91
660.456	61.75
660.785	61.77
661.115	61.84
661.444	62.01
661.773	62.01
662.102	61.89
662.431	61.77
662.76	61.77
663.089	61.76
663.418	61.71
663.747	61.64
664.076	61.43
664.404	61.47
664.733	61.42
665.062	61.41
665.39	61.44
665.719	61.63
666.048	61.69
666.376	61.73
666.705	61.86
667.033	61.84
667.362	61.85
667.69	61.86
668.018	61.82
668.347	61.69
668.675	61.8
669.003	61.95
669.331	62.11
669.659	62.07
669.987	61.97
670.315	62
670.643	62.03
670.971	62.14
671.299	62.21
671.627	62.21
671.955	62.17
672.283	62.18
672.61	62
672.938	62.08
673.266	62.15
673.593	62.2
673.921	62.19
674.249	62.26
674.576	62.34
674.904	62.45
675.231	62.52
675.558	62.38
675.886	62.27
676.213	62.2
676.54	62.27
676.867	62.41
677.195	62.4
677.522	62.32
677.849	62.32
678.176	62.22
678.503	62.17
678.83	62.23
679.157	62.26
679.484	62.31
679.81	62.3
680.137	62.11
680.464	62.03
680.791	62.08
681.117	62.13
681.444	62.09
681.771	62.09
682.097	62.07
682.424	62.18
682.75	62.21
683.077	62.19
683.403	62.2
683.729	62.23
684.056	62.17
684.382	62.16
684.708	62.12
685.034	62.02
685.36	62.05
685.686	61.84
686.012	61.64
686.339	61.64
686.664	61.6
686.99	61.78
687.316	61.74
687.642	61.77
687.968	61.75
688.294	61.86
688.619	61.74
688.945	61.79
689.271	61.63
689.596	61.62
689.922	61.82
690.247	61.8
690.573	61.73
690.898	61.68
691.224	61.83
691.549	61.88
691.874	61.92
692.2	61.93
692.525	62.26
692.85	62.33
693.175	62.31
693.5	62.39
693.825	62.35
694.15	62.35
694.475	62.44
694.8	62.34
695.125	62.08
695.45	62.22
695.775	62.24
696.099	62.3
696.424	62.28
696.749	62.06
697.073	61.99
697.398	62.09
697.723	62.09
698.047	62.11
698.372	62.11
698.696	62.17
699.02	62.34
699.345	62.2
699.669	62.15
699.993	62.27
700.318	62.12
700.642	62.06
700.966	62.02
701.29	61.88
701.614	62
701.938	62.18
702.262	62.2
702.586	62.17
702.91	62.21
703.234	62.18
703.557	62.28
703.881	62.31
704.205	62.22
704.529	62.16
704.852	62.16
705.176	62.02
705.499	62.02
705.823	61.81
706.146	61.84
706.47	61.96
706.793	61.72
707.117	61.88
707.44	61.97
707.763	61.99
708.086	62.06
708.409	61.99
708.733	61.96
709.056	61.74
709.379	61.77
709.702	61.78
710.025	61.55
710.348	61.53
710.671	61.39
710.993	61.54
711.316	61.78
711.639	61.92
711.962	62.07
712.284	62.03
712.607	62.23
712.93	62.32
713.252	62.37
713.575	62.43
713.897	62.23
714.22	62.26
714.542	62.12
714.864	62.1
715.187	62.04
715.509	62.03
715.831	62.14
716.153	62.11
716.475	62.18
716.798	62.52
717.12	62.53
717.442	62.58
717.764	62.49
718.085	62.44
718.407	62.23
718.729	62.25
719.051	62.33
719.373	62.05
719.695	61.93
720.016	61.79
720.338	61.9
720.659	62.23
720.981	62.29
721.302	62.67
721.624	62.72
721.945	62.65
722.267	62.56
722.588	62.56
722.909	62.47
723.231	62.41
723.552	62.4
723.873	62.4
724.194	62.63
724.515	62.58
724.836	62.73
725.157	62.8
725.478	62.58
725.799	62.48
726.12	62.58
726.441	62.54
726.762	62.78
727.083	62.7
727.403	62.54
727.724	62.61
728.045	62.17
728.365	62.22
728.686	62.2
729.006	62.23
729.327	62.06
729.647	62.26
729.967	62.45
730.288	62.37
730.608	62.31
730.928	62.33
731.249	62.37
731.569	62.2
731.889	62.29
732.209	62.41
732.529	62.35
732.849	62.57
733.169	62.59
733.489	62.27
733.809	62.32
734.129	62.32
734.448	62.26
734.768	62.51
735.088	62.45
735.408	62.69
735.727	62.87
736.047	63.09
736.366	63.18
736.686	63.12
737.005	63.21
737.325	63.39
737.644	63.33
737.963	63.15
738.283	63.27
738.602	63.15
738.921	63.15
739.24	63.21
739.56	62.66
739.879	62.76
740.198	63.06
740.517	62.99
740.836	62.89
741.155	62.67
741.473	62.6
741.792	62.54
742.111	62.44
742.43	62.35
742.748	62.17
743.067	61.94
743.386	61.93
743.704	61.76
744.023	61.76
744.341	61.77
744.66	61.98
744.978	62
745.297	61.93
745.615	61.83
745.933	62.13
746.252	62.45
746.57	62.29
746.888	62.14
747.206	62.28
747.524	62.22
747.842	62.35
748.16	62.79
748.478	62.79
748.796	62.73
749.114	62.82
749.432	63.23
749.749	63.22
750.067	62.84
750.385	63.02
750.703	62.99
751.02	62.85
751.338	62.85
751.655	62.34
751.973	62.36
752.29	62.64
752.608	62.19
752.925	62.18
753.242	62.37
753.56	62.52
753.877	62.54
754.194	62.84
754.511	63.34
754.828	62.95
755.145	62.99
755.462	62.79
755.779	62.79
756.096	62.29
756.413	62.23
756.73	62.64
757.047	62.58
757.364	62.64
757.68	62.96
757.997	62.99
758.314	63.48
758.63	63.58
758.947	63.29
759.264	63.64
759.58	63.74
759.896	63.84
760.213	63.91
760.529	63.7
760.846	63.83
761.162	63.49
761.478	63.56
761.794	63.38
762.11	63.67
762.426	63.62
762.743	63.79
763.059	63.98
763.375	63.82
763.69	63.58
764.006	63.51
764.322	63.36
764.638	63.09
764.954	62.92
765.27	62.97
765.585	63.17
765.901	62.97
766.216	63.04
766.532	62.79
766.848	62.7
767.163	62.72
767.478	62.32
767.794	62.23
768.109	62.29
768.424	62.56
768.74	62.41
769.055	62.22
769.37	62.12
769.685	61.82
770	62.13
770.315	62.6
770.63	62.63
770.945	62.71
771.26	62.75
771.575	63.04
771.89	62.99
772.205	62.52
772.52	62.75
772.834	62.73
773.149	62.81
773.464	62.72
773.778	63.1
774.093	63.17
774.407	63.14
774.722	62.82
775.036	62.8
775.351	63.34
775.665	63.75
775.979	63.81
776.293	64.21
776.608	63.84
776.922	63.54
777.236	63.44
777.55	63.17
777.864	63.03
778.178	62.91
778.492	62.99
778.806	63.18
779.12	63.03
779.434	63.06
779.747	63.27
780.061	63.41
780.375	63.09
780.689	63.09
781.002	63.8
781.316	64.16
781.629	63.83
781.943	63.21
782.256	63.07
782.57	63.21
782.883	62.34
783.196	62.11
783.51	61.68
783.823	62.31
784.136	62.27
784.449	62.42
784.762	62.39
785.075	61.75
785.388	61.69
785.701	61.21
786.014	60.58
786.327	60.23
786.64	60.66
786.953	60.61
787.266	60.81
787.578	59.97
787.891	60.25
788.204	61.19
788.516	60.77
788.829	60.79
789.141	60.95
789.454	61.3
789.766	61.37
790.079	62.11
790.391	61.6
790.703	61.66
791.016	62.17
791.328	62.51
791.64	63.25
791.952	63.5
792.264	63.76
792.576	63.94
792.888	64.2
793.2	63.77
793.512	64.07
793.824	64.12
794.136	64.46
794.448	63.81
794.76	62.9
795.071	63.57
795.383	63.5
795.695	62.91
796.006	62.92
796.318	62.69
796.629	62.79
796.941	62.34
797.252	62.26
797.564	61.79
797.875	61.42
798.186	60.84
798.497	60.88
798.809	60.73
799.12	60.42
799.431	60.3
799.742	60.59
800.053	60.77
800.364	60.86
800.675	60.46
800.986	60.55
801.297	60.79
801.608	60.61
801.918	60.85
802.229	61.17
802.54	61.76
802.851	62.11
803.161	62.16
803.472	62.79
803.782	62.73
804.093	62.64
804.403	62.66
804.714	62.72
805.024	62.72
805.334	63.33
805.645	64.96
805.955	65.12
806.265	64.21
806.575	63.5
806.885	63.47
807.195	64.02
807.505	64.06
807.815	63.69
808.125	63.49
808.435	63.08
808.745	62.6
809.055	62.35
809.365	62.26
809.674	61.09
809.984	61.14
810.294	61.28
810.603	61.67
810.913	61.92
811.222	61.92
811.532	61.95
811.841	61.78
812.151	61.46
812.46	61.18
812.769	61.48
813.079	61.35
813.388	61.52
813.697	61.2
814.006	60.86
814.315	60.98
814.624	60.94
814.933	60.74
815.242	61.06
815.551	60.43
815.86	60.48
816.169	61.25
816.478	60.88
816.786	60.77
817.095	60.86
817.404	60.51
817.712	60.4
818.021	60.02
818.33	60.08
818.638	59.68
818.947	60.65
819.255	61.22
819.563	62.19
819.872	62.21
820.18	62.7
820.488	62.69
820.796	63.21
821.105	63.41
821.413	63.69
821.721	63.68
822.029	63.96
822.337	63.98
822.645	64.02
822.953	64.17
823.26	64.36
823.568	64.28
823.876	64.39
824.184	64.47
824.491	64.43
824.799	64.47
825.107	64.49
825.414	64.42
825.722	64.35
826.029	64.26
826.337	64.46
826.644	64.3
826.951	64.49
827.259	64.36
827.566	64.34
827.873	64.27
828.18	64.45
828.488	64.27
828.795	64.17
829.102	64.19
829.409	64.29
829.716	64.05
830.023	64.08
830.329	64.16
830.636	64.24
830.943	64.48
831.25	64.66
831.557	64.84
831.863	65.05
832.17	65.51
832.476	65.27
832.783	64.68
833.089	64.53
833.396	64.88
833.702	64.48
834.009	64.17
834.315	64.25
834.621	63.93
834.928	64.09
835.234	64.73
835.54	64.69
835.846	64.31
836.152	64.65
836.458	64.76
836.764	64.59
837.07	64.46
837.376	64.98
837.682	64.82
837.988	64.84
838.293	64.04
838.599	63.44
838.905	63.25
839.211	63.21
839.516	63.16
839.822	63.26
840.127	63.27
840.433	62.62
840.738	62.51
841.044	63.66
841.349	63.72
841.654	62.97
841.959	62
842.265	61
842.57	60.49
842.875	59.21
843.18	58.83
843.485	58.71
843.79	58.21
844.095	57.2
844.4	56.77
844.705	56.64
845.01	56.15
845.315	56.04
845.619	56.25
845.924	57.02
846.229	56.05
846.533	56.89
846.838	58.56
847.142	58.04
847.447	55.31
847.751	55.48
848.056	56.37
848.36	57.03
848.664	58.82
848.969	59.75
849.273	61.75
849.577	61.85
849.881	61.25
850.185	62.61
850.489	63.51
850.794	63.61
851.097	65.12
851.401	67.04
851.705	68
852.009	66.22
852.313	65.4
852.617	65.05
852.92	64.11
853.224	64.15
853.528	62.25
853.831	63.09
854.135	61.91
854.438	61.28
854.742	59.6
855.045	57.42
855.349	54.97
855.652	54.13
855.955	55.13
856.259	56.5
856.562	52.58
856.865	53.22
857.168	53.86
857.471	52.64
857.774	52.68
858.077	51.95
858.38	53.43
858.683	54.8
858.986	55.61
859.289	56.21
859.592	56.08
859.894	60.05
860.197	58.26
860.5	59.38
860.802	59.55
861.105	62.29
861.407	62.32
861.71	66.42
862.012	67.02
862.315	63.3
862.617	61.53
862.919	64.58
863.222	65.43
863.524	64.68
863.826	64.78
864.128	63.07
864.43	63.95
864.732	66.1
865.034	65.73
865.336	61.53
865.638	59.78
865.94	61.44
866.242	61.8
866.544	64.87
866.846	64.28
867.147	63.18
867.449	63.54
867.751	63.98
868.052	59.85
868.354	60.52
868.655	61.13
868.957	61.68
869.258	60.93
869.56	57.77
869.861	57.95
870.162	58
870.463	59.03
870.765	57.95
871.066	55.25
871.367	54.91
871.668	58
871.969	58.67
872.27	53.89
872.571	53.01
872.872	51.83
873.173	50.13
873.473	50.37
873.774	51.31
874.075	53.55
874.376	55.64
874.676	54.85
874.977	55.94
875.277	57.02
875.578	57.97
875.878	59.74
876.179	59.31
876.479	59.15
876.78	58.27
877.08	59.4
877.38	60.29
877.68	59.17
877.981	60.2
878.281	61.36
878.581	67.03
