Data from BU26847_Reflection_00006.txt Node
Date: Mon Nov 18 16:40:52 EST 2019
User: vgr7
Spectrometer: USB2G7710
Scans to average: 3
Trigger mode: 4
Integration Time (sec): 2.000000E-2
Electric dark correction enabled: true
Boxcar width: 10
XAxis mode: Wavelengths
Number of Pixels in Spectrum: 2048
>>>>>Begin Spectral Data<<<<<
177.721	58.38
178.105	-69.49
178.488	-5252.94
178.871	-683.78
179.254	913.95
179.636	-60.96
180.019	183.74
180.402	68.42
180.785	660.98
181.168	912.5
181.55	1827.27
181.933	234.55
182.316	156
182.698	109.29
183.081	38.32
183.463	-18.48
183.846	61.65
184.228	167.36
184.611	445.45
184.993	8433.33
185.376	178.01
185.758	-16233.33
186.14	1937.21
186.522	2376.6
186.904	-1317.58
187.287	-2064.18
187.669	-211.78
188.051	-327.51
188.433	-168.7
188.815	-53.7
189.197	-69.1
189.579	-25.66
189.961	-12.65
190.342	-59.94
190.724	-62.37
191.106	-51.41
191.488	-85.44
191.869	-75.79
192.251	-110.79
192.633	-139.09
193.014	-101.88
193.396	-85.19
193.777	-89.33
194.159	-74.84
194.54	-60.91
194.922	-56.93
195.303	-33.24
195.684	-99.35
196.065	-92.72
196.447	-104.24
196.828	-147.67
197.209	-158.85
197.59	-277.05
197.971	-388.52
198.352	-169.02
198.733	-174.95
199.114	-215.14
199.495	-166.54
199.876	-138.27
200.257	-115.12
200.638	-108.76
201.018	-113.16
201.399	-115.16
201.78	-116.55
202.16	-163.53
202.541	-270.63
202.922	-2369.39
203.302	-5037.93
203.683	781.53
204.063	317.67
204.444	345.55
204.824	433.33
205.204	460
205.585	436.1
205.965	397.96
206.345	308.23
206.725	271.13
207.106	350.59
207.486	262.87
207.866	276.25
208.246	424.76
208.626	977.3
209.006	544.07
209.386	576.92
209.766	1022.65
210.145	1078.14
210.525	1514.41
210.905	-1116.56
211.285	-867.57
211.664	-435.25
212.044	-500
212.424	-423.18
212.803	-508.36
213.183	-338.11
213.562	-240.39
213.942	-169.73
214.321	-187.59
214.701	-193.02
215.08	-235.65
215.459	-145.83
215.838	-126.18
216.218	-179.69
216.597	-139.54
216.976	-83.35
217.355	-55.98
217.734	-56.84
218.113	-15.86
218.492	-26.6
218.871	-11.34
219.25	-10.91
219.629	-18.22
220.008	-11.32
220.387	-26.48
220.766	-19.94
221.144	-45.75
221.523	-46.45
221.902	-63.03
222.28	-90.52
222.659	-65.61
223.037	-46.32
223.416	-60.03
223.794	-71.32
224.173	-54.47
224.551	-48.87
224.929	-62.52
225.308	-44.77
225.686	-31.01
226.064	-25.68
226.442	-21.19
226.821	-20.22
227.199	-18.52
227.577	-18.96
227.955	-15.04
228.333	-15.78
228.711	-12.79
229.089	-5.92
229.467	-7.97
229.845	-5.72
230.222	-3.11
230.6	-2.65
230.978	-2.49
231.356	-0.9
231.733	-0.57
232.111	-2.26
232.488	0.4
232.866	2.02
233.243	1.43
233.621	-2.06
233.998	-3.77
234.376	-3.51
234.753	-3.93
235.13	-3.23
235.508	-1.9
235.885	-0.66
236.262	-2.02
236.639	-2.11
237.016	-3.18
237.393	-0.79
237.77	-0.25
238.147	0.87
238.524	1.11
238.901	1.51
239.278	2.57
239.655	2.99
240.032	3.73
240.409	3.11
240.785	3.64
241.162	4.03
241.539	4.27
241.915	4.85
242.292	4.47
242.668	4.65
243.045	4.96
243.421	5.1
243.798	4.76
244.174	4.96
244.551	4.65
244.927	4.36
245.303	4.25
245.679	4.33
246.056	4.5
246.432	4.39
246.808	4.44
247.184	4.24
247.56	4.24
247.936	4.43
248.312	4.27
248.688	4.01
249.064	3.55
249.44	3.55
249.815	3.65
250.191	3.71
250.567	3.82
250.943	3.48
251.318	3.37
251.694	3.16
252.069	3.39
252.445	3.52
252.82	3.82
253.196	3.71
253.571	3.51
253.947	3.37
254.322	3.71
254.697	3.43
255.073	3.3
255.448	3.27
255.823	2.99
256.198	3.29
256.573	3.18
256.948	3.64
257.323	3.8
257.698	3.55
258.073	3.63
258.448	3.53
258.823	3.55
259.198	3.59
259.573	3.73
259.948	3.47
260.322	3.56
260.697	3.34
261.072	3.13
261.446	3.12
261.821	3.23
262.195	3.1
262.57	3.06
262.944	3.09
263.319	3.19
263.693	3.22
264.067	3.33
264.442	3.47
264.816	3.51
265.19	3.37
265.564	3.4
265.938	3.18
266.313	3.1
266.687	3.04
267.061	3.08
267.435	3.03
267.809	3.07
268.183	3
268.556	3.08
268.93	3.49
269.304	3.61
269.678	3.51
270.051	3.41
270.425	3.56
270.799	3.54
271.172	3.44
271.546	3.48
271.919	3.17
272.293	3.29
272.666	3.16
273.04	3.25
273.413	3.23
273.787	3.35
274.16	3.38
274.533	3.52
274.906	3.39
275.279	3.35
275.653	3.46
276.026	3.59
276.399	3.73
276.772	3.62
277.145	3.49
277.518	3.5
277.891	3.61
278.263	3.49
278.636	3.39
279.009	3.5
279.382	3.59
279.755	3.56
280.127	3.64
280.5	3.6
280.872	3.71
281.245	3.35
281.617	3.44
281.99	3.58
282.362	3.53
282.735	3.52
283.107	3.55
283.479	3.44
283.852	3.45
284.224	3.29
284.596	3.39
284.968	3.4
285.34	3.52
285.713	3.51
286.085	3.54
286.457	3.71
286.829	3.71
287.201	3.69
287.572	3.84
287.944	3.82
288.316	3.89
288.688	3.87
289.06	4.08
289.431	4
289.803	4
290.175	3.96
290.546	4.1
290.918	4.15
291.289	4.22
291.661	4.15
292.032	4.39
292.403	4.32
292.775	4.38
293.146	4.17
293.517	4.13
293.889	4.22
294.26	4.27
294.631	4.25
295.002	4.28
295.373	4.33
295.744	4.23
296.115	4.28
296.486	4.15
296.857	4.23
297.228	4.34
297.599	4.24
297.97	4.32
298.34	4.4
298.711	4.48
299.082	4.52
299.452	4.57
299.823	4.5
300.194	4.53
300.564	4.53
300.935	4.73
301.305	4.77
301.676	4.82
302.046	4.79
302.416	4.79
302.787	4.8
303.157	4.8
303.527	4.78
303.897	4.75
304.267	4.94
304.637	4.93
305.008	4.92
305.378	5.05
305.748	5.02
306.117	4.87
306.487	4.82
306.857	4.88
307.227	4.83
307.597	4.84
307.967	4.82
308.336	4.79
308.706	4.79
309.076	4.87
309.445	4.79
309.815	4.7
310.184	4.72
310.554	4.66
310.923	4.57
311.293	4.66
311.662	4.66
312.031	4.64
312.401	4.61
312.77	4.61
313.139	4.66
313.508	4.74
313.877	4.72
314.246	4.78
314.616	4.66
314.985	4.66
315.353	4.55
315.722	4.63
316.091	4.59
316.46	4.52
316.829	4.45
317.198	4.43
317.567	4.44
317.935	4.39
318.304	4.53
318.672	4.55
319.041	4.6
319.41	4.56
319.778	4.41
320.147	4.54
320.515	4.59
320.883	4.36
321.252	4.35
321.62	4.32
321.988	4.25
322.357	4.35
322.725	4.38
323.093	4.47
323.461	4.53
323.829	4.63
324.197	4.64
324.565	4.8
324.933	4.72
325.301	4.85
325.669	4.77
326.037	4.69
326.405	4.7
326.772	4.69
327.14	4.69
327.508	4.76
327.875	4.68
328.243	4.76
328.61	4.77
328.978	4.77
329.346	4.85
329.713	4.88
330.08	4.78
330.448	4.74
330.815	4.7
331.182	4.66
331.55	4.65
331.917	4.64
332.284	4.57
332.651	4.6
333.018	4.52
333.385	4.61
333.752	4.66
334.119	4.68
334.486	4.61
334.853	4.5
335.22	4.52
335.587	4.64
335.954	4.51
336.32	4.51
336.687	4.61
337.054	4.64
337.42	4.62
337.787	4.71
338.153	4.74
338.52	4.91
338.886	4.88
339.253	4.88
339.619	4.85
339.986	4.8
340.352	4.8
340.718	4.89
341.084	4.88
341.451	4.79
341.817	4.85
342.183	4.86
342.549	4.92
342.915	5.01
343.281	4.96
343.647	4.91
344.013	5.02
344.379	4.83
344.745	4.87
345.11	4.8
345.476	4.85
345.842	4.81
346.208	4.72
346.573	4.66
346.939	4.6
347.304	4.61
347.67	4.51
348.035	4.46
348.401	4.47
348.766	4.51
349.132	4.58
349.497	4.48
349.862	4.55
350.228	4.55
350.593	4.41
350.958	4.4
351.323	4.38
351.688	4.37
352.053	4.37
352.418	4.37
352.783	4.52
353.148	4.45
353.513	4.56
353.878	4.59
354.243	4.67
354.608	4.65
354.972	4.6
355.337	4.66
355.702	4.75
356.066	4.73
356.431	4.68
356.795	4.73
357.16	4.75
357.524	4.67
357.889	4.68
358.253	4.68
358.618	4.71
358.982	4.78
359.346	4.81
359.71	4.91
360.075	4.86
360.439	4.83
360.803	4.82
361.167	4.76
361.531	4.75
361.895	4.72
362.259	4.8
362.623	4.84
362.987	4.9
363.351	4.9
363.714	4.94
364.078	4.89
364.442	4.79
364.806	4.83
365.169	4.87
365.533	4.87
365.896	4.86
366.26	4.86
366.623	4.83
366.987	4.82
367.35	4.72
367.714	4.73
368.077	4.74
368.44	4.79
368.803	4.78
369.167	4.75
369.53	4.69
369.893	4.7
370.256	4.72
370.619	4.7
370.982	4.65
371.345	4.58
371.708	4.64
372.071	4.69
372.434	4.66
372.797	4.66
373.159	4.7
373.522	4.77
373.885	4.68
374.247	4.67
374.61	4.69
374.973	4.71
375.335	4.66
375.698	4.68
376.06	4.66
376.423	4.69
376.785	4.73
377.147	4.79
377.51	4.76
377.872	4.77
378.234	4.79
378.596	4.85
378.958	4.84
379.321	4.85
379.683	4.82
380.045	4.8
380.407	4.81
380.769	4.79
381.13	4.8
381.492	4.8
381.854	4.8
382.216	4.74
382.578	4.74
382.939	4.79
383.301	4.77
383.663	4.8
384.024	4.74
384.386	4.8
384.747	4.78
385.109	4.75
385.47	4.7
385.832	4.69
386.193	4.72
386.554	4.72
386.916	4.72
387.277	4.75
387.638	4.81
387.999	4.8
388.36	4.83
388.721	4.8
389.082	4.82
389.443	4.79
389.804	4.8
390.165	4.81
390.526	4.83
390.887	4.78
391.248	4.78
391.609	4.77
391.969	4.73
392.33	4.74
392.691	4.75
393.051	4.77
393.412	4.75
393.772	4.66
394.133	4.7
394.493	4.72
394.854	4.72
395.214	4.67
395.574	4.68
395.935	4.66
396.295	4.68
396.655	4.67
397.015	4.69
397.376	4.73
397.736	4.7
398.096	4.68
398.456	4.69
398.816	4.66
399.176	4.67
399.535	4.64
399.895	4.64
400.255	4.64
400.615	4.66
400.975	4.67
401.334	4.71
401.694	4.69
402.054	4.68
402.413	4.71
402.773	4.72
403.132	4.69
403.492	4.68
403.851	4.68
404.211	4.7
404.57	4.72
404.929	4.71
405.288	4.71
405.648	4.7
406.007	4.73
406.366	4.73
406.725	4.74
407.084	4.77
407.443	4.77
407.802	4.76
408.161	4.77
408.52	4.75
408.879	4.74
409.238	4.74
409.596	4.75
409.955	4.75
410.314	4.78
410.673	4.75
411.031	4.75
411.39	4.76
411.748	4.78
412.107	4.78
412.465	4.75
412.824	4.76
413.182	4.79
413.54	4.78
413.899	4.78
414.257	4.8
414.615	4.78
414.974	4.74
415.332	4.75
415.69	4.74
416.048	4.74
416.406	4.76
416.764	4.75
417.122	4.76
417.48	4.73
417.838	4.73
418.195	4.76
418.553	4.74
418.911	4.73
419.269	4.74
419.626	4.72
419.984	4.73
420.342	4.72
420.699	4.7
421.057	4.72
421.414	4.71
421.772	4.69
422.129	4.71
422.486	4.72
422.844	4.73
423.201	4.73
423.558	4.73
423.915	4.73
424.273	4.74
424.63	4.72
424.987	4.7
425.344	4.7
425.701	4.69
426.058	4.69
426.415	4.68
426.772	4.65
427.128	4.66
427.485	4.66
427.842	4.67
428.199	4.7
428.555	4.68
428.912	4.7
429.269	4.72
429.625	4.69
429.982	4.7
430.338	4.69
430.695	4.69
431.051	4.68
431.407	4.68
431.764	4.66
432.12	4.68
432.476	4.69
432.832	4.68
433.189	4.68
433.545	4.69
433.901	4.69
434.257	4.7
434.613	4.72
434.969	4.72
435.325	4.72
435.681	4.72
436.036	4.72
436.392	4.71
436.748	4.71
437.104	4.72
437.459	4.72
437.815	4.72
438.171	4.71
438.526	4.72
438.882	4.72
439.237	4.75
439.593	4.75
439.948	4.75
440.304	4.76
440.659	4.75
441.014	4.75
441.369	4.76
441.725	4.75
442.08	4.73
442.435	4.72
442.79	4.7
443.145	4.7
443.5	4.69
443.855	4.68
444.21	4.66
444.565	4.67
444.92	4.69
445.275	4.67
445.629	4.67
445.984	4.66
446.339	4.64
446.693	4.63
447.048	4.62
447.403	4.62
447.757	4.61
448.112	4.59
448.466	4.58
448.82	4.59
449.175	4.6
449.529	4.58
449.883	4.58
450.238	4.59
450.592	4.59
450.946	4.59
451.3	4.59
451.654	4.59
452.008	4.57
452.362	4.55
452.716	4.55
453.07	4.55
453.424	4.57
453.778	4.56
454.132	4.56
454.486	4.54
454.839	4.55
455.193	4.56
455.547	4.58
455.9	4.59
456.254	4.57
456.607	4.56
456.961	4.58
457.314	4.58
457.668	4.59
458.021	4.59
458.375	4.6
458.728	4.61
459.081	4.62
459.434	4.63
459.787	4.64
460.141	4.66
460.494	4.67
460.847	4.67
461.2	4.66
461.553	4.68
461.906	4.72
462.259	4.71
462.611	4.72
462.964	4.72
463.317	4.71
463.67	4.73
464.022	4.73
464.375	4.74
464.728	4.74
465.08	4.74
465.433	4.75
465.785	4.73
466.138	4.74
466.49	4.73
466.843	4.71
467.195	4.71
467.547	4.73
467.899	4.72
468.252	4.72
468.604	4.74
468.956	4.72
469.308	4.73
469.66	4.72
470.012	4.73
470.364	4.73
470.716	4.74
471.068	4.74
471.42	4.77
471.772	4.79
472.123	4.79
472.475	4.79
472.827	4.78
473.178	4.81
473.53	4.82
473.882	4.82
474.233	4.84
474.585	4.83
474.936	4.8
475.288	4.82
475.639	4.83
475.99	4.84
476.342	4.84
476.693	4.84
477.044	4.85
477.395	4.85
477.746	4.86
478.097	4.84
478.448	4.84
478.8	4.83
479.15	4.83
479.501	4.83
479.852	4.84
480.203	4.84
480.554	4.84
480.905	4.87
481.255	4.86
481.606	4.87
481.957	4.88
482.307	4.88
482.658	4.88
483.009	4.89
483.359	4.89
483.709	4.9
484.06	4.89
484.41	4.9
484.761	4.9
485.111	4.9
485.461	4.92
485.811	4.92
486.162	4.92
486.512	4.94
486.862	4.94
487.212	4.94
487.562	4.95
487.912	4.95
488.262	4.94
488.612	4.94
488.961	4.95
489.311	4.95
489.661	4.96
490.011	4.95
490.36	4.94
490.71	4.95
491.06	4.95
491.409	4.95
491.759	4.94
492.108	4.96
492.458	4.96
492.807	4.96
493.157	4.96
493.506	4.97
493.855	4.95
494.204	4.97
494.554	4.97
494.903	4.96
495.252	4.97
495.601	4.98
495.95	5
496.299	4.99
496.648	5
496.997	5.01
497.346	5.05
497.695	5.09
498.043	5.09
498.392	5.1
498.741	5.12
499.09	5.14
499.438	5.13
499.787	5.16
500.135	5.16
500.484	5.18
500.832	5.18
501.181	5.21
501.529	5.22
501.878	5.22
502.226	5.23
502.574	5.23
502.923	5.23
503.271	5.24
503.619	5.27
503.967	5.27
504.315	5.26
504.663	5.25
505.011	5.25
505.359	5.26
505.707	5.26
506.055	5.27
506.403	5.3
506.751	5.32
507.098	5.3
507.446	5.3
507.794	5.31
508.141	5.33
508.489	5.35
508.837	5.36
509.184	5.39
509.531	5.41
509.879	5.44
510.226	5.46
510.574	5.48
510.921	5.49
511.268	5.5
511.616	5.5
511.963	5.51
512.31	5.51
512.657	5.54
513.004	5.57
513.351	5.6
513.698	5.61
514.045	5.61
514.392	5.64
514.739	5.66
515.086	5.67
515.432	5.68
515.779	5.67
516.126	5.7
516.473	5.7
516.819	5.73
517.166	5.71
517.512	5.73
517.859	5.71
518.205	5.71
518.552	5.73
518.898	5.74
519.245	5.75
519.591	5.76
519.937	5.75
520.283	5.74
520.629	5.74
520.976	5.73
521.322	5.74
521.668	5.73
522.014	5.75
522.36	5.76
522.706	5.76
523.052	5.78
523.398	5.78
523.743	5.8
524.089	5.8
524.435	5.82
524.781	5.83
525.126	5.85
525.472	5.86
525.817	5.87
526.163	5.88
526.509	5.89
526.854	5.91
527.199	5.91
527.545	5.92
527.89	5.94
528.235	5.94
528.581	5.96
528.926	5.95
529.271	5.96
529.616	5.96
529.961	5.96
530.306	5.97
530.651	5.97
530.996	5.97
531.341	5.97
531.686	5.98
532.031	5.98
532.376	5.98
532.721	5.99
533.065	5.99
533.41	6
533.755	6
534.099	6.01
534.444	6.03
534.788	6.06
535.133	6.05
535.477	6.05
535.822	6.05
536.166	6.06
536.51	6.06
536.855	6.09
537.199	6.11
537.543	6.11
537.887	6.12
538.231	6.14
538.576	6.15
538.92	6.17
539.264	6.18
539.608	6.18
539.951	6.18
540.295	6.2
540.639	6.21
540.983	6.23
541.327	6.23
541.671	6.23
542.014	6.21
542.358	6.22
542.701	6.22
543.045	6.24
543.389	6.26
543.732	6.25
544.075	6.26
544.419	6.25
544.762	6.25
545.105	6.27
545.449	6.26
545.792	6.27
546.135	6.27
546.478	6.26
546.821	6.27
547.165	6.28
547.508	6.28
547.851	6.27
548.194	6.26
548.536	6.27
548.879	6.3
549.222	6.31
549.565	6.33
549.908	6.33
550.25	6.3
550.593	6.29
550.936	6.31
551.278	6.3
551.621	6.32
551.963	6.32
552.306	6.32
552.648	6.31
552.991	6.32
553.333	6.31
553.675	6.29
554.017	6.29
554.36	6.29
554.702	6.33
555.044	6.32
555.386	6.32
555.728	6.29
556.07	6.31
556.412	6.28
556.754	6.29
557.096	6.26
557.438	6.26
557.78	6.29
558.121	6.3
558.463	6.31
558.805	6.31
559.147	6.32
559.488	6.29
559.83	6.36
560.171	6.35
560.513	6.38
560.854	6.45
561.196	6.44
561.537	6.42
561.878	6.42
562.22	6.45
562.561	6.45
562.902	6.45
563.243	6.42
563.584	6.46
563.925	6.46
564.266	6.48
564.607	6.5
564.948	6.47
565.289	6.45
565.63	6.44
565.971	6.46
566.312	6.47
566.653	6.48
566.993	6.46
567.334	6.48
567.675	6.45
568.015	6.44
568.356	6.47
568.696	6.49
569.037	6.51
569.377	6.51
569.718	6.53
570.058	6.56
570.398	6.54
570.739	6.54
571.079	6.53
571.419	6.53
571.759	6.54
572.099	6.54
572.439	6.56
572.779	6.56
573.119	6.54
573.459	6.56
573.799	6.57
574.139	6.56
574.479	6.53
574.819	6.53
575.158	6.52
575.498	6.49
575.838	6.47
576.177	6.43
576.517	6.41
576.856	6.39
577.196	6.38
577.535	6.37
577.875	6.38
578.214	6.38
578.553	6.4
578.893	6.39
579.232	6.4
579.571	6.39
579.91	6.39
580.25	6.38
580.589	6.34
580.928	6.36
581.267	6.36
581.606	6.39
581.945	6.41
582.283	6.47
582.622	6.44
582.961	6.46
583.3	6.49
583.639	6.5
583.977	6.5
584.316	6.53
584.654	6.54
584.993	6.52
585.332	6.52
585.67	6.5
586.008	6.51
586.347	6.52
586.685	6.52
587.024	6.54
587.362	6.59
587.7	6.6
588.038	6.63
588.376	6.66
588.715	6.65
589.053	6.68
589.391	6.66
589.729	6.73
590.067	6.7
590.404	6.71
590.742	6.72
591.08	6.7
591.418	6.72
591.756	6.72
592.093	6.74
592.431	6.75
592.769	6.8
593.106	6.82
593.444	6.78
593.781	6.81
594.119	6.81
594.456	6.79
594.793	6.78
595.131	6.73
595.468	6.7
595.805	6.68
596.143	6.71
596.48	6.72
596.817	6.71
597.154	6.75
597.491	6.77
597.828	6.76
598.165	6.8
598.502	6.76
598.839	6.76
599.176	6.77
599.512	6.77
599.849	6.75
600.186	6.76
600.523	6.81
600.859	6.84
601.196	6.83
601.532	6.83
601.869	6.86
602.205	6.87
602.542	6.86
602.878	6.88
603.215	6.84
603.551	6.84
603.887	6.85
604.223	6.81
604.56	6.79
604.896	6.82
605.232	6.82
605.568	6.83
605.904	6.83
606.24	6.81
606.576	6.81
606.912	6.83
607.248	6.81
607.583	6.82
607.919	6.77
608.255	6.76
608.591	6.8
608.926	6.82
609.262	6.85
609.597	6.89
609.933	6.89
610.268	6.89
610.604	6.9
610.939	6.93
611.275	6.94
611.61	6.96
611.945	6.99
612.281	6.98
612.616	6.98
612.951	7.06
613.286	7.06
613.621	7.08
613.956	7.06
614.291	7.05
614.626	7.07
614.961	7.1
615.296	7.11
615.631	7.11
615.966	7.12
616.3	7.06
616.635	7.03
616.97	7.05
617.304	7.07
617.639	7.11
617.973	7.03
618.308	7.09
618.642	7.15
618.977	7.1
619.311	7.13
619.646	7.16
619.98	7.1
620.314	7.11
620.648	7.15
620.983	7.16
621.317	7.17
621.651	7.17
621.985	7.16
622.319	7.17
622.653	7.19
622.987	7.22
623.321	7.27
623.655	7.31
623.988	7.35
624.322	7.33
624.656	7.35
624.99	7.39
625.323	7.37
625.657	7.34
625.99	7.34
626.324	7.31
626.657	7.29
626.991	7.31
627.324	7.37
627.658	7.36
627.991	7.36
628.324	7.39
628.657	7.38
628.991	7.36
629.324	7.37
629.657	7.35
629.99	7.34
630.323	7.29
630.656	7.29
630.989	7.28
631.322	7.24
631.655	7.2
631.987	7.2
632.32	7.21
632.653	7.15
632.986	7.18
633.318	7.21
633.651	7.19
633.984	7.17
634.316	7.08
634.649	7.07
634.981	7.04
635.313	7.04
635.646	7.05
635.978	7.09
636.31	7.09
636.643	7.1
636.975	7.08
637.307	7.19
637.639	7.22
637.971	7.24
638.303	7.27
638.635	7.24
638.967	7.26
639.299	7.3
639.631	7.31
639.963	7.22
640.295	7.19
640.626	7.21
640.958	7.25
641.29	7.33
641.621	7.36
641.953	7.36
642.285	7.34
642.616	7.39
642.948	7.35
643.279	7.37
643.61	7.35
643.942	7.34
644.273	7.29
644.604	7.23
644.936	7.17
645.267	7.24
645.598	7.23
645.929	7.19
646.26	7.13
646.591	7.18
646.922	7.25
647.253	7.26
647.584	7.32
647.915	7.32
648.245	7.38
648.576	7.32
648.907	7.41
649.238	7.45
649.568	7.43
649.899	7.48
650.229	7.49
650.56	7.56
650.89	7.56
651.221	7.65
651.551	7.71
651.882	7.74
652.212	7.74
652.542	7.75
652.872	7.77
653.203	7.78
653.533	7.84
653.863	7.81
654.193	7.81
654.523	7.81
654.853	7.8
655.183	7.72
655.513	7.75
655.843	7.7
656.172	7.72
656.502	7.76
656.832	7.77
657.162	7.82
657.491	7.72
657.821	7.82
658.15	7.75
658.48	7.73
658.809	7.71
659.139	7.71
659.468	7.67
659.798	7.67
660.127	7.65
660.456	7.63
660.785	7.67
661.115	7.73
661.444	7.75
661.773	7.71
662.102	7.72
662.431	7.76
662.76	7.8
663.089	7.8
663.418	7.73
663.747	7.7
664.076	7.66
664.404	7.71
664.733	7.59
665.062	7.62
665.39	7.69
665.719	7.68
666.048	7.64
666.376	7.71
666.705	7.74
667.033	7.82
667.362	7.87
667.69	7.87
668.018	7.87
668.347	7.87
668.675	7.94
669.003	8.02
669.331	8.06
669.659	8.01
669.987	8.03
670.315	8.11
670.643	8.09
670.971	8.1
671.299	8.11
671.627	8.13
671.955	8.08
672.283	8.1
672.61	8.09
672.938	8.13
673.266	8.21
673.593	8.31
673.921	8.34
674.249	8.29
674.576	8.33
674.904	8.37
675.231	8.33
675.558	8.31
675.886	8.25
676.213	8.2
676.54	8.2
676.867	8.26
677.195	8.19
677.522	8.17
677.849	8.18
678.176	8.24
678.503	8.22
678.83	8.31
679.157	8.37
679.484	8.41
679.81	8.43
680.137	8.38
680.464	8.32
680.791	8.33
681.117	8.31
681.444	8.29
681.771	8.22
682.097	8.25
682.424	8.27
682.75	8.21
683.077	8.21
683.403	8.26
683.729	8.18
684.056	8.27
684.382	8.29
684.708	8.28
685.034	8.3
685.36	8.33
685.686	8.25
686.012	8.1
686.339	8.18
686.664	8.12
686.99	8.19
687.316	8.17
687.642	8.18
687.968	8.24
688.294	8.28
688.619	8.3
688.945	8.2
689.271	8.19
689.596	8.3
689.922	8.26
690.247	8.23
690.573	8.19
690.898	8.15
691.224	8.2
691.549	8.19
691.874	8.07
692.2	8.11
692.525	8.11
692.85	8.18
693.175	8.13
693.5	8.16
693.825	8.07
694.15	8.07
694.475	8.09
694.8	8.06
695.125	7.97
695.45	8
695.775	8.17
696.099	8.18
696.424	8.16
696.749	8.17
697.073	8.19
697.398	8.31
697.723	8.4
698.047	8.46
698.372	8.49
698.696	8.55
699.02	8.55
699.345	8.53
699.669	8.6
699.993	8.64
700.318	8.73
700.642	8.83
700.966	8.9
701.29	8.85
701.614	8.81
701.938	8.91
702.262	8.97
702.586	8.99
702.91	8.98
703.234	9.08
703.557	9.18
703.881	9.19
704.205	9.26
704.529	9.2
704.852	9.22
705.176	9.3
705.499	9.3
705.823	9.34
706.146	9.37
706.47	9.31
706.793	9.25
707.117	9.19
707.44	9.14
707.763	9.03
708.086	8.94
708.409	8.99
708.733	8.92
709.056	8.88
709.379	8.91
709.702	8.87
710.025	8.7
710.348	8.65
710.671	8.61
710.993	8.52
711.316	8.51
711.639	8.41
711.962	8.43
712.284	8.35
712.607	8.26
712.93	8.49
713.252	8.55
713.575	8.63
713.897	8.66
714.22	8.57
714.542	8.63
714.864	8.63
715.187	8.61
715.509	8.63
715.831	8.69
716.153	8.6
716.475	8.72
716.798	8.89
717.12	8.88
717.442	9.08
717.764	8.98
718.085	8.96
718.407	9.01
718.729	8.94
719.051	9.02
719.373	9.02
719.695	8.8
720.016	8.81
720.338	8.83
720.659	8.87
720.981	8.93
721.302	8.99
721.624	9.06
721.945	9.14
722.267	9.31
722.588	9.11
722.909	9.11
723.231	8.94
723.552	8.88
723.873	9.07
724.194	8.93
724.515	9
724.836	8.89
725.157	9.03
725.478	9.1
725.799	9.09
726.12	9.06
726.441	9.13
726.762	9.07
727.083	8.98
727.403	9.06
727.724	9.26
728.045	9.23
728.365	9.12
728.686	9.07
729.006	9.02
729.327	9.11
729.647	9.14
729.967	9.24
730.288	9.21
730.608	8.99
730.928	8.8
731.249	8.88
731.569	9.04
731.889	9.01
732.209	9.08
732.529	9.01
732.849	9.25
733.169	9.3
733.489	9.32
733.809	9.31
734.129	9.34
734.448	9.29
734.768	9.23
735.088	9.52
735.408	9.63
735.727	9.8
736.047	9.86
736.366	9.91
736.686	10.07
737.005	10.15
737.325	10.25
737.644	10.38
737.963	10.41
738.283	10.44
738.602	10.43
738.921	10.47
739.24	10.85
739.56	10.65
739.879	10.63
740.198	10.46
740.517	10.53
740.836	10.4
741.155	10.4
741.473	10.49
741.792	10.55
742.111	10.43
742.43	10.21
742.748	10.32
743.067	10.38
743.386	10.19
743.704	10.21
744.023	10.34
744.341	10.32
744.66	10.54
744.978	10.37
745.297	10.28
745.615	10.13
745.933	9.92
746.252	10.03
746.57	9.8
746.888	9.9
747.206	9.81
747.524	9.87
747.842	9.93
748.16	10.03
748.478	9.91
748.796	9.96
749.114	10.15
749.432	10.17
749.749	10.31
750.067	10.45
750.385	10.41
750.703	10.41
751.02	10.66
751.338	10.49
751.655	10.44
751.973	10.68
752.29	10.9
752.608	10.71
752.925	10.69
753.242	10.93
753.56	10.76
753.877	10.6
754.194	10.31
754.511	10.43
754.828	10.25
755.145	10.13
755.462	10.18
755.779	10.26
756.096	10.2
756.413	10.26
756.73	9.98
757.047	10.12
757.364	10.11
757.68	10.01
757.997	9.91
758.314	10.15
758.63	9.96
758.947	9.78
759.264	9.95
759.58	10.18
759.896	10.34
760.213	10.51
760.529	10.92
760.846	11.12
761.162	10.84
761.478	11.03
761.794	10.67
762.11	10.68
762.426	10.59
762.743	10.65
763.059	10.56
763.375	10.77
763.69	10.94
764.006	11.06
764.322	11.17
764.638	11.19
764.954	11.35
765.27	11.36
765.585	11.38
765.901	11.55
766.216	11.67
766.532	11.65
766.848	11.63
767.163	11.51
767.478	11.63
767.794	11.73
768.109	11.58
768.424	12.23
768.74	12.35
769.055	12.33
769.37	12.3
769.685	12.15
770	12.21
770.315	11.88
770.63	11.68
770.945	11.57
771.26	11.66
771.575	11.52
771.89	11.81
772.205	11.79
772.52	11.34
772.834	11.06
773.149	10.8
773.464	11.08
773.778	11.33
774.093	10.8
774.407	10.65
774.722	10.76
775.036	10.57
775.351	10.78
775.665	10.65
775.979	10.63
776.293	10.81
776.608	10.82
776.922	10.97
777.236	11.04
777.55	11.36
777.864	11.62
778.178	11.68
778.492	11.9
778.806	11.58
779.12	12.24
779.434	12.12
779.747	12.09
780.061	12.01
780.375	11.53
780.689	12.24
781.002	12.63
781.316	12.63
781.629	12.88
781.943	12.76
782.256	13.22
782.57	13.35
782.883	13.28
783.196	13.33
783.51	13.36
783.823	13.26
784.136	12.9
784.449	12.7
784.762	12.82
785.075	12.31
785.388	12.68
785.701	12.28
786.014	12.26
786.327	12.44
786.64	12.7
786.953	12.78
787.266	11.99
787.578	11.92
787.891	11.97
788.204	11.94
788.516	11.93
788.829	12.01
789.141	12.11
789.454	12.34
789.766	12.37
790.079	11.98
790.391	12.05
790.703	12.32
791.016	12.35
791.328	12.71
791.64	12.83
791.952	12.59
792.264	12.39
792.576	12.77
792.888	13.09
793.2	12.72
793.512	12.71
793.824	13.32
794.136	13.18
794.448	13.3
794.76	13.13
795.071	13.02
795.383	12.7
795.695	12.78
796.006	12.31
796.318	11.77
796.629	11.84
796.941	11.82
797.252	11.8
797.564	11.66
797.875	10.8
798.186	10.48
798.497	10.85
798.809	11.24
799.12	10.82
799.431	10.95
799.742	11.13
800.053	11.64
800.364	11.42
800.675	11.6
800.986	11.41
801.297	10.98
801.608	10.87
801.918	10.92
802.229	10.79
802.54	10.83
802.851	11.81
803.161	12.3
803.472	12.32
803.782	12.57
804.093	12.77
804.403	12.77
804.714	13.06
805.024	13.15
805.334	12.99
805.645	13.77
805.955	12.82
806.265	13.15
806.575	12.85
806.885	13.35
807.195	13.65
807.505	13.59
807.815	13.79
808.125	13.85
808.435	13.64
808.745	13.55
809.055	13.85
809.365	13.51
809.674	13.29
809.984	13.33
810.294	13
810.603	13.05
810.913	13.19
811.222	13.07
811.532	12.5
811.841	12.5
812.151	11.93
812.46	12.08
812.769	11.71
813.079	11.03
813.388	10.63
813.697	10.46
814.006	10.83
814.315	11.29
814.624	11.37
814.933	11.76
815.242	11.9
815.551	12.59
815.86	12.8
816.169	12.81
816.478	13.1
816.786	13.34
817.095	13.17
817.404	13.17
817.712	13.31
818.021	13.84
818.33	13.91
818.638	13.93
818.947	14.67
819.255	14.67
819.563	15.2
819.872	15.28
820.18	15.4
820.488	15.06
820.796	15
821.105	14.95
821.413	14.9
821.721	14.85
822.029	14.69
822.337	14.73
822.645	14.88
822.953	14.81
823.26	14.73
823.568	14.7
823.876	14.78
824.184	14.83
824.491	14.89
824.799	14.86
825.107	14.83
825.414	14.88
825.722	14.94
826.029	14.86
826.337	14.94
826.644	14.99
826.951	15.19
827.259	15.24
827.566	15.21
827.873	15.25
828.18	15.39
828.488	15.44
828.795	15.25
829.102	15.09
829.409	15.26
829.716	15.59
830.023	15.93
830.329	15.86
830.636	16.1
830.943	16.07
831.25	16.22
831.557	16.27
831.863	15.74
832.17	15.58
832.476	15.81
832.783	15.39
833.089	15.07
833.396	15.25
833.702	15.26
834.009	15.36
834.315	15.44
834.621	15.25
834.928	15.1
835.234	15.45
835.54	15.5
835.846	15.32
836.152	15.02
836.458	14.53
836.764	14.75
837.07	13.96
837.376	13.44
837.682	13.58
837.988	13.76
838.293	13.76
838.599	13.97
838.905	13.03
839.211	13.43
839.516	12.56
839.822	11.8
840.127	11.16
840.433	11.62
840.738	11.39
841.044	10.82
841.349	11.17
841.654	11.57
841.959	11.6
842.265	11.23
842.57	10.68
842.875	11.16
843.18	10.71
843.485	10.69
843.79	10.73
844.095	9.43
844.4	8.47
844.705	9.66
845.01	9.23
845.315	10.7
845.619	10.13
845.924	12.11
846.229	12.57
846.533	13.93
846.838	12.21
847.142	11.26
847.447	11.08
847.751	9.06
848.056	7.31
848.36	7.36
848.664	7.54
848.969	8.15
849.273	5.98
849.577	5.96
849.881	6.96
850.185	8.95
850.489	10.9
850.794	12.98
851.097	14.03
851.401	13.26
851.705	12.1
852.009	13.84
852.313	12.4
852.617	12.16
852.92	11.59
853.224	11.71
853.528	13.73
853.831	13.63
854.135	15.08
854.438	13.86
854.742	13.34
855.045	13.08
855.349	12.2
855.652	14.3
855.955	15.21
856.259	14.93
856.562	14.07
856.865	13.64
857.168	13.6
857.471	10.7
857.774	11.45
858.077	12.43
858.38	12.19
858.683	11.53
858.986	12.77
859.289	12.22
859.592	13.35
859.894	11.67
860.197	11.02
860.5	11.19
860.802	12.29
861.105	12.5
861.407	10.78
861.71	12.55
862.012	12.46
862.315	9.75
862.617	9.69
862.919	8.76
863.222	10.44
863.524	10.15
863.826	11.14
864.128	11.81
864.43	12.7
864.732	10.51
865.034	12.51
865.336	9.15
865.638	8.89
865.94	6.89
866.242	6.45
866.544	7.31
866.846	7.06
867.147	8.15
867.449	7.05
867.751	9.78
868.052	10.79
868.354	9.26
868.655	12.45
868.957	13.45
869.258	12.72
869.56	10.04
869.861	7.02
870.162	3.96
870.463	3.59
870.765	4.13
871.066	3.16
871.367	0.75
871.668	3.78
871.969	3.87
872.27	6.48
872.571	7.45
872.872	7.75
873.173	6.65
873.473	3.75
873.774	8.37
874.075	10.16
874.376	7.68
874.676	9.43
874.977	5.7
875.277	6.47
875.578	6.33
875.878	6.58
876.179	9.11
876.479	11.54
876.78	10.85
877.08	9.49
877.38	11.26
877.68	13.27
877.981	12.43
878.281	12.81
878.581	11.27
