Data from BU26944_Reflection_00010.txt Node
Date: Tue Nov 19 10:54:47 EST 2019
User: vgr7
Spectrometer: USB2G7710
Scans to average: 3
Trigger mode: 4
Integration Time (sec): 2.000000E-2
Electric dark correction enabled: true
Boxcar width: 10
XAxis mode: Wavelengths
Number of Pixels in Spectrum: 2048
>>>>>Begin Spectral Data<<<<<
177.721	240.89
178.105	303.54
178.488	200.35
178.871	217.14
179.254	-1180
179.636	-63.9
180.019	-98.78
180.402	-200
180.785	-50.59
181.168	63.74
181.55	147.21
181.933	58.87
182.316	50.19
182.698	84.92
183.081	114.78
183.463	209.61
183.846	357.23
184.228	282.52
184.611	-2386.49
184.993	-580
185.376	-862.41
185.758	1353.01
186.14	1289.47
186.522	-463.98
186.904	-150.6
187.287	-126.45
187.669	-76
188.051	-77.27
188.433	-41.76
188.815	-33.21
189.197	7.94
189.579	8.29
189.961	-10.17
190.342	3.41
190.724	16.43
191.106	26.11
191.488	35.36
191.869	27.7
192.251	18.69
192.633	27.01
193.014	28.71
193.396	42.24
193.777	30.41
194.159	17.91
194.54	20.15
194.922	10.01
195.303	-1.37
195.684	-7.12
196.065	-2.3
196.447	-6.65
196.828	-0.06
197.209	-8.83
197.59	17.37
197.971	17.48
198.352	-6.17
198.733	-12.51
199.114	-15
199.495	-17.99
199.876	-26.13
200.257	-24.78
200.638	-14.65
201.018	-14.9
201.399	-9.24
201.78	-1.51
202.16	5.29
202.541	3
202.922	13.14
203.302	20.52
203.683	22.19
204.063	24.92
204.444	14.67
204.824	9.81
205.204	7.58
205.585	-0.05
205.965	-0.05
206.345	13.95
206.725	35.3
207.106	60.81
207.486	68.2
207.866	76.34
208.246	81.81
208.626	71.15
209.006	49.68
209.386	42.68
209.766	14.07
210.145	15.95
210.525	0.44
210.905	1.99
211.285	17.09
211.664	22.77
212.044	14.93
212.424	26.43
212.803	21.91
213.183	24.91
213.562	21.97
213.942	22.58
214.321	25.76
214.701	-0.9
215.08	-3.65
215.459	-13.26
215.838	-28.5
216.218	-67.64
216.597	-42.55
216.976	-35.47
217.355	-27.84
217.734	3.38
218.113	24.63
218.492	47.2
218.871	33.09
219.25	23.2
219.629	7.38
220.008	37.94
220.387	21.01
220.766	30.34
221.144	48.69
221.523	35.88
221.902	12.83
222.28	-1.9
222.659	33.8
223.037	36.04
223.416	40.86
223.794	40.28
224.173	24.57
224.551	23.13
224.929	16.69
225.308	18.55
225.686	7.25
226.064	-6.75
226.442	-3.54
226.821	-3.28
227.199	-1.3
227.577	2.86
227.955	5.67
228.333	7.86
228.711	9.39
229.089	5.59
229.467	5.17
229.845	6.12
230.222	5.33
230.6	2.41
230.978	1.9
231.356	1.99
231.733	3.43
232.111	5.49
232.488	6.35
232.866	8.66
233.243	7.4
233.621	8.34
233.998	10.2
234.376	8.98
234.753	8.85
235.13	8.22
235.508	8.12
235.885	5.66
236.262	4.44
236.639	3.04
237.016	3.57
237.393	3.44
237.77	4.61
238.147	5.81
238.524	5.78
238.901	5.05
239.278	4.11
239.655	3.71
240.032	3.66
240.409	3.4
240.785	3.84
241.162	4.12
241.539	4.29
241.915	4.26
242.292	4.08
242.668	4.11
243.045	4.43
243.421	4.22
243.798	4.57
244.174	4.53
244.551	4.68
244.927	4.88
245.303	4.96
245.679	4.79
246.056	4.73
246.432	4.75
246.808	4.93
247.184	5.11
247.56	4.97
247.936	4.99
248.312	5.16
248.688	5.01
249.064	5.18
249.44	5.07
249.815	5.04
250.191	5.39
250.567	5.35
250.943	5.21
251.318	5.43
251.694	5.31
252.069	5.37
252.445	5.51
252.82	5.84
253.196	6.05
253.571	6.19
253.947	6.21
254.322	6.16
254.697	6.07
255.073	5.85
255.448	5.58
255.823	5.65
256.198	5.12
256.573	4.97
256.948	4.85
257.323	4.92
257.698	5.01
258.073	4.81
258.448	5.03
258.823	4.85
259.198	4.9
259.573	4.68
259.948	4.76
260.322	4.76
260.697	4.47
261.072	4.45
261.446	4.39
261.821	4.27
262.195	4.19
262.57	4.29
262.944	4.4
263.319	4.7
263.693	4.65
264.067	4.82
264.442	4.93
264.816	4.84
265.19	4.86
265.564	4.74
265.938	4.6
266.313	4.36
266.687	4.39
267.061	4.23
267.435	4.49
267.809	4.15
268.183	4.06
268.556	4.1
268.93	4.04
269.304	4.01
269.678	4.19
270.051	4.14
270.425	3.96
270.799	3.69
271.172	3.6
271.546	3.49
271.919	3.44
272.293	3.43
272.666	3.47
273.04	3.4
273.413	3.22
273.787	3.27
274.16	3.21
274.533	3.37
274.906	3.43
275.279	3.33
275.653	3.57
276.026	3.56
276.399	3.38
276.772	3.39
277.145	3.31
277.518	3.22
277.891	3.44
278.263	3.46
278.636	3.69
279.009	3.65
279.382	3.63
279.755	3.56
280.127	3.55
280.5	3.58
280.872	3.55
281.245	3.61
281.617	3.72
281.99	3.82
282.362	3.75
282.735	3.73
283.107	3.76
283.479	3.87
283.852	3.81
284.224	3.92
284.596	3.8
284.968	3.85
285.34	3.81
285.713	3.83
286.085	3.86
286.457	3.87
286.829	3.84
287.201	3.87
287.572	4.02
287.944	3.91
288.316	4.02
288.688	4.15
289.06	4.31
289.431	4.27
289.803	4.33
290.175	4.29
290.546	4.25
290.918	4.23
291.289	4.02
291.661	4.09
292.032	4.01
292.403	4.03
292.775	4.13
293.146	4.29
293.517	4.1
293.889	4.18
294.26	4.16
294.631	4.33
295.002	4.41
295.373	4.38
295.744	4.6
296.115	4.52
296.486	4.48
296.857	4.41
297.228	4.5
297.599	4.57
297.97	4.77
298.34	4.81
298.711	4.9
299.082	5
299.452	4.97
299.823	5.07
300.194	5.16
300.564	5.19
300.935	5.16
301.305	5.34
301.676	5.28
302.046	5.34
302.416	5.17
302.787	5.3
303.157	5.32
303.527	5.4
303.897	5.44
304.267	5.59
304.637	5.69
305.008	5.66
305.378	5.69
305.748	5.67
306.117	5.78
306.487	5.89
306.857	5.88
307.227	6.09
307.597	6.16
307.967	6.25
308.336	6.18
308.706	6.43
309.076	6.54
309.445	6.77
309.815	6.97
310.184	7.17
310.554	7.06
310.923	7.12
311.293	7.04
311.662	7.12
312.031	7.15
312.401	7.14
312.77	7.33
313.139	7.32
313.508	7.34
313.877	7.41
314.246	7.43
314.616	7.68
314.985	7.61
315.353	7.83
315.722	8.04
316.091	8.2
316.46	8.11
316.829	8.1
317.198	8.17
317.567	8.15
317.935	8.17
318.304	8.45
318.672	8.59
319.041	8.63
319.41	8.68
319.778	8.92
320.147	9.18
320.515	9.07
320.883	9.12
321.252	9.25
321.62	9.27
321.988	9.38
322.357	9.23
322.725	9.46
323.093	9.43
323.461	9.37
323.829	9.47
324.197	9.62
324.565	9.75
324.933	9.72
325.301	9.6
325.669	9.75
326.037	9.74
326.405	9.79
326.772	9.91
327.14	9.9
327.508	9.77
327.875	9.72
328.243	9.79
328.61	9.87
328.978	9.91
329.346	10.03
329.713	10.1
330.08	10.37
330.448	10.4
330.815	10.39
331.182	10.47
331.55	10.46
331.917	10.39
332.284	10.26
332.651	10.34
333.018	10.45
333.385	10.42
333.752	10.35
334.119	10.28
334.486	10.28
334.853	10.35
335.22	10.26
335.587	10.32
335.954	10.26
336.32	10.26
336.687	10.32
337.054	10.23
337.42	10.17
337.787	10.09
338.153	10.05
338.52	10.16
338.886	10.23
339.253	10.17
339.619	10.23
339.986	10.38
340.352	10.36
340.718	10.44
341.084	10.44
341.451	10.51
341.817	10.61
342.183	10.6
342.549	10.7
342.915	10.8
343.281	10.89
343.647	11.06
344.013	11.05
344.379	11.04
344.745	11.11
345.11	11.14
345.476	11.17
345.842	11.12
346.208	11.11
346.573	10.99
346.939	11.17
347.304	11.17
347.67	11.22
348.035	11.15
348.401	11.17
348.766	11.1
349.132	11.1
349.497	11.12
349.862	11.22
350.228	11.12
350.593	11.14
350.958	11.21
351.323	11.25
351.688	11.39
352.053	11.3
352.418	11.22
352.783	11.18
353.148	11.14
353.513	11.21
353.878	11.14
354.243	11.16
354.608	11.14
354.972	11.1
355.337	11.03
355.702	11.05
356.066	11.04
356.431	11.13
356.795	11.06
357.16	11.02
357.524	10.9
357.889	10.84
358.253	10.8
358.618	10.73
358.982	10.6
359.346	10.52
359.71	10.5
360.075	10.5
360.439	10.52
360.803	10.56
361.167	10.54
361.531	10.5
361.895	10.51
362.259	10.45
362.623	10.43
362.987	10.41
363.351	10.41
363.714	10.33
364.078	10.31
364.442	10.33
364.806	10.33
365.169	10.25
365.533	10.31
365.896	10.28
366.26	10.2
366.623	10.18
366.987	10.11
367.35	10.08
367.714	10.02
368.077	9.94
368.44	9.8
368.803	9.63
369.167	9.64
369.53	9.53
369.893	9.45
370.256	9.41
370.619	9.33
370.982	9.28
371.345	9.19
371.708	9.09
372.071	9.05
372.434	8.97
372.797	9.02
373.159	8.88
373.522	8.83
373.885	8.77
374.247	8.7
374.61	8.68
374.973	8.64
375.335	8.58
375.698	8.55
376.06	8.51
376.423	8.5
376.785	8.47
377.147	8.4
377.51	8.32
377.872	8.21
378.234	8.15
378.596	8.06
378.958	8.04
379.321	7.99
379.683	7.89
380.045	7.85
380.407	7.75
380.769	7.7
381.13	7.62
381.492	7.56
381.854	7.54
382.216	7.45
382.578	7.35
382.939	7.33
383.301	7.24
383.663	7.17
384.024	7.14
384.386	7.08
384.747	7.07
385.109	7.02
385.47	7.02
385.832	6.96
386.193	6.96
386.554	6.86
386.916	6.83
387.277	6.76
387.638	6.69
387.999	6.61
388.36	6.59
388.721	6.54
389.082	6.49
389.443	6.42
389.804	6.39
390.165	6.39
390.526	6.36
390.887	6.33
391.248	6.31
391.609	6.28
391.969	6.2
392.33	6.16
392.691	6.14
393.051	6.08
393.412	6.03
393.772	5.95
394.133	5.95
394.493	5.86
394.854	5.85
395.214	5.82
395.574	5.81
395.935	5.74
396.295	5.69
396.655	5.6
397.015	5.53
397.376	5.49
397.736	5.41
398.096	5.35
398.456	5.31
398.816	5.28
399.176	5.23
399.535	5.2
399.895	5.16
400.255	5.12
400.615	5.08
400.975	5.04
401.334	5.02
401.694	4.97
402.054	4.93
402.413	4.89
402.773	4.84
403.132	4.78
403.492	4.78
403.851	4.74
404.211	4.76
404.57	4.75
404.929	4.74
405.288	4.75
405.648	4.71
406.007	4.68
406.366	4.63
406.725	4.58
407.084	4.55
407.443	4.5
407.802	4.49
408.161	4.48
408.52	4.48
408.879	4.49
409.238	4.51
409.596	4.51
409.955	4.48
410.314	4.49
410.673	4.46
411.031	4.41
411.39	4.39
411.748	4.39
412.107	4.36
412.465	4.32
412.824	4.31
413.182	4.29
413.54	4.26
413.899	4.24
414.257	4.23
414.615	4.19
414.974	4.2
415.332	4.19
415.69	4.16
416.048	4.13
416.406	4.08
416.764	4.05
417.122	4.04
417.48	4.02
417.838	3.99
418.195	4
418.553	4
418.911	4.01
419.269	3.99
419.626	3.99
419.984	3.98
420.342	3.95
420.699	3.94
421.057	3.94
421.414	3.93
421.772	3.92
422.129	3.92
422.486	3.9
422.844	3.87
423.201	3.86
423.558	3.85
423.915	3.86
424.273	3.85
424.63	3.85
424.987	3.86
425.344	3.85
425.701	3.82
426.058	3.81
426.415	3.79
426.772	3.77
427.128	3.75
427.485	3.72
427.842	3.71
428.199	3.7
428.555	3.66
428.912	3.64
429.269	3.63
429.625	3.63
429.982	3.63
430.338	3.63
430.695	3.59
431.051	3.6
431.407	3.56
431.764	3.55
432.12	3.54
432.476	3.51
432.832	3.5
433.189	3.5
433.545	3.49
433.901	3.49
434.257	3.49
434.613	3.48
434.969	3.47
435.325	3.49
435.681	3.51
436.036	3.52
436.392	3.53
436.748	3.53
437.104	3.53
437.459	3.52
437.815	3.52
438.171	3.54
438.526	3.52
438.882	3.52
439.237	3.53
439.593	3.52
439.948	3.51
440.304	3.52
440.659	3.52
441.014	3.52
441.369	3.52
441.725	3.52
442.08	3.5
442.435	3.51
442.79	3.48
443.145	3.47
443.5	3.47
443.855	3.47
444.21	3.47
444.565	3.45
444.92	3.45
445.275	3.45
445.629	3.45
445.984	3.44
446.339	3.46
446.693	3.44
447.048	3.42
447.403	3.42
447.757	3.43
448.112	3.42
448.466	3.42
448.82	3.43
449.175	3.43
449.529	3.45
449.883	3.44
450.238	3.43
450.592	3.43
450.946	3.41
451.3	3.39
451.654	3.36
452.008	3.35
452.362	3.33
452.716	3.31
453.07	3.3
453.424	3.3
453.778	3.27
454.132	3.28
454.486	3.27
454.839	3.26
455.193	3.26
455.547	3.24
455.9	3.25
456.254	3.24
456.607	3.23
456.961	3.21
457.314	3.22
457.668	3.23
458.021	3.22
458.375	3.23
458.728	3.23
459.081	3.25
459.434	3.26
459.787	3.27
460.141	3.28
460.494	3.3
460.847	3.3
461.2	3.31
461.553	3.32
461.906	3.34
462.259	3.33
462.611	3.33
462.964	3.35
463.317	3.36
463.67	3.36
464.022	3.38
464.375	3.38
464.728	3.37
465.08	3.37
465.433	3.39
465.785	3.4
466.138	3.43
466.49	3.42
466.843	3.44
467.195	3.45
467.547	3.46
467.899	3.43
468.252	3.44
468.604	3.44
468.956	3.46
469.308	3.45
469.66	3.48
470.012	3.49
470.364	3.52
470.716	3.53
471.068	3.54
471.42	3.54
471.772	3.57
472.123	3.59
472.475	3.62
472.827	3.6
473.178	3.61
473.53	3.63
473.882	3.65
474.233	3.63
474.585	3.64
474.936	3.65
475.288	3.68
475.639	3.68
475.99	3.69
476.342	3.7
476.693	3.71
477.044	3.71
477.395	3.7
477.746	3.68
478.097	3.65
478.448	3.64
478.8	3.63
479.15	3.62
479.501	3.62
479.852	3.62
480.203	3.64
480.554	3.65
480.905	3.64
481.255	3.63
481.606	3.65
481.957	3.64
482.307	3.63
482.658	3.64
483.009	3.64
483.359	3.64
483.709	3.63
484.06	3.63
484.41	3.63
484.761	3.63
485.111	3.63
485.461	3.64
485.811	3.65
486.162	3.66
486.512	3.66
486.862	3.66
487.212	3.66
487.562	3.65
487.912	3.65
488.262	3.64
488.612	3.65
488.961	3.64
489.311	3.65
489.661	3.65
490.011	3.64
490.36	3.64
490.71	3.65
491.06	3.66
491.409	3.68
491.759	3.68
492.108	3.68
492.458	3.68
492.807	3.7
493.157	3.7
493.506	3.7
493.855	3.71
494.204	3.73
494.554	3.74
494.903	3.76
495.252	3.77
495.601	3.8
495.95	3.82
496.299	3.84
496.648	3.86
496.997	3.89
497.346	3.95
497.695	3.96
498.043	3.99
498.392	4.01
498.741	4.04
499.09	4.08
499.438	4.12
499.787	4.14
500.135	4.17
500.484	4.22
500.832	4.26
501.181	4.3
501.529	4.35
501.878	4.41
502.226	4.47
502.574	4.52
502.923	4.56
503.271	4.62
503.619	4.68
503.967	4.74
504.315	4.79
504.663	4.84
505.011	4.91
505.359	4.97
505.707	5.02
506.055	5.09
506.403	5.15
506.751	5.23
507.098	5.32
507.446	5.41
507.794	5.49
508.141	5.58
508.489	5.66
508.837	5.72
509.184	5.77
509.531	5.85
509.879	5.93
510.226	6.03
510.574	6.11
510.921	6.2
511.268	6.28
511.616	6.38
511.963	6.48
512.31	6.58
512.657	6.68
513.004	6.78
513.351	6.88
513.698	7.03
514.045	7.15
514.392	7.28
514.739	7.37
515.086	7.49
515.432	7.62
515.779	7.73
516.126	7.87
516.473	8.01
516.819	8.12
517.166	8.24
517.512	8.33
517.859	8.45
518.205	8.54
518.552	8.66
518.898	8.75
519.245	8.87
519.591	8.99
519.937	9.08
520.283	9.21
520.629	9.33
520.976	9.44
521.322	9.57
521.668	9.71
522.014	9.85
522.36	10.01
522.706	10.17
523.052	10.34
523.398	10.51
523.743	10.7
524.089	10.85
524.435	11.03
524.781	11.21
525.126	11.37
525.472	11.52
525.817	11.63
526.163	11.75
526.509	11.88
526.854	12
527.199	12.12
527.545	12.22
527.89	12.33
528.235	12.43
528.581	12.53
528.926	12.63
529.271	12.74
529.616	12.83
529.961	12.93
530.306	13.03
530.651	13.14
530.996	13.23
531.341	13.38
531.686	13.49
532.031	13.61
532.376	13.74
532.721	13.86
533.065	14.01
533.41	14.15
533.755	14.29
534.099	14.39
534.444	14.53
534.788	14.68
535.133	14.82
535.477	14.96
535.822	15.13
536.166	15.31
536.51	15.5
536.855	15.68
537.199	15.87
537.543	16.06
537.887	16.27
538.231	16.5
538.576	16.7
538.92	16.9
539.264	17.12
539.608	17.29
539.951	17.47
540.295	17.65
540.639	17.83
540.983	17.99
541.327	18.17
541.671	18.33
542.014	18.5
542.358	18.67
542.701	18.85
543.045	19.03
543.389	19.18
543.732	19.34
544.075	19.53
544.419	19.69
544.762	19.89
545.105	20.06
545.449	20.26
545.792	20.46
546.135	20.68
546.478	20.88
546.821	21.13
547.165	21.37
547.508	21.6
547.851	21.84
548.194	22.07
548.536	22.32
548.879	22.58
549.222	22.85
549.565	23.11
549.908	23.33
550.25	23.51
550.593	23.81
550.936	24.08
551.278	24.33
551.621	24.64
551.963	24.92
552.306	25.22
552.648	25.49
552.991	25.73
553.333	25.98
553.675	26.26
554.017	26.51
554.36	26.74
554.702	27.05
555.044	27.32
555.386	27.6
555.728	27.89
556.07	28.17
556.412	28.38
556.754	28.6
557.096	28.88
557.438	29.23
557.78	29.51
558.121	29.8
558.463	30.11
558.805	30.43
559.147	30.69
559.488	30.91
559.83	31.19
560.171	31.47
560.513	31.78
560.854	32.05
561.196	32.35
561.537	32.64
561.878	32.87
562.22	33.19
562.561	33.49
562.902	33.75
563.243	34.03
563.584	34.31
563.925	34.62
564.266	34.9
564.607	35.13
564.948	35.37
565.289	35.61
565.63	35.86
565.971	36.06
566.312	36.28
566.653	36.6
566.993	36.85
567.334	37.09
567.675	37.31
568.015	37.54
568.356	37.74
568.696	38.01
569.037	38.26
569.377	38.44
569.718	38.64
570.058	38.89
570.398	39.1
570.739	39.33
571.079	39.57
571.419	39.73
571.759	39.93
572.099	40.12
572.439	40.3
572.779	40.49
573.119	40.72
573.459	40.91
573.799	41.08
574.139	41.22
574.479	41.46
574.819	41.64
575.158	41.82
575.498	41.99
575.838	42.14
576.177	42.31
576.517	42.53
576.856	42.71
577.196	42.89
577.535	43.08
577.875	43.3
578.214	43.46
578.553	43.7
578.893	43.9
579.232	44.07
579.571	44.26
579.91	44.44
580.25	44.57
580.589	44.83
580.928	44.91
581.267	45.12
581.606	45.22
581.945	45.36
582.283	45.53
582.622	45.76
582.961	45.98
583.3	46.15
583.639	46.29
583.977	46.53
584.316	46.66
584.654	46.76
584.993	46.86
585.332	47.02
585.67	47.14
586.008	47.32
586.347	47.49
586.685	47.6
587.024	47.68
587.362	47.88
587.7	48
588.038	48.2
588.376	48.3
588.715	48.46
589.053	48.65
589.391	48.79
589.729	48.88
590.067	48.96
590.404	49.08
590.742	49.24
591.08	49.26
591.418	49.43
591.756	49.6
592.093	49.82
592.431	49.94
592.769	50.02
593.106	50.09
593.444	50.2
593.781	50.25
594.119	50.43
594.456	50.49
594.793	50.52
595.131	50.62
595.468	50.75
595.805	50.81
596.143	50.81
596.48	50.88
596.817	50.92
597.154	50.98
597.491	51.01
597.828	51.04
598.165	51.15
598.502	51.16
598.839	51.19
599.176	51.18
599.512	51.25
599.849	51.34
600.186	51.51
600.523	51.53
600.859	51.72
601.196	51.81
601.532	51.95
601.869	52.04
602.205	52.06
602.542	52.1
602.878	52.15
603.215	52.27
603.551	52.39
603.887	52.5
604.223	52.54
604.56	52.66
604.896	52.76
605.232	52.78
605.568	52.88
605.904	52.89
606.24	53
606.576	53.1
606.912	53.21
607.248	53.16
607.583	53.27
607.919	53.32
608.255	53.36
608.591	53.33
608.926	53.43
609.262	53.59
609.597	53.69
609.933	53.76
610.268	53.8
610.604	53.8
610.939	53.82
611.275	53.94
611.61	53.96
611.945	54.01
612.281	54.07
612.616	54.14
612.951	54.21
613.286	54.24
613.621	54.29
613.956	54.39
614.291	54.53
614.626	54.63
614.961	54.68
615.296	54.73
615.631	54.79
615.966	54.81
616.3	54.75
616.635	54.72
616.97	54.74
617.304	54.7
617.639	54.78
617.973	54.89
618.308	54.95
618.642	54.99
618.977	54.98
619.311	55.04
619.646	55.11
619.98	55.21
620.314	55.27
620.648	55.24
620.983	55.21
621.317	55.26
621.651	55.24
621.985	55.26
622.319	55.31
622.653	55.34
622.987	55.35
623.321	55.45
623.655	55.5
623.988	55.56
624.322	55.65
624.656	55.71
624.99	55.7
625.323	55.7
625.657	55.72
625.99	55.72
626.324	55.75
626.657	55.76
626.991	55.75
627.324	55.76
627.658	55.8
627.991	55.85
628.324	55.8
628.657	55.87
628.991	55.98
629.324	56.01
629.657	56.05
629.99	56.15
630.323	56.12
630.656	56.22
630.989	56.22
631.322	56.28
631.655	56.26
631.987	56.27
632.32	56.24
632.653	56.29
632.986	56.47
633.318	56.53
633.651	56.56
633.984	56.71
634.316	56.71
634.649	56.76
634.981	56.81
635.313	56.95
635.646	57.04
635.978	56.99
636.31	56.98
636.643	57.04
636.975	56.99
637.307	56.97
637.639	56.87
637.971	56.93
638.303	56.94
638.635	56.89
638.967	57.05
639.299	57.17
639.631	57.2
639.963	57.1
640.295	57.12
640.626	57.06
640.958	57.07
641.29	57.14
641.621	57.08
641.953	57.15
642.285	57.18
642.616	57.11
642.948	57.12
643.279	57.23
643.61	57.13
643.942	57.2
644.273	57.22
644.604	57.26
644.936	57.29
645.267	57.39
645.598	57.43
645.929	57.37
646.26	57.26
646.591	57.19
646.922	57.14
647.253	57.14
647.584	57.07
647.915	57.05
648.245	57.16
648.576	57.19
648.907	57.06
649.238	57.03
649.568	56.95
649.899	57.04
650.229	57.04
650.56	57.11
650.89	57.18
651.221	57.31
651.551	57.41
651.882	57.38
652.212	57.38
652.542	57.5
652.872	57.48
653.203	57.56
653.533	57.66
653.863	57.76
654.193	57.81
654.523	57.9
654.853	57.88
655.183	57.76
655.513	57.87
655.843	57.94
656.172	57.95
656.502	57.99
656.832	58.01
657.162	58.09
657.491	58.19
657.821	58.18
658.15	58.25
658.48	58.24
658.809	58.24
659.139	58.19
659.468	58.04
659.798	58.07
660.127	58.11
660.456	58.14
660.785	58.18
661.115	58.13
661.444	58.14
661.773	58.17
662.102	58.15
662.431	58.06
662.76	58.14
663.089	58.17
663.418	58.19
663.747	58.14
664.076	58.06
664.404	58
664.733	57.95
665.062	57.93
665.39	57.85
665.719	57.98
666.048	58.02
666.376	58.26
666.705	58.34
667.033	58.26
667.362	58.25
667.69	58.21
668.018	58.2
668.347	58.24
668.675	58.29
669.003	58.4
669.331	58.49
669.659	58.45
669.987	58.45
670.315	58.42
670.643	58.38
670.971	58.48
671.299	58.48
671.627	58.51
671.955	58.41
672.283	58.5
672.61	58.51
672.938	58.58
673.266	58.35
673.593	58.34
673.921	58.44
674.249	58.5
674.576	58.58
674.904	58.64
675.231	58.83
675.558	58.79
675.886	58.81
676.213	58.77
676.54	58.8
676.867	58.71
677.195	58.65
677.522	58.67
677.849	58.57
678.176	58.48
678.503	58.45
678.83	58.38
679.157	58.5
679.484	58.48
679.81	58.44
680.137	58.63
680.464	58.64
680.791	58.67
681.117	58.67
681.444	58.63
681.771	58.64
682.097	58.52
682.424	58.57
682.75	58.49
683.077	58.44
683.403	58.44
683.729	58.54
684.056	58.71
684.382	58.73
684.708	58.79
685.034	58.98
685.36	59.12
685.686	59.39
686.012	59.44
686.339	59.42
686.664	59.45
686.99	59.31
687.316	59.28
687.642	59.29
687.968	59.21
688.294	59.19
688.619	59.34
688.945	59.29
689.271	59.37
689.596	59.47
689.922	59.5
690.247	59.56
690.573	59.49
690.898	59.69
691.224	59.63
691.549	59.63
691.874	59.52
692.2	59.48
692.525	59.31
692.85	59.18
693.175	59.18
693.5	59.19
693.825	59.37
694.15	59.34
694.475	59.49
694.8	59.58
695.125	59.71
695.45	59.6
695.775	59.78
696.099	59.73
696.424	59.79
696.749	59.9
697.073	59.89
697.398	59.95
697.723	59.76
698.047	59.75
698.372	59.72
698.696	59.79
699.02	59.76
699.345	59.79
699.669	59.8
699.993	59.94
700.318	59.96
700.642	59.96
700.966	60.05
701.29	59.82
701.614	59.75
701.938	59.7
702.262	59.75
702.586	59.72
702.91	59.73
703.234	59.59
703.557	59.59
703.881	59.53
704.205	59.5
704.529	59.63
704.852	59.67
705.176	59.74
705.499	59.83
705.823	59.95
706.146	59.96
706.47	60.03
706.793	59.97
707.117	59.9
707.44	59.74
707.763	59.74
708.086	59.87
708.409	60.04
708.733	60.19
709.056	60.12
709.379	60.14
709.702	60.13
710.025	60.36
710.348	60.25
710.671	60.16
710.993	60.18
711.316	60.19
711.639	60.21
711.962	60.16
712.284	60.12
712.607	60.12
712.93	60.17
713.252	60.13
713.575	60.09
713.897	60.03
714.22	60.12
714.542	60.01
714.864	60.12
715.187	59.89
715.509	59.75
715.831	59.76
716.153	59.65
716.475	59.59
716.798	59.44
717.12	59.48
717.442	59.66
717.764	59.54
718.085	59.46
718.407	59.53
718.729	59.61
719.051	59.64
719.373	59.68
719.695	59.55
720.016	59.58
720.338	59.52
720.659	59.66
720.981	59.77
721.302	59.92
721.624	59.81
721.945	59.81
722.267	60.02
722.588	59.99
722.909	60.08
723.231	60.08
723.552	60.19
723.873	60.21
724.194	60.19
724.515	60.58
724.836	60.58
725.157	60.63
725.478	60.61
725.799	60.58
726.12	60.48
726.441	60.6
726.762	60.53
727.083	60.68
727.403	60.6
727.724	60.55
728.045	60.63
728.365	60.56
728.686	60.71
729.006	60.64
729.327	60.77
729.647	60.57
729.967	60.61
730.288	60.73
730.608	60.8
730.928	60.73
731.249	60.6
731.569	60.58
731.889	60.36
732.209	60.47
732.529	60.59
732.849	60.55
733.169	60.43
733.489	60.47
733.809	60.46
734.129	60.6
734.448	60.5
734.768	60.32
735.088	60.3
735.408	60.37
735.727	60.11
736.047	59.99
736.366	60.16
736.686	60.3
737.005	60.2
737.325	60.2
737.644	60.29
737.963	60.21
738.283	60.19
738.602	60.59
738.921	60.21
739.24	60.15
739.56	60
739.879	60.01
740.198	60.18
740.517	60.05
740.836	59.95
741.155	59.99
741.473	60.13
741.792	60.25
742.111	60.27
742.43	60.5
742.748	60.69
743.067	60.59
743.386	60.34
743.704	60.32
744.023	60.16
744.341	60.05
744.66	59.99
744.978	60.03
745.297	60.02
745.615	60.23
745.933	60.24
746.252	60.69
746.57	60.82
746.888	60.7
747.206	60.74
747.524	60.82
747.842	60.81
748.16	60.57
748.478	60.79
748.796	60.61
749.114	60.71
749.432	60.72
749.749	60.74
750.067	60.57
750.385	60.52
750.703	60.46
751.02	60.63
751.338	60.45
751.655	60.63
751.973	60.41
752.29	60.13
752.608	59.93
752.925	60.2
753.242	60.36
753.56	60.44
753.877	60.28
754.194	60.43
754.511	60.29
754.828	60.74
755.145	60.37
755.462	60.69
755.779	60.78
756.096	60.49
756.413	60.25
756.73	60.45
757.047	60.41
757.364	60.45
757.68	60.22
757.997	60.63
758.314	60.56
758.63	60.67
758.947	61.05
759.264	60.93
759.58	60.79
759.896	61.14
760.213	61
760.529	61.36
760.846	61.07
761.162	61.37
761.478	61
761.794	61.11
762.11	60.99
762.426	60.5
762.743	60.85
763.059	61.31
763.375	61.53
763.69	61.73
764.006	62.2
764.322	62.3
764.638	62.44
764.954	62.42
765.27	62.56
765.585	62.6
765.901	62.59
766.216	62.75
766.532	62.33
766.848	62.4
767.163	62.48
767.478	62.58
767.794	62.46
768.109	62.59
768.424	62.89
768.74	63.15
769.055	63.53
769.37	63.3
769.685	63.14
770	62.95
770.315	62.79
770.63	62.79
770.945	62.9
771.26	62.68
771.575	62.96
771.89	62.81
772.205	62.73
772.52	62.97
772.834	62.53
773.149	62.55
773.464	62.58
773.778	62.46
774.093	62.84
774.407	63.07
774.722	63.3
775.036	63.16
775.351	63.29
775.665	63.31
775.979	63.51
776.293	63.55
776.608	63.59
776.922	63.71
777.236	63.7
777.55	63.47
777.864	63.38
778.178	63.38
778.492	63.4
778.806	63.39
779.12	63.69
779.434	64.14
779.747	64.26
780.061	63.95
780.375	63.67
780.689	63.6
781.002	63.79
781.316	64.06
781.629	63.92
781.943	63.8
782.256	64.1
782.57	63.79
782.883	63.55
783.196	63.7
783.51	63.67
783.823	63.4
784.136	63.23
784.449	63
784.762	63.28
785.075	62.92
785.388	63.23
785.701	63.28
786.014	63.01
786.327	62.97
786.64	63.36
786.953	63.46
787.266	63.39
787.578	63.44
787.891	63.38
788.204	63.52
788.516	63.44
788.829	63.54
789.141	63.79
789.454	63.96
789.766	64.18
790.079	63.94
790.391	63.67
790.703	64.1
791.016	64.4
791.328	63.71
791.64	63.42
791.952	63.09
792.264	62.83
792.576	63.08
792.888	63.07
793.2	63.53
793.512	63.36
793.824	63.44
794.136	63.39
794.448	63.04
794.76	63.11
795.071	62.91
795.383	62.65
795.695	62.49
796.006	62.42
796.318	62.13
796.629	62.08
796.941	62.13
797.252	61.74
797.564	61.98
797.875	62.28
798.186	62.8
798.497	62.95
798.809	63.56
799.12	63.31
799.431	63.24
799.742	62.53
800.053	63.18
800.364	62.91
800.675	62.81
800.986	63.18
801.297	63.21
801.608	63.63
801.918	63.49
802.229	63.66
802.54	63.5
802.851	63.52
803.161	63.82
803.472	63.67
803.782	63.89
804.093	63.26
804.403	63.55
804.714	63.87
805.024	64.4
805.334	63.88
805.645	63.04
805.955	63.45
806.265	63.91
806.575	63.32
806.885	63.93
807.195	64.6
807.505	64.01
807.815	63.87
808.125	63.87
808.435	63.9
808.745	64.25
809.055	65.13
809.365	64.94
809.674	65
809.984	65.15
810.294	64.81
810.603	65.52
810.913	65.55
811.222	65.04
811.532	64.56
811.841	64.88
812.151	65.41
812.46	65.94
812.769	66.4
813.079	66.97
813.388	66.92
813.697	65.44
814.006	66.41
814.315	66.71
814.624	66.56
814.933	66.8
815.242	66.78
815.551	65.95
815.86	66.69
816.169	66.85
816.478	67.07
816.786	68.15
817.095	68.02
817.404	66.92
817.712	66.75
818.021	66.01
818.33	66.25
818.638	66.65
818.947	66.23
819.255	65.57
819.563	65.48
819.872	65.28
820.18	65.11
820.488	64.61
820.796	64.4
821.105	64.08
821.413	64.02
821.721	63.68
822.029	63.77
822.337	63.65
822.645	63.51
822.953	63.52
823.26	63.57
823.568	63.37
823.876	63.49
824.184	63.53
824.491	63.6
824.799	63.5
825.107	63.48
825.414	63.38
825.722	63.45
826.029	63.1
826.337	62.95
826.644	63.06
826.951	63.18
827.259	62.9
827.566	62.8
827.873	62.89
828.18	63.22
828.488	63.22
828.795	63.27
829.102	63.37
829.409	63.04
829.716	62.85
830.023	63.03
830.329	62.76
830.636	62.89
830.943	63.02
831.25	62.73
831.557	62.42
831.863	62.73
832.17	62.7
832.476	63.09
832.783	63.28
833.089	63.17
833.396	63.18
833.702	63.85
834.009	64.92
834.315	64.45
834.621	63.98
834.928	63.97
835.234	63.55
835.54	63.76
835.846	64.31
836.152	63.9
836.458	64.09
836.764	64.72
837.07	64.4
837.376	64.39
837.682	64.43
837.988	65.17
838.293	65.29
838.599	65.17
838.905	65.51
839.211	65.41
839.516	65.63
839.822	65.96
840.127	66.06
840.433	64.83
840.738	65.44
841.044	66.26
841.349	65.97
841.654	66.12
841.959	65.87
842.265	65.42
842.57	66.13
842.875	66.24
843.18	66.38
843.485	66.37
843.79	66.48
844.095	67.53
844.4	65.6
844.705	64.12
845.01	64.02
845.315	64.4
845.619	64.17
845.924	63.85
846.229	63.56
846.533	63.32
846.838	64.13
847.142	63.45
847.447	62.61
847.751	62.87
848.056	64.19
848.36	63.61
848.664	65.01
848.969	64.78
849.273	65.89
849.577	63.84
849.881	64.53
850.185	63.99
850.489	63.25
850.794	63.8
851.097	64.9
851.401	64.99
851.705	64.9
852.009	65.85
852.313	64.63
852.617	66.45
852.92	66.75
853.224	65.92
853.528	66.2
853.831	67.81
854.135	68.01
854.438	66.27
854.742	65.52
855.045	64.41
855.349	64.16
855.652	63.8
855.955	64.49
856.259	64.25
856.562	66.62
856.865	65.65
857.168	67.38
857.471	66.92
857.774	68.28
858.077	67.94
858.38	68.74
858.683	72.2
858.986	68.37
859.289	68.77
859.592	69.8
859.894	70.23
860.197	66.96
860.5	67.51
860.802	69.88
861.105	69.7
861.407	72.1
861.71	71.44
862.012	70.23
862.315	72.24
862.617	73.43
862.919	69.95
863.222	72.49
863.524	70.07
863.826	71.76
864.128	71.83
864.43	71.98
864.732	69.08
865.034	65.35
865.336	68.18
865.638	67.11
865.94	64.83
866.242	62.96
866.544	64.42
866.846	65.95
867.147	65.18
867.449	66.84
867.751	62.28
868.052	61.8
868.354	62.74
868.655	62.47
868.957	61.33
869.258	62.15
869.56	62.01
869.861	62.84
870.162	62.13
870.463	62.34
870.765	63.04
871.066	65.11
871.367	66.68
871.668	66.61
871.969	67.1
872.27	71.75
872.571	74.12
872.872	75.16
873.173	74.86
873.473	74.82
873.774	73.78
874.075	76.11
874.376	78.43
874.676	76.54
874.977	77.06
875.277	76.51
875.578	75.93
875.878	74.9
876.179	76.27
876.479	75.05
876.78	73.06
877.08	72.49
877.38	72.45
877.68	73.46
877.981	72.22
878.281	72.93
878.581	67.31
