Data from BU26848_Reflection_00013.txt Node
Date: Mon Nov 18 16:25:54 EST 2019
User: vgr7
Spectrometer: USB2G7710
Scans to average: 3
Trigger mode: 4
Integration Time (sec): 2.000000E-2
Electric dark correction enabled: true
Boxcar width: 10
XAxis mode: Wavelengths
Number of Pixels in Spectrum: 2048
>>>>>Begin Spectral Data<<<<<
177.721	12.52
178.105	-197.87
178.488	-71.49
178.871	22.7
179.254	271.6
179.636	-525
180.019	65.82
180.402	191.67
180.785	2588.37
181.168	288.83
181.55	826.03
181.933	124.93
182.316	130.99
182.698	87.39
183.081	80.97
183.463	101.76
183.846	113.37
184.228	198.01
184.611	294.85
184.993	317.17
185.376	-1133.46
185.758	-918.24
186.14	-2640.46
186.522	1465.15
186.904	2051.87
187.287	1158.05
187.669	-2475.42
188.051	3566.17
188.433	-729.48
188.815	-328.84
189.197	-206.55
189.579	-229.7
189.961	-130.02
190.342	-143.4
190.724	-96.26
191.106	-108.32
191.488	-124.44
191.869	-138.32
192.251	-181.74
192.633	-159.23
193.014	-155.55
193.396	-230.5
193.777	-246.18
194.159	-217.96
194.54	-108.49
194.922	-104.06
195.303	-103.7
195.684	-98.98
196.065	-104.6
196.447	-111.16
196.828	-156.36
197.209	-211.25
197.59	-241.31
197.971	-486.75
198.352	-144.83
198.733	-317.48
199.114	-140.21
199.495	-90.49
199.876	-82.43
200.257	-87.83
200.638	-74.61
201.018	-78.39
201.399	-55.81
201.78	-59.28
202.16	-74.79
202.541	-145.03
202.922	-223.06
203.302	-164.56
203.683	-226.63
204.063	-228.43
204.444	-265.7
204.824	-178.33
205.204	-108.32
205.585	-98.31
205.965	-93.07
206.345	-184.4
206.725	-162.82
207.106	-374.56
207.486	-1015.63
207.866	-385.58
208.246	-658.89
208.626	-575.68
209.006	-615.11
209.386	-1491.78
209.766	-1188.33
210.145	-625.03
210.525	-329.41
210.905	-156.22
211.285	-182.89
211.664	-126.68
212.044	-116.64
212.424	-115.56
212.803	-130.96
213.183	-136.69
213.562	-100.11
213.942	-96.03
214.321	-76.12
214.701	-62.67
215.08	-58.68
215.459	-47.66
215.838	-49.3
216.218	-44.71
216.597	-29.63
216.976	-28.81
217.355	-21.22
217.734	-25.31
218.113	-18.1
218.492	-22.45
218.871	-20.28
219.25	-24.26
219.629	-22
220.008	-21.03
220.387	-20.1
220.766	-12
221.144	-21.12
221.523	-42.12
221.902	-32.82
222.28	-31.05
222.659	-16.48
223.037	-3.99
223.416	-3.43
223.794	-1.35
224.173	-8.97
224.551	-5.33
224.929	-11.57
225.308	-6.32
225.686	-3.02
226.064	-2
226.442	-3.48
226.821	-6.2
227.199	-3.73
227.577	-7.71
227.955	-5.35
228.333	-4.05
228.711	-3.02
229.089	0.68
229.467	1.84
229.845	0.01
230.222	1.2
230.6	-1.53
230.978	-0.91
231.356	0.32
231.733	1.5
232.111	2.82
232.488	3.44
232.866	3.73
233.243	2.92
233.621	3.9
233.998	5.43
234.376	4.99
234.753	5.36
235.13	6.72
235.508	8.95
235.885	8.22
236.262	7.88
236.639	6.82
237.016	5.94
237.393	6.23
237.77	7.89
238.147	6.54
238.524	5.94
238.901	6.38
239.278	6.35
239.655	6.86
240.032	6.76
240.409	6.16
240.785	6.27
241.162	6.69
241.539	7.17
241.915	6.86
242.292	7.07
242.668	7.31
243.045	7.23
243.421	6.43
243.798	6.64
244.174	6.51
244.551	6.61
244.927	6.28
245.303	6.21
245.679	5.81
246.056	6.11
246.432	6.12
246.808	5.69
247.184	5.34
247.56	5.09
247.936	5.01
248.312	4.79
248.688	4.66
249.064	4.61
249.44	4.7
249.815	4.46
250.191	4.44
250.567	4.35
250.943	4.1
251.318	4.33
251.694	4.11
252.069	3.96
252.445	3.82
252.82	4.14
253.196	4.23
253.571	4.48
253.947	4.32
254.322	4.75
254.697	4.93
255.073	5.45
255.448	5.19
255.823	5.26
256.198	5.71
256.573	5.64
256.948	5.44
257.323	5.17
257.698	5.3
258.073	5.23
258.448	4.97
258.823	4.94
259.198	4.79
259.573	4.77
259.948	4.74
260.322	4.69
260.697	4.47
261.072	4.21
261.446	4.18
261.821	4.31
262.195	4.23
262.57	4.21
262.944	4.1
263.319	4.15
263.693	4.11
264.067	3.92
264.442	4.1
264.816	4.11
265.19	3.96
265.564	3.98
265.938	3.83
266.313	3.79
266.687	3.94
267.061	4.01
267.435	4.04
267.809	3.82
268.183	3.8
268.556	3.73
268.93	3.97
269.304	4.05
269.678	3.88
270.051	3.86
270.425	3.76
270.799	3.78
271.172	3.82
271.546	3.79
271.919	3.74
272.293	3.67
272.666	3.73
273.04	3.78
273.413	3.74
273.787	3.79
274.16	4.04
274.533	3.79
274.906	3.93
275.279	3.85
275.653	4.08
276.026	4.27
276.399	4.31
276.772	4.16
277.145	4.11
277.518	3.99
277.891	3.88
278.263	3.93
278.636	3.95
279.009	3.9
279.382	3.99
279.755	4.01
280.127	4.21
280.5	4.28
280.872	4.35
281.245	4.39
281.617	4.58
281.99	4.4
282.362	4.52
282.735	4.14
283.107	4.15
283.479	4.05
283.852	3.9
284.224	3.97
284.596	3.92
284.968	3.89
285.34	3.93
285.713	3.92
286.085	3.95
286.457	4.06
286.829	4.14
287.201	4.04
287.572	3.98
287.944	3.85
288.316	3.69
288.688	3.66
289.06	3.68
289.431	3.66
289.803	3.68
290.175	3.72
290.546	3.94
290.918	3.97
291.289	4.1
291.661	4.31
292.032	4.47
292.403	4.64
292.775	4.73
293.146	4.74
293.517	4.8
293.889	4.88
294.26	4.62
294.631	4.68
295.002	4.83
295.373	4.87
295.744	4.89
296.115	5.07
296.486	5.02
296.857	5.06
297.228	5.09
297.599	5.08
297.97	5.11
298.34	5.23
298.711	5.38
299.082	5.3
299.452	5.2
299.823	5.27
300.194	5.3
300.564	5.3
300.935	5.38
301.305	5.36
301.676	5.35
302.046	5.68
302.416	5.8
302.787	5.9
303.157	6.04
303.527	6.14
303.897	6.11
304.267	6.29
304.637	6.31
305.008	6.29
305.378	6.53
305.748	6.57
306.117	6.44
306.487	6.42
306.857	6.58
307.227	6.69
307.597	6.53
307.967	6.63
308.336	6.71
308.706	6.84
309.076	6.99
309.445	7.18
309.815	7.09
310.184	6.99
310.554	6.96
310.923	7.08
311.293	7.03
311.662	7.07
312.031	7.07
312.401	7.12
312.77	7.24
313.139	7.33
313.508	7.24
313.877	7.37
314.246	7.42
314.616	7.42
314.985	7.44
315.353	7.35
315.722	7.42
316.091	7.36
316.46	7.37
316.829	7.36
317.198	7.25
317.567	7.32
317.935	7.37
318.304	7.43
318.672	7.35
319.041	7.73
319.41	7.84
319.778	7.96
320.147	7.91
320.515	7.77
320.883	7.61
321.252	7.89
321.62	7.95
321.988	7.91
322.357	7.96
322.725	7.96
323.093	8.23
323.461	8.26
323.829	8.51
324.197	8.47
324.565	8.55
324.933	8.62
325.301	8.62
325.669	8.64
326.037	8.62
326.405	8.74
326.772	8.7
327.14	8.8
327.508	8.81
327.875	8.88
328.243	9.06
328.61	9.17
328.978	9.15
329.346	9.2
329.713	9.28
330.08	9.39
330.448	9.37
330.815	9.31
331.182	9.32
331.55	9.24
331.917	9.37
332.284	9.55
332.651	9.59
333.018	9.63
333.385	9.86
333.752	9.98
334.119	10.07
334.486	9.87
334.853	9.8
335.22	9.78
335.587	9.82
335.954	9.78
336.32	9.7
336.687	9.82
337.054	9.77
337.42	9.84
337.787	9.86
338.153	9.94
338.52	10.15
338.886	10.23
339.253	10.17
339.619	10.19
339.986	10.05
340.352	10.11
340.718	10.14
341.084	10.01
341.451	9.98
341.817	9.85
342.183	9.92
342.549	9.94
342.915	10.01
343.281	10.04
343.647	10.1
344.013	10.17
344.379	10.05
344.745	10.19
345.11	10.12
345.476	10.1
345.842	10.16
346.208	10.1
346.573	10.1
346.939	10.21
347.304	10.15
347.67	10.17
348.035	10.19
348.401	10.3
348.766	10.37
349.132	10.39
349.497	10.43
349.862	10.57
350.228	10.49
350.593	10.49
350.958	10.55
351.323	10.55
351.688	10.6
352.053	10.73
352.418	10.72
352.783	10.68
353.148	10.7
353.513	10.66
353.878	10.59
354.243	10.51
354.608	10.58
354.972	10.62
355.337	10.67
355.702	10.6
356.066	10.6
356.431	10.51
356.795	10.54
357.16	10.47
357.524	10.3
357.889	10.4
358.253	10.42
358.618	10.39
358.982	10.3
359.346	10.2
359.71	10.13
360.075	10.07
360.439	10.13
360.803	10.1
361.167	10.1
361.531	10.11
361.895	10.06
362.259	10
362.623	9.96
362.987	9.89
363.351	9.85
363.714	9.76
364.078	9.74
364.442	9.62
364.806	9.58
365.169	9.67
365.533	9.58
365.896	9.47
366.26	9.38
366.623	9.37
366.987	9.35
367.35	9.31
367.714	9.27
368.077	9.21
368.44	9.2
368.803	9.13
369.167	9.05
369.53	9.02
369.893	8.98
370.256	8.94
370.619	8.91
370.982	8.87
371.345	8.8
371.708	8.74
372.071	8.74
372.434	8.75
372.797	8.6
373.159	8.52
373.522	8.52
373.885	8.52
374.247	8.49
374.61	8.48
374.973	8.44
375.335	8.36
375.698	8.29
376.06	8.18
376.423	8.13
376.785	8.11
377.147	8.13
377.51	8.01
377.872	7.95
378.234	7.96
378.596	7.9
378.958	7.82
379.321	7.78
379.683	7.75
380.045	7.68
380.407	7.67
380.769	7.62
381.13	7.51
381.492	7.45
381.854	7.44
382.216	7.34
382.578	7.25
382.939	7.18
383.301	7.09
383.663	7.03
384.024	7.01
384.386	7.01
384.747	6.89
385.109	6.88
385.47	6.81
385.832	6.76
386.193	6.77
386.554	6.77
386.916	6.72
387.277	6.66
387.638	6.67
387.999	6.62
388.36	6.67
388.721	6.63
389.082	6.59
389.443	6.49
389.804	6.47
390.165	6.44
390.526	6.42
390.887	6.45
391.248	6.43
391.609	6.39
391.969	6.32
392.33	6.31
392.691	6.28
393.051	6.26
393.412	6.2
393.772	6.15
394.133	6.08
394.493	6.03
394.854	5.98
395.214	5.88
395.574	5.83
395.935	5.74
396.295	5.72
396.655	5.67
397.015	5.64
397.376	5.59
397.736	5.56
398.096	5.53
398.456	5.49
398.816	5.48
399.176	5.43
399.535	5.37
399.895	5.33
400.255	5.29
400.615	5.25
400.975	5.22
401.334	5.17
401.694	5.17
402.054	5.15
402.413	5.16
402.773	5.11
403.132	5.1
403.492	5.06
403.851	5.04
404.211	5.02
404.57	4.99
404.929	5
405.288	5.01
405.648	5.02
406.007	4.99
406.366	4.94
406.725	4.97
407.084	4.95
407.443	4.93
407.802	4.92
408.161	4.93
408.52	4.89
408.879	4.88
409.238	4.87
409.596	4.87
409.955	4.86
410.314	4.9
410.673	4.88
411.031	4.87
411.39	4.89
411.748	4.86
412.107	4.88
412.465	4.85
412.824	4.8
413.182	4.76
413.54	4.74
413.899	4.77
414.257	4.75
414.615	4.72
414.974	4.72
415.332	4.69
415.69	4.64
416.048	4.63
416.406	4.61
416.764	4.58
417.122	4.55
417.48	4.52
417.838	4.5
418.195	4.5
418.553	4.49
418.911	4.45
419.269	4.45
419.626	4.42
419.984	4.39
420.342	4.38
420.699	4.36
421.057	4.36
421.414	4.32
421.772	4.29
422.129	4.3
422.486	4.27
422.844	4.25
423.201	4.24
423.558	4.23
423.915	4.22
424.273	4.21
424.63	4.2
424.987	4.18
425.344	4.16
425.701	4.15
426.058	4.13
426.415	4.13
426.772	4.1
427.128	4.09
427.485	4.1
427.842	4.1
428.199	4.09
428.555	4.08
428.912	4.11
429.269	4.11
429.625	4.08
429.982	4.08
430.338	4.09
430.695	4.09
431.051	4.09
431.407	4.09
431.764	4.1
432.12	4.1
432.476	4.11
432.832	4.09
433.189	4.09
433.545	4.09
433.901	4.08
434.257	4.07
434.613	4.08
434.969	4.07
435.325	4.06
435.681	4.05
436.036	4.04
436.392	4.01
436.748	4
437.104	4
437.459	4
437.815	4.01
438.171	4
438.526	4.01
438.882	4
439.237	4.01
439.593	4.02
439.948	4.01
440.304	4.02
440.659	4.02
441.014	4.02
441.369	4
441.725	4
442.08	4
442.435	4
442.79	3.99
443.145	3.98
443.5	3.99
443.855	4
444.21	4.01
444.565	4.01
444.92	4.01
445.275	4.01
445.629	4.01
445.984	4
446.339	3.99
446.693	3.96
447.048	3.93
447.403	3.93
447.757	3.93
448.112	3.91
448.466	3.89
448.82	3.9
449.175	3.9
449.529	3.88
449.883	3.87
450.238	3.85
450.592	3.86
450.946	3.84
451.3	3.82
451.654	3.8
452.008	3.79
452.362	3.77
452.716	3.75
453.07	3.74
453.424	3.72
453.778	3.71
454.132	3.72
454.486	3.72
454.839	3.71
455.193	3.69
455.547	3.69
455.9	3.72
456.254	3.72
456.607	3.71
456.961	3.72
457.314	3.72
457.668	3.72
458.021	3.7
458.375	3.71
458.728	3.7
459.081	3.71
459.434	3.71
459.787	3.71
460.141	3.73
460.494	3.74
460.847	3.75
461.2	3.77
461.553	3.79
461.906	3.81
462.259	3.82
462.611	3.85
462.964	3.88
463.317	3.86
463.67	3.88
464.022	3.9
464.375	3.89
464.728	3.9
465.08	3.94
465.433	3.95
465.785	3.96
466.138	3.99
466.49	3.99
466.843	4.03
467.195	4.06
467.547	4.07
467.899	4.09
468.252	4.1
468.604	4.12
468.956	4.11
469.308	4.11
469.66	4.11
470.012	4.12
470.364	4.12
470.716	4.14
471.068	4.15
471.42	4.16
471.772	4.19
472.123	4.23
472.475	4.25
472.827	4.29
473.178	4.3
473.53	4.3
473.882	4.31
474.233	4.31
474.585	4.29
474.936	4.27
475.288	4.25
475.639	4.26
475.99	4.24
476.342	4.25
476.693	4.25
477.044	4.25
477.395	4.27
477.746	4.25
478.097	4.26
478.448	4.25
478.8	4.25
479.15	4.22
479.501	4.19
479.852	4.17
480.203	4.16
480.554	4.15
480.905	4.15
481.255	4.15
481.606	4.14
481.957	4.12
482.307	4.13
482.658	4.13
483.009	4.12
483.359	4.12
483.709	4.12
484.06	4.11
484.41	4.12
484.761	4.1
485.111	4.1
485.461	4.08
485.811	4.08
486.162	4.07
486.512	4.08
486.862	4.08
487.212	4.07
487.562	4.06
487.912	4.05
488.262	4.05
488.612	4.05
488.961	4.05
489.311	4.05
489.661	4.04
490.011	4.04
490.36	4.03
490.71	4.04
491.06	4.04
491.409	4.05
491.759	4.04
492.108	4.05
492.458	4.06
492.807	4.08
493.157	4.09
493.506	4.12
493.855	4.12
494.204	4.16
494.554	4.18
494.903	4.22
495.252	4.26
495.601	4.3
495.95	4.33
496.299	4.34
496.648	4.39
496.997	4.45
497.346	4.51
497.695	4.58
498.043	4.62
498.392	4.67
498.741	4.72
499.09	4.77
499.438	4.84
499.787	4.9
500.135	4.95
500.484	5.02
500.832	5.1
501.181	5.17
501.529	5.23
501.878	5.32
502.226	5.4
502.574	5.48
502.923	5.55
503.271	5.63
503.619	5.76
503.967	5.88
504.315	5.97
504.663	6.08
505.011	6.19
505.359	6.29
505.707	6.44
506.055	6.57
506.403	6.7
506.751	6.84
507.098	6.99
507.446	7.16
507.794	7.3
508.141	7.45
508.489	7.6
508.837	7.77
509.184	7.95
509.531	8.14
509.879	8.33
510.226	8.55
510.574	8.79
510.921	8.99
511.268	9.17
511.616	9.43
511.963	9.64
512.31	9.9
512.657	10.17
513.004	10.43
513.351	10.73
513.698	11.03
514.045	11.32
514.392	11.63
514.739	11.94
515.086	12.27
515.432	12.6
515.779	12.94
516.126	13.26
516.473	13.55
516.819	13.85
517.166	14.12
517.512	14.4
517.859	14.67
518.205	14.93
518.552	15.21
518.898	15.44
519.245	15.7
519.591	15.94
519.937	16.21
520.283	16.47
520.629	16.75
520.976	17.06
521.322	17.4
521.668	17.7
522.014	18.04
522.36	18.37
522.706	18.74
523.052	19.11
523.398	19.52
523.743	19.92
524.089	20.31
524.435	20.74
524.781	21.1
525.126	21.45
525.472	21.79
525.817	22.08
526.163	22.36
526.509	22.61
526.854	22.85
527.199	23.07
527.545	23.29
527.89	23.52
528.235	23.73
528.581	23.94
528.926	24.16
529.271	24.37
529.616	24.58
529.961	24.78
530.306	25
530.651	25.22
530.996	25.47
531.341	25.71
531.686	25.95
532.031	26.23
532.376	26.48
532.721	26.73
533.065	27
533.41	27.29
533.755	27.58
534.099	27.87
534.444	28.17
534.788	28.47
535.133	28.74
535.477	29.04
535.822	29.34
536.166	29.65
536.51	29.99
536.855	30.38
537.199	30.78
537.543	31.16
537.887	31.52
538.231	31.86
538.576	32.25
538.92	32.57
539.264	32.87
539.608	33.21
539.951	33.53
540.295	33.8
540.639	34.11
540.983	34.37
541.327	34.62
541.671	34.86
542.014	35.07
542.358	35.35
542.701	35.56
543.045	35.82
543.389	36.06
543.732	36.28
544.075	36.49
544.419	36.73
544.762	36.96
545.105	37.21
545.449	37.48
545.792	37.76
546.135	38.08
546.478	38.4
546.821	38.67
547.165	38.95
547.508	39.27
547.851	39.55
548.194	39.86
548.536	40.23
548.879	40.6
549.222	40.89
549.565	41.17
549.908	41.5
550.25	41.84
550.593	42.14
550.936	42.5
551.278	42.78
551.621	43.02
551.963	43.28
552.306	43.62
552.648	43.9
552.991	44.16
553.333	44.41
553.675	44.66
554.017	44.92
554.36	45.17
554.702	45.43
555.044	45.61
555.386	45.81
555.728	45.97
556.07	46.17
556.412	46.41
556.754	46.61
557.096	46.74
557.438	46.89
557.78	47.11
558.121	47.29
558.463	47.54
558.805	47.73
559.147	48
559.488	48.13
559.83	48.29
560.171	48.44
560.513	48.59
560.854	48.7
561.196	48.89
561.537	49.07
561.878	49.23
562.22	49.44
562.561	49.64
562.902	49.89
563.243	50
563.584	50.19
563.925	50.36
564.266	50.53
564.607	50.7
564.948	50.88
565.289	50.99
565.63	51.08
565.971	51.23
566.312	51.37
566.653	51.46
566.993	51.6
567.334	51.68
567.675	51.77
568.015	51.92
568.356	52.03
568.696	52.09
569.037	52.19
569.377	52.24
569.718	52.28
570.058	52.26
570.398	52.36
570.739	52.4
571.079	52.52
571.419	52.61
571.759	52.72
572.099	52.77
572.439	52.85
572.779	53.02
573.119	53.08
573.459	53.13
573.799	53.29
574.139	53.38
574.479	53.49
574.819	53.64
575.158	53.74
575.498	53.8
575.838	53.96
576.177	54.05
576.517	54.16
576.856	54.31
577.196	54.5
577.535	54.62
577.875	54.77
578.214	54.86
578.553	54.99
578.893	55.06
579.232	55.22
579.571	55.4
579.91	55.44
580.25	55.56
580.589	55.68
580.928	55.78
581.267	55.87
581.606	55.98
581.945	56.06
582.283	56.11
582.622	56.21
582.961	56.29
583.3	56.38
583.639	56.5
583.977	56.62
584.316	56.74
584.654	56.91
584.993	57.01
585.332	57.05
585.67	57.12
586.008	57.16
586.347	57.27
586.685	57.3
587.024	57.31
587.362	57.4
587.7	57.5
588.038	57.64
588.376	57.71
588.715	57.73
589.053	57.74
589.391	57.86
589.729	57.95
590.067	57.94
590.404	57.97
590.742	58.12
591.08	58.15
591.418	58.16
591.756	58.14
592.093	58.18
592.431	58.31
592.769	58.4
593.106	58.46
593.444	58.42
593.781	58.52
594.119	58.64
594.456	58.7
594.793	58.73
595.131	58.67
595.468	58.73
595.805	58.79
596.143	58.9
596.48	58.89
596.817	58.94
597.154	59.05
597.491	59.12
597.828	59.07
598.165	59.19
598.502	59.31
598.839	59.36
599.176	59.45
599.512	59.46
599.849	59.51
600.186	59.57
600.523	59.64
600.859	59.7
601.196	59.83
601.532	59.79
601.869	59.85
602.205	59.93
602.542	60.04
602.878	60.2
603.215	60.22
603.551	60.32
603.887	60.25
604.223	60.25
604.56	60.25
604.896	60.34
605.232	60.35
605.568	60.39
605.904	60.39
606.24	60.43
606.576	60.46
606.912	60.44
607.248	60.43
607.583	60.54
607.919	60.58
608.255	60.52
608.591	60.65
608.926	60.63
609.262	60.74
609.597	60.73
609.933	60.68
610.268	60.64
610.604	60.71
610.939	60.82
611.275	60.91
611.61	60.96
611.945	61.03
612.281	61.13
612.616	61.17
612.951	61.26
613.286	61.37
613.621	61.5
613.956	61.56
614.291	61.69
614.626	61.68
614.961	61.63
615.296	61.77
615.631	61.76
615.966	61.89
616.3	61.89
616.635	61.96
616.97	62.01
617.304	62.19
617.639	62.15
617.973	62.15
618.308	62.16
618.642	62.21
618.977	62.21
619.311	62.11
619.646	62.2
619.98	62.3
620.314	62.24
620.648	62.12
620.983	62.24
621.317	62.37
621.651	62.44
621.985	62.59
622.319	62.5
622.653	62.54
622.987	62.55
623.321	62.5
623.655	62.47
623.988	62.55
624.322	62.54
624.656	62.6
624.99	62.71
625.323	62.75
625.657	62.7
625.99	62.71
626.324	62.78
626.657	62.76
626.991	62.71
627.324	62.65
627.658	62.72
627.991	62.71
628.324	62.63
628.657	62.62
628.991	62.62
629.324	62.65
629.657	62.74
629.99	62.76
630.323	62.79
630.656	62.76
630.989	62.72
631.322	62.78
631.655	62.73
631.987	62.68
632.32	62.64
632.653	62.76
632.986	62.78
633.318	62.73
633.651	62.68
633.984	62.74
634.316	62.85
634.649	62.88
634.981	63
635.313	63.04
635.646	63.08
635.978	63.12
636.31	63.19
636.643	63.14
636.975	63.14
637.307	63.21
637.639	63.31
637.971	63.26
638.303	63.22
638.635	63.28
638.967	63.5
639.299	63.48
639.631	63.49
639.963	63.57
640.295	63.65
640.626	63.64
640.958	63.72
641.29	63.7
641.621	63.77
641.953	63.72
642.285	63.68
642.616	63.66
642.948	63.61
643.279	63.71
643.61	63.75
643.942	63.83
644.273	63.82
644.604	63.94
644.936	64.06
645.267	64.1
645.598	64.12
645.929	63.82
646.26	63.9
646.591	63.95
646.922	63.82
647.253	63.88
647.584	63.85
647.915	63.84
648.245	63.91
648.576	63.9
648.907	63.93
649.238	64.01
649.568	64.05
649.899	64.16
650.229	64.05
650.56	64.09
650.89	64.14
651.221	64.18
651.551	64.19
651.882	64.1
652.212	64.14
652.542	63.99
652.872	64.08
653.203	64.08
653.533	64.04
653.863	64.17
654.193	64.06
654.523	64.21
654.853	64.31
655.183	64.3
655.513	64.31
655.843	64.2
656.172	64.18
656.502	64.18
656.832	64.19
657.162	64.22
657.491	64.32
657.821	64.25
658.15	64.08
658.48	64.04
658.809	64.11
659.139	64.01
659.468	64.13
659.798	64.21
660.127	64.17
660.456	64.17
660.785	64.22
661.115	64.39
661.444	64.43
661.773	64.26
662.102	64.3
662.431	64.32
662.76	64.49
663.089	64.66
663.418	64.74
663.747	64.73
664.076	64.77
664.404	64.7
664.733	64.72
665.062	64.78
665.39	64.84
665.719	64.93
666.048	65.09
666.376	65.08
666.705	65.11
667.033	65.25
667.362	65.26
667.69	65.21
668.018	65.13
668.347	65.02
668.675	65.1
669.003	65.17
669.331	65.14
669.659	65.04
669.987	64.93
670.315	64.78
670.643	64.74
670.971	64.67
671.299	64.68
671.627	64.77
671.955	64.93
672.283	64.95
672.61	64.92
672.938	64.86
673.266	64.96
673.593	64.91
673.921	64.79
674.249	64.88
674.576	64.85
674.904	64.79
675.231	64.82
675.558	64.84
675.886	64.61
676.213	64.45
676.54	64.46
676.867	64.54
677.195	64.73
677.522	64.87
677.849	64.94
678.176	64.92
678.503	64.91
678.83	64.91
679.157	64.85
679.484	64.87
679.81	64.93
680.137	64.83
680.464	64.82
680.791	64.86
681.117	64.84
681.444	64.86
681.771	64.95
682.097	65
682.424	64.97
682.75	65.01
683.077	65.19
683.403	65.14
683.729	65.1
684.056	64.95
684.382	64.86
684.708	64.89
685.034	64.89
685.36	64.87
685.686	64.91
686.012	64.88
686.339	64.9
686.664	64.93
686.99	65
687.316	65.02
687.642	64.97
687.968	64.81
688.294	64.84
688.619	64.8
688.945	64.78
689.271	64.88
689.596	65.01
689.922	64.93
690.247	65.13
690.573	65.08
690.898	65.19
691.224	65.15
691.549	65.13
691.874	64.99
692.2	64.98
692.525	65
692.85	65
693.175	65.04
693.5	64.85
693.825	64.85
694.15	64.79
694.475	64.91
694.8	65.01
695.125	65.06
695.45	65
695.775	64.99
696.099	64.8
696.424	64.77
696.749	64.9
697.073	64.72
697.398	64.77
697.723	64.94
698.047	65.01
698.372	65.02
698.696	65.03
699.02	65.11
699.345	65
699.669	65.12
699.993	64.99
700.318	65.04
700.642	64.99
700.966	65.13
701.29	64.89
701.614	64.75
701.938	64.8
702.262	64.88
702.586	64.88
702.91	65.04
703.234	65.03
703.557	64.98
703.881	65.1
704.205	65.27
704.529	65.04
704.852	65.02
705.176	65.06
705.499	65.2
705.823	65.03
706.146	65.1
706.47	64.85
706.793	64.88
707.117	64.9
707.44	65.02
707.763	64.87
708.086	65.17
708.409	65.46
708.733	65.38
709.056	65.19
709.379	65.17
709.702	65.15
710.025	65.23
710.348	65.24
710.671	65.17
710.993	65.03
711.316	65.09
711.639	65.09
711.962	65.01
712.284	64.96
712.607	65.14
712.93	65.11
713.252	65.33
713.575	65.35
713.897	65.51
714.22	65.33
714.542	65.23
714.864	65.22
715.187	65.21
715.509	65.2
715.831	65.36
716.153	65.4
716.475	65.37
716.798	65.36
717.12	65.45
717.442	65.62
717.764	65.52
718.085	65.53
718.407	65.35
718.729	65.33
719.051	65.22
719.373	64.92
719.695	64.99
720.016	64.91
720.338	64.72
720.659	64.48
720.981	64.73
721.302	65.04
721.624	65.16
721.945	65.08
722.267	65.24
722.588	65.1
722.909	65.03
723.231	64.99
723.552	64.9
723.873	64.85
724.194	64.94
724.515	64.8
724.836	64.87
725.157	64.93
725.478	64.99
725.799	65.54
726.12	65.71
726.441	65.62
726.762	65.6
727.083	65.94
727.403	65.85
727.724	65.91
728.045	65.91
728.365	65.94
728.686	65.84
729.006	65.48
729.327	65.58
729.647	65.55
729.967	65.59
730.288	65.89
730.608	65.78
730.928	65.63
731.249	65.64
731.569	65.33
731.889	65.42
732.209	65.49
732.529	64.92
732.849	64.84
733.169	64.88
733.489	64.88
733.809	64.82
734.129	64.76
734.448	64.57
734.768	64.46
735.088	64.28
735.408	64.27
735.727	64.53
736.047	64.54
736.366	64.44
736.686	64.39
737.005	64.11
737.325	64.25
737.644	64.24
737.963	64.4
738.283	64.64
738.602	64.85
738.921	64.7
739.24	65.05
739.56	64.94
739.879	64.93
740.198	65.08
740.517	65.14
740.836	65.32
741.155	65.33
741.473	65.32
741.792	65.68
742.111	65.82
742.43	65.83
742.748	66.09
743.067	66.27
743.386	66.49
743.704	66.55
744.023	66.37
744.341	66.14
744.66	66.26
744.978	66.35
745.297	66.38
745.615	66.22
745.933	66.29
746.252	66.66
746.57	66.84
746.888	66.79
747.206	66.35
747.524	66.44
747.842	66.38
748.16	66.51
748.478	66.24
748.796	66.21
749.114	66.02
749.432	65.57
749.749	65.59
750.067	65.65
750.385	65.4
750.703	65.28
751.02	65.41
751.338	65.5
751.655	65.41
751.973	64.9
752.29	64.99
752.608	64.85
752.925	64.7
753.242	64.54
753.56	64.41
753.877	64.55
754.194	64.52
754.511	64.47
754.828	64.33
755.145	64.31
755.462	64.37
755.779	64.46
756.096	64.45
756.413	64.8
756.73	64.48
757.047	64.8
757.364	65.05
757.68	64.99
757.997	64.66
758.314	64.81
758.63	65.14
758.947	65.42
759.264	65.39
759.58	65.55
759.896	65.93
760.213	66.06
760.529	66.11
760.846	66.35
761.162	66.39
761.478	66.41
761.794	66.3
762.11	66.28
762.426	66.31
762.743	66.59
763.059	66.32
763.375	66.59
763.69	66.55
764.006	66.35
764.322	66.44
764.638	66.54
764.954	66.39
765.27	66.1
765.585	65.96
765.901	65.94
766.216	65.56
766.532	65.51
766.848	65.42
767.163	65.57
767.478	65.25
767.794	65.21
768.109	65.19
768.424	64.93
768.74	64.76
769.055	64.46
769.37	64.1
769.685	63.96
770	63.69
770.315	63.48
770.63	63.75
770.945	63.7
771.26	63.5
771.575	63.38
771.89	63.71
772.205	63.91
772.52	63.89
772.834	64.47
773.149	64.44
773.464	64.63
773.778	64.26
774.093	63.99
774.407	63.93
774.722	63.91
775.036	64.86
775.351	65.02
775.665	65.2
775.979	65.5
776.293	65.49
776.608	65.4
776.922	65.67
777.236	65
777.55	65.29
777.864	65.38
778.178	65.51
778.492	65.49
778.806	65.22
779.12	65.15
779.434	65.04
779.747	64.79
780.061	64.43
780.375	65.11
780.689	65.27
781.002	65.43
781.316	65.13
781.629	64.92
781.943	64.6
782.256	64.65
782.57	64.24
782.883	64.75
783.196	64.85
783.51	64.64
783.823	64.99
784.136	64.65
784.449	65.16
784.762	65.19
785.075	65.24
785.388	65.51
785.701	66.3
786.014	66.13
786.327	65.98
786.64	66.23
786.953	65.43
787.266	65.68
787.578	65.82
787.891	66.11
788.204	65.34
788.516	65.3
788.829	65.32
789.141	65.63
789.454	65.29
789.766	65.22
790.079	64.84
790.391	64.66
790.703	64.95
791.016	64.54
791.328	64.64
791.64	64.37
791.952	64.51
792.264	63.92
792.576	63.8
792.888	63.26
793.2	63.16
793.512	63.5
793.824	63.67
794.136	63.66
794.448	63.72
794.76	64.41
795.071	64.84
795.383	64.99
795.695	64.76
796.006	65.2
796.318	65.14
796.629	66.1
796.941	66.73
797.252	66.24
797.564	66.39
797.875	66.57
798.186	66.86
798.497	66.81
798.809	67.12
799.12	67.39
799.431	67.97
799.742	68.22
800.053	68.09
800.364	67.73
800.675	68.2
800.986	68.2
801.297	67.82
801.608	67.94
801.918	67.99
802.229	68.23
802.54	67.61
802.851	67.42
803.161	66.57
803.472	66.51
803.782	67.06
804.093	67.04
804.403	67.06
804.714	67.06
805.024	67.28
805.334	67.3
805.645	66.89
805.955	67.1
806.265	66.98
806.575	67.2
806.885	67.75
807.195	67.62
807.505	67.22
807.815	67.15
808.125	67.41
808.435	67.08
808.745	66.85
809.055	67.53
809.365	68.41
809.674	69.16
809.984	68.64
810.294	68.5
810.603	68.47
810.913	68.14
811.222	68.06
811.532	67.28
811.841	67.03
812.151	66.82
812.46	67
812.769	66.93
813.079	67.37
813.388	67.11
813.697	66.69
814.006	66.92
814.315	67.73
814.624	67.42
814.933	66.92
815.242	67.9
815.551	67.56
815.86	66.97
816.169	66.57
816.478	66.64
816.786	66.7
817.095	66.34
817.404	66.05
817.712	65.69
818.021	66.05
818.33	65.96
818.638	66.3
818.947	66.03
819.255	66.27
819.563	66.38
819.872	66.43
820.18	66.75
820.488	67
820.796	67.33
821.105	67.44
821.413	67.58
821.721	67.54
822.029	67.57
822.337	67.5
822.645	67.43
822.953	67.53
823.26	67.44
823.568	67.55
823.876	67.77
824.184	67.88
824.491	67.7
824.799	67.73
825.107	67.75
825.414	67.75
825.722	67.83
826.029	67.64
826.337	67.68
826.644	67.3
826.951	67.17
827.259	66.71
827.566	66.64
827.873	66.62
828.18	66.54
828.488	66.07
828.795	65.86
829.102	65.93
829.409	65.54
829.716	65.31
830.023	65.22
830.329	64.79
830.636	64.55
830.943	64.64
831.25	64.61
831.557	64.25
831.863	64.16
832.17	63.79
832.476	63.93
832.783	64.21
833.089	64.63
833.396	64.76
833.702	65.35
834.009	65.43
834.315	65.23
834.621	64.89
834.928	65.5
835.234	65.91
835.54	66.05
835.846	66.3
836.152	66.92
836.458	66.67
836.764	66.5
837.07	66.43
837.376	66.54
837.682	66.24
837.988	67.15
838.293	67.35
838.599	67.54
838.905	67.31
839.211	66.6
839.516	67.46
839.822	68.13
840.127	68.23
840.433	67.76
840.738	68.74
841.044	69.09
841.349	68.81
841.654	69.38
841.959	68.95
842.265	69.16
842.57	68.94
842.875	69.32
843.18	70.89
843.485	72.47
843.79	72.32
844.095	72.86
844.4	73.55
844.705	73.61
845.01	73.92
845.315	75.76
845.619	75.71
845.924	74.3
846.229	74.43
846.533	73.94
846.838	73.39
847.142	73.84
847.447	73.76
847.751	74.19
848.056	72.96
848.36	75.32
848.664	76.18
848.969	77.11
849.273	75.46
849.577	75.79
849.881	72.97
850.185	72.83
850.489	72.81
850.794	71.08
851.097	70.68
851.401	71.36
851.705	69.46
852.009	70.02
852.313	71.38
852.617	69.91
852.92	69.65
853.224	69.89
853.528	69.05
853.831	70.14
854.135	72.4
854.438	73.76
854.742	71.86
855.045	71.29
855.349	70.19
855.652	70.96
855.955	69.82
856.259	71.21
856.562	73.21
856.865	71.8
857.168	70.96
857.471	72.64
857.774	71.44
858.077	71.92
858.38	72.89
858.683	73.66
858.986	73.04
859.289	73.94
859.592	72.8
859.894	73.15
860.197	72.12
860.5	69.64
860.802	70.41
861.105	70.38
861.407	72.76
861.71	72.64
862.012	73.65
862.315	70.31
862.617	70.25
862.919	69.79
863.222	71.99
863.524	72.04
863.826	69.85
864.128	70.45
864.43	70.38
864.732	67.72
865.034	66.53
865.336	67.36
865.638	67.13
865.94	68.44
866.242	67.76
866.544	70.13
866.846	71.37
867.147	68.21
867.449	67.8
867.751	63.99
868.052	65.51
868.354	65.04
868.655	68.1
868.957	68.46
869.258	67.18
869.56	65.68
869.861	65.23
870.162	66.9
870.463	68.14
870.765	66.79
871.066	68.98
871.367	68.18
871.668	67.99
871.969	67.34
872.27	67.6
872.571	66.22
872.872	64.59
873.173	62.88
873.473	65.39
873.774	63.29
874.075	66.2
874.376	65.05
874.676	67.93
874.977	65.68
875.277	67.57
875.578	67.86
875.878	68.98
876.179	70.06
876.479	69.1
876.78	66.66
877.08	68.47
877.38	68.34
877.68	68.79
877.981	68.4
878.281	68.08
878.581	69.5
