Data from BU26945_Reflection_00013.txt Node
Date: Tue Nov 19 10:49:43 EST 2019
User: vgr7
Spectrometer: USB2G7710
Scans to average: 3
Trigger mode: 4
Integration Time (sec): 2.000000E-2
Electric dark correction enabled: true
Boxcar width: 10
XAxis mode: Wavelengths
Number of Pixels in Spectrum: 2048
>>>>>Begin Spectral Data<<<<<
177.721	26.93
178.105	53.95
178.488	140.64
178.871	78.13
179.254	32
179.636	159.01
180.019	418.18
180.402	-50
180.785	42.78
181.168	39.27
181.55	14.6
181.933	-28.91
182.316	-51.89
182.698	-37.51
183.081	-12.43
183.463	-25.31
183.846	-3.89
184.228	-18.97
184.611	-5.58
184.993	5.84
185.376	5.19
185.758	8.73
186.14	3.74
186.522	-3.67
186.904	-5.44
187.287	-9.79
187.669	0.31
188.051	7.75
188.433	-10.89
188.815	-10.43
189.197	-12.6
189.579	-12.46
189.961	1.4
190.342	4.98
190.724	-2.14
191.106	-15.76
191.488	-3.06
191.869	-4.35
192.251	8.24
192.633	-1.85
193.014	8.54
193.396	3.29
193.777	-1.91
194.159	-2.65
194.54	22.62
194.922	11.95
195.303	1.1
195.684	-21.36
196.065	-45.26
196.447	-9.67
196.828	0.29
197.209	7.53
197.59	5.91
197.971	-3.62
198.352	-1.11
198.733	-6.32
199.114	-9.5
199.495	-5.37
199.876	-16.9
200.257	-20.42
200.638	-16.67
201.018	-32.31
201.399	-15.72
201.78	-10.95
202.16	-12.98
202.541	-32.22
202.922	-16.47
203.302	2.42
203.683	7.82
204.063	10.16
204.444	-4.66
204.824	-28.64
205.204	-50.81
205.585	-58.6
205.965	-60.51
206.345	-68.5
206.725	-47.8
207.106	-34.87
207.486	-35.66
207.866	-22.54
208.246	-4.63
208.626	-9.79
209.006	-15.12
209.386	-35.68
209.766	-32.62
210.145	-12.7
210.525	-9.91
210.905	-14.22
211.285	-21.6
211.664	-18.68
212.044	-18.61
212.424	-17.21
212.803	-20.81
213.183	-29.28
213.562	-26.99
213.942	-23.28
214.321	-24.79
214.701	-47.37
215.08	-62.05
215.459	-42.19
215.838	-74.52
216.218	-81.65
216.597	-62.52
216.976	-75.55
217.355	-87.79
217.734	-137.28
218.113	-100.18
218.492	-117.47
218.871	-127.68
219.25	-113.52
219.629	-158.34
220.008	-130.91
220.387	-119.25
220.766	-74.67
221.144	-56.27
221.523	-56.96
221.902	-48.52
222.28	-31.45
222.659	-4.59
223.037	-10.2
223.416	-9.51
223.794	-6.84
224.173	-0.4
224.551	-11.66
224.929	-8.18
225.308	-2.06
225.686	-3.39
226.064	-9.45
226.442	-0.36
226.821	-2.75
227.199	-2.99
227.577	-0.95
227.955	-7.17
228.333	-7.43
228.711	-9.23
229.089	-12.73
229.467	-14.6
229.845	-12.94
230.222	-10.89
230.6	-13.52
230.978	-10.4
231.356	-11.25
231.733	-10.19
232.111	-10.26
232.488	-11.13
232.866	-8.73
233.243	-10.46
233.621	-9.08
233.998	-8.62
234.376	-8.94
234.753	-7.67
235.13	-5.91
235.508	-5.71
235.885	-3.49
236.262	-4.04
236.639	-3.69
237.016	-1.55
237.393	1.01
237.77	2.47
238.147	2.63
238.524	4.01
238.901	3.46
239.278	3.12
239.655	3.38
240.032	3.64
240.409	4.64
240.785	4.47
241.162	5.03
241.539	5.15
241.915	5.36
242.292	5.38
242.668	5.89
243.045	5.73
243.421	5.8
243.798	5.68
244.174	6.3
244.551	6.02
244.927	5.96
245.303	5.57
245.679	5.5
246.056	5.32
246.432	5.33
246.808	5.29
247.184	5.54
247.56	5.4
247.936	5.56
248.312	5.56
248.688	5.69
249.064	5.68
249.44	5.66
249.815	6.01
250.191	5.81
250.567	5.6
250.943	5.76
251.318	5.58
251.694	5.73
252.069	5.51
252.445	5.6
252.82	5.76
253.196	6.28
253.571	6.18
253.947	6.41
254.322	6.4
254.697	6.29
255.073	6.02
255.448	6.09
255.823	5.81
256.198	5.83
256.573	5.7
256.948	5.76
257.323	5.95
257.698	5.62
258.073	5.33
258.448	5.57
258.823	5.31
259.198	5.39
259.573	5.28
259.948	5.41
260.322	5.25
260.697	5.25
261.072	4.94
261.446	4.94
261.821	4.79
262.195	4.57
262.57	4.62
262.944	4.71
263.319	4.83
263.693	4.82
264.067	4.78
264.442	4.65
264.816	4.52
265.19	4.24
265.564	4.22
265.938	4.57
266.313	4.26
266.687	4.1
267.061	4.26
267.435	4.4
267.809	4.04
268.183	4.2
268.556	4.13
268.93	4.32
269.304	4.23
269.678	4.38
270.051	4.5
270.425	4.4
270.799	4.17
271.172	4.08
271.546	4.15
271.919	4.01
272.293	4.21
272.666	4.1
273.04	4.01
273.413	3.98
273.787	3.98
274.16	3.75
274.533	3.97
274.906	3.87
275.279	3.59
275.653	3.76
276.026	3.73
276.399	3.62
276.772	3.57
277.145	3.7
277.518	3.69
277.891	3.71
278.263	3.91
278.636	4.04
279.009	4.12
279.382	4.04
279.755	4.11
280.127	4.06
280.5	4.13
280.872	4.37
281.245	4.28
281.617	4.23
281.99	4.62
282.362	4.55
282.735	4.65
283.107	4.85
283.479	5.03
283.852	4.91
284.224	4.94
284.596	4.7
284.968	4.65
285.34	4.69
285.713	4.78
286.085	4.55
286.457	4.57
286.829	4.56
287.201	4.54
287.572	4.68
287.944	4.69
288.316	4.81
288.688	4.93
289.06	4.98
289.431	5.01
289.803	5.08
290.175	5.11
290.546	5.05
290.918	5.04
291.289	4.74
291.661	5
292.032	5.04
292.403	5.24
292.775	5.38
293.146	5.34
293.517	5.26
293.889	5.48
294.26	5.38
294.631	5.54
295.002	5.72
295.373	5.71
295.744	5.78
296.115	5.78
296.486	5.65
296.857	5.75
297.228	5.81
297.599	5.64
297.97	5.66
298.34	5.67
298.711	5.79
299.082	6
299.452	5.99
299.823	6.22
300.194	6.33
300.564	6.16
300.935	6.05
301.305	6.09
301.676	6.05
302.046	6.32
302.416	6.25
302.787	6.18
303.157	6.37
303.527	6.62
303.897	6.71
304.267	6.84
304.637	6.89
305.008	6.86
305.378	7.11
305.748	7.12
306.117	7.26
306.487	7.18
306.857	7.14
307.227	7.27
307.597	7.25
307.967	7.32
308.336	7.52
308.706	7.77
309.076	8.09
309.445	8.41
309.815	8.41
310.184	8.43
310.554	8.6
310.923	8.47
311.293	8.49
311.662	8.6
312.031	8.65
312.401	8.77
312.77	8.85
313.139	8.84
313.508	9.01
313.877	9.09
314.246	9.45
314.616	9.55
314.985	9.55
315.353	9.74
315.722	9.99
316.091	10.09
316.46	10.16
316.829	10.07
317.198	10.05
317.567	10.21
317.935	10.32
318.304	10.45
318.672	10.56
319.041	10.38
319.41	10.5
319.778	10.65
320.147	10.73
320.515	10.77
320.883	10.75
321.252	10.77
321.62	10.89
321.988	10.85
322.357	11.07
322.725	11.01
323.093	11
323.461	10.98
323.829	11.15
324.197	11.27
324.565	11.4
324.933	11.42
325.301	11.37
325.669	11.42
326.037	11.44
326.405	11.58
326.772	11.66
327.14	11.57
327.508	11.54
327.875	11.62
328.243	11.67
328.61	11.86
328.978	11.96
329.346	12.04
329.713	12.16
330.08	12.21
330.448	12.33
330.815	12.39
331.182	12.38
331.55	12.31
331.917	12.28
332.284	12.42
332.651	12.5
333.018	12.64
333.385	12.72
333.752	12.76
334.119	12.9
334.486	13.07
334.853	13.18
335.22	13.29
335.587	13.1
335.954	13.24
336.32	13.16
336.687	13.2
337.054	13.37
337.42	13.36
337.787	13.4
338.153	13.53
338.52	13.68
338.886	13.74
339.253	13.85
339.619	14.16
339.986	14.02
340.352	14.07
340.718	14.16
341.084	14.29
341.451	14.3
341.817	14.34
342.183	14.25
342.549	14.31
342.915	14.39
343.281	14.53
343.647	14.52
344.013	14.65
344.379	14.6
344.745	14.44
345.11	14.47
345.476	14.47
345.842	14.55
346.208	14.54
346.573	14.67
346.939	14.71
347.304	14.6
347.67	14.77
348.035	14.78
348.401	14.83
348.766	14.89
349.132	14.96
349.497	14.88
349.862	14.99
350.228	15.02
350.593	15.01
350.958	15.26
351.323	15.35
351.688	15.37
352.053	15.44
352.418	15.46
352.783	15.49
353.148	15.54
353.513	15.55
353.878	15.49
354.243	15.45
354.608	15.52
354.972	15.44
355.337	15.35
355.702	15.3
356.066	15.26
356.431	15.23
356.795	15.23
357.16	15.19
357.524	15.06
357.889	15.08
358.253	15.05
358.618	14.89
358.982	14.92
359.346	14.88
359.71	14.85
360.075	14.91
360.439	14.85
360.803	14.8
361.167	14.74
361.531	14.77
361.895	14.68
362.259	14.56
362.623	14.56
362.987	14.61
363.351	14.58
363.714	14.53
364.078	14.46
364.442	14.35
364.806	14.37
365.169	14.44
365.533	14.35
365.896	14.38
366.26	14.36
366.623	14.26
366.987	14.29
367.35	14.31
367.714	14.2
368.077	14.25
368.44	14.19
368.803	14.1
369.167	13.92
369.53	13.91
369.893	13.84
370.256	13.81
370.619	13.68
370.982	13.59
371.345	13.54
371.708	13.48
372.071	13.43
372.434	13.38
372.797	13.25
373.159	13.2
373.522	13.05
373.885	12.99
374.247	12.85
374.61	12.77
374.973	12.63
375.335	12.5
375.698	12.32
376.06	12.23
376.423	12.18
376.785	12.2
377.147	12.16
377.51	12.06
377.872	12
378.234	11.94
378.596	11.91
378.958	11.81
379.321	11.72
379.683	11.69
380.045	11.61
380.407	11.55
380.769	11.44
381.13	11.35
381.492	11.24
381.854	11.18
382.216	11.1
382.578	11.1
382.939	11.14
383.301	11.12
383.663	11.06
384.024	11.01
384.386	10.95
384.747	10.83
385.109	10.83
385.47	10.75
385.832	10.72
386.193	10.64
386.554	10.61
386.916	10.57
387.277	10.5
387.638	10.39
387.999	10.35
388.36	10.36
388.721	10.38
389.082	10.32
389.443	10.24
389.804	10.2
390.165	10.12
390.526	10.01
390.887	9.94
391.248	9.87
391.609	9.83
391.969	9.76
392.33	9.67
392.691	9.59
393.051	9.59
393.412	9.51
393.772	9.54
394.133	9.52
394.493	9.45
394.854	9.41
395.214	9.33
395.574	9.24
395.935	9.12
396.295	9
396.655	8.97
397.015	8.92
397.376	8.8
397.736	8.72
398.096	8.65
398.456	8.57
398.816	8.53
399.176	8.45
399.535	8.38
399.895	8.36
400.255	8.31
400.615	8.16
400.975	8.11
401.334	8
401.694	7.88
402.054	7.8
402.413	7.71
402.773	7.67
403.132	7.66
403.492	7.62
403.851	7.56
404.211	7.48
404.57	7.45
404.929	7.4
405.288	7.36
405.648	7.33
406.007	7.27
406.366	7.21
406.725	7.19
407.084	7.16
407.443	7.11
407.802	7.08
408.161	7.06
408.52	7
408.879	6.95
409.238	6.94
409.596	6.93
409.955	6.88
410.314	6.84
410.673	6.77
411.031	6.74
411.39	6.72
411.748	6.71
412.107	6.67
412.465	6.65
412.824	6.63
413.182	6.57
413.54	6.57
413.899	6.54
414.257	6.51
414.615	6.5
414.974	6.47
415.332	6.46
415.69	6.42
416.048	6.38
416.406	6.34
416.764	6.3
417.122	6.26
417.48	6.25
417.838	6.21
418.195	6.17
418.553	6.17
418.911	6.13
419.269	6.11
419.626	6.08
419.984	6.06
420.342	6.02
420.699	6
421.057	5.95
421.414	5.93
421.772	5.89
422.129	5.85
422.486	5.83
422.844	5.77
423.201	5.75
423.558	5.72
423.915	5.71
424.273	5.69
424.63	5.66
424.987	5.64
425.344	5.62
425.701	5.61
426.058	5.58
426.415	5.56
426.772	5.54
427.128	5.52
427.485	5.5
427.842	5.47
428.199	5.46
428.555	5.44
428.912	5.43
429.269	5.4
429.625	5.38
429.982	5.37
430.338	5.37
430.695	5.35
431.051	5.36
431.407	5.34
431.764	5.33
432.12	5.35
432.476	5.35
432.832	5.37
433.189	5.36
433.545	5.36
433.901	5.35
434.257	5.33
434.613	5.35
434.969	5.33
435.325	5.35
435.681	5.34
436.036	5.36
436.392	5.36
436.748	5.38
437.104	5.38
437.459	5.36
437.815	5.38
438.171	5.37
438.526	5.35
438.882	5.36
439.237	5.36
439.593	5.37
439.948	5.35
440.304	5.33
440.659	5.33
441.014	5.29
441.369	5.3
441.725	5.3
442.08	5.3
442.435	5.3
442.79	5.3
443.145	5.31
443.5	5.28
443.855	5.25
444.21	5.22
444.565	5.21
444.92	5.21
445.275	5.2
445.629	5.19
445.984	5.18
446.339	5.17
446.693	5.16
447.048	5.12
447.403	5.11
447.757	5.1
448.112	5.09
448.466	5.09
448.82	5.06
449.175	5.05
449.529	5.03
449.883	4.99
450.238	4.96
450.592	4.94
450.946	4.91
451.3	4.92
451.654	4.93
452.008	4.93
452.362	4.9
452.716	4.87
453.07	4.86
453.424	4.86
453.778	4.82
454.132	4.8
454.486	4.8
454.839	4.8
455.193	4.8
455.547	4.78
455.9	4.78
456.254	4.78
456.607	4.78
456.961	4.78
457.314	4.78
457.668	4.79
458.021	4.79
458.375	4.8
458.728	4.8
459.081	4.8
459.434	4.78
459.787	4.8
460.141	4.82
460.494	4.83
460.847	4.84
461.2	4.87
461.553	4.88
461.906	4.91
462.259	4.89
462.611	4.9
462.964	4.94
463.317	4.95
463.67	4.97
464.022	5
464.375	5.02
464.728	5.06
465.08	5.08
465.433	5.12
465.785	5.17
466.138	5.21
466.49	5.26
466.843	5.32
467.195	5.35
467.547	5.37
467.899	5.4
468.252	5.41
468.604	5.45
468.956	5.47
469.308	5.51
469.66	5.56
470.012	5.61
470.364	5.63
470.716	5.67
471.068	5.76
471.42	5.75
471.772	5.76
472.123	5.81
472.475	5.84
472.827	5.84
473.178	5.83
473.53	5.84
473.882	5.83
474.233	5.82
474.585	5.83
474.936	5.85
475.288	5.83
475.639	5.84
475.99	5.85
476.342	5.86
476.693	5.83
477.044	5.83
477.395	5.82
477.746	5.79
478.097	5.78
478.448	5.73
478.8	5.72
479.15	5.7
479.501	5.68
479.852	5.64
480.203	5.63
480.554	5.59
480.905	5.58
481.255	5.56
481.606	5.56
481.957	5.54
482.307	5.51
482.658	5.5
483.009	5.47
483.359	5.46
483.709	5.46
484.06	5.45
484.41	5.44
484.761	5.43
485.111	5.43
485.461	5.42
485.811	5.41
486.162	5.41
486.512	5.42
486.862	5.41
487.212	5.4
487.562	5.38
487.912	5.4
488.262	5.4
488.612	5.41
488.961	5.4
489.311	5.41
489.661	5.42
490.011	5.44
490.36	5.46
490.71	5.46
491.06	5.47
491.409	5.5
491.759	5.52
492.108	5.54
492.458	5.55
492.807	5.57
493.157	5.61
493.506	5.64
493.855	5.66
494.204	5.71
494.554	5.77
494.903	5.83
495.252	5.87
495.601	5.93
495.95	5.99
496.299	6.04
496.648	6.09
496.997	6.18
497.346	6.26
497.695	6.34
498.043	6.43
498.392	6.52
498.741	6.59
499.09	6.7
499.438	6.8
499.787	6.92
500.135	7.06
500.484	7.19
500.832	7.3
501.181	7.45
501.529	7.6
501.878	7.72
502.226	7.88
502.574	8.06
502.923	8.23
503.271	8.39
503.619	8.58
503.967	8.76
504.315	8.93
504.663	9.1
505.011	9.32
505.359	9.5
505.707	9.68
506.055	9.89
506.403	10.07
506.751	10.28
507.098	10.5
507.446	10.69
507.794	10.89
508.141	11.1
508.489	11.31
508.837	11.52
509.184	11.76
509.531	11.98
509.879	12.2
510.226	12.42
510.574	12.65
510.921	12.89
511.268	13.14
511.616	13.39
511.963	13.67
512.31	13.93
512.657	14.22
513.004	14.49
513.351	14.74
513.698	15.05
514.045	15.31
514.392	15.62
514.739	15.93
515.086	16.26
515.432	16.57
515.779	16.86
516.126	17.15
516.473	17.42
516.819	17.68
517.166	17.93
517.512	18.18
517.859	18.44
518.205	18.64
518.552	18.86
518.898	19.11
519.245	19.35
519.591	19.58
519.937	19.81
520.283	20.06
520.629	20.33
520.976	20.64
521.322	20.94
521.668	21.2
522.014	21.48
522.36	21.73
522.706	22.03
523.052	22.35
523.398	22.68
523.743	23.06
524.089	23.41
524.435	23.76
524.781	24.07
525.126	24.39
525.472	24.7
525.817	24.98
526.163	25.2
526.509	25.38
526.854	25.57
527.199	25.75
527.545	25.95
527.89	26.17
528.235	26.34
528.581	26.55
528.926	26.75
529.271	26.95
529.616	27.13
529.961	27.34
530.306	27.55
530.651	27.76
530.996	27.96
531.341	28.2
531.686	28.42
532.031	28.65
532.376	28.88
532.721	29.13
533.065	29.39
533.41	29.68
533.755	29.97
534.099	30.27
534.444	30.56
534.788	30.83
535.133	31.06
535.477	31.34
535.822	31.58
536.166	31.86
536.51	32.21
536.855	32.57
537.199	32.87
537.543	33.22
537.887	33.56
538.231	33.89
538.576	34.2
538.92	34.53
539.264	34.86
539.608	35.12
539.951	35.35
540.295	35.62
540.639	35.85
540.983	36.12
541.327	36.38
541.671	36.65
542.014	36.88
542.358	37.12
542.701	37.36
543.045	37.61
543.389	37.83
543.732	38.02
544.075	38.21
544.419	38.45
544.762	38.66
545.105	38.92
545.449	39.21
545.792	39.51
546.135	39.78
546.478	40.11
546.821	40.45
547.165	40.77
547.508	41.07
547.851	41.35
548.194	41.6
548.536	41.82
548.879	42.05
549.222	42.33
549.565	42.61
549.908	42.86
550.25	43.11
550.593	43.41
550.936	43.68
551.278	44.01
551.621	44.25
551.963	44.56
552.306	44.84
552.648	45.04
552.991	45.24
553.333	45.48
553.675	45.65
554.017	45.83
554.36	46.03
554.702	46.2
555.044	46.41
555.386	46.67
555.728	46.91
556.07	47.1
556.412	47.25
556.754	47.44
557.096	47.62
557.438	47.86
557.78	48.05
558.121	48.25
558.463	48.49
558.805	48.7
559.147	48.94
559.488	49.12
559.83	49.3
560.171	49.47
560.513	49.65
560.854	49.82
561.196	49.95
561.537	50.15
561.878	50.31
562.22	50.45
562.561	50.63
562.902	50.87
563.243	51.07
563.584	51.21
563.925	51.37
564.266	51.51
564.607	51.67
564.948	51.82
565.289	52.01
565.63	52.1
565.971	52.26
566.312	52.34
566.653	52.46
566.993	52.63
567.334	52.8
567.675	52.93
568.015	53.08
568.356	53.26
568.696	53.4
569.037	53.47
569.377	53.64
569.718	53.66
570.058	53.74
570.398	53.81
570.739	54
571.079	54.1
571.419	54.21
571.759	54.27
572.099	54.4
572.439	54.5
572.779	54.62
573.119	54.72
573.459	54.81
573.799	54.89
574.139	54.95
574.479	55.06
574.819	55.14
575.158	55.21
575.498	55.3
575.838	55.39
576.177	55.59
576.517	55.68
576.856	55.83
577.196	55.91
577.535	56.04
577.875	56.04
578.214	56.12
578.553	56.24
578.893	56.35
579.232	56.45
579.571	56.54
579.91	56.61
580.25	56.7
580.589	56.75
580.928	56.78
581.267	56.93
581.606	56.97
581.945	57.05
582.283	57.09
582.622	57.15
582.961	57.2
583.3	57.19
583.639	57.17
583.977	57.31
584.316	57.47
584.654	57.49
584.993	57.55
585.332	57.65
585.67	57.73
586.008	57.79
586.347	57.75
586.685	57.79
587.024	57.82
587.362	57.83
587.7	57.9
588.038	57.95
588.376	57.91
588.715	57.97
589.053	57.98
589.391	58.05
589.729	58.12
590.067	58.15
590.404	58.22
590.742	58.28
591.08	58.21
591.418	58.16
591.756	58.26
592.093	58.32
592.431	58.32
592.769	58.45
593.106	58.5
593.444	58.56
593.781	58.58
594.119	58.67
594.456	58.76
594.793	58.84
595.131	58.9
595.468	58.99
595.805	58.97
596.143	59.02
596.48	59.06
596.817	59.08
597.154	59.15
597.491	59.21
597.828	59.26
598.165	59.34
598.502	59.34
598.839	59.31
599.176	59.33
599.512	59.46
599.849	59.44
600.186	59.52
600.523	59.66
600.859	59.71
601.196	59.69
601.532	59.75
601.869	59.82
602.205	59.85
602.542	59.87
602.878	59.93
603.215	60.02
603.551	60.12
603.887	60.14
604.223	60.13
604.56	60.11
604.896	60.11
605.232	60.17
605.568	60.19
605.904	60.22
606.24	60.38
606.576	60.28
606.912	60.34
607.248	60.31
607.583	60.3
607.919	60.32
608.255	60.36
608.591	60.3
608.926	60.32
609.262	60.36
609.597	60.42
609.933	60.47
610.268	60.49
610.604	60.41
610.939	60.42
611.275	60.48
611.61	60.56
611.945	60.6
612.281	60.53
612.616	60.61
612.951	60.69
613.286	60.65
613.621	60.77
613.956	60.75
614.291	60.76
614.626	60.83
614.961	60.83
615.296	60.88
615.631	60.89
615.966	60.9
616.3	61.03
616.635	61.11
616.97	61.05
617.304	61.11
617.639	61.29
617.973	61.26
618.308	61.3
618.642	61.3
618.977	61.32
619.311	61.45
619.646	61.52
619.98	61.55
620.314	61.63
620.648	61.64
620.983	61.68
621.317	61.82
621.651	61.81
621.985	61.84
622.319	61.89
622.653	61.95
622.987	61.92
623.321	62
623.655	61.93
623.988	62.01
624.322	61.97
624.656	61.94
624.99	62.06
625.323	61.92
625.657	61.85
625.99	61.89
626.324	61.95
626.657	61.89
626.991	61.84
627.324	61.72
627.658	61.66
627.991	61.64
628.324	61.61
628.657	61.56
628.991	61.63
629.324	61.72
629.657	61.71
629.99	61.7
630.323	61.6
630.656	61.59
630.989	61.6
631.322	61.53
631.655	61.46
631.987	61.44
632.32	61.52
632.653	61.55
632.986	61.61
633.318	61.59
633.651	61.66
633.984	61.77
634.316	61.96
634.649	61.99
634.981	62.06
635.313	62.02
635.646	62.11
635.978	62.06
636.31	62.01
636.643	62.01
636.975	62.13
637.307	62.17
637.639	62.21
637.971	62.19
638.303	62.29
638.635	62.25
638.967	62.31
639.299	62.41
639.631	62.47
639.963	62.45
640.295	62.43
640.626	62.48
640.958	62.52
641.29	62.34
641.621	62.41
641.953	62.35
642.285	62.36
642.616	62.3
642.948	62.37
643.279	62.38
643.61	62.52
643.942	62.56
644.273	62.52
644.604	62.42
644.936	62.39
645.267	62.37
645.598	62.43
645.929	62.26
646.26	62.3
646.591	62.27
646.922	62.37
647.253	62.36
647.584	62.2
647.915	62.1
648.245	62.14
648.576	62.17
648.907	62.19
649.238	62.18
649.568	62.11
649.899	62.12
650.229	62.2
650.56	62.22
650.89	62.19
651.221	62.17
651.551	62.31
651.882	62.3
652.212	62.27
652.542	62.34
652.872	62.52
653.203	62.49
653.533	62.5
653.863	62.35
654.193	62.36
654.523	62.42
654.853	62.57
655.183	62.5
655.513	62.45
655.843	62.44
656.172	62.54
656.502	62.77
656.832	62.72
657.162	62.65
657.491	62.64
657.821	62.51
658.15	62.52
658.48	62.55
658.809	62.64
659.139	62.77
659.468	62.82
659.798	62.69
660.127	62.76
660.456	62.78
660.785	62.92
661.115	62.92
661.444	62.92
661.773	62.84
662.102	62.94
662.431	62.89
662.76	62.99
663.089	63.03
663.418	62.87
663.747	62.98
664.076	63.02
664.404	62.9
664.733	62.98
665.062	62.94
665.39	62.89
665.719	62.84
666.048	62.87
666.376	62.75
666.705	62.85
667.033	62.88
667.362	62.93
667.69	62.84
668.018	62.88
668.347	62.99
668.675	63.01
669.003	62.94
669.331	63.17
669.659	63.03
669.987	62.98
670.315	62.92
670.643	62.87
670.971	62.86
671.299	63.01
671.627	63.05
671.955	63
672.283	62.83
672.61	62.76
672.938	62.6
673.266	62.76
673.593	62.88
673.921	62.87
674.249	62.88
674.576	62.74
674.904	62.65
675.231	62.63
675.558	62.69
675.886	62.69
676.213	62.63
676.54	62.8
676.867	62.73
677.195	62.85
677.522	62.99
677.849	62.91
678.176	62.86
678.503	62.84
678.83	63.02
679.157	63.14
679.484	63.13
679.81	63.14
680.137	63.17
680.464	63.12
680.791	62.92
681.117	62.96
681.444	63.11
681.771	63.24
682.097	63.19
682.424	63.16
682.75	63.11
683.077	63.12
683.403	63.02
683.729	63.08
684.056	63.09
684.382	63.05
684.708	63.01
685.034	62.98
685.36	62.95
685.686	62.91
686.012	62.79
686.339	62.85
686.664	62.95
686.99	62.69
687.316	62.81
687.642	62.92
687.968	62.87
688.294	63.01
688.619	62.98
688.945	62.96
689.271	62.91
689.596	62.87
689.922	62.95
690.247	62.89
690.573	62.95
690.898	62.95
691.224	62.97
691.549	62.98
691.874	63.18
692.2	63.29
692.525	63.38
692.85	63.71
693.175	63.77
693.5	63.57
693.825	63.74
694.15	63.66
694.475	63.69
694.8	63.67
695.125	63.45
695.45	63.52
695.775	63.44
696.099	63.54
696.424	63.71
696.749	63.69
697.073	63.71
697.398	63.74
697.723	63.75
698.047	63.85
698.372	63.95
698.696	63.82
699.02	63.76
699.345	63.63
699.669	63.56
699.993	63.63
700.318	63.8
700.642	63.67
700.966	63.63
701.29	63.5
701.614	63.61
701.938	63.59
702.262	63.59
702.586	63.94
702.91	63.94
703.234	63.92
703.557	63.86
703.881	63.98
704.205	63.78
704.529	63.7
704.852	63.4
705.176	63.23
705.499	63.21
705.823	63.28
706.146	63.42
706.47	63.36
706.793	63.44
707.117	63.41
707.44	63.57
707.763	63.42
708.086	63.71
708.409	63.65
708.733	63.7
709.056	63.76
709.379	63.68
709.702	63.49
710.025	63.71
710.348	63.68
710.671	63.68
710.993	63.8
711.316	63.63
711.639	63.81
711.962	63.99
712.284	64.15
712.607	64.16
712.93	64.12
713.252	64.11
713.575	63.83
713.897	63.98
714.22	63.87
714.542	64.17
714.864	64.17
715.187	64.16
715.509	64.16
715.831	64.13
716.153	63.92
716.475	64.2
716.798	64.03
717.12	64.32
717.442	64.2
717.764	64.44
718.085	64.76
718.407	64.63
718.729	64.6
719.051	64.51
719.373	64.42
719.695	64.54
720.016	64.59
720.338	64.81
720.659	64.82
720.981	64.86
721.302	64.83
721.624	64.82
721.945	64.82
722.267	65.17
722.588	65.34
722.909	65.19
723.231	64.72
723.552	64.93
723.873	64.99
724.194	64.91
724.515	64.61
724.836	64.43
725.157	64.52
725.478	64.57
725.799	64.5
726.12	64.33
726.441	64.24
726.762	64.19
727.083	64.03
727.403	63.61
727.724	63.87
728.045	63.8
728.365	63.73
728.686	63.71
729.006	63.71
729.327	63.55
729.647	63.63
729.967	63.93
730.288	63.76
730.608	63.51
730.928	63.63
731.249	63.69
731.569	63.86
731.889	63.86
732.209	63.86
732.529	63.86
732.849	64.1
733.169	64.1
733.489	64.05
733.809	64.07
734.129	64.31
734.448	64.22
734.768	64.24
735.088	64.39
735.408	64.49
735.727	64.31
736.047	64.55
736.366	64.93
736.686	64.89
737.005	65.18
737.325	64.97
737.644	64.77
737.963	64.93
738.283	64.89
738.602	64.83
738.921	64.65
739.24	64.61
739.56	64.64
739.879	64.66
740.198	64.7
740.517	64.88
740.836	64.89
741.155	64.99
741.473	64.89
741.792	64.31
742.111	64.1
742.43	64.18
742.748	63.7
743.067	63.37
743.386	63.48
743.704	63.38
744.023	63.37
744.341	63.55
744.66	62.94
744.978	62.91
745.297	63.05
745.615	63.2
745.933	63.19
746.252	63
746.57	62.52
746.888	62.41
747.206	62.19
747.524	62.2
747.842	62.16
748.16	62
748.478	62.72
748.796	63.11
749.114	62.95
749.432	62.9
749.749	62.85
750.067	62.8
750.385	62.69
750.703	63.13
751.02	63.08
751.338	63.47
751.655	63.68
751.973	63.48
752.29	63.54
752.608	63.84
752.925	63.75
753.242	64.41
753.56	64.55
753.877	65.09
754.194	65
754.511	64.58
754.828	64.43
755.145	64.21
755.462	63.97
755.779	64.23
756.096	64.44
756.413	64.64
756.73	64.8
757.047	64.74
757.364	64.3
757.68	64.24
757.997	64.39
758.314	64.27
758.63	64.39
758.947	64.32
759.264	64.34
759.58	64.47
759.896	64.3
760.213	64.06
760.529	63.83
760.846	63.88
761.162	64.25
761.478	64.5
761.794	64.55
762.11	64.55
762.426	64.5
762.743	64.52
763.059	64.73
763.375	64.5
763.69	64.42
764.006	64.23
764.322	64.19
764.638	64.45
764.954	64.62
765.27	64.72
765.585	64.89
765.901	64.71
766.216	64.86
766.532	65.23
766.848	65.59
767.163	65.46
767.478	65.5
767.794	65.21
768.109	65.21
768.424	65.14
768.74	65.06
769.055	65.21
769.37	64.95
769.685	64.43
770	64.29
770.315	64.1
770.63	64.54
770.945	64.76
771.26	64.24
771.575	64
771.89	63.69
772.205	63
772.52	63.01
772.834	62.64
773.149	62
773.464	61.64
773.778	61.68
774.093	62.06
774.407	62.44
774.722	61.8
775.036	61.84
775.351	62.09
775.665	61.56
775.979	61.6
776.293	61.61
776.608	61.69
776.922	62.09
777.236	62.33
777.55	62.33
777.864	62.67
778.178	62.92
778.492	62.68
778.806	63.04
779.12	62.78
779.434	63.23
779.747	63.31
780.061	63.26
780.375	63.18
780.689	62.8
781.002	63.47
781.316	63.84
781.629	63.56
781.943	63.65
782.256	63.82
782.57	63.88
782.883	64.62
783.196	64.75
783.51	64.7
783.823	64.69
784.136	64.9
784.449	64.66
784.762	64.11
785.075	63.88
785.388	64.32
785.701	64.52
786.014	64.44
786.327	64.32
786.64	64.63
786.953	64.78
787.266	64.43
787.578	63.56
787.891	63.95
788.204	64.24
788.516	63.61
788.829	63.75
789.141	63.82
789.454	63.38
789.766	63.79
790.079	63.72
790.391	63.62
790.703	63.33
791.016	63.58
791.328	63.74
791.64	64.85
791.952	64.83
792.264	64.91
792.576	64.29
792.888	64.22
793.2	63.82
793.512	63.72
793.824	63.89
794.136	63.74
794.448	63.45
794.76	63.72
795.071	63.79
795.383	63.44
795.695	63.99
796.006	63.62
796.318	63.16
796.629	63.82
796.941	63.82
797.252	63.82
797.564	63.44
797.875	63.42
798.186	62.7
798.497	62.71
798.809	62.6
799.12	63.14
799.431	63.82
799.742	64.11
800.053	64.65
800.364	64.58
800.675	65.19
800.986	65.26
801.297	64.73
801.608	65.16
801.918	65.13
802.229	64.87
802.54	65.17
802.851	64.84
803.161	64.11
803.472	64.25
803.782	64.39
804.093	64.41
804.403	64.11
804.714	64.99
805.024	64.63
805.334	64.61
805.645	65
805.955	64.27
806.265	64.6
806.575	64.16
806.885	64.09
807.195	63.18
807.505	63.05
807.815	63.52
808.125	63.28
808.435	63.43
808.745	63.72
809.055	64.09
809.365	64.8
809.674	65.33
809.984	65.39
810.294	65.42
810.603	65.88
810.913	66.01
811.222	65.08
811.532	65.07
811.841	64.93
812.151	64.05
812.46	64.3
812.769	64.23
813.079	63.64
813.388	63.75
813.697	64.24
814.006	64.22
814.315	63.97
814.624	64.39
814.933	64.81
815.242	64.79
815.551	64.16
815.86	64.3
816.169	63.53
816.478	62.98
816.786	62.67
817.095	62.19
817.404	62.25
817.712	62.11
818.021	62.86
818.33	63.13
818.638	64.17
818.947	64.59
819.255	64.39
819.563	65.34
819.872	65.4
820.18	65.42
820.488	65.61
820.796	65.64
821.105	65.48
821.413	65.29
821.721	65.13
822.029	64.94
822.337	64.86
822.645	65.02
822.953	65.09
823.26	65.26
823.568	64.95
823.876	64.85
824.184	64.98
824.491	64.94
824.799	64.93
825.107	64.76
825.414	64.72
825.722	64.76
826.029	64.61
826.337	64.7
826.644	64.6
826.951	64.68
827.259	64.58
827.566	64.74
827.873	65.06
828.18	65.06
828.488	65.35
828.795	65.32
829.102	65.31
829.409	65.44
829.716	65.52
830.023	65.69
830.329	66.03
830.636	66.23
830.943	66.02
831.25	66.32
831.557	66.31
831.863	66.48
832.17	66.55
832.476	66.75
832.783	66.82
833.089	67.29
833.396	67.57
833.702	67.49
834.009	67.51
834.315	66.9
834.621	66.74
834.928	66.59
835.234	66.3
835.54	66.13
835.846	65.62
836.152	65.06
836.458	65.62
836.764	65.45
837.07	65.51
837.376	65.97
837.682	65.47
837.988	65.82
838.293	65.78
838.599	65.79
838.905	65.61
839.211	65.04
839.516	64.6
839.822	63.82
840.127	63.13
840.433	62.5
840.738	62.85
841.044	63.18
841.349	63.41
841.654	63.65
841.959	64.2
842.265	65.03
842.57	65.71
842.875	65.21
843.18	67.18
843.485	66.27
843.79	65.96
844.095	66.73
844.4	66.01
844.705	65.11
845.01	64.47
845.315	63.94
845.619	63.75
845.924	63.27
846.229	63.3
846.533	65.29
846.838	65.58
847.142	64.41
847.447	65.05
847.751	65.61
848.056	67.41
848.36	68.07
848.664	67.93
848.969	66.77
849.273	68.59
849.577	65.04
849.881	66.04
850.185	64.81
850.489	65.73
850.794	66.89
851.097	69.03
851.401	69.65
851.705	68.85
852.009	71.81
852.313	74.35
852.617	73.96
852.92	73.53
853.224	73.5
853.528	75.14
853.831	75.86
854.135	76.59
854.438	75.36
854.742	76.34
855.045	76.02
855.349	78.36
855.652	80.31
855.955	80.64
856.259	79.44
856.562	78.38
856.865	76.37
857.168	77.63
857.471	75.98
857.774	75.79
858.077	74.41
858.38	74.57
858.683	72.88
858.986	73.92
859.289	73.66
859.592	73.52
859.894	71.64
860.197	69.28
860.5	69.81
860.802	69.54
861.105	62.73
861.407	62.65
861.71	62.59
862.012	59.45
862.315	60.71
862.617	58.76
862.919	59.69
863.222	60.09
863.524	58.29
863.826	55.63
864.128	56.32
864.43	58.5
864.732	56.51
865.034	56.16
865.336	55.25
865.638	56.65
865.94	56.1
866.242	58.72
866.544	59.55
866.846	59.41
867.147	59.48
867.449	61.75
867.751	61.15
868.052	60.31
868.354	62.1
868.655	62.15
868.957	62.09
869.258	62.53
869.56	65.51
869.861	66.56
870.162	68.64
870.463	68.7
870.765	67.58
871.066	69.91
871.367	70.75
871.668	70.45
871.969	70.66
872.27	71.27
872.571	66.85
872.872	66.27
873.173	61.69
873.473	61.17
873.774	63.23
874.075	65.18
874.376	64.84
874.676	61.23
874.977	62.29
875.277	62.26
875.578	61.72
875.878	59.23
876.179	58.07
876.479	57.04
876.78	57.28
877.08	57.85
877.38	54.76
877.68	54.33
877.981	54.65
878.281	51.92
878.581	50.42
