Data from BU26943_Reflection_00012.txt Node
Date: Tue Nov 19 11:02:37 EST 2019
User: vgr7
Spectrometer: USB2G7710
Scans to average: 3
Trigger mode: 4
Integration Time (sec): 2.000000E-2
Electric dark correction enabled: true
Boxcar width: 10
XAxis mode: Wavelengths
Number of Pixels in Spectrum: 2048
>>>>>Begin Spectral Data<<<<<
177.721	-225.79
178.105	-178.69
178.488	-128.46
178.871	-110.64
179.254	-55.56
179.636	-486.96
180.019	390.32
180.402	340
180.785	100
181.168	128.85
181.55	100
181.933	253.85
182.316	-321.05
182.698	174.07
183.081	21.99
183.463	12.75
183.846	24.09
184.228	24.19
184.611	10.29
184.993	28.81
185.376	0.45
185.758	-8.64
186.14	6.85
186.522	1.6
186.904	-4.95
187.287	-28.87
187.669	-15.43
188.051	-12.81
188.433	-13.61
188.815	-23.85
189.197	-25.13
189.579	-13.29
189.961	-24.21
190.342	-22.6
190.724	-28.32
191.106	-40.21
191.488	-36.4
191.869	-34.56
192.251	-31.86
192.633	-24.12
193.014	-23.78
193.396	-22.32
193.777	-11.32
194.159	-13.4
194.54	-7.41
194.922	-16.45
195.303	-19.5
195.684	-27.75
196.065	-16.35
196.447	-10.65
196.828	-4.01
197.209	-4.37
197.59	-4.63
197.971	-6.95
198.352	0.14
198.733	-0.41
199.114	7.03
199.495	8.02
199.876	-10.67
200.257	-20.67
200.638	-30.94
201.018	-13.06
201.399	0.12
201.78	-9.59
202.16	-14.69
202.541	-22.78
202.922	-7.85
203.302	-11.49
203.683	-10.86
204.063	-21.08
204.444	-25.15
204.824	-21.89
205.204	-24.05
205.585	-25.68
205.965	-7.18
206.345	-14.1
206.725	-9.15
207.106	-11.72
207.486	-18.97
207.866	-12.77
208.246	-0.61
208.626	4.67
209.006	-2.28
209.386	-8.64
209.766	-4.8
210.145	0.08
210.525	-0.4
210.905	-3.95
211.285	6.42
211.664	5.42
212.044	8.44
212.424	6.31
212.803	4.02
213.183	-0.35
213.562	0.32
213.942	-2.58
214.321	3.47
214.701	2.12
215.08	5.24
215.459	13.12
215.838	3.72
216.218	-3.71
216.597	-2.36
216.976	-5.55
217.355	-0.57
217.734	-6.24
218.113	-6.25
218.492	-3.42
218.871	-1.98
219.25	-7.4
219.629	-18.27
220.008	-20.2
220.387	-24.89
220.766	-16.5
221.144	-10.22
221.523	-18.91
221.902	-21.89
222.28	-27.68
222.659	-20.86
223.037	-18.8
223.416	-15.63
223.794	-13.5
224.173	-17.04
224.551	-18.32
224.929	-20.65
225.308	-21.95
225.686	-14.83
226.064	-17.34
226.442	-12.57
226.821	-10.92
227.199	-8.81
227.577	-6.38
227.955	-5.9
228.333	-4.97
228.711	-4.94
229.089	-4.28
229.467	-3.73
229.845	-5.1
230.222	-2.06
230.6	-3.61
230.978	-1.76
231.356	-2.03
231.733	-1.4
232.111	-0.1
232.488	0.18
232.866	-0.02
233.243	2.09
233.621	1.85
233.998	3
234.376	0.56
234.753	0.09
235.13	-0.26
235.508	2.17
235.885	1.67
236.262	1.72
236.639	0.85
237.016	-0.83
237.393	-0.69
237.77	1.47
238.147	1.42
238.524	2.14
238.901	1.07
239.278	1.16
239.655	1.67
240.032	2.46
240.409	2.01
240.785	2.61
241.162	1.91
241.539	1.18
241.915	1.32
242.292	2.12
242.668	2.25
243.045	2.78
243.421	2.75
243.798	2.81
244.174	3.09
244.551	3.42
244.927	3.74
245.303	3.69
245.679	3.46
246.056	3.53
246.432	3.48
246.808	3.71
247.184	3.84
247.56	3.74
247.936	3.54
248.312	3.84
248.688	3.67
249.064	3.77
249.44	4.15
249.815	4.29
250.191	4.28
250.567	4.31
250.943	4.05
251.318	3.87
251.694	3.92
252.069	3.79
252.445	3.72
252.82	3.86
253.196	4.01
253.571	4.15
253.947	4.08
254.322	4.14
254.697	4.13
255.073	3.97
255.448	4.22
255.823	4.43
256.198	4.33
256.573	4.45
256.948	4.56
257.323	4.4
257.698	4.3
258.073	3.99
258.448	4.04
258.823	4.02
259.198	4.22
259.573	4.16
259.948	4.24
260.322	4.01
260.697	3.85
261.072	3.88
261.446	3.81
261.821	3.78
262.195	3.79
262.57	3.75
262.944	3.77
263.319	3.74
263.693	3.53
264.067	3.63
264.442	3.55
264.816	3.39
265.19	3.37
265.564	3.28
265.938	3.36
266.313	3.19
266.687	3.4
267.061	3.19
267.435	3.32
267.809	3.06
268.183	3.24
268.556	3.22
268.93	3.18
269.304	3.04
269.678	2.98
270.051	2.94
270.425	2.84
270.799	2.69
271.172	2.71
271.546	2.9
271.919	2.69
272.293	2.71
272.666	2.68
273.04	2.75
273.413	2.68
273.787	2.66
274.16	2.64
274.533	2.61
274.906	2.53
275.279	2.37
275.653	2.48
276.026	2.48
276.399	2.52
276.772	2.5
277.145	2.65
277.518	2.58
277.891	2.63
278.263	2.78
278.636	2.89
279.009	2.87
279.382	2.71
279.755	2.8
280.127	2.79
280.5	2.75
280.872	2.68
281.245	2.74
281.617	2.88
281.99	2.95
282.362	2.96
282.735	3.06
283.107	2.98
283.479	2.93
283.852	3.02
284.224	3.06
284.596	3.16
284.968	3.22
285.34	3.31
285.713	3.31
286.085	3.12
286.457	3.11
286.829	2.99
287.201	3.03
287.572	3.01
287.944	3.03
288.316	3.13
288.688	3.2
289.06	3.28
289.431	3.29
289.803	3.43
290.175	3.38
290.546	3.35
290.918	3.39
291.289	3.38
291.661	3.34
292.032	3.3
292.403	3.12
292.775	3.11
293.146	3.13
293.517	3.06
293.889	3.2
294.26	3.23
294.631	3.35
295.002	3.36
295.373	3.47
295.744	3.49
296.115	3.44
296.486	3.36
296.857	3.39
297.228	3.33
297.599	3.16
297.97	3.2
298.34	3.18
298.711	3.31
299.082	3.42
299.452	3.39
299.823	3.5
300.194	3.65
300.564	3.59
300.935	3.62
301.305	3.7
301.676	3.77
302.046	3.83
302.416	3.84
302.787	3.88
303.157	3.96
303.527	4.04
303.897	4.14
304.267	4.33
304.637	4.32
305.008	4.42
305.378	4.44
305.748	4.41
306.117	4.45
306.487	4.47
306.857	4.36
307.227	4.45
307.597	4.48
307.967	4.54
308.336	4.61
308.706	4.58
309.076	4.61
309.445	4.56
309.815	4.54
310.184	4.55
310.554	4.56
310.923	4.36
311.293	4.35
311.662	4.47
312.031	4.43
312.401	4.43
312.77	4.51
313.139	4.58
313.508	4.57
313.877	4.61
314.246	4.57
314.616	4.74
314.985	4.75
315.353	4.65
315.722	4.61
316.091	4.72
316.46	4.69
316.829	4.89
317.198	5.01
317.567	5.16
317.935	5.22
318.304	5.29
318.672	5.35
319.041	5.47
319.41	5.41
319.778	5.41
320.147	5.54
320.515	5.43
320.883	5.46
321.252	5.63
321.62	5.67
321.988	5.7
322.357	5.75
322.725	5.76
323.093	5.9
323.461	5.87
323.829	5.97
324.197	6.2
324.565	6.06
324.933	5.95
325.301	5.84
325.669	5.93
326.037	6.01
326.405	6.14
326.772	6.08
327.14	6.07
327.508	5.99
327.875	5.84
328.243	5.87
328.61	5.96
328.978	5.9
329.346	5.87
329.713	6.12
330.08	6.14
330.448	6.2
330.815	6.24
331.182	6.3
331.55	6.17
331.917	6.11
332.284	6.12
332.651	6.15
333.018	6.28
333.385	6.29
333.752	6.3
334.119	6.32
334.486	6.35
334.853	6.39
335.22	6.57
335.587	6.55
335.954	6.47
336.32	6.45
336.687	6.48
337.054	6.51
337.42	6.3
337.787	6.23
338.153	6.2
338.52	6.31
338.886	6.43
339.253	6.43
339.619	6.49
339.986	6.42
340.352	6.49
340.718	6.46
341.084	6.33
341.451	6.43
341.817	6.43
342.183	6.48
342.549	6.52
342.915	6.43
343.281	6.55
343.647	6.71
344.013	6.78
344.379	6.75
344.745	6.79
345.11	6.86
345.476	6.9
345.842	6.93
346.208	6.84
346.573	6.82
346.939	6.87
347.304	6.79
347.67	6.81
348.035	6.77
348.401	6.73
348.766	6.84
349.132	6.79
349.497	6.83
349.862	6.79
350.228	6.89
350.593	6.88
350.958	6.96
351.323	6.92
351.688	6.88
352.053	6.87
352.418	6.9
352.783	6.88
353.148	6.84
353.513	6.86
353.878	6.84
354.243	6.71
354.608	6.71
354.972	6.72
355.337	6.78
355.702	6.76
356.066	6.83
356.431	6.8
356.795	6.75
357.16	6.7
357.524	6.61
357.889	6.56
358.253	6.6
358.618	6.55
358.982	6.52
359.346	6.49
359.71	6.47
360.075	6.52
360.439	6.54
360.803	6.55
361.167	6.52
361.531	6.53
361.895	6.54
362.259	6.54
362.623	6.5
362.987	6.47
363.351	6.49
363.714	6.44
364.078	6.36
364.442	6.34
364.806	6.34
365.169	6.36
365.533	6.32
365.896	6.31
366.26	6.19
366.623	6.19
366.987	6.18
367.35	6.21
367.714	6.15
368.077	6.07
368.44	6.02
368.803	5.96
369.167	5.91
369.53	5.9
369.893	5.84
370.256	5.8
370.619	5.77
370.982	5.67
371.345	5.62
371.708	5.68
372.071	5.64
372.434	5.57
372.797	5.57
373.159	5.48
373.522	5.42
373.885	5.46
374.247	5.38
374.61	5.34
374.973	5.3
375.335	5.16
375.698	5.13
376.06	5.04
376.423	5.06
376.785	5
377.147	4.96
377.51	4.92
377.872	4.92
378.234	4.94
378.596	4.95
378.958	4.95
379.321	4.85
379.683	4.81
380.045	4.8
380.407	4.76
380.769	4.74
381.13	4.7
381.492	4.7
381.854	4.73
382.216	4.73
382.578	4.74
382.939	4.81
383.301	4.75
383.663	4.8
384.024	4.74
384.386	4.71
384.747	4.66
385.109	4.67
385.47	4.66
385.832	4.63
386.193	4.6
386.554	4.55
386.916	4.59
387.277	4.54
387.638	4.53
387.999	4.58
388.36	4.57
388.721	4.55
389.082	4.5
389.443	4.43
389.804	4.39
390.165	4.35
390.526	4.32
390.887	4.33
391.248	4.28
391.609	4.28
391.969	4.28
392.33	4.27
392.691	4.23
393.051	4.19
393.412	4.13
393.772	4.12
394.133	4.12
394.493	4.04
394.854	4.1
395.214	4.07
395.574	3.99
395.935	3.98
396.295	3.94
396.655	3.93
397.015	3.9
397.376	3.85
397.736	3.78
398.096	3.78
398.456	3.76
398.816	3.69
399.176	3.67
399.535	3.64
399.895	3.62
400.255	3.63
400.615	3.62
400.975	3.62
401.334	3.62
401.694	3.59
402.054	3.59
402.413	3.52
402.773	3.51
403.132	3.5
403.492	3.5
403.851	3.49
404.211	3.47
404.57	3.5
404.929	3.48
405.288	3.49
405.648	3.42
406.007	3.42
406.366	3.45
406.725	3.43
407.084	3.44
407.443	3.44
407.802	3.41
408.161	3.4
408.52	3.42
408.879	3.42
409.238	3.41
409.596	3.43
409.955	3.45
410.314	3.45
410.673	3.45
411.031	3.43
411.39	3.45
411.748	3.46
412.107	3.43
412.465	3.43
412.824	3.42
413.182	3.43
413.54	3.41
413.899	3.42
414.257	3.41
414.615	3.39
414.974	3.39
415.332	3.4
415.69	3.4
416.048	3.38
416.406	3.37
416.764	3.37
417.122	3.36
417.48	3.35
417.838	3.34
418.195	3.34
418.553	3.32
418.911	3.3
419.269	3.28
419.626	3.28
419.984	3.29
420.342	3.28
420.699	3.28
421.057	3.29
421.414	3.27
421.772	3.27
422.129	3.27
422.486	3.26
422.844	3.25
423.201	3.23
423.558	3.23
423.915	3.22
424.273	3.2
424.63	3.19
424.987	3.18
425.344	3.18
425.701	3.17
426.058	3.18
426.415	3.18
426.772	3.17
427.128	3.18
427.485	3.15
427.842	3.14
428.199	3.14
428.555	3.13
428.912	3.12
429.269	3.12
429.625	3.1
429.982	3.1
430.338	3.11
430.695	3.1
431.051	3.08
431.407	3.08
431.764	3.07
432.12	3.07
432.476	3.08
432.832	3.08
433.189	3.06
433.545	3.07
433.901	3.08
434.257	3.08
434.613	3.07
434.969	3.09
435.325	3.11
435.681	3.11
436.036	3.11
436.392	3.11
436.748	3.13
437.104	3.16
437.459	3.16
437.815	3.16
438.171	3.16
438.526	3.18
438.882	3.18
439.237	3.18
439.593	3.18
439.948	3.17
440.304	3.16
440.659	3.16
441.014	3.15
441.369	3.16
441.725	3.16
442.08	3.16
442.435	3.16
442.79	3.14
443.145	3.13
443.5	3.12
443.855	3.12
444.21	3.12
444.565	3.1
444.92	3.09
445.275	3.08
445.629	3.09
445.984	3.08
446.339	3.08
446.693	3.09
447.048	3.08
447.403	3.08
447.757	3.08
448.112	3.08
448.466	3.08
448.82	3.06
449.175	3.07
449.529	3.07
449.883	3.06
450.238	3.05
450.592	3.07
450.946	3.07
451.3	3.06
451.654	3.04
452.008	3.03
452.362	3.02
452.716	3.02
453.07	3.03
453.424	3.02
453.778	3.01
454.132	3
454.486	3.01
454.839	3.01
455.193	3.04
455.547	3.04
455.9	3.04
456.254	3.04
456.607	3.02
456.961	3.02
457.314	3.02
457.668	3.03
458.021	3.01
458.375	3.01
458.728	3.02
459.081	3.02
459.434	3.04
459.787	3.06
460.141	3.05
460.494	3.05
460.847	3.04
461.2	3.05
461.553	3.05
461.906	3.06
462.259	3.05
462.611	3.03
462.964	3.06
463.317	3.05
463.67	3.04
464.022	3.06
464.375	3.07
464.728	3.08
465.08	3.09
465.433	3.11
465.785	3.13
466.138	3.12
466.49	3.13
466.843	3.15
467.195	3.15
467.547	3.19
467.899	3.19
468.252	3.22
468.604	3.23
468.956	3.23
469.308	3.23
469.66	3.25
470.012	3.27
470.364	3.25
470.716	3.27
471.068	3.29
471.42	3.3
471.772	3.3
472.123	3.33
472.475	3.35
472.827	3.34
473.178	3.35
473.53	3.36
473.882	3.37
474.233	3.36
474.585	3.35
474.936	3.34
475.288	3.35
475.639	3.36
475.99	3.34
476.342	3.35
476.693	3.36
477.044	3.36
477.395	3.35
477.746	3.34
478.097	3.34
478.448	3.32
478.8	3.3
479.15	3.3
479.501	3.27
479.852	3.26
480.203	3.27
480.554	3.26
480.905	3.27
481.255	3.26
481.606	3.26
481.957	3.27
482.307	3.25
482.658	3.25
483.009	3.25
483.359	3.25
483.709	3.24
484.06	3.23
484.41	3.23
484.761	3.24
485.111	3.24
485.461	3.24
485.811	3.25
486.162	3.25
486.512	3.23
486.862	3.24
487.212	3.25
487.562	3.25
487.912	3.25
488.262	3.24
488.612	3.24
488.961	3.23
489.311	3.22
489.661	3.23
490.011	3.22
490.36	3.21
490.71	3.21
491.06	3.22
491.409	3.21
491.759	3.21
492.108	3.21
492.458	3.2
492.807	3.2
493.157	3.2
493.506	3.2
493.855	3.21
494.204	3.2
494.554	3.2
494.903	3.2
495.252	3.21
495.601	3.22
495.95	3.23
496.299	3.24
496.648	3.26
496.997	3.27
497.346	3.31
497.695	3.34
498.043	3.36
498.392	3.38
498.741	3.42
499.09	3.45
499.438	3.48
499.787	3.52
500.135	3.54
500.484	3.59
500.832	3.63
501.181	3.67
501.529	3.73
501.878	3.76
502.226	3.81
502.574	3.82
502.923	3.9
503.271	3.97
503.619	4.01
503.967	4.08
504.315	4.16
504.663	4.2
505.011	4.25
505.359	4.31
505.707	4.36
506.055	4.43
506.403	4.5
506.751	4.56
507.098	4.64
507.446	4.73
507.794	4.8
508.141	4.86
508.489	4.94
508.837	5.02
509.184	5.11
509.531	5.2
509.879	5.29
510.226	5.35
510.574	5.45
510.921	5.56
511.268	5.67
511.616	5.79
511.963	5.91
512.31	6.02
512.657	6.14
513.004	6.26
513.351	6.37
513.698	6.52
514.045	6.68
514.392	6.83
514.739	6.97
515.086	7.14
515.432	7.32
515.779	7.48
516.126	7.66
516.473	7.81
516.819	7.95
517.166	8.13
517.512	8.28
517.859	8.41
518.205	8.54
518.552	8.65
518.898	8.77
519.245	8.9
519.591	9.03
519.937	9.19
520.283	9.37
520.629	9.54
520.976	9.69
521.322	9.86
521.668	10.01
522.014	10.21
522.36	10.39
522.706	10.6
523.052	10.8
523.398	11.02
523.743	11.25
524.089	11.5
524.435	11.72
524.781	11.95
525.126	12.16
525.472	12.37
525.817	12.58
526.163	12.73
526.509	12.9
526.854	13.06
527.199	13.22
527.545	13.35
527.89	13.48
528.235	13.65
528.581	13.8
528.926	13.95
529.271	14.09
529.616	14.25
529.961	14.38
530.306	14.53
530.651	14.7
530.996	14.86
531.341	15.04
531.686	15.22
532.031	15.4
532.376	15.58
532.721	15.75
533.065	15.92
533.41	16.12
533.755	16.32
534.099	16.53
534.444	16.71
534.788	16.92
535.133	17.13
535.477	17.33
535.822	17.54
536.166	17.82
536.51	18.07
536.855	18.36
537.199	18.65
537.543	18.96
537.887	19.24
538.231	19.52
538.576	19.83
538.92	20.1
539.264	20.37
539.608	20.62
539.951	20.86
540.295	21.1
540.639	21.32
540.983	21.55
541.327	21.77
541.671	21.99
542.014	22.19
542.358	22.43
542.701	22.6
543.045	22.81
543.389	22.97
543.732	23.19
544.075	23.36
544.419	23.57
544.762	23.77
545.105	23.98
545.449	24.2
545.792	24.4
546.135	24.64
546.478	24.88
546.821	25.16
547.165	25.44
547.508	25.73
547.851	26.05
548.194	26.31
548.536	26.55
548.879	26.83
549.222	27.1
549.565	27.33
549.908	27.61
550.25	27.86
550.593	28.15
550.936	28.39
551.278	28.71
551.621	28.97
551.963	29.25
552.306	29.5
552.648	29.78
552.991	30.04
553.333	30.26
553.675	30.53
554.017	30.74
554.36	30.98
554.702	31.23
555.044	31.4
555.386	31.61
555.728	31.87
556.07	32.11
556.412	32.35
556.754	32.61
557.096	32.86
557.438	33.13
557.78	33.36
558.121	33.58
558.463	33.75
558.805	34.02
559.147	34.21
559.488	34.42
559.83	34.65
560.171	34.84
560.513	35.07
560.854	35.25
561.196	35.5
561.537	35.7
561.878	35.83
562.22	36.02
562.561	36.21
562.902	36.39
563.243	36.58
563.584	36.77
563.925	36.93
564.266	37.12
564.607	37.3
564.948	37.47
565.289	37.62
565.63	37.79
565.971	37.94
566.312	38.13
566.653	38.32
566.993	38.43
567.334	38.58
567.675	38.76
568.015	38.98
568.356	39.15
568.696	39.28
569.037	39.43
569.377	39.6
569.718	39.73
570.058	39.87
570.398	40.01
570.739	40.13
571.079	40.27
571.419	40.34
571.759	40.46
572.099	40.59
572.439	40.71
572.779	40.84
573.119	40.93
573.459	41.02
573.799	41.16
574.139	41.34
574.479	41.48
574.819	41.58
575.158	41.66
575.498	41.8
575.838	41.9
576.177	42.03
576.517	42.12
576.856	42.24
577.196	42.38
577.535	42.5
577.875	42.69
578.214	42.8
578.553	43
578.893	43.1
579.232	43.22
579.571	43.4
579.91	43.52
580.25	43.67
580.589	43.84
580.928	43.89
581.267	43.95
581.606	43.99
581.945	44.08
582.283	44.19
582.622	44.27
582.961	44.43
583.3	44.59
583.639	44.74
583.977	44.8
584.316	44.9
584.654	44.98
584.993	44.99
585.332	45.09
585.67	45.2
586.008	45.4
586.347	45.47
586.685	45.49
587.024	45.61
587.362	45.72
587.7	45.75
588.038	45.86
588.376	46.02
588.715	46.18
589.053	46.28
589.391	46.3
589.729	46.32
590.067	46.38
590.404	46.48
590.742	46.51
591.08	46.66
591.418	46.8
591.756	46.89
592.093	46.95
592.431	47.09
592.769	47.15
593.106	47.12
593.444	47.26
593.781	47.38
594.119	47.49
594.456	47.48
594.793	47.49
595.131	47.56
595.468	47.61
595.805	47.69
596.143	47.69
596.48	47.75
596.817	47.82
597.154	47.9
597.491	47.87
597.828	47.93
598.165	47.98
598.502	48
598.839	48.07
599.176	48.21
599.512	48.19
599.849	48.28
600.186	48.38
600.523	48.41
600.859	48.43
601.196	48.45
601.532	48.54
601.869	48.66
602.205	48.69
602.542	48.75
602.878	48.8
603.215	48.93
603.551	49
603.887	49.12
604.223	49.19
604.56	49.2
604.896	49.33
605.232	49.38
605.568	49.45
605.904	49.48
606.24	49.51
606.576	49.66
606.912	49.68
607.248	49.79
607.583	49.9
607.919	50.01
608.255	50.04
608.591	50.07
608.926	50.08
609.262	50.16
609.597	50.19
609.933	50.14
610.268	50.16
610.604	50.19
610.939	50.13
611.275	50.16
611.61	50.25
611.945	50.23
612.281	50.28
612.616	50.33
612.951	50.41
613.286	50.51
613.621	50.45
613.956	50.55
614.291	50.49
614.626	50.48
614.961	50.44
615.296	50.47
615.631	50.54
615.966	50.69
616.3	50.74
616.635	50.75
616.97	50.94
617.304	51
617.639	51.13
617.973	51.18
618.308	51.15
618.642	51.24
618.977	51.32
619.311	51.32
619.646	51.28
619.98	51.22
620.314	51.21
620.648	51.31
620.983	51.19
621.317	51.21
621.651	51.15
621.985	51.27
622.319	51.29
622.653	51.43
622.987	51.39
623.321	51.51
623.655	51.58
623.988	51.49
624.322	51.6
624.656	51.54
624.99	51.59
625.323	51.62
625.657	51.66
625.99	51.59
626.324	51.65
626.657	51.67
626.991	51.78
627.324	51.78
627.658	51.75
627.991	51.88
628.324	51.95
628.657	52.03
628.991	51.98
629.324	52.07
629.657	52.07
629.99	52.16
630.323	52.13
630.656	52.13
630.989	52.2
631.322	52.14
631.655	52.23
631.987	52.32
632.32	52.32
632.653	52.26
632.986	52.38
633.318	52.39
633.651	52.44
633.984	52.5
634.316	52.51
634.649	52.54
634.981	52.57
635.313	52.59
635.646	52.58
635.978	52.61
636.31	52.6
636.643	52.55
636.975	52.5
637.307	52.47
637.639	52.43
637.971	52.39
638.303	52.35
638.635	52.36
638.967	52.35
639.299	52.38
639.631	52.54
639.963	52.51
640.295	52.57
640.626	52.7
640.958	52.63
641.29	52.77
641.621	52.85
641.953	52.84
642.285	52.83
642.616	52.88
642.948	52.98
643.279	52.96
643.61	53.03
643.942	53.08
644.273	53.15
644.604	53.26
644.936	53.34
645.267	53.48
645.598	53.54
645.929	53.52
646.26	53.65
646.591	53.6
646.922	53.65
647.253	53.68
647.584	53.62
647.915	53.66
648.245	53.51
648.576	53.5
648.907	53.49
649.238	53.6
649.568	53.63
649.899	53.6
650.229	53.61
650.56	53.53
650.89	53.59
651.221	53.69
651.551	53.75
651.882	53.82
652.212	53.82
652.542	53.91
652.872	53.95
653.203	53.93
653.533	54.01
653.863	53.96
654.193	53.93
654.523	53.96
654.853	54.07
655.183	54.27
655.513	54.37
655.843	54.47
656.172	54.48
656.502	54.48
656.832	54.62
657.162	54.65
657.491	54.78
657.821	54.77
658.15	54.76
658.48	54.7
658.809	54.69
659.139	54.75
659.468	54.68
659.798	54.66
660.127	54.62
660.456	54.54
660.785	54.66
661.115	54.7
661.444	54.73
661.773	54.6
662.102	54.53
662.431	54.52
662.76	54.49
663.089	54.62
663.418	54.7
663.747	54.68
664.076	54.57
664.404	54.5
664.733	54.58
665.062	54.55
665.39	54.57
665.719	54.56
666.048	54.49
666.376	54.38
666.705	54.45
667.033	54.52
667.362	54.71
667.69	54.7
668.018	54.66
668.347	54.68
668.675	54.72
669.003	54.75
669.331	54.71
669.659	54.71
669.987	54.56
670.315	54.38
670.643	54.48
670.971	54.7
671.299	54.74
671.627	54.58
671.955	54.54
672.283	54.68
672.61	54.77
672.938	54.8
673.266	54.86
673.593	54.85
673.921	54.89
674.249	54.76
674.576	54.68
674.904	54.72
675.231	54.77
675.558	54.92
675.886	55.07
676.213	55.06
676.54	55.1
676.867	55.21
677.195	55.32
677.522	55.19
677.849	55.22
678.176	55.15
678.503	55.23
678.83	55.22
679.157	55.11
679.484	55.02
679.81	55.05
680.137	55.25
680.464	55.14
680.791	55.14
681.117	55.18
681.444	55.28
681.771	55.36
682.097	55.33
682.424	55.19
682.75	54.98
683.077	55.01
683.403	54.99
683.729	54.97
684.056	54.86
684.382	54.87
684.708	54.77
685.034	54.93
685.36	55.05
685.686	55.16
686.012	55.2
686.339	55.2
686.664	55.23
686.99	55.09
687.316	55.16
687.642	55.23
687.968	55.21
688.294	55.22
688.619	55.32
688.945	55.23
689.271	55.29
689.596	55.35
689.922	55.29
690.247	55.41
690.573	55.44
690.898	55.72
691.224	55.81
691.549	55.81
691.874	55.76
692.2	55.75
692.525	55.76
692.85	55.85
693.175	55.92
693.5	55.67
693.825	55.73
694.15	55.88
694.475	55.88
694.8	56
695.125	55.83
695.45	55.61
695.775	55.77
696.099	55.89
696.424	56.07
696.749	56.14
697.073	56.03
697.398	56.17
697.723	56.18
698.047	56.15
698.372	56.25
698.696	56.4
699.02	56.55
699.345	56.53
699.669	56.52
699.993	56.58
700.318	56.93
700.642	56.96
700.966	56.88
701.29	56.88
701.614	56.82
701.938	56.93
702.262	57.05
702.586	57.04
702.91	57.09
703.234	57.06
703.557	57.09
703.881	57.25
704.205	57.06
704.529	56.83
704.852	56.91
705.176	57.03
705.499	57.02
705.823	56.62
706.146	56.79
706.47	56.97
706.793	56.76
707.117	56.46
707.44	56.34
707.763	56.4
708.086	56.51
708.409	56.76
708.733	56.74
709.056	56.82
709.379	56.88
709.702	56.74
710.025	56.62
710.348	56.61
710.671	56.59
710.993	56.56
711.316	56.64
711.639	56.38
711.962	56.3
712.284	56.17
712.607	56.21
712.93	56.11
713.252	55.87
713.575	55.99
713.897	56.16
714.22	56.24
714.542	56.23
714.864	56.17
715.187	56
715.509	55.95
715.831	56
716.153	55.97
716.475	56.07
716.798	56.1
717.12	56.19
717.442	56.19
717.764	56.17
718.085	56.1
718.407	56.32
718.729	56.08
719.051	55.99
719.373	56.04
719.695	55.89
720.016	56.22
720.338	56.26
720.659	56.41
720.981	56.3
721.302	56.3
721.624	56.28
721.945	56.29
722.267	56.46
722.588	56.3
722.909	56.32
723.231	56.24
723.552	56.45
723.873	56.32
724.194	56.22
724.515	56.37
724.836	56.52
725.157	56.57
725.478	56.64
725.799	56.77
726.12	56.82
726.441	56.85
726.762	56.56
727.083	56.49
727.403	56.17
727.724	56.21
728.045	56.29
728.365	56.24
728.686	56.14
729.006	56.07
729.327	56.15
729.647	56.19
729.967	56.12
730.288	56.02
730.608	56.02
730.928	56.16
731.249	56.14
731.569	56.21
731.889	56.13
732.209	56.23
732.529	56.23
732.849	56.42
733.169	56.37
733.489	56.38
733.809	56.41
734.129	56.72
734.448	56.91
734.768	56.93
735.088	56.98
735.408	57.06
735.727	57.27
736.047	57.39
736.366	57.28
736.686	57.44
737.005	57.47
737.325	57.5
737.644	57.2
737.963	57.3
738.283	57.13
738.602	57.22
738.921	57.23
739.24	57.22
739.56	56.88
739.879	56.92
740.198	56.79
740.517	56.74
740.836	56.54
741.155	56.35
741.473	56.03
741.792	56.02
742.111	56.08
742.43	55.89
742.748	55.69
743.067	55.89
743.386	55.7
743.704	55.39
744.023	55.62
744.341	55.94
744.66	55.89
744.978	56.03
745.297	55.9
745.615	56.13
745.933	56.11
746.252	56.19
746.57	56.41
746.888	56.87
747.206	56.86
747.524	56.67
747.842	56.8
748.16	57.34
748.478	57.53
748.796	57.42
749.114	57.42
749.432	57.39
749.749	57.35
750.067	57.51
750.385	57.7
750.703	57.69
751.02	57.47
751.338	57.23
751.655	57.08
751.973	57.27
752.29	57.09
752.608	57.11
752.925	57.08
753.242	57.01
753.56	56.62
753.877	56.6
754.194	56.74
754.511	56.66
754.828	56.4
755.145	56.06
755.462	56.1
755.779	56.45
756.096	56.72
756.413	56.5
756.73	56.31
757.047	56.26
757.364	56.19
757.68	56.28
757.997	56.69
758.314	56.63
758.63	56.72
758.947	56.77
759.264	56.8
759.58	56.9
759.896	56.94
760.213	57.31
760.529	57.58
760.846	57.71
761.162	57.74
761.478	57.7
761.794	57.94
762.11	57.94
762.426	57.64
762.743	57.58
763.059	57.65
763.375	57.67
763.69	57.97
764.006	57.67
764.322	57.62
764.638	57.26
764.954	57.29
765.27	57.37
765.585	57.42
765.901	57.4
766.216	57.42
766.532	57.47
766.848	57.18
767.163	57.07
767.478	56.78
767.794	56.67
768.109	56.93
768.424	56.8
768.74	56.57
769.055	56.64
769.37	56.58
769.685	56.11
770	55.9
770.315	55.66
770.63	55.93
770.945	55.85
771.26	56.19
771.575	56.12
771.89	55.8
772.205	55.87
772.52	55.63
772.834	55.56
773.149	55.56
773.464	55.79
773.778	55.52
774.093	56.04
774.407	55.98
774.722	55.68
775.036	55.48
775.351	55.87
775.665	55.71
775.979	55.79
776.293	56.57
776.608	56.81
776.922	56.5
777.236	56.68
777.55	57.14
777.864	57.04
778.178	57.47
778.492	57.72
778.806	57.55
779.12	57.68
779.434	57.8
779.747	57.49
780.061	57.12
780.375	57.7
780.689	57.25
781.002	57.25
781.316	57.41
781.629	57.47
781.943	57.02
782.256	57.07
782.57	57.21
782.883	56.66
783.196	56.89
783.51	57.01
783.823	56.99
784.136	56.71
784.449	56.5
784.762	56.38
785.075	56.31
785.388	56.24
785.701	56.51
786.014	56.61
786.327	56.83
786.64	57.2
786.953	57.21
787.266	57.62
787.578	57.83
787.891	57.53
788.204	57.42
788.516	57.43
788.829	57.41
789.141	57.14
789.454	57.09
789.766	56.66
790.079	56.71
790.391	56.7
790.703	56.99
791.016	56.93
791.328	57.15
791.64	56.94
791.952	57.1
792.264	56.9
792.576	56.71
792.888	56.71
793.2	56.92
793.512	56.44
793.824	55.88
794.136	55.72
794.448	56.36
794.76	56.82
795.071	57.3
795.383	57.56
795.695	57.32
796.006	57.79
796.318	58.44
796.629	58.54
796.941	59.1
797.252	58.48
797.564	58.95
797.875	58.42
798.186	58.92
798.497	58.66
798.809	58.64
799.12	58.49
799.431	58.12
799.742	58.07
800.053	58.42
800.364	58.88
800.675	59.06
800.986	58.31
801.297	57.7
801.608	57.45
801.918	57.34
802.229	57.83
802.54	57.82
802.851	57.47
803.161	57.47
803.472	56.91
803.782	56.78
804.093	56.29
804.403	56.56
804.714	56.15
805.024	56.4
805.334	56.31
805.645	57.1
805.955	57.47
806.265	57.6
806.575	56.74
806.885	56.45
807.195	56.5
807.505	56.74
807.815	56.86
808.125	57.19
808.435	56.44
808.745	55.91
809.055	56.13
809.365	55.8
809.674	55.57
809.984	55.49
810.294	55.58
810.603	55.12
810.913	55.34
811.222	55.1
811.532	54.99
811.841	55.73
812.151	54.96
812.46	54.99
812.769	53.91
813.079	54.75
813.388	54.82
813.697	54.49
814.006	54.1
814.315	54.5
814.624	54.16
814.933	54.52
815.242	54.78
815.551	54.46
815.86	55.14
816.169	55.52
816.478	55.18
816.786	55.63
817.095	56.2
817.404	56.6
817.712	57.12
818.021	57.09
818.33	56.62
818.638	57.1
818.947	57.35
819.255	58.39
819.563	58.8
819.872	58.81
820.18	58.58
820.488	58.88
820.796	58.83
821.105	58.94
821.413	58.86
821.721	58.88
822.029	58.9
822.337	58.81
822.645	58.86
822.953	58.62
823.26	58.67
823.568	59
823.876	58.84
824.184	58.72
824.491	58.68
824.799	58.82
825.107	58.9
825.414	58.87
825.722	58.53
826.029	58.31
826.337	58.42
826.644	58.45
826.951	58.4
827.259	58.55
827.566	58.38
827.873	58.47
828.18	58.44
828.488	58.4
828.795	58.34
829.102	58.12
829.409	58.5
829.716	58.44
830.023	57.86
830.329	57.83
830.636	57.92
830.943	57.99
831.25	57.52
831.557	57.41
831.863	57.31
832.17	57.86
832.476	57.79
832.783	57.29
833.089	57.6
833.396	57.42
833.702	57.27
834.009	57.46
834.315	57.34
834.621	57.1
834.928	57.03
835.234	57.42
835.54	57.35
835.846	57.68
836.152	57.79
836.458	58.16
836.764	58.18
837.07	58.26
837.376	58.44
837.682	59.03
837.988	59.02
838.293	58.51
838.599	58.19
838.905	58.17
839.211	58.36
839.516	58.13
839.822	58.2
840.127	58.05
840.433	58.33
840.738	58.85
841.044	59.34
841.349	59.12
841.654	58.31
841.959	58.39
842.265	58.81
842.57	58.11
842.875	57.74
843.18	57.06
843.485	56.75
843.79	55.55
844.095	54.45
844.4	54.17
844.705	55.88
845.01	55.28
845.315	54.8
845.619	54.49
845.924	55.13
846.229	54.64
846.533	54.13
846.838	53.74
847.142	54.08
847.447	53.54
847.751	54.29
848.056	54.61
848.36	54.71
848.664	53.2
848.969	52.82
849.273	51.92
849.577	52.63
849.881	53.13
850.185	55.16
850.489	54.55
850.794	54.38
851.097	53.13
851.401	53.75
851.705	55.68
852.009	58.02
852.313	56.66
852.617	56.91
852.92	57.46
853.224	57.49
853.528	55.37
853.831	55.67
854.135	56.26
854.438	56.28
854.742	57.09
855.045	56.95
855.349	57.52
855.652	57.6
855.955	55.75
856.259	54.02
856.562	52.29
856.865	52.11
857.168	50.41
857.471	49.52
857.774	51.12
858.077	50.12
858.38	48.7
858.683	49.83
858.986	49.26
859.289	49.91
859.592	48.61
859.894	50.08
860.197	50.57
860.5	50.68
860.802	52.04
861.105	50.44
861.407	50.09
861.71	48
862.012	49.29
862.315	50.13
862.617	50.57
862.919	51.42
863.222	51.49
863.524	52.84
863.826	52.59
864.128	50.99
864.43	50.49
864.732	49.43
865.034	49.81
865.336	49.84
865.638	47.82
865.94	47.62
866.242	48.59
866.544	49.51
866.846	50.22
867.147	48.57
867.449	49.53
867.751	48.67
868.052	52.44
868.354	49.97
868.655	51.3
868.957	50.79
869.258	48.48
869.56	49.44
869.861	50.29
870.162	52.64
870.463	51.31
870.765	51.36
871.066	52.39
871.367	50.71
871.668	52.79
871.969	54.65
872.27	55.35
872.571	53.41
872.872	50.61
873.173	51
873.473	48.17
873.774	47.15
874.075	47.38
874.376	44.91
874.676	46.29
874.977	47.05
875.277	49.13
875.578	52.97
875.878	53.29
876.179	52.1
876.479	50.51
876.78	51.95
877.08	52.01
877.38	51.78
877.68	52.55
877.981	50.48
878.281	49.14
878.581	49.58
