Data from BU26938_Reflection_00008.txt Node
Date: Tue Nov 19 10:42:22 EST 2019
User: vgr7
Spectrometer: USB2G7710
Scans to average: 3
Trigger mode: 4
Integration Time (sec): 2.000000E-2
Electric dark correction enabled: true
Boxcar width: 10
XAxis mode: Wavelengths
Number of Pixels in Spectrum: 2048
>>>>>Begin Spectral Data<<<<<
177.721	23.98
178.105	-169.23
178.488	344.36
178.871	3200
179.254	141.94
179.636	111.36
180.019	214.33
180.402	-9.52
180.785	168.42
181.168	46.56
181.55	184.42
181.933	102.62
182.316	340.26
182.698	-1851.61
183.081	215.97
183.463	-418.4
183.846	-1039.34
184.228	-248.1
184.611	-190.7
184.993	-223.53
185.376	-828.57
185.758	-30.91
186.14	-75.41
186.522	-29.07
186.904	-93.02
187.287	-49.42
187.669	-84.89
188.051	-58.84
188.433	-207.2
188.815	-227.93
189.197	-202.84
189.579	-266.81
189.961	-828.57
190.342	-231.94
190.724	-515.12
191.106	-602.16
191.488	-244.25
191.869	-139.33
192.251	-87.32
192.633	-86.76
193.014	-95.07
193.396	-95.33
193.777	-77.45
194.159	-65.49
194.54	-53.32
194.922	-49.13
195.303	-46.45
195.684	-31.97
196.065	-55.9
196.447	-36.06
196.828	-31.95
197.209	-20.42
197.59	-14.92
197.971	4.99
198.352	13.75
198.733	12.74
199.114	7.49
199.495	-3.14
199.876	-6.82
200.257	-8.93
200.638	-1.77
201.018	14.08
201.399	15.96
201.78	27.35
202.16	37.32
202.541	22.6
202.922	22.73
203.302	28.34
203.683	14.55
204.063	17.06
204.444	21.36
204.824	26.7
205.204	23.77
205.585	14.27
205.965	13.79
206.345	21.01
206.725	1.2
207.106	23.29
207.486	36.23
207.866	43.36
208.246	51.18
208.626	23.78
209.006	13.19
209.386	15.98
209.766	-28.73
210.145	-41.13
210.525	-156.96
210.905	-55.35
211.285	-39.07
211.664	-17.09
212.044	-40.51
212.424	-5.5
212.803	-16.06
213.183	-10.19
213.562	-16.11
213.942	-8.44
214.321	-19.31
214.701	-9.18
215.08	-44.42
215.459	-42.1
215.838	-63.47
216.218	-95.38
216.597	-46.24
216.976	-37.08
217.355	-37.25
217.734	-40.17
218.113	-31.33
218.492	-21.73
218.871	-43.12
219.25	-51.74
219.629	-57.77
220.008	-25.61
220.387	-37.46
220.766	-8.7
221.144	5.92
221.523	16.93
221.902	19.37
222.28	20.5
222.659	35.55
223.037	34.8
223.416	24.16
223.794	24.77
224.173	29.49
224.551	27.86
224.929	26.58
225.308	17.91
225.686	18.33
226.064	15.45
226.442	19.28
226.821	19.71
227.199	18.47
227.577	19.61
227.955	19.95
228.333	16.36
228.711	8.92
229.089	2.6
229.467	1.61
229.845	1.02
230.222	3.45
230.6	3.98
230.978	5.81
231.356	8.91
231.733	13.87
232.111	15.89
232.488	14.9
232.866	16.5
233.243	18.48
233.621	18.67
233.998	18.57
234.376	17.94
234.753	19.85
235.13	21.73
235.508	18.87
235.885	16.41
236.262	15.25
236.639	15.57
237.016	15.9
237.393	16.25
237.77	15.73
238.147	14.8
238.524	13.92
238.901	12.79
239.278	12.01
239.655	10.28
240.032	9.87
240.409	9.53
240.785	7.85
241.162	7.99
241.539	7.49
241.915	7.35
242.292	6.98
242.668	6.67
243.045	6.37
243.421	6.4
243.798	6.59
244.174	6.86
244.551	6.79
244.927	6.64
245.303	6.41
245.679	5.96
246.056	5.66
246.432	5.31
246.808	5.4
247.184	5.36
247.56	5.26
247.936	4.97
248.312	4.82
248.688	4.84
249.064	4.63
249.44	4.62
249.815	4.54
250.191	4.6
250.567	4.51
250.943	4.49
251.318	4.41
251.694	4.2
252.069	3.89
252.445	3.7
252.82	3.91
253.196	4.02
253.571	4.18
253.947	4.18
254.322	4.04
254.697	3.89
255.073	3.92
255.448	4.28
255.823	4.77
256.198	4.98
256.573	5.17
256.948	5.28
257.323	5.39
257.698	5.31
258.073	5.35
258.448	5.29
258.823	5.09
259.198	5.21
259.573	5.14
259.948	5.4
260.322	5.46
260.697	5.28
261.072	5.17
261.446	5.06
261.821	5
262.195	5.17
262.57	5.24
262.944	5.32
263.319	5.26
263.693	5.05
264.067	4.96
264.442	4.94
264.816	4.87
265.19	4.91
265.564	5.13
265.938	5.06
266.313	5.07
266.687	5.03
267.061	4.83
267.435	5.05
267.809	4.73
268.183	4.81
268.556	5.03
268.93	5.16
269.304	5.28
269.678	5.45
270.051	5.42
270.425	5.39
270.799	4.92
271.172	4.83
271.546	4.81
271.919	4.82
272.293	4.96
272.666	4.98
273.04	4.95
273.413	4.85
273.787	4.91
274.16	4.77
274.533	5.05
274.906	5.16
275.279	5.02
275.653	5
276.026	4.99
276.399	4.81
276.772	4.66
277.145	4.51
277.518	4.42
277.891	4.25
278.263	4.39
278.636	4.83
279.009	4.77
279.382	4.74
279.755	4.95
280.127	4.99
280.5	4.95
280.872	4.96
281.245	5.01
281.617	4.9
281.99	5.08
282.362	4.75
282.735	4.76
283.107	4.8
283.479	4.93
283.852	4.89
284.224	4.94
284.596	5.05
284.968	5.03
285.34	4.97
285.713	4.99
286.085	4.8
286.457	4.71
286.829	4.7
287.201	4.63
287.572	4.49
287.944	4.34
288.316	4.43
288.688	4.57
289.06	4.53
289.431	4.64
289.803	4.73
290.175	4.82
290.546	4.78
290.918	4.71
291.289	4.63
291.661	4.64
292.032	4.5
292.403	4.46
292.775	4.63
293.146	4.76
293.517	4.73
293.889	4.73
294.26	4.79
294.631	4.95
295.002	5.03
295.373	5.05
295.744	5.17
296.115	5.22
296.486	5.09
296.857	5.12
297.228	5.02
297.599	4.92
297.97	5.11
298.34	5.16
298.711	5.32
299.082	5.4
299.452	5.36
299.823	5.5
300.194	5.61
300.564	5.44
300.935	5.51
301.305	5.63
301.676	5.51
302.046	5.43
302.416	5.5
302.787	5.62
303.157	5.61
303.527	5.59
303.897	5.41
304.267	5.54
304.637	5.54
305.008	5.58
305.378	5.65
305.748	5.53
306.117	5.58
306.487	5.48
306.857	5.67
307.227	5.73
307.597	5.87
307.967	5.84
308.336	6.04
308.706	6.03
309.076	6.2
309.445	6.58
309.815	6.67
310.184	6.69
310.554	6.62
310.923	6.74
311.293	6.72
311.662	6.88
312.031	6.86
312.401	6.91
312.77	6.99
313.139	7.12
313.508	7.08
313.877	7.16
314.246	7.13
314.616	7.01
314.985	7.04
315.353	7.07
315.722	7.2
316.091	7.14
316.46	7.11
316.829	7.01
317.198	6.93
317.567	7.01
317.935	7
318.304	7.07
318.672	7.08
319.041	7.19
319.41	7.23
319.778	7.26
320.147	7.34
320.515	7.47
320.883	7.25
321.252	7.57
321.62	7.57
321.988	7.82
322.357	7.96
322.725	8.02
323.093	7.97
323.461	7.88
323.829	8.06
324.197	8.09
324.565	8.17
324.933	8.19
325.301	8.06
325.669	8.01
326.037	8.1
326.405	8.09
326.772	8.1
327.14	8.06
327.508	8
327.875	7.97
328.243	7.99
328.61	8.19
328.978	8.04
329.346	8
329.713	7.94
330.08	7.92
330.448	7.98
330.815	8.15
331.182	7.99
331.55	7.99
331.917	7.99
332.284	8
332.651	7.96
333.018	8.07
333.385	8.08
333.752	8.14
334.119	8.26
334.486	8.17
334.853	8.16
335.22	8.31
335.587	8.24
335.954	8.18
336.32	8.06
336.687	8.14
337.054	8.17
337.42	8.17
337.787	8.13
338.153	8.07
338.52	7.92
338.886	8.14
339.253	8.17
339.619	8.22
339.986	8.16
340.352	8.26
340.718	8.18
341.084	8.14
341.451	8.12
341.817	8.13
342.183	8.17
342.549	8.25
342.915	8.2
343.281	8.32
343.647	8.41
344.013	8.53
344.379	8.54
344.745	8.63
345.11	8.67
345.476	8.78
345.842	8.8
346.208	8.94
346.573	8.91
346.939	8.9
347.304	8.9
347.67	8.88
348.035	8.76
348.401	8.94
348.766	9
349.132	9.08
349.497	9.14
349.862	9.17
350.228	9.07
350.593	9.11
350.958	9.08
351.323	9
351.688	8.95
352.053	9.01
352.418	8.93
352.783	8.94
353.148	8.96
353.513	8.9
353.878	8.8
354.243	8.79
354.608	8.87
354.972	8.91
355.337	8.84
355.702	8.92
356.066	8.81
356.431	8.81
356.795	8.72
357.16	8.62
357.524	8.63
357.889	8.69
358.253	8.63
358.618	8.65
358.982	8.67
359.346	8.66
359.71	8.58
360.075	8.64
360.439	8.6
360.803	8.55
361.167	8.59
361.531	8.53
361.895	8.48
362.259	8.4
362.623	8.4
362.987	8.49
363.351	8.45
363.714	8.46
364.078	8.51
364.442	8.51
364.806	8.49
365.169	8.55
365.533	8.54
365.896	8.61
366.26	8.54
366.623	8.48
366.987	8.49
367.35	8.53
367.714	8.46
368.077	8.48
368.44	8.49
368.803	8.46
369.167	8.49
369.53	8.54
369.893	8.51
370.256	8.46
370.619	8.38
370.982	8.3
371.345	8.33
371.708	8.31
372.071	8.21
372.434	8.14
372.797	8.08
373.159	8
373.522	7.88
373.885	7.89
374.247	7.87
374.61	7.84
374.973	7.87
375.335	7.83
375.698	7.73
376.06	7.62
376.423	7.58
376.785	7.58
377.147	7.52
377.51	7.47
377.872	7.43
378.234	7.52
378.596	7.59
378.958	7.57
379.321	7.44
379.683	7.49
380.045	7.49
380.407	7.46
380.769	7.44
381.13	7.41
381.492	7.39
381.854	7.38
382.216	7.3
382.578	7.15
382.939	7.16
383.301	7.15
383.663	7.15
384.024	7.08
384.386	7.05
384.747	7.03
385.109	7.04
385.47	7.03
385.832	6.92
386.193	6.82
386.554	6.72
386.916	6.69
387.277	6.64
387.638	6.63
387.999	6.61
388.36	6.56
388.721	6.56
389.082	6.57
389.443	6.56
389.804	6.58
390.165	6.58
390.526	6.54
390.887	6.51
391.248	6.49
391.609	6.51
391.969	6.49
392.33	6.47
392.691	6.44
393.051	6.43
393.412	6.41
393.772	6.43
394.133	6.42
394.493	6.43
394.854	6.37
395.214	6.31
395.574	6.25
395.935	6.26
396.295	6.21
396.655	6.13
397.015	6.1
397.376	6.04
397.736	6.02
398.096	5.99
398.456	5.95
398.816	5.92
399.176	5.86
399.535	5.83
399.895	5.81
400.255	5.77
400.615	5.74
400.975	5.68
401.334	5.62
401.694	5.62
402.054	5.61
402.413	5.61
402.773	5.6
403.132	5.59
403.492	5.55
403.851	5.53
404.211	5.52
404.57	5.49
404.929	5.44
405.288	5.42
405.648	5.39
406.007	5.38
406.366	5.37
406.725	5.39
407.084	5.34
407.443	5.33
407.802	5.32
408.161	5.3
408.52	5.3
408.879	5.31
409.238	5.28
409.596	5.25
409.955	5.26
410.314	5.22
410.673	5.2
411.031	5.2
411.39	5.22
411.748	5.22
412.107	5.21
412.465	5.21
412.824	5.22
413.182	5.23
413.54	5.23
413.899	5.2
414.257	5.16
414.615	5.17
414.974	5.15
415.332	5.11
415.69	5.07
416.048	5.07
416.406	5.04
416.764	5.03
417.122	5.03
417.48	5
417.838	4.99
418.195	4.97
418.553	4.94
418.911	4.91
419.269	4.91
419.626	4.88
419.984	4.86
420.342	4.85
420.699	4.81
421.057	4.8
421.414	4.81
421.772	4.8
422.129	4.79
422.486	4.76
422.844	4.74
423.201	4.74
423.558	4.73
423.915	4.71
424.273	4.7
424.63	4.68
424.987	4.67
425.344	4.66
425.701	4.67
426.058	4.67
426.415	4.64
426.772	4.61
427.128	4.61
427.485	4.61
427.842	4.61
428.199	4.61
428.555	4.58
428.912	4.55
429.269	4.53
429.625	4.5
429.982	4.51
430.338	4.54
430.695	4.52
431.051	4.52
431.407	4.53
431.764	4.52
432.12	4.54
432.476	4.54
432.832	4.53
433.189	4.52
433.545	4.54
433.901	4.55
434.257	4.55
434.613	4.56
434.969	4.53
435.325	4.54
435.681	4.52
436.036	4.52
436.392	4.52
436.748	4.54
437.104	4.55
437.459	4.54
437.815	4.52
438.171	4.54
438.526	4.57
438.882	4.56
439.237	4.54
439.593	4.54
439.948	4.53
440.304	4.53
440.659	4.53
441.014	4.5
441.369	4.51
441.725	4.5
442.08	4.49
442.435	4.5
442.79	4.48
443.145	4.49
443.5	4.5
443.855	4.5
444.21	4.51
444.565	4.5
444.92	4.51
445.275	4.52
445.629	4.5
445.984	4.49
446.339	4.47
446.693	4.49
447.048	4.45
447.403	4.45
447.757	4.44
448.112	4.44
448.466	4.43
448.82	4.42
449.175	4.42
449.529	4.4
449.883	4.39
450.238	4.37
450.592	4.36
450.946	4.35
451.3	4.33
451.654	4.29
452.008	4.29
452.362	4.26
452.716	4.25
453.07	4.25
453.424	4.22
453.778	4.21
454.132	4.2
454.486	4.22
454.839	4.22
455.193	4.21
455.547	4.22
455.9	4.22
456.254	4.23
456.607	4.23
456.961	4.24
457.314	4.23
457.668	4.25
458.021	4.25
458.375	4.26
458.728	4.26
459.081	4.27
459.434	4.3
459.787	4.29
460.141	4.3
460.494	4.3
460.847	4.3
461.2	4.31
461.553	4.32
461.906	4.33
462.259	4.34
462.611	4.36
462.964	4.38
463.317	4.39
463.67	4.4
464.022	4.42
464.375	4.43
464.728	4.45
465.08	4.44
465.433	4.43
465.785	4.46
466.138	4.47
466.49	4.48
466.843	4.47
467.195	4.48
467.547	4.47
467.899	4.47
468.252	4.5
468.604	4.52
468.956	4.52
469.308	4.51
469.66	4.53
470.012	4.53
470.364	4.54
470.716	4.55
471.068	4.57
471.42	4.58
471.772	4.59
472.123	4.62
472.475	4.65
472.827	4.67
473.178	4.66
473.53	4.68
473.882	4.68
474.233	4.67
474.585	4.69
474.936	4.72
475.288	4.75
475.639	4.75
475.99	4.74
476.342	4.75
476.693	4.76
477.044	4.75
477.395	4.76
477.746	4.73
478.097	4.71
478.448	4.69
478.8	4.69
479.15	4.67
479.501	4.65
479.852	4.65
480.203	4.65
480.554	4.64
480.905	4.64
481.255	4.66
481.606	4.67
481.957	4.67
482.307	4.67
482.658	4.66
483.009	4.67
483.359	4.66
483.709	4.66
484.06	4.66
484.41	4.66
484.761	4.66
485.111	4.67
485.461	4.68
485.811	4.67
486.162	4.66
486.512	4.67
486.862	4.67
487.212	4.67
487.562	4.66
487.912	4.67
488.262	4.66
488.612	4.65
488.961	4.63
489.311	4.63
489.661	4.63
490.011	4.63
490.36	4.62
490.71	4.62
491.06	4.63
491.409	4.62
491.759	4.63
492.108	4.63
492.458	4.62
492.807	4.63
493.157	4.64
493.506	4.65
493.855	4.66
494.204	4.67
494.554	4.7
494.903	4.71
495.252	4.72
495.601	4.75
495.95	4.77
496.299	4.8
496.648	4.82
496.997	4.83
497.346	4.86
497.695	4.89
498.043	4.93
498.392	4.96
498.741	5
499.09	5.05
499.438	5.09
499.787	5.14
500.135	5.18
500.484	5.23
500.832	5.3
501.181	5.35
501.529	5.41
501.878	5.44
502.226	5.52
502.574	5.58
502.923	5.63
503.271	5.7
503.619	5.75
503.967	5.81
504.315	5.86
504.663	5.92
505.011	6
505.359	6.06
505.707	6.14
506.055	6.22
506.403	6.29
506.751	6.36
507.098	6.45
507.446	6.55
507.794	6.64
508.141	6.68
508.489	6.76
508.837	6.84
509.184	6.95
509.531	7.06
509.879	7.15
510.226	7.27
510.574	7.38
510.921	7.5
511.268	7.62
511.616	7.76
511.963	7.9
512.31	8.01
512.657	8.12
513.004	8.25
513.351	8.39
513.698	8.53
514.045	8.7
514.392	8.86
514.739	9.01
515.086	9.17
515.432	9.35
515.779	9.5
516.126	9.67
516.473	9.82
516.819	9.97
517.166	10.13
517.512	10.27
517.859	10.44
518.205	10.57
518.552	10.72
518.898	10.85
519.245	10.99
519.591	11.16
519.937	11.34
520.283	11.5
520.629	11.67
520.976	11.84
521.322	12.03
521.668	12.21
522.014	12.41
522.36	12.63
522.706	12.84
523.052	13.09
523.398	13.34
523.743	13.61
524.089	13.86
524.435	14.09
524.781	14.35
525.126	14.54
525.472	14.75
525.817	14.93
526.163	15.12
526.509	15.25
526.854	15.4
527.199	15.54
527.545	15.67
527.89	15.81
528.235	15.95
528.581	16.09
528.926	16.23
529.271	16.4
529.616	16.53
529.961	16.68
530.306	16.83
530.651	16.97
530.996	17.14
531.341	17.31
531.686	17.49
532.031	17.65
532.376	17.84
532.721	18.02
533.065	18.2
533.41	18.39
533.755	18.61
534.099	18.81
534.444	19
534.788	19.2
535.133	19.39
535.477	19.57
535.822	19.8
536.166	19.99
536.51	20.19
536.855	20.42
537.199	20.66
537.543	20.92
537.887	21.18
538.231	21.4
538.576	21.62
538.92	21.82
539.264	22.05
539.608	22.26
539.951	22.46
540.295	22.67
540.639	22.88
540.983	23.08
541.327	23.27
541.671	23.47
542.014	23.69
542.358	23.86
542.701	24.06
543.045	24.22
543.389	24.42
543.732	24.59
544.075	24.78
544.419	24.99
544.762	25.2
545.105	25.4
545.449	25.64
545.792	25.91
546.135	26.19
546.478	26.43
546.821	26.71
547.165	26.98
547.508	27.24
547.851	27.51
548.194	27.76
548.536	28.04
548.879	28.3
549.222	28.55
549.565	28.86
549.908	29.11
550.25	29.41
550.593	29.72
550.936	30.04
551.278	30.35
551.621	30.63
551.963	30.93
552.306	31.21
552.648	31.47
552.991	31.69
553.333	31.91
553.675	32.23
554.017	32.46
554.36	32.74
554.702	32.92
555.044	33.18
555.386	33.44
555.728	33.7
556.07	33.96
556.412	34.23
556.754	34.47
557.096	34.72
557.438	34.99
557.78	35.24
558.121	35.55
558.463	35.75
558.805	35.96
559.147	36.16
559.488	36.35
559.83	36.59
560.171	36.87
560.513	37.15
560.854	37.35
561.196	37.52
561.537	37.8
561.878	38.1
562.22	38.29
562.561	38.53
562.902	38.76
563.243	39.04
563.584	39.24
563.925	39.46
564.266	39.66
564.607	39.84
564.948	40.03
565.289	40.24
565.63	40.45
565.971	40.62
566.312	40.81
566.653	41.04
566.993	41.26
567.334	41.43
567.675	41.57
568.015	41.71
568.356	41.95
568.696	42.05
569.037	42.23
569.377	42.45
569.718	42.63
570.058	42.79
570.398	42.92
570.739	43.09
571.079	43.23
571.419	43.4
571.759	43.55
572.099	43.71
572.439	43.81
572.779	44.01
573.119	44.21
573.459	44.43
573.799	44.55
574.139	44.71
574.479	44.85
574.819	45.01
575.158	45.19
575.498	45.33
575.838	45.51
576.177	45.65
576.517	45.79
576.856	45.93
577.196	46.1
577.535	46.22
577.875	46.38
578.214	46.51
578.553	46.71
578.893	46.91
579.232	47.06
579.571	47.31
579.91	47.49
580.25	47.67
580.589	47.76
580.928	47.89
581.267	47.99
581.606	48.06
581.945	48.29
582.283	48.41
582.622	48.58
582.961	48.72
583.3	48.88
583.639	48.96
583.977	48.97
584.316	49.13
584.654	49.3
584.993	49.38
585.332	49.54
585.67	49.59
586.008	49.64
586.347	49.81
586.685	49.9
587.024	49.97
587.362	50.09
587.7	50.25
588.038	50.43
588.376	50.49
588.715	50.62
589.053	50.7
589.391	50.82
589.729	50.82
590.067	50.9
590.404	51.03
590.742	51.09
591.08	51.35
591.418	51.44
591.756	51.52
592.093	51.64
592.431	51.79
592.769	51.89
593.106	51.98
593.444	52
593.781	51.98
594.119	52.1
594.456	52.09
594.793	52.13
595.131	52.17
595.468	52.29
595.805	52.44
596.143	52.45
596.48	52.51
596.817	52.6
597.154	52.63
597.491	52.66
597.828	52.8
598.165	52.81
598.502	52.86
598.839	52.95
599.176	53.07
599.512	53.18
599.849	53.32
600.186	53.44
600.523	53.55
600.859	53.61
601.196	53.62
601.532	53.71
601.869	53.79
602.205	53.89
602.542	53.98
602.878	54.08
603.215	54.14
603.551	54.23
603.887	54.35
604.223	54.48
604.56	54.54
604.896	54.6
605.232	54.69
605.568	54.73
605.904	54.78
606.24	54.78
606.576	54.74
606.912	54.76
607.248	54.85
607.583	54.95
607.919	55.05
608.255	55.11
608.591	55.24
608.926	55.37
609.262	55.4
609.597	55.38
609.933	55.35
610.268	55.47
610.604	55.51
610.939	55.51
611.275	55.56
611.61	55.59
611.945	55.59
612.281	55.61
612.616	55.71
612.951	55.83
613.286	55.86
613.621	56.02
613.956	56.16
614.291	56.12
614.626	56.07
614.961	56.12
615.296	56.28
615.631	56.3
615.966	56.2
616.3	56.24
616.635	56.39
616.97	56.41
617.304	56.38
617.639	56.37
617.973	56.49
618.308	56.49
618.642	56.45
618.977	56.53
619.311	56.55
619.646	56.52
619.98	56.46
620.314	56.57
620.648	56.52
620.983	56.48
621.317	56.48
621.651	56.62
621.985	56.68
622.319	56.6
622.653	56.53
622.987	56.6
623.321	56.72
623.655	56.8
623.988	56.97
624.322	57.02
624.656	57.16
624.99	57.11
625.323	57.11
625.657	57.23
625.99	57.3
626.324	57.37
626.657	57.31
626.991	57.42
627.324	57.48
627.658	57.5
627.991	57.53
628.324	57.69
628.657	57.61
628.991	57.56
629.324	57.66
629.657	57.69
629.99	57.73
630.323	57.69
630.656	57.69
630.989	57.65
631.322	57.67
631.655	57.76
631.987	57.81
632.32	57.8
632.653	57.8
632.986	57.86
633.318	57.89
633.651	58
633.984	58.01
634.316	57.99
634.649	58.08
634.981	58.11
635.313	58.1
635.646	58.18
635.978	58.24
636.31	58.21
636.643	58.37
636.975	58.32
637.307	58.4
637.639	58.38
637.971	58.41
638.303	58.34
638.635	58.16
638.967	58.19
639.299	58.33
639.631	58.38
639.963	58.35
640.295	58.4
640.626	58.54
640.958	58.55
641.29	58.55
641.621	58.55
641.953	58.57
642.285	58.56
642.616	58.55
642.948	58.62
643.279	58.63
643.61	58.65
643.942	58.78
644.273	58.81
644.604	58.78
644.936	58.82
645.267	58.93
645.598	59.09
645.929	59.13
646.26	59.19
646.591	59.21
646.922	59.25
647.253	59.22
647.584	59.2
647.915	59.2
648.245	59.24
648.576	59.18
648.907	59.28
649.238	59.32
649.568	59.41
649.899	59.42
650.229	59.56
650.56	59.6
650.89	59.62
651.221	59.58
651.551	59.62
651.882	59.6
652.212	59.68
652.542	59.62
652.872	59.74
653.203	59.71
653.533	59.74
653.863	59.76
654.193	59.82
654.523	59.83
654.853	59.9
655.183	59.88
655.513	60
655.843	60.06
656.172	60.15
656.502	60.2
656.832	60.28
657.162	60.22
657.491	60.16
657.821	60.19
658.15	60.24
658.48	60.31
658.809	60.32
659.139	60.19
659.468	60.2
659.798	60.22
660.127	60.19
660.456	60.14
660.785	60.12
661.115	60.01
661.444	60.09
661.773	60.09
662.102	60.11
662.431	60.1
662.76	60.05
663.089	60.01
663.418	59.94
663.747	59.87
664.076	59.87
664.404	59.94
664.733	59.97
665.062	60.04
665.39	60.13
665.719	60.03
666.048	60.15
666.376	60.26
666.705	60.17
667.033	60.29
667.362	60.45
667.69	60.53
668.018	60.67
668.347	60.61
668.675	60.66
669.003	60.8
669.331	60.69
669.659	60.69
669.987	60.66
670.315	60.74
670.643	60.78
670.971	60.69
671.299	60.69
671.627	60.56
671.955	60.48
672.283	60.39
672.61	60.55
672.938	60.64
673.266	60.48
673.593	60.5
673.921	60.54
674.249	60.41
674.576	60.39
674.904	60.39
675.231	60.43
675.558	60.37
675.886	60.38
676.213	60.48
676.54	60.55
676.867	60.65
677.195	60.69
677.522	60.68
677.849	60.78
678.176	60.78
678.503	60.85
678.83	60.93
679.157	61.07
679.484	61.1
679.81	61.16
680.137	61.23
680.464	61.35
680.791	61.38
681.117	61.49
681.444	61.44
681.771	61.37
682.097	61.37
682.424	61.45
682.75	61.34
683.077	61.36
683.403	61.3
683.729	61.22
684.056	61.19
684.382	61.28
684.708	61.23
685.034	61.19
685.36	61.19
685.686	61.15
686.012	61.05
686.339	61
686.664	60.9
686.99	60.9
687.316	60.7
687.642	60.6
687.968	60.63
688.294	60.71
688.619	60.66
688.945	60.72
689.271	60.59
689.596	60.61
689.922	60.61
690.247	60.69
690.573	60.77
690.898	60.88
691.224	60.85
691.549	60.95
691.874	61.02
692.2	61.04
692.525	61.07
692.85	61.14
693.175	61.27
693.5	61.34
693.825	61.34
694.15	61.44
694.475	61.65
694.8	61.62
695.125	61.66
695.45	61.79
695.775	61.77
696.099	61.86
696.424	62.04
696.749	62.29
697.073	62.35
697.398	62.39
697.723	62.52
698.047	62.66
698.372	62.62
698.696	62.6
699.02	62.52
699.345	62.42
699.669	62.41
699.993	62.39
700.318	62.38
700.642	62.52
700.966	62.56
701.29	62.54
701.614	62.55
701.938	62.75
702.262	62.87
702.586	62.88
702.91	62.93
703.234	62.88
703.557	62.83
703.881	62.91
704.205	62.88
704.529	62.72
704.852	62.6
705.176	62.86
705.499	62.91
705.823	63.06
706.146	63.25
706.47	63.35
706.793	63.38
707.117	63.27
707.44	63.11
707.763	63.15
708.086	62.99
708.409	62.94
708.733	62.58
709.056	62.41
709.379	62.53
709.702	62.71
710.025	62.65
710.348	62.57
710.671	62.43
710.993	62.43
711.316	62.48
711.639	62.48
711.962	62.21
712.284	62.44
712.607	62.39
712.93	62.35
713.252	62.26
713.575	62.17
713.897	62.25
714.22	62.46
714.542	62.48
714.864	62.63
715.187	62.69
715.509	62.65
715.831	62.64
716.153	62.63
716.475	62.5
716.798	62.6
717.12	62.69
717.442	62.63
717.764	62.51
718.085	62.52
718.407	62.53
718.729	62.82
719.051	62.72
719.373	62.88
719.695	63.04
720.016	63.15
720.338	63.37
720.659	63.39
720.981	63.28
721.302	63.16
721.624	62.95
721.945	63
722.267	63.06
722.588	63.25
722.909	62.98
723.231	62.91
723.552	62.94
723.873	63
724.194	63.24
724.515	63.35
724.836	63.26
725.157	63.25
725.478	63.16
725.799	63.12
726.12	63.19
726.441	62.94
726.762	62.79
727.083	62.77
727.403	62.85
727.724	62.72
728.045	62.7
728.365	62.89
728.686	62.82
729.006	62.97
729.327	62.88
729.647	62.97
729.967	63.11
730.288	63.03
730.608	62.91
730.928	62.56
731.249	62.82
731.569	63.01
731.889	62.89
732.209	62.91
732.529	62.8
732.849	62.83
733.169	63.05
733.489	63.16
733.809	63.28
734.129	63.27
734.448	63.48
734.768	63.7
735.088	63.7
735.408	63.78
735.727	63.69
736.047	63.89
736.366	63.99
736.686	63.92
737.005	63.92
737.325	63.69
737.644	64.14
737.963	63.84
738.283	63.43
738.602	63.5
738.921	63.39
739.24	63.56
739.56	63.49
739.879	63.15
740.198	63.02
740.517	62.83
740.836	62.83
741.155	62.83
741.473	62.72
741.792	62.73
742.111	62.72
742.43	62.89
742.748	62.99
743.067	62.81
743.386	62.58
743.704	62.61
744.023	62.71
744.341	62.56
744.66	62.66
744.978	62.9
745.297	62.78
745.615	62.79
745.933	62.9
746.252	63.16
746.57	63.6
746.888	63.64
747.206	64.03
747.524	63.82
747.842	63.74
748.16	64.04
748.478	63.94
748.796	64.19
749.114	64.01
749.432	63.93
749.749	64.16
750.067	64.5
750.385	64.59
750.703	64.52
751.02	64.74
751.338	64.86
751.655	64.75
751.973	64.51
752.29	64.46
752.608	64.3
752.925	63.78
753.242	63.71
753.56	63.8
753.877	63.52
754.194	64
754.511	63.9
754.828	63.64
755.145	63.81
755.462	63.42
755.779	63.54
756.096	63.52
756.413	63.57
756.73	63.86
757.047	63.97
757.364	64.09
757.68	64.03
757.997	64.21
758.314	64.47
758.63	64.91
758.947	64.88
759.264	64.91
759.58	65.18
759.896	65.1
760.213	65.24
760.529	65.21
760.846	65.06
761.162	65.15
761.478	65.34
761.794	65.34
762.11	65.59
762.426	65.22
762.743	65.43
763.059	65.56
763.375	65.34
763.69	65.21
764.006	65.24
764.322	65.01
764.638	64.99
764.954	65
765.27	65.05
765.585	64.9
765.901	64.7
766.216	64.69
766.532	64.49
766.848	64.64
767.163	64.57
767.478	64.81
767.794	64.92
768.109	64.96
768.424	64.62
768.74	64.71
769.055	65.21
769.37	65.14
769.685	64.95
770	64.81
770.315	64.84
770.63	64.91
770.945	65.34
771.26	65.09
771.575	64.9
771.89	64.82
772.205	65.27
772.52	65.43
772.834	65.51
773.149	65.97
773.464	65.71
773.778	65.77
774.093	64.96
774.407	64.83
774.722	64.83
775.036	65.34
775.351	65.27
775.665	65.38
775.979	65.13
776.293	65.15
776.608	65.26
776.922	65.22
777.236	65.44
777.55	65.49
777.864	65.45
778.178	65.62
778.492	65.72
778.806	65.54
779.12	65.75
779.434	65.6
779.747	65.81
780.061	66.33
780.375	66.19
780.689	66.64
781.002	66.36
781.316	66.45
781.629	66.34
781.943	66.27
782.256	65.9
782.57	65.88
782.883	65.95
783.196	65.74
783.51	65.82
783.823	65.79
784.136	65.61
784.449	65.71
784.762	65.5
785.075	65.99
785.388	66.78
785.701	66.95
786.014	66.91
786.327	66.36
786.64	65.89
786.953	65.83
787.266	65.64
787.578	66.26
787.891	66
788.204	65.84
788.516	65.9
788.829	66.54
789.141	66.21
789.454	66.06
789.766	66.07
790.079	66.34
790.391	66.09
790.703	65.79
791.016	65.58
791.328	65.23
791.64	65.12
791.952	64.83
792.264	64.37
792.576	64.43
792.888	64.6
793.2	64.75
793.512	64.71
793.824	64.78
794.136	64.39
794.448	64.3
794.76	64.6
795.071	64.13
795.383	63.86
795.695	64.29
796.006	64.16
796.318	64.52
796.629	64.08
796.941	64.08
797.252	64.55
797.564	64.95
797.875	65
798.186	64.76
798.497	64.64
798.809	65.17
799.12	65.32
799.431	65.12
799.742	64.77
800.053	65.14
800.364	64.96
800.675	64.72
800.986	65.04
801.297	65.24
801.608	65.38
801.918	64.94
802.229	65.18
802.54	65.34
802.851	64.89
803.161	64.75
803.472	64.75
803.782	64.67
804.093	64.47
804.403	64.78
804.714	64.95
805.024	64.6
805.334	64.57
805.645	64.5
805.955	64.83
806.265	64.26
806.575	63.59
806.885	63.86
807.195	63.98
807.505	63.47
807.815	62.89
808.125	62.75
808.435	62.76
808.745	62.37
809.055	62.68
809.365	63.07
809.674	63.14
809.984	62.8
810.294	62.67
810.603	62.02
810.913	62.56
811.222	62.41
811.532	62.65
811.841	62.53
812.151	62.41
812.46	62.56
812.769	63.66
813.079	63.81
813.388	63.81
813.697	64.05
814.006	64.74
814.315	64.28
814.624	64.55
814.933	64.89
815.242	65.05
815.551	65.62
815.86	65.69
816.169	66.01
816.478	66.81
816.786	66.69
817.095	67.59
817.404	67.61
817.712	67.1
818.021	67.07
818.33	66.77
818.638	66.74
818.947	66.83
819.255	66.65
819.563	67.06
819.872	67.03
820.18	66.67
820.488	66.47
820.796	66.52
821.105	66.37
821.413	66.49
821.721	66.26
822.029	66
822.337	65.94
822.645	65.91
822.953	65.99
823.26	65.86
823.568	65.9
823.876	65.63
824.184	65.53
824.491	65.52
824.799	65.67
825.107	65.47
825.414	65.24
825.722	65.17
826.029	64.86
826.337	64.75
826.644	64.72
826.951	64.67
827.259	64.75
827.566	64.75
827.873	64.52
828.18	64.65
828.488	64.52
828.795	64.54
829.102	64.62
829.409	64.12
829.716	64.28
830.023	63.91
830.329	64.17
830.636	64.47
830.943	64.58
831.25	64.15
831.557	64.28
831.863	64.53
832.17	64.08
832.476	64.52
832.783	64.84
833.089	65.15
833.396	64.98
833.702	65.06
834.009	65.14
834.315	65.22
834.621	64.55
834.928	64.81
835.234	64.52
835.54	63.84
835.846	63.89
836.152	64.15
836.458	63.93
836.764	63.95
837.07	63.38
837.376	63.14
837.682	63.51
837.988	64.04
838.293	63.97
838.599	64.84
838.905	65.04
839.211	64.49
839.516	64.78
839.822	64.73
840.127	65.55
840.433	65.47
840.738	65.36
841.044	66.07
841.349	65.28
841.654	65.43
841.959	66.66
842.265	66.53
842.57	64.95
842.875	66.24
843.18	66.94
843.485	67.6
843.79	67.94
844.095	67.31
844.4	66.7
844.705	67.57
845.01	66.69
845.315	66.57
845.619	66.87
845.924	66.22
846.229	66.55
846.533	64.7
846.838	65.27
847.142	65.27
847.447	65.7
847.751	66.61
848.056	67.13
848.36	67.13
848.664	66.35
848.969	67.8
849.273	66.3
849.577	64.93
849.881	66.34
850.185	66.51
850.489	66.74
850.794	66.86
851.097	64.53
851.401	64.73
851.705	64.89
852.009	65.27
852.313	63.54
852.617	62.44
852.92	62.92
853.224	63.63
853.528	63.85
853.831	62.71
854.135	62.5
854.438	63.7
854.742	63.95
855.045	66.9
855.349	67.6
855.652	69.06
855.955	68.16
856.259	69.22
856.562	67.01
856.865	66.49
857.168	67.19
857.471	69.21
857.774	69.63
858.077	68
858.38	68.7
858.683	69.64
858.986	68.72
859.289	68.24
859.592	66.65
859.894	66.55
860.197	67.13
860.5	66.27
860.802	65.65
861.105	66.05
861.407	65.55
861.71	63.51
862.012	63.1
862.315	63.01
862.617	61.76
862.919	63.49
863.222	65.21
863.524	64.04
863.826	63.56
864.128	63.62
864.43	65.75
864.732	66.01
865.034	66.66
865.336	67.93
865.638	66.26
865.94	65.29
866.242	65.05
866.544	67.04
866.846	68.2
867.147	67.79
867.449	66.81
867.751	68.31
868.052	70.85
868.354	71.29
868.655	72.95
868.957	72.26
869.258	70.74
869.56	71.36
869.861	71.04
870.162	68.79
870.463	69.61
870.765	69.04
871.066	66.91
871.367	67.32
871.668	69.3
871.969	70.24
872.27	70.78
872.571	71.6
872.872	71.62
873.173	71.38
873.473	72.11
873.774	71.69
874.075	70.3
874.376	68.78
874.676	68.06
874.977	67.94
875.277	69.96
875.578	72.19
875.878	70.55
876.179	71.36
876.479	73.76
876.78	72.56
877.08	72.81
877.38	75.03
877.68	75.31
877.981	74.47
878.281	75.9
878.581	78.99
