Data from BU26845_Reflection_00014.txt Node
Date: Mon Nov 18 16:28:19 EST 2019
User: vgr7
Spectrometer: USB2G7710
Scans to average: 3
Trigger mode: 4
Integration Time (sec): 2.000000E-2
Electric dark correction enabled: true
Boxcar width: 10
XAxis mode: Wavelengths
Number of Pixels in Spectrum: 2048
>>>>>Begin Spectral Data<<<<<
177.721	25.84
178.105	69.04
178.488	79.03
178.871	140.89
179.254	57.68
179.636	11.5
180.019	1.92
180.402	180
180.785	932.17
181.168	-1478.13
181.55	-511.94
181.933	135.22
182.316	227.27
182.698	311.32
183.081	270.51
183.463	422.09
183.846	336.87
184.228	299.11
184.611	163.9
184.993	467.61
185.376	436.34
185.758	-323.73
186.14	-285.61
186.522	-195.21
186.904	-132.51
187.287	-126.21
187.669	-83.21
188.051	-78.54
188.433	-65.38
188.815	-50.92
189.197	-56.32
189.579	-48.44
189.961	-36.23
190.342	-30.54
190.724	-24.72
191.106	-31.37
191.488	-34.78
191.869	-34.65
192.251	-39.51
192.633	-39.34
193.014	-49.45
193.396	-51.92
193.777	-60.01
194.159	-45.13
194.54	-32.65
194.922	-18.49
195.303	-17.5
195.684	-13.08
196.065	-5.4
196.447	0.98
196.828	-0.35
197.209	-0.34
197.59	-6.1
197.971	-3.89
198.352	-8.63
198.733	-5.98
199.114	11.91
199.495	23.71
199.876	32.44
200.257	31.87
200.638	27.63
201.018	24.04
201.399	44.52
201.78	39.7
202.16	35.03
202.541	8.84
202.922	-25.72
203.302	-27.35
203.683	-45.17
204.063	-53.16
204.444	-56.36
204.824	-67.61
205.204	-53.32
205.585	-54.85
205.965	-65.53
206.345	-77.06
206.725	-63.25
207.106	-83.18
207.486	-79.02
207.866	-55.81
208.246	-51.96
208.626	-61.11
209.006	-42.19
209.386	-49.58
209.766	-63.65
210.145	-55.12
210.525	-30.94
210.905	-9.65
211.285	-3.43
211.664	6.02
212.044	-5.36
212.424	-10.35
212.803	-2.3
213.183	7.58
213.562	16.28
213.942	21.85
214.321	30.53
214.701	27.02
215.08	24.98
215.459	20.78
215.838	9.18
216.218	3.87
216.597	17.62
216.976	7.35
217.355	-6.66
217.734	2.7
218.113	7.73
218.492	10.01
218.871	11.45
219.25	7.01
219.629	8.6
220.008	14.56
220.387	20.35
220.766	13.53
221.144	-1.65
221.523	-16.46
221.902	-22.62
222.28	-30.8
222.659	-22.31
223.037	-20.2
223.416	-17.19
223.794	-11.16
224.173	-0.24
224.551	4.02
224.929	8.63
225.308	19.93
225.686	17.45
226.064	11.97
226.442	7.08
226.821	8.18
227.199	7.99
227.577	4.82
227.955	6.82
228.333	3.31
228.711	8.22
229.089	13.35
229.467	11.46
229.845	8.13
230.222	10.08
230.6	6.06
230.978	4.21
231.356	4.63
231.733	5.07
232.111	4.17
232.488	3.14
232.866	2.42
233.243	2.31
233.621	-0.02
233.998	0.69
234.376	0.35
234.753	0.29
235.13	0.79
235.508	1.83
235.885	-0.38
236.262	-0.73
236.639	-1.72
237.016	-2.16
237.393	-0.91
237.77	-0.19
238.147	-1
238.524	0.12
238.901	0.9
239.278	1.03
239.655	1.34
240.032	1.52
240.409	1.16
240.785	1.57
241.162	1.37
241.539	1.84
241.915	2.02
242.292	2.39
242.668	2.06
243.045	2.45
243.421	2.56
243.798	2.58
244.174	2.66
244.551	2.6
244.927	2.58
245.303	2.58
245.679	2.81
246.056	2.85
246.432	2.93
246.808	2.91
247.184	2.84
247.56	2.71
247.936	2.73
248.312	2.83
248.688	2.66
249.064	2.54
249.44	2.58
249.815	2.55
250.191	2.59
250.567	2.79
250.943	2.52
251.318	2.36
251.694	2.38
252.069	2.26
252.445	2.53
252.82	2.61
253.196	2.74
253.571	2.52
253.947	2.8
254.322	2.85
254.697	2.48
255.073	2.47
255.448	2.34
255.823	2.12
256.198	2.05
256.573	2.13
256.948	2.38
257.323	2.44
257.698	2.55
258.073	2.61
258.448	2.59
258.823	2.59
259.198	2.47
259.573	2.52
259.948	2.55
260.322	2.48
260.697	2.34
261.072	2.11
261.446	2.25
261.821	2.22
262.195	2.33
262.57	2.41
262.944	2.43
263.319	2.52
263.693	2.75
264.067	2.85
264.442	2.91
264.816	2.73
265.19	2.56
265.564	2.36
265.938	2.07
266.313	1.96
266.687	2.05
267.061	2.32
267.435	2.45
267.809	2.47
268.183	2.5
268.556	2.57
268.93	2.87
269.304	2.76
269.678	2.53
270.051	2.35
270.425	2.57
270.799	2.52
271.172	2.65
271.546	2.42
271.919	2.42
272.293	2.45
272.666	2.62
273.04	2.71
273.413	2.8
273.787	2.9
274.16	2.87
274.533	2.9
274.906	2.79
275.279	2.74
275.653	2.67
276.026	2.53
276.399	2.55
276.772	2.42
277.145	2.21
277.518	2.25
277.891	2.27
278.263	2.03
278.636	2.08
279.009	1.95
279.382	2.09
279.755	2.12
280.127	2.05
280.5	2.08
280.872	2.27
281.245	2.25
281.617	2.44
281.99	2.7
282.362	2.72
282.735	2.56
283.107	2.65
283.479	2.8
283.852	2.81
284.224	2.72
284.596	2.66
284.968	2.86
285.34	3.04
285.713	3.04
286.085	3.18
286.457	3.19
286.829	3.13
287.201	3.09
287.572	3.04
287.944	2.92
288.316	2.81
288.688	2.67
289.06	2.63
289.431	2.55
289.803	2.54
290.175	2.48
290.546	2.69
290.918	2.71
291.289	2.72
291.661	2.81
292.032	2.92
292.403	3.08
292.775	3.21
293.146	3.02
293.517	3.08
293.889	3.05
294.26	3.05
294.631	3.06
295.002	3.05
295.373	3.09
295.744	3.17
296.115	3.18
296.486	3.1
296.857	3.15
297.228	3.11
297.599	2.87
297.97	2.87
298.34	2.93
298.711	2.85
299.082	2.83
299.452	2.83
299.823	2.79
300.194	2.74
300.564	2.72
300.935	2.87
301.305	2.97
301.676	3.01
302.046	3.12
302.416	3.27
302.787	3.38
303.157	3.3
303.527	3.49
303.897	3.58
304.267	3.96
304.637	3.97
305.008	4.03
305.378	4.25
305.748	4.32
306.117	4.24
306.487	4.33
306.857	4.37
307.227	4.43
307.597	4.45
307.967	4.51
308.336	4.46
308.706	4.4
309.076	4.26
309.445	4.26
309.815	4.22
310.184	4.19
310.554	4.13
310.923	4.14
311.293	4.09
311.662	4.07
312.031	3.96
312.401	3.99
312.77	4.08
313.139	4.07
313.508	4.09
313.877	4.17
314.246	4.13
314.616	4.2
314.985	4.1
315.353	4.08
315.722	4
316.091	4.03
316.46	4.03
316.829	4.14
317.198	4.23
317.567	4.25
317.935	4.27
318.304	4.56
318.672	4.63
319.041	4.61
319.41	4.74
319.778	4.68
320.147	4.64
320.515	4.6
320.883	4.61
321.252	4.74
321.62	4.61
321.988	4.72
322.357	4.87
322.725	4.95
323.093	5.03
323.461	5.26
323.829	5.28
324.197	5.42
324.565	5.47
324.933	5.46
325.301	5.47
325.669	5.4
326.037	5.3
326.405	5.33
326.772	5.44
327.14	5.52
327.508	5.63
327.875	5.65
328.243	5.64
328.61	5.71
328.978	5.66
329.346	5.88
329.713	5.74
330.08	5.73
330.448	5.73
330.815	5.79
331.182	5.84
331.55	5.88
331.917	5.9
332.284	6.03
332.651	6.06
333.018	6.12
333.385	6.29
333.752	6.27
334.119	6.32
334.486	6.21
334.853	6.17
335.22	6.09
335.587	6.32
335.954	6.35
336.32	6.31
336.687	6.34
337.054	6.35
337.42	6.54
337.787	6.53
338.153	6.55
338.52	6.65
338.886	6.47
339.253	6.38
339.619	6.43
339.986	6.31
340.352	6.31
340.718	6.39
341.084	6.41
341.451	6.53
341.817	6.64
342.183	6.76
342.549	6.8
342.915	6.95
343.281	6.92
343.647	6.84
344.013	6.92
344.379	6.92
344.745	6.93
345.11	6.83
345.476	6.76
345.842	6.81
346.208	6.76
346.573	6.89
346.939	7.03
347.304	6.99
347.67	7.01
348.035	7.08
348.401	7
348.766	6.96
349.132	6.98
349.497	7
349.862	7.07
350.228	7.02
350.593	6.9
350.958	6.8
351.323	6.92
351.688	6.89
352.053	6.84
352.418	6.86
352.783	6.91
353.148	6.91
353.513	6.83
353.878	6.77
354.243	6.7
354.608	6.57
354.972	6.63
355.337	6.69
355.702	6.65
356.066	6.72
356.431	6.65
356.795	6.64
357.16	6.53
357.524	6.39
357.889	6.38
358.253	6.45
358.618	6.48
358.982	6.49
359.346	6.44
359.71	6.39
360.075	6.36
360.439	6.34
360.803	6.36
361.167	6.42
361.531	6.44
361.895	6.43
362.259	6.49
362.623	6.42
362.987	6.38
363.351	6.34
363.714	6.26
364.078	6.28
364.442	6.16
364.806	6.2
365.169	6.24
365.533	6.21
365.896	6.17
366.26	6.14
366.623	6.1
366.987	6.12
367.35	6.14
367.714	6.14
368.077	6.14
368.44	6.13
368.803	6.03
369.167	5.94
369.53	5.89
369.893	5.87
370.256	5.86
370.619	5.8
370.982	5.76
371.345	5.73
371.708	5.7
372.071	5.74
372.434	5.63
372.797	5.58
373.159	5.5
373.522	5.45
373.885	5.48
374.247	5.4
374.61	5.37
374.973	5.31
375.335	5.26
375.698	5.22
376.06	5.16
376.423	5.23
376.785	5.25
377.147	5.25
377.51	5.19
377.872	5.15
378.234	5.16
378.596	5.15
378.958	5.07
379.321	5.01
379.683	4.95
380.045	4.96
380.407	4.93
380.769	4.97
381.13	4.92
381.492	4.83
381.854	4.81
382.216	4.77
382.578	4.77
382.939	4.72
383.301	4.68
383.663	4.62
384.024	4.53
384.386	4.51
384.747	4.48
385.109	4.48
385.47	4.49
385.832	4.46
386.193	4.41
386.554	4.37
386.916	4.36
387.277	4.39
387.638	4.39
387.999	4.27
388.36	4.23
388.721	4.23
389.082	4.22
389.443	4.19
389.804	4.18
390.165	4.12
390.526	4.08
390.887	4.08
391.248	4.11
391.609	4.09
391.969	4.06
392.33	4.03
392.691	3.99
393.051	3.93
393.412	3.89
393.772	3.89
394.133	3.92
394.493	3.93
394.854	3.85
395.214	3.82
395.574	3.89
395.935	3.87
396.295	3.82
396.655	3.79
397.015	3.78
397.376	3.73
397.736	3.68
398.096	3.7
398.456	3.67
398.816	3.62
399.176	3.58
399.535	3.52
399.895	3.52
400.255	3.53
400.615	3.51
400.975	3.5
401.334	3.47
401.694	3.45
402.054	3.4
402.413	3.39
402.773	3.36
403.132	3.33
403.492	3.32
403.851	3.32
404.211	3.3
404.57	3.24
404.929	3.25
405.288	3.26
405.648	3.23
406.007	3.19
406.366	3.2
406.725	3.23
407.084	3.26
407.443	3.22
407.802	3.18
408.161	3.14
408.52	3.12
408.879	3.12
409.238	3.09
409.596	3.12
409.955	3.09
410.314	3.09
410.673	3.06
411.031	3.05
411.39	3.06
411.748	3.06
412.107	3.11
412.465	3.1
412.824	3.08
413.182	3.07
413.54	3.06
413.899	3.03
414.257	2.99
414.615	2.96
414.974	2.99
415.332	3
415.69	3.01
416.048	2.99
416.406	2.97
416.764	2.95
417.122	2.93
417.48	2.94
417.838	2.93
418.195	2.93
418.553	2.92
418.911	2.9
419.269	2.89
419.626	2.88
419.984	2.88
420.342	2.87
420.699	2.87
421.057	2.87
421.414	2.86
421.772	2.85
422.129	2.86
422.486	2.85
422.844	2.83
423.201	2.82
423.558	2.82
423.915	2.84
424.273	2.84
424.63	2.84
424.987	2.82
425.344	2.81
425.701	2.81
426.058	2.81
426.415	2.81
426.772	2.8
427.128	2.78
427.485	2.78
427.842	2.77
428.199	2.79
428.555	2.79
428.912	2.81
429.269	2.81
429.625	2.78
429.982	2.77
430.338	2.76
430.695	2.78
431.051	2.77
431.407	2.74
431.764	2.74
432.12	2.74
432.476	2.73
432.832	2.73
433.189	2.72
433.545	2.72
433.901	2.7
434.257	2.7
434.613	2.72
434.969	2.72
435.325	2.75
435.681	2.73
436.036	2.72
436.392	2.73
436.748	2.73
437.104	2.73
437.459	2.73
437.815	2.75
438.171	2.74
438.526	2.74
438.882	2.75
439.237	2.73
439.593	2.75
439.948	2.76
440.304	2.76
440.659	2.76
441.014	2.77
441.369	2.79
441.725	2.79
442.08	2.77
442.435	2.78
442.79	2.76
443.145	2.77
443.5	2.77
443.855	2.75
444.21	2.74
444.565	2.74
444.92	2.74
445.275	2.72
445.629	2.72
445.984	2.72
446.339	2.71
446.693	2.7
447.048	2.68
447.403	2.67
447.757	2.66
448.112	2.65
448.466	2.64
448.82	2.63
449.175	2.62
449.529	2.63
449.883	2.61
450.238	2.6
450.592	2.61
450.946	2.6
451.3	2.6
451.654	2.61
452.008	2.61
452.362	2.6
452.716	2.61
453.07	2.6
453.424	2.62
453.778	2.61
454.132	2.62
454.486	2.62
454.839	2.64
455.193	2.65
455.547	2.65
455.9	2.68
456.254	2.69
456.607	2.69
456.961	2.68
457.314	2.69
457.668	2.7
458.021	2.68
458.375	2.67
458.728	2.67
459.081	2.69
459.434	2.69
459.787	2.69
460.141	2.7
460.494	2.72
460.847	2.71
461.2	2.71
461.553	2.72
461.906	2.74
462.259	2.75
462.611	2.77
462.964	2.78
463.317	2.77
463.67	2.77
464.022	2.77
464.375	2.77
464.728	2.79
465.08	2.8
465.433	2.81
465.785	2.85
466.138	2.86
466.49	2.86
466.843	2.86
467.195	2.89
467.547	2.89
467.899	2.89
468.252	2.89
468.604	2.9
468.956	2.89
469.308	2.9
469.66	2.88
470.012	2.88
470.364	2.89
470.716	2.89
471.068	2.9
471.42	2.91
471.772	2.93
472.123	2.96
472.475	2.98
472.827	2.98
473.178	2.98
473.53	2.97
473.882	2.98
474.233	2.99
474.585	2.98
474.936	2.97
475.288	2.97
475.639	3.01
475.99	2.99
476.342	3
476.693	3
477.044	3.01
477.395	3.01
477.746	2.98
478.097	2.97
478.448	2.96
478.8	2.96
479.15	2.92
479.501	2.9
479.852	2.88
480.203	2.86
480.554	2.87
480.905	2.86
481.255	2.84
481.606	2.84
481.957	2.83
482.307	2.82
482.658	2.82
483.009	2.81
483.359	2.82
483.709	2.83
484.06	2.83
484.41	2.83
484.761	2.83
485.111	2.84
485.461	2.85
485.811	2.85
486.162	2.85
486.512	2.87
486.862	2.87
487.212	2.87
487.562	2.88
487.912	2.88
488.262	2.89
488.612	2.9
488.961	2.91
489.311	2.92
489.661	2.94
490.011	2.94
490.36	2.95
490.71	2.96
491.06	2.96
491.409	2.98
491.759	2.98
492.108	2.98
492.458	2.99
492.807	3
493.157	3.03
493.506	3.04
493.855	3.05
494.204	3.07
494.554	3.09
494.903	3.1
495.252	3.14
495.601	3.18
495.95	3.22
496.299	3.25
496.648	3.29
496.997	3.33
497.346	3.37
497.695	3.41
498.043	3.45
498.392	3.49
498.741	3.53
499.09	3.58
499.438	3.64
499.787	3.7
500.135	3.77
500.484	3.83
500.832	3.89
501.181	3.95
501.529	4.01
501.878	4.09
502.226	4.16
502.574	4.22
502.923	4.3
503.271	4.36
503.619	4.46
503.967	4.54
504.315	4.62
504.663	4.71
505.011	4.83
505.359	4.92
505.707	5.06
506.055	5.17
506.403	5.29
506.751	5.4
507.098	5.52
507.446	5.65
507.794	5.75
508.141	5.89
508.489	6.03
508.837	6.19
509.184	6.32
509.531	6.49
509.879	6.65
510.226	6.81
510.574	6.95
510.921	7.13
511.268	7.29
511.616	7.47
511.963	7.66
512.31	7.83
512.657	8.05
513.004	8.23
513.351	8.45
513.698	8.69
514.045	8.93
514.392	9.16
514.739	9.39
515.086	9.66
515.432	9.92
515.779	10.17
516.126	10.42
516.473	10.69
516.819	10.92
517.166	11.16
517.512	11.38
517.859	11.63
518.205	11.86
518.552	12.09
518.898	12.31
519.245	12.56
519.591	12.78
519.937	12.99
520.283	13.24
520.629	13.49
520.976	13.74
521.322	14.02
521.668	14.32
522.014	14.6
522.36	14.93
522.706	15.21
523.052	15.53
523.398	15.83
523.743	16.16
524.089	16.47
524.435	16.76
524.781	17.04
525.126	17.3
525.472	17.53
525.817	17.78
526.163	18.01
526.509	18.18
526.854	18.37
527.199	18.54
527.545	18.72
527.89	18.89
528.235	19.03
528.581	19.19
528.926	19.33
529.271	19.49
529.616	19.64
529.961	19.79
530.306	19.95
530.651	20.12
530.996	20.3
531.341	20.48
531.686	20.67
532.031	20.86
532.376	21.05
532.721	21.23
533.065	21.41
533.41	21.6
533.755	21.8
534.099	22
534.444	22.21
534.788	22.4
535.133	22.57
535.477	22.78
535.822	22.99
536.166	23.23
536.51	23.46
536.855	23.69
537.199	23.92
537.543	24.17
537.887	24.4
538.231	24.61
538.576	24.86
538.92	25.1
539.264	25.32
539.608	25.54
539.951	25.75
540.295	25.93
540.639	26.1
540.983	26.27
541.327	26.41
541.671	26.55
542.014	26.68
542.358	26.86
542.701	27.02
543.045	27.17
543.389	27.27
543.732	27.4
544.075	27.52
544.419	27.68
544.762	27.85
545.105	28.01
545.449	28.16
545.792	28.29
546.135	28.47
546.478	28.65
546.821	28.82
547.165	29.02
547.508	29.19
547.851	29.37
548.194	29.52
548.536	29.72
548.879	29.94
549.222	30.12
549.565	30.28
549.908	30.41
550.25	30.61
550.593	30.84
550.936	31.01
551.278	31.18
551.621	31.33
551.963	31.46
552.306	31.63
552.648	31.82
552.991	32.01
553.333	32.14
553.675	32.3
554.017	32.41
554.36	32.51
554.702	32.65
555.044	32.81
555.386	32.94
555.728	33.14
556.07	33.26
556.412	33.43
556.754	33.54
557.096	33.65
557.438	33.68
557.78	33.75
558.121	33.93
558.463	34.08
558.805	34.22
559.147	34.31
559.488	34.38
559.83	34.46
560.171	34.54
560.513	34.64
560.854	34.7
561.196	34.8
561.537	34.86
561.878	34.94
562.22	35.03
562.561	35.13
562.902	35.19
563.243	35.25
563.584	35.33
563.925	35.43
564.266	35.5
564.607	35.63
564.948	35.72
565.289	35.78
565.63	35.85
565.971	35.89
566.312	35.98
566.653	36.09
566.993	36.11
567.334	36.17
567.675	36.26
568.015	36.3
568.356	36.38
568.696	36.44
569.037	36.52
569.377	36.58
569.718	36.59
570.058	36.65
570.398	36.71
570.739	36.78
571.079	36.86
571.419	36.95
571.759	36.99
572.099	37.09
572.439	37.15
572.779	37.24
573.119	37.3
573.459	37.38
573.799	37.48
574.139	37.61
574.479	37.71
574.819	37.76
575.158	37.82
575.498	37.84
575.838	37.97
576.177	38.02
576.517	38.13
576.856	38.25
577.196	38.32
577.535	38.41
577.875	38.46
578.214	38.54
578.553	38.64
578.893	38.74
579.232	38.76
579.571	38.8
579.91	38.84
580.25	38.92
580.589	39
580.928	39.01
581.267	39.07
581.606	39.16
581.945	39.18
582.283	39.29
582.622	39.37
582.961	39.45
583.3	39.55
583.639	39.58
583.977	39.68
584.316	39.76
584.654	39.82
584.993	39.91
585.332	39.87
585.67	39.97
586.008	39.97
586.347	39.96
586.685	40.06
587.024	40.15
587.362	40.21
587.7	40.23
588.038	40.27
588.376	40.29
588.715	40.26
589.053	40.29
589.391	40.27
589.729	40.33
590.067	40.33
590.404	40.31
590.742	40.33
591.08	40.36
591.418	40.4
591.756	40.39
592.093	40.39
592.431	40.47
592.769	40.41
593.106	40.47
593.444	40.64
593.781	40.65
594.119	40.64
594.456	40.66
594.793	40.64
595.131	40.69
595.468	40.73
595.805	40.78
596.143	40.88
596.48	40.92
596.817	40.94
597.154	40.97
597.491	41.05
597.828	41.04
598.165	41.04
598.502	41.04
598.839	41.09
599.176	41.11
599.512	41.15
599.849	41.21
600.186	41.24
600.523	41.24
600.859	41.25
601.196	41.28
601.532	41.31
601.869	41.36
602.205	41.38
602.542	41.39
602.878	41.41
603.215	41.39
603.551	41.38
603.887	41.43
604.223	41.47
604.56	41.46
604.896	41.53
605.232	41.6
605.568	41.6
605.904	41.63
606.24	41.66
606.576	41.72
606.912	41.69
607.248	41.68
607.583	41.69
607.919	41.76
608.255	41.79
608.591	41.82
608.926	41.82
609.262	41.83
609.597	41.89
609.933	41.96
610.268	42.01
610.604	42.09
610.939	42.1
611.275	42.05
611.61	42.05
611.945	42.06
612.281	42.05
612.616	42.11
612.951	42.15
613.286	42.16
613.621	42.12
613.956	42.25
614.291	42.37
614.626	42.45
614.961	42.46
615.296	42.52
615.631	42.62
615.966	42.66
616.3	42.74
616.635	42.76
616.97	42.74
617.304	42.78
617.639	42.81
617.973	42.83
618.308	42.92
618.642	43.01
618.977	43.02
619.311	42.98
619.646	42.97
619.98	43.01
620.314	43.08
620.648	43.14
620.983	43.17
621.317	43.07
621.651	42.96
621.985	42.95
622.319	42.94
622.653	42.84
622.987	42.9
623.321	42.84
623.655	42.9
623.988	42.85
624.322	42.89
624.656	42.92
624.99	42.94
625.323	42.93
625.657	42.87
625.99	42.89
626.324	42.94
626.657	42.96
626.991	42.97
627.324	43
627.658	43.02
627.991	43.03
628.324	43.11
628.657	43.11
628.991	43.14
629.324	43.12
629.657	43.17
629.99	43.17
630.323	43.2
630.656	43.12
630.989	43.24
631.322	43.22
631.655	43.22
631.987	43.18
632.32	43.11
632.653	43.15
632.986	43.1
633.318	43.02
633.651	43.08
633.984	43.05
634.316	43.11
634.649	43.12
634.981	43.15
635.313	43.12
635.646	43.11
635.978	43.13
636.31	43.2
636.643	43.27
636.975	43.3
637.307	43.31
637.639	43.37
637.971	43.31
638.303	43.33
638.635	43.34
638.967	43.38
639.299	43.51
639.631	43.58
639.963	43.61
640.295	43.77
640.626	43.73
640.958	43.76
641.29	43.73
641.621	43.62
641.953	43.53
642.285	43.63
642.616	43.69
642.948	43.77
643.279	43.78
643.61	43.72
643.942	43.69
644.273	43.72
644.604	43.71
644.936	43.77
645.267	43.76
645.598	43.77
645.929	43.82
646.26	43.69
646.591	43.65
646.922	43.71
647.253	43.57
647.584	43.58
647.915	43.53
648.245	43.49
648.576	43.65
648.907	43.67
649.238	43.74
649.568	43.84
649.899	43.87
650.229	43.86
650.56	43.9
650.89	43.9
651.221	43.99
651.551	43.94
651.882	43.95
652.212	43.91
652.542	43.87
652.872	43.81
653.203	43.87
653.533	43.93
653.863	43.82
654.193	43.95
654.523	43.87
654.853	43.84
655.183	43.85
655.513	43.78
655.843	43.8
656.172	43.71
656.502	43.64
656.832	43.59
657.162	43.54
657.491	43.54
657.821	43.56
658.15	43.5
658.48	43.55
658.809	43.57
659.139	43.61
659.468	43.66
659.798	43.63
660.127	43.61
660.456	43.65
660.785	43.77
661.115	43.76
661.444	43.96
661.773	44.02
662.102	43.98
662.431	44.05
662.76	44.02
663.089	43.96
663.418	43.9
663.747	43.95
664.076	43.95
664.404	43.92
664.733	43.9
665.062	43.92
665.39	43.9
665.719	43.79
666.048	43.82
666.376	43.81
666.705	43.85
667.033	43.93
667.362	43.99
667.69	43.97
668.018	43.83
668.347	43.8
668.675	43.89
669.003	43.94
669.331	43.96
669.659	43.95
669.987	44.06
670.315	44.02
670.643	43.89
670.971	43.85
671.299	43.92
671.627	43.95
671.955	43.89
672.283	43.98
672.61	44.03
672.938	43.9
673.266	43.92
673.593	44.06
673.921	44.01
674.249	43.93
674.576	43.87
674.904	44
675.231	43.88
675.558	43.94
675.886	43.9
676.213	43.82
676.54	43.86
676.867	43.87
677.195	44
677.522	44.1
677.849	44.26
678.176	44.21
678.503	44.23
678.83	44.19
679.157	44.13
679.484	44.21
679.81	44.34
680.137	44.36
680.464	44.23
680.791	44.27
681.117	44.25
681.444	44.21
681.771	44.17
682.097	44.2
682.424	44.11
682.75	44.21
683.077	44.2
683.403	44.17
683.729	44.13
684.056	44.08
684.382	44.03
684.708	43.97
685.034	43.98
685.36	44.03
685.686	44.09
686.012	44.06
686.339	44.01
686.664	44.01
686.99	43.97
687.316	44.02
687.642	44.05
687.968	44.09
688.294	44.09
688.619	44.16
688.945	44.17
689.271	44.19
689.596	44.17
689.922	44.15
690.247	44.22
690.573	44.26
690.898	44.29
691.224	44.28
691.549	44.3
691.874	44.24
692.2	44.24
692.525	44.23
692.85	44.25
693.175	44.23
693.5	44.11
693.825	44.15
694.15	44.06
694.475	44.03
694.8	43.88
695.125	43.87
695.45	43.85
695.775	43.86
696.099	43.79
696.424	43.62
696.749	43.55
697.073	43.48
697.398	43.51
697.723	43.65
698.047	43.63
698.372	43.59
698.696	43.65
699.02	43.53
699.345	43.62
699.669	43.66
699.993	43.59
700.318	43.51
700.642	43.55
700.966	43.62
701.29	43.73
701.614	43.78
701.938	43.89
702.262	43.97
702.586	43.94
702.91	43.89
703.234	44.06
703.557	44.2
703.881	44.18
704.205	44.13
704.529	44.01
704.852	44.21
705.176	44.42
705.499	44.36
705.823	44.59
706.146	44.5
706.47	44.49
706.793	44.55
707.117	44.76
707.44	44.68
707.763	44.49
708.086	44.34
708.409	44.38
708.733	44.56
709.056	44.4
709.379	44.5
709.702	44.58
710.025	44.64
710.348	44.63
710.671	44.75
710.993	44.8
711.316	44.86
711.639	44.77
711.962	44.48
712.284	44.49
712.607	44.36
712.93	44.39
713.252	44.33
713.575	44.3
713.897	44.29
714.22	44.2
714.542	44.31
714.864	44.26
715.187	44.39
715.509	44.28
715.831	44.42
716.153	44.36
716.475	44.28
716.798	44.21
717.12	44.2
717.442	44.32
717.764	44.18
718.085	44.04
718.407	44.01
718.729	44.07
719.051	44.08
719.373	44.04
719.695	43.97
720.016	44.01
720.338	43.88
720.659	43.72
720.981	43.77
721.302	43.74
721.624	43.67
721.945	43.62
722.267	43.61
722.588	43.4
722.909	43.39
723.231	43.48
723.552	43.48
723.873	43.58
724.194	43.15
724.515	43.04
724.836	43.11
725.157	43.13
725.478	43.17
725.799	43.38
726.12	43.46
726.441	43.59
726.762	43.48
727.083	43.66
727.403	43.78
727.724	43.8
728.045	43.73
728.365	43.88
728.686	43.84
729.006	43.75
729.327	43.77
729.647	43.91
729.967	43.96
730.288	44.03
730.608	43.99
730.928	44.3
731.249	44.49
731.569	44.49
731.889	44.42
732.209	44.54
732.529	44.3
732.849	44.22
733.169	44.03
733.489	44.09
733.809	44.06
734.129	44.02
734.448	43.93
734.768	43.95
735.088	44.11
735.408	44.08
735.727	44.25
736.047	44.32
736.366	43.85
736.686	43.87
737.005	43.74
737.325	43.63
737.644	43.57
737.963	43.58
738.283	43.61
738.602	43.93
738.921	43.7
739.24	43.96
739.56	44.13
739.879	44.19
740.198	44.4
740.517	44.37
740.836	44.62
741.155	44.66
741.473	44.89
741.792	44.73
742.111	44.7
742.43	44.61
742.748	44.54
743.067	44.93
743.386	44.81
743.704	44.73
744.023	44.85
744.341	44.8
744.66	44.74
744.978	44.74
745.297	44.44
745.615	44.52
745.933	44.38
746.252	44.23
746.57	44.34
746.888	43.94
747.206	43.88
747.524	43.8
747.842	43.97
748.16	43.96
748.478	43.97
748.796	44.14
749.114	43.97
749.432	43.93
749.749	43.92
750.067	44.14
750.385	44.05
750.703	44.1
751.02	44.24
751.338	44.36
751.655	44.41
751.973	44.28
752.29	44.41
752.608	44.15
752.925	44.36
753.242	44.27
753.56	44.49
753.877	44.47
754.194	44.34
754.511	44.31
754.828	44.16
755.145	44.37
755.462	44.11
755.779	44.03
756.096	44.26
756.413	44.39
756.73	43.88
757.047	43.96
757.364	44.05
757.68	43.94
757.997	43.94
758.314	43.67
758.63	43.65
758.947	43.34
759.264	43.24
759.58	42.99
759.896	43.32
760.213	43.43
760.529	43.78
760.846	43.97
761.162	43.79
761.478	43.81
761.794	43.52
762.11	43.38
762.426	43.67
762.743	43.55
763.059	43.12
763.375	43.21
763.69	43.26
764.006	43.13
764.322	43.03
764.638	42.99
764.954	43.3
765.27	43.18
765.585	43.26
765.901	43.32
766.216	43.44
766.532	43.14
766.848	43.05
767.163	43.02
767.478	42.77
767.794	42.74
768.109	42.57
768.424	42.67
768.74	42.79
769.055	42.47
769.37	42.56
769.685	42.97
770	43.15
770.315	43.24
770.63	43.27
770.945	43.38
771.26	43.32
771.575	43.11
771.89	43.37
772.205	43.43
772.52	43.44
772.834	43.33
773.149	43.59
773.464	43.59
773.778	43.23
774.093	43.25
774.407	43.36
774.722	43.56
775.036	43.55
775.351	43.34
775.665	43.19
775.979	43.01
776.293	42.97
776.608	43.04
776.922	42.87
777.236	42.9
777.55	42.59
777.864	42.81
778.178	43.04
778.492	43.26
778.806	43.08
779.12	43.4
779.434	43.35
779.747	43.39
780.061	43.37
780.375	43.76
780.689	43.35
781.002	43.64
781.316	43.56
781.629	43.79
781.943	44.28
782.256	44.33
782.57	44.54
782.883	44.39
783.196	44.56
783.51	44.5
783.823	44.36
784.136	44.51
784.449	44.46
784.762	44.03
785.075	43.65
785.388	43.7
785.701	43.45
786.014	43.72
786.327	43.72
786.64	44.12
786.953	43.91
787.266	44.31
787.578	43.71
787.891	43.6
788.204	43.76
788.516	43.53
788.829	43.92
789.141	43.94
789.454	43.56
789.766	43.49
790.079	43.52
790.391	43.77
790.703	43.83
791.016	43.4
791.328	43.42
791.64	44.09
791.952	44.75
792.264	45.23
792.576	44.83
792.888	44.71
793.2	43.71
793.512	43.18
793.824	43.09
794.136	43.7
794.448	44.09
794.76	43.6
795.071	43.44
795.383	43.1
795.695	43.1
796.006	43.3
796.318	43.08
796.629	43.41
796.941	43.02
797.252	43.35
797.564	43.51
797.875	43.41
798.186	43.09
798.497	42.68
798.809	42.45
799.12	42.66
799.431	42.12
799.742	42.57
800.053	43.32
800.364	43.1
800.675	42.25
800.986	41.78
801.297	41.84
801.608	41.56
801.918	41.52
802.229	41.85
802.54	41.93
802.851	41.79
803.161	41.34
803.472	41.58
803.782	41.42
804.093	40.99
804.403	41.55
804.714	41.1
805.024	40.71
805.334	40.36
805.645	41.16
805.955	41.86
806.265	41.93
806.575	41.87
806.885	42.07
807.195	42.67
807.505	43.11
807.815	43.08
808.125	43.68
808.435	43.56
808.745	42.88
809.055	43.42
809.365	43.59
809.674	43.85
809.984	43.81
810.294	43.56
810.603	44.63
810.913	44.78
811.222	45.24
811.532	45.42
811.841	45.41
812.151	45.11
812.46	43.88
812.769	43.72
813.079	42.99
813.388	43.35
813.697	43.41
814.006	42.68
814.315	42.67
814.624	42.37
814.933	43.11
815.242	43.43
815.551	43.81
815.86	44.02
816.169	44.18
816.478	43.61
816.786	43.63
817.095	42.54
817.404	42.1
817.712	42.38
818.021	42.02
818.33	42.15
818.638	41.51
818.947	42.6
819.255	42.85
819.563	43.22
819.872	43.08
820.18	43.07
820.488	43.37
820.796	43.37
821.105	43.33
821.413	43.56
821.721	43.4
822.029	43.46
822.337	43.46
822.645	43.57
822.953	43.66
823.26	43.75
823.568	43.95
823.876	43.81
824.184	43.68
824.491	43.75
824.799	43.74
825.107	43.83
825.414	43.8
825.722	43.9
826.029	43.95
826.337	44.07
826.644	44.12
826.951	44.07
827.259	44.12
827.566	44.16
827.873	43.92
828.18	44.14
828.488	43.96
828.795	44.1
829.102	43.86
829.409	44.37
829.716	44.17
830.023	44.1
830.329	44.15
830.636	44.32
830.943	44.48
831.25	44.28
831.557	44.02
831.863	43.77
832.17	43.96
832.476	43.8
832.783	43.8
833.089	43.73
833.396	44.34
833.702	44.18
834.009	44.14
834.315	43.93
834.621	43.97
834.928	43.97
835.234	43.65
835.54	43.33
835.846	43.37
836.152	43.68
836.458	43.75
836.764	44.12
837.07	44.05
837.376	43.77
837.682	44.36
837.988	45.04
838.293	45.59
838.599	45.22
838.905	45.37
839.211	45.71
839.516	45.89
839.822	44.7
840.127	45.01
840.433	45.12
840.738	45.3
841.044	44.35
841.349	44.27
841.654	44.14
841.959	45.11
842.265	43.01
842.57	42.95
842.875	42.55
843.18	42.51
843.485	42.75
843.79	43.32
844.095	43.32
844.4	43.05
844.705	41.6
845.01	40.96
845.315	41.1
845.619	39.92
845.924	38.83
846.229	40.34
846.533	40.33
846.838	39.89
847.142	39.19
847.447	39.76
847.751	40.14
848.056	40.25
848.36	40.71
848.664	41.22
848.969	39.33
849.273	39.49
849.577	38.74
849.881	38.45
850.185	37.43
850.489	36.92
850.794	35.66
851.097	37.85
851.401	38.08
851.705	36.03
852.009	37.25
852.313	37.99
852.617	37.58
852.92	36.2
853.224	35.82
853.528	38.28
853.831	38.4
854.135	38.65
854.438	40.37
854.742	39.54
855.045	38.83
855.349	40.4
855.652	41.47
855.955	42.18
856.259	40.62
856.562	41.44
856.865	41.19
857.168	41.69
857.471	41.3
857.774	39.79
858.077	40.61
858.38	39.85
858.683	40.59
858.986	40.68
859.289	41.15
859.592	43.65
859.894	43.72
860.197	43.23
860.5	42.22
860.802	39.96
861.105	39.66
861.407	41.63
861.71	43.05
862.012	41.17
862.315	39.4
862.617	40.09
862.919	40.88
863.222	41.18
863.524	43.09
863.826	42.35
864.128	44.3
864.43	44.67
864.732	45.5
865.034	45.19
865.336	45.79
865.638	45.85
865.94	42.2
866.242	40.56
866.544	39.84
866.846	39.75
867.147	40.75
867.449	39.98
867.751	39.93
868.052	38.42
868.354	38.24
868.655	39.62
868.957	40.64
869.258	39.69
869.56	41.3
869.861	38.05
870.162	39.01
870.463	38.43
870.765	38.15
871.066	37.74
871.367	38.95
871.668	37.11
871.969	38.13
872.27	41.59
872.571	41.22
872.872	42.71
873.173	42.64
873.473	41.89
873.774	41.46
874.075	40.46
874.376	38.73
874.676	40.71
874.977	39.13
875.277	38.16
875.578	39.42
875.878	37.45
876.179	38.8
876.479	38.15
876.78	38.54
877.08	39.29
877.38	38.26
877.68	36.46
877.981	37.1
878.281	36.55
878.581	34.23
