Data from BU26945_Reflection_00014.txt Node
Date: Tue Nov 19 10:49:45 EST 2019
User: vgr7
Spectrometer: USB2G7710
Scans to average: 3
Trigger mode: 4
Integration Time (sec): 2.000000E-2
Electric dark correction enabled: true
Boxcar width: 10
XAxis mode: Wavelengths
Number of Pixels in Spectrum: 2048
>>>>>Begin Spectral Data<<<<<
177.721	155.09
178.105	267.76
178.488	831.45
178.871	803.13
179.254	388
179.636	239.75
180.019	288.81
180.402	-250
180.785	-5.88
181.168	18.27
181.55	6.13
181.933	10.58
182.316	-1.69
182.698	41.31
183.081	65.66
183.463	67.95
183.846	60.39
184.228	87.3
184.611	38.53
184.993	37.98
185.376	44.57
185.758	40.16
186.14	47.29
186.522	54.43
186.904	39.52
187.287	27.01
187.669	24.42
188.051	22.83
188.433	24.75
188.815	25.27
189.197	24.82
189.579	29.43
189.961	47.58
190.342	61.88
190.724	45.75
191.106	38.78
191.488	49.15
191.869	42.4
192.251	54
192.633	57.71
193.014	67.11
193.396	59.16
193.777	78.48
194.159	80.13
194.54	71.57
194.922	123.27
195.303	162.98
195.684	107.94
196.065	78.86
196.447	64.97
196.828	78.25
197.209	71.76
197.59	58.55
197.971	37.48
198.352	38.39
198.733	38.46
199.114	32.35
199.495	24.77
199.876	17.32
200.257	2.39
200.638	17.08
201.018	3.85
201.399	3.6
201.78	-0.04
202.16	-14.4
202.541	-21.18
202.922	-18.24
203.302	-17.37
203.683	-21.76
204.063	-15.01
204.444	-12.95
204.824	-27.37
205.204	-35.98
205.585	-55
205.965	-50.09
206.345	-66.78
206.725	-39.07
207.106	-26.39
207.486	-11.33
207.866	1.47
208.246	6.4
208.626	-25.56
209.006	-35.72
209.386	-4.59
209.766	-18.15
210.145	-19.33
210.525	-8.45
210.905	-19.18
211.285	3.97
211.664	13.9
212.044	18.47
212.424	10.1
212.803	13.95
213.183	22.58
213.562	43.61
213.942	35.94
214.321	47.34
214.701	23.57
215.08	26.37
215.459	42.02
215.838	44.2
216.218	48.25
216.597	67.15
216.976	82.42
217.355	104
217.734	107.51
218.113	96.32
218.492	112.94
218.871	119.93
219.25	91.93
219.629	107.32
220.008	95.55
220.387	111.32
220.766	91.76
221.144	95.65
221.523	65.04
221.902	60.72
222.28	59.05
222.659	89.52
223.037	59.75
223.416	47.35
223.794	34.92
224.173	30.39
224.551	26.03
224.929	17.97
225.308	10.77
225.686	17.72
226.064	13.64
226.442	12.51
226.821	7.84
227.199	11.26
227.577	14.01
227.955	16.21
228.333	14.22
228.711	13.39
229.089	9.58
229.467	11.11
229.845	11.05
230.222	7.65
230.6	4.06
230.978	7.66
231.356	6.82
231.733	6.48
232.111	3.49
232.488	3.67
232.866	7.65
233.243	7.92
233.621	7.67
233.998	8.52
234.376	7.22
234.753	8.99
235.13	5.81
235.508	5.69
235.885	4.59
236.262	3.91
236.639	4.4
237.016	4.92
237.393	5.33
237.77	4.87
238.147	4.85
238.524	5.69
238.901	4.21
239.278	4.32
239.655	4.98
240.032	6.62
240.409	5.69
240.785	4.91
241.162	5.02
241.539	4.6
241.915	4.53
242.292	4.96
242.668	5.24
243.045	5.62
243.421	5.47
243.798	5.59
244.174	5.44
244.551	5.48
244.927	5.22
245.303	4.92
245.679	5.07
246.056	5.08
246.432	4.96
246.808	5.04
247.184	5.04
247.56	4.96
247.936	4.86
248.312	5.11
248.688	5.16
249.064	4.87
249.44	4.68
249.815	4.7
250.191	4.68
250.567	4.35
250.943	4.57
251.318	4.63
251.694	4.57
252.069	4.84
252.445	4.59
252.82	5.08
253.196	5.23
253.571	5.19
253.947	5.02
254.322	4.79
254.697	4.69
255.073	4.63
255.448	4.28
255.823	4.29
256.198	4.23
256.573	4.11
256.948	4.27
257.323	4.52
257.698	4.47
258.073	4.52
258.448	4.8
258.823	4.46
259.198	4.32
259.573	4.09
259.948	4.15
260.322	4.22
260.697	4.21
261.072	4.15
261.446	4.19
261.821	4.22
262.195	4.28
262.57	4.48
262.944	4.41
263.319	4.6
263.693	4.56
264.067	4.52
264.442	4.61
264.816	4.46
265.19	4.37
265.564	4.42
265.938	4.25
266.313	3.98
266.687	3.94
267.061	3.76
267.435	3.92
267.809	3.5
268.183	3.44
268.556	3.56
268.93	3.66
269.304	3.62
269.678	3.73
270.051	3.75
270.425	3.59
270.799	3.48
271.172	3.44
271.546	3.32
271.919	3.39
272.293	3.3
272.666	3.4
273.04	3.59
273.413	3.6
273.787	3.7
274.16	3.8
274.533	3.98
274.906	4.05
275.279	4.06
275.653	4.29
276.026	4.56
276.399	4.4
276.772	4.42
277.145	4.63
277.518	4.57
277.891	4.63
278.263	4.76
278.636	5.24
279.009	5.28
279.382	5.47
279.755	5.6
280.127	5.5
280.5	5.41
280.872	5.29
281.245	5.26
281.617	5.2
281.99	5.17
282.362	5.05
282.735	5.09
283.107	5.15
283.479	5.18
283.852	5.02
284.224	5
284.596	4.95
284.968	4.73
285.34	4.74
285.713	4.81
286.085	4.71
286.457	4.58
286.829	4.54
287.201	4.44
287.572	4.38
287.944	4.58
288.316	4.7
288.688	4.75
289.06	4.65
289.431	4.68
289.803	4.77
290.175	4.78
290.546	4.87
290.918	4.92
291.289	4.84
291.661	4.87
292.032	4.98
292.403	4.96
292.775	5.18
293.146	5.19
293.517	5.13
293.889	5.05
294.26	5.08
294.631	5.13
295.002	5.23
295.373	5.11
295.744	5.07
296.115	5.12
296.486	5.06
296.857	5.22
297.228	5.28
297.599	5.18
297.97	5.35
298.34	5.41
298.711	5.42
299.082	5.44
299.452	5.44
299.823	5.48
300.194	5.68
300.564	5.68
300.935	5.8
301.305	5.67
301.676	5.75
302.046	5.71
302.416	5.67
302.787	5.76
303.157	6.02
303.527	6.22
303.897	6.18
304.267	6.44
304.637	6.52
305.008	6.55
305.378	6.64
305.748	6.57
306.117	6.48
306.487	6.51
306.857	6.71
307.227	7.01
307.597	7.07
307.967	7.05
308.336	7.05
308.706	7.08
309.076	7.46
309.445	7.61
309.815	7.82
310.184	7.9
310.554	7.82
310.923	7.8
311.293	7.8
311.662	7.97
312.031	7.91
312.401	7.79
312.77	7.77
313.139	7.83
313.508	7.85
313.877	7.99
314.246	7.96
314.616	8.11
314.985	7.88
315.353	7.93
315.722	8.04
316.091	8.06
316.46	8.17
316.829	8
317.198	8.11
317.567	8.13
317.935	8.27
318.304	8.5
318.672	8.64
319.041	8.86
319.41	8.82
319.778	8.95
320.147	9.02
320.515	9.1
320.883	9.34
321.252	9.47
321.62	9.61
321.988	9.68
322.357	9.65
322.725	9.91
323.093	9.93
323.461	9.83
323.829	10.03
324.197	9.97
324.565	10
324.933	9.96
325.301	9.78
325.669	9.86
326.037	9.94
326.405	9.93
326.772	9.78
327.14	9.93
327.508	10.01
327.875	10.14
328.243	10.22
328.61	10.18
328.978	10.28
329.346	10.24
329.713	10.55
330.08	10.65
330.448	10.59
330.815	10.5
331.182	10.61
331.55	10.6
331.917	10.83
332.284	11
332.651	11.18
333.018	11.48
333.385	11.52
333.752	11.49
334.119	11.52
334.486	11.68
334.853	11.63
335.22	11.56
335.587	11.55
335.954	11.58
336.32	11.55
336.687	11.58
337.054	11.62
337.42	11.46
337.787	11.44
338.153	11.48
338.52	11.69
338.886	11.78
339.253	11.85
339.619	11.81
339.986	11.82
340.352	11.72
340.718	11.8
341.084	11.82
341.451	11.83
341.817	11.84
342.183	11.73
342.549	11.92
342.915	12.02
343.281	12.18
343.647	12.22
344.013	12.3
344.379	12.27
344.745	12.43
345.11	12.52
345.476	12.57
345.842	12.62
346.208	12.68
346.573	12.67
346.939	12.54
347.304	12.55
347.67	12.63
348.035	12.52
348.401	12.51
348.766	12.51
349.132	12.59
349.497	12.71
349.862	12.89
350.228	12.78
350.593	12.67
350.958	12.71
351.323	12.71
351.688	12.7
352.053	12.73
352.418	12.7
352.783	12.69
353.148	12.57
353.513	12.57
353.878	12.64
354.243	12.62
354.608	12.92
354.972	12.98
355.337	12.94
355.702	13.11
356.066	13.08
356.431	13.16
356.795	13.18
357.16	13.17
357.524	13.04
357.889	13.05
358.253	13.07
358.618	12.99
358.982	12.98
359.346	13.02
359.71	12.89
360.075	12.81
360.439	12.78
360.803	12.91
361.167	12.96
361.531	12.84
361.895	12.87
362.259	12.75
362.623	12.68
362.987	12.63
363.351	12.57
363.714	12.54
364.078	12.51
364.442	12.4
364.806	12.31
365.169	12.31
365.533	12.3
365.896	12.32
366.26	12.27
366.623	12.16
366.987	12.14
367.35	12.29
367.714	12.26
368.077	12.29
368.44	12.18
368.803	12.13
369.167	12.11
369.53	12.01
369.893	11.96
370.256	11.9
370.619	11.98
370.982	11.86
371.345	11.84
371.708	11.7
372.071	11.68
372.434	11.66
372.797	11.65
373.159	11.56
373.522	11.47
373.885	11.53
374.247	11.55
374.61	11.53
374.973	11.46
375.335	11.41
375.698	11.23
376.06	11.21
376.423	11.18
376.785	11.1
377.147	11.09
377.51	11
377.872	10.97
378.234	10.83
378.596	10.85
378.958	10.75
379.321	10.69
379.683	10.67
380.045	10.6
380.407	10.52
380.769	10.49
381.13	10.44
381.492	10.31
381.854	10.33
382.216	10.22
382.578	10.11
382.939	10.01
383.301	10.02
383.663	9.86
384.024	9.77
384.386	9.74
384.747	9.63
385.109	9.59
385.47	9.55
385.832	9.51
386.193	9.47
386.554	9.4
386.916	9.39
387.277	9.28
387.638	9.24
387.999	9.21
388.36	9.14
388.721	9.13
389.082	9.09
389.443	8.96
389.804	8.91
390.165	8.91
390.526	8.92
390.887	8.85
391.248	8.83
391.609	8.87
391.969	8.77
392.33	8.75
392.691	8.69
393.051	8.66
393.412	8.62
393.772	8.58
394.133	8.52
394.493	8.45
394.854	8.42
395.214	8.33
395.574	8.26
395.935	8.23
396.295	8.17
396.655	8.11
397.015	8.07
397.376	8
397.736	7.88
398.096	7.81
398.456	7.8
398.816	7.82
399.176	7.69
399.535	7.65
399.895	7.59
400.255	7.53
400.615	7.45
400.975	7.39
401.334	7.28
401.694	7.3
402.054	7.28
402.413	7.26
402.773	7.25
403.132	7.19
403.492	7.15
403.851	7.07
404.211	7.04
404.57	7.01
404.929	6.97
405.288	6.96
405.648	6.91
406.007	6.87
406.366	6.8
406.725	6.76
407.084	6.78
407.443	6.74
407.802	6.72
408.161	6.69
408.52	6.65
408.879	6.67
409.238	6.63
409.596	6.61
409.955	6.53
410.314	6.49
410.673	6.5
411.031	6.42
411.39	6.43
411.748	6.39
412.107	6.38
412.465	6.36
412.824	6.3
413.182	6.27
413.54	6.27
413.899	6.24
414.257	6.23
414.615	6.19
414.974	6.19
415.332	6.19
415.69	6.18
416.048	6.17
416.406	6.11
416.764	6.08
417.122	6.06
417.48	6.05
417.838	6.01
418.195	5.97
418.553	5.97
418.911	5.91
419.269	5.91
419.626	5.89
419.984	5.87
420.342	5.86
420.699	5.83
421.057	5.81
421.414	5.78
421.772	5.75
422.129	5.72
422.486	5.68
422.844	5.63
423.201	5.6
423.558	5.59
423.915	5.58
424.273	5.55
424.63	5.53
424.987	5.52
425.344	5.51
425.701	5.5
426.058	5.49
426.415	5.48
426.772	5.45
427.128	5.41
427.485	5.39
427.842	5.37
428.199	5.36
428.555	5.32
428.912	5.32
429.269	5.32
429.625	5.33
429.982	5.32
430.338	5.32
430.695	5.3
431.051	5.28
431.407	5.28
431.764	5.29
432.12	5.28
432.476	5.26
432.832	5.26
433.189	5.25
433.545	5.24
433.901	5.24
434.257	5.25
434.613	5.27
434.969	5.26
435.325	5.26
435.681	5.26
436.036	5.26
436.392	5.25
436.748	5.24
437.104	5.23
437.459	5.23
437.815	5.27
438.171	5.28
438.526	5.28
438.882	5.27
439.237	5.26
439.593	5.27
439.948	5.27
440.304	5.26
440.659	5.26
441.014	5.25
441.369	5.25
441.725	5.23
442.08	5.21
442.435	5.21
442.79	5.19
443.145	5.18
443.5	5.16
443.855	5.13
444.21	5.14
444.565	5.13
444.92	5.12
445.275	5.1
445.629	5.1
445.984	5.09
446.339	5.06
446.693	5.05
447.048	5.01
447.403	5.02
447.757	5
448.112	4.99
448.466	4.97
448.82	4.94
449.175	4.93
449.529	4.93
449.883	4.92
450.238	4.94
450.592	4.93
450.946	4.93
451.3	4.94
451.654	4.91
452.008	4.89
452.362	4.86
452.716	4.86
453.07	4.83
453.424	4.79
453.778	4.8
454.132	4.79
454.486	4.8
454.839	4.75
455.193	4.75
455.547	4.73
455.9	4.75
456.254	4.77
456.607	4.77
456.961	4.77
457.314	4.77
457.668	4.77
458.021	4.78
458.375	4.8
458.728	4.8
459.081	4.81
459.434	4.83
459.787	4.86
460.141	4.89
460.494	4.91
460.847	4.92
461.2	4.93
461.553	4.94
461.906	4.95
462.259	4.99
462.611	5.01
462.964	5.06
463.317	5.07
463.67	5.09
464.022	5.12
464.375	5.13
464.728	5.14
465.08	5.15
465.433	5.18
465.785	5.22
466.138	5.25
466.49	5.31
466.843	5.32
467.195	5.32
467.547	5.3
467.899	5.34
468.252	5.38
468.604	5.43
468.956	5.47
469.308	5.49
469.66	5.54
470.012	5.57
470.364	5.61
470.716	5.63
471.068	5.65
471.42	5.69
471.772	5.71
472.123	5.76
472.475	5.77
472.827	5.76
473.178	5.76
473.53	5.76
473.882	5.75
474.233	5.76
474.585	5.77
474.936	5.79
475.288	5.77
475.639	5.78
475.99	5.78
476.342	5.79
476.693	5.8
477.044	5.78
477.395	5.75
477.746	5.72
478.097	5.7
478.448	5.67
478.8	5.63
479.15	5.62
479.501	5.59
479.852	5.59
480.203	5.58
480.554	5.55
480.905	5.53
481.255	5.5
481.606	5.49
481.957	5.49
482.307	5.48
482.658	5.48
483.009	5.47
483.359	5.44
483.709	5.42
484.06	5.42
484.41	5.4
484.761	5.4
485.111	5.38
485.461	5.38
485.811	5.37
486.162	5.38
486.512	5.38
486.862	5.38
487.212	5.37
487.562	5.36
487.912	5.37
488.262	5.36
488.612	5.38
488.961	5.39
489.311	5.37
489.661	5.38
490.011	5.36
490.36	5.37
490.71	5.39
491.06	5.39
491.409	5.39
491.759	5.41
492.108	5.43
492.458	5.45
492.807	5.46
493.157	5.49
493.506	5.5
493.855	5.52
494.204	5.55
494.554	5.59
494.903	5.65
495.252	5.69
495.601	5.76
495.95	5.79
496.299	5.84
496.648	5.93
496.997	5.98
497.346	6.06
497.695	6.14
498.043	6.22
498.392	6.32
498.741	6.4
499.09	6.49
499.438	6.59
499.787	6.69
500.135	6.8
500.484	6.91
500.832	7.01
501.181	7.12
501.529	7.27
501.878	7.39
502.226	7.5
502.574	7.62
502.923	7.75
503.271	7.87
503.619	8.01
503.967	8.14
504.315	8.3
504.663	8.48
505.011	8.67
505.359	8.82
505.707	8.97
506.055	9.16
506.403	9.35
506.751	9.54
507.098	9.7
507.446	9.89
507.794	10.06
508.141	10.29
508.489	10.48
508.837	10.65
509.184	10.87
509.531	11.05
509.879	11.26
510.226	11.46
510.574	11.69
510.921	11.88
511.268	12.08
511.616	12.28
511.963	12.51
512.31	12.7
512.657	12.92
513.004	13.17
513.351	13.38
513.698	13.61
514.045	13.85
514.392	14.14
514.739	14.42
515.086	14.69
515.432	14.93
515.779	15.17
516.126	15.44
516.473	15.71
516.819	15.95
517.166	16.15
517.512	16.35
517.859	16.59
518.205	16.83
518.552	17.04
518.898	17.27
519.245	17.46
519.591	17.65
519.937	17.88
520.283	18.09
520.629	18.31
520.976	18.58
521.322	18.86
521.668	19.09
522.014	19.32
522.36	19.58
522.706	19.86
523.052	20.15
523.398	20.45
523.743	20.72
524.089	21.02
524.435	21.34
524.781	21.64
525.126	21.9
525.472	22.13
525.817	22.38
526.163	22.58
526.509	22.78
526.854	22.97
527.199	23.16
527.545	23.34
527.89	23.53
528.235	23.71
528.581	23.87
528.926	24.06
529.271	24.27
529.616	24.46
529.961	24.66
530.306	24.86
530.651	25.05
530.996	25.29
531.341	25.53
531.686	25.77
532.031	26
532.376	26.23
532.721	26.5
533.065	26.75
533.41	26.99
533.755	27.27
534.099	27.54
534.444	27.81
534.788	28.1
535.133	28.33
535.477	28.59
535.822	28.87
536.166	29.17
536.51	29.45
536.855	29.76
537.199	30.07
537.543	30.42
537.887	30.75
538.231	31.03
538.576	31.31
538.92	31.61
539.264	31.9
539.608	32.19
539.951	32.42
540.295	32.69
540.639	32.97
540.983	33.2
541.327	33.48
541.671	33.69
542.014	33.94
542.358	34.17
542.701	34.39
543.045	34.6
543.389	34.76
543.732	34.98
544.075	35.2
544.419	35.42
544.762	35.65
545.105	35.92
545.449	36.19
545.792	36.5
546.135	36.79
546.478	37.13
546.821	37.46
547.165	37.77
547.508	38.06
547.851	38.34
548.194	38.63
548.536	38.9
548.879	39.17
549.222	39.41
549.565	39.68
549.908	39.98
550.25	40.29
550.593	40.6
550.936	40.89
551.278	41.18
551.621	41.46
551.963	41.7
552.306	41.93
552.648	42.18
552.991	42.38
553.333	42.66
553.675	42.86
554.017	42.99
554.36	43.21
554.702	43.42
555.044	43.63
555.386	43.86
555.728	44.11
556.07	44.35
556.412	44.61
556.754	44.87
557.096	45.08
557.438	45.35
557.78	45.63
558.121	45.89
558.463	46.14
558.805	46.3
559.147	46.55
559.488	46.74
559.83	46.97
560.171	47.14
560.513	47.28
560.854	47.44
561.196	47.65
561.537	47.79
561.878	47.94
562.22	48.11
562.561	48.26
562.902	48.41
563.243	48.6
563.584	48.74
563.925	48.88
564.266	48.98
564.607	49.1
564.948	49.2
565.289	49.35
565.63	49.42
565.971	49.58
566.312	49.7
566.653	49.83
566.993	49.95
567.334	50.14
567.675	50.28
568.015	50.48
568.356	50.64
568.696	50.83
569.037	50.89
569.377	51.01
569.718	51.11
570.058	51.15
570.398	51.27
570.739	51.44
571.079	51.54
571.419	51.68
571.759	51.74
572.099	51.91
572.439	52.02
572.779	52.17
573.119	52.26
573.459	52.37
573.799	52.5
574.139	52.59
574.479	52.68
574.819	52.76
575.158	52.8
575.498	52.85
575.838	52.86
576.177	53.08
576.517	53.12
576.856	53.22
577.196	53.36
577.535	53.41
577.875	53.45
578.214	53.62
578.553	53.69
578.893	53.84
579.232	53.84
579.571	53.91
579.91	53.96
580.25	54.16
580.589	54.22
580.928	54.24
581.267	54.4
581.606	54.43
581.945	54.48
582.283	54.53
582.622	54.69
582.961	54.84
583.3	54.89
583.639	55.07
583.977	55.27
584.316	55.41
584.654	55.55
584.993	55.59
585.332	55.6
585.67	55.75
586.008	55.86
586.347	56
586.685	56.09
587.024	56.17
587.362	56.18
587.7	56.25
588.038	56.29
588.376	56.25
588.715	56.37
589.053	56.53
589.391	56.65
589.729	56.66
590.067	56.74
590.404	56.75
590.742	56.78
591.08	56.7
591.418	56.74
591.756	56.76
592.093	56.82
592.431	56.9
592.769	56.92
593.106	56.91
593.444	56.86
593.781	56.89
594.119	56.9
594.456	57.02
594.793	57.14
595.131	57.22
595.468	57.3
595.805	57.33
596.143	57.36
596.48	57.41
596.817	57.43
597.154	57.46
597.491	57.58
597.828	57.59
598.165	57.68
598.502	57.77
598.839	57.78
599.176	57.76
599.512	57.77
599.849	57.77
600.186	57.87
600.523	57.99
600.859	58.01
601.196	58.06
601.532	58.02
601.869	58.05
602.205	58.04
602.542	58.09
602.878	58.09
603.215	58.14
603.551	58.09
603.887	58.16
604.223	58.15
604.56	58.09
604.896	58.1
605.232	58.17
605.568	58.11
605.904	58.14
606.24	58.17
606.576	58.15
606.912	58.28
607.248	58.24
607.583	58.28
607.919	58.36
608.255	58.43
608.591	58.52
608.926	58.52
609.262	58.57
609.597	58.56
609.933	58.65
610.268	58.64
610.604	58.75
610.939	58.68
611.275	58.81
611.61	58.92
611.945	59
612.281	58.98
612.616	58.99
612.951	59.06
613.286	59.17
613.621	59.26
613.956	59.25
614.291	59.36
614.626	59.4
614.961	59.45
615.296	59.47
615.631	59.45
615.966	59.49
616.3	59.57
616.635	59.65
616.97	59.61
617.304	59.59
617.639	59.6
617.973	59.68
618.308	59.6
618.642	59.64
618.977	59.69
619.311	59.69
619.646	59.8
619.98	59.8
620.314	59.86
620.648	59.93
620.983	59.99
621.317	60.02
621.651	59.97
621.985	60
622.319	59.97
622.653	59.96
622.987	60.01
623.321	60.03
623.655	60.1
623.988	60.15
624.322	60.27
624.656	60.18
624.99	60.26
625.323	60.28
625.657	60.17
625.99	60.19
626.324	60.26
626.657	60.26
626.991	60.28
627.324	60.27
627.658	60.3
627.991	60.27
628.324	60.29
628.657	60.35
628.991	60.34
629.324	60.44
629.657	60.45
629.99	60.45
630.323	60.49
630.656	60.39
630.989	60.45
631.322	60.37
631.655	60.5
631.987	60.42
632.32	60.44
632.653	60.52
632.986	60.54
633.318	60.53
633.651	60.52
633.984	60.59
634.316	60.62
634.649	60.65
634.981	60.62
635.313	60.54
635.646	60.49
635.978	60.58
636.31	60.65
636.643	60.65
636.975	60.66
637.307	60.69
637.639	60.74
637.971	60.75
638.303	60.79
638.635	60.85
638.967	60.93
639.299	61.03
639.631	61.11
639.963	61.18
640.295	61.16
640.626	61.2
640.958	61.17
641.29	61.17
641.621	61.15
641.953	61.15
642.285	61.22
642.616	61.25
642.948	61.14
643.279	61.12
643.61	61.3
643.942	61.33
644.273	61.28
644.604	61.31
644.936	61.26
645.267	61.27
645.598	61.13
645.929	61.1
646.26	61
646.591	60.95
646.922	60.94
647.253	61.05
647.584	61.07
647.915	61.13
648.245	61.21
648.576	61.16
648.907	61.2
649.238	61.15
649.568	61.16
649.899	61.25
650.229	61.24
650.56	61.15
650.89	61.16
651.221	61.16
651.551	61.18
651.882	61.09
652.212	61.16
652.542	61.36
652.872	61.37
653.203	61.47
653.533	61.41
653.863	61.35
654.193	61.26
654.523	61.25
654.853	61.28
655.183	61.24
655.513	61.38
655.843	61.4
656.172	61.46
656.502	61.54
656.832	61.52
657.162	61.47
657.491	61.41
657.821	61.41
658.15	61.4
658.48	61.44
658.809	61.5
659.139	61.48
659.468	61.38
659.798	61.43
660.127	61.49
660.456	61.52
660.785	61.51
661.115	61.61
661.444	61.66
661.773	61.62
662.102	61.69
662.431	61.64
662.76	61.64
663.089	61.75
663.418	61.69
663.747	61.71
664.076	61.76
664.404	61.92
664.733	61.9
665.062	62.02
665.39	62.01
665.719	61.99
666.048	62.09
666.376	62.08
666.705	62.04
667.033	62.04
667.362	62.11
667.69	62.28
668.018	62.17
668.347	62.16
668.675	62.2
669.003	62.02
669.331	62.09
669.659	62.14
669.987	62.17
670.315	62.28
670.643	62.23
670.971	62.29
671.299	62.16
671.627	62.2
671.955	62.02
672.283	62.01
672.61	62.11
672.938	61.95
673.266	62.02
673.593	62.21
673.921	62.09
674.249	62.27
674.576	62.18
674.904	62.24
675.231	62.26
675.558	62.12
675.886	62.12
676.213	62.02
676.54	62.07
676.867	61.99
677.195	61.87
677.522	61.99
677.849	61.83
678.176	61.9
678.503	61.89
678.83	61.98
679.157	62.01
679.484	61.81
679.81	61.89
680.137	61.93
680.464	61.86
680.791	61.94
681.117	61.81
681.444	61.76
681.771	61.82
682.097	61.75
682.424	61.91
682.75	61.9
683.077	61.94
683.403	61.96
683.729	62
684.056	62.09
684.382	61.98
684.708	62.06
685.034	61.93
685.36	61.97
685.686	62.03
686.012	61.99
686.339	62.17
686.664	62.13
686.99	62.07
687.316	62.2
687.642	62.16
687.968	62.15
688.294	62.26
688.619	62.13
688.945	62.1
689.271	61.98
689.596	62.15
689.922	62.28
690.247	62.23
690.573	62.16
690.898	62.12
691.224	62.06
691.549	62.01
691.874	62.21
692.2	62.14
692.525	62.1
692.85	62.49
693.175	62.5
693.5	62.26
693.825	62.29
694.15	62.36
694.475	62.22
694.8	62.29
695.125	62.29
695.45	62.33
695.775	62.44
696.099	62.54
696.424	62.59
696.749	62.5
697.073	62.39
697.398	62.54
697.723	62.53
698.047	62.76
698.372	62.85
698.696	62.82
699.02	62.97
699.345	62.91
699.669	62.59
699.993	62.63
700.318	62.88
700.642	62.88
700.966	62.61
701.29	62.83
701.614	62.91
701.938	62.86
702.262	62.93
702.586	62.97
702.91	63.03
703.234	62.86
703.557	62.77
703.881	62.86
704.205	62.61
704.529	62.6
704.852	62.44
705.176	62.4
705.499	62.4
705.823	62.35
706.146	62.42
706.47	62.48
706.793	62.46
707.117	62.7
707.44	62.69
707.763	62.75
708.086	62.66
708.409	62.39
708.733	62.45
709.056	62.38
709.379	62.37
709.702	62.31
710.025	62.31
710.348	62.26
710.671	62.29
710.993	62.46
711.316	62.33
711.639	62.39
711.962	62.35
712.284	62.46
712.607	62.26
712.93	62.4
713.252	62.38
713.575	62.31
713.897	62.17
714.22	62.07
714.542	62.27
714.864	62.34
715.187	62.47
715.509	62.32
715.831	62.28
716.153	62.44
716.475	62.61
716.798	62.81
717.12	62.86
717.442	63.05
717.764	62.97
718.085	63.25
718.407	63.07
718.729	63.1
719.051	62.95
719.373	63.12
719.695	63.15
720.016	63.2
720.338	63.6
720.659	63.53
720.981	63.72
721.302	63.76
721.624	63.95
721.945	64.02
722.267	64.06
722.588	64.35
722.909	64.21
723.231	63.91
723.552	63.88
723.873	64.23
724.194	64.12
724.515	64.1
724.836	63.98
725.157	64.4
725.478	64.62
725.799	64.79
726.12	64.53
726.441	64.35
726.762	64.1
727.083	63.84
727.403	63.59
727.724	63.83
728.045	63.35
728.365	62.9
728.686	62.75
729.006	63.02
729.327	62.83
729.647	62.79
729.967	63
730.288	62.89
730.608	62.68
730.928	62.65
731.249	62.74
731.569	62.79
731.889	62.62
732.209	62.43
732.529	62.2
732.849	62.36
733.169	62.36
733.489	62.43
733.809	62.4
734.129	62.54
734.448	62.51
734.768	62.74
735.088	63.12
735.408	63.12
735.727	63.2
736.047	63.47
736.366	63.55
736.686	63.42
737.005	63.64
737.325	63.95
737.644	63.61
737.963	63.46
738.283	63.55
738.602	63.56
738.921	63.57
739.24	63.93
739.56	64
739.879	64.05
740.198	64.03
740.517	64.16
740.836	64.45
741.155	64.4
741.473	64.46
741.792	64.14
742.111	64.43
742.43	64.17
742.748	64.12
743.067	64.19
743.386	64.05
743.704	63.89
744.023	63.36
744.341	63.78
744.66	63.96
744.978	63.77
745.297	63.6
745.615	63.89
745.933	64.02
746.252	63.84
746.57	63.78
746.888	63.97
747.206	63.85
747.524	63.34
747.842	62.97
748.16	62.9
748.478	62.88
748.796	62.94
749.114	63.16
749.432	62.76
749.749	62.58
750.067	62.94
750.385	63.34
750.703	63.73
751.02	63.2
751.338	63.12
751.655	63.36
751.973	63.45
752.29	63.19
752.608	62.85
752.925	63.05
753.242	63.43
753.56	63.26
753.877	63.47
754.194	63.95
754.511	63.89
754.828	64.24
755.145	64.77
755.462	64.41
755.779	64.22
756.096	64.54
756.413	64.97
756.73	64.95
757.047	64.58
757.364	64.81
757.68	65.01
757.997	64.59
758.314	64.72
758.63	64.59
758.947	64.74
759.264	64.59
759.58	64.34
759.896	64.11
760.213	64.17
760.529	64.15
760.846	64.04
761.162	64.47
761.478	64.45
761.794	63.99
762.11	64.11
762.426	64.25
762.743	64.31
763.059	64.25
763.375	64.16
763.69	64.3
764.006	63.85
764.322	63.98
764.638	64.75
764.954	64.96
765.27	65.2
765.585	65.44
765.901	65.6
766.216	65.72
766.532	65.96
766.848	66.12
767.163	66.12
767.478	66.35
767.794	65.9
768.109	65.75
768.424	65.87
768.74	65.91
769.055	65.78
769.37	65.76
769.685	65.34
770	65.45
770.315	65.15
770.63	65.53
770.945	65.95
771.26	65.63
771.575	65.54
771.89	65.34
772.205	65.14
772.52	64.87
772.834	64.96
773.149	64.76
773.464	64.78
773.778	64.53
774.093	65.04
774.407	65.6
774.722	65.55
775.036	65.98
775.351	65.91
775.665	65.84
775.979	65.69
776.293	65.62
776.608	65.52
776.922	65.67
777.236	65.59
777.55	64.84
777.864	64.78
778.178	64.21
778.492	64.04
778.806	63.8
779.12	64.08
779.434	63.84
779.747	63.52
780.061	63.77
780.375	63.77
780.689	62.5
781.002	62.6
781.316	62.7
781.629	62.29
781.943	62.34
782.256	62.45
782.57	63
782.883	63.61
783.196	63.63
783.51	63.65
783.823	63.67
784.136	64.32
784.449	63.83
784.762	64.19
785.075	63.92
785.388	64.48
785.701	64.6
786.014	64.55
786.327	64.47
786.64	64.05
786.953	64.81
787.266	64.83
787.578	64.2
787.891	64.55
788.204	64.55
788.516	64.97
788.829	64.95
789.141	65.06
789.454	64.95
789.766	65.17
790.079	64.93
790.391	65.05
790.703	65.02
791.016	65.27
791.328	65.32
791.64	66.25
791.952	65.85
792.264	65.63
792.576	65.84
792.888	66.28
793.2	66.06
793.512	65.26
793.824	65.81
794.136	66.35
794.448	66.06
794.76	66.53
795.071	66.1
795.383	66.1
795.695	65.81
796.006	65.53
796.318	65.01
796.629	66.06
796.941	66.38
797.252	66.42
797.564	66.2
797.875	65.82
798.186	65.52
798.497	65.68
798.809	65.38
799.12	65.49
799.431	65.9
799.742	66.25
800.053	66.76
800.364	66.76
800.675	66.96
800.986	67.05
801.297	66.83
801.608	67.1
801.918	66.93
802.229	66.87
802.54	67.04
802.851	66.84
803.161	66.05
803.472	65.89
803.782	65.68
804.093	66.18
804.403	66.63
804.714	66.09
805.024	64.94
805.334	66.05
805.645	66.28
805.955	66.21
806.265	66.61
806.575	66.24
806.885	65.9
807.195	66.09
807.505	65.36
807.815	65.4
808.125	65.5
808.435	65.28
808.745	65.41
809.055	65.11
809.365	65.78
809.674	65.21
809.984	65.08
810.294	64.99
810.603	64.96
810.913	64.58
811.222	64.64
811.532	65.75
811.841	64.67
812.151	63.79
812.46	63.97
812.769	63.65
813.079	63.19
813.388	63.42
813.697	62.35
814.006	62.65
814.315	61.87
814.624	62.09
814.933	63.03
815.242	62.55
815.551	62.65
815.86	62.8
816.169	63.26
816.478	63.55
816.786	63.68
817.095	63.73
817.404	63.7
817.712	64.18
818.021	64.34
818.33	64.7
818.638	64.77
818.947	64.26
819.255	64.35
819.563	65.07
819.872	65.22
820.18	65.35
820.488	65.4
820.796	65.89
821.105	65.59
821.413	65.34
821.721	65.44
822.029	65.3
822.337	65.4
822.645	65.25
822.953	65.24
823.26	65.02
823.568	64.88
823.876	64.75
824.184	64.69
824.491	64.8
824.799	64.7
825.107	64.88
825.414	64.91
825.722	64.94
826.029	64.86
826.337	65.02
826.644	64.99
826.951	64.87
827.259	64.85
827.566	64.77
827.873	65.06
828.18	64.89
828.488	65.12
828.795	65.03
829.102	65.4
829.409	65.22
829.716	65.27
830.023	65.28
830.329	65.62
830.636	65.84
830.943	65.62
831.25	65.73
831.557	65.54
831.863	65.72
832.17	65.33
832.476	65.08
832.783	65.23
833.089	65.83
833.396	66.32
833.702	66.14
834.009	66.8
834.315	66.35
834.621	67.28
834.928	66.92
835.234	66.38
835.54	66
835.846	66.26
836.152	66.74
836.458	66.84
836.764	66.73
837.07	67.34
837.376	67.33
837.682	67.52
837.988	67.49
838.293	67.78
838.599	68.2
838.905	68.3
839.211	67.54
839.516	67.22
839.822	67.56
840.127	67.04
840.433	66.95
840.738	67.54
841.044	66.89
841.349	68.39
841.654	69.19
841.959	70.56
842.265	70.66
842.57	71.52
842.875	71.76
843.18	72.92
843.485	72.33
843.79	71.37
844.095	71.85
844.4	72.75
844.705	72.92
845.01	73.04
845.315	74.28
845.619	76.12
845.924	76.12
846.229	76.11
846.533	78.04
846.838	78.79
847.142	78.23
847.447	76.11
847.751	75.69
848.056	76.79
848.36	76.65
848.664	76.86
848.969	75.32
849.273	75.45
849.577	72.36
849.881	73.34
850.185	75.69
850.489	77.13
850.794	76.64
851.097	76.01
851.401	77.02
851.705	77.37
852.009	75.09
852.313	75.92
852.617	74.53
852.92	74.29
853.224	73.66
853.528	72.14
853.831	73.21
854.135	73.5
854.438	72.89
854.742	74.85
855.045	74.92
855.349	76.36
855.652	79.17
855.955	83.5
856.259	83.39
856.562	81.66
856.865	78.96
857.168	80.76
857.471	81.56
857.774	83.69
858.077	84.39
858.38	85.61
858.683	84.35
858.986	88.11
859.289	87.75
859.592	86.62
859.894	89.35
860.197	90.22
860.5	89.68
860.802	87
861.105	81.35
861.407	78.67
861.71	77.36
862.012	76.68
862.315	75.61
862.617	72.63
862.919	73.76
863.222	74.38
863.524	72.75
863.826	71.13
864.128	69.64
864.43	68.23
864.732	68.03
865.034	69.13
865.336	66.72
865.638	69.04
865.94	69.55
866.242	68.25
866.544	69.49
866.846	69.22
867.147	71
867.449	71.76
867.751	71.99
868.052	70.88
868.354	68.49
868.655	66.62
868.957	67.63
869.258	67.08
869.56	67.81
869.861	68.42
870.162	68.81
870.463	69.54
870.765	70.42
871.066	69.2
871.367	68.17
871.668	66.77
871.969	64.48
872.27	62.55
872.571	61.88
872.872	58.57
873.173	56.11
873.473	54.73
873.774	55.56
874.075	58.54
874.376	59.2
874.676	59.57
874.977	62.02
875.277	61.28
875.578	63.07
875.878	62.38
876.179	62.19
876.479	61.39
876.78	59.56
877.08	57.58
877.38	58.02
877.68	58.09
877.981	59.99
878.281	59.24
878.581	61.08
