Data from BU26849_Reflection_00003.txt Node
Date: Mon Nov 18 16:43:07 EST 2019
User: vgr7
Spectrometer: USB2G7710
Scans to average: 3
Trigger mode: 4
Integration Time (sec): 2.000000E-2
Electric dark correction enabled: true
Boxcar width: 10
XAxis mode: Wavelengths
Number of Pixels in Spectrum: 2048
>>>>>Begin Spectral Data<<<<<
177.721	46.7
178.105	12.15
178.488	32.55
178.871	33.28
179.254	35.18
179.636	-39.49
180.019	4.3
180.402	38.71
180.785	134.11
181.168	362.14
181.55	254.51
181.933	66.77
182.316	47.01
182.698	42.15
183.081	41.15
183.463	32
183.846	27.89
184.228	45.43
184.611	115.34
184.993	151.92
185.376	215.57
185.758	89.57
186.14	39.58
186.522	123.65
186.904	109.18
187.287	116.68
187.669	187.98
188.051	-1222.83
188.433	-177.87
188.815	8.4
189.197	-22.79
189.579	-33.7
189.961	-57.24
190.342	-50.66
190.724	-26.44
191.106	-25.87
191.488	-22.08
191.869	-16.07
192.251	-18.16
192.633	-1.17
193.014	-23.41
193.396	-58.06
193.777	-57.72
194.159	-58.17
194.54	-42.49
194.922	-38.67
195.303	-7.63
195.684	-21.33
196.065	-0.57
196.447	-5.44
196.828	-25.49
197.209	-23.28
197.59	-20.65
197.971	-15.96
198.352	-18.47
198.733	-8.73
199.114	-10
199.495	-6.17
199.876	-9.22
200.257	-14.75
200.638	-7.88
201.018	-10.13
201.399	1.64
201.78	-2.04
202.16	-0.66
202.541	-10.18
202.922	-4.17
203.302	-18.66
203.683	-19.48
204.063	-13.54
204.444	-16.84
204.824	5.5
205.204	0.53
205.585	3.99
205.965	8.68
206.345	16.48
206.725	0.58
207.106	-25.62
207.486	-48.86
207.866	-62.66
208.246	-60.03
208.626	-82.64
209.006	-66.19
209.386	-57.68
209.766	-51.61
210.145	-40.61
210.525	-25.22
210.905	-24.69
211.285	-11.5
211.664	4.79
212.044	-10.38
212.424	1.96
212.803	-20.4
213.183	-22.8
213.562	-32.62
213.942	-16.38
214.321	-25.16
214.701	-29.5
215.08	-29.59
215.459	-26.44
215.838	-5.16
216.218	-12.25
216.597	-8.81
216.976	-6.1
217.355	-20.36
217.734	-23.84
218.113	-27.44
218.492	-32.62
218.871	-37.67
219.25	-32.61
219.629	-40.12
220.008	-30.55
220.387	-41.44
220.766	-41.87
221.144	-41.1
221.523	-39.09
221.902	-45.85
222.28	-52.75
222.659	-38.72
223.037	-28.75
223.416	-32.61
223.794	-34.22
224.173	-27.16
224.551	-19.85
224.929	-19.37
225.308	-9.67
225.686	-5.67
226.064	-4.68
226.442	-3.85
226.821	-1.26
227.199	-0.42
227.577	2.69
227.955	-3.52
228.333	-0.88
228.711	2.69
229.089	6.47
229.467	7.7
229.845	5.05
230.222	6.63
230.6	5.69
230.978	3.66
231.356	5.8
231.733	6.21
232.111	5.62
232.488	4.15
232.866	3.42
233.243	0.89
233.621	0.35
233.998	2.76
234.376	3.34
234.753	4.9
235.13	4.65
235.508	4.28
235.885	5.11
236.262	3.36
236.639	2.91
237.016	1.64
237.393	2.15
237.77	3.07
238.147	2.28
238.524	2.91
238.901	3.97
239.278	5.02
239.655	5.46
240.032	4.72
240.409	4.4
240.785	4.17
241.162	4.58
241.539	4.8
241.915	4.68
242.292	4.34
242.668	4.01
243.045	3.57
243.421	3.48
243.798	3.4
244.174	3.33
244.551	3.61
244.927	3.64
245.303	3.72
245.679	4.12
246.056	4.02
246.432	3.85
246.808	3.77
247.184	3.42
247.56	3.21
247.936	3.32
248.312	3.6
248.688	3.76
249.064	3.61
249.44	3.44
249.815	3.15
250.191	3.38
250.567	3.34
250.943	3.43
251.318	3.33
251.694	3.48
252.069	3.77
252.445	3.76
252.82	3.53
253.196	3.06
253.571	2.91
253.947	3.1
254.322	3.03
254.697	3.07
255.073	2.87
255.448	2.68
255.823	2.79
256.198	2.74
256.573	2.6
256.948	2.7
257.323	2.72
257.698	2.81
258.073	2.72
258.448	2.56
258.823	2.43
259.198	2.42
259.573	2.39
259.948	2.38
260.322	2.37
260.697	2.43
261.072	2.52
261.446	2.38
261.821	2.33
262.195	2.52
262.57	2.51
262.944	2.55
263.319	2.5
263.693	2.39
264.067	2.27
264.442	2.15
264.816	2.06
265.19	1.92
265.564	1.87
265.938	1.76
266.313	1.9
266.687	2.14
267.061	2.23
267.435	2.39
267.809	2.28
268.183	2.32
268.556	2.53
268.93	2.64
269.304	2.78
269.678	2.92
270.051	2.84
270.425	2.86
270.799	3.01
271.172	3.12
271.546	3.35
271.919	3.37
272.293	3.45
272.666	3.6
273.04	3.68
273.413	3.67
273.787	3.56
274.16	3.45
274.533	3.44
274.906	3.4
275.279	3.37
275.653	3.44
276.026	3.32
276.399	3.23
276.772	3.26
277.145	3.22
277.518	3
277.891	3
278.263	2.94
278.636	2.93
279.009	3
279.382	2.96
279.755	2.88
280.127	2.97
280.5	2.86
280.872	2.94
281.245	2.92
281.617	3.16
281.99	3.35
282.362	3.43
282.735	3.36
283.107	3.28
283.479	3.34
283.852	3.31
284.224	3.19
284.596	3.22
284.968	3.17
285.34	3.28
285.713	3.28
286.085	3.29
286.457	3.33
286.829	3.42
287.201	3.38
287.572	3.34
287.944	3.24
288.316	3.34
288.688	3.26
289.06	3.24
289.431	3.09
289.803	3.05
290.175	2.97
290.546	3.18
290.918	3.11
291.289	3
291.661	3.14
292.032	3.42
292.403	3.31
292.775	3.45
293.146	3.44
293.517	3.47
293.889	3.59
294.26	3.7
294.631	3.57
295.002	3.49
295.373	3.62
295.744	3.67
296.115	3.63
296.486	3.59
296.857	3.69
297.228	3.86
297.599	3.86
297.97	3.85
298.34	3.72
298.711	3.7
299.082	3.75
299.452	3.83
299.823	3.84
300.194	3.89
300.564	3.79
300.935	3.86
301.305	3.79
301.676	3.69
302.046	3.58
302.416	3.72
302.787	3.79
303.157	3.73
303.527	3.79
303.897	3.72
304.267	3.97
304.637	4.09
305.008	3.97
305.378	3.9
305.748	3.96
306.117	4.03
306.487	4.1
306.857	4.22
307.227	4.11
307.597	3.84
307.967	3.85
308.336	3.94
308.706	3.89
309.076	3.92
309.445	3.88
309.815	3.77
310.184	3.63
310.554	3.66
310.923	3.59
311.293	3.53
311.662	3.6
312.031	3.46
312.401	3.29
312.77	3.38
313.139	3.44
313.508	3.39
313.877	3.4
314.246	3.37
314.616	3.2
314.985	3.16
315.353	3.16
315.722	3.14
316.091	3.01
316.46	2.88
316.829	2.91
317.198	2.97
317.567	3.11
317.935	3.06
318.304	3.03
318.672	3.22
319.041	3.25
319.41	3.18
319.778	3.22
320.147	3.25
320.515	3.05
320.883	3
321.252	3.19
321.62	3.1
321.988	3.14
322.357	3.26
322.725	3.34
323.093	3.68
323.461	3.75
323.829	3.98
324.197	4.02
324.565	3.95
324.933	3.98
325.301	3.92
325.669	3.95
326.037	3.97
326.405	3.98
326.772	4.13
327.14	4.26
327.508	4.1
327.875	4.1
328.243	4.2
328.61	4.2
328.978	4.16
329.346	4.28
329.713	4.23
330.08	4.24
330.448	4.22
330.815	3.87
331.182	3.77
331.55	3.46
331.917	3.55
332.284	3.67
332.651	3.68
333.018	3.73
333.385	3.64
333.752	3.62
334.119	3.62
334.486	3.56
334.853	3.59
335.22	3.68
335.587	3.71
335.954	3.64
336.32	3.63
336.687	3.63
337.054	3.52
337.42	3.63
337.787	3.66
338.153	3.67
338.52	3.86
338.886	3.87
339.253	3.9
339.619	3.87
339.986	3.85
340.352	3.86
340.718	3.85
341.084	3.97
341.451	4.09
341.817	4.12
342.183	4.14
342.549	4.04
342.915	4.08
343.281	4.09
343.647	4.15
344.013	4.15
344.379	4.11
344.745	4.11
345.11	4.12
345.476	4.02
345.842	3.92
346.208	3.86
346.573	3.98
346.939	4.05
347.304	4.03
347.67	3.98
348.035	3.92
348.401	4
348.766	3.96
349.132	3.82
349.497	3.83
349.862	3.76
350.228	3.82
350.593	3.83
350.958	3.85
351.323	3.88
351.688	3.9
352.053	3.88
352.418	3.92
352.783	4.01
353.148	4.08
353.513	4.08
353.878	4.12
354.243	4.03
354.608	4
354.972	4.09
355.337	4.13
355.702	4.25
356.066	4.24
356.431	4.26
356.795	4.27
357.16	4.12
357.524	4.06
357.889	4.02
358.253	4.07
358.618	4.11
358.982	4.12
359.346	4
359.71	4.03
360.075	3.96
360.439	3.88
360.803	3.84
361.167	3.83
361.531	3.81
361.895	3.79
362.259	3.81
362.623	3.77
362.987	3.75
363.351	3.7
363.714	3.61
364.078	3.58
364.442	3.59
364.806	3.63
365.169	3.64
365.533	3.66
365.896	3.6
366.26	3.49
366.623	3.5
366.987	3.61
367.35	3.6
367.714	3.65
368.077	3.65
368.44	3.59
368.803	3.64
369.167	3.69
369.53	3.7
369.893	3.73
370.256	3.73
370.619	3.76
370.982	3.71
371.345	3.73
371.708	3.78
372.071	3.73
372.434	3.74
372.797	3.84
373.159	3.81
373.522	3.84
373.885	3.92
374.247	3.88
374.61	3.87
374.973	3.85
375.335	3.87
375.698	3.84
376.06	3.87
376.423	3.87
376.785	3.87
377.147	3.95
377.51	3.92
377.872	3.95
378.234	3.92
378.596	3.94
378.958	3.94
379.321	3.93
379.683	3.99
380.045	4
380.407	3.99
380.769	4.01
381.13	3.93
381.492	3.88
381.854	3.87
382.216	3.88
382.578	3.92
382.939	3.91
383.301	3.97
383.663	4.03
384.024	4
384.386	4.01
384.747	3.97
385.109	3.95
385.47	3.89
385.832	3.87
386.193	3.91
386.554	3.92
386.916	3.89
387.277	3.89
387.638	3.9
387.999	3.87
388.36	3.87
388.721	3.9
389.082	3.91
389.443	3.94
389.804	3.93
390.165	3.89
390.526	3.88
390.887	3.89
391.248	3.89
391.609	3.87
391.969	3.83
392.33	3.8
392.691	3.83
393.051	3.83
393.412	3.86
393.772	3.82
394.133	3.85
394.493	3.88
394.854	3.89
395.214	3.87
395.574	3.88
395.935	3.86
396.295	3.87
396.655	3.91
397.015	3.87
397.376	3.88
397.736	3.9
398.096	3.94
398.456	3.9
398.816	3.86
399.176	3.91
399.535	3.9
399.895	3.94
400.255	3.95
400.615	3.99
400.975	3.98
401.334	3.99
401.694	4
402.054	3.99
402.413	3.98
402.773	3.97
403.132	3.96
403.492	3.96
403.851	3.97
404.211	3.95
404.57	3.99
404.929	4.01
405.288	4
405.648	3.98
406.007	3.95
406.366	3.96
406.725	3.96
407.084	3.99
407.443	3.98
407.802	3.98
408.161	3.94
408.52	3.9
408.879	3.92
409.238	3.89
409.596	3.89
409.955	3.89
410.314	3.91
410.673	3.91
411.031	3.93
411.39	3.95
411.748	3.98
412.107	3.93
412.465	3.9
412.824	3.93
413.182	3.91
413.54	3.98
413.899	3.97
414.257	3.96
414.615	3.98
414.974	3.98
415.332	3.93
415.69	3.96
416.048	3.96
416.406	3.96
416.764	3.95
417.122	3.96
417.48	3.95
417.838	3.96
418.195	3.95
418.553	3.96
418.911	3.93
419.269	3.93
419.626	3.95
419.984	3.95
420.342	3.95
420.699	3.95
421.057	3.93
421.414	3.94
421.772	3.93
422.129	3.92
422.486	3.93
422.844	3.95
423.201	3.94
423.558	3.95
423.915	3.96
424.273	3.97
424.63	3.95
424.987	3.96
425.344	3.96
425.701	3.96
426.058	3.97
426.415	3.99
426.772	3.98
427.128	3.98
427.485	3.98
427.842	3.97
428.199	3.97
428.555	3.98
428.912	3.97
429.269	3.98
429.625	3.99
429.982	3.98
430.338	3.96
430.695	3.95
431.051	3.96
431.407	3.96
431.764	3.95
432.12	3.95
432.476	3.96
432.832	3.94
433.189	3.95
433.545	3.93
433.901	3.92
434.257	3.91
434.613	3.92
434.969	3.92
435.325	3.93
435.681	3.92
436.036	3.92
436.392	3.93
436.748	3.92
437.104	3.89
437.459	3.88
437.815	3.91
438.171	3.92
438.526	3.93
438.882	3.92
439.237	3.94
439.593	3.97
439.948	3.94
440.304	3.95
440.659	3.95
441.014	3.95
441.369	3.94
441.725	3.95
442.08	3.94
442.435	3.93
442.79	3.93
443.145	3.92
443.5	3.91
443.855	3.91
444.21	3.91
444.565	3.93
444.92	3.93
445.275	3.91
445.629	3.93
445.984	3.94
446.339	3.93
446.693	3.92
447.048	3.9
447.403	3.92
447.757	3.92
448.112	3.9
448.466	3.89
448.82	3.89
449.175	3.91
449.529	3.91
449.883	3.9
450.238	3.89
450.592	3.9
450.946	3.89
451.3	3.9
451.654	3.91
452.008	3.92
452.362	3.9
452.716	3.89
453.07	3.89
453.424	3.88
453.778	3.88
454.132	3.87
454.486	3.84
454.839	3.84
455.193	3.81
455.547	3.83
455.9	3.84
456.254	3.85
456.607	3.84
456.961	3.86
457.314	3.86
457.668	3.89
458.021	3.88
458.375	3.91
458.728	3.9
459.081	3.91
459.434	3.9
459.787	3.94
460.141	3.94
460.494	3.92
460.847	3.92
461.2	3.9
461.553	3.9
461.906	3.93
462.259	3.93
462.611	3.96
462.964	3.95
463.317	3.94
463.67	3.95
464.022	3.94
464.375	3.92
464.728	3.92
465.08	3.91
465.433	3.91
465.785	3.87
466.138	3.87
466.49	3.83
466.843	3.82
467.195	3.8
467.547	3.82
467.899	3.82
468.252	3.83
468.604	3.85
468.956	3.85
469.308	3.87
469.66	3.88
470.012	3.87
470.364	3.9
470.716	3.91
471.068	3.9
471.42	3.91
471.772	3.93
472.123	3.95
472.475	3.96
472.827	3.99
473.178	4
473.53	4
473.882	4.02
474.233	4.04
474.585	4.06
474.936	4.05
475.288	4.04
475.639	4.04
475.99	4.05
476.342	4.05
476.693	4.02
477.044	4.01
477.395	4.01
477.746	4.02
478.097	4.01
478.448	4.01
478.8	4.01
479.15	4
479.501	4.02
479.852	4
480.203	4
480.554	4.02
480.905	4.04
481.255	4.06
481.606	4.07
481.957	4.08
482.307	4.09
482.658	4.1
483.009	4.09
483.359	4.1
483.709	4.1
484.06	4.12
484.41	4.13
484.761	4.13
485.111	4.12
485.461	4.13
485.811	4.13
486.162	4.14
486.512	4.15
486.862	4.15
487.212	4.16
487.562	4.17
487.912	4.17
488.262	4.17
488.612	4.16
488.961	4.16
489.311	4.16
489.661	4.16
490.011	4.16
490.36	4.16
490.71	4.17
491.06	4.17
491.409	4.16
491.759	4.17
492.108	4.17
492.458	4.17
492.807	4.17
493.157	4.18
493.506	4.18
493.855	4.19
494.204	4.18
494.554	4.17
494.903	4.17
495.252	4.16
495.601	4.16
495.95	4.18
496.299	4.18
496.648	4.18
496.997	4.19
497.346	4.19
497.695	4.2
498.043	4.2
498.392	4.19
498.741	4.21
499.09	4.21
499.438	4.24
499.787	4.24
500.135	4.26
500.484	4.27
500.832	4.27
501.181	4.26
501.529	4.28
501.878	4.27
502.226	4.28
502.574	4.28
502.923	4.28
503.271	4.28
503.619	4.3
503.967	4.29
504.315	4.3
504.663	4.32
505.011	4.32
505.359	4.34
505.707	4.34
506.055	4.33
506.403	4.34
506.751	4.32
507.098	4.32
507.446	4.32
507.794	4.31
508.141	4.31
508.489	4.31
508.837	4.33
509.184	4.36
509.531	4.36
509.879	4.4
510.226	4.42
510.574	4.42
510.921	4.42
511.268	4.43
511.616	4.44
511.963	4.44
512.31	4.47
512.657	4.47
513.004	4.49
513.351	4.5
513.698	4.5
514.045	4.5
514.392	4.51
514.739	4.51
515.086	4.53
515.432	4.55
515.779	4.57
516.126	4.57
516.473	4.58
516.819	4.58
517.166	4.58
517.512	4.59
517.859	4.59
518.205	4.59
518.552	4.6
518.898	4.59
519.245	4.6
519.591	4.59
519.937	4.55
520.283	4.56
520.629	4.57
520.976	4.59
521.322	4.61
521.668	4.62
522.014	4.63
522.36	4.63
522.706	4.63
523.052	4.63
523.398	4.64
523.743	4.64
524.089	4.63
524.435	4.6
524.781	4.59
525.126	4.6
525.472	4.6
525.817	4.6
526.163	4.61
526.509	4.61
526.854	4.61
527.199	4.62
527.545	4.63
527.89	4.63
528.235	4.63
528.581	4.63
528.926	4.63
529.271	4.64
529.616	4.64
529.961	4.63
530.306	4.64
530.651	4.63
530.996	4.63
531.341	4.64
531.686	4.66
532.031	4.68
532.376	4.68
532.721	4.69
533.065	4.69
533.41	4.69
533.755	4.69
534.099	4.7
534.444	4.71
534.788	4.72
535.133	4.72
535.477	4.73
535.822	4.73
536.166	4.72
536.51	4.73
536.855	4.72
537.199	4.73
537.543	4.75
537.887	4.75
538.231	4.74
538.576	4.74
538.92	4.74
539.264	4.73
539.608	4.71
539.951	4.71
540.295	4.7
540.639	4.7
540.983	4.71
541.327	4.69
541.671	4.68
542.014	4.7
542.358	4.7
542.701	4.69
543.045	4.7
543.389	4.7
543.732	4.72
544.075	4.75
544.419	4.75
544.762	4.74
545.105	4.75
545.449	4.76
545.792	4.76
546.135	4.76
546.478	4.78
546.821	4.79
547.165	4.8
547.508	4.81
547.851	4.82
548.194	4.81
548.536	4.84
548.879	4.88
549.222	4.86
549.565	4.86
549.908	4.85
550.25	4.85
550.593	4.85
550.936	4.81
551.278	4.8
551.621	4.8
551.963	4.82
552.306	4.8
552.648	4.8
552.991	4.84
553.333	4.86
553.675	4.84
554.017	4.86
554.36	4.85
554.702	4.88
555.044	4.88
555.386	4.93
555.728	4.9
556.07	4.89
556.412	4.86
556.754	4.85
557.096	4.87
557.438	4.87
557.78	4.89
558.121	4.9
558.463	4.89
558.805	4.89
559.147	4.86
559.488	4.87
559.83	4.88
560.171	4.87
560.513	4.89
560.854	4.9
561.196	4.89
561.537	4.92
561.878	4.91
562.22	4.91
562.561	4.84
562.902	4.89
563.243	4.87
563.584	4.9
563.925	4.92
564.266	4.94
564.607	4.95
564.948	4.97
565.289	4.97
565.63	4.97
565.971	4.98
566.312	4.98
566.653	4.97
566.993	4.97
567.334	4.96
567.675	4.96
568.015	4.97
568.356	4.97
568.696	4.96
569.037	4.95
569.377	4.96
569.718	5
570.058	4.99
570.398	4.99
570.739	5
571.079	4.99
571.419	4.98
571.759	4.99
572.099	4.99
572.439	4.97
572.779	4.97
573.119	5
573.459	5.03
573.799	5.03
574.139	5.04
574.479	5.02
574.819	5.02
575.158	5
575.498	5
575.838	4.99
576.177	4.96
576.517	4.96
576.856	4.95
577.196	4.93
577.535	4.92
577.875	4.91
578.214	4.94
578.553	4.95
578.893	4.92
579.232	4.91
579.571	4.95
579.91	4.95
580.25	4.93
580.589	4.92
580.928	4.96
581.267	4.95
581.606	4.94
581.945	4.93
582.283	4.95
582.622	4.95
582.961	4.98
583.3	5.06
583.639	5.08
583.977	5.14
584.316	5.19
584.654	5.18
584.993	5.18
585.332	5.18
585.67	5.17
586.008	5.17
586.347	5.15
586.685	5.12
587.024	5.14
587.362	5.12
587.7	5.12
588.038	5.12
588.376	5.11
588.715	5.17
589.053	5.2
589.391	5.19
589.729	5.27
590.067	5.24
590.404	5.2
590.742	5.21
591.08	5.12
591.418	5.1
591.756	5.18
592.093	5.22
592.431	5.19
592.769	5.21
593.106	5.24
593.444	5.23
593.781	5.23
594.119	5.24
594.456	5.21
594.793	5.2
595.131	5.18
595.468	5.21
595.805	5.18
596.143	5.16
596.48	5.16
596.817	5.1
597.154	5.13
597.491	5.15
597.828	5.13
598.165	5.18
598.502	5.17
598.839	5.11
599.176	5.1
599.512	5.11
599.849	5.06
600.186	5.05
600.523	5.1
600.859	5.11
601.196	5.1
601.532	5.13
601.869	5.12
602.205	5.11
602.542	5.1
602.878	5.13
603.215	5.12
603.551	5.16
603.887	5.16
604.223	5.15
604.56	5.17
604.896	5.18
605.232	5.19
605.568	5.2
605.904	5.22
606.24	5.25
606.576	5.26
606.912	5.3
607.248	5.3
607.583	5.3
607.919	5.3
608.255	5.28
608.591	5.3
608.926	5.33
609.262	5.41
609.597	5.45
609.933	5.42
610.268	5.43
610.604	5.44
610.939	5.46
611.275	5.47
611.61	5.47
611.945	5.47
612.281	5.51
612.616	5.51
612.951	5.52
613.286	5.55
613.621	5.52
613.956	5.53
614.291	5.56
614.626	5.54
614.961	5.55
615.296	5.58
615.631	5.58
615.966	5.57
616.3	5.51
616.635	5.5
616.97	5.53
617.304	5.55
617.639	5.52
617.973	5.49
618.308	5.54
618.642	5.51
618.977	5.49
619.311	5.43
619.646	5.49
619.98	5.52
620.314	5.47
620.648	5.48
620.983	5.45
621.317	5.48
621.651	5.54
621.985	5.56
622.319	5.62
622.653	5.62
622.987	5.64
623.321	5.64
623.655	5.62
623.988	5.65
624.322	5.65
624.656	5.69
624.99	5.71
625.323	5.7
625.657	5.73
625.99	5.77
626.324	5.77
626.657	5.77
626.991	5.74
627.324	5.73
627.658	5.74
627.991	5.77
628.324	5.74
628.657	5.69
628.991	5.66
629.324	5.65
629.657	5.66
629.99	5.63
630.323	5.66
630.656	5.69
630.989	5.74
631.322	5.8
631.655	5.77
631.987	5.8
632.32	5.77
632.653	5.76
632.986	5.77
633.318	5.8
633.651	5.76
633.984	5.76
634.316	5.78
634.649	5.74
634.981	5.74
635.313	5.8
635.646	5.83
635.978	5.86
636.31	5.83
636.643	5.85
636.975	5.88
637.307	5.86
637.639	5.83
637.971	5.74
638.303	5.69
638.635	5.73
638.967	5.71
639.299	5.74
639.631	5.74
639.963	5.71
640.295	5.74
640.626	5.81
640.958	5.86
641.29	5.87
641.621	5.95
641.953	5.89
642.285	5.86
642.616	5.88
642.948	5.82
643.279	5.84
643.61	5.8
643.942	5.78
644.273	5.75
644.604	5.77
644.936	5.79
645.267	5.79
645.598	5.82
645.929	5.83
646.26	5.78
646.591	5.79
646.922	5.78
647.253	5.71
647.584	5.61
647.915	5.5
648.245	5.53
648.576	5.49
648.907	5.56
649.238	5.5
649.568	5.5
649.899	5.53
650.229	5.5
650.56	5.51
650.89	5.53
651.221	5.54
651.551	5.53
651.882	5.53
652.212	5.57
652.542	5.51
652.872	5.5
653.203	5.52
653.533	5.51
653.863	5.55
654.193	5.57
654.523	5.62
654.853	5.69
655.183	5.7
655.513	5.69
655.843	5.66
656.172	5.69
656.502	5.72
656.832	5.74
657.162	5.88
657.491	5.88
657.821	5.87
658.15	5.92
658.48	5.95
658.809	5.97
659.139	5.9
659.468	5.9
659.798	5.9
660.127	5.89
660.456	5.94
660.785	5.96
661.115	5.96
661.444	5.97
661.773	5.98
662.102	5.99
662.431	6.1
662.76	6.14
663.089	6.15
663.418	6.13
663.747	6.12
664.076	6.08
664.404	6.03
664.733	6.03
665.062	6.01
665.39	5.94
665.719	5.94
666.048	6.04
666.376	6.08
666.705	6.07
667.033	6.09
667.362	6.12
667.69	6.06
668.018	6.11
668.347	6.11
668.675	6.16
669.003	6.12
669.331	6.12
669.659	6.16
669.987	6.13
670.315	6.13
670.643	6.1
670.971	6.07
671.299	6.12
671.627	6.14
671.955	6.13
672.283	6.24
672.61	6.21
672.938	6.14
673.266	6.16
673.593	6.25
673.921	6.28
674.249	6.19
674.576	6.22
674.904	6.19
675.231	6.13
675.558	6.1
675.886	6.09
676.213	5.97
676.54	5.89
676.867	5.91
677.195	5.84
677.522	5.89
677.849	5.88
678.176	5.88
678.503	5.94
678.83	5.99
679.157	5.96
679.484	6.04
679.81	6.06
680.137	5.98
680.464	5.89
680.791	5.86
681.117	5.94
681.444	5.96
681.771	5.96
682.097	6.04
682.424	6.03
682.75	6.08
683.077	6.12
683.403	6.19
683.729	6.22
684.056	6.31
684.382	6.35
684.708	6.35
685.034	6.4
685.36	6.41
685.686	6.39
686.012	6.32
686.339	6.3
686.664	6.31
686.99	6.41
687.316	6.46
687.642	6.49
687.968	6.42
688.294	6.43
688.619	6.52
688.945	6.47
689.271	6.49
689.596	6.38
689.922	6.43
690.247	6.42
690.573	6.52
690.898	6.55
691.224	6.54
691.549	6.6
691.874	6.55
692.2	6.46
692.525	6.49
692.85	6.53
693.175	6.58
693.5	6.5
693.825	6.55
694.15	6.5
694.475	6.5
694.8	6.62
695.125	6.61
695.45	6.49
695.775	6.52
696.099	6.61
696.424	6.69
696.749	6.59
697.073	6.62
697.398	6.59
697.723	6.61
698.047	6.59
698.372	6.51
698.696	6.6
699.02	6.65
699.345	6.57
699.669	6.67
699.993	6.56
700.318	6.6
700.642	6.58
700.966	6.61
701.29	6.66
701.614	6.59
701.938	6.6
702.262	6.76
702.586	6.93
702.91	6.85
703.234	6.85
703.557	7.07
703.881	7.13
704.205	7.08
704.529	7.05
704.852	7.06
705.176	7.13
705.499	7.12
705.823	7.11
706.146	7.14
706.47	7.22
706.793	7.26
707.117	7.29
707.44	7.23
707.763	7.26
708.086	7.23
708.409	7.26
708.733	7.29
709.056	7.22
709.379	7.09
709.702	7
710.025	7.07
710.348	6.93
710.671	6.77
710.993	6.86
711.316	6.86
711.639	6.98
711.962	6.89
712.284	6.79
712.607	6.85
712.93	6.98
713.252	6.77
713.575	6.8
713.897	6.74
714.22	6.77
714.542	6.74
714.864	6.77
715.187	6.84
715.509	6.88
715.831	6.94
716.153	6.9
716.475	7.04
716.798	7.1
717.12	7.13
717.442	7.19
717.764	7.05
718.085	7.06
718.407	6.92
718.729	7.02
719.051	7.08
719.373	7
719.695	6.95
720.016	7.09
720.338	7.12
720.659	7.21
720.981	7.22
721.302	7.27
721.624	7.23
721.945	7.16
722.267	7.13
722.588	7.12
722.909	7.07
723.231	7.01
723.552	6.85
723.873	6.88
724.194	6.94
724.515	7.03
724.836	6.89
725.157	6.95
725.478	6.79
725.799	6.96
726.12	6.84
726.441	6.83
726.762	6.68
727.083	6.68
727.403	6.64
727.724	6.7
728.045	6.75
728.365	6.77
728.686	6.7
729.006	6.74
729.327	6.56
729.647	6.63
729.967	6.55
730.288	6.67
730.608	6.61
730.928	6.58
731.249	6.62
731.569	6.91
731.889	6.92
732.209	7.25
732.529	7.09
732.849	7.19
733.169	7.23
733.489	7.53
733.809	7.68
734.129	7.78
734.448	7.74
734.768	7.75
735.088	7.83
735.408	7.81
735.727	7.92
736.047	8.02
736.366	8
736.686	8.11
737.005	8.23
737.325	8.15
737.644	8.23
737.963	8.2
738.283	7.97
738.602	7.95
738.921	7.79
739.24	7.92
739.56	7.86
739.879	7.87
740.198	7.77
740.517	7.71
740.836	7.73
741.155	7.62
741.473	7.77
741.792	7.66
742.111	7.7
742.43	7.57
742.748	7.56
743.067	7.38
743.386	7.53
743.704	7.28
744.023	7.3
744.341	7.21
744.66	7.26
744.978	7.4
745.297	7.36
745.615	7.36
745.933	7.17
746.252	7.34
746.57	7.17
746.888	7.06
747.206	6.93
747.524	6.92
747.842	7.29
748.16	7.22
748.478	7.3
748.796	7.49
749.114	7.57
749.432	7.73
749.749	8.15
750.067	7.87
750.385	7.84
750.703	7.85
751.02	7.79
751.338	7.82
751.655	7.91
751.973	8.18
752.29	8.26
752.608	8.33
752.925	8.43
753.242	8.46
753.56	8.37
753.877	8.6
754.194	8.61
754.511	8.56
754.828	8.52
755.145	8.48
755.462	8.55
755.779	8.21
756.096	8.17
756.413	8.07
756.73	8.48
757.047	8.74
757.364	8.79
757.68	8.9
757.997	8.75
758.314	8.78
758.63	8.67
758.947	8.49
759.264	8.55
759.58	8.32
759.896	8.65
760.213	8.93
760.529	8.82
760.846	8.94
761.162	8.95
761.478	9.05
761.794	8.95
762.11	8.83
762.426	9.1
762.743	8.91
763.059	8.73
763.375	8.58
763.69	8.63
764.006	8.78
764.322	8.88
764.638	9.14
764.954	9.15
765.27	9.14
765.585	9.11
765.901	9.06
766.216	9.19
766.532	8.9
766.848	8.64
767.163	8.5
767.478	8.31
767.794	8.2
768.109	7.86
768.424	7.97
768.74	8.18
769.055	8.08
769.37	8.4
769.685	8.52
770	8.49
770.315	8.29
770.63	8.26
770.945	7.87
771.26	7.44
771.575	7.33
771.89	7.49
772.205	7.94
772.52	7.89
772.834	7.8
773.149	8.16
773.464	8.28
773.778	8.75
774.093	8.69
774.407	8.63
774.722	9.15
775.036	9.33
775.351	9
775.665	9.06
775.979	8.91
776.293	9.05
776.608	9.42
776.922	9.39
777.236	9.55
777.55	9.76
777.864	9.92
778.178	10.4
778.492	10.31
778.806	9.93
779.12	10.35
779.434	10.72
779.747	10.72
780.061	10.89
780.375	10.65
780.689	11.01
781.002	11.3
781.316	10.92
781.629	10.79
781.943	10.93
782.256	10.9
782.57	10.87
782.883	11.17
783.196	10.66
783.51	10.85
783.823	10.9
784.136	11.21
784.449	11.5
784.762	10.64
785.075	10.58
785.388	11.07
785.701	10.51
786.014	10.37
786.327	10.13
786.64	10.25
786.953	10.45
787.266	10.37
787.578	10.01
787.891	10.23
788.204	10.03
788.516	10.1
788.829	10.28
789.141	10.56
789.454	10.29
789.766	10.73
790.079	10.64
790.391	10.37
790.703	10.29
791.016	10.29
791.328	10.7
791.64	10.68
791.952	10.63
792.264	10.39
792.576	10.22
792.888	10.4
793.2	10.3
793.512	10.05
793.824	9.98
794.136	10.3
794.448	10.49
794.76	10.59
795.071	10.34
795.383	10.08
795.695	9.18
796.006	9.4
796.318	9.36
796.629	9.41
796.941	9.34
797.252	9.66
797.564	9.67
797.875	9.47
798.186	9.49
798.497	9.49
798.809	9.96
799.12	10.2
799.431	10.38
799.742	10.87
800.053	10.77
800.364	10.99
800.675	10.75
800.986	10.68
801.297	10.91
801.608	11.06
801.918	11.43
802.229	12.02
802.54	11.71
802.851	11.3
803.161	11.73
803.472	11.97
803.782	12.11
804.093	12.1
804.403	12.21
804.714	12.55
805.024	12.08
805.334	12.6
805.645	12.27
805.955	12.28
806.265	11.71
806.575	12.23
806.885	11.93
807.195	12.41
807.505	12.61
807.815	12.98
808.125	13.26
808.435	13.47
808.745	13.22
809.055	13.46
809.365	13.87
809.674	13.32
809.984	13.38
810.294	12.88
810.603	13.79
810.913	14.04
811.222	13.79
811.532	14.29
811.841	14.14
812.151	15.26
812.46	15
812.769	14.6
813.079	14.51
813.388	14.43
813.697	13.9
814.006	13.17
814.315	12.78
814.624	12.56
814.933	12.83
815.242	13.1
815.551	13.22
815.86	13.32
816.169	13.08
816.478	12.85
816.786	12.78
817.095	11.63
817.404	11.64
817.712	11.97
818.021	11.66
818.33	11.48
818.638	10.68
818.947	10.73
819.255	10.93
819.563	10.67
819.872	10.78
820.18	11.04
820.488	11.21
820.796	11.29
821.105	11.46
821.413	11.35
821.721	11.33
822.029	11.25
822.337	11.15
822.645	11.34
822.953	11.28
823.26	11.38
823.568	11.38
823.876	11.53
824.184	11.41
824.491	11.49
824.799	11.52
825.107	11.47
825.414	11.53
825.722	11.7
826.029	11.98
826.337	12.3
826.644	12.3
826.951	12.42
827.259	12.33
827.566	12.26
827.873	12.24
828.18	12.39
828.488	12.61
828.795	12.7
829.102	13.01
829.409	13.33
829.716	13.19
830.023	13.29
830.329	12.86
830.636	13.09
830.943	13.09
831.25	13.02
831.557	13.2
831.863	13.19
832.17	12.86
832.476	12.47
832.783	11.92
833.089	11.79
833.396	11.93
833.702	12.35
834.009	12.31
834.315	12.14
834.621	11.65
834.928	11.8
835.234	12.06
835.54	11.57
835.846	11.25
836.152	11.28
836.458	11.26
836.764	11.32
837.07	11.08
837.376	11.13
837.682	11.3
837.988	11.17
838.293	11.23
838.599	11.27
838.905	10.97
839.211	10.89
839.516	11.37
839.822	10.87
840.127	10.3
840.433	10.12
840.738	10.27
841.044	10.94
841.349	10.07
841.654	9.97
841.959	10
842.265	9.88
842.57	10.3
842.875	10.96
843.18	11.85
843.485	12.47
843.79	11.75
844.095	11.89
844.4	12.51
844.705	11.59
845.01	12.14
845.315	12.87
845.619	12.83
845.924	12.5
846.229	12.96
846.533	13.18
846.838	14.05
847.142	13.78
847.447	13.86
847.751	14.62
848.056	13.77
848.36	14.05
848.664	15.42
848.969	14.41
849.273	12.47
849.577	11.8
849.881	10.51
850.185	11.78
850.489	12.44
850.794	13.49
851.097	15.17
851.401	15.51
851.705	16.3
852.009	18.1
852.313	17.59
852.617	16.44
852.92	17.29
853.224	17.76
853.528	19.27
853.831	18.37
854.135	17.47
854.438	17.19
854.742	16.64
855.045	17.55
855.349	17.71
855.652	19.98
855.955	20.19
856.259	20.46
856.562	19.23
856.865	17.8
857.168	17.17
857.471	17.6
857.774	16.52
858.077	15.19
858.38	13.19
858.683	14.03
858.986	15.56
859.289	14.9
859.592	13.84
859.894	13.02
860.197	13.67
860.5	14.8
860.802	16.77
861.105	15.1
861.407	12.68
861.71	13.12
862.012	12.92
862.315	11.65
862.617	12.88
862.919	14.21
863.222	14.74
863.524	14.46
863.826	13.95
864.128	14.92
864.43	14.17
864.732	14.37
865.034	14.29
865.336	13.55
865.638	14.41
865.94	13.83
866.242	13.37
866.544	12.59
866.846	12.84
867.147	10.97
867.449	13.49
867.751	16.22
868.052	17.15
868.354	16.87
868.655	18.7
868.957	17.52
869.258	17.03
869.56	16.61
869.861	15.09
870.162	14.86
870.463	14.72
870.765	15.27
871.066	16.72
871.367	15.72
871.668	16.31
871.969	14.77
872.27	14.83
872.571	14.37
872.872	15.99
873.173	14.97
873.473	15.46
873.774	14.99
874.075	13.35
874.376	12.18
874.676	12.35
874.977	10.41
875.277	12.52
875.578	12.36
875.878	12.39
876.179	13.51
876.479	13.22
876.78	12.34
877.08	12.97
877.38	10.98
877.68	11.65
877.981	11.05
878.281	11.94
878.581	12.97
