Data from BU26845_Reflection_00009.txt Node
Date: Mon Nov 18 16:28:07 EST 2019
User: vgr7
Spectrometer: USB2G7710
Scans to average: 3
Trigger mode: 4
Integration Time (sec): 2.000000E-2
Electric dark correction enabled: true
Boxcar width: 10
XAxis mode: Wavelengths
Number of Pixels in Spectrum: 2048
>>>>>Begin Spectral Data<<<<<
177.721	-88.95
178.105	-60.99
178.488	52.07
178.871	140.89
179.254	91.09
179.636	130.97
180.019	83.82
180.402	84
180.785	869.23
181.168	-1900
181.55	-1631.34
181.933	121.26
182.316	186.96
182.698	259.76
183.081	256.68
183.463	396.8
183.846	263.36
184.228	188.99
184.611	106.64
184.993	429.05
185.376	429.57
185.758	-337.6
186.14	-237.27
186.522	-218.8
186.904	-111.89
187.287	-100.67
187.669	-45.12
188.051	-61.41
188.433	-37.15
188.815	-18.54
189.197	-9.01
189.579	-2.44
189.961	-9.05
190.342	-11.41
190.724	-5.41
191.106	-4.8
191.488	-2.35
191.869	1.79
192.251	-0.01
192.633	0.8
193.014	3.98
193.396	-1.38
193.777	6.11
194.159	-9.06
194.54	-0.75
194.922	-0.02
195.303	-9.92
195.684	-19.44
196.065	-7.99
196.447	-5.15
196.828	-22.14
197.209	-26.82
197.59	-37.1
197.971	-39.27
198.352	-19.99
198.733	-33.82
199.114	-24.48
199.495	-18.44
199.876	-14.45
200.257	-4.2
200.638	-1.77
201.018	-19.55
201.399	-10.55
201.78	-16.07
202.16	-12.32
202.541	-24.21
202.922	-55.99
203.302	-44.53
203.683	-44.33
204.063	-73.83
204.444	-94.59
204.824	-84.61
205.204	-91.25
205.585	-90.12
205.965	-92.46
206.345	-110.6
206.725	-104.59
207.106	-128.1
207.486	-118.78
207.866	-107.57
208.246	-115.39
208.626	-88
209.006	-68.27
209.386	-76.23
209.766	-70.95
210.145	-55.84
210.525	-43.57
210.905	-32.96
211.285	-31.11
211.664	-16.32
212.044	2.53
212.424	10.91
212.803	7.38
213.183	9.14
213.562	15.8
213.942	15.1
214.321	21.39
214.701	31.36
215.08	31.77
215.459	31.28
215.838	30.28
216.218	25.76
216.597	24.24
216.976	28.03
217.355	27.51
217.734	26.31
218.113	27.8
218.492	25.19
218.871	23.55
219.25	18.08
219.629	15.97
220.008	7.04
220.387	4.01
220.766	6.25
221.144	10.62
221.523	9.95
221.902	2.92
222.28	-6.24
222.659	-1.89
223.037	8.72
223.416	-3.93
223.794	-16.79
224.173	-16.61
224.551	-6.07
224.929	-5.22
225.308	-1.01
225.686	-2.12
226.064	-4.13
226.442	1.57
226.821	3.94
227.199	3.57
227.577	-5.37
227.955	-5.28
228.333	-2.53
228.711	-4.24
229.089	-0.29
229.467	-5.68
229.845	-1.42
230.222	-0.43
230.6	-2.72
230.978	-3.29
231.356	-2.65
231.733	-0.74
232.111	1.25
232.488	-0.28
232.866	-1.99
233.243	-3.37
233.621	-2.11
233.998	-1.18
234.376	-3.6
234.753	-3.36
235.13	-3.84
235.508	-1.07
235.885	0.61
236.262	-0.51
236.639	0.2
237.016	-1.56
237.393	1.2
237.77	1.21
238.147	1.67
238.524	2
238.901	2.69
239.278	3.1
239.655	3.38
240.032	2.97
240.409	2.69
240.785	2.91
241.162	2.79
241.539	2.57
241.915	2.19
242.292	2.36
242.668	2.24
243.045	2.47
243.421	2.04
243.798	1.67
244.174	1.82
244.551	1.53
244.927	1.66
245.303	1.7
245.679	1.66
246.056	1.74
246.432	2.05
246.808	1.94
247.184	1.73
247.56	1.41
247.936	1.32
248.312	1.39
248.688	1.73
249.064	1.8
249.44	1.89
249.815	1.92
250.191	1.96
250.567	2.16
250.943	1.88
251.318	2.2
251.694	2.3
252.069	2.32
252.445	2.81
252.82	2.98
253.196	2.75
253.571	2.53
253.947	2.39
254.322	2.27
254.697	2.33
255.073	2.21
255.448	2.17
255.823	2.43
256.198	2.39
256.573	1.96
256.948	2.15
257.323	2.17
257.698	2.23
258.073	2.29
258.448	2.11
258.823	2.33
259.198	2.22
259.573	2.1
259.948	2.06
260.322	2.02
260.697	1.98
261.072	1.97
261.446	1.99
261.821	1.91
262.195	1.94
262.57	1.87
262.944	1.92
263.319	2.01
263.693	1.85
264.067	1.91
264.442	2.02
264.816	1.92
265.19	1.87
265.564	1.74
265.938	1.67
266.313	1.78
266.687	1.7
267.061	1.84
267.435	2.03
267.809	1.93
268.183	1.82
268.556	1.92
268.93	2.18
269.304	2.14
269.678	2.22
270.051	2.16
270.425	2.23
270.799	2.24
271.172	2.24
271.546	2.31
271.919	2.3
272.293	2.33
272.666	2.47
273.04	2.51
273.413	2.67
273.787	2.63
274.16	2.46
274.533	2.49
274.906	2.39
275.279	2.38
275.653	2.48
276.026	2.6
276.399	2.41
276.772	2.32
277.145	2.4
277.518	2.44
277.891	2.51
278.263	2.49
278.636	2.55
279.009	2.64
279.382	2.6
279.755	2.65
280.127	2.75
280.5	2.6
280.872	2.6
281.245	2.42
281.617	2.45
281.99	2.61
282.362	2.7
282.735	2.66
283.107	2.77
283.479	2.83
283.852	2.76
284.224	2.86
284.596	2.75
284.968	2.75
285.34	2.88
285.713	2.81
286.085	2.74
286.457	2.76
286.829	2.81
287.201	2.85
287.572	2.73
287.944	2.59
288.316	2.66
288.688	2.68
289.06	2.7
289.431	2.69
289.803	2.62
290.175	2.58
290.546	2.73
290.918	2.63
291.289	2.66
291.661	2.66
292.032	2.61
292.403	2.69
292.775	2.77
293.146	2.69
293.517	2.64
293.889	2.75
294.26	2.65
294.631	2.61
295.002	2.72
295.373	2.86
295.744	2.82
296.115	2.8
296.486	2.73
296.857	2.76
297.228	2.7
297.599	2.74
297.97	2.73
298.34	2.62
298.711	2.68
299.082	2.54
299.452	2.57
299.823	2.67
300.194	2.65
300.564	2.69
300.935	2.69
301.305	2.67
301.676	2.68
302.046	2.88
302.416	2.95
302.787	2.87
303.157	2.84
303.527	3.03
303.897	3.02
304.267	3.12
304.637	3.25
305.008	3.35
305.378	3.42
305.748	3.45
306.117	3.5
306.487	3.57
306.857	3.69
307.227	3.78
307.597	3.69
307.967	3.81
308.336	3.84
308.706	3.92
309.076	4.08
309.445	4.13
309.815	4.08
310.184	4.03
310.554	4.03
310.923	4.06
311.293	3.98
311.662	4.04
312.031	4.11
312.401	4.13
312.77	4.31
313.139	4.4
313.508	4.36
313.877	4.44
314.246	4.43
314.616	4.32
314.985	4.28
315.353	4.33
315.722	4.31
316.091	4.43
316.46	4.31
316.829	4.31
317.198	4.35
317.567	4.3
317.935	4.28
318.304	4.34
318.672	4.4
319.041	4.55
319.41	4.72
319.778	4.67
320.147	4.8
320.515	4.72
320.883	4.65
321.252	4.83
321.62	4.8
321.988	4.85
322.357	5.09
322.725	5.07
323.093	5.2
323.461	5.25
323.829	5.13
324.197	5.34
324.565	5.33
324.933	5.18
325.301	5.3
325.669	5.43
326.037	5.56
326.405	5.59
326.772	5.61
327.14	5.58
327.508	5.6
327.875	5.34
328.243	5.3
328.61	5.36
328.978	5.35
329.346	5.43
329.713	5.3
330.08	5.35
330.448	5.4
330.815	5.31
331.182	5.32
331.55	5.33
331.917	5.37
332.284	5.43
332.651	5.69
333.018	5.87
333.385	5.83
333.752	5.82
334.119	5.85
334.486	5.83
334.853	5.82
335.22	5.76
335.587	5.94
335.954	6.01
336.32	5.99
336.687	6.08
337.054	6.15
337.42	6.25
337.787	6.23
338.153	6.42
338.52	6.52
338.886	6.46
339.253	6.51
339.619	6.43
339.986	6.42
340.352	6.35
340.718	6.18
341.084	6.1
341.451	6.12
341.817	6.15
342.183	6.14
342.549	6.05
342.915	6.21
343.281	6.31
343.647	6.38
344.013	6.43
344.379	6.39
344.745	6.31
345.11	6.42
345.476	6.59
345.842	6.48
346.208	6.56
346.573	6.7
346.939	6.72
347.304	6.76
347.67	6.74
348.035	6.74
348.401	6.82
348.766	6.99
349.132	7.03
349.497	6.97
349.862	7.14
350.228	7.28
350.593	7.21
350.958	7.26
351.323	7.32
351.688	7.3
352.053	7.33
352.418	7.43
352.783	7.41
353.148	7.28
353.513	7.29
353.878	7.24
354.243	7.22
354.608	7.25
354.972	7.21
355.337	7.32
355.702	7.36
356.066	7.38
356.431	7.42
356.795	7.41
357.16	7.5
357.524	7.35
357.889	7.29
358.253	7.33
358.618	7.25
358.982	7.17
359.346	7.16
359.71	7.1
360.075	7.04
360.439	6.95
360.803	6.85
361.167	6.87
361.531	6.83
361.895	6.82
362.259	6.75
362.623	6.73
362.987	6.67
363.351	6.61
363.714	6.61
364.078	6.51
364.442	6.45
364.806	6.39
365.169	6.39
365.533	6.38
365.896	6.36
366.26	6.3
366.623	6.28
366.987	6.24
367.35	6.22
367.714	6.21
368.077	6.26
368.44	6.29
368.803	6.26
369.167	6.19
369.53	6.11
369.893	6.1
370.256	6.13
370.619	6.12
370.982	6.01
371.345	5.96
371.708	5.95
372.071	5.9
372.434	5.85
372.797	5.78
373.159	5.67
373.522	5.65
373.885	5.68
374.247	5.63
374.61	5.64
374.973	5.58
375.335	5.5
375.698	5.45
376.06	5.45
376.423	5.35
376.785	5.35
377.147	5.38
377.51	5.39
377.872	5.34
378.234	5.28
378.596	5.36
378.958	5.3
379.321	5.26
379.683	5.25
380.045	5.25
380.407	5.19
380.769	5.19
381.13	5.12
381.492	5.05
381.854	5.02
382.216	4.94
382.578	4.98
382.939	4.98
383.301	4.91
383.663	4.84
384.024	4.86
384.386	4.82
384.747	4.76
385.109	4.72
385.47	4.71
385.832	4.7
386.193	4.65
386.554	4.6
386.916	4.56
387.277	4.54
387.638	4.53
387.999	4.51
388.36	4.5
388.721	4.49
389.082	4.5
389.443	4.44
389.804	4.43
390.165	4.39
390.526	4.35
390.887	4.34
391.248	4.34
391.609	4.33
391.969	4.3
392.33	4.24
392.691	4.19
393.051	4.11
393.412	4.09
393.772	4.03
394.133	4.03
394.493	4.01
394.854	3.94
395.214	3.9
395.574	3.86
395.935	3.81
396.295	3.8
396.655	3.74
397.015	3.72
397.376	3.7
397.736	3.64
398.096	3.63
398.456	3.59
398.816	3.57
399.176	3.51
399.535	3.49
399.895	3.49
400.255	3.5
400.615	3.48
400.975	3.43
401.334	3.41
401.694	3.37
402.054	3.37
402.413	3.4
402.773	3.37
403.132	3.38
403.492	3.39
403.851	3.36
404.211	3.37
404.57	3.36
404.929	3.36
405.288	3.34
405.648	3.33
406.007	3.35
406.366	3.31
406.725	3.36
407.084	3.35
407.443	3.35
407.802	3.36
408.161	3.33
408.52	3.3
408.879	3.29
409.238	3.33
409.596	3.29
409.955	3.26
410.314	3.24
410.673	3.24
411.031	3.23
411.39	3.23
411.748	3.17
412.107	3.19
412.465	3.19
412.824	3.2
413.182	3.18
413.54	3.17
413.899	3.14
414.257	3.11
414.615	3.1
414.974	3.08
415.332	3.06
415.69	3.06
416.048	3.08
416.406	3.08
416.764	3.04
417.122	3.02
417.48	3
417.838	3.01
418.195	3
418.553	2.99
418.911	2.98
419.269	2.98
419.626	2.96
419.984	2.93
420.342	2.92
420.699	2.9
421.057	2.9
421.414	2.89
421.772	2.87
422.129	2.89
422.486	2.87
422.844	2.86
423.201	2.85
423.558	2.84
423.915	2.83
424.273	2.81
424.63	2.81
424.987	2.82
425.344	2.82
425.701	2.81
426.058	2.8
426.415	2.78
426.772	2.77
427.128	2.76
427.485	2.76
427.842	2.74
428.199	2.75
428.555	2.72
428.912	2.74
429.269	2.73
429.625	2.7
429.982	2.69
430.338	2.69
430.695	2.7
431.051	2.69
431.407	2.7
431.764	2.72
432.12	2.73
432.476	2.73
432.832	2.71
433.189	2.72
433.545	2.72
433.901	2.73
434.257	2.73
434.613	2.75
434.969	2.75
435.325	2.76
435.681	2.77
436.036	2.76
436.392	2.77
436.748	2.77
437.104	2.78
437.459	2.79
437.815	2.79
438.171	2.8
438.526	2.82
438.882	2.81
439.237	2.8
439.593	2.79
439.948	2.79
440.304	2.79
440.659	2.79
441.014	2.79
441.369	2.77
441.725	2.77
442.08	2.77
442.435	2.77
442.79	2.77
443.145	2.75
443.5	2.74
443.855	2.72
444.21	2.71
444.565	2.71
444.92	2.71
445.275	2.7
445.629	2.68
445.984	2.66
446.339	2.65
446.693	2.63
447.048	2.64
447.403	2.63
447.757	2.62
448.112	2.6
448.466	2.58
448.82	2.58
449.175	2.58
449.529	2.56
449.883	2.54
450.238	2.53
450.592	2.53
450.946	2.53
451.3	2.52
451.654	2.51
452.008	2.51
452.362	2.51
452.716	2.51
453.07	2.52
453.424	2.52
453.778	2.52
454.132	2.52
454.486	2.51
454.839	2.51
455.193	2.5
455.547	2.52
455.9	2.53
456.254	2.53
456.607	2.54
456.961	2.55
457.314	2.56
457.668	2.57
458.021	2.57
458.375	2.55
458.728	2.57
459.081	2.59
459.434	2.6
459.787	2.6
460.141	2.61
460.494	2.61
460.847	2.61
461.2	2.63
461.553	2.64
461.906	2.64
462.259	2.66
462.611	2.68
462.964	2.68
463.317	2.7
463.67	2.7
464.022	2.7
464.375	2.72
464.728	2.72
465.08	2.74
465.433	2.74
465.785	2.78
466.138	2.77
466.49	2.76
466.843	2.77
467.195	2.78
467.547	2.79
467.899	2.79
468.252	2.81
468.604	2.82
468.956	2.84
469.308	2.87
469.66	2.85
470.012	2.86
470.364	2.89
470.716	2.88
471.068	2.91
471.42	2.91
471.772	2.92
472.123	2.95
472.475	2.95
472.827	2.97
473.178	2.98
473.53	2.98
473.882	2.99
474.233	2.98
474.585	2.94
474.936	2.94
475.288	2.96
475.639	2.96
475.99	2.93
476.342	2.93
476.693	2.9
477.044	2.9
477.395	2.89
477.746	2.87
478.097	2.87
478.448	2.85
478.8	2.84
479.15	2.82
479.501	2.8
479.852	2.81
480.203	2.81
480.554	2.82
480.905	2.82
481.255	2.82
481.606	2.83
481.957	2.84
482.307	2.85
482.658	2.85
483.009	2.85
483.359	2.85
483.709	2.86
484.06	2.86
484.41	2.86
484.761	2.86
485.111	2.87
485.461	2.87
485.811	2.87
486.162	2.88
486.512	2.89
486.862	2.9
487.212	2.9
487.562	2.9
487.912	2.9
488.262	2.9
488.612	2.91
488.961	2.91
489.311	2.91
489.661	2.92
490.011	2.92
490.36	2.93
490.71	2.94
491.06	2.93
491.409	2.95
491.759	2.97
492.108	2.97
492.458	2.99
492.807	3
493.157	3.02
493.506	3.03
493.855	3.04
494.204	3.07
494.554	3.1
494.903	3.12
495.252	3.14
495.601	3.17
495.95	3.21
496.299	3.23
496.648	3.26
496.997	3.3
497.346	3.35
497.695	3.39
498.043	3.42
498.392	3.47
498.741	3.52
499.09	3.56
499.438	3.64
499.787	3.69
500.135	3.75
500.484	3.82
500.832	3.88
501.181	3.96
501.529	4.02
501.878	4.1
502.226	4.21
502.574	4.29
502.923	4.37
503.271	4.47
503.619	4.59
503.967	4.71
504.315	4.82
504.663	4.93
505.011	5.06
505.359	5.21
505.707	5.36
506.055	5.48
506.403	5.61
506.751	5.74
507.098	5.89
507.446	6.06
507.794	6.21
508.141	6.38
508.489	6.55
508.837	6.75
509.184	6.93
509.531	7.09
509.879	7.29
510.226	7.5
510.574	7.71
510.921	7.93
511.268	8.14
511.616	8.36
511.963	8.55
512.31	8.8
512.657	9.05
513.004	9.29
513.351	9.59
513.698	9.9
514.045	10.2
514.392	10.53
514.739	10.84
515.086	11.18
515.432	11.49
515.779	11.8
516.126	12.1
516.473	12.41
516.819	12.72
517.166	13
517.512	13.26
517.859	13.55
518.205	13.81
518.552	14.1
518.898	14.38
519.245	14.68
519.591	14.96
519.937	15.22
520.283	15.53
520.629	15.82
520.976	16.11
521.322	16.45
521.668	16.77
522.014	17.09
522.36	17.44
522.706	17.81
523.052	18.17
523.398	18.56
523.743	19
524.089	19.41
524.435	19.78
524.781	20.17
525.126	20.49
525.472	20.8
525.817	21.08
526.163	21.33
526.509	21.57
526.854	21.78
527.199	22
527.545	22.2
527.89	22.41
528.235	22.62
528.581	22.83
528.926	23.03
529.271	23.23
529.616	23.43
529.961	23.63
530.306	23.88
530.651	24.09
530.996	24.29
531.341	24.52
531.686	24.75
532.031	24.96
532.376	25.18
532.721	25.42
533.065	25.64
533.41	25.91
533.755	26.17
534.099	26.42
534.444	26.7
534.788	26.98
535.133	27.21
535.477	27.46
535.822	27.7
536.166	27.96
536.51	28.26
536.855	28.57
537.199	28.85
537.543	29.13
537.887	29.46
538.231	29.76
538.576	30.04
538.92	30.29
539.264	30.59
539.608	30.88
539.951	31.14
540.295	31.38
540.639	31.6
540.983	31.83
541.327	32.04
541.671	32.22
542.014	32.41
542.358	32.61
542.701	32.81
543.045	33.01
543.389	33.19
543.732	33.38
544.075	33.55
544.419	33.77
544.762	33.96
545.105	34.16
545.449	34.34
545.792	34.55
546.135	34.83
546.478	35.06
546.821	35.28
547.165	35.47
547.508	35.74
547.851	35.96
548.194	36.12
548.536	36.36
548.879	36.57
549.222	36.78
549.565	36.97
549.908	37.14
550.25	37.36
550.593	37.6
550.936	37.74
551.278	37.96
551.621	38.15
551.963	38.34
552.306	38.55
552.648	38.8
552.991	39
553.333	39.23
553.675	39.43
554.017	39.57
554.36	39.77
554.702	39.94
555.044	40.11
555.386	40.34
555.728	40.51
556.07	40.68
556.412	40.86
556.754	41.04
557.096	41.31
557.438	41.47
557.78	41.54
558.121	41.84
558.463	42.01
558.805	42.17
559.147	42.28
559.488	42.39
559.83	42.5
560.171	42.67
560.513	42.77
560.854	42.82
561.196	42.98
561.537	43.12
561.878	43.19
562.22	43.33
562.561	43.47
562.902	43.59
563.243	43.68
563.584	43.76
563.925	43.89
564.266	43.96
564.607	44.08
564.948	44.23
565.289	44.28
565.63	44.38
565.971	44.45
566.312	44.57
566.653	44.71
566.993	44.79
567.334	44.85
567.675	44.93
568.015	45.12
568.356	45.23
568.696	45.3
569.037	45.44
569.377	45.51
569.718	45.58
570.058	45.67
570.398	45.81
570.739	45.94
571.079	46.01
571.419	46.11
571.759	46.18
572.099	46.32
572.439	46.4
572.779	46.5
573.119	46.61
573.459	46.72
573.799	46.79
574.139	46.88
574.479	46.99
574.819	47.05
575.158	47.1
575.498	47.15
575.838	47.26
576.177	47.34
576.517	47.43
576.856	47.48
577.196	47.6
577.535	47.64
577.875	47.77
578.214	47.9
578.553	47.98
578.893	48.09
579.232	48.14
579.571	48.18
579.91	48.24
580.25	48.33
580.589	48.43
580.928	48.5
581.267	48.57
581.606	48.64
581.945	48.73
582.283	48.86
582.622	48.98
582.961	49.06
583.3	49.16
583.639	49.23
583.977	49.32
584.316	49.42
584.654	49.48
584.993	49.46
585.332	49.47
585.67	49.57
586.008	49.61
586.347	49.6
586.685	49.76
587.024	49.84
587.362	49.87
587.7	49.91
588.038	50
588.376	50.05
588.715	50.14
589.053	50.25
589.391	50.17
589.729	50.21
590.067	50.25
590.404	50.24
590.742	50.33
591.08	50.34
591.418	50.33
591.756	50.35
592.093	50.45
592.431	50.55
592.769	50.5
593.106	50.59
593.444	50.71
593.781	50.74
594.119	50.78
594.456	50.84
594.793	50.87
595.131	50.91
595.468	51.05
595.805	51.05
596.143	51
596.48	51.11
596.817	51.14
597.154	51.15
597.491	51.19
597.828	51.19
598.165	51.29
598.502	51.35
598.839	51.44
599.176	51.42
599.512	51.43
599.849	51.55
600.186	51.51
600.523	51.56
600.859	51.57
601.196	51.6
601.532	51.62
601.869	51.6
602.205	51.62
602.542	51.62
602.878	51.66
603.215	51.77
603.551	51.74
603.887	51.79
604.223	51.9
604.56	51.98
604.896	52.06
605.232	52.12
605.568	52.17
605.904	52.21
606.24	52.29
606.576	52.31
606.912	52.34
607.248	52.42
607.583	52.48
607.919	52.49
608.255	52.57
608.591	52.61
608.926	52.66
609.262	52.71
609.597	52.7
609.933	52.8
610.268	52.83
610.604	52.92
610.939	52.97
611.275	52.91
611.61	52.89
611.945	52.91
612.281	52.88
612.616	52.86
612.951	53.01
613.286	53.03
613.621	53.11
613.956	53.15
614.291	53.26
614.626	53.27
614.961	53.33
615.296	53.26
615.631	53.31
615.966	53.43
616.3	53.54
616.635	53.55
616.97	53.47
617.304	53.46
617.639	53.48
617.973	53.42
618.308	53.48
618.642	53.57
618.977	53.58
619.311	53.6
619.646	53.7
619.98	53.64
620.314	53.68
620.648	53.71
620.983	53.78
621.317	53.65
621.651	53.58
621.985	53.52
622.319	53.6
622.653	53.63
622.987	53.67
623.321	53.58
623.655	53.63
623.988	53.7
624.322	53.73
624.656	53.73
624.99	53.78
625.323	53.77
625.657	53.77
625.99	53.8
626.324	53.82
626.657	53.8
626.991	53.78
627.324	53.74
627.658	53.64
627.991	53.63
628.324	53.76
628.657	53.77
628.991	53.88
629.324	53.87
629.657	53.79
629.99	53.83
630.323	53.87
630.656	53.85
630.989	53.88
631.322	53.94
631.655	53.94
631.987	53.91
632.32	53.93
632.653	53.93
632.986	53.93
633.318	53.93
633.651	54.11
633.984	54.2
634.316	54.32
634.649	54.5
634.981	54.42
635.313	54.39
635.646	54.53
635.978	54.56
636.31	54.63
636.643	54.84
636.975	54.77
637.307	54.83
637.639	54.89
637.971	54.98
638.303	54.92
638.635	55.02
638.967	55.05
639.299	55.11
639.631	55.14
639.963	55.15
640.295	55.21
640.626	55.11
640.958	55.08
641.29	55.07
641.621	54.92
641.953	54.99
642.285	55.09
642.616	55.12
642.948	55.16
643.279	55.19
643.61	55.07
643.942	55.09
644.273	55.08
644.604	55.1
644.936	55.06
645.267	55.17
645.598	55.16
645.929	55.22
646.26	55.17
646.591	55.08
646.922	55.09
647.253	55.14
647.584	55.13
647.915	55.14
648.245	55.18
648.576	55.36
648.907	55.44
649.238	55.43
649.568	55.53
649.899	55.52
650.229	55.44
650.56	55.58
650.89	55.6
651.221	55.64
651.551	55.61
651.882	55.58
652.212	55.49
652.542	55.44
652.872	55.49
653.203	55.48
653.533	55.55
653.863	55.53
654.193	55.47
654.523	55.41
654.853	55.31
655.183	55.16
655.513	55.11
655.843	55.12
656.172	55.14
656.502	54.98
656.832	54.97
657.162	55
657.491	55.04
657.821	55.14
658.15	55.1
658.48	55.17
658.809	55.18
659.139	55.28
659.468	55.26
659.798	55.27
660.127	55.37
660.456	55.44
660.785	55.5
661.115	55.5
661.444	55.56
661.773	55.66
662.102	55.74
662.431	55.79
662.76	55.77
663.089	55.74
663.418	55.8
663.747	55.9
664.076	55.94
664.404	55.8
664.733	55.71
665.062	55.76
665.39	55.6
665.719	55.56
666.048	55.52
666.376	55.53
666.705	55.52
667.033	55.44
667.362	55.32
667.69	55.28
668.018	55.23
668.347	55.3
668.675	55.24
669.003	55.15
669.331	55.17
669.659	55.27
669.987	55.23
670.315	55.24
670.643	55.02
670.971	55
671.299	55.16
671.627	55.12
671.955	55.1
672.283	55.2
672.61	55.27
672.938	55.33
673.266	55.43
673.593	55.41
673.921	55.51
674.249	55.67
674.576	55.71
674.904	55.84
675.231	55.65
675.558	55.86
675.886	55.99
676.213	55.93
676.54	55.87
676.867	55.93
677.195	55.95
677.522	56.09
677.849	56.25
678.176	56.08
678.503	56.13
678.83	56.02
679.157	56.07
679.484	55.92
679.81	55.87
680.137	55.97
680.464	55.94
680.791	55.91
681.117	55.87
681.444	55.79
681.771	55.76
682.097	55.8
682.424	55.75
682.75	55.72
683.077	55.68
683.403	55.57
683.729	55.5
684.056	55.37
684.382	55.3
684.708	55.16
685.034	55.31
685.36	55.35
685.686	55.4
686.012	55.36
686.339	55.51
686.664	55.46
686.99	55.31
687.316	55.33
687.642	55.39
687.968	55.32
688.294	55.51
688.619	55.59
688.945	55.6
689.271	55.47
689.596	55.62
689.922	55.75
690.247	55.86
690.573	55.94
690.898	56.01
691.224	56.11
691.549	56.06
691.874	55.86
692.2	55.74
692.525	55.71
692.85	55.71
693.175	55.6
693.5	55.74
693.825	55.85
694.15	55.76
694.475	55.7
694.8	55.65
695.125	55.46
695.45	55.33
695.775	55.41
696.099	55.58
696.424	55.47
696.749	55.34
697.073	55.36
697.398	55.37
697.723	55.49
698.047	55.56
698.372	55.49
698.696	55.57
699.02	55.66
699.345	55.79
699.669	55.81
699.993	55.81
700.318	55.67
700.642	55.65
700.966	55.69
701.29	55.65
701.614	55.62
701.938	55.79
702.262	55.97
702.586	56.06
702.91	55.92
703.234	56.01
703.557	55.98
703.881	55.87
704.205	55.77
704.529	55.67
704.852	55.82
705.176	55.97
705.499	56.06
705.823	56.09
706.146	56.09
706.47	56.12
706.793	56.2
707.117	56.33
707.44	56.27
707.763	56.36
708.086	56.3
708.409	56.42
708.733	56.28
709.056	56.14
709.379	56.04
709.702	56.02
710.025	55.98
710.348	56.18
710.671	56.4
710.993	56.46
711.316	56.61
711.639	56.54
711.962	56.4
712.284	56.19
712.607	56.06
712.93	56.13
713.252	56.12
713.575	55.99
713.897	56.03
714.22	56.06
714.542	55.96
714.864	56.21
715.187	56.14
715.509	56.18
715.831	56.26
716.153	56.42
716.475	56.45
716.798	56.39
717.12	56.36
717.442	56.31
717.764	56.38
718.085	56.12
718.407	55.89
718.729	55.95
719.051	56.21
719.373	56.1
719.695	55.9
720.016	55.74
720.338	55.96
720.659	55.87
720.981	55.71
721.302	55.67
721.624	55.39
721.945	55.6
722.267	55.81
722.588	55.84
722.909	55.42
723.231	55.5
723.552	55.65
723.873	55.51
724.194	55.29
724.515	55.18
724.836	55.41
725.157	55.42
725.478	55.56
725.799	55.46
726.12	55.7
726.441	55.94
726.762	56.07
727.083	56.04
727.403	56.06
727.724	56.24
728.045	56.36
728.365	56.42
728.686	56.23
729.006	56.12
729.327	55.78
729.647	55.89
729.967	55.68
730.288	55.58
730.608	55.6
730.928	55.59
731.249	55.57
731.569	55.47
731.889	55.59
732.209	55.68
732.529	55.58
732.849	55.55
733.169	55.35
733.489	55.47
733.809	55.15
734.129	55.07
734.448	54.79
734.768	54.63
735.088	54.96
735.408	55.18
735.727	55.23
736.047	55.23
736.366	55.04
736.686	55.15
737.005	55.11
737.325	55.04
737.644	55.11
737.963	55.24
738.283	55.11
738.602	55.22
738.921	55.12
739.24	55.19
739.56	55.18
739.879	55.15
740.198	54.95
740.517	55.1
740.836	55.37
741.155	55.45
741.473	55.75
741.792	55.5
742.111	55.38
742.43	55.21
742.748	55.33
743.067	55.64
743.386	55.61
743.704	55.66
744.023	55.85
744.341	55.72
744.66	55.77
744.978	55.85
745.297	55.67
745.615	55.82
745.933	55.7
746.252	55.58
746.57	55.34
746.888	55.38
747.206	55.39
747.524	55.41
747.842	55.86
748.16	55.53
748.478	55.74
748.796	55.76
749.114	55.81
749.432	55.87
749.749	55.73
750.067	55.75
750.385	55.44
750.703	55.51
751.02	55.7
751.338	55.71
751.655	55.72
751.973	55.63
752.29	55.19
752.608	55.27
752.925	55.44
753.242	55.85
753.56	56
753.877	56.19
754.194	56.01
754.511	55.74
754.828	56.24
755.145	56.1
755.462	55.94
755.779	56.07
756.096	56.15
756.413	56.39
756.73	56.38
757.047	56.53
757.364	56.46
757.68	56.31
757.997	56.01
758.314	55.99
758.63	55.94
758.947	56.37
759.264	56.4
759.58	56.21
759.896	56.72
760.213	56.85
760.529	56.82
760.846	56.55
761.162	56.61
761.478	56.39
761.794	56.09
762.11	55.95
762.426	55.76
762.743	55.77
763.059	55.82
763.375	55.73
763.69	55.86
764.006	55.97
764.322	56.06
764.638	55.94
764.954	56.05
765.27	55.87
765.585	55.77
765.901	55.66
766.216	55.81
766.532	55.27
766.848	55.07
767.163	55.09
767.478	55.23
767.794	55.16
768.109	55.08
768.424	55.35
768.74	55.3
769.055	55.46
769.37	55.64
769.685	55.64
770	55.72
770.315	55.65
770.63	55.49
770.945	55.43
771.26	55.76
771.575	55.59
771.89	55.99
772.205	55.74
772.52	55.95
772.834	55.75
773.149	55.96
773.464	56.31
773.778	56.48
774.093	56.43
774.407	56.27
774.722	56.3
775.036	56.1
775.351	56.6
775.665	56.29
775.979	56.27
776.293	56.2
776.608	56.78
776.922	56.53
777.236	56.87
777.55	57.16
777.864	57.13
778.178	57.32
778.492	57.86
778.806	57.81
779.12	58.17
779.434	58.09
779.747	57.89
780.061	57.43
780.375	57.29
780.689	57.12
781.002	57.04
781.316	56.82
781.629	57.41
781.943	56.92
782.256	57.17
782.57	56.59
782.883	56.3
783.196	55.98
783.51	56.21
783.823	55.61
784.136	55.21
784.449	55.13
784.762	54.72
785.075	54.22
785.388	54.62
785.701	54.44
786.014	54.82
786.327	54.7
786.64	54.68
786.953	54.49
787.266	54.49
787.578	54.56
787.891	55.13
788.204	54.16
788.516	54.26
788.829	54.03
789.141	54.49
789.454	54.11
789.766	54.2
790.079	54.09
790.391	54.38
790.703	54.21
791.016	54.44
791.328	54.84
791.64	55.04
791.952	55.5
792.264	55.51
792.576	55.4
792.888	55.39
793.2	55.27
793.512	55.41
793.824	55.9
794.136	55.87
794.448	55.53
794.76	55.75
795.071	56.2
795.383	56.29
795.695	56.21
796.006	56.62
796.318	56.23
796.629	56.59
796.941	56.16
797.252	56.86
797.564	55.94
797.875	56.03
798.186	55.64
798.497	55.29
798.809	54.99
799.12	55.16
799.431	54.91
799.742	54.99
800.053	54.82
800.364	54.82
800.675	54.52
800.986	54.64
801.297	54.78
801.608	54.36
801.918	54.73
802.229	55.23
802.54	54.91
802.851	55.33
803.161	55.2
803.472	55.78
803.782	55.48
804.093	56.27
804.403	56.6
804.714	56.34
805.024	55.94
805.334	56.38
805.645	56.09
805.955	56.92
806.265	57.08
806.575	56.92
806.885	56.69
807.195	57.68
807.505	57.99
807.815	57.9
808.125	58.15
808.435	57.65
808.745	57.49
809.055	57.94
809.365	57.1
809.674	57.06
809.984	57.07
810.294	57.45
810.603	57.75
810.913	56.94
811.222	57.92
811.532	58.21
811.841	57.99
812.151	59.21
812.46	58.6
812.769	58.28
813.079	59.33
813.388	59.41
813.697	59.32
814.006	58.82
814.315	59.38
814.624	59.39
814.933	59.3
815.242	59.24
815.551	59.7
815.86	59.95
816.169	59.48
816.478	59
816.786	58.4
817.095	58.14
817.404	58.41
817.712	58.11
818.021	57.56
818.33	57.69
818.638	56.36
818.947	56.91
819.255	57.65
819.563	57.38
819.872	56.76
820.18	56.98
820.488	57.23
820.796	57.23
821.105	57.34
821.413	57.51
821.721	57.38
822.029	57.29
822.337	57.42
822.645	57.66
822.953	57.6
823.26	57.57
823.568	57.36
823.876	57.42
824.184	57.36
824.491	57.56
824.799	57.28
825.107	57.5
825.414	57.4
825.722	57.21
826.029	57.14
826.337	57.53
826.644	57.41
826.951	57.17
827.259	57.02
827.566	56.88
827.873	56.8
828.18	57.05
828.488	57.13
828.795	56.93
829.102	56.68
829.409	56.75
829.716	56.6
830.023	57.05
830.329	56.75
830.636	57.01
830.943	56.7
831.25	57.1
831.557	56.47
831.863	56.7
832.17	56.79
832.476	56.76
832.783	56.51
833.089	56.35
833.396	57.02
833.702	57.31
834.009	57.04
834.315	57.34
834.621	56.57
834.928	56.23
835.234	56.15
835.54	56.6
835.846	57.03
836.152	57.44
836.458	57.33
836.764	57.09
837.07	56.62
837.376	56.49
837.682	56.29
837.988	56.83
838.293	57.06
838.599	57.08
838.905	56.63
839.211	56.18
839.516	56.44
839.822	55.22
840.127	54.03
840.433	54.22
840.738	53.25
841.044	53.79
841.349	53.38
841.654	54.23
841.959	53.27
842.265	52.42
842.57	52.41
842.875	51.91
843.18	53.41
843.485	53.64
843.79	54.24
844.095	54.22
844.4	54.57
844.705	53.24
845.01	52.44
845.315	53.05
845.619	52.6
845.924	51.29
846.229	52.57
846.533	54.72
846.838	54.46
847.142	54.61
847.447	53.98
847.751	54.82
848.056	54.21
848.36	53.81
848.664	52.73
848.969	52.17
849.273	52.76
849.577	50.29
849.881	49.23
850.185	48.5
850.489	50.41
850.794	49.66
851.097	48.66
851.401	47.38
851.705	48.63
852.009	50.64
852.313	51.87
852.617	49.45
852.92	47.84
853.224	48.58
853.528	48.54
853.831	48.64
854.135	48.58
854.438	48.07
854.742	49.86
855.045	50.11
855.349	49.87
855.652	48.59
855.955	48.68
856.259	47.86
856.562	47.36
856.865	46.02
857.168	46.4
857.471	47.61
857.774	48.98
858.077	47.25
858.38	47.97
858.683	47.59
858.986	49.57
859.289	49.41
859.592	50.29
859.894	51.06
860.197	50.61
860.5	50.15
860.802	50.97
861.105	48.38
861.407	48.91
861.71	48.31
862.012	48.24
862.315	49.45
862.617	51.63
862.919	52.19
863.222	50.28
863.524	51.07
863.826	50.33
864.128	52.45
864.43	52.07
864.732	50.09
865.034	49.75
865.336	50.39
865.638	50.53
865.94	48.12
866.242	48.28
866.544	48.18
866.846	48.5
867.147	48.31
867.449	48.92
867.751	47.66
868.052	48.66
868.354	49.77
868.655	50.13
868.957	49.69
869.258	49.27
869.56	51.92
869.861	50.25
870.162	50.77
870.463	48.49
870.765	49.38
871.066	47.92
871.367	47.94
871.668	45.88
871.969	45.78
872.27	45.12
872.571	44.74
872.872	43.53
873.173	43.09
873.473	41.27
873.774	44.08
874.075	44.66
874.376	45.26
874.676	46.26
874.977	44.63
875.277	43.73
875.578	44.99
875.878	44.03
876.179	44.03
876.479	43.74
876.78	43.83
877.08	43.66
877.38	45.57
877.68	45.44
877.981	46.64
878.281	46.76
878.581	49.87
