Data from BU26938_Reflection_00007.txt Node
Date: Tue Nov 19 10:42:20 EST 2019
User: vgr7
Spectrometer: USB2G7710
Scans to average: 3
Trigger mode: 4
Integration Time (sec): 2.000000E-2
Electric dark correction enabled: true
Boxcar width: 10
XAxis mode: Wavelengths
Number of Pixels in Spectrum: 2048
>>>>>Begin Spectral Data<<<<<
177.721	91.43
178.105	-400
178.488	-27.82
178.871	2750
179.254	132.26
179.636	213.64
180.019	229.69
180.402	-90.48
180.785	405.26
181.168	46.56
181.55	-224.68
181.933	-203.66
182.316	-731.17
182.698	1390.32
183.081	-154.75
183.463	474.23
183.846	2034.43
184.228	1175.95
184.611	2565.12
184.993	1558.82
185.376	20385.71
185.758	-433.12
186.14	-473.77
186.522	-331.67
186.904	-658.14
187.287	-242.24
187.669	-194.96
188.051	-183.07
188.433	-411.57
188.815	-426.18
189.197	-317.41
189.579	-327.06
189.961	-673.4
190.342	-147.91
190.724	-355.98
191.106	-444.47
191.488	-168.23
191.869	-79.98
192.251	-86.45
192.633	-108.83
193.014	-90.51
193.396	-82.34
193.777	-78.28
194.159	-75.29
194.54	-84.49
194.922	-80.84
195.303	-83.86
195.684	-102.87
196.065	-126.1
196.447	-94.78
196.828	-88.14
197.209	-80.13
197.59	-74.61
197.971	-76.51
198.352	-83.63
198.733	-70.11
199.114	-88.51
199.495	-101.22
199.876	-93.93
200.257	-82.03
200.638	-52.77
201.018	-53.31
201.399	-44.9
201.78	-40.54
202.16	-52.77
202.541	-43.85
202.922	-35.74
203.302	-39.58
203.683	-31.43
204.063	-23.24
204.444	-23.62
204.824	-16.62
205.204	-7.03
205.585	-19.47
205.965	15.46
206.345	36.65
206.725	60.93
207.106	39.46
207.486	31.02
207.866	33.87
208.246	50.27
208.626	58.5
209.006	32.1
209.386	7.17
209.766	-7.18
210.145	17.1
210.525	29.11
210.905	26.89
211.285	5.56
211.664	8.54
212.044	72.9
212.424	43.08
212.803	46.05
213.183	64.33
213.562	73.46
213.942	40.01
214.321	46.53
214.701	17.53
215.08	29.8
215.459	46.65
215.838	32.89
216.218	20.22
216.597	10.78
216.976	24.12
217.355	24.25
217.734	14.12
218.113	12.22
218.492	15.75
218.871	2.86
219.25	21.63
219.629	23.28
220.008	4.25
220.387	12.39
220.766	23.5
221.144	10.64
221.523	10.3
221.902	23.97
222.28	24.65
222.659	42.81
223.037	39.29
223.416	29.5
223.794	33.09
224.173	31.1
224.551	29.35
224.929	35.03
225.308	25.12
225.686	25.5
226.064	21.44
226.442	20.26
226.821	17.7
227.199	15.09
227.577	17.89
227.955	21.13
228.333	17.46
228.711	16.3
229.089	15.56
229.467	12.05
229.845	10.89
230.222	8.97
230.6	5.13
230.978	6.89
231.356	7.55
231.733	7.39
232.111	6.76
232.488	5.22
232.866	6.78
233.243	9.8
233.621	10.75
233.998	10.6
234.376	11.21
234.753	11.96
235.13	11
235.508	8.89
235.885	4.93
236.262	2.5
236.639	0.51
237.016	0.54
237.393	2.04
237.77	2.2
238.147	2.52
238.524	3.25
238.901	2.55
239.278	2.06
239.655	1.79
240.032	1.94
240.409	2.48
240.785	2.38
241.162	2.2
241.539	2.47
241.915	2.49
242.292	2.48
242.668	3.11
243.045	2.93
243.421	3.24
243.798	3.64
244.174	3.99
244.551	4.05
244.927	4.07
245.303	3.64
245.679	3.37
246.056	3.48
246.432	3.59
246.808	3.71
247.184	3.98
247.56	4.03
247.936	4.07
248.312	4.06
248.688	3.98
249.064	4.07
249.44	4
249.815	4.26
250.191	3.97
250.567	3.84
250.943	4.02
251.318	3.74
251.694	3.77
252.069	4.1
252.445	4.45
252.82	4.68
253.196	4.82
253.571	5.18
253.947	5.09
254.322	4.92
254.697	4.88
255.073	4.6
255.448	4.65
255.823	4.6
256.198	4.47
256.573	4.59
256.948	4.5
257.323	4.6
257.698	4.45
258.073	4.62
258.448	4.43
258.823	4.39
259.198	4.6
259.573	4.36
259.948	4.19
260.322	4.08
260.697	3.96
261.072	4.16
261.446	4.03
261.821	3.95
262.195	3.99
262.57	3.93
262.944	3.98
263.319	3.89
263.693	3.7
264.067	3.79
264.442	3.75
264.816	3.69
265.19	3.59
265.564	3.33
265.938	3.24
266.313	3.26
266.687	3.17
267.061	2.89
267.435	3.17
267.809	2.97
268.183	2.66
268.556	2.68
268.93	2.62
269.304	2.63
269.678	2.7
270.051	2.57
270.425	2.65
270.799	2.69
271.172	2.74
271.546	2.99
271.919	2.94
272.293	3.04
272.666	3.14
273.04	3.08
273.413	3.3
273.787	3.29
274.16	3.4
274.533	3.54
274.906	3.71
275.279	3.66
275.653	3.84
276.026	4.18
276.399	4.13
276.772	4.37
277.145	4.47
277.518	4.43
277.891	4.59
278.263	4.63
278.636	4.69
279.009	4.84
279.382	4.54
279.755	4.58
280.127	4.35
280.5	4.27
280.872	4.25
281.245	4.17
281.617	4.26
281.99	4.2
282.362	4.06
282.735	4.05
283.107	3.96
283.479	3.98
283.852	3.9
284.224	3.88
284.596	3.65
284.968	3.67
285.34	3.78
285.713	3.78
286.085	3.75
286.457	3.63
286.829	3.43
287.201	3.73
287.572	3.76
287.944	3.91
288.316	3.96
288.688	4.2
289.06	4.19
289.431	4.26
289.803	4.46
290.175	4.53
290.546	4.42
290.918	4.44
291.289	4.37
291.661	4.44
292.032	4.52
292.403	4.44
292.775	4.63
293.146	4.74
293.517	4.67
293.889	4.63
294.26	4.69
294.631	4.82
295.002	4.8
295.373	4.77
295.744	4.74
296.115	4.64
296.486	4.55
296.857	4.58
297.228	4.47
297.599	4.37
297.97	4.47
298.34	4.66
298.711	4.79
299.082	4.86
299.452	4.86
299.823	4.81
300.194	5.03
300.564	4.86
300.935	4.73
301.305	4.74
301.676	4.8
302.046	4.95
302.416	4.96
302.787	4.92
303.157	5.05
303.527	5.12
303.897	5.25
304.267	5.28
304.637	5.48
305.008	5.64
305.378	5.73
305.748	5.71
306.117	5.68
306.487	5.74
306.857	5.86
307.227	5.99
307.597	6.19
307.967	6.13
308.336	6.19
308.706	6.3
309.076	6.46
309.445	6.63
309.815	6.68
310.184	6.62
310.554	6.71
310.923	6.69
311.293	6.73
311.662	6.77
312.031	6.71
312.401	6.6
312.77	6.62
313.139	6.62
313.508	6.6
313.877	6.64
314.246	6.72
314.616	6.76
314.985	6.71
315.353	6.7
315.722	6.89
316.091	6.88
316.46	6.96
316.829	7.01
317.198	7.01
317.567	7.06
317.935	7.32
318.304	7.35
318.672	7.43
319.041	7.48
319.41	7.6
319.778	7.75
320.147	7.78
320.515	7.86
320.883	7.92
321.252	7.96
321.62	8.12
321.988	8.24
322.357	8.16
322.725	8.22
323.093	8.18
323.461	8.13
323.829	8.27
324.197	8.14
324.565	8.19
324.933	8.07
325.301	8
325.669	7.89
326.037	7.85
326.405	7.82
326.772	7.76
327.14	7.69
327.508	7.58
327.875	7.66
328.243	7.72
328.61	7.75
328.978	7.85
329.346	7.79
329.713	7.63
330.08	7.78
330.448	7.87
330.815	7.99
331.182	7.94
331.55	7.98
331.917	8.12
332.284	8.13
332.651	8.23
333.018	8.24
333.385	8.35
333.752	8.36
334.119	8.37
334.486	8.38
334.853	8.46
335.22	8.59
335.587	8.58
335.954	8.54
336.32	8.51
336.687	8.44
337.054	8.44
337.42	8.47
337.787	8.45
338.153	8.46
338.52	8.59
338.886	8.68
339.253	8.59
339.619	8.63
339.986	8.6
340.352	8.55
340.718	8.66
341.084	8.6
341.451	8.72
341.817	8.89
342.183	8.87
342.549	8.93
342.915	8.9
343.281	9.03
343.647	9.1
344.013	9.18
344.379	9.2
344.745	9.33
345.11	9.41
345.476	9.38
345.842	9.42
346.208	9.38
346.573	9.38
346.939	9.5
347.304	9.44
347.67	9.42
348.035	9.52
348.401	9.49
348.766	9.53
349.132	9.44
349.497	9.4
349.862	9.5
350.228	9.39
350.593	9.45
350.958	9.41
351.323	9.42
351.688	9.4
352.053	9.47
352.418	9.36
352.783	9.3
353.148	9.3
353.513	9.15
353.878	9.08
354.243	8.99
354.608	9.01
354.972	9.03
355.337	9.16
355.702	9.17
356.066	9.09
356.431	9.16
356.795	9.25
357.16	9.22
357.524	9.24
357.889	9.26
358.253	9.31
358.618	9.31
358.982	9.23
359.346	9.25
359.71	9.25
360.075	9.26
360.439	9.24
360.803	9.31
361.167	9.4
361.531	9.39
361.895	9.47
362.259	9.44
362.623	9.41
362.987	9.3
363.351	9.28
363.714	9.4
364.078	9.29
364.442	9.24
364.806	9.24
365.169	9.19
365.533	9.17
365.896	9.08
366.26	9.07
366.623	9.04
366.987	8.99
367.35	8.93
367.714	8.9
368.077	8.93
368.44	8.85
368.803	8.82
369.167	8.79
369.53	8.71
369.893	8.69
370.256	8.72
370.619	8.67
370.982	8.61
371.345	8.53
371.708	8.58
372.071	8.5
372.434	8.42
372.797	8.37
373.159	8.35
373.522	8.33
373.885	8.28
374.247	8.23
374.61	8.26
374.973	8.26
375.335	8.21
375.698	8.16
376.06	8.12
376.423	8.09
376.785	8.08
377.147	8.07
377.51	8.02
377.872	7.97
378.234	8.02
378.596	8.04
378.958	7.99
379.321	7.89
379.683	7.92
380.045	7.89
380.407	7.9
380.769	7.88
381.13	7.84
381.492	7.82
381.854	7.89
382.216	7.86
382.578	7.82
382.939	7.78
383.301	7.75
383.663	7.66
384.024	7.58
384.386	7.53
384.747	7.48
385.109	7.4
385.47	7.4
385.832	7.28
386.193	7.27
386.554	7.25
386.916	7.26
387.277	7.15
387.638	7.15
387.999	7.16
388.36	7.13
388.721	7.09
389.082	7.08
389.443	6.99
389.804	6.96
390.165	6.91
390.526	6.88
390.887	6.82
391.248	6.82
391.609	6.84
391.969	6.78
392.33	6.75
392.691	6.73
393.051	6.67
393.412	6.7
393.772	6.65
394.133	6.63
394.493	6.62
394.854	6.6
395.214	6.57
395.574	6.49
395.935	6.48
396.295	6.47
396.655	6.42
397.015	6.39
397.376	6.36
397.736	6.33
398.096	6.3
398.456	6.3
398.816	6.28
399.176	6.21
399.535	6.19
399.895	6.2
400.255	6.22
400.615	6.21
400.975	6.19
401.334	6.13
401.694	6.1
402.054	6.07
402.413	6.06
402.773	6.02
403.132	5.97
403.492	5.94
403.851	5.92
404.211	5.89
404.57	5.89
404.929	5.84
405.288	5.82
405.648	5.79
406.007	5.79
406.366	5.74
406.725	5.72
407.084	5.74
407.443	5.69
407.802	5.66
408.161	5.6
408.52	5.57
408.879	5.59
409.238	5.59
409.596	5.57
409.955	5.56
410.314	5.54
410.673	5.55
411.031	5.54
411.39	5.51
411.748	5.51
412.107	5.46
412.465	5.47
412.824	5.44
413.182	5.44
413.54	5.4
413.899	5.39
414.257	5.43
414.615	5.4
414.974	5.37
415.332	5.35
415.69	5.33
416.048	5.32
416.406	5.28
416.764	5.24
417.122	5.2
417.48	5.19
417.838	5.15
418.195	5.13
418.553	5.09
418.911	5.07
419.269	5.06
419.626	5.05
419.984	5.01
420.342	5
420.699	4.97
421.057	4.95
421.414	4.93
421.772	4.9
422.129	4.88
422.486	4.87
422.844	4.85
423.201	4.83
423.558	4.81
423.915	4.79
424.273	4.79
424.63	4.79
424.987	4.77
425.344	4.77
425.701	4.74
426.058	4.75
426.415	4.73
426.772	4.71
427.128	4.69
427.485	4.68
427.842	4.66
428.199	4.65
428.555	4.65
428.912	4.63
429.269	4.61
429.625	4.58
429.982	4.59
430.338	4.58
430.695	4.57
431.051	4.56
431.407	4.54
431.764	4.51
432.12	4.52
432.476	4.51
432.832	4.49
433.189	4.47
433.545	4.47
433.901	4.47
434.257	4.47
434.613	4.47
434.969	4.49
435.325	4.5
435.681	4.51
436.036	4.49
436.392	4.5
436.748	4.52
437.104	4.53
437.459	4.53
437.815	4.52
438.171	4.52
438.526	4.53
438.882	4.55
439.237	4.57
439.593	4.57
439.948	4.57
440.304	4.58
440.659	4.6
441.014	4.59
441.369	4.58
441.725	4.56
442.08	4.56
442.435	4.55
442.79	4.55
443.145	4.54
443.5	4.54
443.855	4.54
444.21	4.54
444.565	4.54
444.92	4.54
445.275	4.54
445.629	4.53
445.984	4.51
446.339	4.49
446.693	4.48
447.048	4.45
447.403	4.43
447.757	4.42
448.112	4.42
448.466	4.42
448.82	4.42
449.175	4.42
449.529	4.41
449.883	4.39
450.238	4.37
450.592	4.37
450.946	4.36
451.3	4.32
451.654	4.28
452.008	4.25
452.362	4.22
452.716	4.22
453.07	4.24
453.424	4.24
453.778	4.23
454.132	4.22
454.486	4.23
454.839	4.23
455.193	4.23
455.547	4.22
455.9	4.21
456.254	4.2
456.607	4.21
456.961	4.22
457.314	4.22
457.668	4.22
458.021	4.22
458.375	4.22
458.728	4.23
459.081	4.26
459.434	4.26
459.787	4.27
460.141	4.26
460.494	4.26
460.847	4.26
461.2	4.28
461.553	4.27
461.906	4.28
462.259	4.29
462.611	4.31
462.964	4.31
463.317	4.34
463.67	4.34
464.022	4.36
464.375	4.33
464.728	4.36
465.08	4.36
465.433	4.39
465.785	4.42
466.138	4.44
466.49	4.45
466.843	4.48
467.195	4.5
467.547	4.51
467.899	4.51
468.252	4.53
468.604	4.53
468.956	4.58
469.308	4.59
469.66	4.61
470.012	4.62
470.364	4.65
470.716	4.65
471.068	4.68
471.42	4.7
471.772	4.74
472.123	4.75
472.475	4.79
472.827	4.78
473.178	4.77
473.53	4.83
473.882	4.85
474.233	4.83
474.585	4.84
474.936	4.86
475.288	4.86
475.639	4.87
475.99	4.88
476.342	4.89
476.693	4.9
477.044	4.89
477.395	4.89
477.746	4.89
478.097	4.89
478.448	4.87
478.8	4.87
479.15	4.87
479.501	4.85
479.852	4.83
480.203	4.83
480.554	4.82
480.905	4.81
481.255	4.8
481.606	4.82
481.957	4.82
482.307	4.83
482.658	4.83
483.009	4.82
483.359	4.82
483.709	4.81
484.06	4.81
484.41	4.81
484.761	4.8
485.111	4.8
485.461	4.8
485.811	4.8
486.162	4.79
486.512	4.78
486.862	4.78
487.212	4.77
487.562	4.78
487.912	4.78
488.262	4.77
488.612	4.77
488.961	4.75
489.311	4.75
489.661	4.74
490.011	4.72
490.36	4.73
490.71	4.73
491.06	4.73
491.409	4.72
491.759	4.73
492.108	4.72
492.458	4.72
492.807	4.73
493.157	4.73
493.506	4.77
493.855	4.78
494.204	4.78
494.554	4.81
494.903	4.83
495.252	4.86
495.601	4.89
495.95	4.9
496.299	4.92
496.648	4.94
496.997	4.96
497.346	5.02
497.695	5.05
498.043	5.1
498.392	5.14
498.741	5.2
499.09	5.23
499.438	5.32
499.787	5.38
500.135	5.42
500.484	5.48
500.832	5.52
501.181	5.6
501.529	5.69
501.878	5.75
502.226	5.83
502.574	5.86
502.923	5.93
503.271	6.03
503.619	6.12
503.967	6.19
504.315	6.3
504.663	6.38
505.011	6.48
505.359	6.56
505.707	6.64
506.055	6.73
506.403	6.82
506.751	6.89
507.098	6.96
507.446	7.06
507.794	7.16
508.141	7.26
508.489	7.36
508.837	7.44
509.184	7.56
509.531	7.65
509.879	7.79
510.226	7.88
510.574	7.99
510.921	8.11
511.268	8.24
511.616	8.36
511.963	8.48
512.31	8.62
512.657	8.76
513.004	8.9
513.351	9.05
513.698	9.22
514.045	9.41
514.392	9.6
514.739	9.79
515.086	9.97
515.432	10.18
515.779	10.34
516.126	10.55
516.473	10.73
516.819	10.93
517.166	11.11
517.512	11.28
517.859	11.46
518.205	11.62
518.552	11.77
518.898	11.91
519.245	12.07
519.591	12.21
519.937	12.41
520.283	12.57
520.629	12.78
520.976	12.97
521.322	13.17
521.668	13.4
522.014	13.61
522.36	13.84
522.706	14.04
523.052	14.31
523.398	14.58
523.743	14.84
524.089	15.09
524.435	15.33
524.781	15.56
525.126	15.75
525.472	15.96
525.817	16.17
526.163	16.35
526.509	16.5
526.854	16.67
527.199	16.78
527.545	16.95
527.89	17.06
528.235	17.22
528.581	17.36
528.926	17.5
529.271	17.65
529.616	17.78
529.961	17.94
530.306	18.07
530.651	18.18
530.996	18.32
531.341	18.48
531.686	18.66
532.031	18.83
532.376	19.02
532.721	19.19
533.065	19.36
533.41	19.56
533.755	19.78
534.099	19.95
534.444	20.14
534.788	20.31
535.133	20.52
535.477	20.69
535.822	20.87
536.166	21.06
536.51	21.28
536.855	21.48
537.199	21.65
537.543	21.88
537.887	22.15
538.231	22.4
538.576	22.61
538.92	22.83
539.264	23.03
539.608	23.21
539.951	23.41
540.295	23.57
540.639	23.73
540.983	23.89
541.327	24.08
541.671	24.25
542.014	24.42
542.358	24.58
542.701	24.73
543.045	24.89
543.389	25.05
543.732	25.16
544.075	25.34
544.419	25.53
544.762	25.74
545.105	25.9
545.449	26.08
545.792	26.28
546.135	26.51
546.478	26.7
546.821	26.95
547.165	27.17
547.508	27.43
547.851	27.67
548.194	27.88
548.536	28.08
548.879	28.31
549.222	28.53
549.565	28.78
549.908	29.01
550.25	29.25
550.593	29.53
550.936	29.81
551.278	30.06
551.621	30.35
551.963	30.56
552.306	30.83
552.648	31.04
552.991	31.27
553.333	31.39
553.675	31.69
554.017	31.89
554.36	32.12
554.702	32.32
555.044	32.55
555.386	32.79
555.728	33.06
556.07	33.3
556.412	33.52
556.754	33.72
557.096	33.96
557.438	34.16
557.78	34.32
558.121	34.51
558.463	34.69
558.805	34.88
559.147	35.1
559.488	35.25
559.83	35.45
560.171	35.68
560.513	35.93
560.854	36.05
561.196	36.26
561.537	36.46
561.878	36.67
562.22	36.86
562.561	37.04
562.902	37.23
563.243	37.4
563.584	37.61
563.925	37.76
564.266	37.87
564.607	38.03
564.948	38.23
565.289	38.4
565.63	38.53
565.971	38.68
566.312	38.83
566.653	39
566.993	39.2
567.334	39.33
567.675	39.47
568.015	39.62
568.356	39.78
568.696	39.94
569.037	40.07
569.377	40.19
569.718	40.35
570.058	40.48
570.398	40.59
570.739	40.75
571.079	40.89
571.419	41.06
571.759	41.2
572.099	41.31
572.439	41.44
572.779	41.62
573.119	41.75
573.459	41.9
573.799	42.02
574.139	42.15
574.479	42.25
574.819	42.4
575.158	42.52
575.498	42.65
575.838	42.78
576.177	42.92
576.517	43.03
576.856	43.16
577.196	43.25
577.535	43.4
577.875	43.53
578.214	43.61
578.553	43.76
578.893	43.86
579.232	43.97
579.571	44.14
579.91	44.25
580.25	44.37
580.589	44.41
580.928	44.48
581.267	44.55
581.606	44.62
581.945	44.76
582.283	44.86
582.622	44.95
582.961	45.02
583.3	45.14
583.639	45.23
583.977	45.29
584.316	45.41
584.654	45.5
584.993	45.51
585.332	45.63
585.67	45.71
586.008	45.76
586.347	45.78
586.685	45.86
587.024	45.95
587.362	46.04
587.7	46.18
588.038	46.31
588.376	46.37
588.715	46.52
589.053	46.6
589.391	46.73
589.729	46.82
590.067	46.83
590.404	46.84
590.742	46.93
591.08	47.06
591.418	47.13
591.756	47.19
592.093	47.31
592.431	47.39
592.769	47.41
593.106	47.52
593.444	47.67
593.781	47.65
594.119	47.72
594.456	47.76
594.793	47.78
595.131	47.82
595.468	47.94
595.805	47.99
596.143	47.98
596.48	48.05
596.817	48.03
597.154	48.12
597.491	48.25
597.828	48.29
598.165	48.29
598.502	48.35
598.839	48.38
599.176	48.48
599.512	48.51
599.849	48.63
600.186	48.79
600.523	48.83
600.859	48.94
601.196	48.89
601.532	48.97
601.869	49.07
602.205	49.12
602.542	49.11
602.878	49.14
603.215	49.22
603.551	49.23
603.887	49.37
604.223	49.38
604.56	49.44
604.896	49.53
605.232	49.57
605.568	49.62
605.904	49.66
606.24	49.69
606.576	49.73
606.912	49.79
607.248	49.78
607.583	49.88
607.919	49.91
608.255	50.02
608.591	50.05
608.926	50.14
609.262	50.14
609.597	50.19
609.933	50.28
610.268	50.3
610.604	50.36
610.939	50.28
611.275	50.35
611.61	50.23
611.945	50.2
612.281	50.27
612.616	50.33
612.951	50.45
613.286	50.47
613.621	50.64
613.956	50.68
614.291	50.64
614.626	50.6
614.961	50.65
615.296	50.77
615.631	50.87
615.966	50.76
616.3	50.8
616.635	50.81
616.97	50.78
617.304	50.84
617.639	50.75
617.973	50.85
618.308	50.82
618.642	50.95
618.977	51.02
619.311	51.02
619.646	51.06
619.98	51.01
620.314	50.96
620.648	50.82
620.983	50.86
621.317	50.94
621.651	50.9
621.985	50.93
622.319	50.92
622.653	50.89
622.987	51.03
623.321	51.15
623.655	51.28
623.988	51.37
624.322	51.34
624.656	51.46
624.99	51.49
625.323	51.66
625.657	51.74
625.99	51.84
626.324	51.94
626.657	51.81
626.991	51.86
627.324	51.93
627.658	52.03
627.991	52.03
628.324	52.08
628.657	52.23
628.991	52.22
629.324	52.17
629.657	52.12
629.99	52.14
630.323	52.17
630.656	52.19
630.989	52.08
631.322	52.12
631.655	52.23
631.987	52.31
632.32	52.21
632.653	52.18
632.986	52.16
633.318	52.1
633.651	52.24
633.984	52.29
634.316	52.3
634.649	52.42
634.981	52.41
635.313	52.45
635.646	52.46
635.978	52.51
636.31	52.56
636.643	52.66
636.975	52.73
637.307	52.7
637.639	52.71
637.971	52.79
638.303	52.86
638.635	52.79
638.967	52.71
639.299	52.77
639.631	52.77
639.963	52.65
640.295	52.66
640.626	52.71
640.958	52.75
641.29	52.79
641.621	52.72
641.953	52.69
642.285	52.64
642.616	52.63
642.948	52.66
643.279	52.64
643.61	52.67
643.942	52.72
644.273	52.79
644.604	52.67
644.936	52.79
645.267	52.79
645.598	52.79
645.929	52.82
646.26	52.8
646.591	52.86
646.922	52.98
647.253	53.02
647.584	52.95
647.915	52.99
648.245	52.98
648.576	52.97
648.907	53.08
649.238	53.1
649.568	53.03
649.899	53.03
650.229	53.19
650.56	53.18
650.89	53.12
651.221	53.1
651.551	53.24
651.882	53.19
652.212	53.22
652.542	53.23
652.872	53.28
653.203	53.28
653.533	53.26
653.863	53.24
654.193	53.28
654.523	53.28
654.853	53.28
655.183	53.33
655.513	53.44
655.843	53.45
656.172	53.57
656.502	53.64
656.832	53.67
657.162	53.67
657.491	53.69
657.821	53.64
658.15	53.59
658.48	53.58
658.809	53.61
659.139	53.54
659.468	53.53
659.798	53.7
660.127	53.71
660.456	53.71
660.785	53.68
661.115	53.64
661.444	53.77
661.773	53.77
662.102	53.77
662.431	53.74
662.76	53.73
663.089	53.75
663.418	53.76
663.747	53.92
664.076	53.81
664.404	53.87
664.733	53.98
665.062	54.02
665.39	54.07
665.719	54.11
666.048	54.16
666.376	54.24
666.705	54.12
667.033	54.22
667.362	54.25
667.69	54.42
668.018	54.44
668.347	54.33
668.675	54.32
669.003	54.37
669.331	54.37
669.659	54.41
669.987	54.36
670.315	54.28
670.643	54.16
670.971	54.09
671.299	54.09
671.627	54
671.955	53.96
672.283	53.91
672.61	53.96
672.938	53.89
673.266	53.87
673.593	53.8
673.921	53.85
674.249	53.9
674.576	53.85
674.904	53.86
675.231	54.02
675.558	54.03
675.886	54.06
676.213	53.99
676.54	54.13
676.867	54.22
677.195	54.48
677.522	54.6
677.849	54.72
678.176	54.7
678.503	54.79
678.83	54.88
679.157	54.89
679.484	54.8
679.81	54.95
680.137	54.93
680.464	54.97
680.791	54.99
681.117	55.03
681.444	55.15
681.771	55.19
682.097	55.08
682.424	55.09
682.75	55.15
683.077	55.13
683.403	54.99
683.729	54.9
684.056	54.69
684.382	54.57
684.708	54.6
685.034	54.58
685.36	54.55
685.686	54.61
686.012	54.7
686.339	54.71
686.664	54.7
686.99	54.8
687.316	54.83
687.642	54.78
687.968	54.77
688.294	54.63
688.619	54.59
688.945	54.67
689.271	54.63
689.596	54.46
689.922	54.72
690.247	54.84
690.573	54.82
690.898	55.09
691.224	55.2
691.549	55.23
691.874	55.28
692.2	55.27
692.525	55.15
692.85	55.12
693.175	55.2
693.5	55.18
693.825	55.2
694.15	54.98
694.475	54.98
694.8	54.9
695.125	55
695.45	55.21
695.775	55.34
696.099	55.45
696.424	55.57
696.749	55.51
697.073	55.46
697.398	55.62
697.723	55.5
698.047	55.56
698.372	55.57
698.696	55.53
699.02	55.5
699.345	55.54
699.669	55.52
699.993	55.51
700.318	55.48
700.642	55.34
700.966	55.49
701.29	55.56
701.614	55.53
701.938	55.59
702.262	55.36
702.586	55.27
702.91	55.25
703.234	55.28
703.557	55.37
703.881	55.52
704.205	55.26
704.529	55.16
704.852	55.03
705.176	55.04
705.499	55.13
705.823	55.32
706.146	55.4
706.47	55.6
706.793	55.73
707.117	55.67
707.44	55.69
707.763	55.83
708.086	55.57
708.409	55.61
708.733	55.38
709.056	55.55
709.379	55.66
709.702	55.64
710.025	55.66
710.348	55.45
710.671	55.41
710.993	55.65
711.316	55.83
711.639	55.9
711.962	55.79
712.284	55.68
712.607	55.75
712.93	55.84
713.252	55.69
713.575	55.73
713.897	55.95
714.22	56
714.542	55.94
714.864	56.19
715.187	56.11
715.509	56.17
715.831	56.07
716.153	56.01
716.475	56.01
716.798	55.84
717.12	55.98
717.442	55.65
717.764	55.61
718.085	55.33
718.407	55.25
718.729	55.43
719.051	55.5
719.373	55.59
719.695	55.52
720.016	55.62
720.338	55.5
720.659	55.51
720.981	55.66
721.302	55.67
721.624	55.57
721.945	55.86
722.267	56.02
722.588	56.33
722.909	56.3
723.231	56.25
723.552	56.3
723.873	56.25
724.194	56.56
724.515	56.61
724.836	56.95
725.157	57.1
725.478	57.01
725.799	57.2
726.12	56.91
726.441	56.75
726.762	56.49
727.083	56.63
727.403	56.44
727.724	56.28
728.045	56.34
728.365	56.41
728.686	56.29
729.006	56.01
729.327	55.71
729.647	55.79
729.967	55.86
730.288	55.84
730.608	55.82
730.928	55.69
731.249	55.63
731.569	55.64
731.889	55.37
732.209	55.45
732.529	55.18
732.849	55.23
733.169	55.43
733.489	55.59
733.809	55.47
734.129	55.39
734.448	55.52
734.768	55.39
735.088	55.33
735.408	55.42
735.727	55.56
736.047	55.61
736.366	55.49
736.686	55.47
737.005	55.53
737.325	55.35
737.644	55.55
737.963	55.69
738.283	55.69
738.602	56.09
738.921	56.1
739.24	56.35
739.56	56.44
739.879	56.22
740.198	56.16
740.517	56.33
740.836	56.35
741.155	56.29
741.473	56.4
741.792	56.45
742.111	56.36
742.43	56.54
742.748	56.87
743.067	56.9
743.386	56.96
743.704	57.25
744.023	57.26
744.341	57.32
744.66	56.98
744.978	56.66
745.297	56.42
745.615	56.15
745.933	56.02
746.252	55.93
746.57	56.17
746.888	56.2
747.206	56.33
747.524	56.69
747.842	56.75
748.16	56.74
748.478	56.71
748.796	56.89
749.114	56.87
749.432	56.85
749.749	56.91
750.067	56.93
750.385	56.76
750.703	56.92
751.02	56.74
751.338	57.09
751.655	57.33
751.973	57.22
752.29	57.4
752.608	57.48
752.925	57.46
753.242	57.57
753.56	57.66
753.877	57.37
754.194	57.27
754.511	57.39
754.828	57.44
755.145	57.41
755.462	57.26
755.779	57.04
756.096	56.85
756.413	57.22
756.73	57.22
757.047	57.24
757.364	57.41
757.68	57.51
757.997	57.46
758.314	57.64
758.63	57.94
758.947	57.77
759.264	57.75
759.58	58
759.896	57.71
760.213	57.67
760.529	57.66
760.846	57.55
761.162	57.31
761.478	57.37
761.794	57.71
762.11	58.03
762.426	57.89
762.743	58.05
763.059	57.99
763.375	57.89
763.69	57.93
764.006	57.84
764.322	57.8
764.638	57.98
764.954	57.95
765.27	58.05
765.585	58.16
765.901	58.07
766.216	57.92
766.532	57.93
766.848	57.88
767.163	57.85
767.478	58.12
767.794	58.18
768.109	58.36
768.424	58.11
768.74	57.76
769.055	58.1
769.37	57.97
769.685	57.77
770	57.94
770.315	57.85
770.63	57.91
770.945	57.82
771.26	57.62
771.575	57.73
771.89	57.56
772.205	57.71
772.52	57.77
772.834	57.88
773.149	57.81
773.464	58.03
773.778	58.08
774.093	57.79
774.407	57.76
774.722	57.58
775.036	57.77
775.351	58.32
775.665	58.62
775.979	58.57
776.293	58.68
776.608	58.35
776.922	58.01
777.236	58.03
777.55	58.46
777.864	58
778.178	57.8
778.492	57.69
778.806	57.43
779.12	57.56
779.434	57.43
779.747	57.56
780.061	57.81
780.375	57.35
780.689	57.14
781.002	57.52
781.316	57.56
781.629	57.62
781.943	57.01
782.256	56.46
782.57	56.18
782.883	56.21
783.196	56.55
783.51	57.07
783.823	57.5
784.136	56.98
784.449	57.19
784.762	56.71
785.075	57.1
785.388	57.31
785.701	57.46
786.014	57.51
786.327	57.55
786.64	57.59
786.953	57.99
787.266	58.53
787.578	58.41
787.891	58.17
788.204	57.87
788.516	58.02
788.829	58.53
789.141	58.46
789.454	58.3
789.766	58.49
790.079	58.42
790.391	58.24
790.703	58.43
791.016	58.5
791.328	58.88
791.64	58.73
791.952	58.8
792.264	58.32
792.576	57.87
792.888	57.6
793.2	57.08
793.512	57.48
793.824	57.36
794.136	57.29
794.448	57.81
794.76	57.45
795.071	56.96
795.383	56.97
795.695	56.96
796.006	56.3
796.318	56.22
796.629	56.06
796.941	56.13
797.252	56.22
797.564	56.75
797.875	57.13
798.186	56.64
798.497	56.48
798.809	56.94
799.12	57.17
799.431	57.16
799.742	57.28
800.053	57.02
800.364	56.6
800.675	57.12
800.986	56.66
801.297	57.43
801.608	57.71
801.918	57.27
802.229	58.37
802.54	58.76
802.851	58.21
803.161	57.65
803.472	56.98
803.782	56.67
804.093	56.37
804.403	55.91
804.714	56.18
805.024	56.26
805.334	56.34
805.645	56.57
805.955	57.12
806.265	56.77
806.575	56.47
806.885	57.05
807.195	56.1
807.505	55.56
807.815	54.67
808.125	54.71
808.435	54.88
808.745	54.05
809.055	54.43
809.365	55.27
809.674	55.65
809.984	56.23
810.294	56.33
810.603	56.21
810.913	56.88
811.222	57.64
811.532	58.04
811.841	58.53
812.151	58.03
812.46	58.21
812.769	58.57
813.079	59.01
813.388	58.89
813.697	59.02
814.006	59.48
814.315	60.53
814.624	60.64
814.933	60.86
815.242	61.73
815.551	61.41
815.86	60.52
816.169	59.91
816.478	59.45
816.786	59.95
817.095	59.6
817.404	58.7
817.712	57.75
818.021	57.5
818.33	57.16
818.638	57.83
818.947	57.84
819.255	58.02
819.563	58.54
819.872	58.56
820.18	58.71
820.488	59.1
820.796	58.88
821.105	58.91
821.413	59.18
821.721	58.89
822.029	59.02
822.337	58.97
822.645	59.45
822.953	59.4
823.26	59.29
823.568	59.39
823.876	59.24
824.184	59.15
824.491	59.28
824.799	59.38
825.107	59.26
825.414	59.3
825.722	59.3
826.029	59.1
826.337	59.13
826.644	59.14
826.951	59.06
827.259	59.31
827.566	59.28
827.873	59.07
828.18	59.09
828.488	59.06
828.795	59.37
829.102	59.2
829.409	59.31
829.716	59.44
830.023	59.3
830.329	59.83
830.636	60.46
830.943	60.3
831.25	60
831.557	60.12
831.863	60.13
832.17	60.04
832.476	60.33
832.783	60.52
833.089	60.13
833.396	60.08
833.702	59.76
834.009	60.25
834.315	59.7
834.621	59.53
834.928	59.79
835.234	59.46
835.54	59.21
835.846	59.21
836.152	59.48
836.458	59.38
836.764	59.44
837.07	58.98
837.376	58.95
837.682	59.45
837.988	59.34
838.293	58.98
838.599	59
838.905	59.06
839.211	58.93
839.516	59.61
839.822	59.28
840.127	59.57
840.433	60.07
840.738	60.58
841.044	61.54
841.349	61.92
841.654	61.99
841.959	62.15
842.265	62.45
842.57	61.63
842.875	62.88
843.18	62.52
843.485	63.41
843.79	63.25
844.095	61.87
844.4	63.43
844.705	63.98
845.01	63.77
845.315	63.68
845.619	63.68
845.924	63.97
846.229	65.16
846.533	66.49
846.838	65.46
847.142	66.67
847.447	64.54
847.751	63.13
848.056	63.61
848.36	63.56
848.664	61.76
848.969	59.82
849.273	58.24
849.577	57.98
849.881	57.16
850.185	57.4
850.489	58.34
850.794	57.32
851.097	56.74
851.401	57.56
851.705	56.22
852.009	55.61
852.313	54.08
852.617	52.3
852.92	51.23
853.224	51.09
853.528	51.27
853.831	53.43
854.135	53.37
854.438	53.74
854.742	53.92
855.045	55.66
855.349	56.82
855.652	57.79
855.955	58.82
856.259	59.95
856.562	59.68
856.865	58.99
857.168	58.94
857.471	60.68
857.774	60.63
858.077	61.92
858.38	62.42
858.683	63.96
858.986	64.09
859.289	63.61
859.592	63.76
859.894	61.59
860.197	60.5
860.5	60.07
860.802	59.84
861.105	61.21
861.407	62.07
861.71	63.96
862.012	62.12
862.315	60.77
862.617	59.86
862.919	60.52
863.222	60.38
863.524	60.11
863.826	60.51
864.128	61.35
864.43	61.63
864.732	60.58
865.034	61
865.336	61.67
865.638	60.16
865.94	58.28
866.242	61.82
866.544	61.42
866.846	61.82
867.147	60.31
867.449	57.94
867.751	58.3
868.052	57.35
868.354	58.22
868.655	58.47
868.957	57.72
869.258	56.2
869.56	58.69
869.861	59.1
870.162	56.35
870.463	56.17
870.765	55.68
871.066	54.88
871.367	54.1
871.668	54.13
871.969	53.35
872.27	52.9
872.571	51.34
872.872	54.75
873.173	54.13
873.473	54.99
873.774	56.52
874.075	55.43
874.376	55.96
874.676	55.75
874.977	56.09
875.277	55.24
875.578	58.89
875.878	56.97
876.179	56.05
876.479	57.58
876.78	56.49
877.08	56.24
877.38	57.67
877.68	58.1
877.981	58.76
878.281	60.64
878.581	64.79
