Data from BU26939_Reflection_00010.txt Node
Date: Tue Nov 19 10:56:53 EST 2019
User: vgr7
Spectrometer: USB2G7710
Scans to average: 3
Trigger mode: 4
Integration Time (sec): 2.000000E-2
Electric dark correction enabled: true
Boxcar width: 10
XAxis mode: Wavelengths
Number of Pixels in Spectrum: 2048
>>>>>Begin Spectral Data<<<<<
177.721	10.88
178.105	-2.84
178.488	-46.75
178.871	-148.48
179.254	7.41
179.636	119.9
180.019	868.82
180.402	88.24
180.785	-25.16
181.168	-63.48
181.55	-585.19
181.933	317.17
182.316	-140.11
182.698	-4.94
183.081	568.25
183.463	335.63
183.846	165.89
184.228	124.22
184.611	88.54
184.993	63.93
185.376	48.02
185.758	41.74
186.14	23.47
186.522	19.98
186.904	7.18
187.287	48.45
187.669	63.93
188.051	55.48
188.433	49.95
188.815	60.37
189.197	49.69
189.579	25.75
189.961	15.23
190.342	24.61
190.724	-0.13
191.106	-4
191.488	-1.39
191.869	1.55
192.251	2.44
192.633	-0.32
193.014	6.01
193.396	12.13
193.777	14.35
194.159	18.32
194.54	15.92
194.922	7.81
195.303	-1.8
195.684	-13.39
196.065	-4.3
196.447	3.81
196.828	7.99
197.209	11.07
197.59	14.62
197.971	10.42
198.352	-0.08
198.733	5.05
199.114	-2.73
199.495	2.9
199.876	2.85
200.257	-2.97
200.638	-0.28
201.018	0.15
201.399	-1.21
201.78	-4.53
202.16	3.01
202.541	7.1
202.922	10.52
203.302	11.22
203.683	21.92
204.063	22.96
204.444	3.03
204.824	-2.1
205.204	9.2
205.585	13.17
205.965	17.08
206.345	17.09
206.725	17.46
207.106	15.15
207.486	10.09
207.866	16.38
208.246	28.46
208.626	24.9
209.006	18.78
209.386	21.38
209.766	22.72
210.145	14.77
210.525	8.05
210.905	3.57
211.285	14.59
211.664	20.19
212.044	18.92
212.424	27.46
212.803	24.8
213.183	14.78
213.562	20.58
213.942	19.4
214.321	15.22
214.701	9.94
215.08	15.47
215.459	30.45
215.838	28.47
216.218	32.03
216.597	37.37
216.976	31.75
217.355	35.04
217.734	25.84
218.113	24.79
218.492	24.79
218.871	44.44
219.25	37.09
219.629	28.02
220.008	15.22
220.387	27.72
220.766	43.69
221.144	47.53
221.523	38.8
221.902	48.74
222.28	51.45
222.659	55.91
223.037	45.05
223.416	32.17
223.794	27.06
224.173	16.73
224.551	18.76
224.929	18.95
225.308	18.39
225.686	21.03
226.064	17.74
226.442	20.91
226.821	14.73
227.199	13.03
227.577	15.17
227.955	17.78
228.333	10.58
228.711	9.77
229.089	9.76
229.467	5.32
229.845	2.62
230.222	2.29
230.6	-0.23
230.978	1
231.356	-1.07
231.733	-0.9
232.111	0.75
232.488	0.59
232.866	2.62
233.243	0.96
233.621	0.92
233.998	1.76
234.376	1.07
234.753	0.59
235.13	-0.29
235.508	-1.41
235.885	-3.1
236.262	-1.77
236.639	-1.43
237.016	0.13
237.393	2.66
237.77	3.84
238.147	4.25
238.524	4.9
238.901	5.07
239.278	5.65
239.655	5.52
240.032	4.64
240.409	4.3
240.785	3.6
241.162	3.85
241.539	3.66
241.915	3.81
242.292	4.02
242.668	3.76
243.045	3.98
243.421	4.5
243.798	4.47
244.174	4.41
244.551	4.2
244.927	4.01
245.303	3.8
245.679	3.55
246.056	3.67
246.432	3.5
246.808	3.68
247.184	3.94
247.56	3.89
247.936	4.14
248.312	4.14
248.688	4.17
249.064	4.17
249.44	4.04
249.815	4.11
250.191	4.27
250.567	4.66
250.943	4.85
251.318	4.5
251.694	4.43
252.069	4.51
252.445	4.51
252.82	4.54
253.196	4.51
253.571	5.03
253.947	4.79
254.322	4.72
254.697	4.49
255.073	4.19
255.448	4.21
255.823	4.13
256.198	4.05
256.573	4.1
256.948	4.09
257.323	4.48
257.698	4.27
258.073	3.91
258.448	3.92
258.823	3.68
259.198	3.75
259.573	3.79
259.948	3.82
260.322	3.87
260.697	4.04
261.072	4.11
261.446	4
261.821	3.94
262.195	4
262.57	4.1
262.944	4.06
263.319	4.24
263.693	4.05
264.067	4.02
264.442	4.09
264.816	4.11
265.19	3.93
265.564	4.01
265.938	4.35
266.313	4.11
266.687	4.17
267.061	4.06
267.435	4.16
267.809	4.06
268.183	4.05
268.556	3.71
268.93	3.86
269.304	3.67
269.678	3.82
270.051	3.76
270.425	3.83
270.799	3.85
271.172	3.68
271.546	3.85
271.919	3.84
272.293	3.78
272.666	3.76
273.04	3.74
273.413	3.77
273.787	3.46
274.16	3.53
274.533	3.71
274.906	3.91
275.279	3.86
275.653	3.92
276.026	3.98
276.399	4.02
276.772	4.14
277.145	4.37
277.518	4.29
277.891	4.25
278.263	4.12
278.636	4.24
279.009	4.15
279.382	4
279.755	3.97
280.127	4.04
280.5	3.91
280.872	3.98
281.245	3.85
281.617	4.23
281.99	4.26
282.362	4.07
282.735	3.85
283.107	3.75
283.479	3.72
283.852	3.61
284.224	3.64
284.596	3.31
284.968	3.18
285.34	3.23
285.713	3.36
286.085	3.36
286.457	3.14
286.829	3.25
287.201	3.34
287.572	3.5
287.944	3.45
288.316	3.5
288.688	3.37
289.06	3.44
289.431	3.33
289.803	3.29
290.175	3.42
290.546	3.49
290.918	3.57
291.289	3.55
291.661	3.65
292.032	3.62
292.403	3.83
292.775	3.97
293.146	3.93
293.517	3.85
293.889	3.83
294.26	4.03
294.631	3.92
295.002	3.98
295.373	3.85
295.744	3.87
296.115	3.96
296.486	4.06
296.857	4.08
297.228	3.97
297.599	4.02
297.97	4.06
298.34	4.14
298.711	4.15
299.082	4.19
299.452	4.23
299.823	4.25
300.194	4.24
300.564	4.15
300.935	4.28
301.305	4.25
301.676	4.17
302.046	4.21
302.416	4.27
302.787	4.33
303.157	4.37
303.527	4.46
303.897	4.43
304.267	4.51
304.637	4.61
305.008	4.74
305.378	4.87
305.748	4.79
306.117	4.77
306.487	4.65
306.857	4.75
307.227	4.75
307.597	4.85
307.967	4.81
308.336	4.87
308.706	4.83
309.076	5.03
309.445	5.31
309.815	5.32
310.184	5.35
310.554	5.4
310.923	5.46
311.293	5.48
311.662	5.64
312.031	5.58
312.401	5.46
312.77	5.44
313.139	5.43
313.508	5.41
313.877	5.44
314.246	5.65
314.616	5.67
314.985	5.65
315.353	5.66
315.722	5.73
316.091	5.72
316.46	5.73
316.829	5.7
317.198	5.54
317.567	5.57
317.935	5.62
318.304	5.7
318.672	5.82
319.041	5.79
319.41	5.64
319.778	5.85
320.147	5.98
320.515	6.13
320.883	6.09
321.252	6.29
321.62	6.34
321.988	6.34
322.357	6.38
322.725	6.41
323.093	6.47
323.461	6.7
323.829	6.84
324.197	6.93
324.565	6.98
324.933	7.07
325.301	7.04
325.669	7.07
326.037	7.16
326.405	7.04
326.772	7
327.14	6.94
327.508	6.9
327.875	6.88
328.243	6.85
328.61	6.9
328.978	6.77
329.346	6.74
329.713	6.8
330.08	6.8
330.448	6.82
330.815	6.86
331.182	6.71
331.55	6.62
331.917	6.66
332.284	6.64
332.651	6.74
333.018	6.77
333.385	6.82
333.752	6.76
334.119	6.9
334.486	6.92
334.853	7.02
335.22	6.94
335.587	7.04
335.954	7.1
336.32	7.16
336.687	7.2
337.054	7.33
337.42	7.24
337.787	7.19
338.153	7.32
338.52	7.44
338.886	7.48
339.253	7.48
339.619	7.52
339.986	7.53
340.352	7.6
340.718	7.65
341.084	7.62
341.451	7.57
341.817	7.59
342.183	7.68
342.549	7.68
342.915	7.82
343.281	7.76
343.647	7.72
344.013	7.73
344.379	7.79
344.745	7.79
345.11	7.8
345.476	8.02
345.842	7.93
346.208	7.87
346.573	7.79
346.939	7.81
347.304	7.75
347.67	7.81
348.035	7.71
348.401	7.8
348.766	7.87
349.132	7.93
349.497	7.93
349.862	7.98
350.228	8.09
350.593	8.01
350.958	8.13
351.323	8.14
351.688	8.2
352.053	8.26
352.418	8.2
352.783	8.33
353.148	8.2
353.513	8.13
353.878	8.02
354.243	8.11
354.608	8.18
354.972	8.19
355.337	8.17
355.702	8.19
356.066	8.14
356.431	8.1
356.795	8.15
357.16	8.12
357.524	8.12
357.889	8.04
358.253	8.07
358.618	8.04
358.982	8.05
359.346	7.99
359.71	7.99
360.075	7.98
360.439	7.91
360.803	7.96
361.167	7.97
361.531	8.05
361.895	7.99
362.259	7.97
362.623	7.89
362.987	7.9
363.351	7.79
363.714	7.72
364.078	7.72
364.442	7.59
364.806	7.6
365.169	7.53
365.533	7.53
365.896	7.54
366.26	7.42
366.623	7.42
366.987	7.44
367.35	7.39
367.714	7.39
368.077	7.41
368.44	7.34
368.803	7.38
369.167	7.31
369.53	7.25
369.893	7.21
370.256	7.27
370.619	7.18
370.982	7.2
371.345	7.16
371.708	7.13
372.071	7.12
372.434	7.05
372.797	7.03
373.159	6.95
373.522	6.86
373.885	6.91
374.247	6.84
374.61	6.78
374.973	6.81
375.335	6.79
375.698	6.67
376.06	6.61
376.423	6.53
376.785	6.46
377.147	6.4
377.51	6.35
377.872	6.23
378.234	6.26
378.596	6.24
378.958	6.22
379.321	6.16
379.683	6.16
380.045	6.1
380.407	6.04
380.769	6.01
381.13	5.92
381.492	5.88
381.854	5.83
382.216	5.76
382.578	5.67
382.939	5.63
383.301	5.63
383.663	5.62
384.024	5.6
384.386	5.59
384.747	5.58
385.109	5.56
385.47	5.6
385.832	5.55
386.193	5.52
386.554	5.45
386.916	5.48
387.277	5.43
387.638	5.42
387.999	5.4
388.36	5.39
388.721	5.42
389.082	5.4
389.443	5.4
389.804	5.38
390.165	5.32
390.526	5.29
390.887	5.26
391.248	5.21
391.609	5.19
391.969	5.18
392.33	5.2
392.691	5.17
393.051	5.12
393.412	5.09
393.772	5.08
394.133	5.09
394.493	5
394.854	4.96
395.214	4.94
395.574	4.9
395.935	4.86
396.295	4.81
396.655	4.75
397.015	4.73
397.376	4.71
397.736	4.68
398.096	4.61
398.456	4.6
398.816	4.56
399.176	4.5
399.535	4.45
399.895	4.38
400.255	4.37
400.615	4.34
400.975	4.28
401.334	4.21
401.694	4.19
402.054	4.18
402.413	4.15
402.773	4.13
403.132	4.12
403.492	4.12
403.851	4.11
404.211	4.07
404.57	4.05
404.929	4.01
405.288	4.03
405.648	4.04
406.007	4.02
406.366	4.04
406.725	4.04
407.084	4.01
407.443	4.03
407.802	4
408.161	3.97
408.52	4
408.879	4.01
409.238	4.01
409.596	4.01
409.955	4.02
410.314	4
410.673	3.99
411.031	3.95
411.39	3.93
411.748	3.95
412.107	3.91
412.465	3.94
412.824	3.9
413.182	3.89
413.54	3.91
413.899	3.88
414.257	3.9
414.615	3.91
414.974	3.91
415.332	3.93
415.69	3.94
416.048	3.93
416.406	3.9
416.764	3.88
417.122	3.87
417.48	3.86
417.838	3.86
418.195	3.84
418.553	3.83
418.911	3.82
419.269	3.8
419.626	3.79
419.984	3.77
420.342	3.77
420.699	3.75
421.057	3.72
421.414	3.72
421.772	3.7
422.129	3.67
422.486	3.66
422.844	3.64
423.201	3.63
423.558	3.62
423.915	3.62
424.273	3.6
424.63	3.6
424.987	3.59
425.344	3.58
425.701	3.58
426.058	3.58
426.415	3.57
426.772	3.57
427.128	3.57
427.485	3.57
427.842	3.56
428.199	3.56
428.555	3.54
428.912	3.51
429.269	3.51
429.625	3.54
429.982	3.54
430.338	3.53
430.695	3.53
431.051	3.51
431.407	3.48
431.764	3.47
432.12	3.47
432.476	3.46
432.832	3.47
433.189	3.44
433.545	3.43
433.901	3.44
434.257	3.44
434.613	3.42
434.969	3.41
435.325	3.41
435.681	3.42
436.036	3.44
436.392	3.43
436.748	3.41
437.104	3.4
437.459	3.38
437.815	3.37
438.171	3.37
438.526	3.38
438.882	3.39
439.237	3.4
439.593	3.41
439.948	3.39
440.304	3.4
440.659	3.41
441.014	3.41
441.369	3.4
441.725	3.41
442.08	3.44
442.435	3.44
442.79	3.43
443.145	3.43
443.5	3.41
443.855	3.42
444.21	3.43
444.565	3.42
444.92	3.43
445.275	3.43
445.629	3.43
445.984	3.43
446.339	3.44
446.693	3.44
447.048	3.39
447.403	3.39
447.757	3.37
448.112	3.37
448.466	3.36
448.82	3.35
449.175	3.33
449.529	3.31
449.883	3.3
450.238	3.3
450.592	3.28
450.946	3.28
451.3	3.27
451.654	3.26
452.008	3.25
452.362	3.24
452.716	3.21
453.07	3.2
453.424	3.18
453.778	3.17
454.132	3.18
454.486	3.19
454.839	3.2
455.193	3.2
455.547	3.21
455.9	3.22
456.254	3.22
456.607	3.23
456.961	3.23
457.314	3.23
457.668	3.23
458.021	3.24
458.375	3.24
458.728	3.25
459.081	3.27
459.434	3.27
459.787	3.27
460.141	3.29
460.494	3.32
460.847	3.33
461.2	3.32
461.553	3.31
461.906	3.34
462.259	3.33
462.611	3.34
462.964	3.36
463.317	3.37
463.67	3.38
464.022	3.4
464.375	3.4
464.728	3.42
465.08	3.44
465.433	3.44
465.785	3.47
466.138	3.48
466.49	3.47
466.843	3.47
467.195	3.49
467.547	3.49
467.899	3.45
468.252	3.47
468.604	3.49
468.956	3.52
469.308	3.5
469.66	3.51
470.012	3.54
470.364	3.53
470.716	3.54
471.068	3.56
471.42	3.58
471.772	3.59
472.123	3.6
472.475	3.58
472.827	3.57
473.178	3.58
473.53	3.56
473.882	3.6
474.233	3.6
474.585	3.61
474.936	3.62
475.288	3.64
475.639	3.66
475.99	3.64
476.342	3.62
476.693	3.63
477.044	3.64
477.395	3.63
477.746	3.63
478.097	3.62
478.448	3.62
478.8	3.59
479.15	3.58
479.501	3.56
479.852	3.56
480.203	3.58
480.554	3.57
480.905	3.58
481.255	3.58
481.606	3.58
481.957	3.58
482.307	3.56
482.658	3.57
483.009	3.56
483.359	3.57
483.709	3.57
484.06	3.57
484.41	3.57
484.761	3.57
485.111	3.56
485.461	3.57
485.811	3.56
486.162	3.56
486.512	3.56
486.862	3.56
487.212	3.56
487.562	3.56
487.912	3.56
488.262	3.56
488.612	3.55
488.961	3.55
489.311	3.54
489.661	3.55
490.011	3.54
490.36	3.54
490.71	3.53
491.06	3.54
491.409	3.54
491.759	3.55
492.108	3.55
492.458	3.55
492.807	3.55
493.157	3.57
493.506	3.58
493.855	3.59
494.204	3.61
494.554	3.63
494.903	3.62
495.252	3.63
495.601	3.65
495.95	3.66
496.299	3.71
496.648	3.75
496.997	3.78
497.346	3.81
497.695	3.85
498.043	3.91
498.392	3.96
498.741	3.99
499.09	4.02
499.438	4.08
499.787	4.14
500.135	4.17
500.484	4.21
500.832	4.28
501.181	4.35
501.529	4.43
501.878	4.49
502.226	4.57
502.574	4.63
502.923	4.7
503.271	4.76
503.619	4.82
503.967	4.89
504.315	4.96
504.663	5.03
505.011	5.12
505.359	5.19
505.707	5.25
506.055	5.34
506.403	5.44
506.751	5.53
507.098	5.62
507.446	5.74
507.794	5.84
508.141	5.94
508.489	6.05
508.837	6.12
509.184	6.27
509.531	6.39
509.879	6.5
510.226	6.65
510.574	6.8
510.921	6.94
511.268	7.08
511.616	7.22
511.963	7.39
512.31	7.53
512.657	7.68
513.004	7.83
513.351	8.01
513.698	8.18
514.045	8.38
514.392	8.58
514.739	8.79
515.086	8.99
515.432	9.19
515.779	9.39
516.126	9.61
516.473	9.77
516.819	9.95
517.166	10.15
517.512	10.29
517.859	10.45
518.205	10.59
518.552	10.77
518.898	10.95
519.245	11.13
519.591	11.33
519.937	11.52
520.283	11.74
520.629	11.96
520.976	12.2
521.322	12.41
521.668	12.61
522.014	12.85
522.36	13.1
522.706	13.38
523.052	13.67
523.398	13.95
523.743	14.26
524.089	14.57
524.435	14.89
524.781	15.2
525.126	15.46
525.472	15.72
525.817	15.94
526.163	16.15
526.509	16.34
526.854	16.52
527.199	16.68
527.545	16.85
527.89	17.01
528.235	17.17
528.581	17.35
528.926	17.54
529.271	17.72
529.616	17.88
529.961	18.03
530.306	18.21
530.651	18.39
530.996	18.59
531.341	18.79
531.686	18.96
532.031	19.17
532.376	19.4
532.721	19.6
533.065	19.82
533.41	20.04
533.755	20.28
534.099	20.51
534.444	20.76
534.788	20.98
535.133	21.2
535.477	21.42
535.822	21.63
536.166	21.88
536.51	22.15
536.855	22.45
537.199	22.75
537.543	23.03
537.887	23.35
538.231	23.66
538.576	23.98
538.92	24.31
539.264	24.57
539.608	24.82
539.951	25.1
540.295	25.33
540.639	25.59
540.983	25.8
541.327	26.01
541.671	26.21
542.014	26.45
542.358	26.66
542.701	26.85
543.045	27.08
543.389	27.3
543.732	27.5
544.075	27.71
544.419	27.92
544.762	28.16
545.105	28.37
545.449	28.59
545.792	28.81
546.135	29.01
546.478	29.24
546.821	29.56
547.165	29.82
547.508	30.09
547.851	30.35
548.194	30.63
548.536	30.94
548.879	31.21
549.222	31.46
549.565	31.76
549.908	32.09
550.25	32.36
550.593	32.61
550.936	32.89
551.278	33.18
551.621	33.44
551.963	33.71
552.306	33.99
552.648	34.25
552.991	34.5
553.333	34.74
553.675	35.01
554.017	35.22
554.36	35.39
554.702	35.58
555.044	35.82
555.386	36.02
555.728	36.26
556.07	36.53
556.412	36.73
556.754	36.96
557.096	37.16
557.438	37.41
557.78	37.65
558.121	37.87
558.463	38.1
558.805	38.3
559.147	38.5
559.488	38.71
559.83	38.91
560.171	39.13
560.513	39.35
560.854	39.6
561.196	39.76
561.537	40.04
561.878	40.31
562.22	40.47
562.561	40.7
562.902	40.84
563.243	40.95
563.584	41.16
563.925	41.38
564.266	41.6
564.607	41.76
564.948	41.94
565.289	42.1
565.63	42.25
565.971	42.45
566.312	42.61
566.653	42.73
566.993	42.91
567.334	43.06
567.675	43.25
568.015	43.36
568.356	43.48
568.696	43.62
569.037	43.73
569.377	43.87
569.718	43.99
570.058	44.2
570.398	44.41
570.739	44.56
571.079	44.64
571.419	44.73
571.759	44.85
572.099	44.94
572.439	45.13
572.779	45.21
573.119	45.31
573.459	45.37
573.799	45.52
574.139	45.6
574.479	45.7
574.819	45.77
575.158	45.88
575.498	46.01
575.838	46.08
576.177	46.2
576.517	46.37
576.856	46.47
577.196	46.54
577.535	46.62
577.875	46.77
578.214	46.91
578.553	47.03
578.893	47.2
579.232	47.37
579.571	47.43
579.91	47.63
580.25	47.79
580.589	47.96
580.928	48.08
581.267	48.24
581.606	48.32
581.945	48.5
582.283	48.66
582.622	48.8
582.961	48.93
583.3	49.01
583.639	49.08
583.977	49.21
584.316	49.28
584.654	49.4
584.993	49.39
585.332	49.45
585.67	49.52
586.008	49.54
586.347	49.6
586.685	49.69
587.024	49.71
587.362	49.72
587.7	49.81
588.038	49.95
588.376	50
588.715	50.1
589.053	50.13
589.391	50.12
589.729	50.2
590.067	50.29
590.404	50.44
590.742	50.49
591.08	50.61
591.418	50.72
591.756	50.76
592.093	50.85
592.431	50.95
592.769	51.09
593.106	51.17
593.444	51.23
593.781	51.24
594.119	51.3
594.456	51.41
594.793	51.48
595.131	51.41
595.468	51.5
595.805	51.54
596.143	51.65
596.48	51.72
596.817	51.81
597.154	51.85
597.491	51.88
597.828	51.93
598.165	51.97
598.502	51.98
598.839	52.1
599.176	52.17
599.512	52.23
599.849	52.27
600.186	52.32
600.523	52.42
600.859	52.51
601.196	52.52
601.532	52.56
601.869	52.63
602.205	52.68
602.542	52.73
602.878	52.79
603.215	52.74
603.551	52.79
603.887	52.83
604.223	52.86
604.56	52.87
604.896	52.89
605.232	52.92
605.568	52.98
605.904	52.99
606.24	53.05
606.576	53.13
606.912	53.18
607.248	53.22
607.583	53.26
607.919	53.33
608.255	53.44
608.591	53.48
608.926	53.48
609.262	53.58
609.597	53.63
609.933	53.61
610.268	53.69
610.604	53.71
610.939	53.69
611.275	53.77
611.61	53.86
611.945	53.92
612.281	53.94
612.616	54.03
612.951	54.07
613.286	54.06
613.621	54.05
613.956	54.04
614.291	54.08
614.626	54.09
614.961	54.16
615.296	54.13
615.631	54.16
615.966	54.22
616.3	54.25
616.635	54.18
616.97	54.26
617.304	54.34
617.639	54.46
617.973	54.49
618.308	54.46
618.642	54.38
618.977	54.44
619.311	54.55
619.646	54.51
619.98	54.55
620.314	54.61
620.648	54.57
620.983	54.61
621.317	54.69
621.651	54.66
621.985	54.64
622.319	54.78
622.653	54.82
622.987	54.85
623.321	54.88
623.655	54.93
623.988	55
624.322	54.95
624.656	54.88
624.99	55.02
625.323	55.04
625.657	55.09
625.99	55.05
626.324	55
626.657	55.09
626.991	55.11
627.324	55.11
627.658	55.13
627.991	55.14
628.324	55.13
628.657	55.19
628.991	55.19
629.324	55.14
629.657	55.21
629.99	55.28
630.323	55.24
630.656	55.32
630.989	55.34
631.322	55.4
631.655	55.45
631.987	55.33
632.32	55.44
632.653	55.49
632.986	55.55
633.318	55.59
633.651	55.57
633.984	55.56
634.316	55.61
634.649	55.77
634.981	55.81
635.313	55.88
635.646	55.88
635.978	55.91
636.31	55.97
636.643	55.97
636.975	55.92
637.307	56.04
637.639	56.07
637.971	56.09
638.303	56.14
638.635	56.15
638.967	56.29
639.299	56.25
639.631	56.28
639.963	56.22
640.295	56.15
640.626	56.16
640.958	56.21
641.29	56.24
641.621	56.15
641.953	56.16
642.285	56.21
642.616	56.2
642.948	56.24
643.279	56.18
643.61	56.18
643.942	56.23
644.273	56.26
644.604	56.19
644.936	56.21
645.267	56.3
645.598	56.32
645.929	56.29
646.26	56.24
646.591	56.23
646.922	56.29
647.253	56.39
647.584	56.41
647.915	56.42
648.245	56.44
648.576	56.52
648.907	56.57
649.238	56.5
649.568	56.57
649.899	56.66
650.229	56.78
650.56	56.79
650.89	56.88
651.221	56.79
651.551	56.89
651.882	56.9
652.212	56.82
652.542	56.91
652.872	56.86
653.203	56.94
653.533	56.91
653.863	56.92
654.193	57
654.523	57.04
654.853	57.15
655.183	57.17
655.513	57.16
655.843	57.07
656.172	57.25
656.502	57.14
656.832	57.14
657.162	57.16
657.491	57.15
657.821	57.1
658.15	57.31
658.48	57.28
658.809	57.36
659.139	57.38
659.468	57.35
659.798	57.4
660.127	57.42
660.456	57.45
660.785	57.48
661.115	57.53
661.444	57.5
661.773	57.4
662.102	57.42
662.431	57.49
662.76	57.55
663.089	57.4
663.418	57.62
663.747	57.69
664.076	57.73
664.404	57.76
664.733	57.8
665.062	57.75
665.39	57.72
665.719	57.71
666.048	57.68
666.376	57.75
666.705	57.83
667.033	57.87
667.362	57.93
667.69	58.02
668.018	58.01
668.347	58.08
668.675	58.03
669.003	58.02
669.331	58.01
669.659	58.04
669.987	58.07
670.315	58.1
670.643	58.08
670.971	58.04
671.299	57.97
671.627	57.84
671.955	57.62
672.283	57.68
672.61	57.74
672.938	57.77
673.266	57.73
673.593	57.78
673.921	57.65
674.249	57.76
674.576	57.87
674.904	57.94
675.231	57.89
675.558	58
675.886	57.97
676.213	57.96
676.54	57.88
676.867	58.1
677.195	58.02
677.522	57.98
677.849	57.82
678.176	57.82
678.503	57.87
678.83	58.11
679.157	58.1
679.484	58.05
679.81	58.01
680.137	58.06
680.464	58.01
680.791	58.02
681.117	57.95
681.444	57.85
681.771	57.81
682.097	57.86
682.424	57.81
682.75	57.86
683.077	57.77
683.403	57.93
683.729	57.87
684.056	57.92
684.382	58
684.708	58.18
685.034	58.29
685.36	58.58
685.686	58.58
686.012	58.59
686.339	58.56
686.664	58.73
686.99	58.61
687.316	58.71
687.642	58.85
687.968	58.83
688.294	58.84
688.619	58.93
688.945	58.98
689.271	58.91
689.596	58.98
689.922	58.97
690.247	59.05
690.573	58.84
690.898	58.82
691.224	58.69
691.549	58.73
691.874	58.67
692.2	58.5
692.525	58.42
692.85	58.62
693.175	58.68
693.5	58.48
693.825	58.72
694.15	58.69
694.475	58.74
694.8	58.94
695.125	59.1
695.45	58.89
695.775	58.91
696.099	59.06
696.424	59.18
696.749	59.32
697.073	59.25
697.398	59.22
697.723	59.27
698.047	59.33
698.372	59.21
698.696	59.24
699.02	59.14
699.345	59.17
699.669	59.06
699.993	59.02
700.318	59.19
700.642	59.08
700.966	59
701.29	58.95
701.614	58.87
701.938	58.76
702.262	58.73
702.586	58.74
702.91	58.64
703.234	58.42
703.557	58.36
703.881	58.25
704.205	58.29
704.529	58.13
704.852	58.13
705.176	58.38
705.499	58.5
705.823	58.41
706.146	58.47
706.47	58.37
706.793	58.42
707.117	58.45
707.44	58.32
707.763	58.42
708.086	58.37
708.409	58.22
708.733	58.18
709.056	58.28
709.379	58.25
709.702	58.46
710.025	58.62
710.348	58.76
710.671	58.95
710.993	59.08
711.316	59.1
711.639	59.08
711.962	59.11
712.284	59
712.607	59.08
712.93	59.02
713.252	59.13
713.575	59.23
713.897	59.18
714.22	59.35
714.542	59.33
714.864	59.37
715.187	59.52
715.509	59.47
715.831	59.66
716.153	59.76
716.475	59.63
716.798	59.64
717.12	59.56
717.442	59.4
717.764	59.46
718.085	59.57
718.407	59.61
718.729	59.52
719.051	59.75
719.373	60.1
719.695	60.09
720.016	60.02
720.338	59.99
720.659	60
720.981	60.18
721.302	60.25
721.624	60.11
721.945	59.9
722.267	59.96
722.588	59.74
722.909	59.52
723.231	59.65
723.552	59.59
723.873	59.53
724.194	59.64
724.515	59.6
724.836	59.59
725.157	59.72
725.478	59.73
725.799	59.63
726.12	59.24
726.441	59.21
726.762	59.18
727.083	59.42
727.403	59.41
727.724	59.29
728.045	59.27
728.365	59.35
728.686	59.51
729.006	59.71
729.327	59.92
729.647	59.89
729.967	59.95
730.288	60.06
730.608	60.24
730.928	60.23
731.249	60.23
731.569	60.22
731.889	60.12
732.209	60.08
732.529	60.23
732.849	60.38
733.169	60.43
733.489	60.46
733.809	60.34
734.129	60.32
734.448	60.27
734.768	60.26
735.088	60.29
735.408	60.41
735.727	60.16
736.047	60.04
736.366	60.37
736.686	60.08
737.005	59.86
737.325	59.66
737.644	59.89
737.963	60.03
738.283	60.16
738.602	60.34
738.921	60.37
739.24	60.39
739.56	60.45
739.879	60.62
740.198	60.79
740.517	60.62
740.836	60.85
741.155	60.95
741.473	60.99
741.792	61.02
742.111	60.99
742.43	61.2
742.748	61.32
743.067	61.12
743.386	61.14
743.704	61.19
744.023	61.06
744.341	60.67
744.66	60.49
744.978	60.45
745.297	60.1
745.615	60.05
745.933	59.88
746.252	59.98
746.57	59.92
746.888	59.8
747.206	59.99
747.524	59.58
747.842	59.54
748.16	59.59
748.478	59.98
748.796	59.85
749.114	60.04
749.432	60.07
749.749	59.97
750.067	60.07
750.385	60.08
750.703	60.17
751.02	60.18
751.338	60.22
751.655	60.14
751.973	60.17
752.29	60.1
752.608	60.06
752.925	59.93
753.242	59.91
753.56	60.38
753.877	60.2
754.194	60.37
754.511	60.44
754.828	60.24
755.145	60.03
755.462	60.18
755.779	59.99
756.096	59.9
756.413	60.08
756.73	60.19
757.047	60
757.364	60.48
757.68	60.64
757.997	60.89
758.314	60.7
758.63	60.77
758.947	60.77
759.264	61.05
759.58	61.06
759.896	61.07
760.213	60.62
760.529	60.47
760.846	60.51
761.162	60.23
761.478	60.53
761.794	60.52
762.11	60.27
762.426	60.63
762.743	60.73
763.059	60.76
763.375	60.94
763.69	61.13
764.006	61.14
764.322	61.18
764.638	61.09
764.954	61.17
765.27	61.16
765.585	61.34
765.901	61
766.216	61.05
766.532	61.18
766.848	61.44
767.163	61.71
767.478	61.76
767.794	62.05
768.109	62.28
768.424	62.19
768.74	62.58
769.055	62.21
769.37	61.99
769.685	62.16
770	61.99
770.315	61.78
770.63	61.74
770.945	61.87
771.26	61.78
771.575	61.8
771.89	61.94
772.205	61.99
772.52	62.36
772.834	62.37
773.149	62.48
773.464	62.42
773.778	62.17
774.093	62.14
774.407	62.24
774.722	62.01
775.036	61.94
775.351	61.85
775.665	61.89
775.979	62.13
776.293	61.86
776.608	62.06
776.922	62.56
777.236	62.43
777.55	61.87
777.864	61.86
778.178	61.84
778.492	61.75
778.806	61.59
779.12	61.14
779.434	61.03
779.747	60.73
780.061	60.4
780.375	60.79
780.689	61.19
781.002	60.97
781.316	60.73
781.629	61.21
781.943	61.2
782.256	60.64
782.57	60.73
782.883	60.63
783.196	60.65
783.51	60.61
783.823	60.13
784.136	60.56
784.449	60.88
784.762	61.28
785.075	61.48
785.388	61.41
785.701	61.89
786.014	61.77
786.327	61.76
786.64	61.98
786.953	61.92
787.266	61.47
787.578	61.24
787.891	60.99
788.204	60.85
788.516	60.91
788.829	61.79
789.141	61.54
789.454	61.64
789.766	61.7
790.079	61.49
790.391	61.88
790.703	61.88
791.016	61.84
791.328	61.72
791.64	61.51
791.952	61.35
792.264	60.95
792.576	61.01
792.888	61.3
793.2	61.26
793.512	61.38
793.824	62.1
794.136	62.89
794.448	63.22
794.76	63.67
795.071	64.08
795.383	64.02
795.695	64.43
796.006	64.46
796.318	64.38
796.629	64.55
796.941	64.23
797.252	64.25
797.564	63.95
797.875	64.51
798.186	64.47
798.497	64.25
798.809	64.29
799.12	64.61
799.431	63.6
799.742	63.21
800.053	62.57
800.364	62.4
800.675	62.05
800.986	62.18
801.297	61.68
801.608	60.76
801.918	60.49
802.229	59.94
802.54	59.89
802.851	59.82
803.161	59.84
803.472	59.97
803.782	60.27
804.093	60.66
804.403	59.88
804.714	60.48
805.024	60.49
805.334	60.54
805.645	60.32
805.955	60.97
806.265	61.26
806.575	62.16
806.885	61.49
807.195	61.69
807.505	60.93
807.815	60.55
808.125	60.86
808.435	61.03
808.745	61.58
809.055	61.82
809.365	61.52
809.674	61.36
809.984	61.71
810.294	61.38
810.603	60.88
810.913	60.55
811.222	59.7
811.532	60.19
811.841	60.89
812.151	61.15
812.46	61.37
812.769	61.19
813.079	60.6
813.388	60.45
813.697	59.87
814.006	61.51
814.315	62.41
814.624	62.85
814.933	62.98
815.242	62.49
815.551	63.01
815.86	63.26
816.169	63.11
816.478	63.05
816.786	63.34
817.095	63.89
817.404	64.78
817.712	66.17
818.021	65.65
818.33	64.92
818.638	64.82
818.947	64.42
819.255	64.63
819.563	64.35
819.872	64.75
820.18	64.95
820.488	64.15
820.796	63.91
821.105	63.65
821.413	63.51
821.721	63.49
822.029	62.84
822.337	62.68
822.645	62.85
822.953	62.84
823.26	62.68
823.568	62.65
823.876	62.27
824.184	61.98
824.491	62.19
824.799	62.16
825.107	62.18
825.414	62.16
825.722	61.99
826.029	62.13
826.337	61.9
826.644	61.75
826.951	61.86
827.259	61.98
827.566	61.93
827.873	62
828.18	61.97
828.488	62.31
828.795	62.39
829.102	62.04
829.409	61.92
829.716	62.14
830.023	62.13
830.329	62.37
830.636	62.56
830.943	62.5
831.25	62.69
831.557	63.06
831.863	63.35
832.17	63.5
832.476	63.68
832.783	63.79
833.089	63.74
833.396	63.9
833.702	63.68
834.009	63.85
834.315	63.37
834.621	63.29
834.928	63.25
835.234	63.51
835.54	64.12
835.846	64.14
836.152	64.32
836.458	64.06
836.764	64.61
837.07	64.46
837.376	64.51
837.682	64.33
837.988	63.79
838.293	63.39
838.599	63.1
838.905	62.63
839.211	62.2
839.516	61.81
839.822	61.22
840.127	60.82
840.433	60.58
840.738	60.42
841.044	60.49
841.349	60.17
841.654	59.63
841.959	58.42
842.265	58.61
842.57	57.74
842.875	57.23
843.18	56.48
843.485	55.81
843.79	54.38
844.095	54.9
844.4	54.42
844.705	54.77
845.01	55.47
845.315	55.36
845.619	55.55
845.924	55.71
846.229	55.92
846.533	55.48
846.838	55.35
847.142	56.93
847.447	57.04
847.751	59.02
848.056	60.26
848.36	62.14
848.664	60.41
848.969	60.15
849.273	60.6
849.577	60.98
849.881	62.01
850.185	63.24
850.489	63.98
850.794	65.63
851.097	65.23
851.401	64.38
851.705	65.7
852.009	67.47
852.313	64.58
852.617	64.48
852.92	65.49
853.224	66.92
853.528	62.64
853.831	63.12
854.135	61.14
854.438	60.81
854.742	59.91
855.045	59.62
855.349	58.48
855.652	59.91
855.955	58.96
856.259	60
856.562	59.6
856.865	59.49
857.168	59.21
857.471	58.99
857.774	59.12
858.077	57.86
858.38	58.44
858.683	61.24
858.986	61.44
859.289	61.58
859.592	61.12
859.894	65.11
860.197	62.4
860.5	63.41
860.802	63.27
861.105	62.45
861.407	63.99
861.71	65.33
862.012	66.88
862.315	66.61
862.617	65.86
862.919	66.58
863.222	67.19
863.524	67.74
863.826	68.74
864.128	68.5
864.43	67.87
864.732	67.16
865.034	69.14
865.336	68.05
865.638	65.71
865.94	64.79
866.242	62.19
866.544	64.14
866.846	62.24
867.147	62.89
867.449	64.82
867.751	64.69
868.052	64.12
868.354	60.96
868.655	62.52
868.957	62.62
869.258	60.84
869.56	58.6
869.861	58.59
870.162	57.6
870.463	57.4
870.765	58.3
871.066	58.73
871.367	57.73
871.668	60.2
871.969	62.3
872.27	61.78
872.571	63.71
872.872	63.35
873.173	65.04
873.473	64.53
873.774	61.89
874.075	61.62
874.376	60.93
874.676	61.27
874.977	60.2
875.277	57.78
875.578	59.26
875.878	59.81
876.179	57.53
876.479	58.32
876.78	59.98
877.08	59.1
877.38	56.97
877.68	56.63
877.981	53.62
878.281	53
878.581	53.24
