Data from BU26842_Reflection_00005.txt Node
Date: Mon Nov 18 16:38:33 EST 2019
User: vgr7
Spectrometer: USB2G7710
Scans to average: 3
Trigger mode: 4
Integration Time (sec): 2.000000E-2
Electric dark correction enabled: true
Boxcar width: 10
XAxis mode: Wavelengths
Number of Pixels in Spectrum: 2048
>>>>>Begin Spectral Data<<<<<
177.721	125.4
178.105	70.65
178.488	58.72
178.871	17.72
179.254	55.77
179.636	-15.8
180.019	26.01
180.402	118.6
180.785	162.26
181.168	72.74
181.55	112.13
181.933	336.36
182.316	-803.45
182.698	-1478.51
183.081	-469.23
183.463	-69.94
183.846	-148.92
184.228	-95.79
184.611	-114.08
184.993	-99.31
185.376	-147.47
185.758	-162.53
186.14	271.55
186.522	193.25
186.904	-57.36
187.287	2341.38
187.669	31.8
188.051	6.96
188.433	19.84
188.815	1.77
189.197	-23.07
189.579	-27.11
189.961	16.26
190.342	1.84
190.724	12.51
191.106	11.35
191.488	8.9
191.869	9.09
192.251	5.25
192.633	20.41
193.014	18.77
193.396	15.34
193.777	-1.95
194.159	-8.15
194.54	-7.89
194.922	-10.68
195.303	-7.22
195.684	-15.02
196.065	4.15
196.447	-2.69
196.828	1.41
197.209	14.15
197.59	25.08
197.971	15.25
198.352	19.79
198.733	30.55
199.114	32.25
199.495	15.24
199.876	15.12
200.257	16.55
200.638	13.68
201.018	-3.98
201.399	-10.37
201.78	10.9
202.16	33.43
202.541	18.26
202.922	20.8
203.302	49.91
203.683	135.03
204.063	105.47
204.444	132.51
204.824	88.56
205.204	58.98
205.585	58.69
205.965	61.15
206.345	71.32
206.725	46.52
207.106	58.59
207.486	107.32
207.866	179.97
208.246	191.44
208.626	155.68
209.006	132.72
209.386	159.53
209.766	165.97
210.145	115.57
210.525	125.02
210.905	103.33
211.285	74.71
211.664	49.8
212.044	50.77
212.424	52.11
212.803	53.39
213.183	63.05
213.562	48.28
213.942	36.38
214.321	35.04
214.701	33.08
215.08	16.26
215.459	17.62
215.838	8.36
216.218	-5.23
216.597	-6.71
216.976	0.84
217.355	-2.53
217.734	-6.88
218.113	-8.5
218.492	-16.92
218.871	-26.26
219.25	-28.93
219.629	-26.24
220.008	-30.12
220.387	-45.59
220.766	-68.69
221.144	-77.55
221.523	-85.26
221.902	-91.27
222.28	-93.5
222.659	-72.62
223.037	-48.98
223.416	-62.81
223.794	-60.9
224.173	-48.48
224.551	-44.95
224.929	-56.72
225.308	-44.82
225.686	-41.36
226.064	-33.76
226.442	-31.19
226.821	-24.05
227.199	-21.7
227.577	-21.85
227.955	-22.42
228.333	-18.94
228.711	-14.22
229.089	-10.18
229.467	-8.96
229.845	-9.6
230.222	-7.99
230.6	-8.8
230.978	-9.83
231.356	-4.91
231.733	-4.3
232.111	-2.3
232.488	0.12
232.866	3.07
233.243	2.32
233.621	1.22
233.998	3.84
234.376	3
234.753	3.6
235.13	4.2
235.508	4.59
235.885	6.29
236.262	6.6
236.639	6.34
237.016	6.6
237.393	6.92
237.77	8.32
238.147	7.42
238.524	7.04
238.901	7.48
239.278	6.86
239.655	6.99
240.032	6.65
240.409	5.38
240.785	5.24
241.162	5.76
241.539	6.22
241.915	5.63
242.292	5.06
242.668	4.65
243.045	4.54
243.421	4.54
243.798	4.05
244.174	4.06
244.551	4.05
244.927	4.1
245.303	4.38
245.679	4.21
246.056	4.32
246.432	4.23
246.808	4.17
247.184	3.86
247.56	3.86
247.936	3.52
248.312	3.57
248.688	3.58
249.064	3.42
249.44	3.32
249.815	3.26
250.191	3.71
250.567	3.69
250.943	3.76
251.318	3.6
251.694	3.63
252.069	3.72
252.445	3.69
252.82	3.51
253.196	3.23
253.571	3.23
253.947	3.18
254.322	3.36
254.697	3.18
255.073	2.81
255.448	2.64
255.823	2.94
256.198	3.07
256.573	3.21
256.948	3.32
257.323	3.33
257.698	3.58
258.073	3.48
258.448	3.48
258.823	3.42
259.198	3.55
259.573	3.79
259.948	3.71
260.322	3.83
260.697	3.68
261.072	3.71
261.446	3.72
261.821	3.63
262.195	3.69
262.57	3.71
262.944	4
263.319	4.09
263.693	4.28
264.067	4.4
264.442	4.64
264.816	4.6
265.19	4.67
265.564	4.75
265.938	4.48
266.313	4.44
266.687	4.43
267.061	4.49
267.435	4.29
267.809	4.07
268.183	4.07
268.556	4.13
268.93	4.14
269.304	4.22
269.678	4.41
270.051	4.3
270.425	4.38
270.799	4.21
271.172	4.14
271.546	3.94
271.919	3.89
272.293	3.65
272.666	3.65
273.04	3.72
273.413	3.54
273.787	3.66
274.16	3.62
274.533	3.55
274.906	3.47
275.279	3.53
275.653	3.8
276.026	3.86
276.399	3.82
276.772	3.77
277.145	3.6
277.518	3.57
277.891	3.45
278.263	3.39
278.636	3.63
279.009	3.61
279.382	3.69
279.755	3.54
280.127	3.66
280.5	3.68
280.872	3.58
281.245	3.5
281.617	3.67
281.99	3.94
282.362	3.97
282.735	3.95
283.107	3.92
283.479	3.83
283.852	3.72
284.224	3.74
284.596	3.56
284.968	3.64
285.34	3.6
285.713	3.69
286.085	3.84
286.457	3.93
286.829	4.07
287.201	4
287.572	4.05
287.944	3.91
288.316	3.99
288.688	3.97
289.06	4
289.431	3.96
289.803	3.89
290.175	3.93
290.546	4.09
290.918	4.09
291.289	4.14
291.661	4.2
292.032	4.24
292.403	4.51
292.775	4.56
293.146	4.56
293.517	4.45
293.889	4.4
294.26	4.22
294.631	4.12
295.002	4.08
295.373	4.11
295.744	4.16
296.115	4.06
296.486	3.99
296.857	3.96
297.228	4.17
297.599	3.98
297.97	3.99
298.34	3.85
298.711	3.9
299.082	3.84
299.452	3.74
299.823	3.91
300.194	3.92
300.564	3.79
300.935	3.81
301.305	3.92
301.676	3.9
302.046	3.97
302.416	4.04
302.787	4.1
303.157	4.11
303.527	4.18
303.897	4.21
304.267	4.36
304.637	4.37
305.008	4.14
305.378	4.43
305.748	4.51
306.117	4.53
306.487	4.5
306.857	4.51
307.227	4.65
307.597	4.57
307.967	4.49
308.336	4.59
308.706	4.53
309.076	4.48
309.445	4.49
309.815	4.44
310.184	4.41
310.554	4.45
310.923	4.39
311.293	4.26
311.662	4.21
312.031	4.19
312.401	4.24
312.77	4.22
313.139	4.3
313.508	4.21
313.877	4.19
314.246	4.21
314.616	4.09
314.985	4.03
315.353	3.88
315.722	3.9
316.091	3.72
316.46	3.63
316.829	3.74
317.198	3.74
317.567	3.64
317.935	3.61
318.304	3.58
318.672	3.51
319.041	3.62
319.41	3.67
319.778	3.74
320.147	3.73
320.515	3.72
320.883	3.51
321.252	3.5
321.62	3.62
321.988	3.53
322.357	3.63
322.725	3.63
323.093	3.69
323.461	3.63
323.829	3.68
324.197	3.81
324.565	3.55
324.933	3.52
325.301	3.64
325.669	3.65
326.037	3.65
326.405	3.72
326.772	3.79
327.14	3.81
327.508	3.83
327.875	3.69
328.243	3.72
328.61	3.6
328.978	3.6
329.346	3.69
329.713	3.66
330.08	3.68
330.448	3.5
330.815	3.38
331.182	3.43
331.55	3.49
331.917	3.33
332.284	3.65
332.651	3.45
333.018	3.42
333.385	3.36
333.752	3.32
334.119	3.31
334.486	3.27
334.853	3.38
335.22	3.26
335.587	3.31
335.954	3.37
336.32	3.44
336.687	3.44
337.054	3.41
337.42	3.45
337.787	3.4
338.153	3.54
338.52	3.75
338.886	3.74
339.253	3.63
339.619	3.68
339.986	3.64
340.352	3.79
340.718	3.83
341.084	3.77
341.451	3.81
341.817	3.92
342.183	3.83
342.549	3.65
342.915	3.67
343.281	3.74
343.647	3.67
344.013	3.69
344.379	3.65
344.745	3.53
345.11	3.55
345.476	3.63
345.842	3.64
346.208	3.53
346.573	3.52
346.939	3.7
347.304	3.72
347.67	3.6
348.035	3.63
348.401	3.58
348.766	3.72
349.132	3.7
349.497	3.59
349.862	3.62
350.228	3.67
350.593	3.64
350.958	3.63
351.323	3.71
351.688	3.69
352.053	3.76
352.418	3.87
352.783	3.94
353.148	3.86
353.513	3.83
353.878	3.91
354.243	3.93
354.608	3.94
354.972	3.95
355.337	4.06
355.702	4.08
356.066	4.17
356.431	4.15
356.795	4.18
357.16	4.18
357.524	4.15
357.889	4.05
358.253	4.13
358.618	4.17
358.982	4.07
359.346	4.07
359.71	4.1
360.075	4
360.439	3.96
360.803	3.91
361.167	3.92
361.531	3.88
361.895	3.79
362.259	3.75
362.623	3.7
362.987	3.64
363.351	3.58
363.714	3.54
364.078	3.5
364.442	3.48
364.806	3.51
365.169	3.54
365.533	3.64
365.896	3.57
366.26	3.5
366.623	3.5
366.987	3.49
367.35	3.48
367.714	3.53
368.077	3.51
368.44	3.58
368.803	3.56
369.167	3.53
369.53	3.59
369.893	3.61
370.256	3.68
370.619	3.68
370.982	3.66
371.345	3.63
371.708	3.65
372.071	3.65
372.434	3.66
372.797	3.7
373.159	3.68
373.522	3.7
373.885	3.73
374.247	3.77
374.61	3.79
374.973	3.74
375.335	3.71
375.698	3.76
376.06	3.77
376.423	3.76
376.785	3.84
377.147	3.88
377.51	3.86
377.872	3.84
378.234	3.9
378.596	3.95
378.958	3.96
379.321	3.94
379.683	4
380.045	4.01
380.407	4.05
380.769	4.03
381.13	4.02
381.492	4.02
381.854	4
382.216	3.97
382.578	3.95
382.939	3.96
383.301	3.94
383.663	3.95
384.024	3.94
384.386	3.93
384.747	3.89
385.109	3.9
385.47	3.9
385.832	3.87
386.193	3.9
386.554	3.89
386.916	3.86
387.277	3.81
387.638	3.77
387.999	3.68
388.36	3.72
388.721	3.72
389.082	3.74
389.443	3.72
389.804	3.74
390.165	3.73
390.526	3.76
390.887	3.77
391.248	3.76
391.609	3.8
391.969	3.8
392.33	3.82
392.691	3.8
393.051	3.78
393.412	3.76
393.772	3.71
394.133	3.73
394.493	3.78
394.854	3.79
395.214	3.82
395.574	3.83
395.935	3.82
396.295	3.85
396.655	3.81
397.015	3.82
397.376	3.84
397.736	3.87
398.096	3.86
398.456	3.86
398.816	3.89
399.176	3.85
399.535	3.81
399.895	3.78
400.255	3.78
400.615	3.83
400.975	3.86
401.334	3.87
401.694	3.8
402.054	3.76
402.413	3.75
402.773	3.69
403.132	3.69
403.492	3.7
403.851	3.68
404.211	3.69
404.57	3.7
404.929	3.72
405.288	3.69
405.648	3.67
406.007	3.66
406.366	3.64
406.725	3.65
407.084	3.66
407.443	3.65
407.802	3.64
408.161	3.63
408.52	3.57
408.879	3.59
409.238	3.62
409.596	3.6
409.955	3.61
410.314	3.67
410.673	3.65
411.031	3.62
411.39	3.62
411.748	3.62
412.107	3.63
412.465	3.58
412.824	3.62
413.182	3.63
413.54	3.64
413.899	3.65
414.257	3.64
414.615	3.65
414.974	3.67
415.332	3.69
415.69	3.66
416.048	3.67
416.406	3.64
416.764	3.65
417.122	3.68
417.48	3.68
417.838	3.68
418.195	3.68
418.553	3.68
418.911	3.67
419.269	3.66
419.626	3.65
419.984	3.66
420.342	3.65
420.699	3.64
421.057	3.63
421.414	3.62
421.772	3.62
422.129	3.63
422.486	3.63
422.844	3.62
423.201	3.61
423.558	3.61
423.915	3.6
424.273	3.6
424.63	3.58
424.987	3.58
425.344	3.54
425.701	3.53
426.058	3.53
426.415	3.52
426.772	3.52
427.128	3.52
427.485	3.52
427.842	3.52
428.199	3.52
428.555	3.5
428.912	3.52
429.269	3.53
429.625	3.49
429.982	3.49
430.338	3.49
430.695	3.51
431.051	3.51
431.407	3.51
431.764	3.5
432.12	3.52
432.476	3.52
432.832	3.54
433.189	3.56
433.545	3.56
433.901	3.58
434.257	3.57
434.613	3.57
434.969	3.58
435.325	3.57
435.681	3.58
436.036	3.58
436.392	3.56
436.748	3.56
437.104	3.55
437.459	3.53
437.815	3.53
438.171	3.54
438.526	3.55
438.882	3.57
439.237	3.56
439.593	3.56
439.948	3.56
440.304	3.57
440.659	3.57
441.014	3.58
441.369	3.58
441.725	3.58
442.08	3.58
442.435	3.58
442.79	3.58
443.145	3.57
443.5	3.55
443.855	3.55
444.21	3.56
444.565	3.57
444.92	3.6
445.275	3.59
445.629	3.57
445.984	3.57
446.339	3.56
446.693	3.57
447.048	3.56
447.403	3.56
447.757	3.54
448.112	3.52
448.466	3.51
448.82	3.52
449.175	3.52
449.529	3.51
449.883	3.5
450.238	3.51
450.592	3.53
450.946	3.55
451.3	3.56
451.654	3.55
452.008	3.55
452.362	3.53
452.716	3.56
453.07	3.57
453.424	3.56
453.778	3.56
454.132	3.56
454.486	3.55
454.839	3.54
455.193	3.56
455.547	3.57
455.9	3.57
456.254	3.57
456.607	3.59
456.961	3.6
457.314	3.62
457.668	3.59
458.021	3.57
458.375	3.58
458.728	3.57
459.081	3.57
459.434	3.55
459.787	3.55
460.141	3.55
460.494	3.55
460.847	3.56
461.2	3.57
461.553	3.57
461.906	3.57
462.259	3.6
462.611	3.61
462.964	3.62
463.317	3.61
463.67	3.61
464.022	3.59
464.375	3.57
464.728	3.57
465.08	3.6
465.433	3.6
465.785	3.6
466.138	3.59
466.49	3.59
466.843	3.6
467.195	3.61
467.547	3.61
467.899	3.61
468.252	3.6
468.604	3.59
468.956	3.6
469.308	3.62
469.66	3.59
470.012	3.56
470.364	3.55
470.716	3.57
471.068	3.58
471.42	3.59
471.772	3.64
472.123	3.63
472.475	3.64
472.827	3.66
473.178	3.65
473.53	3.65
473.882	3.66
474.233	3.69
474.585	3.67
474.936	3.67
475.288	3.69
475.639	3.73
475.99	3.74
476.342	3.74
476.693	3.75
477.044	3.76
477.395	3.79
477.746	3.78
478.097	3.77
478.448	3.77
478.8	3.75
479.15	3.71
479.501	3.73
479.852	3.73
480.203	3.72
480.554	3.72
480.905	3.73
481.255	3.74
481.606	3.74
481.957	3.75
482.307	3.76
482.658	3.75
483.009	3.74
483.359	3.74
483.709	3.74
484.06	3.74
484.41	3.73
484.761	3.73
485.111	3.73
485.461	3.73
485.811	3.73
486.162	3.73
486.512	3.75
486.862	3.74
487.212	3.74
487.562	3.75
487.912	3.75
488.262	3.74
488.612	3.74
488.961	3.74
489.311	3.74
489.661	3.73
490.011	3.72
490.36	3.73
490.71	3.72
491.06	3.71
491.409	3.71
491.759	3.71
492.108	3.71
492.458	3.72
492.807	3.71
493.157	3.71
493.506	3.71
493.855	3.7
494.204	3.7
494.554	3.71
494.903	3.71
495.252	3.71
495.601	3.73
495.95	3.73
496.299	3.71
496.648	3.72
496.997	3.73
497.346	3.75
497.695	3.74
498.043	3.76
498.392	3.77
498.741	3.8
499.09	3.78
499.438	3.78
499.787	3.79
500.135	3.8
500.484	3.82
500.832	3.85
501.181	3.87
501.529	3.87
501.878	3.89
502.226	3.87
502.574	3.87
502.923	3.86
503.271	3.87
503.619	3.9
503.967	3.92
504.315	3.93
504.663	3.94
505.011	3.95
505.359	3.95
505.707	3.98
506.055	3.97
506.403	3.97
506.751	3.99
507.098	3.98
507.446	3.99
507.794	3.97
508.141	3.96
508.489	3.96
508.837	3.98
509.184	3.98
509.531	4.02
509.879	4.04
510.226	4.06
510.574	4.08
510.921	4.08
511.268	4.07
511.616	4.08
511.963	4.09
512.31	4.11
512.657	4.14
513.004	4.14
513.351	4.14
513.698	4.17
514.045	4.17
514.392	4.19
514.739	4.19
515.086	4.23
515.432	4.23
515.779	4.25
516.126	4.26
516.473	4.24
516.819	4.24
517.166	4.23
517.512	4.23
517.859	4.22
518.205	4.21
518.552	4.22
518.898	4.22
519.245	4.22
519.591	4.21
519.937	4.2
520.283	4.2
520.629	4.21
520.976	4.23
521.322	4.23
521.668	4.25
522.014	4.25
522.36	4.26
522.706	4.26
523.052	4.25
523.398	4.25
523.743	4.25
524.089	4.27
524.435	4.27
524.781	4.27
525.126	4.28
525.472	4.3
525.817	4.29
526.163	4.3
526.509	4.3
526.854	4.31
527.199	4.31
527.545	4.31
527.89	4.32
528.235	4.3
528.581	4.31
528.926	4.3
529.271	4.31
529.616	4.31
529.961	4.31
530.306	4.31
530.651	4.32
530.996	4.32
531.341	4.32
531.686	4.33
532.031	4.33
532.376	4.33
532.721	4.34
533.065	4.35
533.41	4.34
533.755	4.34
534.099	4.34
534.444	4.35
534.788	4.35
535.133	4.34
535.477	4.33
535.822	4.32
536.166	4.32
536.51	4.32
536.855	4.31
537.199	4.32
537.543	4.34
537.887	4.33
538.231	4.32
538.576	4.32
538.92	4.32
539.264	4.31
539.608	4.31
539.951	4.31
540.295	4.29
540.639	4.3
540.983	4.3
541.327	4.31
541.671	4.31
542.014	4.29
542.358	4.31
542.701	4.33
543.045	4.33
543.389	4.33
543.732	4.34
544.075	4.36
544.419	4.33
544.762	4.33
545.105	4.33
545.449	4.35
545.792	4.35
546.135	4.33
546.478	4.34
546.821	4.33
547.165	4.33
547.508	4.35
547.851	4.33
548.194	4.33
548.536	4.3
548.879	4.31
549.222	4.33
549.565	4.3
549.908	4.31
550.25	4.31
550.593	4.33
550.936	4.32
551.278	4.34
551.621	4.39
551.963	4.39
552.306	4.39
552.648	4.37
552.991	4.4
553.333	4.39
553.675	4.4
554.017	4.41
554.36	4.43
554.702	4.47
555.044	4.45
555.386	4.44
555.728	4.47
556.07	4.5
556.412	4.49
556.754	4.5
557.096	4.48
557.438	4.48
557.78	4.47
558.121	4.45
558.463	4.44
558.805	4.38
559.147	4.38
559.488	4.37
559.83	4.37
560.171	4.35
560.513	4.38
560.854	4.37
561.196	4.38
561.537	4.38
561.878	4.36
562.22	4.38
562.561	4.36
562.902	4.36
563.243	4.33
563.584	4.32
563.925	4.31
564.266	4.32
564.607	4.34
564.948	4.33
565.289	4.37
565.63	4.35
565.971	4.36
566.312	4.33
566.653	4.34
566.993	4.36
567.334	4.37
567.675	4.35
568.015	4.36
568.356	4.35
568.696	4.36
569.037	4.38
569.377	4.38
569.718	4.39
570.058	4.38
570.398	4.38
570.739	4.39
571.079	4.39
571.419	4.4
571.759	4.4
572.099	4.42
572.439	4.4
572.779	4.4
573.119	4.42
573.459	4.47
573.799	4.49
574.139	4.48
574.479	4.47
574.819	4.49
575.158	4.46
575.498	4.43
575.838	4.4
576.177	4.37
576.517	4.37
576.856	4.39
577.196	4.41
577.535	4.42
577.875	4.44
578.214	4.44
578.553	4.45
578.893	4.43
579.232	4.38
579.571	4.39
579.91	4.4
580.25	4.43
580.589	4.41
580.928	4.39
581.267	4.35
581.606	4.36
581.945	4.37
582.283	4.4
582.622	4.46
582.961	4.45
583.3	4.49
583.639	4.54
583.977	4.54
584.316	4.5
584.654	4.53
584.993	4.53
585.332	4.58
585.67	4.56
586.008	4.58
586.347	4.65
586.685	4.64
587.024	4.66
587.362	4.58
587.7	4.57
588.038	4.57
588.376	4.59
588.715	4.61
589.053	4.61
589.391	4.63
589.729	4.66
590.067	4.68
590.404	4.68
590.742	4.65
591.08	4.63
591.418	4.66
591.756	4.66
592.093	4.64
592.431	4.62
592.769	4.67
593.106	4.69
593.444	4.64
593.781	4.65
594.119	4.63
594.456	4.65
594.793	4.64
595.131	4.62
595.468	4.63
595.805	4.62
596.143	4.59
596.48	4.56
596.817	4.54
597.154	4.52
597.491	4.49
597.828	4.48
598.165	4.44
598.502	4.42
598.839	4.43
599.176	4.43
599.512	4.39
599.849	4.37
600.186	4.36
600.523	4.41
600.859	4.4
601.196	4.42
601.532	4.44
601.869	4.47
602.205	4.49
602.542	4.5
602.878	4.51
603.215	4.53
603.551	4.53
603.887	4.48
604.223	4.52
604.56	4.53
604.896	4.53
605.232	4.61
605.568	4.61
605.904	4.6
606.24	4.62
606.576	4.62
606.912	4.61
607.248	4.6
607.583	4.56
607.919	4.56
608.255	4.56
608.591	4.56
608.926	4.58
609.262	4.6
609.597	4.6
609.933	4.56
610.268	4.55
610.604	4.6
610.939	4.63
611.275	4.58
611.61	4.54
611.945	4.56
612.281	4.55
612.616	4.57
612.951	4.59
613.286	4.64
613.621	4.6
613.956	4.59
614.291	4.62
614.626	4.68
614.961	4.67
615.296	4.6
615.631	4.6
615.966	4.6
616.3	4.57
616.635	4.54
616.97	4.58
617.304	4.6
617.639	4.58
617.973	4.56
618.308	4.57
618.642	4.67
618.977	4.69
619.311	4.67
619.646	4.71
619.98	4.68
620.314	4.64
620.648	4.67
620.983	4.72
621.317	4.73
621.651	4.73
621.985	4.73
622.319	4.8
622.653	4.82
622.987	4.79
623.321	4.8
623.655	4.84
623.988	4.85
624.322	4.84
624.656	4.84
624.99	4.89
625.323	4.9
625.657	4.85
625.99	4.84
626.324	4.85
626.657	4.82
626.991	4.82
627.324	4.8
627.658	4.83
627.991	4.83
628.324	4.81
628.657	4.8
628.991	4.82
629.324	4.8
629.657	4.82
629.99	4.86
630.323	4.83
630.656	4.83
630.989	4.86
631.322	4.9
631.655	4.89
631.987	4.88
632.32	4.93
632.653	4.92
632.986	4.92
633.318	4.92
633.651	4.92
633.984	4.93
634.316	4.87
634.649	4.89
634.981	4.83
635.313	4.82
635.646	4.76
635.978	4.72
636.31	4.69
636.643	4.65
636.975	4.65
637.307	4.71
637.639	4.69
637.971	4.64
638.303	4.59
638.635	4.63
638.967	4.6
639.299	4.6
639.631	4.59
639.963	4.57
640.295	4.57
640.626	4.59
640.958	4.63
641.29	4.73
641.621	4.72
641.953	4.76
642.285	4.76
642.616	4.83
642.948	4.83
643.279	4.91
643.61	4.9
643.942	4.96
644.273	4.92
644.604	4.91
644.936	4.91
645.267	4.92
645.598	4.98
645.929	5.05
646.26	5.08
646.591	5.16
646.922	5.09
647.253	5.04
647.584	5.03
647.915	5
648.245	4.98
648.576	5
648.907	5.01
649.238	4.99
649.568	4.96
649.899	5
650.229	4.98
650.56	5.05
650.89	4.98
651.221	5.02
651.551	5.01
651.882	5.04
652.212	5.04
652.542	5
652.872	5.04
653.203	4.95
653.533	4.95
653.863	5.04
654.193	5.1
654.523	5.13
654.853	5.1
655.183	5.06
655.513	4.99
655.843	5.01
656.172	5.01
656.502	5.08
656.832	5.02
657.162	5.02
657.491	4.97
657.821	5.02
658.15	4.98
658.48	4.96
658.809	4.97
659.139	4.94
659.468	4.93
659.798	4.86
660.127	4.92
660.456	4.89
660.785	4.89
661.115	4.9
661.444	4.87
661.773	4.92
662.102	4.98
662.431	5.04
662.76	5
663.089	5.04
663.418	5.05
663.747	5.09
664.076	5.14
664.404	5.19
664.733	5.19
665.062	5.27
665.39	5.32
665.719	5.3
666.048	5.41
666.376	5.36
666.705	5.42
667.033	5.34
667.362	5.42
667.69	5.38
668.018	5.31
668.347	5.25
668.675	5.24
669.003	5.24
669.331	5.36
669.659	5.35
669.987	5.34
670.315	5.32
670.643	5.35
670.971	5.31
671.299	5.4
671.627	5.29
671.955	5.21
672.283	5.23
672.61	5.2
672.938	5.12
673.266	5.14
673.593	5.18
673.921	5.16
674.249	5.05
674.576	4.99
674.904	5.08
675.231	5.11
675.558	5.09
675.886	5.01
676.213	4.93
676.54	4.95
676.867	4.97
677.195	4.92
677.522	4.85
677.849	4.93
678.176	4.88
678.503	4.92
678.83	5.02
679.157	4.97
679.484	5
679.81	5.03
680.137	5.03
680.464	5
680.791	5.1
681.117	5.11
681.444	5.22
681.771	5.2
682.097	5.22
682.424	5.24
682.75	5.34
683.077	5.36
683.403	5.44
683.729	5.38
684.056	5.42
684.382	5.47
684.708	5.38
685.034	5.33
685.36	5.3
685.686	5.29
686.012	5.24
686.339	5.34
686.664	5.38
686.99	5.41
687.316	5.38
687.642	5.42
687.968	5.5
688.294	5.51
688.619	5.52
688.945	5.5
689.271	5.54
689.596	5.49
689.922	5.48
690.247	5.45
690.573	5.43
690.898	5.41
691.224	5.45
691.549	5.47
691.874	5.45
692.2	5.52
692.525	5.55
692.85	5.74
693.175	5.68
693.5	5.61
693.825	5.65
694.15	5.68
694.475	5.59
694.8	5.4
695.125	5.36
695.45	5.43
695.775	5.5
696.099	5.46
696.424	5.48
696.749	5.37
697.073	5.36
697.398	5.49
697.723	5.52
698.047	5.53
698.372	5.52
698.696	5.59
699.02	5.52
699.345	5.51
699.669	5.51
699.993	5.49
700.318	5.5
700.642	5.46
700.966	5.4
701.29	5.46
701.614	5.66
701.938	5.68
702.262	5.71
702.586	5.83
702.91	5.83
703.234	5.81
703.557	5.94
703.881	5.94
704.205	5.92
704.529	5.89
704.852	6.02
705.176	6.1
705.499	6.11
705.823	6.22
706.146	6.17
706.47	6.2
706.793	6.19
707.117	6.25
707.44	6.18
707.763	6.26
708.086	6.15
708.409	6.04
708.733	6.16
709.056	6.11
709.379	6.11
709.702	6.08
710.025	6.04
710.348	6.12
710.671	6.07
710.993	5.99
711.316	6.03
711.639	6.05
711.962	6.02
712.284	6.06
712.607	6.08
712.93	6.08
713.252	5.96
713.575	6.12
713.897	6.12
714.22	6.22
714.542	6.2
714.864	6.25
715.187	6.24
715.509	6.07
715.831	6.07
716.153	6.14
716.475	6.21
716.798	6.49
717.12	6.38
717.442	6.46
717.764	6.59
718.085	6.56
718.407	6.45
718.729	6.61
719.051	6.53
719.373	6.37
719.695	6.37
720.016	6.38
720.338	6.44
720.659	6.53
720.981	6.52
721.302	6.65
721.624	6.76
721.945	6.81
722.267	6.89
722.588	6.8
722.909	6.48
723.231	6.45
723.552	6.21
723.873	6.3
724.194	6.22
724.515	6.09
724.836	6.07
725.157	6.01
725.478	5.87
725.799	6.05
726.12	6.18
726.441	6.24
726.762	6.34
727.083	6.25
727.403	6.12
727.724	6.09
728.045	6.11
728.365	5.95
728.686	5.93
729.006	5.97
729.327	5.95
729.647	6.16
729.967	6.18
730.288	6.23
730.608	6.33
730.928	6.31
731.249	6.28
731.569	6.51
731.889	6.65
732.209	6.58
732.529	6.44
732.849	6.39
733.169	6.38
733.489	6.33
733.809	6.32
734.129	6.4
734.448	6.53
734.768	6.37
735.088	6.6
735.408	6.77
735.727	6.83
736.047	7.07
736.366	6.78
736.686	6.72
737.005	6.79
737.325	6.74
737.644	6.91
737.963	7.15
738.283	7.21
738.602	7.23
738.921	7.34
739.24	7.4
739.56	7.29
739.879	7.26
740.198	7.43
740.517	7.26
740.836	7.3
741.155	7.06
741.473	6.99
741.792	6.78
742.111	6.64
742.43	6.43
742.748	6.21
743.067	6.34
743.386	6.57
743.704	6.6
744.023	6.54
744.341	6.42
744.66	6.39
744.978	6.09
745.297	5.79
745.615	5.74
745.933	5.72
746.252	6.06
746.57	6.09
746.888	5.73
747.206	5.81
747.524	5.55
747.842	5.84
748.16	5.99
748.478	6.09
748.796	6.29
749.114	6.46
749.432	6.47
749.749	6.66
750.067	6.36
750.385	6.2
750.703	6.31
751.02	6.29
751.338	6.28
751.655	6.1
751.973	6.4
752.29	6.54
752.608	6.34
752.925	6.35
753.242	6.35
753.56	6.61
753.877	6.57
754.194	6.9
754.511	6.97
754.828	6.9
755.145	6.9
755.462	6.75
755.779	6.8
756.096	6.75
756.413	6.75
756.73	6.84
757.047	7.11
757.364	6.97
757.68	7.22
757.997	7.15
758.314	7.4
758.63	7.3
758.947	7.35
759.264	7.47
759.58	7.42
759.896	7.41
760.213	7.43
760.529	7.31
760.846	7.2
761.162	6.98
761.478	6.83
761.794	6.62
762.11	6.79
762.426	6.85
762.743	6.98
763.059	6.92
763.375	6.89
763.69	6.76
764.006	6.81
764.322	6.62
764.638	6.63
764.954	6.82
765.27	6.84
765.585	6.64
765.901	6.67
766.216	6.77
766.532	6.81
766.848	6.65
767.163	6.96
767.478	6.94
767.794	7.04
768.109	7.38
768.424	7.88
768.74	7.9
769.055	8.16
769.37	8.24
769.685	8.39
770	8.66
770.315	8.64
770.63	8.4
770.945	8.74
771.26	8.75
771.575	8.53
771.89	8.63
772.205	8.94
772.52	9.06
772.834	8.88
773.149	8.67
773.464	9.02
773.778	8.59
774.093	8.62
774.407	8.28
774.722	8.34
775.036	7.98
775.351	7.6
775.665	7.06
775.979	6.86
776.293	6.68
776.608	6.3
776.922	6.29
777.236	6.86
777.55	6.55
777.864	6.7
778.178	6.89
778.492	6.93
778.806	6.63
779.12	6.7
779.434	6.49
779.747	6.66
780.061	6.47
780.375	6.45
780.689	6.27
781.002	6.75
781.316	6.38
781.629	6.73
781.943	7.15
782.256	6.91
782.57	7.16
782.883	7.29
783.196	7.32
783.51	7.49
783.823	7.26
784.136	7.47
784.449	7.23
784.762	6.98
785.075	6.83
785.388	6.63
785.701	6.84
786.014	6.95
786.327	6.98
786.64	7.25
786.953	7.37
787.266	7.25
787.578	7.15
787.891	7.27
788.204	6.64
788.516	7.09
788.829	7.45
789.141	7.58
789.454	7.58
789.766	7.96
790.079	7.83
790.391	7.63
790.703	7.71
791.016	8.19
791.328	8.62
791.64	8.51
791.952	9.02
792.264	8.41
792.576	8.93
792.888	9.18
793.2	9.11
793.512	9.56
793.824	10.26
794.136	10.55
794.448	10.92
794.76	11.27
795.071	10.09
795.383	10.15
795.695	9.9
796.006	9.77
796.318	9.81
796.629	9.74
796.941	10.25
797.252	10.27
797.564	10.19
797.875	9.67
798.186	9.58
798.497	9.39
798.809	9.73
799.12	9.32
799.431	8.74
799.742	8.62
800.053	8.56
800.364	7.99
800.675	7.46
800.986	7.16
801.297	6.76
801.608	7.22
801.918	6.49
802.229	6.33
802.54	6.49
802.851	6.08
803.161	6.17
803.472	5.69
803.782	5.49
804.093	5.2
804.403	5.38
804.714	5.92
805.024	5.57
805.334	5.84
805.645	6.04
805.955	6.63
806.265	6.58
806.575	6.2
806.885	6.28
807.195	6.84
807.505	7.27
807.815	7.58
808.125	7.22
808.435	8.02
808.745	7.93
809.055	8.8
809.365	9.15
809.674	9.04
809.984	8.67
810.294	8.36
810.603	8.81
810.913	8.69
811.222	8.14
811.532	8.99
811.841	9.15
812.151	9.41
812.46	9.32
812.769	9.18
813.079	8.93
813.388	8.51
813.697	7.99
814.006	7.63
814.315	7.89
814.624	8.53
814.933	8.81
815.242	9.21
815.551	8.17
815.86	8.03
816.169	7.91
816.478	7.83
816.786	8.57
817.095	8.79
817.404	9.34
817.712	8.96
818.021	8.81
818.33	8.13
818.638	7.78
818.947	8.45
819.255	8.85
819.563	9.17
819.872	9.47
820.18	9.88
820.488	9.84
820.796	10.03
821.105	9.9
821.413	9.93
821.721	9.79
822.029	9.78
822.337	9.71
822.645	9.65
822.953	9.65
823.26	9.65
823.568	9.42
823.876	9.4
824.184	9.48
824.491	9.55
824.799	9.61
825.107	9.69
825.414	9.64
825.722	9.6
826.029	9.79
826.337	9.76
826.644	9.66
826.951	9.6
827.259	9.56
827.566	9.55
827.873	9.39
828.18	9.46
828.488	9.43
828.795	9.56
829.102	9.77
829.409	10.15
829.716	9.98
830.023	10.19
830.329	9.92
830.636	10.11
830.943	9.78
831.25	10.08
831.557	10.02
831.863	9.75
832.17	9.62
832.476	9.34
832.783	9.77
833.089	9.59
833.396	9.63
833.702	9.65
834.009	9.88
834.315	9.9
834.621	10.57
834.928	10.89
835.234	10.82
835.54	10.93
835.846	10.79
836.152	10.68
836.458	10.67
836.764	10.77
837.07	10.59
837.376	10.69
837.682	10.03
837.988	9.73
838.293	8.99
838.599	8.92
838.905	8.29
839.211	7.82
839.516	7.87
839.822	8.35
840.127	8.28
840.433	8.25
840.738	7.85
841.044	5.89
841.349	5.59
841.654	5.77
841.959	5.38
842.265	5.4
842.57	6.54
842.875	6.86
843.18	7.77
843.485	7.98
843.79	8.36
844.095	9.03
844.4	10.98
844.705	11.92
845.01	12.75
845.315	12.99
845.619	12.55
845.924	13.19
846.229	12.71
846.533	12.49
846.838	11.77
847.142	12.63
847.447	13
847.751	12.66
848.056	11.87
848.36	12.81
848.664	12.58
848.969	10.69
849.273	9.18
849.577	8.01
849.881	7.87
850.185	8.4
850.489	9.26
850.794	8.17
851.097	8.32
851.401	7.5
851.705	8.86
852.009	10
852.313	9.47
852.617	9.15
852.92	10.62
853.224	10.99
853.528	9.35
853.831	8.85
854.135	8.5
854.438	10.31
854.742	8.9
855.045	9.99
855.349	9.4
855.652	9.59
855.955	11.3
856.259	10.68
856.562	10.81
856.865	9.9
857.168	10.39
857.471	12.7
857.774	14.41
858.077	15.23
858.38	15.16
858.683	15.65
858.986	15.33
859.289	12.55
859.592	12.34
859.894	15.61
860.197	18.02
860.5	18.85
860.802	18.89
861.105	21.18
861.407	19.69
861.71	20.4
862.012	21.19
862.315	19.15
862.617	19.96
862.919	19.49
863.222	19.71
863.524	18.08
863.826	16.16
864.128	14.89
864.43	13.66
864.732	14.1
865.034	12.59
865.336	12.99
865.638	12.65
865.94	13.13
866.242	10.14
866.544	9.3
866.846	8.48
867.147	6.3
867.449	5.57
867.751	6.84
868.052	10.27
868.354	9.92
868.655	10.11
868.957	10.6
869.258	11.93
869.56	12.35
869.861	12.48
870.162	13.32
870.463	13.28
870.765	13.91
871.066	12.73
871.367	13.3
871.668	13.17
871.969	13.56
872.27	14.17
872.571	16.27
872.872	17.43
873.173	16.2
873.473	14.76
873.774	13.71
874.075	12.69
874.376	10.29
874.676	12.32
874.977	11.97
875.277	13.29
875.578	13.03
875.878	12.55
876.179	12.8
876.479	12.61
876.78	12.8
877.08	12.59
877.38	13.39
877.68	14.43
877.981	14.6
878.281	16.38
878.581	15.7
