Data from BU26847_Reflection_00008.txt Node
Date: Mon Nov 18 16:40:57 EST 2019
User: vgr7
Spectrometer: USB2G7710
Scans to average: 3
Trigger mode: 4
Integration Time (sec): 2.000000E-2
Electric dark correction enabled: true
Boxcar width: 10
XAxis mode: Wavelengths
Number of Pixels in Spectrum: 2048
>>>>>Begin Spectral Data<<<<<
177.721	86.92
178.105	167.8
178.488	-311.76
178.871	-35.14
179.254	123.26
179.636	123.97
180.019	-52.71
180.402	94.74
180.785	-70.73
181.168	631.25
181.55	1645.45
181.933	212.73
182.316	236
182.698	288.85
183.081	172.9
183.463	408.06
183.846	297.64
184.228	405.7
184.611	1245.45
184.993	21766.67
185.376	475.89
185.758	-15566.67
186.14	1193.02
186.522	1780.85
186.904	-1119.78
187.287	-1705.97
187.669	-160.97
188.051	-394.42
188.433	-268.42
188.815	-171.35
189.197	-177.66
189.579	-142.48
189.961	-137.44
190.342	-128.7
190.724	-78.05
191.106	-74.98
191.488	-71.79
191.869	-59.49
192.251	-154.64
192.633	-198.43
193.014	-158.22
193.396	-136.27
193.777	-140.15
194.159	-147.8
194.54	-130.04
194.922	-118.79
195.303	-132.84
195.684	-170.66
196.065	-95.75
196.447	-104.24
196.828	-136.5
197.209	-140.22
197.59	-206.79
197.971	-263.93
198.352	-146.75
198.733	-191.24
199.114	-180.4
199.495	-132.51
199.876	-81.99
200.257	-13.43
200.638	10.95
201.018	-21.6
201.399	-17.73
201.78	-28.28
202.16	-83.25
202.541	-93.47
202.922	-777.55
203.302	-1658.62
203.683	373.89
204.063	267.19
204.444	281.49
204.824	330.77
205.204	406.67
205.585	344.81
205.965	340.82
206.345	256.81
206.725	234.02
207.106	294.38
207.486	255.87
207.866	331.91
208.246	572.67
208.626	1050.92
209.006	476.27
209.386	466.15
209.766	823.76
210.145	717.49
210.525	1298.2
210.905	-874.52
211.285	-683.78
211.664	-341.25
212.044	-316.87
212.424	-303.97
212.803	-325.59
213.183	-251.67
213.562	-188.96
213.942	-141.46
214.321	-120.44
214.701	-112.4
215.08	-138.26
215.459	-96.89
215.838	-72.28
216.218	-105.62
216.597	-86.31
216.976	-65.51
217.355	-34.93
217.734	-41.78
218.113	-29.36
218.492	-26.6
218.871	-9.3
219.25	-5.59
219.629	-9.33
220.008	3.9
220.387	-2.82
220.766	0.71
221.144	9.86
221.523	9.25
221.902	3.23
222.28	-13.26
222.659	-2.18
223.037	6.5
223.416	6.58
223.794	-4.91
224.173	10.57
224.551	6.47
224.929	-16.99
225.308	-14.48
225.686	-7.52
226.064	-5.85
226.442	0.64
226.821	-3.52
227.199	-1.96
227.577	-1.19
227.955	-1.21
228.333	1.25
228.711	-0.43
229.089	3.24
229.467	0.14
229.845	2.73
230.222	2.59
230.6	3
230.978	4.47
231.356	5.99
231.733	5.25
232.111	5.24
232.488	6.3
232.866	9.21
233.243	7.52
233.621	5.62
233.998	7.47
234.376	6.25
234.753	7.1
235.13	5.28
235.508	6.47
235.885	3.78
236.262	2.26
236.639	2.76
237.016	2.28
237.393	4.5
237.77	3.17
238.147	3.21
238.524	3.33
238.901	2.89
239.278	2.98
239.655	4.56
240.032	4.01
240.409	2.91
240.785	3.28
241.162	3.1
241.539	3.34
241.915	3.05
242.292	2.68
242.668	3.08
243.045	3.76
243.421	3.76
243.798	4.16
244.174	4.24
244.551	3.98
244.927	3.61
245.303	3.65
245.679	3.83
246.056	4.05
246.432	3.78
246.808	3.77
247.184	3.74
247.56	3.76
247.936	3.78
248.312	3.69
248.688	3.78
249.064	3.96
249.44	4.05
249.815	4.39
250.191	4.85
250.567	4.78
250.943	4.48
251.318	4.39
251.694	4.45
252.069	4.4
252.445	4.51
252.82	4.55
253.196	4.35
253.571	4.36
253.947	4.29
254.322	4.65
254.697	4.36
255.073	4.29
255.448	3.64
255.823	3.55
256.198	4
256.573	3.78
256.948	3.85
257.323	3.86
257.698	3.59
258.073	3.19
258.448	3.07
258.823	3.22
259.198	3.21
259.573	3.12
259.948	3.14
260.322	3.09
260.697	3.24
261.072	3.24
261.446	3.18
261.821	3.17
262.195	3.17
262.57	3.29
262.944	3.3
263.319	3.47
263.693	3.6
264.067	3.43
264.442	3.62
264.816	3.51
265.19	3.33
265.564	3.34
265.938	3.52
266.313	3.53
266.687	3.6
267.061	3.72
267.435	3.8
267.809	4.04
268.183	4.05
268.556	3.92
268.93	4.02
269.304	4.14
269.678	4.18
270.051	4.08
270.425	4.06
270.799	4.04
271.172	4.06
271.546	3.88
271.919	3.9
272.293	3.8
272.666	3.7
273.04	3.88
273.413	3.75
273.787	3.7
274.16	3.81
274.533	3.73
274.906	3.62
275.279	3.43
275.653	3.23
276.026	3.34
276.399	3.41
276.772	3.44
277.145	3.36
277.518	3.21
277.891	3.29
278.263	3.23
278.636	3.26
279.009	3.18
279.382	3.43
279.755	3.45
280.127	3.63
280.5	3.74
280.872	3.8
281.245	3.83
281.617	3.87
281.99	3.71
282.362	3.72
282.735	3.71
283.107	3.74
283.479	3.77
283.852	3.59
284.224	3.7
284.596	3.68
284.968	3.74
285.34	3.89
285.713	3.81
286.085	3.9
286.457	4.04
286.829	4.17
287.201	4.13
287.572	4.12
287.944	3.93
288.316	4.02
288.688	3.91
289.06	4.03
289.431	4.06
289.803	4.22
290.175	4.19
290.546	4.37
290.918	4.57
291.289	4.64
291.661	4.88
292.032	4.9
292.403	4.97
292.775	5.04
293.146	4.98
293.517	5.15
293.889	5.28
294.26	5.16
294.631	5.3
295.002	5.3
295.373	5.24
295.744	5.27
296.115	5.2
296.486	5.13
296.857	5.15
297.228	5.22
297.599	5.23
297.97	5.39
298.34	5.28
298.711	5.27
299.082	5.28
299.452	5.25
299.823	5.18
300.194	5.19
300.564	5.25
300.935	5.23
301.305	5.22
301.676	5.26
302.046	5.33
302.416	5.33
302.787	5.42
303.157	5.48
303.527	5.58
303.897	5.63
304.267	5.92
304.637	6.07
305.008	6.24
305.378	6.33
305.748	6.32
306.117	6.4
306.487	6.56
306.857	6.6
307.227	6.73
307.597	6.82
307.967	6.91
308.336	6.93
308.706	7.11
309.076	7.02
309.445	6.99
309.815	7.09
310.184	7.15
310.554	7.21
310.923	7.34
311.293	7.39
311.662	7.45
312.031	7.59
312.401	7.54
312.77	7.6
313.139	7.67
313.508	7.77
313.877	7.75
314.246	7.75
314.616	7.78
314.985	7.79
315.353	8.02
315.722	8.16
316.091	8.12
316.46	8.2
316.829	8.42
317.198	8.66
317.567	8.76
317.935	8.79
318.304	8.87
318.672	9.03
319.041	9.2
319.41	9.32
319.778	9.11
320.147	9.33
320.515	9.2
320.883	9.21
321.252	9.32
321.62	9.64
321.988	9.67
322.357	9.77
322.725	9.95
323.093	9.84
323.461	9.79
323.829	9.88
324.197	9.86
324.565	9.86
324.933	9.79
325.301	9.84
325.669	9.83
326.037	9.93
326.405	9.87
326.772	9.79
327.14	9.84
327.508	10.02
327.875	9.98
328.243	10.16
328.61	10.32
328.978	10.33
329.346	10.32
329.713	10.22
330.08	10.39
330.448	10.36
330.815	10.3
331.182	10.32
331.55	10.44
331.917	10.56
332.284	10.81
332.651	10.88
333.018	10.96
333.385	10.97
333.752	11.14
334.119	11.24
334.486	11.36
334.853	11.45
335.22	11.49
335.587	11.68
335.954	11.61
336.32	11.49
336.687	11.55
337.054	11.59
337.42	11.78
337.787	11.8
338.153	11.86
338.52	12.01
338.886	11.99
339.253	11.96
339.619	11.96
339.986	11.92
340.352	11.98
340.718	12
341.084	12.08
341.451	11.99
341.817	12.05
342.183	12.01
342.549	12.03
342.915	12.06
343.281	11.93
343.647	12
344.013	12.03
344.379	11.99
344.745	12.03
345.11	12.06
345.476	12.07
345.842	11.95
346.208	12.06
346.573	12.12
346.939	12.2
347.304	12.14
347.67	12.15
348.035	12.12
348.401	12.06
348.766	12.13
349.132	12.1
349.497	12.05
349.862	12.18
350.228	12.14
350.593	12.16
350.958	12.21
351.323	12.13
351.688	12.25
352.053	12.32
352.418	12.36
352.783	12.36
353.148	12.31
353.513	12.38
353.878	12.36
354.243	12.38
354.608	12.36
354.972	12.45
355.337	12.48
355.702	12.48
356.066	12.54
356.431	12.48
356.795	12.49
357.16	12.54
357.524	12.5
357.889	12.52
358.253	12.47
358.618	12.57
358.982	12.54
359.346	12.45
359.71	12.37
360.075	12.37
360.439	12.32
360.803	12.29
361.167	12.27
361.531	12.21
361.895	12.13
362.259	12.12
362.623	12.11
362.987	12
363.351	12.01
363.714	11.95
364.078	11.89
364.442	11.9
364.806	11.86
365.169	11.76
365.533	11.72
365.896	11.71
366.26	11.55
366.623	11.53
366.987	11.49
367.35	11.49
367.714	11.48
368.077	11.44
368.44	11.4
368.803	11.41
369.167	11.3
369.53	11.26
369.893	11.23
370.256	11.22
370.619	11.13
370.982	10.99
371.345	10.9
371.708	10.82
372.071	10.8
372.434	10.75
372.797	10.68
373.159	10.67
373.522	10.54
373.885	10.54
374.247	10.53
374.61	10.52
374.973	10.42
375.335	10.29
375.698	10.25
376.06	10.16
376.423	10.04
376.785	10.06
377.147	10.07
377.51	9.97
377.872	9.88
378.234	9.87
378.596	9.87
378.958	9.83
379.321	9.83
379.683	9.73
380.045	9.66
380.407	9.65
380.769	9.56
381.13	9.54
381.492	9.45
381.854	9.38
382.216	9.27
382.578	9.25
382.939	9.19
383.301	9.13
383.663	9.11
384.024	9.07
384.386	9.08
384.747	9.03
385.109	9.01
385.47	8.92
385.832	8.89
386.193	8.88
386.554	8.85
386.916	8.83
387.277	8.81
387.638	8.82
387.999	8.79
388.36	8.72
388.721	8.74
389.082	8.69
389.443	8.64
389.804	8.65
390.165	8.58
390.526	8.54
390.887	8.46
391.248	8.42
391.609	8.43
391.969	8.34
392.33	8.29
392.691	8.21
393.051	8.2
393.412	8.19
393.772	8.14
394.133	8.12
394.493	8.04
394.854	7.94
395.214	7.85
395.574	7.82
395.935	7.78
396.295	7.69
396.655	7.62
397.015	7.57
397.376	7.53
397.736	7.47
398.096	7.44
398.456	7.43
398.816	7.39
399.176	7.3
399.535	7.22
399.895	7.13
400.255	7.11
400.615	7.11
400.975	7.05
401.334	6.95
401.694	6.88
402.054	6.84
402.413	6.82
402.773	6.77
403.132	6.71
403.492	6.66
403.851	6.63
404.211	6.59
404.57	6.55
404.929	6.47
405.288	6.44
405.648	6.38
406.007	6.34
406.366	6.31
406.725	6.3
407.084	6.28
407.443	6.27
407.802	6.26
408.161	6.19
408.52	6.14
408.879	6.13
409.238	6.12
409.596	6.09
409.955	6.08
410.314	6.1
410.673	6.03
411.031	6.03
411.39	6
411.748	5.99
412.107	6
412.465	6
412.824	5.96
413.182	5.94
413.54	5.96
413.899	5.95
414.257	5.95
414.615	5.97
414.974	5.95
415.332	5.92
415.69	5.9
416.048	5.88
416.406	5.87
416.764	5.85
417.122	5.82
417.48	5.77
417.838	5.75
418.195	5.75
418.553	5.72
418.911	5.68
419.269	5.66
419.626	5.65
419.984	5.62
420.342	5.6
420.699	5.58
421.057	5.55
421.414	5.5
421.772	5.46
422.129	5.42
422.486	5.39
422.844	5.36
423.201	5.34
423.558	5.34
423.915	5.31
424.273	5.29
424.63	5.27
424.987	5.27
425.344	5.24
425.701	5.23
426.058	5.21
426.415	5.21
426.772	5.18
427.128	5.16
427.485	5.15
427.842	5.14
428.199	5.14
428.555	5.12
428.912	5.14
429.269	5.15
429.625	5.13
429.982	5.13
430.338	5.13
430.695	5.14
431.051	5.09
431.407	5.09
431.764	5.06
432.12	5.04
432.476	5.01
432.832	5.01
433.189	4.98
433.545	4.96
433.901	4.95
434.257	4.97
434.613	4.95
434.969	4.94
435.325	4.95
435.681	4.92
436.036	4.94
436.392	4.95
436.748	4.94
437.104	4.96
437.459	4.96
437.815	4.97
438.171	4.95
438.526	4.97
438.882	4.99
439.237	4.99
439.593	4.99
439.948	5.01
440.304	5.01
440.659	5.05
441.014	5.08
441.369	5.07
441.725	5.06
442.08	5.04
442.435	5.04
442.79	5.04
443.145	5.03
443.5	5.01
443.855	4.99
444.21	4.97
444.565	4.95
444.92	4.95
445.275	4.93
445.629	4.92
445.984	4.92
446.339	4.89
446.693	4.88
447.048	4.87
447.403	4.85
447.757	4.81
448.112	4.79
448.466	4.76
448.82	4.77
449.175	4.76
449.529	4.76
449.883	4.75
450.238	4.73
450.592	4.73
450.946	4.74
451.3	4.74
451.654	4.75
452.008	4.76
452.362	4.75
452.716	4.75
453.07	4.74
453.424	4.73
453.778	4.73
454.132	4.73
454.486	4.73
454.839	4.72
455.193	4.73
455.547	4.72
455.9	4.74
456.254	4.74
456.607	4.74
456.961	4.74
457.314	4.75
457.668	4.75
458.021	4.71
458.375	4.71
458.728	4.69
459.081	4.68
459.434	4.66
459.787	4.64
460.141	4.64
460.494	4.66
460.847	4.66
461.2	4.68
461.553	4.68
461.906	4.71
462.259	4.72
462.611	4.74
462.964	4.75
463.317	4.74
463.67	4.74
464.022	4.76
464.375	4.76
464.728	4.77
465.08	4.82
465.433	4.85
465.785	4.86
466.138	4.9
466.49	4.92
466.843	4.96
467.195	4.99
467.547	5.03
467.899	5.03
468.252	5.06
468.604	5.05
468.956	5.08
469.308	5.11
469.66	5.11
470.012	5.14
470.364	5.14
470.716	5.16
471.068	5.17
471.42	5.18
471.772	5.2
472.123	5.21
472.475	5.22
472.827	5.24
473.178	5.25
473.53	5.26
473.882	5.28
474.233	5.29
474.585	5.28
474.936	5.27
475.288	5.29
475.639	5.29
475.99	5.31
476.342	5.3
476.693	5.3
477.044	5.31
477.395	5.3
477.746	5.31
478.097	5.31
478.448	5.31
478.8	5.31
479.15	5.3
479.501	5.31
479.852	5.29
480.203	5.3
480.554	5.3
480.905	5.29
481.255	5.28
481.606	5.28
481.957	5.28
482.307	5.27
482.658	5.27
483.009	5.26
483.359	5.26
483.709	5.26
484.06	5.26
484.41	5.26
484.761	5.26
485.111	5.26
485.461	5.26
485.811	5.26
486.162	5.25
486.512	5.26
486.862	5.25
487.212	5.26
487.562	5.26
487.912	5.26
488.262	5.27
488.612	5.28
488.961	5.27
489.311	5.27
489.661	5.27
490.011	5.27
490.36	5.27
490.71	5.29
491.06	5.28
491.409	5.27
491.759	5.28
492.108	5.29
492.458	5.31
492.807	5.33
493.157	5.34
493.506	5.38
493.855	5.39
494.204	5.39
494.554	5.4
494.903	5.41
495.252	5.44
495.601	5.48
495.95	5.49
496.299	5.54
496.648	5.59
496.997	5.65
497.346	5.69
497.695	5.73
498.043	5.75
498.392	5.8
498.741	5.83
499.09	5.87
499.438	5.92
499.787	5.97
500.135	6.01
500.484	6.07
500.832	6.1
501.181	6.17
501.529	6.25
501.878	6.33
502.226	6.4
502.574	6.47
502.923	6.53
503.271	6.61
503.619	6.7
503.967	6.78
504.315	6.85
504.663	6.95
505.011	7.04
505.359	7.14
505.707	7.25
506.055	7.36
506.403	7.45
506.751	7.53
507.098	7.6
507.446	7.71
507.794	7.81
508.141	7.92
508.489	8.04
508.837	8.13
509.184	8.23
509.531	8.34
509.879	8.47
510.226	8.6
510.574	8.71
510.921	8.82
511.268	8.94
511.616	9.07
511.963	9.18
512.31	9.3
512.657	9.45
513.004	9.59
513.351	9.74
513.698	9.9
514.045	10.07
514.392	10.26
514.739	10.42
515.086	10.59
515.432	10.75
515.779	10.89
516.126	11.06
516.473	11.21
516.819	11.35
517.166	11.46
517.512	11.6
517.859	11.72
518.205	11.85
518.552	11.99
518.898	12.13
519.245	12.26
519.591	12.39
519.937	12.52
520.283	12.67
520.629	12.83
520.976	12.95
521.322	13.12
521.668	13.27
522.014	13.43
522.36	13.61
522.706	13.78
523.052	13.98
523.398	14.19
523.743	14.39
524.089	14.61
524.435	14.81
524.781	15
525.126	15.22
525.472	15.38
525.817	15.51
526.163	15.63
526.509	15.77
526.854	15.89
527.199	16
527.545	16.09
527.89	16.2
528.235	16.33
528.581	16.44
528.926	16.54
529.271	16.65
529.616	16.74
529.961	16.86
530.306	17
530.651	17.09
530.996	17.23
531.341	17.34
531.686	17.48
532.031	17.61
532.376	17.72
532.721	17.87
533.065	18.01
533.41	18.18
533.755	18.33
534.099	18.5
534.444	18.65
534.788	18.82
535.133	18.95
535.477	19.09
535.822	19.27
536.166	19.47
536.51	19.67
536.855	19.89
537.199	20.1
537.543	20.29
537.887	20.53
538.231	20.76
538.576	20.99
538.92	21.2
539.264	21.41
539.608	21.6
539.951	21.77
540.295	21.97
540.639	22.16
540.983	22.31
541.327	22.48
541.671	22.65
542.014	22.82
542.358	23.01
542.701	23.18
543.045	23.33
543.389	23.47
543.732	23.63
544.075	23.82
544.419	24.01
544.762	24.21
545.105	24.41
545.449	24.61
545.792	24.83
546.135	25.05
546.478	25.28
546.821	25.54
547.165	25.79
547.508	26.03
547.851	26.3
548.194	26.59
548.536	26.84
548.879	27.17
549.222	27.44
549.565	27.71
549.908	28.03
550.25	28.34
550.593	28.65
550.936	28.98
551.278	29.26
551.621	29.52
551.963	29.8
552.306	30.12
552.648	30.4
552.991	30.72
553.333	31.03
553.675	31.27
554.017	31.51
554.36	31.82
554.702	32.11
555.044	32.39
555.386	32.69
555.728	32.97
556.07	33.24
556.412	33.53
556.754	33.84
557.096	34.15
557.438	34.43
557.78	34.73
558.121	35.01
558.463	35.32
558.805	35.67
559.147	35.98
559.488	36.24
559.83	36.55
560.171	36.75
560.513	37.04
560.854	37.37
561.196	37.7
561.537	38.01
561.878	38.24
562.22	38.47
562.561	38.72
562.902	39.01
563.243	39.24
563.584	39.55
563.925	39.76
564.266	39.98
564.607	40.22
564.948	40.45
565.289	40.7
565.63	40.95
565.971	41.16
566.312	41.34
566.653	41.56
566.993	41.81
567.334	42.06
567.675	42.3
568.015	42.52
568.356	42.74
568.696	42.99
569.037	43.22
569.377	43.5
569.718	43.74
570.058	43.99
570.398	44.2
570.739	44.43
571.079	44.66
571.419	44.86
571.759	45.11
572.099	45.33
572.439	45.47
572.779	45.67
573.119	45.87
573.459	46.12
573.799	46.3
574.139	46.46
574.479	46.59
574.819	46.76
575.158	46.92
575.498	47.12
575.838	47.24
576.177	47.4
576.517	47.59
576.856	47.78
577.196	47.92
577.535	48.12
577.875	48.3
578.214	48.46
578.553	48.65
578.893	48.81
579.232	48.98
579.571	49.27
579.91	49.38
580.25	49.58
580.589	49.76
580.928	49.93
581.267	50.11
581.606	50.31
581.945	50.52
582.283	50.73
582.622	50.9
582.961	51.03
583.3	51.19
583.639	51.3
583.977	51.42
584.316	51.51
584.654	51.66
584.993	51.76
585.332	52.01
585.67	52.19
586.008	52.28
586.347	52.43
586.685	52.6
587.024	52.72
587.362	52.85
587.7	52.94
588.038	53.07
588.376	53.15
588.715	53.33
589.053	53.41
589.391	53.47
589.729	53.54
590.067	53.66
590.404	53.74
590.742	53.85
591.08	54.03
591.418	54.2
591.756	54.3
592.093	54.37
592.431	54.43
592.769	54.47
593.106	54.63
593.444	54.66
593.781	54.71
594.119	54.83
594.456	54.92
594.793	54.99
595.131	55.05
595.468	55.16
595.805	55.25
596.143	55.33
596.48	55.45
596.817	55.57
597.154	55.68
597.491	55.81
597.828	55.9
598.165	55.9
598.502	55.96
598.839	56
599.176	56.1
599.512	56.16
599.849	56.29
600.186	56.4
600.523	56.57
600.859	56.65
601.196	56.77
601.532	56.8
601.869	56.9
602.205	57.01
602.542	57.05
602.878	57.05
603.215	57.09
603.551	57.15
603.887	57.17
604.223	57.17
604.56	57.25
604.896	57.28
605.232	57.35
605.568	57.42
605.904	57.44
606.24	57.51
606.576	57.53
606.912	57.56
607.248	57.56
607.583	57.6
607.919	57.64
608.255	57.63
608.591	57.73
608.926	57.8
609.262	57.83
609.597	57.88
609.933	57.9
610.268	57.9
610.604	57.93
610.939	58.08
611.275	58.21
611.61	58.18
611.945	58.23
612.281	58.32
612.616	58.33
612.951	58.48
613.286	58.55
613.621	58.64
613.956	58.7
614.291	58.74
614.626	58.78
614.961	58.79
615.296	58.94
615.631	59.02
615.966	59.02
616.3	59.02
616.635	59
616.97	59.18
617.304	59.32
617.639	59.33
617.973	59.22
618.308	59.19
618.642	59.3
618.977	59.29
619.311	59.34
619.646	59.32
619.98	59.33
620.314	59.4
620.648	59.45
620.983	59.55
621.317	59.59
621.651	59.56
621.985	59.64
622.319	59.52
622.653	59.5
622.987	59.58
623.321	59.73
623.655	59.83
623.988	59.85
624.322	59.86
624.656	59.94
624.99	59.98
625.323	60.04
625.657	59.99
625.99	60.04
626.324	59.97
626.657	60.04
626.991	60.09
627.324	60.06
627.658	60.06
627.991	60.06
628.324	60.13
628.657	60.18
628.991	60.13
629.324	60.19
629.657	60.17
629.99	60.17
630.323	60.07
630.656	60.14
630.989	60.08
631.322	60.13
631.655	60.2
631.987	60.24
632.32	60.27
632.653	60.38
632.986	60.38
633.318	60.46
633.651	60.48
633.984	60.5
634.316	60.52
634.649	60.62
634.981	60.54
635.313	60.49
635.646	60.59
635.978	60.73
636.31	60.7
636.643	60.85
636.975	60.91
637.307	61.07
637.639	61.08
637.971	61.11
638.303	61.07
638.635	61.07
638.967	61.13
639.299	61.18
639.631	61.16
639.963	61.17
640.295	61.19
640.626	61.23
640.958	61.23
641.29	61.27
641.621	61.32
641.953	61.42
642.285	61.51
642.616	61.54
642.948	61.5
643.279	61.55
643.61	61.51
643.942	61.48
644.273	61.35
644.604	61.33
644.936	61.43
645.267	61.5
645.598	61.41
645.929	61.51
646.26	61.44
646.591	61.44
646.922	61.55
647.253	61.55
647.584	61.54
647.915	61.5
648.245	61.52
648.576	61.35
648.907	61.38
649.238	61.36
649.568	61.35
649.899	61.44
650.229	61.37
650.56	61.51
650.89	61.43
651.221	61.45
651.551	61.53
651.882	61.49
652.212	61.38
652.542	61.33
652.872	61.32
653.203	61.48
653.533	61.51
653.863	61.47
654.193	61.57
654.523	61.56
654.853	61.57
655.183	61.63
655.513	61.76
655.843	61.76
656.172	61.85
656.502	61.84
656.832	61.76
657.162	61.92
657.491	61.78
657.821	61.99
658.15	62.06
658.48	61.91
658.809	61.88
659.139	62.02
659.468	62.09
659.798	61.95
660.127	61.88
660.456	61.96
660.785	61.97
661.115	61.93
661.444	62.02
661.773	62.21
662.102	62.12
662.431	62.02
662.76	62.06
663.089	61.97
663.418	62.09
663.747	62.13
664.076	62.15
664.404	62.27
664.733	62.21
665.062	62.09
665.39	62.21
665.719	62.29
666.048	62.25
666.376	62.34
666.705	62.41
667.033	62.45
667.362	62.39
667.69	62.42
668.018	62.33
668.347	62.34
668.675	62.24
669.003	62.41
669.331	62.51
669.659	62.52
669.987	62.58
670.315	62.48
670.643	62.49
670.971	62.39
671.299	62.29
671.627	62.26
671.955	62.43
672.283	62.49
672.61	62.5
672.938	62.43
673.266	62.39
673.593	62.46
673.921	62.39
674.249	62.39
674.576	62.45
674.904	62.45
675.231	62.28
675.558	62.22
675.886	62.16
676.213	62.04
676.54	62.12
676.867	62.09
677.195	62.11
677.522	62.12
677.849	62.27
678.176	62.47
678.503	62.51
678.83	62.49
679.157	62.46
679.484	62.45
679.81	62.46
680.137	62.43
680.464	62.4
680.791	62.42
681.117	62.44
681.444	62.32
681.771	62.35
682.097	62.42
682.424	62.47
682.75	62.35
683.077	62.46
683.403	62.36
683.729	62.39
684.056	62.36
684.382	62.43
684.708	62.35
685.034	62.19
685.36	62.24
685.686	62.09
686.012	62.07
686.339	62.2
686.664	62.35
686.99	62.49
687.316	62.42
687.642	62.55
687.968	62.56
688.294	62.73
688.619	62.69
688.945	62.58
689.271	62.66
689.596	62.61
689.922	62.7
690.247	62.72
690.573	62.76
690.898	62.67
691.224	62.59
691.549	62.57
691.874	62.34
692.2	62.28
692.525	62.4
692.85	62.37
693.175	62.21
693.5	61.99
693.825	61.85
694.15	62.1
694.475	62.04
694.8	61.99
695.125	61.93
695.45	62.04
695.775	62.25
696.099	62.28
696.424	62.34
696.749	62.41
697.073	62.43
697.398	62.43
697.723	62.54
698.047	62.62
698.372	62.78
698.696	62.96
699.02	62.95
699.345	62.96
699.669	63
699.993	63.01
700.318	63.14
700.642	63.25
700.966	63.08
701.29	63.14
701.614	63.02
701.938	63.13
702.262	63.18
702.586	63.21
702.91	63.16
703.234	63.07
703.557	62.95
703.881	62.95
704.205	63.06
704.529	62.99
704.852	62.85
705.176	62.61
705.499	62.61
705.823	62.41
706.146	62.41
706.47	62.34
706.793	62.26
707.117	62.33
707.44	62.39
707.763	62.65
708.086	62.46
708.409	62.66
708.733	62.56
709.056	62.52
709.379	62.51
709.702	62.43
710.025	62.49
710.348	62.49
710.671	62.4
710.993	62.21
711.316	62.3
711.639	62.33
711.962	62.41
712.284	62.6
712.607	62.86
712.93	62.99
713.252	62.95
713.575	63.07
713.897	63.06
714.22	62.97
714.542	62.83
714.864	62.93
715.187	62.71
715.509	62.66
715.831	62.83
716.153	62.78
716.475	62.78
716.798	62.92
717.12	63.06
717.442	63.1
717.764	63.05
718.085	63.04
718.407	62.96
718.729	63.11
719.051	62.86
719.373	62.67
719.695	62.52
720.016	62.65
720.338	62.66
720.659	62.73
720.981	62.64
721.302	62.44
721.624	62.3
721.945	62.7
722.267	62.93
722.588	62.52
722.909	62.86
723.231	62.8
723.552	63
723.873	62.84
724.194	62.81
724.515	63.03
724.836	62.98
725.157	63.03
725.478	63
725.799	63.17
726.12	63.16
726.441	63.18
726.762	63.39
727.083	63.29
727.403	63.13
727.724	63.34
728.045	63.52
728.365	63.55
728.686	63.26
729.006	62.98
729.327	63.17
729.647	62.78
729.967	62.97
730.288	62.83
730.608	62.72
730.928	62.67
731.249	62.51
731.569	62.52
731.889	62.8
732.209	62.8
732.529	62.84
732.849	62.71
733.169	62.82
733.489	62.58
733.809	62.41
734.129	62.54
734.448	62.33
734.768	62.34
735.088	62.37
735.408	62.51
735.727	62.84
736.047	62.53
736.366	62.66
736.686	62.66
737.005	62.72
737.325	62.77
737.644	62.8
737.963	62.99
738.283	63.04
738.602	62.81
738.921	62.52
739.24	62.67
739.56	62.79
739.879	62.74
740.198	62.67
740.517	62.94
740.836	63
741.155	62.98
741.473	62.98
741.792	62.94
742.111	63
742.43	62.8
742.748	62.98
743.067	63.04
743.386	63.02
743.704	62.86
744.023	63.1
744.341	63.1
744.66	63.22
744.978	63.36
745.297	63.39
745.615	63.71
745.933	63.49
746.252	63.84
746.57	63.74
746.888	63.74
747.206	63.51
747.524	63.15
747.842	63.47
748.16	63.75
748.478	63.85
748.796	63.85
749.114	63.99
749.432	64.15
749.749	64.17
750.067	64.25
750.385	64.05
750.703	64.16
751.02	64.38
751.338	64.44
751.655	64.1
751.973	64.27
752.29	64.11
752.608	64.06
752.925	63.73
753.242	63.8
753.56	63.92
753.877	64.18
754.194	64.45
754.511	63.97
754.828	63.63
755.145	63.55
755.462	63.49
755.779	63.27
756.096	63.25
756.413	63.03
756.73	62.84
757.047	63.2
757.364	63.09
757.68	62.8
757.997	62.29
758.314	62.74
758.63	62.42
758.947	62.38
759.264	62.26
759.58	62.2
759.896	62.37
760.213	62.46
760.529	62.27
760.846	62.21
761.162	62.74
761.478	62.84
761.794	62.69
762.11	62.81
762.426	62.89
762.743	62.74
763.059	62.73
763.375	62.78
763.69	62.69
764.006	62.74
764.322	63.1
764.638	63.19
764.954	62.92
765.27	62.88
765.585	63.17
765.901	63.24
766.216	63.37
766.532	63.45
766.848	63.56
767.163	63.56
767.478	63.38
767.794	63.13
768.109	63.11
768.424	63.47
768.74	63.65
769.055	63.75
769.37	63.87
769.685	64.07
770	64.34
770.315	64.06
770.63	63.96
770.945	63.54
771.26	63.7
771.575	63.98
771.89	64.1
772.205	63.71
772.52	64
772.834	63.97
773.149	63.43
773.464	63.35
773.778	64.22
774.093	64.57
774.407	64.31
774.722	64.13
775.036	63.88
775.351	63.71
775.665	63.49
775.979	63.81
776.293	63.4
776.608	63.18
776.922	63.59
777.236	63.62
777.55	63.58
777.864	63.39
778.178	63.37
778.492	63.03
778.806	63
779.12	62.81
779.434	63.02
779.747	63.26
780.061	63.37
780.375	62.75
780.689	62.77
781.002	63.2
781.316	63.78
781.629	63.78
781.943	63.3
782.256	63.57
782.57	63.22
782.883	63.79
783.196	63.51
783.51	63.59
783.823	63.77
784.136	64.48
784.449	64.75
784.762	64.95
785.075	65.15
785.388	65.45
785.701	65.84
786.014	65.74
786.327	65.95
786.64	65.71
786.953	65.76
787.266	65.83
787.578	65.77
787.891	65.28
788.204	64.88
788.516	65.28
788.829	65.08
789.141	65.16
789.454	65.06
789.766	64.88
790.079	64.41
790.391	63.81
790.703	63.34
791.016	63.66
791.328	63.51
791.64	63.61
791.952	63.68
792.264	62.85
792.576	62.62
792.888	62.27
793.2	62.4
793.512	62.61
793.824	62.51
794.136	62.89
794.448	62.75
794.76	63.04
795.071	62.62
795.383	62.37
795.695	62.62
796.006	62.3
796.318	62.61
796.629	62.97
796.941	63.69
797.252	63.32
797.564	62.51
797.875	62.5
798.186	62.52
798.497	62.45
798.809	62.36
799.12	62.68
799.431	62.62
799.742	62.93
800.053	62.53
800.364	62.47
800.675	61.92
800.986	62.26
801.297	62.26
801.608	63.12
801.918	63.74
802.229	64.05
802.54	64.37
802.851	64.69
803.161	64.85
803.472	64.21
803.782	65.25
804.093	65.44
804.403	65.32
804.714	65.88
805.024	65.32
805.334	66.43
805.645	66.3
805.955	66.19
806.265	65.72
806.575	65.86
806.885	65.74
807.195	65.7
807.505	65.52
807.815	66.33
808.125	66.55
808.435	66.52
808.745	66.35
809.055	66.14
809.365	66.07
809.674	65.92
809.984	65.74
810.294	64.74
810.603	65.01
810.913	65.56
811.222	65.58
811.532	66.67
811.841	66.22
812.151	66.71
812.46	67.32
812.769	66.65
813.079	67.03
813.388	66.98
813.697	67.51
814.006	66.99
814.315	66.56
814.624	65.44
814.933	64.92
815.242	64.48
815.551	64.76
815.86	65.28
816.169	65.28
816.478	66
816.786	66.85
817.095	67.49
817.404	66.57
817.712	66.24
818.021	65.8
818.33	65.47
818.638	65.47
818.947	65.73
819.255	66.25
819.563	65.89
819.872	65.86
820.18	65.83
820.488	65.75
820.796	65.36
821.105	65.51
821.413	65.59
821.721	65.51
822.029	65.29
822.337	65.13
822.645	65.31
822.953	65.39
823.26	65.25
823.568	65.2
823.876	65.39
824.184	65.22
824.491	65.32
824.799	65.26
825.107	65.32
825.414	65.29
825.722	65.13
826.029	65.29
826.337	65.4
826.644	65.28
826.951	65.5
827.259	65.54
827.566	65.6
827.873	65.43
828.18	65.31
828.488	65.49
828.795	65.44
829.102	65.17
829.409	64.72
829.716	64.66
830.023	64.49
830.329	64.19
830.636	64.63
830.943	64.3
831.25	64.41
831.557	63.94
831.863	63.86
832.17	63.62
832.476	62.98
832.783	62.39
833.089	62.31
833.396	62.52
833.702	62.99
834.009	62.86
834.315	63.22
834.621	63.96
834.928	63.88
835.234	63.7
835.54	64.11
835.846	64.14
836.152	64.23
836.458	64.38
836.764	64.49
837.07	64.04
837.376	63.91
837.682	63.97
837.988	63.39
838.293	63.48
838.599	64.04
838.905	63.55
839.211	63.68
839.516	63.98
839.822	63.24
840.127	61.93
840.433	62.1
840.738	62.03
841.044	60.93
841.349	61.4
841.654	62.45
841.959	62.22
842.265	63.04
842.57	62.83
842.875	63.02
843.18	62.6
843.485	63.46
843.79	63.85
844.095	64.29
844.4	66.08
844.705	65.4
845.01	66.11
845.315	67.21
845.619	68
845.924	68.34
846.229	69.12
846.533	71.62
846.838	71.65
847.142	70.93
847.447	72.04
847.751	70.89
848.056	72.2
848.36	69.62
848.664	69.49
848.969	68.29
849.273	67.87
849.577	67.78
849.881	67.05
850.185	67.68
850.489	67.9
850.794	68.22
851.097	68.08
851.401	68.4
851.705	68.91
852.009	70.46
852.313	72.12
852.617	71.45
852.92	72.01
853.224	71.98
853.528	70.39
853.831	68.98
854.135	70.4
854.438	69.69
854.742	70.49
855.045	71.03
855.349	74.68
855.652	76.72
855.955	78.24
856.259	79.61
856.562	79.04
856.865	77.77
857.168	77.19
857.471	79.07
857.774	79
858.077	79.23
858.38	78.75
858.683	75.12
858.986	75.79
859.289	73.68
859.592	72.86
859.894	75.61
860.197	75.84
860.5	76.02
860.802	71.63
861.105	72.69
861.407	74.67
861.71	73.86
862.012	71.15
862.315	70.31
862.617	67.84
862.919	66.9
863.222	69.38
863.524	67.73
863.826	66.5
864.128	65.69
864.43	67.9
864.732	67.73
865.034	68.61
865.336	67.26
865.638	71.06
865.94	70.13
866.242	70.64
866.544	71.8
866.846	69.37
867.147	71.78
867.449	72.19
867.751	71.12
868.052	71.03
868.354	70.99
868.655	69.66
868.957	71.5
869.258	71.4
869.56	70.23
869.861	71.03
870.162	69.82
870.463	70.73
870.765	71.7
871.066	69.99
871.367	69.37
871.668	71.32
871.969	68.84
872.27	67.88
872.571	67.19
872.872	65.34
873.173	65.41
873.473	64.71
873.774	63.59
874.075	64
874.376	62
874.676	62.71
874.977	63.94
875.277	65.1
875.578	64.45
875.878	63.78
876.179	64.83
876.479	66.02
876.78	64.84
877.08	61.08
877.38	61.51
877.68	61.37
877.981	59.28
878.281	57.31
878.581	59.92
