Data from BU26846_Reflection_00004.txt Node
Date: Mon Nov 18 16:33:25 EST 2019
User: vgr7
Spectrometer: USB2G7710
Scans to average: 3
Trigger mode: 4
Integration Time (sec): 2.000000E-2
Electric dark correction enabled: true
Boxcar width: 10
XAxis mode: Wavelengths
Number of Pixels in Spectrum: 2048
>>>>>Begin Spectral Data<<<<<
177.721	14.81
178.105	-13.21
178.488	260.31
178.871	-76.75
179.254	11.34
179.636	-95.21
180.019	-27.53
180.402	27.27
180.785	40.9
181.168	105.3
181.55	86.22
181.933	61.52
182.316	88.77
182.698	104
183.081	104.16
183.463	109.3
183.846	491.3
184.228	365.44
184.611	680.33
184.993	1212.36
185.376	-1106.19
185.758	1494.37
186.14	200.12
186.522	147.5
186.904	74.79
187.287	66.27
187.669	57.39
188.051	67.85
188.433	95.49
188.815	72.84
189.197	72.37
189.579	110.83
189.961	318.07
190.342	244.48
190.724	-158.52
191.106	260.31
191.488	115.99
191.869	33.64
192.251	89.87
192.633	84.84
193.014	106.35
193.396	113.49
193.777	94.07
194.159	86.98
194.54	87.15
194.922	89.36
195.303	89.82
195.684	96
196.065	144.43
196.447	97.65
196.828	163.7
197.209	170.46
197.59	189.39
197.971	147.55
198.352	169.25
198.733	132.03
199.114	201.43
199.495	282.41
199.876	-1151.26
200.257	-391.69
200.638	-167.1
201.018	-212.12
201.399	-97.02
201.78	-52.3
202.16	-68.81
202.541	-79.81
202.922	-112.26
203.302	-124
203.683	-163
204.063	-197.35
204.444	-141.2
204.824	-159.28
205.204	-148.93
205.585	-196.68
205.965	-140.19
206.345	-138.43
206.725	-160.92
207.106	-193.77
207.486	-231.75
207.866	-266.21
208.246	-410.03
208.626	-376.37
209.006	-291.3
209.386	-383.27
209.766	-567.05
210.145	-526.64
210.525	-467.74
210.905	-318.85
211.285	-372.24
211.664	-297.03
212.044	-322.08
212.424	-413.68
212.803	-383.58
213.183	-544.98
213.562	-289.1
213.942	-506.1
214.321	-315.81
214.701	-329.29
215.08	-648.91
215.459	-724.18
215.838	-407.61
216.218	-315.53
216.597	-371.07
216.976	-250.57
217.355	-170.7
217.734	-146.48
218.113	-114.77
218.492	-181.99
218.871	-3062.16
219.25	-115.4
219.629	-280.28
220.008	153.89
220.387	-1602.7
220.766	-159.03
221.144	-2604.92
221.523	1497.52
221.902	860.45
222.28	2722.38
222.659	-507.54
223.037	-111.39
223.416	-138.65
223.794	-142.34
224.173	-113.74
224.551	-95.71
224.929	-103.43
225.308	-89.95
225.686	-76.54
226.064	-55.49
226.442	-48.32
226.821	-37.75
227.199	-35.01
227.577	-33.16
227.955	-31.72
228.333	-29.37
228.711	-24.59
229.089	-18.21
229.467	-19.56
229.845	-13.74
230.222	-10.26
230.6	-10.96
230.978	-11.91
231.356	-9.07
231.733	-8.26
232.111	-5.35
232.488	-4.53
232.866	-4.84
233.243	-2.77
233.621	-1.58
233.998	0.04
234.376	1.27
234.753	0.58
235.13	1.54
235.508	2.76
235.885	3.72
236.262	2.6
236.639	2.6
237.016	2.72
237.393	3.75
237.77	3.61
238.147	3.1
238.524	3.11
238.901	3.54
239.278	3.74
239.655	4.11
240.032	3.58
240.409	2.64
240.785	3.03
241.162	2.38
241.539	1.86
241.915	1.5
242.292	1.29
242.668	1.4
243.045	1.61
243.421	2.09
243.798	2.05
244.174	2.49
244.551	2.44
244.927	2.13
245.303	2.33
245.679	2.42
246.056	2.25
246.432	2.46
246.808	2.4
247.184	2.31
247.56	1.98
247.936	1.97
248.312	1.8
248.688	1.95
249.064	1.87
249.44	2.04
249.815	2.24
250.191	2.38
250.567	2.33
250.943	2.2
251.318	1.94
251.694	1.86
252.069	1.65
252.445	1.64
252.82	1.71
253.196	1.54
253.571	1.49
253.947	1.8
254.322	1.93
254.697	1.73
255.073	1.79
255.448	2.03
255.823	2.2
256.198	2.71
256.573	2.5
256.948	2.9
257.323	3.14
257.698	3.05
258.073	3.2
258.448	3.21
258.823	3.27
259.198	3.32
259.573	3.33
259.948	3.36
260.322	3.43
260.697	3.45
261.072	3.55
261.446	3.46
261.821	3.34
262.195	3.26
262.57	3.33
262.944	3.3
263.319	3.22
263.693	3.14
264.067	3.19
264.442	3.44
264.816	3.35
265.19	3.12
265.564	3.07
265.938	2.96
266.313	3.09
266.687	3.23
267.061	3.23
267.435	3.35
267.809	3.41
268.183	3.39
268.556	3.58
268.93	3.57
269.304	3.5
269.678	3.54
270.051	3.61
270.425	3.69
270.799	3.69
271.172	3.8
271.546	3.78
271.919	3.58
272.293	3.57
272.666	3.7
273.04	3.73
273.413	3.74
273.787	3.68
274.16	3.53
274.533	3.27
274.906	3.22
275.279	3.09
275.653	3.07
276.026	2.9
276.399	2.6
276.772	2.54
277.145	2.55
277.518	2.4
277.891	2.37
278.263	2.33
278.636	2.49
279.009	2.43
279.382	2.57
279.755	2.68
280.127	2.77
280.5	2.75
280.872	2.79
281.245	2.75
281.617	2.81
281.99	2.99
282.362	3.09
282.735	2.9
283.107	2.96
283.479	2.91
283.852	2.98
284.224	3.08
284.596	3.09
284.968	3.2
285.34	3.31
285.713	3.27
286.085	3.23
286.457	3.2
286.829	3.28
287.201	3.25
287.572	3.22
287.944	3.02
288.316	2.93
288.688	2.93
289.06	2.92
289.431	2.94
289.803	2.99
290.175	3.1
290.546	3.38
290.918	3.43
291.289	3.53
291.661	3.67
292.032	3.78
292.403	3.78
292.775	3.81
293.146	3.91
293.517	3.94
293.889	4.05
294.26	4.1
294.631	4.03
295.002	3.96
295.373	4
295.744	3.94
296.115	3.99
296.486	3.9
296.857	3.94
297.228	3.99
297.599	3.84
297.97	3.77
298.34	3.65
298.711	3.65
299.082	3.47
299.452	3.41
299.823	3.45
300.194	3.48
300.564	3.29
300.935	3.22
301.305	3.18
301.676	3.1
302.046	2.96
302.416	3.05
302.787	3.05
303.157	3.01
303.527	3.01
303.897	3.01
304.267	3.24
304.637	3.19
305.008	3.13
305.378	3.34
305.748	3.44
306.117	3.37
306.487	3.32
306.857	3.59
307.227	3.53
307.597	3.4
307.967	3.3
308.336	3.37
308.706	3.33
309.076	3.35
309.445	3.31
309.815	3.32
310.184	3.24
310.554	3.24
310.923	3.25
311.293	3.36
311.662	3.23
312.031	3.1
312.401	3.17
312.77	3.13
313.139	3.1
313.508	3.01
313.877	3.16
314.246	3.2
314.616	3.08
314.985	3.14
315.353	3.04
315.722	3.23
316.091	3.25
316.46	3.16
316.829	3
317.198	3.11
317.567	2.96
317.935	2.86
318.304	2.95
318.672	2.95
319.041	3
319.41	3.17
319.778	3.08
320.147	3.01
320.515	3.04
320.883	2.91
321.252	2.98
321.62	2.9
321.988	2.83
322.357	2.78
322.725	2.78
323.093	2.91
323.461	2.81
323.829	2.95
324.197	3.02
324.565	3.08
324.933	2.98
325.301	3.14
325.669	3.23
326.037	3.13
326.405	3.18
326.772	3.12
327.14	3.12
327.508	3.2
327.875	3.15
328.243	3.22
328.61	3.34
328.978	3.3
329.346	3.3
329.713	3.27
330.08	3.35
330.448	3.3
330.815	3.1
331.182	3.12
331.55	3
331.917	3.1
332.284	3.17
332.651	3.12
333.018	3.13
333.385	3.16
333.752	3.25
334.119	3.31
334.486	3.27
334.853	3.22
335.22	3.29
335.587	3.32
335.954	3.32
336.32	3.18
336.687	3.26
337.054	3.27
337.42	3.38
337.787	3.42
338.153	3.41
338.52	3.64
338.886	3.48
339.253	3.46
339.619	3.39
339.986	3.37
340.352	3.35
340.718	3.41
341.084	3.38
341.451	3.33
341.817	3.28
342.183	3.28
342.549	3.28
342.915	3.29
343.281	3.33
343.647	3.27
344.013	3.32
344.379	3.24
344.745	3.33
345.11	3.3
345.476	3.26
345.842	3.3
346.208	3.22
346.573	3.31
346.939	3.46
347.304	3.42
347.67	3.42
348.035	3.48
348.401	3.39
348.766	3.34
349.132	3.38
349.497	3.26
349.862	3.31
350.228	3.33
350.593	3.26
350.958	3.29
351.323	3.32
351.688	3.3
352.053	3.31
352.418	3.33
352.783	3.39
353.148	3.48
353.513	3.44
353.878	3.47
354.243	3.46
354.608	3.41
354.972	3.43
355.337	3.52
355.702	3.66
356.066	3.73
356.431	3.72
356.795	3.8
357.16	3.87
357.524	3.77
357.889	3.78
358.253	3.83
358.618	3.85
358.982	3.86
359.346	3.87
359.71	3.82
360.075	3.76
360.439	3.66
360.803	3.55
361.167	3.51
361.531	3.54
361.895	3.57
362.259	3.56
362.623	3.58
362.987	3.52
363.351	3.51
363.714	3.5
364.078	3.53
364.442	3.46
364.806	3.45
365.169	3.46
365.533	3.47
365.896	3.4
366.26	3.38
366.623	3.31
366.987	3.29
367.35	3.34
367.714	3.31
368.077	3.38
368.44	3.39
368.803	3.44
369.167	3.35
369.53	3.36
369.893	3.34
370.256	3.38
370.619	3.35
370.982	3.24
371.345	3.25
371.708	3.27
372.071	3.26
372.434	3.25
372.797	3.34
373.159	3.33
373.522	3.42
373.885	3.39
374.247	3.42
374.61	3.44
374.973	3.38
375.335	3.46
375.698	3.5
376.06	3.5
376.423	3.47
376.785	3.54
377.147	3.55
377.51	3.56
377.872	3.56
378.234	3.61
378.596	3.63
378.958	3.56
379.321	3.53
379.683	3.5
380.045	3.52
380.407	3.46
380.769	3.47
381.13	3.41
381.492	3.45
381.854	3.48
382.216	3.44
382.578	3.49
382.939	3.46
383.301	3.43
383.663	3.44
384.024	3.45
384.386	3.46
384.747	3.47
385.109	3.48
385.47	3.46
385.832	3.49
386.193	3.51
386.554	3.56
386.916	3.56
387.277	3.62
387.638	3.6
387.999	3.62
388.36	3.64
388.721	3.64
389.082	3.63
389.443	3.57
389.804	3.58
390.165	3.58
390.526	3.59
390.887	3.6
391.248	3.59
391.609	3.6
391.969	3.61
392.33	3.57
392.691	3.55
393.051	3.57
393.412	3.53
393.772	3.49
394.133	3.49
394.493	3.51
394.854	3.51
395.214	3.53
395.574	3.53
395.935	3.49
396.295	3.49
396.655	3.5
397.015	3.53
397.376	3.51
397.736	3.52
398.096	3.51
398.456	3.51
398.816	3.52
399.176	3.53
399.535	3.46
399.895	3.48
400.255	3.49
400.615	3.49
400.975	3.49
401.334	3.5
401.694	3.47
402.054	3.45
402.413	3.44
402.773	3.43
403.132	3.42
403.492	3.43
403.851	3.4
404.211	3.4
404.57	3.39
404.929	3.45
405.288	3.45
405.648	3.46
406.007	3.43
406.366	3.39
406.725	3.42
407.084	3.46
407.443	3.47
407.802	3.47
408.161	3.46
408.52	3.43
408.879	3.45
409.238	3.48
409.596	3.5
409.955	3.45
410.314	3.48
410.673	3.48
411.031	3.48
411.39	3.52
411.748	3.51
412.107	3.54
412.465	3.51
412.824	3.52
413.182	3.5
413.54	3.55
413.899	3.57
414.257	3.57
414.615	3.57
414.974	3.58
415.332	3.57
415.69	3.57
416.048	3.58
416.406	3.58
416.764	3.57
417.122	3.58
417.48	3.59
417.838	3.58
418.195	3.59
418.553	3.59
418.911	3.59
419.269	3.59
419.626	3.57
419.984	3.57
420.342	3.6
420.699	3.58
421.057	3.56
421.414	3.55
421.772	3.55
422.129	3.56
422.486	3.54
422.844	3.53
423.201	3.53
423.558	3.54
423.915	3.54
424.273	3.55
424.63	3.53
424.987	3.53
425.344	3.54
425.701	3.53
426.058	3.53
426.415	3.53
426.772	3.52
427.128	3.53
427.485	3.54
427.842	3.5
428.199	3.52
428.555	3.53
428.912	3.54
429.269	3.55
429.625	3.53
429.982	3.55
430.338	3.57
430.695	3.57
431.051	3.55
431.407	3.57
431.764	3.58
432.12	3.6
432.476	3.59
432.832	3.58
433.189	3.58
433.545	3.59
433.901	3.6
434.257	3.6
434.613	3.6
434.969	3.61
435.325	3.6
435.681	3.6
436.036	3.6
436.392	3.61
436.748	3.59
437.104	3.6
437.459	3.59
437.815	3.6
438.171	3.6
438.526	3.62
438.882	3.61
439.237	3.59
439.593	3.59
439.948	3.58
440.304	3.58
440.659	3.59
441.014	3.57
441.369	3.56
441.725	3.56
442.08	3.56
442.435	3.56
442.79	3.57
443.145	3.58
443.5	3.57
443.855	3.57
444.21	3.58
444.565	3.57
444.92	3.58
445.275	3.57
445.629	3.58
445.984	3.59
446.339	3.58
446.693	3.59
447.048	3.58
447.403	3.59
447.757	3.6
448.112	3.6
448.466	3.62
448.82	3.62
449.175	3.63
449.529	3.63
449.883	3.63
450.238	3.62
450.592	3.63
450.946	3.64
451.3	3.63
451.654	3.63
452.008	3.64
452.362	3.65
452.716	3.65
453.07	3.63
453.424	3.6
453.778	3.61
454.132	3.6
454.486	3.6
454.839	3.58
455.193	3.56
455.547	3.55
455.9	3.56
456.254	3.55
456.607	3.54
456.961	3.54
457.314	3.54
457.668	3.55
458.021	3.52
458.375	3.54
458.728	3.54
459.081	3.53
459.434	3.52
459.787	3.51
460.141	3.51
460.494	3.51
460.847	3.55
461.2	3.54
461.553	3.55
461.906	3.55
462.259	3.57
462.611	3.58
462.964	3.59
463.317	3.59
463.67	3.6
464.022	3.59
464.375	3.59
464.728	3.59
465.08	3.58
465.433	3.61
465.785	3.6
466.138	3.63
466.49	3.62
466.843	3.63
467.195	3.63
467.547	3.65
467.899	3.64
468.252	3.63
468.604	3.63
468.956	3.62
469.308	3.62
469.66	3.61
470.012	3.63
470.364	3.64
470.716	3.66
471.068	3.67
471.42	3.66
471.772	3.69
472.123	3.7
472.475	3.7
472.827	3.7
473.178	3.71
473.53	3.69
473.882	3.72
474.233	3.73
474.585	3.72
474.936	3.72
475.288	3.73
475.639	3.72
475.99	3.73
476.342	3.75
476.693	3.77
477.044	3.8
477.395	3.77
477.746	3.76
478.097	3.76
478.448	3.76
478.8	3.76
479.15	3.74
479.501	3.74
479.852	3.74
480.203	3.74
480.554	3.74
480.905	3.74
481.255	3.73
481.606	3.74
481.957	3.74
482.307	3.75
482.658	3.75
483.009	3.75
483.359	3.76
483.709	3.76
484.06	3.75
484.41	3.75
484.761	3.76
485.111	3.76
485.461	3.75
485.811	3.75
486.162	3.76
486.512	3.77
486.862	3.76
487.212	3.76
487.562	3.77
487.912	3.77
488.262	3.76
488.612	3.76
488.961	3.75
489.311	3.75
489.661	3.75
490.011	3.75
490.36	3.75
490.71	3.74
491.06	3.75
491.409	3.75
491.759	3.74
492.108	3.74
492.458	3.74
492.807	3.75
493.157	3.75
493.506	3.75
493.855	3.75
494.204	3.76
494.554	3.75
494.903	3.74
495.252	3.74
495.601	3.77
495.95	3.78
496.299	3.78
496.648	3.76
496.997	3.76
497.346	3.78
497.695	3.8
498.043	3.8
498.392	3.8
498.741	3.79
499.09	3.78
499.438	3.81
499.787	3.82
500.135	3.82
500.484	3.83
500.832	3.82
501.181	3.83
501.529	3.83
501.878	3.85
502.226	3.87
502.574	3.86
502.923	3.86
503.271	3.87
503.619	3.86
503.967	3.9
504.315	3.9
504.663	3.89
505.011	3.89
505.359	3.91
505.707	3.91
506.055	3.92
506.403	3.93
506.751	3.92
507.098	3.92
507.446	3.94
507.794	3.94
508.141	3.96
508.489	3.96
508.837	3.98
509.184	3.99
509.531	4.02
509.879	4.04
510.226	4.05
510.574	4.05
510.921	4.07
511.268	4.08
511.616	4.07
511.963	4.08
512.31	4.09
512.657	4.1
513.004	4.1
513.351	4.11
513.698	4.09
514.045	4.1
514.392	4.1
514.739	4.09
515.086	4.09
515.432	4.08
515.779	4.09
516.126	4.08
516.473	4.1
516.819	4.07
517.166	4.07
517.512	4.05
517.859	4.07
518.205	4.07
518.552	4.08
518.898	4.09
519.245	4.09
519.591	4.08
519.937	4.07
520.283	4.08
520.629	4.1
520.976	4.12
521.322	4.12
521.668	4.11
522.014	4.13
522.36	4.13
522.706	4.11
523.052	4.11
523.398	4.11
523.743	4.09
524.089	4.11
524.435	4.09
524.781	4.08
525.126	4.07
525.472	4.07
525.817	4.07
526.163	4.07
526.509	4.07
526.854	4.08
527.199	4.08
527.545	4.09
527.89	4.09
528.235	4.09
528.581	4.1
528.926	4.11
529.271	4.1
529.616	4.1
529.961	4.11
530.306	4.13
530.651	4.12
530.996	4.12
531.341	4.11
531.686	4.13
532.031	4.14
532.376	4.14
532.721	4.15
533.065	4.15
533.41	4.15
533.755	4.16
534.099	4.17
534.444	4.19
534.788	4.2
535.133	4.19
535.477	4.19
535.822	4.18
536.166	4.18
536.51	4.18
536.855	4.19
537.199	4.19
537.543	4.17
537.887	4.19
538.231	4.18
538.576	4.19
538.92	4.18
539.264	4.19
539.608	4.19
539.951	4.19
540.295	4.18
540.639	4.18
540.983	4.18
541.327	4.16
541.671	4.15
542.014	4.14
542.358	4.15
542.701	4.16
543.045	4.15
543.389	4.15
543.732	4.16
544.075	4.17
544.419	4.18
544.762	4.18
545.105	4.17
545.449	4.19
545.792	4.19
546.135	4.21
546.478	4.2
546.821	4.21
547.165	4.21
547.508	4.25
547.851	4.26
548.194	4.27
548.536	4.25
548.879	4.24
549.222	4.24
549.565	4.24
549.908	4.25
550.25	4.27
550.593	4.28
550.936	4.27
551.278	4.26
551.621	4.25
551.963	4.25
552.306	4.23
552.648	4.22
552.991	4.21
553.333	4.21
553.675	4.22
554.017	4.19
554.36	4.19
554.702	4.16
555.044	4.15
555.386	4.13
555.728	4.17
556.07	4.17
556.412	4.15
556.754	4.13
557.096	4.1
557.438	4.1
557.78	4.11
558.121	4.14
558.463	4.15
558.805	4.16
559.147	4.16
559.488	4.17
559.83	4.16
560.171	4.17
560.513	4.19
560.854	4.16
561.196	4.17
561.537	4.19
561.878	4.17
562.22	4.18
562.561	4.18
562.902	4.16
563.243	4.16
563.584	4.18
563.925	4.2
564.266	4.2
564.607	4.21
564.948	4.2
565.289	4.19
565.63	4.16
565.971	4.14
566.312	4.16
566.653	4.2
566.993	4.21
567.334	4.21
567.675	4.18
568.015	4.21
568.356	4.21
568.696	4.2
569.037	4.22
569.377	4.21
569.718	4.25
570.058	4.26
570.398	4.25
570.739	4.25
571.079	4.26
571.419	4.26
571.759	4.27
572.099	4.25
572.439	4.27
572.779	4.28
573.119	4.31
573.459	4.31
573.799	4.28
574.139	4.26
574.479	4.29
574.819	4.3
575.158	4.29
575.498	4.29
575.838	4.27
576.177	4.29
576.517	4.28
576.856	4.28
577.196	4.28
577.535	4.3
577.875	4.32
578.214	4.31
578.553	4.33
578.893	4.31
579.232	4.31
579.571	4.31
579.91	4.3
580.25	4.3
580.589	4.27
580.928	4.27
581.267	4.29
581.606	4.26
581.945	4.23
582.283	4.26
582.622	4.25
582.961	4.29
583.3	4.29
583.639	4.3
583.977	4.29
584.316	4.28
584.654	4.26
584.993	4.24
585.332	4.21
585.67	4.2
586.008	4.23
586.347	4.21
586.685	4.18
587.024	4.19
587.362	4.2
587.7	4.21
588.038	4.24
588.376	4.26
588.715	4.29
589.053	4.32
589.391	4.34
589.729	4.38
590.067	4.36
590.404	4.36
590.742	4.38
591.08	4.35
591.418	4.38
591.756	4.39
592.093	4.37
592.431	4.44
592.769	4.44
593.106	4.43
593.444	4.46
593.781	4.47
594.119	4.49
594.456	4.45
594.793	4.45
595.131	4.43
595.468	4.42
595.805	4.43
596.143	4.44
596.48	4.41
596.817	4.43
597.154	4.45
597.491	4.45
597.828	4.43
598.165	4.43
598.502	4.43
598.839	4.42
599.176	4.42
599.512	4.4
599.849	4.42
600.186	4.38
600.523	4.39
600.859	4.39
601.196	4.37
601.532	4.38
601.869	4.41
602.205	4.4
602.542	4.39
602.878	4.36
603.215	4.36
603.551	4.37
603.887	4.33
604.223	4.31
604.56	4.33
604.896	4.32
605.232	4.37
605.568	4.35
605.904	4.39
606.24	4.45
606.576	4.42
606.912	4.43
607.248	4.44
607.583	4.44
607.919	4.45
608.255	4.43
608.591	4.5
608.926	4.5
609.262	4.54
609.597	4.57
609.933	4.6
610.268	4.6
610.604	4.6
610.939	4.6
611.275	4.6
611.61	4.56
611.945	4.6
612.281	4.55
612.616	4.53
612.951	4.52
613.286	4.51
613.621	4.5
613.956	4.46
614.291	4.46
614.626	4.46
614.961	4.44
615.296	4.42
615.631	4.42
615.966	4.4
616.3	4.36
616.635	4.36
616.97	4.34
617.304	4.28
617.639	4.23
617.973	4.23
618.308	4.25
618.642	4.28
618.977	4.28
619.311	4.27
619.646	4.31
619.98	4.27
620.314	4.25
620.648	4.28
620.983	4.33
621.317	4.36
621.651	4.34
621.985	4.36
622.319	4.39
622.653	4.37
622.987	4.33
623.321	4.28
623.655	4.29
623.988	4.33
624.322	4.34
624.656	4.42
624.99	4.46
625.323	4.48
625.657	4.47
625.99	4.48
626.324	4.49
626.657	4.48
626.991	4.48
627.324	4.48
627.658	4.5
627.991	4.52
628.324	4.49
628.657	4.53
628.991	4.56
629.324	4.56
629.657	4.57
629.99	4.59
630.323	4.59
630.656	4.62
630.989	4.62
631.322	4.66
631.655	4.64
631.987	4.65
632.32	4.61
632.653	4.6
632.986	4.55
633.318	4.59
633.651	4.63
633.984	4.68
634.316	4.66
634.649	4.64
634.981	4.62
635.313	4.62
635.646	4.64
635.978	4.62
636.31	4.67
636.643	4.64
636.975	4.66
637.307	4.71
637.639	4.68
637.971	4.68
638.303	4.69
638.635	4.65
638.967	4.64
639.299	4.66
639.631	4.68
639.963	4.74
640.295	4.69
640.626	4.59
640.958	4.56
641.29	4.61
641.621	4.56
641.953	4.54
642.285	4.6
642.616	4.57
642.948	4.53
643.279	4.48
643.61	4.48
643.942	4.44
644.273	4.46
644.604	4.48
644.936	4.41
645.267	4.37
645.598	4.39
645.929	4.41
646.26	4.41
646.591	4.42
646.922	4.41
647.253	4.46
647.584	4.47
647.915	4.4
648.245	4.38
648.576	4.48
648.907	4.51
649.238	4.47
649.568	4.42
649.899	4.48
650.229	4.53
650.56	4.55
650.89	4.55
651.221	4.56
651.551	4.55
651.882	4.6
652.212	4.66
652.542	4.64
652.872	4.62
653.203	4.57
653.533	4.6
653.863	4.61
654.193	4.65
654.523	4.71
654.853	4.83
655.183	4.84
655.513	4.71
655.843	4.68
656.172	4.64
656.502	4.71
656.832	4.67
657.162	4.68
657.491	4.68
657.821	4.66
658.15	4.63
658.48	4.61
658.809	4.62
659.139	4.6
659.468	4.61
659.798	4.57
660.127	4.62
660.456	4.66
660.785	4.63
661.115	4.6
661.444	4.59
661.773	4.56
662.102	4.55
662.431	4.67
662.76	4.65
663.089	4.72
663.418	4.71
663.747	4.64
664.076	4.58
664.404	4.57
664.733	4.66
665.062	4.72
665.39	4.73
665.719	4.68
666.048	4.7
666.376	4.72
666.705	4.73
667.033	4.69
667.362	4.66
667.69	4.65
668.018	4.7
668.347	4.7
668.675	4.71
669.003	4.67
669.331	4.63
669.659	4.71
669.987	4.68
670.315	4.68
670.643	4.73
670.971	4.79
671.299	4.88
671.627	4.81
671.955	4.78
672.283	4.8
672.61	4.85
672.938	4.82
673.266	4.85
673.593	4.93
673.921	4.97
674.249	4.94
674.576	5
674.904	4.96
675.231	4.98
675.558	4.97
675.886	5.02
676.213	5
676.54	4.95
676.867	4.98
677.195	4.94
677.522	4.97
677.849	4.91
678.176	4.82
678.503	4.84
678.83	4.83
679.157	4.79
679.484	4.8
679.81	4.86
680.137	4.79
680.464	4.76
680.791	4.75
681.117	4.72
681.444	4.65
681.771	4.66
682.097	4.69
682.424	4.68
682.75	4.64
683.077	4.75
683.403	4.74
683.729	4.66
684.056	4.71
684.382	4.74
684.708	4.71
685.034	4.72
685.36	4.73
685.686	4.74
686.012	4.76
686.339	4.81
686.664	4.81
686.99	4.81
687.316	4.74
687.642	4.75
687.968	4.8
688.294	4.87
688.619	4.89
688.945	4.94
689.271	4.9
689.596	4.92
689.922	4.91
690.247	4.92
690.573	4.99
690.898	4.98
691.224	4.96
691.549	4.98
691.874	5.07
692.2	5.03
692.525	5.07
692.85	5.15
693.175	5
693.5	4.98
693.825	5.01
694.15	5.12
694.475	5.11
694.8	5.1
695.125	5.06
695.45	5.02
695.775	4.94
696.099	4.95
696.424	4.95
696.749	4.78
697.073	4.79
697.398	4.84
697.723	4.91
698.047	4.85
698.372	4.93
698.696	4.89
699.02	4.96
699.345	4.89
699.669	4.87
699.993	4.92
700.318	4.91
700.642	4.96
700.966	4.95
701.29	4.98
701.614	4.95
701.938	5.14
702.262	5.25
702.586	5.27
702.91	5.22
703.234	5.23
703.557	5.38
703.881	5.32
704.205	5.29
704.529	5.15
704.852	5.29
705.176	5.18
705.499	5.21
705.823	5.13
706.146	5.17
706.47	5.18
706.793	5.16
707.117	5.2
707.44	5.2
707.763	5.26
708.086	5.26
708.409	5.18
708.733	5.05
709.056	4.88
709.379	4.94
709.702	4.99
710.025	5.05
710.348	5
710.671	5.13
710.993	5.26
711.316	5.33
711.639	5.28
711.962	5.37
712.284	5.28
712.607	5.27
712.93	5.32
713.252	5.34
713.575	5.41
713.897	5.3
714.22	5.32
714.542	5.35
714.864	5.36
715.187	5.39
715.509	5.37
715.831	5.54
716.153	5.48
716.475	5.55
716.798	5.59
717.12	5.66
717.442	5.63
717.764	5.45
718.085	5.46
718.407	5.54
718.729	5.52
719.051	5.64
719.373	5.71
719.695	5.58
720.016	5.57
720.338	5.53
720.659	5.66
720.981	5.67
721.302	5.7
721.624	5.75
721.945	5.9
722.267	5.94
722.588	5.88
722.909	5.87
723.231	5.77
723.552	5.65
723.873	5.65
724.194	5.52
724.515	5.68
724.836	5.63
725.157	5.6
725.478	5.47
725.799	5.4
726.12	5.32
726.441	5.59
726.762	5.48
727.083	5.43
727.403	5.35
727.724	5.32
728.045	5.24
728.365	5.12
728.686	5.03
729.006	4.87
729.327	4.9
729.647	4.94
729.967	4.99
730.288	5.09
730.608	5.01
730.928	5.12
731.249	5.04
731.569	5.11
731.889	5.11
732.209	5.26
732.529	5.32
732.849	5.41
733.169	5.22
733.489	5.23
733.809	5.3
734.129	5.32
734.448	5.39
734.768	5.37
735.088	5.51
735.408	5.45
735.727	5.65
736.047	5.64
736.366	5.61
736.686	5.71
737.005	5.65
737.325	5.7
737.644	5.66
737.963	5.77
738.283	5.75
738.602	5.66
738.921	5.59
739.24	5.49
739.56	5.46
739.879	5.43
740.198	5.43
740.517	5.49
740.836	5.64
741.155	5.67
741.473	5.92
741.792	5.79
742.111	6.03
742.43	5.9
742.748	5.84
743.067	5.83
743.386	5.96
743.704	6.01
744.023	6.21
744.341	6.24
744.66	6.32
744.978	6.21
745.297	6.13
745.615	6.35
745.933	6.54
746.252	6.46
746.57	6.65
746.888	6.63
747.206	6.42
747.524	6.39
747.842	6.15
748.16	6
748.478	6.04
748.796	5.97
749.114	6.27
749.432	6.28
749.749	6.43
750.067	6.09
750.385	6.12
750.703	5.91
751.02	5.97
751.338	5.93
751.655	5.94
751.973	6.04
752.29	5.94
752.608	5.8
752.925	5.83
753.242	5.73
753.56	5.91
753.877	6.08
754.194	6.02
754.511	6.32
754.828	6.09
755.145	6.24
755.462	6.04
755.779	5.87
756.096	5.84
756.413	5.9
756.73	6.03
757.047	5.96
757.364	5.84
757.68	5.79
757.997	5.85
758.314	5.84
758.63	5.88
758.947	5.87
759.264	5.78
759.58	6.1
759.896	6.13
760.213	6.15
760.529	6.15
760.846	6.07
761.162	6.16
761.478	6.3
761.794	6.17
762.11	6.32
762.426	6.38
762.743	6.53
763.059	6.45
763.375	6.4
763.69	6.54
764.006	6.84
764.322	6.87
764.638	6.76
764.954	6.97
765.27	7.12
765.585	7.07
765.901	7.32
766.216	7.1
766.532	7.21
766.848	7.11
767.163	7.03
767.478	7.1
767.794	7.09
768.109	7.09
768.424	7.12
768.74	7.03
769.055	6.98
769.37	7.07
769.685	6.94
770	7.18
770.315	6.83
770.63	6.54
770.945	6.54
771.26	6.61
771.575	6.49
771.89	6.48
772.205	6.47
772.52	6.15
772.834	6.15
773.149	6.3
773.464	6.32
773.778	6.48
774.093	6.37
774.407	5.87
774.722	5.52
775.036	5.61
775.351	5.73
775.665	5.71
775.979	5.11
776.293	5.16
776.608	4.84
776.922	5.01
777.236	5.03
777.55	5.19
777.864	5.53
778.178	5.55
778.492	5.21
778.806	5.48
779.12	5.6
779.434	5.86
779.747	5.75
780.061	5.97
780.375	5.9
780.689	6.24
781.002	6.58
781.316	6.89
781.629	7.06
781.943	7.45
782.256	7.65
782.57	7.99
782.883	8.12
783.196	7.92
783.51	7.98
783.823	8
784.136	7.91
784.449	7.57
784.762	7.72
785.075	7.6
785.388	7.33
785.701	7.31
786.014	7.08
786.327	6.81
786.64	7.09
786.953	7.29
787.266	6.82
787.578	6.78
787.891	6.77
788.204	6.5
788.516	6.16
788.829	5.9
789.141	6.06
789.454	6.3
789.766	6.56
790.079	6.87
790.391	6.88
790.703	6.86
791.016	6.82
791.328	6.95
791.64	7.36
791.952	7.13
792.264	7.22
792.576	7.27
792.888	7.3
793.2	6.95
793.512	6.74
793.824	7.09
794.136	7.04
794.448	7.37
794.76	7.38
795.071	7.7
795.383	7.29
795.695	6.8
796.006	6.77
796.318	6.72
796.629	6.99
796.941	7.02
797.252	6.99
797.564	7.35
797.875	6.65
798.186	6.44
798.497	7.12
798.809	6.92
799.12	6.87
799.431	6.96
799.742	6.86
800.053	7.09
800.364	7.09
800.675	7.09
800.986	7.11
801.297	7.06
801.608	6.89
801.918	7.39
802.229	7.76
802.54	7.76
802.851	7.67
803.161	6.91
803.472	7.16
803.782	7.24
804.093	6.7
804.403	7.09
804.714	7.25
805.024	6.56
805.334	6.98
805.645	7.06
805.955	7.22
806.265	7.47
806.575	7.64
806.885	7.78
807.195	8.06
807.505	8.08
807.815	8.38
808.125	7.9
808.435	7.39
808.745	7.75
809.055	8.05
809.365	8.11
809.674	8.28
809.984	7.98
810.294	8.33
810.603	8.71
810.913	8.46
811.222	8.1
811.532	8.49
811.841	8.41
812.151	9.14
812.46	9.02
812.769	8.74
813.079	8.53
813.388	8.8
813.697	9.32
814.006	8.78
814.315	8.86
814.624	8.82
814.933	9.45
815.242	9.04
815.551	8.49
815.86	8.49
816.169	8.5
816.478	8.37
816.786	7.69
817.095	7.58
817.404	7.82
817.712	7.96
818.021	8.5
818.33	8.32
818.638	8.03
818.947	8.47
819.255	8.39
819.563	8.4
819.872	8.25
820.18	8.2
820.488	8.23
820.796	8.13
821.105	8.16
821.413	8.13
821.721	8.2
822.029	8.23
822.337	8.49
822.645	8.49
822.953	8.58
823.26	8.69
823.568	8.58
823.876	8.69
824.184	8.8
824.491	8.62
824.799	8.6
825.107	8.44
825.414	8.41
825.722	8.51
826.029	8.44
826.337	8.51
826.644	8.39
826.951	8.27
827.259	8.33
827.566	8.37
827.873	8.28
828.18	8.42
828.488	8.45
828.795	8.23
829.102	8.2
829.409	8.33
829.716	8.09
830.023	8.28
830.329	7.96
830.636	7.86
830.943	7.94
831.25	7.97
831.557	8.01
831.863	7.96
832.17	7.8
832.476	8.14
832.783	7.82
833.089	7.9
833.396	8.43
833.702	8.4
834.009	8.65
834.315	8.76
834.621	8.57
834.928	8.46
835.234	8.7
835.54	8.85
835.846	8.09
836.152	8.13
836.458	7.94
836.764	7.95
837.07	7.68
837.376	7.09
837.682	7.05
837.988	7.35
838.293	7.3
838.599	7.16
838.905	6.38
839.211	5.97
839.516	5.69
839.822	5.31
840.127	5
840.433	4.31
840.738	4.2
841.044	4.22
841.349	4.62
841.654	3.14
841.959	2.81
842.265	2.93
842.57	3.59
842.875	3.47
843.18	4.27
843.485	4.64
843.79	4.96
844.095	5.04
844.4	5.81
844.705	4.42
845.01	4.21
845.315	4.34
845.619	4.36
845.924	4.45
846.229	3.09
846.533	2.92
846.838	2.88
847.142	2.71
847.447	-0.04
847.751	-0.73
848.056	-1.16
848.36	0.07
848.664	2.8
848.969	1.29
849.273	0.69
849.577	0.67
849.881	0.1
850.185	0.6
850.489	0.44
850.794	-2.23
851.097	-1.84
851.401	-1.45
851.705	-1.33
852.009	0.11
852.313	-0.37
852.617	2.05
852.92	3.46
853.224	5.06
853.528	6.86
853.831	8.46
854.135	8.72
854.438	11.23
854.742	11.26
855.045	8.71
855.349	9.61
855.652	10.02
855.955	7.87
856.259	7.35
856.562	8.7
856.865	8.02
857.168	6.74
857.471	7.25
857.774	8.55
858.077	7.19
858.38	5.48
858.683	4.24
858.986	3.89
859.289	3.36
859.592	2.86
859.894	2.1
860.197	3.9
860.5	3.86
860.802	3.7
861.105	2.52
861.407	2.37
861.71	1.3
862.012	1.52
862.315	3.34
862.617	4.92
862.919	3.55
863.222	5.91
863.524	7.62
863.826	7.65
864.128	7.78
864.43	9.76
864.732	11.54
865.034	13.69
865.336	12.71
865.638	14.07
865.94	13.94
866.242	14.46
866.544	13.71
866.846	14.16
867.147	16.07
867.449	17.55
867.751	16.48
868.052	17.79
868.354	19.62
868.655	18.98
868.957	16.92
869.258	17.59
869.56	17.67
869.861	18.57
870.162	18.94
870.463	15.94
870.765	14.99
871.066	16.26
871.367	15.57
871.668	16.63
871.969	16.1
872.27	16.36
872.571	13.08
872.872	12.57
873.173	10.65
873.473	8.14
873.774	5.45
874.075	6.78
874.376	6.99
874.676	5.68
874.977	4.44
875.277	4.78
875.578	6.64
875.878	4.03
876.179	3.33
876.479	3.77
876.78	6.44
877.08	8.13
877.38	4.95
877.68	5.01
877.981	4.46
878.281	0.9
878.581	-2.04
