Data from BU26946_Reflection_00006.txt Node
Date: Tue Nov 19 10:51:59 EST 2019
User: vgr7
Spectrometer: USB2G7710
Scans to average: 3
Trigger mode: 4
Integration Time (sec): 2.000000E-2
Electric dark correction enabled: true
Boxcar width: 10
XAxis mode: Wavelengths
Number of Pixels in Spectrum: 2048
>>>>>Begin Spectral Data<<<<<
177.721	54.01
178.105	5.41
178.488	-93.5
178.871	73.68
179.254	-228.57
179.636	194.34
180.019	227.91
180.402	142.86
180.785	430.77
181.168	116.75
181.55	85.55
181.933	79.71
182.316	109.92
182.698	135.51
183.081	287.22
183.463	-1161.19
183.846	270.81
184.228	61.54
184.611	40.56
184.993	-7.27
185.376	-782.98
185.758	130.69
186.14	70.77
186.522	37.4
186.904	21.94
187.287	-12.34
187.669	-6.7
188.051	-25.71
188.433	-23.41
188.815	-12.9
189.197	6.22
189.579	6.61
189.961	0.49
190.342	7.97
190.724	20.51
191.106	22.86
191.488	27.45
191.869	13.6
192.251	0.08
192.633	-2.38
193.014	10.03
193.396	-3.48
193.777	12.92
194.159	14.29
194.54	18.19
194.922	36.88
195.303	71.55
195.684	75.36
196.065	67.98
196.447	86.07
196.828	90.88
197.209	78.74
197.59	101.71
197.971	93.59
198.352	102.01
198.733	104.7
199.114	84.06
199.495	76.67
199.876	73.03
200.257	69.58
200.638	79.11
201.018	80.31
201.399	93.46
201.78	82.91
202.16	69.4
202.541	85.85
202.922	69.44
203.302	45.02
203.683	37.94
204.063	2.49
204.444	1.26
204.824	4.05
205.204	11.32
205.585	9.74
205.965	10.28
206.345	16.04
206.725	17.28
207.106	19.01
207.486	26.16
207.866	22.64
208.246	36.86
208.626	17.07
209.006	11.32
209.386	11.81
209.766	11.25
210.145	19.59
210.525	7.42
210.905	14.09
211.285	18.03
211.664	20.9
212.044	37.26
212.424	33.54
212.803	37.38
213.183	34.18
213.562	32.32
213.942	39.53
214.321	42
214.701	38.21
215.08	30.81
215.459	35.15
215.838	58.13
216.218	44.69
216.597	55.02
216.976	43.01
217.355	29.84
217.734	17.26
218.113	29.57
218.492	28.57
218.871	32.15
219.25	33.97
219.629	47.55
220.008	55.22
220.387	63.26
220.766	58.37
221.144	71.83
221.523	47.24
221.902	45.21
222.28	25.55
222.659	43.24
223.037	38.8
223.416	29.53
223.794	9.26
224.173	11.08
224.551	19.75
224.929	18.77
225.308	23.09
225.686	22.55
226.064	17.1
226.442	17.48
226.821	14.41
227.199	17.09
227.577	13.1
227.955	12.95
228.333	8.08
228.711	5.76
229.089	5.37
229.467	6.42
229.845	6.66
230.222	9.33
230.6	7.95
230.978	9.68
231.356	8.63
231.733	10.89
232.111	8.66
232.488	6.64
232.866	11.6
233.243	10.68
233.621	10.74
233.998	10.72
234.376	11.69
234.753	11.95
235.13	10.01
235.508	11.09
235.885	10.52
236.262	12.45
236.639	12.35
237.016	11.86
237.393	12.81
237.77	11.71
238.147	10.78
238.524	10.86
238.901	9.19
239.278	8.71
239.655	7.84
240.032	8.45
240.409	8.17
240.785	7.42
241.162	7.19
241.539	7.2
241.915	6.82
242.292	6.1
242.668	5.73
243.045	5.9
243.421	5.74
243.798	5.43
244.174	5.39
244.551	5.53
244.927	5.22
245.303	4.89
245.679	4.93
246.056	4.56
246.432	4.48
246.808	4.78
247.184	4.97
247.56	4.79
247.936	4.71
248.312	4.8
248.688	4.87
249.064	4.83
249.44	4.81
249.815	5
250.191	5.31
250.567	5.44
250.943	5.55
251.318	5.44
251.694	5.56
252.069	5.64
252.445	5.45
252.82	5.71
253.196	5.8
253.571	5.87
253.947	6.07
254.322	5.89
254.697	5.64
255.073	5.38
255.448	5.34
255.823	5.42
256.198	5.28
256.573	5.05
256.948	5.31
257.323	5.15
257.698	5.03
258.073	4.74
258.448	4.63
258.823	4.38
259.198	4.5
259.573	4.3
259.948	4.15
260.322	3.99
260.697	3.96
261.072	4.15
261.446	4.17
261.821	4.07
262.195	4.14
262.57	4.29
262.944	4.44
263.319	4.53
263.693	4.28
264.067	4.34
264.442	4.45
264.816	4.37
265.19	4.44
265.564	4.38
265.938	4.29
266.313	4.31
266.687	4.4
267.061	4.42
267.435	4.53
267.809	4.54
268.183	4.65
268.556	4.6
268.93	4.4
269.304	4.38
269.678	4.39
270.051	4.45
270.425	4.42
270.799	4.23
271.172	4.17
271.546	4.36
271.919	4.31
272.293	4.31
272.666	4.07
273.04	4.13
273.413	4.06
273.787	4.01
274.16	4.11
274.533	4.1
274.906	4.03
275.279	4.09
275.653	4.06
276.026	4.09
276.399	3.94
276.772	3.97
277.145	4.03
277.518	4.02
277.891	3.88
278.263	3.76
278.636	3.8
279.009	3.89
279.382	3.78
279.755	3.81
280.127	3.61
280.5	3.81
280.872	3.79
281.245	3.95
281.617	4.06
281.99	3.92
282.362	3.86
282.735	3.84
283.107	3.77
283.479	3.85
283.852	3.88
284.224	4.04
284.596	3.91
284.968	3.72
285.34	3.73
285.713	3.71
286.085	3.72
286.457	3.8
286.829	3.68
287.201	3.75
287.572	3.65
287.944	3.69
288.316	3.64
288.688	3.63
289.06	3.59
289.431	3.62
289.803	3.66
290.175	3.69
290.546	3.7
290.918	3.79
291.289	3.59
291.661	3.69
292.032	3.59
292.403	3.58
292.775	3.69
293.146	3.69
293.517	3.69
293.889	3.66
294.26	3.64
294.631	3.75
295.002	3.69
295.373	3.79
295.744	3.88
296.115	3.9
296.486	3.88
296.857	3.91
297.228	3.89
297.599	3.85
297.97	3.82
298.34	3.77
298.711	3.8
299.082	3.84
299.452	3.77
299.823	3.87
300.194	3.94
300.564	3.87
300.935	3.96
301.305	4.01
301.676	4.03
302.046	3.91
302.416	3.78
302.787	3.81
303.157	3.72
303.527	3.8
303.897	3.86
304.267	3.86
304.637	3.88
305.008	3.83
305.378	3.92
305.748	3.95
306.117	3.87
306.487	3.86
306.857	3.95
307.227	3.94
307.597	3.92
307.967	3.96
308.336	4.02
308.706	3.98
309.076	3.98
309.445	4.06
309.815	4.09
310.184	4.11
310.554	4.15
310.923	4.18
311.293	4.03
311.662	4.01
312.031	4.03
312.401	3.94
312.77	4.05
313.139	3.97
313.508	3.93
313.877	4.01
314.246	3.93
314.616	4
314.985	4.07
315.353	4.09
315.722	4.15
316.091	4.16
316.46	4.22
316.829	4.32
317.198	4.26
317.567	4.3
317.935	4.22
318.304	4.19
318.672	4.21
319.041	4.24
319.41	4.14
319.778	4.09
320.147	4.16
320.515	4.23
320.883	4.11
321.252	4.08
321.62	3.9
321.988	3.98
322.357	3.94
322.725	3.92
323.093	3.83
323.461	3.79
323.829	3.87
324.197	3.82
324.565	3.78
324.933	3.85
325.301	3.71
325.669	3.89
326.037	3.88
326.405	3.91
326.772	3.84
327.14	3.85
327.508	3.87
327.875	3.75
328.243	3.67
328.61	3.81
328.978	3.84
329.346	4.02
329.713	4.01
330.08	3.94
330.448	3.87
330.815	3.88
331.182	3.85
331.55	3.7
331.917	3.49
332.284	3.52
332.651	3.5
333.018	3.6
333.385	3.5
333.752	3.58
334.119	3.57
334.486	3.6
334.853	3.54
335.22	3.52
335.587	3.51
335.954	3.37
336.32	3.32
336.687	3.35
337.054	3.4
337.42	3.32
337.787	3.2
338.153	3.23
338.52	3.3
338.886	3.39
339.253	3.45
339.619	3.56
339.986	3.44
340.352	3.38
340.718	3.35
341.084	3.4
341.451	3.37
341.817	3.34
342.183	3.36
342.549	3.42
342.915	3.36
343.281	3.51
343.647	3.65
344.013	3.67
344.379	3.73
344.745	3.68
345.11	3.57
345.476	3.78
345.842	3.76
346.208	3.77
346.573	3.67
346.939	3.65
347.304	3.64
347.67	3.63
348.035	3.68
348.401	3.66
348.766	3.62
349.132	3.59
349.497	3.61
349.862	3.66
350.228	3.72
350.593	3.79
350.958	3.76
351.323	3.72
351.688	3.72
352.053	3.7
352.418	3.75
352.783	3.81
353.148	3.74
353.513	3.67
353.878	3.63
354.243	3.62
354.608	3.72
354.972	3.76
355.337	3.84
355.702	3.8
356.066	3.91
356.431	3.88
356.795	3.84
357.16	3.86
357.524	3.82
357.889	3.74
358.253	3.7
358.618	3.72
358.982	3.71
359.346	3.71
359.71	3.66
360.075	3.63
360.439	3.7
360.803	3.71
361.167	3.7
361.531	3.69
361.895	3.68
362.259	3.65
362.623	3.68
362.987	3.63
363.351	3.61
363.714	3.59
364.078	3.6
364.442	3.61
364.806	3.57
365.169	3.58
365.533	3.64
365.896	3.73
366.26	3.68
366.623	3.62
366.987	3.64
367.35	3.68
367.714	3.66
368.077	3.63
368.44	3.62
368.803	3.66
369.167	3.63
369.53	3.69
369.893	3.64
370.256	3.55
370.619	3.58
370.982	3.54
371.345	3.53
371.708	3.56
372.071	3.53
372.434	3.49
372.797	3.5
373.159	3.42
373.522	3.42
373.885	3.48
374.247	3.52
374.61	3.56
374.973	3.53
375.335	3.53
375.698	3.53
376.06	3.54
376.423	3.55
376.785	3.62
377.147	3.51
377.51	3.53
377.872	3.6
378.234	3.6
378.596	3.65
378.958	3.61
379.321	3.56
379.683	3.65
380.045	3.72
380.407	3.7
380.769	3.71
381.13	3.64
381.492	3.6
381.854	3.65
382.216	3.64
382.578	3.65
382.939	3.69
383.301	3.68
383.663	3.67
384.024	3.66
384.386	3.65
384.747	3.7
385.109	3.73
385.47	3.72
385.832	3.7
386.193	3.67
386.554	3.66
386.916	3.67
387.277	3.58
387.638	3.52
387.999	3.54
388.36	3.58
388.721	3.63
389.082	3.66
389.443	3.64
389.804	3.65
390.165	3.67
390.526	3.67
390.887	3.65
391.248	3.65
391.609	3.64
391.969	3.62
392.33	3.61
392.691	3.62
393.051	3.59
393.412	3.6
393.772	3.63
394.133	3.63
394.493	3.65
394.854	3.65
395.214	3.64
395.574	3.61
395.935	3.56
396.295	3.57
396.655	3.53
397.015	3.52
397.376	3.5
397.736	3.48
398.096	3.44
398.456	3.45
398.816	3.44
399.176	3.44
399.535	3.44
399.895	3.46
400.255	3.47
400.615	3.49
400.975	3.48
401.334	3.49
401.694	3.52
402.054	3.54
402.413	3.55
402.773	3.58
403.132	3.6
403.492	3.61
403.851	3.57
404.211	3.56
404.57	3.55
404.929	3.51
405.288	3.51
405.648	3.52
406.007	3.49
406.366	3.48
406.725	3.5
407.084	3.51
407.443	3.49
407.802	3.41
408.161	3.39
408.52	3.4
408.879	3.38
409.238	3.37
409.596	3.37
409.955	3.4
410.314	3.37
410.673	3.34
411.031	3.34
411.39	3.35
411.748	3.37
412.107	3.4
412.465	3.42
412.824	3.42
413.182	3.41
413.54	3.45
413.899	3.48
414.257	3.48
414.615	3.47
414.974	3.5
415.332	3.52
415.69	3.54
416.048	3.54
416.406	3.55
416.764	3.53
417.122	3.5
417.48	3.51
417.838	3.51
418.195	3.54
418.553	3.54
418.911	3.54
419.269	3.53
419.626	3.5
419.984	3.48
420.342	3.49
420.699	3.49
421.057	3.48
421.414	3.48
421.772	3.47
422.129	3.48
422.486	3.47
422.844	3.48
423.201	3.49
423.558	3.49
423.915	3.47
424.273	3.46
424.63	3.46
424.987	3.45
425.344	3.46
425.701	3.45
426.058	3.45
426.415	3.45
426.772	3.47
427.128	3.49
427.485	3.5
427.842	3.49
428.199	3.51
428.555	3.49
428.912	3.47
429.269	3.47
429.625	3.49
429.982	3.48
430.338	3.47
430.695	3.47
431.051	3.48
431.407	3.5
431.764	3.51
432.12	3.52
432.476	3.53
432.832	3.53
433.189	3.53
433.545	3.52
433.901	3.52
434.257	3.5
434.613	3.49
434.969	3.49
435.325	3.5
435.681	3.5
436.036	3.52
436.392	3.53
436.748	3.54
437.104	3.53
437.459	3.53
437.815	3.54
438.171	3.53
438.526	3.52
438.882	3.53
439.237	3.53
439.593	3.54
439.948	3.53
440.304	3.54
440.659	3.54
441.014	3.54
441.369	3.55
441.725	3.55
442.08	3.56
442.435	3.55
442.79	3.54
443.145	3.53
443.5	3.52
443.855	3.52
444.21	3.51
444.565	3.49
444.92	3.51
445.275	3.5
445.629	3.48
445.984	3.47
446.339	3.46
446.693	3.47
447.048	3.45
447.403	3.46
447.757	3.44
448.112	3.44
448.466	3.44
448.82	3.43
449.175	3.44
449.529	3.44
449.883	3.44
450.238	3.45
450.592	3.45
450.946	3.46
451.3	3.44
451.654	3.43
452.008	3.45
452.362	3.43
452.716	3.44
453.07	3.44
453.424	3.46
453.778	3.45
454.132	3.44
454.486	3.45
454.839	3.44
455.193	3.46
455.547	3.46
455.9	3.46
456.254	3.47
456.607	3.48
456.961	3.48
457.314	3.46
457.668	3.46
458.021	3.45
458.375	3.44
458.728	3.45
459.081	3.46
459.434	3.45
459.787	3.46
460.141	3.46
460.494	3.48
460.847	3.48
461.2	3.48
461.553	3.5
461.906	3.5
462.259	3.49
462.611	3.48
462.964	3.49
463.317	3.48
463.67	3.5
464.022	3.48
464.375	3.48
464.728	3.51
465.08	3.51
465.433	3.52
465.785	3.52
466.138	3.53
466.49	3.55
466.843	3.57
467.195	3.59
467.547	3.59
467.899	3.58
468.252	3.6
468.604	3.61
468.956	3.59
469.308	3.57
469.66	3.6
470.012	3.61
470.364	3.62
470.716	3.62
471.068	3.62
471.42	3.61
471.772	3.63
472.123	3.63
472.475	3.63
472.827	3.63
473.178	3.64
473.53	3.64
473.882	3.64
474.233	3.62
474.585	3.59
474.936	3.6
475.288	3.6
475.639	3.59
475.99	3.58
476.342	3.61
476.693	3.62
477.044	3.61
477.395	3.6
477.746	3.58
478.097	3.57
478.448	3.55
478.8	3.56
479.15	3.55
479.501	3.56
479.852	3.56
480.203	3.57
480.554	3.59
480.905	3.6
481.255	3.59
481.606	3.6
481.957	3.62
482.307	3.62
482.658	3.64
483.009	3.64
483.359	3.64
483.709	3.63
484.06	3.64
484.41	3.65
484.761	3.66
485.111	3.67
485.461	3.67
485.811	3.68
486.162	3.69
486.512	3.69
486.862	3.7
487.212	3.71
487.562	3.71
487.912	3.71
488.262	3.71
488.612	3.71
488.961	3.72
489.311	3.72
489.661	3.71
490.011	3.69
490.36	3.69
490.71	3.7
491.06	3.71
491.409	3.7
491.759	3.69
492.108	3.69
492.458	3.69
492.807	3.69
493.157	3.68
493.506	3.68
493.855	3.68
494.204	3.67
494.554	3.66
494.903	3.65
495.252	3.65
495.601	3.64
495.95	3.64
496.299	3.63
496.648	3.63
496.997	3.64
497.346	3.68
497.695	3.69
498.043	3.69
498.392	3.7
498.741	3.72
499.09	3.72
499.438	3.73
499.787	3.74
500.135	3.75
500.484	3.77
500.832	3.79
501.181	3.81
501.529	3.83
501.878	3.84
502.226	3.86
502.574	3.86
502.923	3.86
503.271	3.87
503.619	3.89
503.967	3.88
504.315	3.88
504.663	3.87
505.011	3.85
505.359	3.86
505.707	3.87
506.055	3.87
506.403	3.88
506.751	3.85
507.098	3.87
507.446	3.86
507.794	3.87
508.141	3.87
508.489	3.87
508.837	3.88
509.184	3.88
509.531	3.88
509.879	3.87
510.226	3.88
510.574	3.9
510.921	3.89
511.268	3.92
511.616	3.94
511.963	3.94
512.31	3.95
512.657	3.95
513.004	3.93
513.351	3.93
513.698	3.92
514.045	3.95
514.392	3.95
514.739	3.96
515.086	3.96
515.432	3.95
515.779	3.96
516.126	3.96
516.473	3.97
516.819	3.98
517.166	3.99
517.512	4
517.859	4.02
518.205	4.01
518.552	4
518.898	4
519.245	4.02
519.591	4.03
519.937	4.01
520.283	4.04
520.629	4.03
520.976	4.05
521.322	4.05
521.668	4.06
522.014	4.05
522.36	4.07
522.706	4.07
523.052	4.09
523.398	4.08
523.743	4.08
524.089	4.07
524.435	4.08
524.781	4.08
525.126	4.07
525.472	4.08
525.817	4.07
526.163	4.08
526.509	4.07
526.854	4.07
527.199	4.08
527.545	4.08
527.89	4.09
528.235	4.09
528.581	4.1
528.926	4.09
529.271	4.11
529.616	4.1
529.961	4.12
530.306	4.11
530.651	4.11
530.996	4.13
531.341	4.14
531.686	4.15
532.031	4.14
532.376	4.15
532.721	4.15
533.065	4.17
533.41	4.16
533.755	4.17
534.099	4.18
534.444	4.18
534.788	4.18
535.133	4.18
535.477	4.17
535.822	4.16
536.166	4.15
536.51	4.14
536.855	4.13
537.199	4.12
537.543	4.13
537.887	4.14
538.231	4.13
538.576	4.12
538.92	4.12
539.264	4.14
539.608	4.15
539.951	4.14
540.295	4.14
540.639	4.14
540.983	4.15
541.327	4.15
541.671	4.15
542.014	4.16
542.358	4.15
542.701	4.17
543.045	4.17
543.389	4.17
543.732	4.17
544.075	4.19
544.419	4.19
544.762	4.2
545.105	4.2
545.449	4.2
545.792	4.23
546.135	4.23
546.478	4.23
546.821	4.21
547.165	4.23
547.508	4.25
547.851	4.25
548.194	4.24
548.536	4.25
548.879	4.28
549.222	4.28
549.565	4.3
549.908	4.27
550.25	4.28
550.593	4.3
550.936	4.31
551.278	4.3
551.621	4.31
551.963	4.3
552.306	4.3
552.648	4.28
552.991	4.25
553.333	4.28
553.675	4.27
554.017	4.27
554.36	4.25
554.702	4.22
555.044	4.24
555.386	4.23
555.728	4.21
556.07	4.2
556.412	4.19
556.754	4.18
557.096	4.2
557.438	4.18
557.78	4.18
558.121	4.19
558.463	4.2
558.805	4.18
559.147	4.19
559.488	4.18
559.83	4.2
560.171	4.2
560.513	4.17
560.854	4.18
561.196	4.18
561.537	4.18
561.878	4.23
562.22	4.26
562.561	4.28
562.902	4.26
563.243	4.27
563.584	4.3
563.925	4.32
564.266	4.3
564.607	4.33
564.948	4.3
565.289	4.28
565.63	4.28
565.971	4.3
566.312	4.28
566.653	4.28
566.993	4.27
567.334	4.26
567.675	4.25
568.015	4.24
568.356	4.24
568.696	4.25
569.037	4.22
569.377	4.22
569.718	4.21
570.058	4.22
570.398	4.2
570.739	4.18
571.079	4.18
571.419	4.22
571.759	4.23
572.099	4.25
572.439	4.26
572.779	4.28
573.119	4.28
573.459	4.27
573.799	4.25
574.139	4.27
574.479	4.3
574.819	4.33
575.158	4.34
575.498	4.36
575.838	4.34
576.177	4.35
576.517	4.36
576.856	4.36
577.196	4.36
577.535	4.4
577.875	4.42
578.214	4.41
578.553	4.37
578.893	4.34
579.232	4.35
579.571	4.33
579.91	4.36
580.25	4.34
580.589	4.35
580.928	4.4
581.267	4.39
581.606	4.38
581.945	4.36
582.283	4.34
582.622	4.31
582.961	4.32
583.3	4.32
583.639	4.3
583.977	4.3
584.316	4.32
584.654	4.28
584.993	4.27
585.332	4.3
585.67	4.32
586.008	4.39
586.347	4.43
586.685	4.43
587.024	4.42
587.362	4.41
587.7	4.42
588.038	4.46
588.376	4.48
588.715	4.52
589.053	4.56
589.391	4.56
589.729	4.56
590.067	4.53
590.404	4.52
590.742	4.53
591.08	4.51
591.418	4.52
591.756	4.53
592.093	4.54
592.431	4.54
592.769	4.55
593.106	4.51
593.444	4.48
593.781	4.49
594.119	4.48
594.456	4.49
594.793	4.48
595.131	4.43
595.468	4.42
595.805	4.4
596.143	4.38
596.48	4.39
596.817	4.41
597.154	4.46
597.491	4.46
597.828	4.44
598.165	4.45
598.502	4.42
598.839	4.42
599.176	4.42
599.512	4.35
599.849	4.4
600.186	4.4
600.523	4.41
600.859	4.41
601.196	4.41
601.532	4.46
601.869	4.46
602.205	4.45
602.542	4.42
602.878	4.45
603.215	4.45
603.551	4.46
603.887	4.44
604.223	4.43
604.56	4.43
604.896	4.45
605.232	4.47
605.568	4.47
605.904	4.47
606.24	4.48
606.576	4.51
606.912	4.47
607.248	4.47
607.583	4.47
607.919	4.47
608.255	4.49
608.591	4.5
608.926	4.48
609.262	4.49
609.597	4.49
609.933	4.49
610.268	4.5
610.604	4.51
610.939	4.54
611.275	4.51
611.61	4.51
611.945	4.44
612.281	4.45
612.616	4.45
612.951	4.48
613.286	4.48
613.621	4.49
613.956	4.52
614.291	4.54
614.626	4.51
614.961	4.54
615.296	4.55
615.631	4.53
615.966	4.54
616.3	4.61
616.635	4.65
616.97	4.63
617.304	4.62
617.639	4.61
617.973	4.59
618.308	4.64
618.642	4.63
618.977	4.71
619.311	4.7
619.646	4.68
619.98	4.68
620.314	4.68
620.648	4.66
620.983	4.68
621.317	4.69
621.651	4.73
621.985	4.71
622.319	4.68
622.653	4.67
622.987	4.67
623.321	4.65
623.655	4.65
623.988	4.66
624.322	4.68
624.656	4.69
624.99	4.71
625.323	4.71
625.657	4.76
625.99	4.75
626.324	4.72
626.657	4.74
626.991	4.71
627.324	4.69
627.658	4.69
627.991	4.65
628.324	4.62
628.657	4.63
628.991	4.69
629.324	4.7
629.657	4.67
629.99	4.67
630.323	4.67
630.656	4.62
630.989	4.57
631.322	4.55
631.655	4.54
631.987	4.56
632.32	4.54
632.653	4.56
632.986	4.57
633.318	4.64
633.651	4.7
633.984	4.72
634.316	4.78
634.649	4.8
634.981	4.84
635.313	4.83
635.646	4.82
635.978	4.79
636.31	4.77
636.643	4.77
636.975	4.77
637.307	4.79
637.639	4.83
637.971	4.89
638.303	4.91
638.635	4.87
638.967	4.85
639.299	4.88
639.631	4.85
639.963	4.85
640.295	4.83
640.626	4.72
640.958	4.73
641.29	4.74
641.621	4.71
641.953	4.64
642.285	4.73
642.616	4.72
642.948	4.71
643.279	4.67
643.61	4.68
643.942	4.74
644.273	4.72
644.604	4.69
644.936	4.63
645.267	4.61
645.598	4.63
645.929	4.57
646.26	4.52
646.591	4.5
646.922	4.57
647.253	4.59
647.584	4.64
647.915	4.67
648.245	4.66
648.576	4.71
648.907	4.74
649.238	4.63
649.568	4.56
649.899	4.57
650.229	4.63
650.56	4.67
650.89	4.67
651.221	4.64
651.551	4.67
651.882	4.71
652.212	4.77
652.542	4.87
652.872	4.93
653.203	5
653.533	5.08
653.863	5.04
654.193	5.04
654.523	5
654.853	5.01
655.183	5.01
655.513	4.96
655.843	4.96
656.172	5.02
656.502	5.11
656.832	5.11
657.162	5.14
657.491	5.12
657.821	5.09
658.15	5.13
658.48	5.14
658.809	5.19
659.139	5.21
659.468	5.14
659.798	5.15
660.127	5.12
660.456	4.99
660.785	5.01
661.115	4.95
661.444	5.07
661.773	5.05
662.102	5.03
662.431	5.03
662.76	5.1
663.089	5.12
663.418	5.11
663.747	5.19
664.076	5.14
664.404	5.22
664.733	5.29
665.062	5.29
665.39	5.29
665.719	5.28
666.048	5.24
666.376	5.24
666.705	5.19
667.033	5.25
667.362	5.31
667.69	5.34
668.018	5.39
668.347	5.26
668.675	5.25
669.003	5.27
669.331	5.37
669.659	5.35
669.987	5.36
670.315	5.35
670.643	5.29
670.971	5.33
671.299	5.3
671.627	5.26
671.955	5.31
672.283	5.32
672.61	5.29
672.938	5.36
673.266	5.42
673.593	5.42
673.921	5.4
674.249	5.42
674.576	5.41
674.904	5.47
675.231	5.54
675.558	5.57
675.886	5.57
676.213	5.55
676.54	5.55
676.867	5.5
677.195	5.47
677.522	5.43
677.849	5.46
678.176	5.41
678.503	5.39
678.83	5.32
679.157	5.31
679.484	5.37
679.81	5.22
680.137	5.25
680.464	5.3
680.791	5.31
681.117	5.3
681.444	5.25
681.771	5.22
682.097	5.14
682.424	5.18
682.75	5.16
683.077	5.13
683.403	5.09
683.729	5.08
684.056	5.13
684.382	5.18
684.708	5.14
685.034	5.22
685.36	5.19
685.686	5.27
686.012	5.32
686.339	5.33
686.664	5.44
686.99	5.37
687.316	5.37
687.642	5.27
687.968	5.33
688.294	5.29
688.619	5.38
688.945	5.42
689.271	5.39
689.596	5.38
689.922	5.31
690.247	5.27
690.573	5.3
690.898	5.35
691.224	5.37
691.549	5.4
691.874	5.34
692.2	5.34
692.525	5.29
692.85	5.17
693.175	5.11
693.5	5.09
693.825	5.04
694.15	5.01
694.475	5.15
694.8	5.08
695.125	5.06
695.45	4.95
695.775	5.05
696.099	5.08
696.424	5.15
696.749	5.19
697.073	5.29
697.398	5.39
697.723	5.32
698.047	5.3
698.372	5.23
698.696	5.24
699.02	5.32
699.345	5.35
699.669	5.47
699.993	5.42
700.318	5.42
700.642	5.5
700.966	5.58
701.29	5.55
701.614	5.6
701.938	5.63
702.262	5.65
702.586	5.62
702.91	5.55
703.234	5.49
703.557	5.54
703.881	5.52
704.205	5.49
704.529	5.49
704.852	5.46
705.176	5.52
705.499	5.55
705.823	5.62
706.146	5.6
706.47	5.58
706.793	5.64
707.117	5.7
707.44	5.75
707.763	5.74
708.086	5.73
708.409	5.7
708.733	5.67
709.056	5.68
709.379	5.69
709.702	5.66
710.025	5.82
710.348	5.73
710.671	5.77
710.993	5.73
711.316	5.89
711.639	5.86
711.962	5.9
712.284	5.99
712.607	5.91
712.93	5.83
713.252	5.79
713.575	5.81
713.897	5.87
714.22	5.77
714.542	5.75
714.864	5.81
715.187	5.76
715.509	5.79
715.831	5.85
716.153	5.85
716.475	5.98
716.798	5.9
717.12	5.9
717.442	5.74
717.764	5.82
718.085	5.64
718.407	5.74
718.729	5.69
719.051	5.59
719.373	5.63
719.695	5.79
720.016	5.76
720.338	5.93
720.659	5.89
720.981	5.9
721.302	5.94
721.624	5.96
721.945	5.98
722.267	6.13
722.588	6.01
722.909	5.98
723.231	5.9
723.552	5.94
723.873	5.99
724.194	6.14
724.515	6.11
724.836	6.23
725.157	6.21
725.478	6.18
725.799	6.11
726.12	6.03
726.441	6.1
726.762	6.03
727.083	5.8
727.403	5.89
727.724	5.87
728.045	5.87
728.365	5.84
728.686	6.07
729.006	6
729.327	6.07
729.647	6.03
729.967	5.98
730.288	5.87
730.608	5.93
730.928	6.05
731.249	6.11
731.569	6.06
731.889	6.14
732.209	6.3
732.529	6.42
732.849	6.38
733.169	6.28
733.489	6.46
733.809	6.42
734.129	6.41
734.448	6.44
734.768	6.31
735.088	6.29
735.408	6.08
735.727	6.14
736.047	6.22
736.366	6.19
736.686	6.3
737.005	6.51
737.325	6.46
737.644	6.35
737.963	6.34
738.283	6.22
738.602	6.2
738.921	6.28
739.24	6.15
739.56	6.24
739.879	6.31
740.198	6.29
740.517	6.55
740.836	6.48
741.155	6.56
741.473	6.72
741.792	6.77
742.111	7.14
742.43	7.3
742.748	7.41
743.067	7.65
743.386	7.69
743.704	7.44
744.023	7.82
744.341	7.88
744.66	7.81
744.978	7.91
745.297	7.92
745.615	7.71
745.933	7.63
746.252	7.64
746.57	7.57
746.888	7.58
747.206	7.54
747.524	7.45
747.842	7.31
748.16	7.34
748.478	7.24
748.796	6.97
749.114	6.83
749.432	6.87
749.749	6.81
750.067	6.79
750.385	7.13
750.703	6.66
751.02	6.62
751.338	6.21
751.655	6.22
751.973	6
752.29	6.03
752.608	6.23
752.925	6.43
753.242	6.47
753.56	6.35
753.877	6.05
754.194	6.1
754.511	6.17
754.828	6.17
755.145	6.25
755.462	6.15
755.779	5.86
756.096	5.73
756.413	5.6
756.73	5.5
757.047	5.26
757.364	5.39
757.68	5.39
757.997	5.9
758.314	6.02
758.63	6.08
758.947	6.13
759.264	6.21
759.58	6.1
759.896	5.95
760.213	6.17
760.529	6.23
760.846	6.29
761.162	6.27
761.478	6.16
761.794	6.21
762.11	6.25
762.426	6.44
762.743	6.38
763.059	6.39
763.375	6.29
763.69	6.42
764.006	6.65
764.322	6.73
764.638	6.68
764.954	6.63
765.27	6.84
765.585	6.75
765.901	6.64
766.216	6.6
766.532	6.6
766.848	6.41
767.163	6.5
767.478	6.42
767.794	6.53
768.109	6.55
768.424	6.44
768.74	6.47
769.055	6.56
769.37	6.46
769.685	6.58
770	6.69
770.315	6.64
770.63	6.48
770.945	6.37
771.26	6.52
771.575	6.37
771.89	6.35
772.205	6.26
772.52	6.44
772.834	6.7
773.149	6.83
773.464	6.82
773.778	6.65
774.093	6.7
774.407	7.06
774.722	7.22
775.036	7.44
775.351	7.71
775.665	7.78
775.979	7.8
776.293	7.95
776.608	8.34
776.922	8.25
777.236	8.07
777.55	8.2
777.864	8.2
778.178	8.26
778.492	8.21
778.806	8.33
779.12	8.85
779.434	8.53
779.747	8.61
780.061	8.9
780.375	9.31
780.689	9.61
781.002	9.31
781.316	9.31
781.629	9.12
781.943	9.06
782.256	8.85
782.57	8.88
782.883	8.97
783.196	8.68
783.51	8.99
783.823	9.27
784.136	9.1
784.449	8.51
784.762	9.07
785.075	8.9
785.388	9.21
785.701	8.52
786.014	8.34
786.327	8.43
786.64	8.5
786.953	8.45
787.266	8.07
787.578	7.91
787.891	8.04
788.204	8.16
788.516	7.83
788.829	7.85
789.141	8.36
789.454	8.37
789.766	8.32
790.079	8.23
790.391	7.7
790.703	7.84
791.016	8.04
791.328	7.79
791.64	8.01
791.952	7.6
792.264	7.36
792.576	7.58
792.888	7.41
793.2	7.26
793.512	7.22
793.824	7.29
794.136	7.14
794.448	7.13
794.76	7.35
795.071	7.64
795.383	7.53
795.695	7.12
796.006	6.79
796.318	6.96
796.629	7.09
796.941	7.72
797.252	7.65
797.564	8.04
797.875	7.96
798.186	7.8
798.497	8.12
798.809	8.5
799.12	8.8
799.431	8.76
799.742	8.63
800.053	8.13
800.364	8.44
800.675	8.93
800.986	9.04
801.297	8.99
801.608	8.9
801.918	9.21
802.229	9.23
802.54	9.52
802.851	9.34
803.161	9.02
803.472	8.99
803.782	9.29
804.093	9.16
804.403	8.97
804.714	9.41
805.024	9.44
805.334	9.29
805.645	8.71
805.955	8.93
806.265	9.02
806.575	9.7
806.885	9.8
807.195	10.06
807.505	9.57
807.815	9.49
808.125	9.99
808.435	9.8
808.745	9.73
809.055	10.07
809.365	10.31
809.674	10.68
809.984	10.36
810.294	10.31
810.603	9.95
810.913	10.44
811.222	10.21
811.532	10.57
811.841	10.96
812.151	11.94
812.46	11.56
812.769	11.59
813.079	11.33
813.388	11.27
813.697	10.91
814.006	11
814.315	10.9
814.624	10
814.933	10.64
815.242	10.56
815.551	9.85
815.86	9.97
816.169	9.13
816.478	9.17
816.786	8.96
817.095	9.35
817.404	9.21
817.712	9.16
818.021	8.52
818.33	8.36
818.638	8.11
818.947	8.59
819.255	8.76
819.563	8.85
819.872	8.77
820.18	8.67
820.488	8.94
820.796	9.06
821.105	9.31
821.413	8.97
821.721	8.98
822.029	9.15
822.337	9.12
822.645	9.28
822.953	9.27
823.26	9.38
823.568	9.26
823.876	9.2
824.184	9.14
824.491	9.12
824.799	9.22
825.107	9.24
825.414	9.14
825.722	9.26
826.029	9.3
826.337	9.07
826.644	9.11
826.951	9.11
827.259	9.08
827.566	8.96
827.873	9.25
828.18	9.49
828.488	9.46
828.795	9.6
829.102	9.4
829.409	9.56
829.716	9.62
830.023	9.97
830.329	10.38
830.636	10.69
830.943	10.97
831.25	10.92
831.557	10.59
831.863	10.77
832.17	10.52
832.476	10.63
832.783	11.21
833.089	11.31
833.396	11.4
833.702	11.27
834.009	11.41
834.315	10.82
834.621	10.41
834.928	10.38
835.234	9.7
835.54	9.9
835.846	9.81
836.152	9.45
836.458	9.44
836.764	9.39
837.07	9.41
837.376	9.57
837.682	9.26
837.988	9.6
838.293	9.74
838.599	9.88
838.905	9.96
839.211	10.09
839.516	9.85
839.822	9.85
840.127	9.54
840.433	9.57
840.738	10.09
841.044	10.3
841.349	9.68
841.654	9.8
841.959	10.7
842.265	11.18
842.57	11.32
842.875	11.04
843.18	9.95
843.485	10.08
843.79	9.8
844.095	10.46
844.4	10.47
844.705	10.86
845.01	11.41
845.315	10.99
845.619	10.31
845.924	11.14
846.229	9.78
846.533	9.93
846.838	10.26
847.142	11.01
847.447	11.91
847.751	12.35
848.056	13.76
848.36	13.82
848.664	12.75
848.969	12.11
849.273	12.42
849.577	11.62
849.881	10.95
850.185	10.86
850.489	10.82
850.794	11.57
851.097	12.16
851.401	11.79
851.705	12.38
852.009	14.11
852.313	13.64
852.617	14.44
852.92	16.33
853.224	15.76
853.528	14.55
853.831	13.59
854.135	15.8
854.438	15.62
854.742	14.26
855.045	14.63
855.349	16.28
855.652	16.78
855.955	19.26
856.259	20.42
856.562	20.84
856.865	22.62
857.168	25.03
857.471	25.35
857.774	24.84
858.077	23.73
858.38	23.68
858.683	24.15
858.986	25.07
859.289	24.61
859.592	26.54
859.894	28.88
860.197	29.7
860.5	29.39
860.802	29.27
861.105	28.81
861.407	28.73
861.71	28.3
862.012	27.01
862.315	27.3
862.617	25.58
862.919	25.84
863.222	24.13
863.524	18.72
863.826	17.13
864.128	17.5
864.43	17.5
864.732	17.5
865.034	17.9
865.336	17.38
865.638	17.42
865.94	15.89
866.242	13.97
866.544	15.67
866.846	15.65
867.147	16.5
867.449	19.75
867.751	19.59
868.052	19.47
868.354	20.15
868.655	19.94
868.957	20.95
869.258	18.77
869.56	19.33
869.861	20.09
870.162	18.93
870.463	18.74
870.765	18.39
871.066	16.91
871.367	14.72
871.668	15.06
871.969	14.23
872.27	14.06
872.571	14.41
872.872	13.49
873.173	10.41
873.473	9.16
873.774	7.56
874.075	8.23
874.376	8.16
874.676	10.43
874.977	10.8
875.277	11.12
875.578	12.48
875.878	11.39
876.179	13.42
876.479	14.89
876.78	13.98
877.08	15.41
877.38	17.28
877.68	19.51
877.981	19.84
878.281	22
878.581	22.08
