Data from BU26939_Reflection_00011.txt Node
Date: Tue Nov 19 10:56:55 EST 2019
User: vgr7
Spectrometer: USB2G7710
Scans to average: 3
Trigger mode: 4
Integration Time (sec): 2.000000E-2
Electric dark correction enabled: true
Boxcar width: 10
XAxis mode: Wavelengths
Number of Pixels in Spectrum: 2048
>>>>>Begin Spectral Data<<<<<
177.721	99.46
178.105	69.86
178.488	145.15
178.871	62.12
179.254	92.59
179.636	147.26
180.019	153.76
180.402	123.53
180.785	38.36
181.168	-4.03
181.55	-492.59
181.933	443.43
182.316	-244.63
182.698	964.2
183.081	-1344.44
183.463	-980.46
183.846	-954.26
184.228	-261.82
184.611	-134.57
184.993	-65.3
185.376	15.33
185.758	41.24
186.14	14.55
186.522	26.59
186.904	-8.72
187.287	11.91
187.669	22.37
188.051	26.42
188.433	21.95
188.815	17.48
189.197	7.26
189.579	8.81
189.961	7.23
190.342	8.05
190.724	32.81
191.106	28.15
191.488	27.23
191.869	47.7
192.251	61.45
192.633	60.27
193.014	70.36
193.396	45.25
193.777	47.13
194.159	52.63
194.54	51.71
194.922	56.92
195.303	45.59
195.684	40.81
196.065	33.68
196.447	37.63
196.828	31.32
197.209	50.15
197.59	57.67
197.971	62.77
198.352	58.9
198.733	33.85
199.114	41.7
199.495	31.42
199.876	27.7
200.257	6.56
200.638	1.67
201.018	-0.04
201.399	-1.4
201.78	-9.42
202.16	-8.82
202.541	-19.41
202.922	-28.5
203.302	-22.4
203.683	-14.54
204.063	-13.02
204.444	-16.29
204.824	-14.88
205.204	-19.42
205.585	-14.94
205.965	-28.95
206.345	-32.11
206.725	-27.07
207.106	-19.33
207.486	-18.2
207.866	-20.9
208.246	-4.57
208.626	-12.75
209.006	-15.28
209.386	-6.5
209.766	-10.99
210.145	-9.13
210.525	-6.6
210.905	2.51
211.285	4.97
211.664	6.78
212.044	8.76
212.424	16.87
212.803	13.82
213.183	20.06
213.562	18.59
213.942	23.92
214.321	28.3
214.701	23.05
215.08	13.39
215.459	13.2
215.838	17.31
216.218	3.29
216.597	17.97
216.976	9.71
217.355	3.69
217.734	9
218.113	6.55
218.492	20.04
218.871	23.04
219.25	8.17
219.629	-16.24
220.008	-27.38
220.387	-40.07
220.766	-17.71
221.144	-21.26
221.523	-7.16
221.902	-5.62
222.28	8.28
222.659	19.5
223.037	13.11
223.416	10.12
223.794	4.32
224.173	4.17
224.551	-1.46
224.929	-0.28
225.308	7.07
225.686	10.89
226.064	10.94
226.442	4.53
226.821	2.35
227.199	2.55
227.577	9.76
227.955	13.75
228.333	12.56
228.711	13.4
229.089	12.25
229.467	8.91
229.845	9.61
230.222	8
230.6	8.05
230.978	8.8
231.356	9.64
231.733	10.47
232.111	11.09
232.488	12.03
232.866	15.76
233.243	14.49
233.621	13.56
233.998	12.07
234.376	13.27
234.753	13.77
235.13	14.48
235.508	13.23
235.885	11.02
236.262	12.36
236.639	11.2
237.016	10.93
237.393	12.75
237.77	12.25
238.147	11.65
238.524	10.66
238.901	8.89
239.278	7.66
239.655	7.16
240.032	6.83
240.409	6.21
240.785	4.81
241.162	4.2
241.539	4.44
241.915	4.93
242.292	4.8
242.668	4.8
243.045	4.93
243.421	4.88
243.798	4.92
244.174	4.63
244.551	4.62
244.927	4.92
245.303	4.34
245.679	4.38
246.056	4.47
246.432	4.33
246.808	4.73
247.184	5.16
247.56	4.84
247.936	5.15
248.312	5.18
248.688	5.45
249.064	5.31
249.44	5.17
249.815	5.13
250.191	5.16
250.567	5.33
250.943	5.1
251.318	4.8
251.694	4.96
252.069	5.01
252.445	5.09
252.82	5.02
253.196	5.37
253.571	5.22
253.947	4.96
254.322	5.07
254.697	5.01
255.073	4.94
255.448	4.99
255.823	4.77
256.198	4.8
256.573	4.4
256.948	4.6
257.323	4.43
257.698	4.27
258.073	4.21
258.448	4.15
258.823	4.15
259.198	4.18
259.573	3.88
259.948	3.86
260.322	3.8
260.697	3.74
261.072	3.62
261.446	3.69
261.821	3.7
262.195	3.77
262.57	3.75
262.944	3.66
263.319	3.87
263.693	3.81
264.067	3.7
264.442	3.76
264.816	3.77
265.19	3.81
265.564	3.82
265.938	3.74
266.313	3.56
266.687	3.7
267.061	3.76
267.435	4.08
267.809	3.99
268.183	4.21
268.556	4.25
268.93	4.23
269.304	4.05
269.678	4.31
270.051	4.19
270.425	4.18
270.799	4.16
271.172	4.07
271.546	4.41
271.919	4.56
272.293	4.57
272.666	4.64
273.04	4.71
273.413	4.72
273.787	4.85
274.16	4.8
274.533	4.8
274.906	4.93
275.279	4.81
275.653	4.81
276.026	4.58
276.399	4.4
276.772	4.42
277.145	4.64
277.518	4.4
277.891	4.52
278.263	4.45
278.636	4.57
279.009	4.62
279.382	4.18
279.755	4.2
280.127	4.26
280.5	4.25
280.872	4.23
281.245	4.38
281.617	4.3
281.99	4.37
282.362	4.18
282.735	3.93
283.107	3.91
283.479	3.93
283.852	3.96
284.224	4
284.596	4.04
284.968	4.06
285.34	4.05
285.713	4.04
286.085	4.09
286.457	3.95
286.829	3.91
287.201	3.87
287.572	3.72
287.944	3.71
288.316	3.72
288.688	3.81
289.06	3.66
289.431	3.59
289.803	3.68
290.175	3.77
290.546	3.87
290.918	3.93
291.289	3.9
291.661	3.87
292.032	3.89
292.403	3.85
292.775	3.8
293.146	3.99
293.517	3.9
293.889	3.94
294.26	4.01
294.631	4
295.002	4.15
295.373	4.2
295.744	4.32
296.115	4.33
296.486	4.27
296.857	4.34
297.228	4.37
297.599	4.34
297.97	4.38
298.34	4.39
298.711	4.3
299.082	4.41
299.452	4.54
299.823	4.59
300.194	4.57
300.564	4.57
300.935	4.42
301.305	4.55
301.676	4.58
302.046	4.65
302.416	4.77
302.787	4.67
303.157	4.82
303.527	4.79
303.897	4.72
304.267	4.73
304.637	4.69
305.008	4.79
305.378	4.69
305.748	4.8
306.117	4.87
306.487	5.03
306.857	5.03
307.227	5.15
307.597	5.15
307.967	5.24
308.336	5.31
308.706	5.52
309.076	5.61
309.445	5.61
309.815	5.64
310.184	5.62
310.554	5.76
310.923	5.55
311.293	5.58
311.662	5.57
312.031	5.62
312.401	5.61
312.77	5.58
313.139	5.77
313.508	5.74
313.877	5.77
314.246	5.85
314.616	5.99
314.985	5.89
315.353	6.02
315.722	6.18
316.091	6.31
316.46	6.18
316.829	6.03
317.198	6.07
317.567	6.23
317.935	6.27
318.304	6.39
318.672	6.63
319.041	6.65
319.41	6.89
319.778	7.03
320.147	7.21
320.515	7.41
320.883	7.55
321.252	7.62
321.62	7.69
321.988	7.67
322.357	7.61
322.725	7.67
323.093	7.61
323.461	7.66
323.829	7.67
324.197	7.8
324.565	7.9
324.933	7.92
325.301	7.82
325.669	7.78
326.037	7.73
326.405	7.82
326.772	7.84
327.14	7.75
327.508	7.63
327.875	7.66
328.243	7.53
328.61	7.48
328.978	7.46
329.346	7.64
329.713	7.78
330.08	7.86
330.448	7.95
330.815	7.92
331.182	7.78
331.55	7.81
331.917	7.74
332.284	7.87
332.651	8.01
333.018	8.08
333.385	8.14
333.752	8.14
334.119	8.19
334.486	8.22
334.853	8.3
335.22	8.31
335.587	8.34
335.954	8.45
336.32	8.34
336.687	8.53
337.054	8.44
337.42	8.35
337.787	8.24
338.153	8.28
338.52	8.45
338.886	8.68
339.253	8.67
339.619	8.66
339.986	8.68
340.352	8.6
340.718	8.64
341.084	8.74
341.451	8.82
341.817	8.86
342.183	8.92
342.549	8.99
342.915	9.17
343.281	9.1
343.647	9.12
344.013	9.25
344.379	9.17
344.745	9.14
345.11	9.26
345.476	9.37
345.842	9.23
346.208	9.23
346.573	9.16
346.939	9.24
347.304	9.36
347.67	9.22
348.035	9.23
348.401	9.23
348.766	9.13
349.132	9.15
349.497	9.05
349.862	9.02
350.228	8.94
350.593	8.87
350.958	8.99
351.323	9.01
351.688	9.04
352.053	9.09
352.418	9.12
352.783	9.03
353.148	9
353.513	9.01
353.878	8.94
354.243	8.89
354.608	8.89
354.972	8.85
355.337	8.95
355.702	8.93
356.066	8.92
356.431	8.87
356.795	8.88
357.16	8.92
357.524	8.95
357.889	8.84
358.253	8.89
358.618	8.84
358.982	8.77
359.346	8.71
359.71	8.64
360.075	8.62
360.439	8.64
360.803	8.65
361.167	8.63
361.531	8.62
361.895	8.62
362.259	8.61
362.623	8.58
362.987	8.53
363.351	8.49
363.714	8.45
364.078	8.51
364.442	8.49
364.806	8.46
365.169	8.41
365.533	8.51
365.896	8.4
366.26	8.36
366.623	8.35
366.987	8.31
367.35	8.26
367.714	8.24
368.077	8.18
368.44	8.18
368.803	8.21
369.167	8.12
369.53	8.05
369.893	7.92
370.256	7.86
370.619	7.83
370.982	7.71
371.345	7.74
371.708	7.7
372.071	7.62
372.434	7.57
372.797	7.53
373.159	7.48
373.522	7.45
373.885	7.47
374.247	7.46
374.61	7.37
374.973	7.34
375.335	7.32
375.698	7.27
376.06	7.17
376.423	7.09
376.785	7.14
377.147	7.11
377.51	7.14
377.872	7.13
378.234	7.07
378.596	7.15
378.958	7.06
379.321	7
379.683	6.98
380.045	6.92
380.407	6.87
380.769	6.81
381.13	6.73
381.492	6.63
381.854	6.59
382.216	6.6
382.578	6.56
382.939	6.51
383.301	6.42
383.663	6.36
384.024	6.32
384.386	6.25
384.747	6.19
385.109	6.13
385.47	6.04
385.832	6.01
386.193	5.96
386.554	5.91
386.916	5.89
387.277	5.86
387.638	5.85
387.999	5.83
388.36	5.8
388.721	5.78
389.082	5.73
389.443	5.68
389.804	5.7
390.165	5.67
390.526	5.67
390.887	5.67
391.248	5.67
391.609	5.66
391.969	5.64
392.33	5.61
392.691	5.6
393.051	5.59
393.412	5.58
393.772	5.55
394.133	5.51
394.493	5.46
394.854	5.43
395.214	5.37
395.574	5.32
395.935	5.28
396.295	5.28
396.655	5.29
397.015	5.24
397.376	5.2
397.736	5.16
398.096	5.07
398.456	5.04
398.816	5
399.176	4.92
399.535	4.89
399.895	4.85
400.255	4.81
400.615	4.79
400.975	4.72
401.334	4.68
401.694	4.64
402.054	4.61
402.413	4.58
402.773	4.58
403.132	4.56
403.492	4.55
403.851	4.51
404.211	4.49
404.57	4.5
404.929	4.46
405.288	4.43
405.648	4.42
406.007	4.39
406.366	4.38
406.725	4.39
407.084	4.37
407.443	4.35
407.802	4.3
408.161	4.33
408.52	4.34
408.879	4.34
409.238	4.34
409.596	4.34
409.955	4.34
410.314	4.33
410.673	4.33
411.031	4.31
411.39	4.31
411.748	4.31
412.107	4.27
412.465	4.23
412.824	4.24
413.182	4.23
413.54	4.22
413.899	4.19
414.257	4.2
414.615	4.17
414.974	4.19
415.332	4.15
415.69	4.09
416.048	4.08
416.406	4.06
416.764	4.04
417.122	4.03
417.48	4.01
417.838	3.97
418.195	3.95
418.553	3.94
418.911	3.91
419.269	3.89
419.626	3.89
419.984	3.89
420.342	3.85
420.699	3.84
421.057	3.84
421.414	3.84
421.772	3.84
422.129	3.83
422.486	3.81
422.844	3.81
423.201	3.81
423.558	3.79
423.915	3.8
424.273	3.79
424.63	3.78
424.987	3.76
425.344	3.77
425.701	3.76
426.058	3.75
426.415	3.74
426.772	3.71
427.128	3.69
427.485	3.68
427.842	3.68
428.199	3.68
428.555	3.66
428.912	3.65
429.269	3.63
429.625	3.62
429.982	3.62
430.338	3.63
430.695	3.61
431.051	3.6
431.407	3.58
431.764	3.57
432.12	3.58
432.476	3.58
432.832	3.56
433.189	3.55
433.545	3.55
433.901	3.56
434.257	3.57
434.613	3.57
434.969	3.59
435.325	3.61
435.681	3.62
436.036	3.62
436.392	3.63
436.748	3.65
437.104	3.65
437.459	3.66
437.815	3.67
438.171	3.68
438.526	3.69
438.882	3.7
439.237	3.7
439.593	3.71
439.948	3.71
440.304	3.71
440.659	3.72
441.014	3.73
441.369	3.73
441.725	3.75
442.08	3.76
442.435	3.76
442.79	3.74
443.145	3.74
443.5	3.72
443.855	3.71
444.21	3.71
444.565	3.7
444.92	3.71
445.275	3.71
445.629	3.69
445.984	3.71
446.339	3.69
446.693	3.68
447.048	3.65
447.403	3.65
447.757	3.63
448.112	3.63
448.466	3.61
448.82	3.59
449.175	3.57
449.529	3.56
449.883	3.53
450.238	3.52
450.592	3.49
450.946	3.5
451.3	3.49
451.654	3.46
452.008	3.47
452.362	3.44
452.716	3.41
453.07	3.44
453.424	3.4
453.778	3.4
454.132	3.4
454.486	3.43
454.839	3.41
455.193	3.42
455.547	3.41
455.9	3.44
456.254	3.46
456.607	3.46
456.961	3.47
457.314	3.49
457.668	3.5
458.021	3.5
458.375	3.49
458.728	3.51
459.081	3.51
459.434	3.48
459.787	3.49
460.141	3.49
460.494	3.5
460.847	3.49
461.2	3.5
461.553	3.5
461.906	3.49
462.259	3.49
462.611	3.48
462.964	3.5
463.317	3.5
463.67	3.5
464.022	3.5
464.375	3.5
464.728	3.48
465.08	3.48
465.433	3.49
465.785	3.51
466.138	3.53
466.49	3.55
466.843	3.6
467.195	3.61
467.547	3.63
467.899	3.63
468.252	3.66
468.604	3.68
468.956	3.7
469.308	3.7
469.66	3.77
470.012	3.76
470.364	3.78
470.716	3.8
471.068	3.82
471.42	3.81
471.772	3.84
472.123	3.87
472.475	3.88
472.827	3.89
473.178	3.92
473.53	3.92
473.882	3.94
474.233	3.95
474.585	3.96
474.936	3.96
475.288	3.95
475.639	3.97
475.99	3.95
476.342	3.95
476.693	3.96
477.044	3.95
477.395	3.96
477.746	3.92
478.097	3.9
478.448	3.87
478.8	3.88
479.15	3.86
479.501	3.86
479.852	3.84
480.203	3.85
480.554	3.83
480.905	3.81
481.255	3.8
481.606	3.79
481.957	3.79
482.307	3.78
482.658	3.77
483.009	3.77
483.359	3.77
483.709	3.76
484.06	3.75
484.41	3.75
484.761	3.76
485.111	3.77
485.461	3.77
485.811	3.78
486.162	3.78
486.512	3.78
486.862	3.78
487.212	3.78
487.562	3.77
487.912	3.77
488.262	3.78
488.612	3.78
488.961	3.78
489.311	3.78
489.661	3.79
490.011	3.8
490.36	3.79
490.71	3.79
491.06	3.8
491.409	3.8
491.759	3.81
492.108	3.81
492.458	3.81
492.807	3.83
493.157	3.84
493.506	3.86
493.855	3.88
494.204	3.88
494.554	3.89
494.903	3.92
495.252	3.93
495.601	3.96
495.95	3.98
496.299	4.03
496.648	4.04
496.997	4.07
497.346	4.12
497.695	4.17
498.043	4.24
498.392	4.27
498.741	4.33
499.09	4.4
499.438	4.45
499.787	4.49
500.135	4.53
500.484	4.58
500.832	4.6
501.181	4.65
501.529	4.73
501.878	4.81
502.226	4.89
502.574	4.96
502.923	5.02
503.271	5.11
503.619	5.19
503.967	5.25
504.315	5.34
504.663	5.43
505.011	5.53
505.359	5.6
505.707	5.72
506.055	5.81
506.403	5.87
506.751	5.98
507.098	6.09
507.446	6.2
507.794	6.33
508.141	6.47
508.489	6.6
508.837	6.71
509.184	6.85
509.531	6.98
509.879	7.11
510.226	7.24
510.574	7.38
510.921	7.51
511.268	7.67
511.616	7.85
511.963	7.98
512.31	8.13
512.657	8.29
513.004	8.44
513.351	8.63
513.698	8.86
514.045	9.07
514.392	9.29
514.739	9.51
515.086	9.73
515.432	9.96
515.779	10.17
516.126	10.41
516.473	10.62
516.819	10.83
517.166	11.05
517.512	11.25
517.859	11.46
518.205	11.66
518.552	11.84
518.898	12.05
519.245	12.27
519.591	12.48
519.937	12.7
520.283	12.93
520.629	13.15
520.976	13.39
521.322	13.65
521.668	13.89
522.014	14.15
522.36	14.4
522.706	14.68
523.052	14.99
523.398	15.31
523.743	15.63
524.089	15.94
524.435	16.27
524.781	16.6
525.126	16.85
525.472	17.11
525.817	17.35
526.163	17.56
526.509	17.75
526.854	17.94
527.199	18.12
527.545	18.3
527.89	18.45
528.235	18.61
528.581	18.79
528.926	18.97
529.271	19.16
529.616	19.35
529.961	19.52
530.306	19.7
530.651	19.87
530.996	20.07
531.341	20.27
531.686	20.46
532.031	20.66
532.376	20.87
532.721	21.1
533.065	21.33
533.41	21.55
533.755	21.75
534.099	21.99
534.444	22.23
534.788	22.47
535.133	22.74
535.477	22.97
535.822	23.23
536.166	23.52
536.51	23.75
536.855	24.02
537.199	24.32
537.543	24.62
537.887	24.95
538.231	25.23
538.576	25.55
538.92	25.86
539.264	26.14
539.608	26.44
539.951	26.69
540.295	26.92
540.639	27.16
540.983	27.43
541.327	27.66
541.671	27.86
542.014	28.07
542.358	28.27
542.701	28.47
543.045	28.67
543.389	28.86
543.732	29.08
544.075	29.33
544.419	29.57
544.762	29.79
545.105	30
545.449	30.24
545.792	30.47
546.135	30.68
546.478	30.95
546.821	31.22
547.165	31.47
547.508	31.72
547.851	32
548.194	32.26
548.536	32.54
548.879	32.85
549.222	33.1
549.565	33.37
549.908	33.66
550.25	33.92
550.593	34.2
550.936	34.46
551.278	34.71
551.621	34.96
551.963	35.18
552.306	35.44
552.648	35.68
552.991	35.94
553.333	36.16
553.675	36.41
554.017	36.6
554.36	36.78
554.702	37.01
555.044	37.21
555.386	37.42
555.728	37.61
556.07	37.83
556.412	38.09
556.754	38.31
557.096	38.53
557.438	38.75
557.78	38.99
558.121	39.19
558.463	39.4
558.805	39.59
559.147	39.82
559.488	40.05
559.83	40.25
560.171	40.43
560.513	40.68
560.854	40.87
561.196	41.05
561.537	41.31
561.878	41.55
562.22	41.77
562.561	41.95
562.902	42.1
563.243	42.24
563.584	42.43
563.925	42.6
564.266	42.77
564.607	42.89
564.948	43.09
565.289	43.25
565.63	43.43
565.971	43.58
566.312	43.73
566.653	43.88
566.993	44.03
567.334	44.13
567.675	44.29
568.015	44.37
568.356	44.48
568.696	44.65
569.037	44.79
569.377	44.86
569.718	45
570.058	45.23
570.398	45.39
570.739	45.54
571.079	45.7
571.419	45.86
571.759	45.96
572.099	46.02
572.439	46.18
572.779	46.27
573.119	46.36
573.459	46.49
573.799	46.58
574.139	46.71
574.479	46.88
574.819	46.98
575.158	47.11
575.498	47.23
575.838	47.29
576.177	47.36
576.517	47.55
576.856	47.63
577.196	47.64
577.535	47.76
577.875	47.82
578.214	47.92
578.553	48
578.893	48.16
579.232	48.34
579.571	48.35
579.91	48.46
580.25	48.61
580.589	48.78
580.928	48.9
581.267	49
581.606	49.04
581.945	49.16
582.283	49.29
582.622	49.5
582.961	49.66
583.3	49.76
583.639	49.84
583.977	49.94
584.316	50.05
584.654	50.11
584.993	50.15
585.332	50.23
585.67	50.37
586.008	50.43
586.347	50.42
586.685	50.62
587.024	50.7
587.362	50.79
587.7	50.84
588.038	50.99
588.376	51.05
588.715	51.2
589.053	51.24
589.391	51.3
589.729	51.26
590.067	51.31
590.404	51.41
590.742	51.42
591.08	51.53
591.418	51.62
591.756	51.69
592.093	51.8
592.431	51.86
592.769	51.95
593.106	52.05
593.444	52.16
593.781	52.16
594.119	52.27
594.456	52.38
594.793	52.41
595.131	52.38
595.468	52.46
595.805	52.52
596.143	52.55
596.48	52.59
596.817	52.71
597.154	52.71
597.491	52.77
597.828	52.89
598.165	52.94
598.502	52.99
598.839	53.16
599.176	53.24
599.512	53.37
599.849	53.38
600.186	53.44
600.523	53.5
600.859	53.57
601.196	53.58
601.532	53.56
601.869	53.64
602.205	53.69
602.542	53.66
602.878	53.75
603.215	53.8
603.551	53.82
603.887	53.83
604.223	53.89
604.56	53.94
604.896	53.95
605.232	53.98
605.568	54.08
605.904	54.08
606.24	54.17
606.576	54.2
606.912	54.27
607.248	54.27
607.583	54.32
607.919	54.34
608.255	54.33
608.591	54.41
608.926	54.44
609.262	54.51
609.597	54.63
609.933	54.58
610.268	54.62
610.604	54.63
610.939	54.72
611.275	54.87
611.61	54.93
611.945	54.95
612.281	55.06
612.616	55.06
612.951	55.08
613.286	54.99
613.621	55
613.956	55.06
614.291	55.06
614.626	55.01
614.961	55.08
615.296	55.17
615.631	55.22
615.966	55.24
616.3	55.24
616.635	55.17
616.97	55.24
617.304	55.26
617.639	55.38
617.973	55.42
618.308	55.33
618.642	55.21
618.977	55.32
619.311	55.25
619.646	55.19
619.98	55.12
620.314	55.19
620.648	55.14
620.983	55.11
621.317	55.19
621.651	55.3
621.985	55.25
622.319	55.31
622.653	55.31
622.987	55.4
623.321	55.44
623.655	55.58
623.988	55.65
624.322	55.65
624.656	55.62
624.99	55.71
625.323	55.73
625.657	55.83
625.99	55.81
626.324	55.91
626.657	55.93
626.991	56.06
627.324	56
627.658	56.03
627.991	56.06
628.324	56.08
628.657	56.07
628.991	56.2
629.324	56.24
629.657	56.24
629.99	56.22
630.323	56.26
630.656	56.32
630.989	56.38
631.322	56.46
631.655	56.57
631.987	56.56
632.32	56.62
632.653	56.64
632.986	56.64
633.318	56.56
633.651	56.6
633.984	56.58
634.316	56.63
634.649	56.77
634.981	56.81
635.313	56.81
635.646	56.82
635.978	56.82
636.31	56.79
636.643	56.78
636.975	56.81
637.307	56.87
637.639	56.83
637.971	56.78
638.303	56.95
638.635	56.92
638.967	56.94
639.299	56.83
639.631	56.83
639.963	56.77
640.295	56.87
640.626	56.91
640.958	56.87
641.29	57.03
641.621	57.05
641.953	56.97
642.285	57.1
642.616	57.16
642.948	57.13
643.279	57.18
643.61	57.29
643.942	57.37
644.273	57.37
644.604	57.42
644.936	57.39
645.267	57.27
645.598	57.3
645.929	57.26
646.26	57.35
646.591	57.42
646.922	57.56
647.253	57.59
647.584	57.65
647.915	57.66
648.245	57.66
648.576	57.64
648.907	57.77
649.238	57.71
649.568	57.81
649.899	57.88
650.229	57.84
650.56	57.89
650.89	57.88
651.221	57.81
651.551	57.78
651.882	57.77
652.212	57.82
652.542	57.86
652.872	57.84
653.203	57.92
653.533	57.84
653.863	57.82
654.193	57.81
654.523	57.83
654.853	57.86
655.183	57.92
655.513	57.86
655.843	57.83
656.172	57.92
656.502	57.84
656.832	57.91
657.162	58.02
657.491	57.99
657.821	58
658.15	58.1
658.48	58.08
658.809	58.15
659.139	58.09
659.468	58.09
659.798	58.08
660.127	58.04
660.456	58.17
660.785	58.19
661.115	58.27
661.444	58.31
661.773	58.37
662.102	58.35
662.431	58.44
662.76	58.37
663.089	58.35
663.418	58.48
663.747	58.43
664.076	58.52
664.404	58.51
664.733	58.53
665.062	58.62
665.39	58.66
665.719	58.62
666.048	58.54
666.376	58.59
666.705	58.66
667.033	58.71
667.362	58.75
667.69	58.81
668.018	58.79
668.347	58.77
668.675	58.69
669.003	58.67
669.331	58.74
669.659	58.69
669.987	58.61
670.315	58.58
670.643	58.51
670.971	58.44
671.299	58.46
671.627	58.3
671.955	58.24
672.283	58.17
672.61	58.16
672.938	58.32
673.266	58.39
673.593	58.37
673.921	58.43
674.249	58.47
674.576	58.56
674.904	58.6
675.231	58.55
675.558	58.64
675.886	58.66
676.213	58.52
676.54	58.7
676.867	58.91
677.195	58.89
677.522	59.01
677.849	58.96
678.176	59.02
678.503	59.19
678.83	59.23
679.157	59.18
679.484	59.26
679.81	59.3
680.137	59.27
680.464	59.32
680.791	59.38
681.117	59.34
681.444	59.23
681.771	59.22
682.097	59.34
682.424	59.31
682.75	59.3
683.077	59.36
683.403	59.35
683.729	59.27
684.056	59.27
684.382	59.21
684.708	59.32
685.034	59.22
685.36	59.23
685.686	59.15
686.012	59.3
686.339	59.25
686.664	59.28
686.99	59.17
687.316	59.2
687.642	59.1
687.968	59.09
688.294	59.19
688.619	59.12
688.945	59.03
689.271	59.05
689.596	59.08
689.922	59.13
690.247	59.26
690.573	59.17
690.898	59.17
691.224	59.18
691.549	59.1
691.874	59.29
692.2	59.19
692.525	59.31
692.85	59.45
693.175	59.51
693.5	59.36
693.825	59.41
694.15	59.45
694.475	59.48
694.8	59.44
695.125	59.47
695.45	59.6
695.775	59.65
696.099	59.71
696.424	59.8
696.749	59.8
697.073	59.86
697.398	59.81
697.723	59.89
698.047	59.84
698.372	59.75
698.696	59.64
699.02	59.74
699.345	59.79
699.669	59.7
699.993	59.79
700.318	59.85
700.642	59.82
700.966	59.81
701.29	59.81
701.614	59.85
701.938	59.72
702.262	59.66
702.586	59.57
702.91	59.44
703.234	59.24
703.557	59.25
703.881	58.99
704.205	59.05
704.529	59.02
704.852	59.13
705.176	59.31
705.499	59.28
705.823	59.12
706.146	58.97
706.47	58.93
706.793	58.83
707.117	58.99
707.44	59.06
707.763	59.08
708.086	59.14
708.409	59.2
708.733	59.23
709.056	59.2
709.379	59.23
709.702	59.59
710.025	59.94
710.348	59.84
710.671	60.02
710.993	60.02
711.316	60.01
711.639	60.07
711.962	60.06
712.284	60.08
712.607	60.21
712.93	60.28
713.252	60.43
713.575	60.43
713.897	60.34
714.22	60.33
714.542	60.26
714.864	60.1
715.187	60.04
715.509	60.09
715.831	60.14
716.153	60.06
716.475	59.91
716.798	59.8
717.12	59.87
717.442	59.78
717.764	59.87
718.085	59.97
718.407	59.97
718.729	59.99
719.051	60.14
719.373	60.02
719.695	59.86
720.016	59.73
720.338	59.78
720.659	59.59
720.981	59.68
721.302	59.83
721.624	59.93
721.945	59.97
722.267	59.98
722.588	59.87
722.909	59.8
723.231	59.79
723.552	59.62
723.873	59.68
724.194	59.78
724.515	59.78
724.836	59.62
725.157	59.74
725.478	59.74
725.799	59.66
726.12	59.83
726.441	59.89
726.762	59.95
727.083	59.9
727.403	60.14
727.724	60.05
728.045	59.88
728.365	59.96
728.686	59.94
729.006	60.06
729.327	60.26
729.647	60.39
729.967	60.49
730.288	60.66
730.608	60.65
730.928	60.79
731.249	60.94
731.569	61.11
731.889	60.94
732.209	60.94
732.529	61.17
732.849	61.13
733.169	61.19
733.489	61.16
733.809	61.07
734.129	61.04
734.448	61.16
734.768	61.29
735.088	61.06
735.408	61.06
735.727	60.87
736.047	60.65
736.366	60.88
736.686	60.9
737.005	60.68
737.325	60.79
737.644	60.75
737.963	60.6
738.283	60.37
738.602	60.43
738.921	60.38
739.24	60.35
739.56	60.3
739.879	60.29
740.198	60.29
740.517	60.35
740.836	60.36
741.155	60.41
741.473	60.39
741.792	60.7
742.111	60.87
742.43	61.16
742.748	61.39
743.067	61.46
743.386	61.37
743.704	61.61
744.023	61.41
744.341	61.12
744.66	61.17
744.978	61.18
745.297	61.21
745.615	61.26
745.933	61.17
746.252	61.15
746.57	61.23
746.888	61.19
747.206	61.32
747.524	61.39
747.842	61.22
748.16	61.07
748.478	61.01
748.796	60.96
749.114	60.8
749.432	60.85
749.749	60.7
750.067	60.58
750.385	60.61
750.703	60.64
751.02	60.81
751.338	60.71
751.655	60.93
751.973	60.79
752.29	60.64
752.608	60.86
752.925	60.96
753.242	60.98
753.56	61.29
753.877	61.41
754.194	61.3
754.511	61.25
754.828	61.32
755.145	61.42
755.462	61.25
755.779	61.43
756.096	61.43
756.413	61.37
756.73	61.39
757.047	61.29
757.364	61.47
757.68	61.68
757.997	62.03
758.314	61.65
758.63	61.51
758.947	61.68
759.264	61.73
759.58	61.87
759.896	61.75
760.213	61.64
760.529	61.6
760.846	61.56
761.162	61.71
761.478	61.71
761.794	61.85
762.11	61.97
762.426	62.24
762.743	62.49
763.059	62.67
763.375	62.76
763.69	62.94
764.006	62.94
764.322	62.81
764.638	62.57
764.954	62.7
765.27	63.02
765.585	63
765.901	62.62
766.216	62.69
766.532	62.52
766.848	62.66
767.163	62.66
767.478	62.86
767.794	62.9
768.109	63.26
768.424	62.99
768.74	62.97
769.055	62.49
769.37	62.16
769.685	61.82
770	61.66
770.315	61.28
770.63	61.3
770.945	61.49
771.26	61.7
771.575	61.72
771.89	61.65
772.205	61.48
772.52	61.6
772.834	61.55
773.149	61.89
773.464	61.67
773.778	61.23
774.093	61.14
774.407	60.89
774.722	60.88
775.036	60.67
775.351	60.67
775.665	60.61
775.979	60.48
776.293	60.86
776.608	60.9
776.922	61.06
777.236	60.77
777.55	60.72
777.864	60.43
778.178	60.37
778.492	60.06
778.806	60.43
779.12	60.63
779.434	60.52
779.747	60.86
780.061	60.58
780.375	60.95
780.689	61.19
781.002	61.36
781.316	61.41
781.629	62.09
781.943	61.89
782.256	61.84
782.57	62.15
782.883	62.54
783.196	62.95
783.51	63
783.823	63.13
784.136	62.56
784.449	62.92
784.762	63.51
785.075	63.47
785.388	63.33
785.701	63.35
786.014	63.13
786.327	62.76
786.64	63.48
786.953	64
787.266	63.86
787.578	63.77
787.891	63.57
788.204	63.5
788.516	63.72
788.829	64.3
789.141	63.83
789.454	63.33
789.766	62.89
790.079	62.93
790.391	62.98
790.703	63.55
791.016	63.88
791.328	63.37
791.64	63.71
791.952	63.86
792.264	63.76
792.576	63.94
792.888	63.99
793.2	63.34
793.512	63.54
793.824	63.65
794.136	63.65
794.448	63.52
794.76	63.51
795.071	63.72
795.383	63.43
795.695	63.6
796.006	63.82
796.318	63.94
796.629	64.19
796.941	64.27
797.252	64.16
797.564	63.74
797.875	64.07
798.186	64.03
798.497	63.21
798.809	62.84
799.12	62.86
799.431	62.3
799.742	62.35
800.053	61.87
800.364	61.98
800.675	62.21
800.986	62.05
801.297	62.01
801.608	61.98
801.918	61.76
802.229	62.36
802.54	62.11
802.851	62.33
803.161	61.66
803.472	61.41
803.782	61.1
804.093	61.45
804.403	60.76
804.714	61.24
805.024	61.66
805.334	62.39
805.645	61.98
805.955	62.7
806.265	62.77
806.575	63.03
806.885	62.78
807.195	62.99
807.505	62.86
807.815	62.63
808.125	62.34
808.435	62.41
808.745	62.11
809.055	62.1
809.365	61.66
809.674	61.75
809.984	62.51
810.294	62.75
810.603	62.15
810.913	63.13
811.222	62.18
811.532	62.23
811.841	61.67
812.151	62.53
812.46	62.93
812.769	62.43
813.079	62.66
813.388	62.36
813.697	62.07
814.006	62.56
814.315	63.13
814.624	63.51
814.933	63.65
815.242	63.77
815.551	63.9
815.86	64.2
816.169	64.21
816.478	63.42
816.786	63.28
817.095	63.03
817.404	62.81
817.712	63.47
818.021	63.64
818.33	63.62
818.638	63.23
818.947	62.97
819.255	63.49
819.563	63.14
819.872	63.44
820.18	64.08
820.488	63.86
820.796	63.47
821.105	63.28
821.413	63.18
821.721	63.03
822.029	62.91
822.337	63.29
822.645	63.56
822.953	63.65
823.26	63.77
823.568	63.85
823.876	63.79
824.184	63.44
824.491	63.37
824.799	63.46
825.107	63.46
825.414	63.39
825.722	63.28
826.029	63.19
826.337	63.17
826.644	62.75
826.951	62.79
827.259	62.96
827.566	63.16
827.873	62.98
828.18	63.15
828.488	63.29
828.795	62.8
829.102	62.54
829.409	62.31
829.716	62.02
830.023	62.32
830.329	62.45
830.636	62.74
830.943	63.02
831.25	63.11
831.557	63.32
831.863	63.47
832.17	63.71
832.476	64.41
832.783	64.08
833.089	64.04
833.396	63.97
833.702	63.64
834.009	63.26
834.315	63.68
834.621	63.57
834.928	63.35
835.234	63.65
835.54	63.5
835.846	63.73
836.152	63.8
836.458	63.6
836.764	63.57
837.07	63.67
837.376	63.86
837.682	63.57
837.988	63.74
838.293	63.56
838.599	63.23
838.905	62.82
839.211	62.85
839.516	63.01
839.822	63.36
840.127	63.43
840.433	63.49
840.738	63.13
841.044	62.85
841.349	62.6
841.654	62.57
841.959	62.36
842.265	62.81
842.57	62.68
842.875	61.88
843.18	62.08
843.485	62.13
843.79	60.55
844.095	60.5
844.4	58.82
844.705	58.3
845.01	58.67
845.315	58.29
845.619	59.43
845.924	58.91
846.229	58.77
846.533	59.13
846.838	59.16
847.142	60.2
847.447	60.65
847.751	61.79
848.056	61.74
848.36	61.99
848.664	58.83
848.969	58.15
849.273	58.54
849.577	56.2
849.881	55.5
850.185	57.28
850.489	57.79
850.794	60.28
851.097	61.21
851.401	60.3
851.705	59.33
852.009	58.2
852.313	58.89
852.617	59.25
852.92	60.71
853.224	61.81
853.528	60.26
853.831	61.53
854.135	59.42
854.438	56.35
854.742	57.84
855.045	59.75
855.349	59.55
855.652	60.51
855.955	63.03
856.259	64.68
856.562	62.99
856.865	62.88
857.168	60.88
857.471	61.13
857.774	63.75
858.077	63.58
858.38	63.69
858.683	63.55
858.986	63.11
859.289	62.48
859.592	61.86
859.894	63.19
860.197	62.53
860.5	64.66
860.802	67.05
861.105	65.42
861.407	65.88
861.71	66.44
862.012	65.89
862.315	64.18
862.617	63.71
862.919	65.41
863.222	65.83
863.524	66.03
863.826	66.47
864.128	63
864.43	63.79
864.732	64.18
865.034	65.24
865.336	62.58
865.638	61.77
865.94	61.4
866.242	61.81
866.544	61.33
866.846	59.61
867.147	59.43
867.449	60.65
867.751	61.85
868.052	63.74
868.354	64.05
868.655	64.22
868.957	64
869.258	61.34
869.56	59.63
869.861	61.01
870.162	58.94
870.463	59.77
870.765	61.27
871.066	62.36
871.367	61.72
871.668	64.81
871.969	65.68
872.27	65.77
872.571	66.26
872.872	65.72
873.173	66.51
873.473	65.64
873.774	66.03
874.075	65.17
874.376	63.73
874.676	63.88
874.977	64.86
875.277	63.96
875.578	65.86
875.878	66.83
876.179	66.35
876.479	68.15
876.78	70.02
877.08	68.55
877.38	66.3
877.68	67.02
877.981	65.29
878.281	64.34
878.581	64.53
