Data from BU26944_Reflection_00005.txt Node
Date: Tue Nov 19 10:54:36 EST 2019
User: vgr7
Spectrometer: USB2G7710
Scans to average: 3
Trigger mode: 4
Integration Time (sec): 2.000000E-2
Electric dark correction enabled: true
Boxcar width: 10
XAxis mode: Wavelengths
Number of Pixels in Spectrum: 2048
>>>>>Begin Spectral Data<<<<<
177.721	-246.09
178.105	-15.04
178.488	55.14
178.871	80
179.254	1220
179.636	172.61
180.019	71.6
180.402	-425
180.785	111.76
181.168	23.66
181.55	57.08
181.933	143.7
182.316	53.92
182.698	11.4
183.081	19.75
183.463	62.9
183.846	164.31
184.228	112.85
184.611	-845.95
184.993	54.29
185.376	265.41
185.758	-526.51
186.14	500
186.522	-250.71
186.904	-172.29
187.287	-102.4
187.669	-85.6
188.051	-81.33
188.433	-143.45
188.815	-70.31
189.197	-51.09
189.579	-46.74
189.961	-31.56
190.342	-19.14
190.724	-30.68
191.106	-48.39
191.488	-20.57
191.869	-10.47
192.251	-3.62
192.633	-8.83
193.014	-29.62
193.396	-34.28
193.777	-34.63
194.159	1.98
194.54	8.92
194.922	21.74
195.303	34.79
195.684	26.53
196.065	23.41
196.447	27.98
196.828	30.92
197.209	30.99
197.59	34.8
197.971	57.99
198.352	49.14
198.733	30.86
199.114	34.8
199.495	15.64
199.876	11.89
200.257	3.08
200.638	3.6
201.018	9.84
201.399	4.1
201.78	15.98
202.16	-14.76
202.541	-22.91
202.922	-26.44
203.302	-31.74
203.683	-56.23
204.063	-75.39
204.444	-64.23
204.824	-60.21
205.204	-65.47
205.585	-76.69
205.965	-81.48
206.345	-98.52
206.725	-83.86
207.106	-81.95
207.486	-84.94
207.866	-109.28
208.246	-86.14
208.626	-97.03
209.006	-114.03
209.386	-106.04
209.766	-115.97
210.145	-92.46
210.525	-110.57
210.905	-102.08
211.285	-88.55
211.664	-39.48
212.044	-27.9
212.424	-21.25
212.803	-27.85
213.183	-44.71
213.562	-29.18
213.942	-39.88
214.321	-58.45
214.701	-61.02
215.08	-45
215.459	-35.24
215.838	-39.27
216.218	-92.26
216.597	-91.51
216.976	-63.39
217.355	-78.3
217.734	-111.87
218.113	-88.43
218.492	-62.47
218.871	-47.64
219.25	-68.96
219.629	-139.05
220.008	-152.47
220.387	-221.01
220.766	-114.88
221.144	-112.77
221.523	-152.39
221.902	-119.39
222.28	-68.06
222.659	-41.07
223.037	-72.26
223.416	-45.82
223.794	-26.92
224.173	-18.27
224.551	-23.19
224.929	-31.77
225.308	-27.9
225.686	-28.28
226.064	-20.51
226.442	-21.13
226.821	-17.34
227.199	-10.21
227.577	-9.35
227.955	-9.54
228.333	-8.64
228.711	-12.66
229.089	-12.64
229.467	-13.34
229.845	-12.48
230.222	-11.76
230.6	-14.23
230.978	-9.04
231.356	-10.17
231.733	-12.45
232.111	-11.1
232.488	-6.56
232.866	-2.79
233.243	-3.73
233.621	-1.32
233.998	-3.63
234.376	-3.95
234.753	-6.32
235.13	-8.15
235.508	-7.02
235.885	-6.85
236.262	-4.59
236.639	-2.75
237.016	-0.98
237.393	1.32
237.77	2.57
238.147	2.89
238.524	2.84
238.901	2.16
239.278	1.2
239.655	1.31
240.032	1.8
240.409	1.24
240.785	1.02
241.162	1.18
241.539	0.29
241.915	1.37
242.292	2.01
242.668	1.98
243.045	2.56
243.421	3.08
243.798	3.67
244.174	3.5
244.551	3.44
244.927	3.23
245.303	2.95
245.679	2.93
246.056	2.97
246.432	3.04
246.808	3.12
247.184	3.26
247.56	3.25
247.936	3.08
248.312	3.07
248.688	3.05
249.064	3.18
249.44	3.4
249.815	3.28
250.191	3.03
250.567	3.31
250.943	3.46
251.318	3.22
251.694	2.9
252.069	2.89
252.445	2.69
252.82	2.88
253.196	2.94
253.571	3.14
253.947	3.05
254.322	2.84
254.697	2.44
255.073	2.34
255.448	2.51
255.823	2.56
256.198	2.48
256.573	2.6
256.948	2.51
257.323	2.45
257.698	2.39
258.073	2.45
258.448	2.49
258.823	2.36
259.198	2.44
259.573	2.42
259.948	2.5
260.322	2.52
260.697	2.53
261.072	2.58
261.446	2.61
261.821	2.63
262.195	2.61
262.57	2.84
262.944	2.8
263.319	2.85
263.693	2.68
264.067	2.78
264.442	2.66
264.816	2.78
265.19	2.89
265.564	2.71
265.938	2.78
266.313	2.54
266.687	2.51
267.061	2.62
267.435	2.81
267.809	2.4
268.183	2.37
268.556	2.18
268.93	2.35
269.304	2.12
269.678	2.15
270.051	2.35
270.425	2.32
270.799	2.23
271.172	2.15
271.546	2.38
271.919	2.24
272.293	2.49
272.666	2.32
273.04	2.14
273.413	2.28
273.787	2.29
274.16	2.3
274.533	2.3
274.906	2.31
275.279	2.11
275.653	2.37
276.026	2.41
276.399	2.42
276.772	2.31
277.145	2.38
277.518	2.32
277.891	2.35
278.263	2.34
278.636	2.72
279.009	2.77
279.382	2.75
279.755	3.02
280.127	2.84
280.5	2.97
280.872	3.15
281.245	3.16
281.617	2.98
281.99	3.01
282.362	2.99
282.735	2.88
283.107	2.98
283.479	3.06
283.852	3.08
284.224	3.27
284.596	3.25
284.968	3.37
285.34	3.37
285.713	3.3
286.085	3.22
286.457	3.14
286.829	3.15
287.201	3.18
287.572	3.15
287.944	3.24
288.316	3.29
288.688	3.34
289.06	3.38
289.431	3.63
289.803	3.68
290.175	3.75
290.546	3.8
290.918	3.66
291.289	3.48
291.661	3.54
292.032	3.46
292.403	3.39
292.775	3.39
293.146	3.39
293.517	3.37
293.889	3.38
294.26	3.43
294.631	3.45
295.002	3.44
295.373	3.34
295.744	3.24
296.115	3.25
296.486	3.17
296.857	3.18
297.228	3.03
297.599	2.99
297.97	3.06
298.34	3.08
298.711	3.26
299.082	3.34
299.452	3.28
299.823	3.24
300.194	3.27
300.564	3.11
300.935	3.2
301.305	3.2
301.676	3.16
302.046	2.98
302.416	2.92
302.787	2.93
303.157	2.83
303.527	3.02
303.897	2.89
304.267	2.96
304.637	2.88
305.008	3
305.378	2.93
305.748	2.83
306.117	2.76
306.487	2.69
306.857	2.66
307.227	2.79
307.597	2.92
307.967	2.96
308.336	3.11
308.706	2.93
309.076	2.96
309.445	3.1
309.815	3.2
310.184	3.27
310.554	3.27
310.923	3.3
311.293	3.08
311.662	3.13
312.031	3.07
312.401	3.08
312.77	3.05
313.139	3.29
313.508	3.28
313.877	3.29
314.246	3.27
314.616	3.34
314.985	3.21
315.353	3.08
315.722	3.07
316.091	2.92
316.46	2.97
316.829	2.96
317.198	2.91
317.567	2.83
317.935	2.62
318.304	2.67
318.672	2.74
319.041	2.85
319.41	2.89
319.778	2.89
320.147	2.92
320.515	2.97
320.883	2.78
321.252	2.76
321.62	2.81
321.988	2.84
322.357	2.77
322.725	2.83
323.093	2.79
323.461	2.85
323.829	2.94
324.197	2.86
324.565	2.94
324.933	3
325.301	3.01
325.669	3.15
326.037	3.22
326.405	3.21
326.772	3.14
327.14	3.01
327.508	3.01
327.875	2.99
328.243	2.95
328.61	3.01
328.978	2.99
329.346	2.94
329.713	3.02
330.08	3.15
330.448	3.08
330.815	3.23
331.182	3.16
331.55	3.08
331.917	3.14
332.284	3.18
332.651	3.12
333.018	3.17
333.385	3.14
333.752	3.07
334.119	3.1
334.486	3.18
334.853	3.24
335.22	3.22
335.587	3.17
335.954	3.09
336.32	3.02
336.687	3.1
337.054	3.18
337.42	3.18
337.787	3.13
338.153	3.2
338.52	3.25
338.886	3.26
339.253	3.35
339.619	3.37
339.986	3.25
340.352	3.28
340.718	3.3
341.084	3.36
341.451	3.43
341.817	3.49
342.183	3.41
342.549	3.39
342.915	3.45
343.281	3.41
343.647	3.47
344.013	3.56
344.379	3.45
344.745	3.45
345.11	3.43
345.476	3.4
345.842	3.39
346.208	3.37
346.573	3.32
346.939	3.35
347.304	3.37
347.67	3.3
348.035	3.28
348.401	3.28
348.766	3.3
349.132	3.27
349.497	3.23
349.862	3.24
350.228	3.22
350.593	3.19
350.958	3.34
351.323	3.27
351.688	3.32
352.053	3.37
352.418	3.32
352.783	3.31
353.148	3.26
353.513	3.33
353.878	3.25
354.243	3.29
354.608	3.3
354.972	3.31
355.337	3.42
355.702	3.34
356.066	3.41
356.431	3.37
356.795	3.29
357.16	3.28
357.524	3.33
357.889	3.38
358.253	3.36
358.618	3.33
358.982	3.32
359.346	3.23
359.71	3.2
360.075	3.19
360.439	3.2
360.803	3.25
361.167	3.12
361.531	3.14
361.895	3.18
362.259	3.15
362.623	3.17
362.987	3.14
363.351	3.21
363.714	3.18
364.078	3.14
364.442	3.19
364.806	3.17
365.169	3.12
365.533	3.1
365.896	3.19
366.26	3.12
366.623	3.13
366.987	3.2
367.35	3.21
367.714	3.24
368.077	3.18
368.44	3.19
368.803	3.2
369.167	3.17
369.53	3.08
369.893	3.05
370.256	3.03
370.619	3.04
370.982	3.02
371.345	3.01
371.708	3.03
372.071	3.01
372.434	3.01
372.797	3.07
373.159	3.07
373.522	2.93
373.885	3.01
374.247	3.07
374.61	3.05
374.973	3.07
375.335	3.04
375.698	3.05
376.06	3.05
376.423	3.09
376.785	3.11
377.147	3.08
377.51	3.05
377.872	3.06
378.234	3.11
378.596	3.14
378.958	3.15
379.321	3.13
379.683	3.15
380.045	3.13
380.407	3.12
380.769	3.13
381.13	3.16
381.492	3.15
381.854	3.07
382.216	3.1
382.578	3.16
382.939	3.17
383.301	3.19
383.663	3.17
384.024	3.15
384.386	3.16
384.747	3.19
385.109	3.21
385.47	3.25
385.832	3.19
386.193	3.19
386.554	3.13
386.916	3.14
387.277	3.07
387.638	3.13
387.999	3.12
388.36	3.13
388.721	3.12
389.082	3.12
389.443	3.16
389.804	3.15
390.165	3.13
390.526	3.12
390.887	3.1
391.248	3.13
391.609	3.13
391.969	3.14
392.33	3.14
392.691	3.17
393.051	3.12
393.412	3.14
393.772	3.12
394.133	3.15
394.493	3.14
394.854	3.18
395.214	3.18
395.574	3.2
395.935	3.18
396.295	3.2
396.655	3.18
397.015	3.18
397.376	3.17
397.736	3.16
398.096	3.18
398.456	3.23
398.816	3.22
399.176	3.24
399.535	3.2
399.895	3.21
400.255	3.18
400.615	3.19
400.975	3.2
401.334	3.2
401.694	3.18
402.054	3.2
402.413	3.18
402.773	3.15
403.132	3.15
403.492	3.17
403.851	3.18
404.211	3.23
404.57	3.21
404.929	3.16
405.288	3.16
405.648	3.17
406.007	3.15
406.366	3.13
406.725	3.12
407.084	3.15
407.443	3.17
407.802	3.17
408.161	3.2
408.52	3.15
408.879	3.17
409.238	3.18
409.596	3.18
409.955	3.18
410.314	3.21
410.673	3.18
411.031	3.17
411.39	3.17
411.748	3.15
412.107	3.15
412.465	3.2
412.824	3.18
413.182	3.17
413.54	3.15
413.899	3.16
414.257	3.16
414.615	3.15
414.974	3.16
415.332	3.18
415.69	3.16
416.048	3.2
416.406	3.19
416.764	3.18
417.122	3.16
417.48	3.17
417.838	3.14
418.195	3.15
418.553	3.16
418.911	3.16
419.269	3.15
419.626	3.16
419.984	3.15
420.342	3.14
420.699	3.15
421.057	3.15
421.414	3.15
421.772	3.16
422.129	3.16
422.486	3.15
422.844	3.14
423.201	3.14
423.558	3.12
423.915	3.12
424.273	3.11
424.63	3.12
424.987	3.12
425.344	3.12
425.701	3.11
426.058	3.1
426.415	3.09
426.772	3.09
427.128	3.08
427.485	3.09
427.842	3.1
428.199	3.07
428.555	3.08
428.912	3.07
429.269	3.06
429.625	3.04
429.982	3.07
430.338	3.09
430.695	3.07
431.051	3.08
431.407	3.09
431.764	3.08
432.12	3.1
432.476	3.11
432.832	3.11
433.189	3.09
433.545	3.08
433.901	3.11
434.257	3.1
434.613	3.11
434.969	3.08
435.325	3.09
435.681	3.1
436.036	3.1
436.392	3.08
436.748	3.1
437.104	3.11
437.459	3.08
437.815	3.08
438.171	3.09
438.526	3.08
438.882	3.08
439.237	3.09
439.593	3.09
439.948	3.08
440.304	3.07
440.659	3.09
441.014	3.11
441.369	3.1
441.725	3.1
442.08	3.09
442.435	3.1
442.79	3.1
443.145	3.09
443.5	3.09
443.855	3.11
444.21	3.09
444.565	3.1
444.92	3.11
445.275	3.11
445.629	3.11
445.984	3.11
446.339	3.1
446.693	3.11
447.048	3.11
447.403	3.12
447.757	3.13
448.112	3.13
448.466	3.12
448.82	3.13
449.175	3.13
449.529	3.13
449.883	3.14
450.238	3.14
450.592	3.16
450.946	3.15
451.3	3.16
451.654	3.17
452.008	3.15
452.362	3.15
452.716	3.16
453.07	3.15
453.424	3.16
453.778	3.16
454.132	3.16
454.486	3.15
454.839	3.15
455.193	3.15
455.547	3.15
455.9	3.15
456.254	3.14
456.607	3.13
456.961	3.15
457.314	3.15
457.668	3.15
458.021	3.15
458.375	3.14
458.728	3.14
459.081	3.15
459.434	3.14
459.787	3.15
460.141	3.15
460.494	3.16
460.847	3.16
461.2	3.15
461.553	3.15
461.906	3.15
462.259	3.14
462.611	3.12
462.964	3.14
463.317	3.15
463.67	3.15
464.022	3.15
464.375	3.15
464.728	3.16
465.08	3.17
465.433	3.18
465.785	3.18
466.138	3.18
466.49	3.18
466.843	3.2
467.195	3.2
467.547	3.2
467.899	3.22
468.252	3.22
468.604	3.25
468.956	3.25
469.308	3.25
469.66	3.26
470.012	3.28
470.364	3.25
470.716	3.23
471.068	3.25
471.42	3.25
471.772	3.25
472.123	3.24
472.475	3.24
472.827	3.24
473.178	3.23
473.53	3.24
473.882	3.23
474.233	3.21
474.585	3.2
474.936	3.2
475.288	3.17
475.639	3.18
475.99	3.18
476.342	3.18
476.693	3.17
477.044	3.18
477.395	3.17
477.746	3.18
478.097	3.2
478.448	3.21
478.8	3.21
479.15	3.2
479.501	3.2
479.852	3.21
480.203	3.22
480.554	3.24
480.905	3.24
481.255	3.26
481.606	3.27
481.957	3.29
482.307	3.3
482.658	3.31
483.009	3.31
483.359	3.3
483.709	3.3
484.06	3.32
484.41	3.32
484.761	3.33
485.111	3.34
485.461	3.33
485.811	3.33
486.162	3.33
486.512	3.34
486.862	3.34
487.212	3.34
487.562	3.33
487.912	3.33
488.262	3.33
488.612	3.32
488.961	3.32
489.311	3.3
489.661	3.3
490.011	3.3
490.36	3.31
490.71	3.31
491.06	3.31
491.409	3.3
491.759	3.29
492.108	3.28
492.458	3.28
492.807	3.29
493.157	3.3
493.506	3.29
493.855	3.29
494.204	3.28
494.554	3.29
494.903	3.3
495.252	3.31
495.601	3.32
495.95	3.31
496.299	3.31
496.648	3.32
496.997	3.32
497.346	3.31
497.695	3.3
498.043	3.33
498.392	3.33
498.741	3.34
499.09	3.35
499.438	3.37
499.787	3.34
500.135	3.33
500.484	3.33
500.832	3.33
501.181	3.34
501.529	3.36
501.878	3.34
502.226	3.33
502.574	3.33
502.923	3.33
503.271	3.33
503.619	3.34
503.967	3.32
504.315	3.33
504.663	3.33
505.011	3.33
505.359	3.31
505.707	3.32
506.055	3.31
506.403	3.31
506.751	3.31
507.098	3.36
507.446	3.35
507.794	3.36
508.141	3.37
508.489	3.37
508.837	3.37
509.184	3.38
509.531	3.37
509.879	3.35
510.226	3.37
510.574	3.38
510.921	3.38
511.268	3.4
511.616	3.42
511.963	3.43
512.31	3.43
512.657	3.43
513.004	3.42
513.351	3.42
513.698	3.43
514.045	3.43
514.392	3.42
514.739	3.43
515.086	3.44
515.432	3.44
515.779	3.45
516.126	3.47
516.473	3.48
516.819	3.5
517.166	3.54
517.512	3.56
517.859	3.58
518.205	3.56
518.552	3.58
518.898	3.58
519.245	3.59
519.591	3.59
519.937	3.58
520.283	3.59
520.629	3.61
520.976	3.6
521.322	3.62
521.668	3.63
522.014	3.64
522.36	3.62
522.706	3.64
523.052	3.65
523.398	3.64
523.743	3.64
524.089	3.65
524.435	3.63
524.781	3.62
525.126	3.62
525.472	3.65
525.817	3.64
526.163	3.65
526.509	3.66
526.854	3.68
527.199	3.71
527.545	3.71
527.89	3.72
528.235	3.72
528.581	3.71
528.926	3.71
529.271	3.72
529.616	3.74
529.961	3.74
530.306	3.73
530.651	3.73
530.996	3.72
531.341	3.72
531.686	3.72
532.031	3.72
532.376	3.71
532.721	3.7
533.065	3.71
533.41	3.7
533.755	3.69
534.099	3.69
534.444	3.69
534.788	3.69
535.133	3.68
535.477	3.68
535.822	3.69
536.166	3.7
536.51	3.69
536.855	3.68
537.199	3.69
537.543	3.69
537.887	3.69
538.231	3.72
538.576	3.72
538.92	3.73
539.264	3.75
539.608	3.76
539.951	3.75
540.295	3.75
540.639	3.77
540.983	3.78
541.327	3.77
541.671	3.75
542.014	3.76
542.358	3.77
542.701	3.76
543.045	3.77
543.389	3.77
543.732	3.76
544.075	3.75
544.419	3.77
544.762	3.77
545.105	3.79
545.449	3.77
545.792	3.79
546.135	3.8
546.478	3.78
546.821	3.79
547.165	3.82
547.508	3.82
547.851	3.82
548.194	3.8
548.536	3.8
548.879	3.8
549.222	3.77
549.565	3.77
549.908	3.77
550.25	3.76
550.593	3.75
550.936	3.76
551.278	3.76
551.621	3.75
551.963	3.74
552.306	3.77
552.648	3.76
552.991	3.71
553.333	3.69
553.675	3.7
554.017	3.69
554.36	3.66
554.702	3.68
555.044	3.68
555.386	3.68
555.728	3.7
556.07	3.7
556.412	3.69
556.754	3.69
557.096	3.7
557.438	3.69
557.78	3.69
558.121	3.68
558.463	3.7
558.805	3.69
559.147	3.7
559.488	3.64
559.83	3.66
560.171	3.68
560.513	3.7
560.854	3.68
561.196	3.69
561.537	3.73
561.878	3.73
562.22	3.73
562.561	3.74
562.902	3.74
563.243	3.74
563.584	3.77
563.925	3.79
564.266	3.79
564.607	3.8
564.948	3.8
565.289	3.81
565.63	3.79
565.971	3.8
566.312	3.8
566.653	3.81
566.993	3.81
567.334	3.81
567.675	3.79
568.015	3.78
568.356	3.76
568.696	3.75
569.037	3.75
569.377	3.75
569.718	3.76
570.058	3.76
570.398	3.8
570.739	3.77
571.079	3.75
571.419	3.74
571.759	3.72
572.099	3.73
572.439	3.73
572.779	3.72
573.119	3.71
573.459	3.72
573.799	3.73
574.139	3.72
574.479	3.73
574.819	3.75
575.158	3.77
575.498	3.8
575.838	3.78
576.177	3.75
576.517	3.74
576.856	3.75
577.196	3.76
577.535	3.72
577.875	3.75
578.214	3.77
578.553	3.77
578.893	3.79
579.232	3.78
579.571	3.79
579.91	3.82
580.25	3.84
580.589	3.83
580.928	3.8
581.267	3.8
581.606	3.8
581.945	3.78
582.283	3.8
582.622	3.76
582.961	3.76
583.3	3.77
583.639	3.77
583.977	3.76
584.316	3.75
584.654	3.78
584.993	3.76
585.332	3.78
585.67	3.79
586.008	3.79
586.347	3.8
586.685	3.8
587.024	3.82
587.362	3.81
587.7	3.84
588.038	3.86
588.376	3.86
588.715	3.83
589.053	3.81
589.391	3.79
589.729	3.79
590.067	3.8
590.404	3.82
590.742	3.84
591.08	3.82
591.418	3.85
591.756	3.84
592.093	3.85
592.431	3.85
592.769	3.82
593.106	3.83
593.444	3.83
593.781	3.86
594.119	3.82
594.456	3.82
594.793	3.77
595.131	3.78
595.468	3.8
595.805	3.82
596.143	3.83
596.48	3.84
596.817	3.84
597.154	3.83
597.491	3.83
597.828	3.82
598.165	3.84
598.502	3.79
598.839	3.74
599.176	3.76
599.512	3.73
599.849	3.78
600.186	3.74
600.523	3.76
600.859	3.75
601.196	3.78
601.532	3.78
601.869	3.85
602.205	3.83
602.542	3.79
602.878	3.81
603.215	3.78
603.551	3.78
603.887	3.78
604.223	3.78
604.56	3.8
604.896	3.81
605.232	3.79
605.568	3.82
605.904	3.84
606.24	3.83
606.576	3.84
606.912	3.8
607.248	3.85
607.583	3.82
607.919	3.81
608.255	3.79
608.591	3.81
608.926	3.79
609.262	3.78
609.597	3.82
609.933	3.8
610.268	3.82
610.604	3.8
610.939	3.8
611.275	3.81
611.61	3.79
611.945	3.77
612.281	3.79
612.616	3.81
612.951	3.85
613.286	3.81
613.621	3.81
613.956	3.87
614.291	3.84
614.626	3.82
614.961	3.84
615.296	3.87
615.631	3.82
615.966	3.83
616.3	3.87
616.635	3.88
616.97	3.89
617.304	3.91
617.639	3.89
617.973	3.9
618.308	3.94
618.642	3.95
618.977	3.94
619.311	3.97
619.646	3.96
619.98	3.95
620.314	4.01
620.648	4.06
620.983	4
621.317	4.03
621.651	4.06
621.985	4.04
622.319	4.01
622.653	4.01
622.987	4.02
623.321	4.01
623.655	3.98
623.988	3.97
624.322	3.99
624.656	4.06
624.99	4.1
625.323	4.08
625.657	4.07
625.99	4.11
626.324	4.07
626.657	4.04
626.991	4.02
627.324	4
627.658	3.93
627.991	3.99
628.324	3.96
628.657	3.98
628.991	4.01
629.324	4.02
629.657	4
629.99	3.99
630.323	3.96
630.656	3.99
630.989	3.97
631.322	3.94
631.655	3.91
631.987	3.89
632.32	3.88
632.653	3.9
632.986	3.87
633.318	3.87
633.651	3.93
633.984	3.93
634.316	3.92
634.649	3.96
634.981	3.93
635.313	3.88
635.646	3.83
635.978	3.83
636.31	3.8
636.643	3.83
636.975	3.83
637.307	3.88
637.639	3.88
637.971	3.89
638.303	3.89
638.635	3.93
638.967	3.94
639.299	3.98
639.631	3.97
639.963	4.03
640.295	4.08
640.626	4.04
640.958	4.02
641.29	4.06
641.621	4.04
641.953	4.02
642.285	4.12
642.616	4.21
642.948	4.19
643.279	4.22
643.61	4.26
643.942	4.26
644.273	4.25
644.604	4.25
644.936	4.25
645.267	4.22
645.598	4.2
645.929	4.13
646.26	4.12
646.591	4.14
646.922	4.1
647.253	4.09
647.584	4.08
647.915	4.15
648.245	4.16
648.576	4.17
648.907	4.17
649.238	4.12
649.568	4.06
649.899	4.07
650.229	4.16
650.56	4.11
650.89	4.1
651.221	4.07
651.551	4.13
651.882	4.14
652.212	4.16
652.542	4.18
652.872	4.22
653.203	4.21
653.533	4.19
653.863	4.18
654.193	4.12
654.523	4.13
654.853	4.14
655.183	4.13
655.513	4.13
655.843	4.11
656.172	4.15
656.502	4.14
656.832	4.08
657.162	4.03
657.491	4.02
657.821	4.04
658.15	4.08
658.48	4.03
658.809	4.04
659.139	4.04
659.468	4.04
659.798	4.07
660.127	4.04
660.456	4.03
660.785	4.05
661.115	4.14
661.444	4.16
661.773	4.16
662.102	4.15
662.431	4.13
662.76	4.22
663.089	4.17
663.418	4.22
663.747	4.31
664.076	4.25
664.404	4.26
664.733	4.23
665.062	4.26
665.39	4.26
665.719	4.26
666.048	4.22
666.376	4.18
666.705	4.11
667.033	4.12
667.362	4.12
667.69	4.13
668.018	4.08
668.347	4.04
668.675	4.01
669.003	3.99
669.331	4.06
669.659	4
669.987	4.02
670.315	4
670.643	3.88
670.971	3.93
671.299	3.93
671.627	3.95
671.955	3.89
672.283	3.91
672.61	3.94
672.938	4.04
673.266	4.01
673.593	4.01
673.921	3.98
674.249	4
674.576	4.02
674.904	3.99
675.231	4.06
675.558	4.13
675.886	4.16
676.213	4.12
676.54	4.14
676.867	4.12
677.195	4.14
677.522	4.23
677.849	4.25
678.176	4.26
678.503	4.25
678.83	4.28
679.157	4.28
679.484	4.27
679.81	4.27
680.137	4.34
680.464	4.4
680.791	4.38
681.117	4.42
681.444	4.4
681.771	4.41
682.097	4.37
682.424	4.27
682.75	4.29
683.077	4.3
683.403	4.3
683.729	4.31
684.056	4.33
684.382	4.35
684.708	4.36
685.034	4.33
685.36	4.3
685.686	4.26
686.012	4.25
686.339	4.31
686.664	4.21
686.99	4.05
687.316	4.04
687.642	4.02
687.968	4.06
688.294	4.04
688.619	4
688.945	4
689.271	4.03
689.596	3.97
689.922	3.92
690.247	3.95
690.573	4.07
690.898	4.11
691.224	4.14
691.549	4.13
691.874	4.18
692.2	4.23
692.525	4.27
692.85	4.19
693.175	4.11
693.5	4.09
693.825	4.24
694.15	4.24
694.475	4.21
694.8	4.15
695.125	4.22
695.45	4.23
695.775	4.24
696.099	4.29
696.424	4.34
696.749	4.53
697.073	4.47
697.398	4.38
697.723	4.38
698.047	4.43
698.372	4.39
698.696	4.31
699.02	4.25
699.345	4.28
699.669	4.39
699.993	4.42
700.318	4.58
700.642	4.52
700.966	4.53
701.29	4.65
701.614	4.72
701.938	4.74
702.262	4.78
702.586	4.76
702.91	4.72
703.234	4.62
703.557	4.37
703.881	4.52
704.205	4.49
704.529	4.45
704.852	4.27
705.176	4.43
705.499	4.45
705.823	4.56
706.146	4.55
706.47	4.58
706.793	4.51
707.117	4.4
707.44	4.47
707.763	4.47
708.086	4.43
708.409	4.42
708.733	4.24
709.056	4.32
709.379	4.53
709.702	4.56
710.025	4.72
710.348	4.8
710.671	4.72
710.993	4.78
711.316	4.72
711.639	4.91
711.962	4.87
712.284	5.04
712.607	5.07
712.93	5.02
713.252	4.87
713.575	4.86
713.897	4.76
714.22	4.65
714.542	4.67
714.864	4.67
715.187	4.59
715.509	4.74
715.831	4.71
716.153	4.52
716.475	4.5
716.798	4.42
717.12	4.36
717.442	4.32
717.764	4.39
718.085	4.42
718.407	4.35
718.729	4.31
719.051	4.21
719.373	4.14
719.695	4.09
720.016	4.27
720.338	4.29
720.659	4.52
720.981	4.64
721.302	4.71
721.624	4.75
721.945	4.75
722.267	4.7
722.588	4.58
722.909	4.6
723.231	4.49
723.552	4.43
723.873	4.55
724.194	4.65
724.515	4.64
724.836	4.61
725.157	4.62
725.478	4.63
725.799	4.67
726.12	4.7
726.441	4.62
726.762	4.38
727.083	4.55
727.403	4.5
727.724	4.59
728.045	4.48
728.365	4.51
728.686	4.51
729.006	4.49
729.327	4.67
729.647	4.75
729.967	4.87
730.288	4.96
730.608	4.91
730.928	4.94
731.249	4.88
731.569	4.93
731.889	4.83
732.209	4.66
732.529	4.78
732.849	4.68
733.169	4.73
733.489	4.87
733.809	4.8
734.129	4.72
734.448	4.69
734.768	4.77
735.088	4.76
735.408	4.55
735.727	4.57
736.047	4.5
736.366	4.39
736.686	4.37
737.005	4.39
737.325	4.44
737.644	4.15
737.963	4.08
738.283	4.1
738.602	4.16
738.921	4.24
739.24	4.09
739.56	4.23
739.879	4.2
740.198	4.07
740.517	3.95
740.836	4.12
741.155	4.12
741.473	4.16
741.792	4.14
742.111	4.46
742.43	4.34
742.748	4.46
743.067	4.42
743.386	4.43
743.704	4.42
744.023	4.43
744.341	4.65
744.66	4.71
744.978	4.54
745.297	4.6
745.615	4.48
745.933	4.61
746.252	4.79
746.57	4.98
746.888	5.15
747.206	5.25
747.524	5.18
747.842	5.14
748.16	5.02
748.478	4.87
748.796	4.89
749.114	5.2
749.432	5.22
749.749	5.3
750.067	5.26
750.385	5.41
750.703	5.43
751.02	5.34
751.338	5.21
751.655	5.53
751.973	5.48
752.29	5.57
752.608	5.39
752.925	5.11
753.242	5.18
753.56	5.22
753.877	5.21
754.194	5.18
754.511	5.18
754.828	5.02
755.145	5.16
755.462	5.06
755.779	4.75
756.096	4.53
756.413	4.49
756.73	4.64
757.047	4.52
757.364	4.45
757.68	4.72
757.997	4.96
758.314	4.78
758.63	4.98
758.947	5.14
759.264	5.17
759.58	5.25
759.896	5.03
760.213	5.33
760.529	5.28
760.846	5.29
761.162	5.2
761.478	5.3
761.794	5.3
762.11	5.19
762.426	5.29
762.743	5.45
763.059	5.72
763.375	5.65
763.69	5.68
764.006	5.6
764.322	5.51
764.638	5.56
764.954	5.67
765.27	5.73
765.585	5.72
765.901	5.69
766.216	5.77
766.532	5.87
766.848	5.68
767.163	5.7
767.478	5.66
767.794	5.76
768.109	5.84
768.424	5.86
768.74	5.98
769.055	6.13
769.37	6.05
769.685	5.81
770	5.91
770.315	5.88
770.63	6.05
770.945	6.1
771.26	5.85
771.575	5.77
771.89	5.43
772.205	5.32
772.52	5.07
772.834	5.01
773.149	4.89
773.464	4.67
773.778	4.93
774.093	4.98
774.407	5.04
774.722	5.14
775.036	5.55
775.351	5.77
775.665	5.83
775.979	5.61
776.293	5.37
776.608	5.35
776.922	5.62
777.236	5.69
777.55	5.56
777.864	5.62
778.178	5.72
778.492	5.43
778.806	5.49
779.12	5.85
779.434	5.68
779.747	5.91
780.061	6.06
780.375	5.69
780.689	5.71
781.002	5.57
781.316	5.4
781.629	5.13
781.943	4.68
782.256	4.38
782.57	4.78
782.883	4.93
783.196	4.83
783.51	4.64
783.823	4.56
784.136	4.33
784.449	4.53
784.762	4.54
785.075	4.72
785.388	4.72
785.701	4.7
786.014	4.66
786.327	4.19
786.64	4.29
786.953	4.62
787.266	4.35
787.578	4.54
787.891	4.48
788.204	4.26
788.516	4.6
788.829	4.58
789.141	4.83
789.454	4.88
789.766	4.89
790.079	4.73
790.391	4.74
790.703	4.7
791.016	4.77
791.328	4.16
791.64	4.44
791.952	4.56
792.264	4.7
792.576	4.77
792.888	5.16
793.2	5.06
793.512	4.81
793.824	5.2
794.136	5.19
794.448	5.39
794.76	5.37
795.071	5.54
795.383	5.79
795.695	5.4
796.006	5.52
796.318	5.28
796.629	5.07
796.941	5.33
797.252	5.47
797.564	5.46
797.875	5.87
798.186	5.61
798.497	5.92
798.809	5.75
799.12	5.76
799.431	5.89
799.742	5.84
800.053	6.17
800.364	6.56
800.675	6.67
800.986	6.91
801.297	6.62
801.608	6.2
801.918	5.76
802.229	5.73
802.54	5.78
802.851	6.1
803.161	6.47
803.472	6.23
803.782	6.37
804.093	5.95
804.403	6.32
804.714	6.44
805.024	6.19
805.334	6.03
805.645	5.87
805.955	6.11
806.265	6.12
806.575	5.67
806.885	5.2
807.195	5.4
807.505	4.6
807.815	4.97
808.125	5.01
808.435	5.49
808.745	5.67
809.055	5.91
809.365	5.86
809.674	5.57
809.984	5.41
810.294	5.33
810.603	5.09
810.913	4.54
811.222	4.17
811.532	4.46
811.841	4.71
812.151	4.85
812.46	4.44
812.769	4.56
813.079	5.35
813.388	5.23
813.697	4.57
814.006	5.36
814.315	5.34
814.624	5.66
814.933	5.68
815.242	5.29
815.551	5.03
815.86	5.44
816.169	5.44
816.478	5.65
816.786	5.98
817.095	6.17
817.404	6.1
817.712	6.71
818.021	6.33
818.33	6.34
818.638	6.95
818.947	7
819.255	7.14
819.563	6.63
819.872	6.61
820.18	6.96
820.488	7.12
820.796	7.16
821.105	7.49
821.413	7.55
821.721	7.5
822.029	7.53
822.337	7.54
822.645	7.64
822.953	7.7
823.26	7.73
823.568	7.74
823.876	7.77
824.184	7.61
824.491	7.61
824.799	7.6
825.107	7.49
825.414	7.51
825.722	7.39
826.029	7.54
826.337	7.72
826.644	7.83
826.951	7.67
827.259	7.76
827.566	7.61
827.873	7.54
828.18	7.56
828.488	7.59
828.795	7.41
829.102	7.37
829.409	7.13
829.716	7.04
830.023	7.43
830.329	7.43
830.636	7.72
830.943	7.63
831.25	7.84
831.557	8.03
831.863	7.98
832.17	8.41
832.476	8.51
832.783	8.15
833.089	7.71
833.396	7.58
833.702	7.45
834.009	7.29
834.315	7.27
834.621	7.18
834.928	7.09
835.234	7.49
835.54	7.32
835.846	7.8
836.152	7.66
836.458	7.23
836.764	7.41
837.07	7.03
837.376	6.98
837.682	7.01
837.988	7.03
838.293	7.35
838.599	6.82
838.905	6.1
839.211	6.47
839.516	6.52
839.822	7.19
840.127	7.18
840.433	7.44
840.738	7.23
841.044	8.38
841.349	8.22
841.654	6.69
841.959	7.25
842.265	6.56
842.57	7.62
842.875	8.53
843.18	8.72
843.485	9.71
843.79	10.1
844.095	9.74
844.4	9.91
844.705	9.44
845.01	10.11
845.315	10.85
845.619	11.05
845.924	11.07
846.229	10.53
846.533	11
846.838	10.71
847.142	11.64
847.447	10.5
847.751	11.32
848.056	12.11
848.36	11.49
848.664	12.16
848.969	10.92
849.273	9.52
849.577	8.3
849.881	8.68
850.185	8.88
850.489	10.19
850.794	9.57
851.097	10.13
851.401	8.45
851.705	6.7
852.009	4.68
852.313	4.47
852.617	6.58
852.92	8.04
853.224	9.24
853.528	8.19
853.831	7.4
854.135	7.03
854.438	9.32
854.742	9.95
855.045	10.5
855.349	9.06
855.652	9.43
855.955	10.04
856.259	9.94
856.562	10.09
856.865	8.88
857.168	7.32
857.471	8.84
857.774	10.08
858.077	12.42
858.38	14.51
858.683	14.03
858.986	13.54
859.289	10.88
859.592	10.35
859.894	11.09
860.197	11.56
860.5	11.57
860.802	9.52
861.105	8.44
861.407	7.35
861.71	6.33
862.012	8.07
862.315	7.03
862.617	7.33
862.919	7.36
863.222	7.42
863.524	8.53
863.826	7.59
864.128	9.09
864.43	8.75
864.732	6.71
865.034	9.34
865.336	8.43
865.638	9.09
865.94	9.72
866.242	8.86
866.544	9.02
866.846	8.89
867.147	11.21
867.449	14.26
867.751	14.99
868.052	17.35
868.354	15.54
868.655	16.86
868.957	15.18
869.258	14.81
869.56	15.67
869.861	14.21
870.162	12.63
870.463	12.18
870.765	11.36
871.066	10.88
871.367	8.54
871.668	6.91
871.969	5.87
872.27	6.39
872.571	6.24
872.872	5.33
873.173	5.7
873.473	2.08
873.774	-1.48
874.075	-0.61
874.376	-1.26
874.676	1.09
874.977	1.97
875.277	3.03
875.578	3.13
875.878	1.5
876.179	3.06
876.479	3.22
876.78	2.03
877.08	2.36
877.38	4.1
877.68	5.5
877.981	7.07
878.281	9.85
878.581	6.91
