Data from BU26944_Reflection_00012.txt Node
Date: Tue Nov 19 10:54:52 EST 2019
User: vgr7
Spectrometer: USB2G7710
Scans to average: 3
Trigger mode: 4
Integration Time (sec): 2.000000E-2
Electric dark correction enabled: true
Boxcar width: 10
XAxis mode: Wavelengths
Number of Pixels in Spectrum: 2048
>>>>>Begin Spectral Data<<<<<
177.721	230.17
178.105	122.12
178.488	77.57
178.871	257.14
179.254	-2340
179.636	-246.47
180.019	-78.5
180.402	-750
180.785	74.12
181.168	87.6
181.55	27.04
181.933	2.31
182.316	-33.25
182.698	1.98
183.081	-6.65
183.463	20.74
183.846	-12.54
184.228	17.74
184.611	-413.51
184.993	-248.57
185.376	-493.98
185.758	979.52
186.14	584.21
186.522	-189.1
186.904	-68.67
187.287	-148.5
187.669	-84
188.051	-35.32
188.433	-63.33
188.815	-17.98
189.197	4.43
189.579	-8.58
189.961	-36.75
190.342	-32.45
190.724	-30.12
191.106	-42.34
191.488	-49.78
191.869	-37.65
192.251	-31.38
192.633	-45.99
193.014	-27.03
193.396	-24.53
193.777	-6.67
194.159	-6.23
194.54	-11.04
194.922	-33.04
195.303	-25.48
195.684	-36.85
196.065	-27.48
196.447	-19.3
196.828	-16.85
197.209	-28.07
197.59	-18.79
197.971	-20.03
198.352	-28.42
198.733	-42.05
199.114	-41.08
199.495	-19.06
199.876	-49.06
200.257	-31.17
200.638	-5.76
201.018	-17.65
201.399	-19.13
201.78	-21.42
202.16	-14.21
202.541	-13.26
202.922	2.14
203.302	-1.8
203.683	-11.85
204.063	-27.44
204.444	-21.57
204.824	-26.26
205.204	-23.41
205.585	-36.24
205.965	-25.07
206.345	-7.56
206.725	-4.42
207.106	21.62
207.486	18.83
207.866	47.22
208.246	30.02
208.626	-14.59
209.006	-26.15
209.386	-12.32
209.766	-17.11
210.145	-32.76
210.525	-38.33
210.905	-46.57
211.285	-23.99
211.664	4.32
212.044	8.39
212.424	18.19
212.803	1.87
213.183	11.26
213.562	10.82
213.942	9.56
214.321	-11.04
214.701	-12.65
215.08	-22.83
215.459	-34.58
215.838	-55.78
216.218	-98.12
216.597	-67.57
216.976	-56.15
217.355	-54.75
217.734	-44.35
218.113	-42.86
218.492	-47.03
218.871	-33.82
219.25	-26.92
219.629	-73.97
220.008	-57.97
220.387	-88.24
220.766	-25.15
221.144	-55.19
221.523	-48.7
221.902	-62.59
222.28	-12.55
222.659	14.81
223.037	8.17
223.416	10.16
223.794	15.91
224.173	7.36
224.551	8.97
224.929	5.61
225.308	1.21
225.686	-10.23
226.064	-7.26
226.442	-2.73
226.821	-9.28
227.199	-10.54
227.577	-8.77
227.955	-7.4
228.333	-6.26
228.711	-4.59
229.089	-3.41
229.467	-3.13
229.845	-0.95
230.222	-2.02
230.6	-5.35
230.978	-3.62
231.356	-3.05
231.733	-2.57
232.111	-1.36
232.488	1.17
232.866	4.47
233.243	3.4
233.621	6.97
233.998	9.25
234.376	9.25
234.753	12.61
235.13	11.28
235.508	11.05
235.885	9.04
236.262	7.44
236.639	6.89
237.016	6.6
237.393	5.61
237.77	6.57
238.147	5.5
238.524	5.4
238.901	4.79
239.278	3.97
239.655	3.57
240.032	3.76
240.409	3.15
240.785	2.75
241.162	3.35
241.539	2.69
241.915	1.72
242.292	2.28
242.668	2.37
243.045	2.79
243.421	3.02
243.798	3.54
244.174	3.74
244.551	3.7
244.927	3.7
245.303	3.62
245.679	3.62
246.056	3.68
246.432	3.58
246.808	3.76
247.184	4.05
247.56	4.16
247.936	4.23
248.312	4.34
248.688	4.29
249.064	4.45
249.44	4.36
249.815	4.45
250.191	4.19
250.567	4.06
250.943	4.15
251.318	3.9
251.694	3.77
252.069	3.69
252.445	3.54
252.82	3.77
253.196	4.1
253.571	4.06
253.947	3.76
254.322	3.68
254.697	3.53
255.073	3.63
255.448	3.57
255.823	3.5
256.198	3.35
256.573	3.35
256.948	3.42
257.323	3.7
257.698	3.76
258.073	3.89
258.448	4.04
258.823	3.84
259.198	4.16
259.573	3.94
259.948	4.05
260.322	4.06
260.697	4.07
261.072	4
261.446	3.97
261.821	4.21
262.195	4.38
262.57	4.31
262.944	4.19
263.319	4.16
263.693	4.16
264.067	4.07
264.442	4.13
264.816	4
265.19	3.85
265.564	3.83
265.938	3.71
266.313	3.58
266.687	3.73
267.061	3.51
267.435	3.81
267.809	3.75
268.183	3.62
268.556	3.51
268.93	3.57
269.304	3.43
269.678	3.43
270.051	3.35
270.425	3.56
270.799	3.53
271.172	3.66
271.546	3.6
271.919	3.66
272.293	3.63
272.666	3.78
273.04	3.92
273.413	3.91
273.787	4.01
274.16	3.99
274.533	3.91
274.906	3.94
275.279	3.81
275.653	3.88
276.026	4.05
276.399	4.07
276.772	4.16
277.145	4.33
277.518	4.17
277.891	4.21
278.263	4.2
278.636	4.33
279.009	4.39
279.382	4.39
279.755	4.46
280.127	4.52
280.5	4.31
280.872	4.32
281.245	4.4
281.617	4.33
281.99	4.29
282.362	4.19
282.735	4.13
283.107	4.19
283.479	4.23
283.852	4.18
284.224	4.24
284.596	4.1
284.968	4.02
285.34	4.07
285.713	4.1
286.085	3.97
286.457	3.9
286.829	3.69
287.201	3.68
287.572	3.78
287.944	3.79
288.316	3.94
288.688	3.94
289.06	3.99
289.431	4.03
289.803	4.12
290.175	4.24
290.546	4.37
290.918	4.42
291.289	4.21
291.661	4.26
292.032	4.23
292.403	4.15
292.775	4.21
293.146	4.21
293.517	4.13
293.889	4.25
294.26	4.37
294.631	4.58
295.002	4.6
295.373	4.53
295.744	4.47
296.115	4.38
296.486	4.42
296.857	4.31
297.228	4.33
297.599	4.18
297.97	4.23
298.34	4.2
298.711	4.24
299.082	4.45
299.452	4.61
299.823	4.69
300.194	4.94
300.564	5.02
300.935	5.2
301.305	5.29
301.676	5.35
302.046	5.35
302.416	5.43
302.787	5.57
303.157	5.56
303.527	5.72
303.897	5.82
304.267	5.93
304.637	6.13
305.008	6.27
305.378	6.32
305.748	6.36
306.117	6.36
306.487	6.48
306.857	6.48
307.227	6.44
307.597	6.43
307.967	6.38
308.336	6.36
308.706	6.34
309.076	6.51
309.445	6.54
309.815	6.65
310.184	6.53
310.554	6.45
310.923	6.55
311.293	6.56
311.662	6.55
312.031	6.6
312.401	6.48
312.77	6.47
313.139	6.73
313.508	6.7
313.877	6.73
314.246	6.76
314.616	6.83
314.985	6.89
315.353	6.99
315.722	7.18
316.091	7.42
316.46	7.39
316.829	7.3
317.198	7.46
317.567	7.55
317.935	7.82
318.304	8.08
318.672	8.35
319.041	8.39
319.41	8.53
319.778	8.61
320.147	8.95
320.515	8.86
320.883	8.97
321.252	9.27
321.62	9.51
321.988	9.45
322.357	9.68
322.725	9.74
323.093	9.78
323.461	9.85
323.829	9.9
324.197	10.09
324.565	10.22
324.933	10.15
325.301	10.11
325.669	10.08
326.037	10.17
326.405	10.21
326.772	10.24
327.14	10.27
327.508	10.29
327.875	10.24
328.243	10.38
328.61	10.46
328.978	10.33
329.346	10.41
329.713	10.45
330.08	10.33
330.448	10.38
330.815	10.48
331.182	10.27
331.55	10.13
331.917	10.11
332.284	10.14
332.651	10.17
333.018	10.28
333.385	10.34
333.752	10.23
334.119	10.24
334.486	10.3
334.853	10.34
335.22	10.32
335.587	10.32
335.954	10.29
336.32	10.19
336.687	10.35
337.054	10.33
337.42	10.4
337.787	10.35
338.153	10.47
338.52	10.56
338.886	10.74
339.253	10.77
339.619	10.93
339.986	10.95
340.352	11
340.718	11.12
341.084	11.06
341.451	11.19
341.817	11.15
342.183	11.21
342.549	11.28
342.915	11.33
343.281	11.39
343.647	11.45
344.013	11.44
344.379	11.42
344.745	11.44
345.11	11.43
345.476	11.56
345.842	11.51
346.208	11.44
346.573	11.49
346.939	11.5
347.304	11.44
347.67	11.34
348.035	11.34
348.401	11.24
348.766	11.26
349.132	11.28
349.497	11.33
349.862	11.4
350.228	11.37
350.593	11.4
350.958	11.43
351.323	11.43
351.688	11.41
352.053	11.38
352.418	11.39
352.783	11.46
353.148	11.44
353.513	11.38
353.878	11.36
354.243	11.23
354.608	11.37
354.972	11.39
355.337	11.56
355.702	11.53
356.066	11.48
356.431	11.55
356.795	11.53
357.16	11.45
357.524	11.37
357.889	11.3
358.253	11.24
358.618	11.24
358.982	11.26
359.346	11.26
359.71	11.24
360.075	11.21
360.439	11.2
360.803	11.26
361.167	11.19
361.531	11.23
361.895	11.21
362.259	11.17
362.623	11.05
362.987	10.9
363.351	10.88
363.714	10.89
364.078	10.82
364.442	10.71
364.806	10.68
365.169	10.65
365.533	10.62
365.896	10.57
366.26	10.38
366.623	10.35
366.987	10.34
367.35	10.31
367.714	10.23
368.077	10.21
368.44	10.05
368.803	9.99
369.167	9.85
369.53	9.87
369.893	9.73
370.256	9.68
370.619	9.64
370.982	9.53
371.345	9.39
371.708	9.27
372.071	9.22
372.434	9.15
372.797	9.07
373.159	8.99
373.522	8.91
373.885	8.95
374.247	8.84
374.61	8.81
374.973	8.71
375.335	8.66
375.698	8.48
376.06	8.42
376.423	8.39
376.785	8.36
377.147	8.24
377.51	8.17
377.872	8.07
378.234	8.08
378.596	8.09
378.958	8.09
379.321	8.07
379.683	8.03
380.045	7.97
380.407	7.91
380.769	7.92
381.13	7.86
381.492	7.8
381.854	7.72
382.216	7.66
382.578	7.64
382.939	7.53
383.301	7.51
383.663	7.46
384.024	7.4
384.386	7.33
384.747	7.3
385.109	7.27
385.47	7.25
385.832	7.16
386.193	7.09
386.554	6.99
386.916	6.91
387.277	6.83
387.638	6.81
387.999	6.8
388.36	6.77
388.721	6.71
389.082	6.7
389.443	6.67
389.804	6.59
390.165	6.55
390.526	6.52
390.887	6.5
391.248	6.48
391.609	6.47
391.969	6.4
392.33	6.35
392.691	6.29
393.051	6.26
393.412	6.23
393.772	6.22
394.133	6.17
394.493	6.14
394.854	6.11
395.214	6.08
395.574	6.01
395.935	5.93
396.295	5.91
396.655	5.81
397.015	5.74
397.376	5.7
397.736	5.64
398.096	5.61
398.456	5.51
398.816	5.47
399.176	5.41
399.535	5.39
399.895	5.34
400.255	5.33
400.615	5.3
400.975	5.28
401.334	5.23
401.694	5.21
402.054	5.16
402.413	5.16
402.773	5.09
403.132	5.06
403.492	5.04
403.851	5.03
404.211	5.04
404.57	5.04
404.929	4.99
405.288	4.96
405.648	4.92
406.007	4.94
406.366	4.9
406.725	4.85
407.084	4.82
407.443	4.81
407.802	4.79
408.161	4.75
408.52	4.72
408.879	4.69
409.238	4.68
409.596	4.7
409.955	4.65
410.314	4.65
410.673	4.63
411.031	4.59
411.39	4.54
411.748	4.49
412.107	4.47
412.465	4.44
412.824	4.42
413.182	4.4
413.54	4.38
413.899	4.35
414.257	4.34
414.615	4.32
414.974	4.34
415.332	4.29
415.69	4.28
416.048	4.26
416.406	4.22
416.764	4.19
417.122	4.14
417.48	4.14
417.838	4.14
418.195	4.12
418.553	4.12
418.911	4.13
419.269	4.13
419.626	4.13
419.984	4.13
420.342	4.13
420.699	4.12
421.057	4.09
421.414	4.08
421.772	4.08
422.129	4.05
422.486	4.03
422.844	4.03
423.201	4.02
423.558	4.01
423.915	4.01
424.273	3.99
424.63	3.99
424.987	3.99
425.344	3.97
425.701	3.97
426.058	3.96
426.415	3.93
426.772	3.89
427.128	3.87
427.485	3.86
427.842	3.84
428.199	3.85
428.555	3.85
428.912	3.84
429.269	3.8
429.625	3.77
429.982	3.75
430.338	3.74
430.695	3.72
431.051	3.72
431.407	3.71
431.764	3.72
432.12	3.72
432.476	3.69
432.832	3.7
433.189	3.67
433.545	3.66
433.901	3.68
434.257	3.7
434.613	3.7
434.969	3.7
435.325	3.69
435.681	3.67
436.036	3.66
436.392	3.67
436.748	3.68
437.104	3.72
437.459	3.73
437.815	3.73
438.171	3.72
438.526	3.7
438.882	3.7
439.237	3.71
439.593	3.7
439.948	3.7
440.304	3.68
440.659	3.68
441.014	3.68
441.369	3.68
441.725	3.67
442.08	3.66
442.435	3.67
442.79	3.66
443.145	3.66
443.5	3.64
443.855	3.64
444.21	3.62
444.565	3.61
444.92	3.59
445.275	3.58
445.629	3.58
445.984	3.59
446.339	3.58
446.693	3.57
447.048	3.56
447.403	3.56
447.757	3.55
448.112	3.54
448.466	3.54
448.82	3.51
449.175	3.52
449.529	3.5
449.883	3.48
450.238	3.47
450.592	3.48
450.946	3.49
451.3	3.46
451.654	3.45
452.008	3.45
452.362	3.44
452.716	3.44
453.07	3.43
453.424	3.42
453.778	3.42
454.132	3.42
454.486	3.42
454.839	3.43
455.193	3.44
455.547	3.43
455.9	3.43
456.254	3.44
456.607	3.42
456.961	3.43
457.314	3.43
457.668	3.42
458.021	3.41
458.375	3.38
458.728	3.39
459.081	3.38
459.434	3.38
459.787	3.39
460.141	3.4
460.494	3.4
460.847	3.41
461.2	3.41
461.553	3.42
461.906	3.43
462.259	3.41
462.611	3.41
462.964	3.41
463.317	3.41
463.67	3.41
464.022	3.43
464.375	3.43
464.728	3.44
465.08	3.45
465.433	3.46
465.785	3.5
466.138	3.52
466.49	3.54
466.843	3.57
467.195	3.58
467.547	3.57
467.899	3.58
468.252	3.6
468.604	3.62
468.956	3.59
469.308	3.59
469.66	3.63
470.012	3.64
470.364	3.66
470.716	3.69
471.068	3.71
471.42	3.75
471.772	3.76
472.123	3.78
472.475	3.8
472.827	3.8
473.178	3.81
473.53	3.82
473.882	3.82
474.233	3.82
474.585	3.82
474.936	3.85
475.288	3.85
475.639	3.87
475.99	3.86
476.342	3.89
476.693	3.9
477.044	3.88
477.395	3.87
477.746	3.87
478.097	3.86
478.448	3.85
478.8	3.84
479.15	3.84
479.501	3.84
479.852	3.85
480.203	3.87
480.554	3.87
480.905	3.86
481.255	3.87
481.606	3.86
481.957	3.86
482.307	3.85
482.658	3.85
483.009	3.84
483.359	3.85
483.709	3.84
484.06	3.84
484.41	3.85
484.761	3.85
485.111	3.86
485.461	3.86
485.811	3.85
486.162	3.86
486.512	3.85
486.862	3.85
487.212	3.84
487.562	3.83
487.912	3.82
488.262	3.82
488.612	3.8
488.961	3.8
489.311	3.8
489.661	3.81
490.011	3.8
490.36	3.8
490.71	3.78
491.06	3.79
491.409	3.79
491.759	3.79
492.108	3.79
492.458	3.78
492.807	3.78
493.157	3.79
493.506	3.78
493.855	3.79
494.204	3.8
494.554	3.8
494.903	3.83
495.252	3.85
495.601	3.86
495.95	3.9
496.299	3.91
496.648	3.94
496.997	3.95
497.346	3.96
497.695	3.99
498.043	4.04
498.392	4.07
498.741	4.11
499.09	4.15
499.438	4.18
499.787	4.22
500.135	4.27
500.484	4.3
500.832	4.35
501.181	4.4
501.529	4.45
501.878	4.5
502.226	4.56
502.574	4.6
502.923	4.67
503.271	4.72
503.619	4.8
503.967	4.85
504.315	4.93
504.663	5.01
505.011	5.05
505.359	5.09
505.707	5.17
506.055	5.24
506.403	5.31
506.751	5.38
507.098	5.47
507.446	5.54
507.794	5.61
508.141	5.67
508.489	5.76
508.837	5.84
509.184	5.93
509.531	6.01
509.879	6.08
510.226	6.15
510.574	6.24
510.921	6.3
511.268	6.4
511.616	6.49
511.963	6.58
512.31	6.7
512.657	6.81
513.004	6.9
513.351	7
513.698	7.12
514.045	7.24
514.392	7.35
514.739	7.46
515.086	7.6
515.432	7.77
515.779	7.87
516.126	8.01
516.473	8.1
516.819	8.24
517.166	8.41
517.512	8.53
517.859	8.66
518.205	8.78
518.552	8.87
518.898	8.98
519.245	9.12
519.591	9.22
519.937	9.33
520.283	9.47
520.629	9.59
520.976	9.72
521.322	9.87
521.668	10.01
522.014	10.16
522.36	10.33
522.706	10.46
523.052	10.62
523.398	10.78
523.743	10.99
524.089	11.16
524.435	11.3
524.781	11.48
525.126	11.64
525.472	11.8
525.817	11.94
526.163	12.08
526.509	12.19
526.854	12.31
527.199	12.41
527.545	12.5
527.89	12.59
528.235	12.71
528.581	12.8
528.926	12.9
529.271	13.01
529.616	13.09
529.961	13.19
530.306	13.3
530.651	13.41
530.996	13.53
531.341	13.65
531.686	13.78
532.031	13.9
532.376	14.02
532.721	14.15
533.065	14.29
533.41	14.42
533.755	14.55
534.099	14.7
534.444	14.86
534.788	15.01
535.133	15.18
535.477	15.3
535.822	15.46
536.166	15.63
536.51	15.82
536.855	16.03
537.199	16.26
537.543	16.47
537.887	16.69
538.231	16.89
538.576	17.09
538.92	17.3
539.264	17.49
539.608	17.68
539.951	17.84
540.295	18.01
540.639	18.16
540.983	18.35
541.327	18.5
541.671	18.66
542.014	18.84
542.358	18.99
542.701	19.17
543.045	19.36
543.389	19.53
543.732	19.66
544.075	19.81
544.419	19.98
544.762	20.15
545.105	20.32
545.449	20.52
545.792	20.73
546.135	20.93
546.478	21.17
546.821	21.38
547.165	21.65
547.508	21.9
547.851	22.16
548.194	22.4
548.536	22.66
548.879	22.94
549.222	23.19
549.565	23.48
549.908	23.72
550.25	23.95
550.593	24.21
550.936	24.53
551.278	24.82
551.621	25.09
551.963	25.36
552.306	25.61
552.648	25.88
552.991	26.1
553.333	26.36
553.675	26.62
554.017	26.87
554.36	27.06
554.702	27.34
555.044	27.6
555.386	27.87
555.728	28.13
556.07	28.34
556.412	28.57
556.754	28.79
557.096	29.05
557.438	29.33
557.78	29.63
558.121	29.93
558.463	30.2
558.805	30.5
559.147	30.82
559.488	31.1
559.83	31.4
560.171	31.7
560.513	32.03
560.854	32.3
561.196	32.52
561.537	32.8
561.878	33.06
562.22	33.36
562.561	33.61
562.902	33.83
563.243	34.12
563.584	34.36
563.925	34.68
564.266	34.94
564.607	35.17
564.948	35.4
565.289	35.65
565.63	35.89
565.971	36.13
566.312	36.32
566.653	36.62
566.993	36.85
567.334	37.12
567.675	37.32
568.015	37.56
568.356	37.88
568.696	38.14
569.037	38.42
569.377	38.66
569.718	38.91
570.058	39.18
570.398	39.41
570.739	39.66
571.079	39.85
571.419	40.08
571.759	40.32
572.099	40.55
572.439	40.71
572.779	40.93
573.119	41.09
573.459	41.28
573.799	41.45
574.139	41.59
574.479	41.77
574.819	41.97
575.158	42.16
575.498	42.25
575.838	42.44
576.177	42.52
576.517	42.68
576.856	42.8
577.196	42.97
577.535	43.14
577.875	43.31
578.214	43.52
578.553	43.67
578.893	43.84
579.232	44.03
579.571	44.24
579.91	44.39
580.25	44.65
580.589	44.89
580.928	45.01
581.267	45.18
581.606	45.3
581.945	45.45
582.283	45.61
582.622	45.82
582.961	45.99
583.3	46.21
583.639	46.37
583.977	46.57
584.316	46.72
584.654	46.87
584.993	47.04
585.332	47.14
585.67	47.34
586.008	47.46
586.347	47.57
586.685	47.71
587.024	47.89
587.362	47.95
587.7	48.01
588.038	48.15
588.376	48.29
588.715	48.45
589.053	48.6
589.391	48.78
589.729	48.94
590.067	49.06
590.404	49.11
590.742	49.22
591.08	49.33
591.418	49.47
591.756	49.56
592.093	49.66
592.431	49.78
592.769	49.83
593.106	49.93
593.444	50.04
593.781	50.07
594.119	50.15
594.456	50.24
594.793	50.32
595.131	50.38
595.468	50.5
595.805	50.57
596.143	50.62
596.48	50.62
596.817	50.64
597.154	50.72
597.491	50.81
597.828	50.9
598.165	50.95
598.502	51.02
598.839	51.1
599.176	51.27
599.512	51.37
599.849	51.5
600.186	51.66
600.523	51.69
600.859	51.87
601.196	51.85
601.532	51.99
601.869	52.07
602.205	52.12
602.542	52.18
602.878	52.25
603.215	52.34
603.551	52.44
603.887	52.51
604.223	52.56
604.56	52.63
604.896	52.7
605.232	52.79
605.568	52.89
605.904	52.91
606.24	52.87
606.576	52.92
606.912	52.99
607.248	52.96
607.583	53.07
607.919	53.13
608.255	53.25
608.591	53.26
608.926	53.33
609.262	53.48
609.597	53.55
609.933	53.57
610.268	53.59
610.604	53.59
610.939	53.64
611.275	53.73
611.61	53.79
611.945	53.79
612.281	53.8
612.616	53.8
612.951	53.98
613.286	54.08
613.621	54.11
613.956	54.18
614.291	54.27
614.626	54.33
614.961	54.29
615.296	54.37
615.631	54.38
615.966	54.39
616.3	54.38
616.635	54.33
616.97	54.38
617.304	54.38
617.639	54.43
617.973	54.53
618.308	54.55
618.642	54.56
618.977	54.54
619.311	54.57
619.646	54.62
619.98	54.6
620.314	54.58
620.648	54.59
620.983	54.63
621.317	54.72
621.651	54.76
621.985	54.86
622.319	54.91
622.653	54.93
622.987	54.99
623.321	55.11
623.655	55.16
623.988	55.22
624.322	55.28
624.656	55.38
624.99	55.45
625.323	55.53
625.657	55.6
625.99	55.73
626.324	55.78
626.657	55.79
626.991	55.83
627.324	55.91
627.658	56
627.991	56.02
628.324	56
628.657	56
628.991	56.03
629.324	56.07
629.657	56.18
629.99	56.21
630.323	56.16
630.656	56.27
630.989	56.31
631.322	56.38
631.655	56.35
631.987	56.28
632.32	56.2
632.653	56.2
632.986	56.23
633.318	56.33
633.651	56.41
633.984	56.5
634.316	56.44
634.649	56.46
634.981	56.38
635.313	56.48
635.646	56.54
635.978	56.51
636.31	56.4
636.643	56.35
636.975	56.39
637.307	56.41
637.639	56.34
637.971	56.25
638.303	56.23
638.635	56.23
638.967	56.37
639.299	56.45
639.631	56.48
639.963	56.43
640.295	56.39
640.626	56.3
640.958	56.28
641.29	56.39
641.621	56.28
641.953	56.41
642.285	56.3
642.616	56.37
642.948	56.37
643.279	56.6
643.61	56.61
643.942	56.62
644.273	56.67
644.604	56.76
644.936	56.86
645.267	56.96
645.598	57.1
645.929	57.04
646.26	56.98
646.591	56.93
646.922	56.96
647.253	57
647.584	57.01
647.915	56.98
648.245	57.06
648.576	57.2
648.907	57.22
649.238	57.25
649.568	57.15
649.899	57.31
650.229	57.23
650.56	57.28
650.89	57.29
651.221	57.34
651.551	57.35
651.882	57.43
652.212	57.48
652.542	57.43
652.872	57.39
653.203	57.48
653.533	57.6
653.863	57.55
654.193	57.44
654.523	57.53
654.853	57.58
655.183	57.56
655.513	57.57
655.843	57.67
656.172	57.8
656.502	57.84
656.832	57.76
657.162	57.84
657.491	57.9
657.821	57.91
658.15	57.95
658.48	57.92
658.809	57.82
659.139	57.84
659.468	57.76
659.798	57.86
660.127	57.91
660.456	57.93
660.785	58.03
661.115	58.08
661.444	58.15
661.773	58.13
662.102	58.2
662.431	58.18
662.76	58.21
663.089	58.15
663.418	58.18
663.747	58.21
664.076	58.12
664.404	58.11
664.733	58.11
665.062	58.1
665.39	58.07
665.719	58.16
666.048	58.2
666.376	58.36
666.705	58.35
667.033	58.21
667.362	58.22
667.69	58.23
668.018	58.24
668.347	58.15
668.675	58.32
669.003	58.25
669.331	58.31
669.659	58.25
669.987	58.27
670.315	58.23
670.643	58.23
670.971	58.29
671.299	58.37
671.627	58.37
671.955	58.28
672.283	58.36
672.61	58.32
672.938	58.24
673.266	58.15
673.593	58.06
673.921	58.09
674.249	58.15
674.576	58.05
674.904	58.11
675.231	58.25
675.558	58.14
675.886	58.15
676.213	58.14
676.54	58.24
676.867	58.24
677.195	58.31
677.522	58.29
677.849	58.24
678.176	58.16
678.503	58.16
678.83	58.17
679.157	58.15
679.484	58.2
679.81	58.21
680.137	58.42
680.464	58.55
680.791	58.6
681.117	58.5
681.444	58.58
681.771	58.62
682.097	58.59
682.424	58.64
682.75	58.69
683.077	58.61
683.403	58.52
683.729	58.57
684.056	58.52
684.382	58.46
684.708	58.45
685.034	58.49
685.36	58.67
685.686	58.84
686.012	58.86
686.339	58.8
686.664	58.85
686.99	58.54
687.316	58.54
687.642	58.58
687.968	58.63
688.294	58.59
688.619	58.5
688.945	58.42
689.271	58.56
689.596	58.53
689.922	58.56
690.247	58.59
690.573	58.35
690.898	58.56
691.224	58.61
691.549	58.78
691.874	58.81
692.2	58.75
692.525	58.7
692.85	58.83
693.175	58.8
693.5	58.97
693.825	59.15
694.15	59.18
694.475	59.19
694.8	59.26
695.125	59.43
695.45	59.56
695.775	59.68
696.099	59.66
696.424	59.75
696.749	59.8
697.073	59.72
697.398	59.94
697.723	59.94
698.047	60.12
698.372	60
698.696	60.08
699.02	60.04
699.345	60.07
699.669	60.08
699.993	60.14
700.318	60.06
700.642	59.99
700.966	59.91
701.29	59.95
701.614	59.97
701.938	59.88
702.262	59.97
702.586	59.96
702.91	59.69
703.234	59.58
703.557	59.53
703.881	59.53
704.205	59.55
704.529	59.28
704.852	59.1
705.176	59.18
705.499	58.96
705.823	58.95
706.146	58.9
706.47	58.83
706.793	58.81
707.117	58.92
707.44	58.92
707.763	59.03
708.086	58.89
708.409	58.86
708.733	59.07
709.056	59.04
709.379	58.99
709.702	59.13
710.025	59.25
710.348	59.31
710.671	59.26
710.993	59.12
711.316	59.34
711.639	59.3
711.962	59.39
712.284	59.47
712.607	59.47
712.93	59.46
713.252	59.52
713.575	59.68
713.897	59.44
714.22	59.5
714.542	59.4
714.864	59.51
715.187	59.46
715.509	59.35
715.831	59.36
716.153	59.44
716.475	59.3
716.798	59.27
717.12	59.39
717.442	59.67
717.764	59.68
718.085	59.61
718.407	59.73
718.729	59.54
719.051	59.51
719.373	59.61
719.695	59.61
720.016	59.67
720.338	59.6
720.659	59.75
720.981	59.81
721.302	60.12
721.624	60.3
721.945	60.08
722.267	60.08
722.588	59.82
722.909	59.46
723.231	59.6
723.552	59.6
723.873	59.36
724.194	59.27
724.515	59.5
724.836	59.51
725.157	59.47
725.478	59.65
725.799	59.95
726.12	59.87
726.441	59.88
726.762	59.86
727.083	59.93
727.403	59.7
727.724	59.61
728.045	59.51
728.365	59.34
728.686	59.71
729.006	59.55
729.327	59.78
729.647	60.01
729.967	59.99
730.288	60.12
730.608	60.37
730.928	60.5
731.249	60.22
731.569	60.25
731.889	60.29
732.209	60.32
732.529	60.26
732.849	60.22
733.169	60.18
733.489	60.03
733.809	59.85
734.129	60.14
734.448	60.11
734.768	59.96
735.088	60.03
735.408	59.93
735.727	60.17
736.047	60.04
736.366	60.05
736.686	60.16
737.005	60.04
737.325	59.86
737.644	59.86
737.963	60.22
738.283	60.36
738.602	60.38
738.921	60.13
739.24	60.09
739.56	60.22
739.879	60.2
740.198	60.39
740.517	60.76
740.836	60.76
741.155	60.98
741.473	61.2
741.792	61.08
742.111	61.39
742.43	61.24
742.748	61.38
743.067	61.51
743.386	61.35
743.704	61.37
744.023	61.21
744.341	60.88
744.66	60.62
744.978	60.21
745.297	60.16
745.615	60.36
745.933	60.29
746.252	60.18
746.57	60.25
746.888	60.03
747.206	59.67
747.524	59.75
747.842	59.81
748.16	59.5
748.478	59.75
748.796	59.39
749.114	59.48
749.432	59.42
749.749	59.34
750.067	59.31
750.385	59.05
750.703	59.27
751.02	59.56
751.338	59.36
751.655	59.87
751.973	60.06
752.29	59.88
752.608	60.04
752.925	60.4
753.242	60.48
753.56	60.55
753.877	60.68
754.194	60.37
754.511	60.34
754.828	60.68
755.145	60.42
755.462	60.83
755.779	60.88
756.096	61.15
756.413	61.21
756.73	61.41
757.047	61.55
757.364	61.55
757.68	61.36
757.997	62.01
758.314	61.72
758.63	61.69
758.947	62.12
759.264	61.92
759.58	61.55
759.896	61.86
760.213	61.65
760.529	61.71
760.846	61.68
761.162	61.57
761.478	61.23
761.794	61.23
762.11	60.93
762.426	60.7
762.743	60.85
763.059	60.97
763.375	61.13
763.69	61.28
764.006	61.41
764.322	61.72
764.638	61.51
764.954	61.67
765.27	61.72
765.585	61.24
765.901	61.36
766.216	61.55
766.532	61.26
766.848	61.44
767.163	61.68
767.478	61.82
767.794	62.05
768.109	62.31
768.424	62.56
768.74	62.97
769.055	63.76
769.37	63.33
769.685	63.27
770	63.08
770.315	63.07
770.63	63.15
770.945	63.29
771.26	63.49
771.575	63.34
771.89	63.31
772.205	63.78
772.52	63.78
772.834	63.69
773.149	63.87
773.464	63.94
773.778	63.83
774.093	63.75
774.407	63.61
774.722	63.7
775.036	64.01
775.351	63.51
775.665	62.9
775.979	62.86
776.293	62.61
776.608	62.89
776.922	63.03
777.236	63.11
777.55	62.69
777.864	62.19
778.178	62.27
778.492	62.39
778.806	62.41
779.12	61.96
779.434	61.92
779.747	61.72
780.061	61.86
780.375	61.9
780.689	62.32
781.002	62.53
781.316	62.72
781.629	61.9
781.943	62
782.256	62.31
782.57	62.69
782.883	62.87
783.196	62.37
783.51	62.51
783.823	62.18
784.136	61.79
784.449	61.97
784.762	61.93
785.075	61.68
785.388	61.98
785.701	62.1
786.014	62.01
786.327	62.4
786.64	62.58
786.953	62.54
787.266	62
787.578	61.74
787.891	61.28
788.204	61.64
788.516	61.8
788.829	61.76
789.141	61.86
789.454	61.95
789.766	62.54
790.079	62.47
790.391	62.48
790.703	62.65
791.016	62.84
791.328	62.76
791.64	63.06
791.952	62.81
792.264	63.34
792.576	64.12
792.888	63.89
793.2	64.01
793.512	63.48
793.824	63.49
794.136	63.09
794.448	63.37
794.76	63.13
795.071	63
795.383	62.74
795.695	62.35
796.006	62.32
796.318	61.83
796.629	61.69
796.941	61.58
797.252	61.39
797.564	61.28
797.875	61.64
798.186	61.52
798.497	61.34
798.809	61.5
799.12	60.75
799.431	60.79
799.742	60.2
800.053	60.73
800.364	61
800.675	61.64
800.986	61.71
801.297	62.32
801.608	62.56
801.918	62.94
802.229	62.53
802.54	62.62
802.851	62.77
803.161	62.66
803.472	63
803.782	63.08
804.093	63.41
804.403	63.11
804.714	63.37
805.024	63.89
805.334	63.8
805.645	64.77
805.955	64.72
806.265	65.73
806.575	65.72
806.885	65.72
807.195	65.31
807.505	64.77
807.815	65.18
808.125	65.04
808.435	64.88
808.745	66.16
809.055	66.49
809.365	66.87
809.674	67.12
809.984	67.88
810.294	68.54
810.603	67.98
810.913	68.59
811.222	68.96
811.532	68.59
811.841	68.14
812.151	67.45
812.46	68.23
812.769	68.14
813.079	67.92
813.388	67.99
813.697	68.4
814.006	69.58
814.315	68.46
814.624	68.43
814.933	68.37
815.242	67.81
815.551	67.21
815.86	67.3
816.169	67.16
816.478	65.81
816.786	65.34
817.095	65.99
817.404	65
817.712	64.56
818.021	64.73
818.33	64.93
818.638	64.97
818.947	64.67
819.255	63.76
819.563	63.88
819.872	63.59
820.18	63.41
820.488	63.1
820.796	63.15
821.105	63.09
821.413	62.88
821.721	63.04
822.029	63.05
822.337	62.91
822.645	63.05
822.953	63.23
823.26	63.29
823.568	63.11
823.876	63.21
824.184	63.21
824.491	63.03
824.799	62.94
825.107	62.9
825.414	62.86
825.722	62.99
826.029	62.85
826.337	62.98
826.644	63.18
826.951	63.23
827.259	63.26
827.566	63.35
827.873	63.71
828.18	63.8
828.488	63.99
828.795	64.09
829.102	63.8
829.409	63.73
829.716	63.62
830.023	63.81
830.329	63.92
830.636	63.99
830.943	64.56
831.25	64.43
831.557	64.54
831.863	64.25
832.17	64.03
832.476	63.49
832.783	63.82
833.089	63.45
833.396	63.16
833.702	63.1
834.009	63.11
834.315	62.7
834.621	62.26
834.928	61.69
835.234	61.44
835.54	61.52
835.846	61.28
836.152	61.51
836.458	61.39
836.764	61.21
837.07	61.1
837.376	60.76
837.682	61.13
837.988	61.27
838.293	61.32
838.599	61.31
838.905	62.15
839.211	61.58
839.516	60.75
839.822	60.96
840.127	61.09
840.433	60.06
840.738	59.26
841.044	59.25
841.349	59.43
841.654	59.56
841.959	60.34
842.265	60.19
842.57	60.43
842.875	60.97
843.18	60.56
843.485	59.61
843.79	58.39
844.095	58.67
844.4	57.73
844.705	56.2
845.01	56.34
845.315	56.96
845.619	56.66
845.924	58.82
846.229	60.22
846.533	60.54
846.838	62.94
847.142	63.5
847.447	64.38
847.751	63.58
848.056	63.96
848.36	63.52
848.664	65.2
848.969	64.68
849.273	65.94
849.577	67.08
849.881	68.15
850.185	70.5
850.489	68.24
850.794	67.82
851.097	71.99
851.401	71.1
851.705	69.7
852.009	70.79
852.313	67.06
852.617	64.29
852.92	63.94
853.224	61.94
853.528	63.88
853.831	61.21
854.135	62.7
854.438	60.49
854.742	58.22
855.045	56.62
855.349	55.79
855.652	55.64
855.955	56.12
856.259	56.16
856.562	54.96
856.865	55.2
857.168	54.26
857.471	53.48
857.774	54.69
858.077	54.38
858.38	52.18
858.683	56.4
858.986	57.81
859.289	58.39
859.592	58.32
859.894	57.9
860.197	58.66
860.5	60.36
860.802	61.85
861.105	63.29
861.407	64.05
861.71	64.16
862.012	63.5
862.315	63.83
862.617	63.25
862.919	63.48
863.222	64.12
863.524	65.13
863.826	64.07
864.128	66.8
864.43	68.91
864.732	70.73
865.034	69.36
865.336	67.44
865.638	65.56
865.94	64.5
866.242	63.02
866.544	63.32
866.846	63.47
867.147	63.89
867.449	64.56
867.751	63.7
868.052	62.44
868.354	60.87
868.655	58.15
868.957	60.25
869.258	60.29
869.56	62.07
869.861	61.22
870.162	62.76
870.463	59.58
870.765	57.6
871.066	57.78
871.367	58.12
871.668	59.28
871.969	59.62
872.27	61.73
872.571	62.09
872.872	61.29
873.173	59.1
873.473	59.86
873.774	57.32
874.075	58.65
874.376	61.65
874.676	61.8
874.977	63.4
875.277	59.8
875.578	58.3
875.878	56.61
876.179	58.2
876.479	57.09
876.78	57.37
877.08	57.9
877.38	57.45
877.68	54.9
877.981	54.84
878.281	54.93
878.581	52.33
