Data from BU26932_Reflection_00010.txt Node
Date: Tue Nov 19 10:44:36 EST 2019
User: vgr7
Spectrometer: USB2G7710
Scans to average: 3
Trigger mode: 4
Integration Time (sec): 2.000000E-2
Electric dark correction enabled: true
Boxcar width: 10
XAxis mode: Wavelengths
Number of Pixels in Spectrum: 2048
>>>>>Begin Spectral Data<<<<<
177.721	-84.45
178.105	-57.75
178.488	-113.72
178.871	-174.19
179.254	4200
179.636	-81.82
180.019	-99.39
180.402	357.14
180.785	-818.18
181.168	-151.66
181.55	-270.97
181.933	-973.77
182.316	-298.62
182.698	-84.43
183.081	-195.92
183.463	-205.89
183.846	-162.2
184.228	-135.62
184.611	-128.25
184.993	-76.08
185.376	-87.72
185.758	-86.28
186.14	-75.8
186.522	-78.19
186.904	-66.79
187.287	-78.07
187.669	-71.4
188.051	-78.56
188.433	-64.79
188.815	-57.07
189.197	-50.19
189.579	-44.01
189.961	-45.48
190.342	-50.95
190.724	-66.06
191.106	-54.11
191.488	-55.63
191.869	-43.8
192.251	-45.14
192.633	-48.95
193.014	-46.52
193.396	-37.89
193.777	-32.48
194.159	-32.38
194.54	-38.55
194.922	-36.67
195.303	-33.41
195.684	-30.22
196.065	-26.67
196.447	-37.43
196.828	-62.36
197.209	-70.42
197.59	-72.75
197.971	-52.86
198.352	-46.58
198.733	-47.3
199.114	-61.94
199.495	-54.28
199.876	-69.31
200.257	-72.85
200.638	-72.44
201.018	-85.4
201.399	-99.94
201.78	-102.5
202.16	-131.06
202.541	-116.92
202.922	-123
203.302	-93.31
203.683	-122.01
204.063	-124.5
204.444	-92.11
204.824	-71.24
205.204	-64.88
205.585	-57.28
205.965	-59.54
206.345	-60.32
206.725	-49.73
207.106	-31.11
207.486	-31.58
207.866	-17.99
208.246	-24.49
208.626	-15.11
209.006	-16.83
209.386	-10.23
209.766	-9.78
210.145	-2.74
210.525	-7.24
210.905	-0.47
211.285	9.57
211.664	25.93
212.044	20.86
212.424	19.01
212.803	12.78
213.183	9.32
213.562	9.32
213.942	-0.69
214.321	-5.09
214.701	-12.44
215.08	-17.75
215.459	-10.77
215.838	-22.07
216.218	-9.09
216.597	-10.18
216.976	-13.15
217.355	-15
217.734	-14.96
218.113	-15.04
218.492	-6.93
218.871	-4.66
219.25	-7.92
219.629	-17.17
220.008	-7.44
220.387	-12.41
220.766	-5.58
221.144	-2.77
221.523	-12.36
221.902	-4.07
222.28	-4.92
222.659	1.96
223.037	5.09
223.416	9.64
223.794	10.01
224.173	3.66
224.551	2.06
224.929	8.56
225.308	11.9
225.686	16.24
226.064	14.39
226.442	13.53
226.821	9.01
227.199	4.61
227.577	4.19
227.955	3.82
228.333	4.43
228.711	6.7
229.089	6.21
229.467	6.52
229.845	4.26
230.222	9.31
230.6	7.6
230.978	4.36
231.356	3.1
231.733	4.91
232.111	6.7
232.488	4.8
232.866	4.62
233.243	4.21
233.621	4.2
233.998	4.65
234.376	3.15
234.753	3.53
235.13	5.38
235.508	5.19
235.885	5.66
236.262	4.83
236.639	3.13
237.016	2.95
237.393	3.74
237.77	4.09
238.147	3.39
238.524	2.99
238.901	2.51
239.278	2.97
239.655	2.5
240.032	2.19
240.409	3.07
240.785	3.51
241.162	3.52
241.539	3.24
241.915	3.47
242.292	3.7
242.668	3.92
243.045	3.86
243.421	4.61
243.798	4.64
244.174	4.73
244.551	4.71
244.927	4.73
245.303	4.55
245.679	4.35
246.056	4.31
246.432	4.73
246.808	4.81
247.184	4.83
247.56	4.81
247.936	4.81
248.312	4.8
248.688	4.58
249.064	4.39
249.44	4.3
249.815	4.13
250.191	3.94
250.567	3.81
250.943	3.72
251.318	3.2
251.694	2.91
252.069	3.04
252.445	3.28
252.82	3.34
253.196	3.4
253.571	3.78
253.947	3.98
254.322	3.55
254.697	3.79
255.073	3.05
255.448	3.08
255.823	3.27
256.198	3.02
256.573	3.16
256.948	3.29
257.323	3.34
257.698	3.35
258.073	3.39
258.448	3.54
258.823	3.41
259.198	3.54
259.573	3.35
259.948	3.22
260.322	3.08
260.697	3.09
261.072	3.24
261.446	3.1
261.821	2.98
262.195	2.99
262.57	2.89
262.944	3.16
263.319	3.16
263.693	3.07
264.067	3.15
264.442	3.17
264.816	3.03
265.19	3.07
265.564	3
265.938	2.91
266.313	2.68
266.687	2.87
267.061	2.74
267.435	3.18
267.809	3.09
268.183	3.08
268.556	2.97
268.93	2.9
269.304	2.91
269.678	2.95
270.051	2.94
270.425	3.02
270.799	3.03
271.172	3.08
271.546	3.15
271.919	3.09
272.293	3.04
272.666	3.1
273.04	3.05
273.413	3.07
273.787	3.14
274.16	3.22
274.533	3.2
274.906	3.29
275.279	3.07
275.653	3.14
276.026	3.17
276.399	3.15
276.772	3.15
277.145	3.24
277.518	3.2
277.891	3.11
278.263	3.27
278.636	3.28
279.009	3.25
279.382	3.08
279.755	3.19
280.127	3.09
280.5	3.09
280.872	3.37
281.245	3.48
281.617	3.48
281.99	3.41
282.362	3.41
282.735	3.41
283.107	3.53
283.479	3.57
283.852	3.51
284.224	3.64
284.596	3.6
284.968	3.54
285.34	3.37
285.713	3.36
286.085	3.23
286.457	3.3
286.829	3.27
287.201	3.38
287.572	3.25
287.944	3.29
288.316	3.34
288.688	3.27
289.06	3.24
289.431	3.44
289.803	3.57
290.175	3.47
290.546	3.38
290.918	3.3
291.289	3.22
291.661	3.33
292.032	3.32
292.403	3.18
292.775	3.35
293.146	3.61
293.517	3.71
293.889	3.65
294.26	3.67
294.631	3.68
295.002	3.78
295.373	3.82
295.744	3.8
296.115	3.82
296.486	3.85
296.857	3.83
297.228	3.69
297.599	3.65
297.97	3.88
298.34	4.08
298.711	4.21
299.082	4.34
299.452	4.32
299.823	4.28
300.194	4.41
300.564	4.3
300.935	4.36
301.305	4.44
301.676	4.49
302.046	4.55
302.416	4.66
302.787	4.63
303.157	4.77
303.527	5
303.897	5.22
304.267	5.07
304.637	5.11
305.008	5.12
305.378	5.28
305.748	5.22
306.117	5.09
306.487	5.03
306.857	5.08
307.227	5.32
307.597	5.49
307.967	5.5
308.336	5.54
308.706	5.58
309.076	5.62
309.445	5.78
309.815	5.78
310.184	5.77
310.554	5.68
310.923	5.68
311.293	5.57
311.662	5.47
312.031	5.53
312.401	5.63
312.77	5.74
313.139	5.55
313.508	5.51
313.877	5.61
314.246	5.74
314.616	5.83
314.985	5.62
315.353	5.65
315.722	5.74
316.091	5.84
316.46	5.89
316.829	5.97
317.198	5.88
317.567	5.96
317.935	6
318.304	6.29
318.672	6.4
319.041	6.54
319.41	6.54
319.778	6.71
320.147	6.68
320.515	6.64
320.883	6.93
321.252	7.21
321.62	7.33
321.988	7.35
322.357	7.31
322.725	7.49
323.093	7.34
323.461	7.42
323.829	7.35
324.197	7.39
324.565	7.43
324.933	7.48
325.301	7.38
325.669	7.44
326.037	7.48
326.405	7.54
326.772	7.6
327.14	7.59
327.508	7.62
327.875	7.7
328.243	7.95
328.61	8.05
328.978	7.88
329.346	7.88
329.713	7.89
330.08	7.99
330.448	7.92
330.815	8.04
331.182	8.16
331.55	8.16
331.917	8.13
332.284	8.21
332.651	8.25
333.018	8.29
333.385	8.26
333.752	8.18
334.119	8.34
334.486	8.46
334.853	8.48
335.22	8.4
335.587	8.37
335.954	8.2
336.32	8.23
336.687	8.32
337.054	8.4
337.42	8.33
337.787	8.4
338.153	8.52
338.52	8.68
338.886	8.66
339.253	8.79
339.619	8.88
339.986	8.9
340.352	9.02
340.718	9.12
341.084	9.26
341.451	9.43
341.817	9.25
342.183	9.11
342.549	9.29
342.915	9.38
343.281	9.51
343.647	9.48
344.013	9.47
344.379	9.49
344.745	9.57
345.11	9.62
345.476	9.68
345.842	9.65
346.208	9.69
346.573	9.63
346.939	9.63
347.304	9.57
347.67	9.56
348.035	9.51
348.401	9.53
348.766	9.37
349.132	9.33
349.497	9.4
349.862	9.43
350.228	9.43
350.593	9.5
350.958	9.53
351.323	9.61
351.688	9.54
352.053	9.47
352.418	9.37
352.783	9.48
353.148	9.38
353.513	9.42
353.878	9.39
354.243	9.34
354.608	9.35
354.972	9.51
355.337	9.52
355.702	9.57
356.066	9.57
356.431	9.64
356.795	9.65
357.16	9.67
357.524	9.71
357.889	9.6
358.253	9.57
358.618	9.53
358.982	9.56
359.346	9.52
359.71	9.6
360.075	9.58
360.439	9.52
360.803	9.53
361.167	9.48
361.531	9.44
361.895	9.45
362.259	9.49
362.623	9.38
362.987	9.34
363.351	9.27
363.714	9.24
364.078	9.18
364.442	9.1
364.806	9.02
365.169	8.98
365.533	9.03
365.896	9.03
366.26	8.96
366.623	8.91
366.987	8.93
367.35	8.89
367.714	8.86
368.077	8.85
368.44	8.84
368.803	8.76
369.167	8.64
369.53	8.63
369.893	8.55
370.256	8.45
370.619	8.41
370.982	8.33
371.345	8.23
371.708	8.15
372.071	8.08
372.434	8.05
372.797	8
373.159	7.92
373.522	7.82
373.885	7.81
374.247	7.73
374.61	7.69
374.973	7.6
375.335	7.57
375.698	7.48
376.06	7.38
376.423	7.39
376.785	7.36
377.147	7.32
377.51	7.25
377.872	7.2
378.234	7.18
378.596	7.19
378.958	7.17
379.321	7.19
379.683	7.14
380.045	7.06
380.407	7.02
380.769	6.94
381.13	6.92
381.492	6.86
381.854	6.82
382.216	6.74
382.578	6.72
382.939	6.61
383.301	6.59
383.663	6.59
384.024	6.53
384.386	6.56
384.747	6.47
385.109	6.47
385.47	6.52
385.832	6.45
386.193	6.38
386.554	6.29
386.916	6.22
387.277	6.2
387.638	6.19
387.999	6.16
388.36	6.19
388.721	6.15
389.082	6.12
389.443	6.06
389.804	6
390.165	5.97
390.526	5.96
390.887	5.91
391.248	5.81
391.609	5.77
391.969	5.7
392.33	5.7
392.691	5.68
393.051	5.59
393.412	5.55
393.772	5.48
394.133	5.5
394.493	5.44
394.854	5.45
395.214	5.4
395.574	5.35
395.935	5.26
396.295	5.21
396.655	5.16
397.015	5.15
397.376	5.13
397.736	5.05
398.096	5.02
398.456	4.96
398.816	4.94
399.176	4.87
399.535	4.83
399.895	4.79
400.255	4.73
400.615	4.7
400.975	4.67
401.334	4.69
401.694	4.7
402.054	4.71
402.413	4.64
402.773	4.62
403.132	4.61
403.492	4.6
403.851	4.58
404.211	4.56
404.57	4.56
404.929	4.57
405.288	4.56
405.648	4.53
406.007	4.55
406.366	4.53
406.725	4.55
407.084	4.54
407.443	4.55
407.802	4.52
408.161	4.51
408.52	4.53
408.879	4.53
409.238	4.49
409.596	4.48
409.955	4.47
410.314	4.43
410.673	4.42
411.031	4.4
411.39	4.36
411.748	4.37
412.107	4.31
412.465	4.3
412.824	4.28
413.182	4.27
413.54	4.25
413.899	4.25
414.257	4.24
414.615	4.2
414.974	4.18
415.332	4.17
415.69	4.14
416.048	4.11
416.406	4.06
416.764	4.04
417.122	4
417.48	3.98
417.838	3.98
418.195	3.97
418.553	3.95
418.911	3.94
419.269	3.92
419.626	3.91
419.984	3.89
420.342	3.89
420.699	3.87
421.057	3.85
421.414	3.85
421.772	3.82
422.129	3.83
422.486	3.82
422.844	3.8
423.201	3.79
423.558	3.78
423.915	3.78
424.273	3.78
424.63	3.79
424.987	3.79
425.344	3.78
425.701	3.77
426.058	3.77
426.415	3.77
426.772	3.76
427.128	3.76
427.485	3.74
427.842	3.74
428.199	3.74
428.555	3.73
428.912	3.71
429.269	3.69
429.625	3.66
429.982	3.64
430.338	3.66
430.695	3.65
431.051	3.65
431.407	3.64
431.764	3.61
432.12	3.63
432.476	3.61
432.832	3.62
433.189	3.6
433.545	3.59
433.901	3.56
434.257	3.54
434.613	3.56
434.969	3.57
435.325	3.55
435.681	3.56
436.036	3.57
436.392	3.6
436.748	3.62
437.104	3.65
437.459	3.65
437.815	3.65
438.171	3.66
438.526	3.65
438.882	3.65
439.237	3.64
439.593	3.64
439.948	3.65
440.304	3.65
440.659	3.66
441.014	3.67
441.369	3.69
441.725	3.7
442.08	3.68
442.435	3.67
442.79	3.67
443.145	3.65
443.5	3.63
443.855	3.61
444.21	3.6
444.565	3.6
444.92	3.6
445.275	3.6
445.629	3.59
445.984	3.59
446.339	3.59
446.693	3.6
447.048	3.58
447.403	3.55
447.757	3.53
448.112	3.52
448.466	3.52
448.82	3.51
449.175	3.51
449.529	3.52
449.883	3.52
450.238	3.52
450.592	3.51
450.946	3.51
451.3	3.51
451.654	3.49
452.008	3.47
452.362	3.47
452.716	3.45
453.07	3.44
453.424	3.42
453.778	3.42
454.132	3.41
454.486	3.43
454.839	3.44
455.193	3.45
455.547	3.45
455.9	3.45
456.254	3.45
456.607	3.44
456.961	3.43
457.314	3.44
457.668	3.45
458.021	3.45
458.375	3.46
458.728	3.45
459.081	3.46
459.434	3.48
459.787	3.48
460.141	3.49
460.494	3.5
460.847	3.51
461.2	3.5
461.553	3.52
461.906	3.52
462.259	3.53
462.611	3.55
462.964	3.57
463.317	3.59
463.67	3.59
464.022	3.6
464.375	3.62
464.728	3.63
465.08	3.62
465.433	3.66
465.785	3.67
466.138	3.7
466.49	3.73
466.843	3.72
467.195	3.74
467.547	3.75
467.899	3.77
468.252	3.78
468.604	3.82
468.956	3.82
469.308	3.82
469.66	3.84
470.012	3.86
470.364	3.86
470.716	3.89
471.068	3.9
471.42	3.94
471.772	3.94
472.123	3.97
472.475	3.99
472.827	3.99
473.178	4.01
473.53	4.01
473.882	4.01
474.233	4.03
474.585	4.04
474.936	4.06
475.288	4.04
475.639	4.05
475.99	4.02
476.342	4.02
476.693	4.01
477.044	4
477.395	3.99
477.746	3.96
478.097	3.92
478.448	3.91
478.8	3.9
479.15	3.86
479.501	3.83
479.852	3.82
480.203	3.81
480.554	3.81
480.905	3.8
481.255	3.78
481.606	3.79
481.957	3.79
482.307	3.77
482.658	3.77
483.009	3.77
483.359	3.77
483.709	3.76
484.06	3.77
484.41	3.77
484.761	3.78
485.111	3.77
485.461	3.77
485.811	3.78
486.162	3.77
486.512	3.79
486.862	3.79
487.212	3.79
487.562	3.8
487.912	3.79
488.262	3.8
488.612	3.81
488.961	3.82
489.311	3.81
489.661	3.82
490.011	3.82
490.36	3.81
490.71	3.84
491.06	3.84
491.409	3.85
491.759	3.86
492.108	3.87
492.458	3.89
492.807	3.9
493.157	3.92
493.506	3.94
493.855	3.94
494.204	3.97
494.554	3.99
494.903	4.01
495.252	4.05
495.601	4.07
495.95	4.08
496.299	4.11
496.648	4.15
496.997	4.18
497.346	4.26
497.695	4.33
498.043	4.38
498.392	4.44
498.741	4.48
499.09	4.54
499.438	4.58
499.787	4.66
500.135	4.75
500.484	4.81
500.832	4.9
501.181	4.99
501.529	5.07
501.878	5.18
502.226	5.26
502.574	5.37
502.923	5.49
503.271	5.61
503.619	5.72
503.967	5.84
504.315	5.98
504.663	6.12
505.011	6.26
505.359	6.37
505.707	6.51
506.055	6.65
506.403	6.8
506.751	6.97
507.098	7.11
507.446	7.27
507.794	7.44
508.141	7.61
508.489	7.78
508.837	7.98
509.184	8.15
509.531	8.35
509.879	8.54
510.226	8.74
510.574	8.95
510.921	9.12
511.268	9.35
511.616	9.54
511.963	9.74
512.31	9.97
512.657	10.21
513.004	10.45
513.351	10.7
513.698	10.98
514.045	11.27
514.392	11.54
514.739	11.84
515.086	12.12
515.432	12.42
515.779	12.71
516.126	13.01
516.473	13.29
516.819	13.58
517.166	13.85
517.512	14.08
517.859	14.3
518.205	14.57
518.552	14.79
518.898	15.06
519.245	15.29
519.591	15.52
519.937	15.79
520.283	16.08
520.629	16.36
520.976	16.61
521.322	16.89
521.668	17.2
522.014	17.49
522.36	17.83
522.706	18.15
523.052	18.5
523.398	18.87
523.743	19.28
524.089	19.64
524.435	19.99
524.781	20.34
525.126	20.67
525.472	21
525.817	21.29
526.163	21.55
526.509	21.82
526.854	22.05
527.199	22.26
527.545	22.47
527.89	22.67
528.235	22.89
528.581	23.11
528.926	23.31
529.271	23.52
529.616	23.7
529.961	23.93
530.306	24.14
530.651	24.35
530.996	24.57
531.341	24.8
531.686	25.06
532.031	25.3
532.376	25.56
532.721	25.79
533.065	26.06
533.41	26.3
533.755	26.55
534.099	26.81
534.444	27.08
534.788	27.33
535.133	27.58
535.477	27.85
535.822	28.07
536.166	28.36
536.51	28.68
536.855	28.98
537.199	29.27
537.543	29.61
537.887	29.95
538.231	30.26
538.576	30.57
538.92	30.85
539.264	31.11
539.608	31.37
539.951	31.61
540.295	31.83
540.639	32.07
540.983	32.27
541.327	32.5
541.671	32.71
542.014	32.93
542.358	33.18
542.701	33.39
543.045	33.63
543.389	33.83
543.732	34.02
544.075	34.23
544.419	34.42
544.762	34.61
545.105	34.79
545.449	34.99
545.792	35.22
546.135	35.47
546.478	35.76
546.821	36.03
547.165	36.25
547.508	36.47
547.851	36.72
548.194	36.97
548.536	37.17
548.879	37.42
549.222	37.65
549.565	37.84
549.908	38.03
550.25	38.18
550.593	38.41
550.936	38.6
551.278	38.79
551.621	39.04
551.963	39.27
552.306	39.45
552.648	39.65
552.991	39.8
553.333	39.92
553.675	40.04
554.017	40.18
554.36	40.45
554.702	40.63
555.044	40.82
555.386	40.98
555.728	41.13
556.07	41.22
556.412	41.38
556.754	41.54
557.096	41.69
557.438	41.91
557.78	42.07
558.121	42.22
558.463	42.38
558.805	42.54
559.147	42.64
559.488	42.8
559.83	42.92
560.171	43.11
560.513	43.33
560.854	43.47
561.196	43.65
561.537	43.75
561.878	43.92
562.22	44
562.561	44.12
562.902	44.28
563.243	44.44
563.584	44.54
563.925	44.63
564.266	44.76
564.607	44.84
564.948	44.99
565.289	45.08
565.63	45.22
565.971	45.34
566.312	45.46
566.653	45.56
566.993	45.66
567.334	45.74
567.675	45.81
568.015	45.95
568.356	46.01
568.696	46.07
569.037	46.18
569.377	46.25
569.718	46.35
570.058	46.49
570.398	46.55
570.739	46.69
571.079	46.8
571.419	46.9
571.759	47
572.099	47.03
572.439	47.15
572.779	47.26
573.119	47.31
573.459	47.43
573.799	47.5
574.139	47.61
574.479	47.72
574.819	47.81
575.158	47.87
575.498	48
575.838	48.09
576.177	48.19
576.517	48.32
576.856	48.43
577.196	48.42
577.535	48.53
577.875	48.52
578.214	48.63
578.553	48.65
578.893	48.71
579.232	48.84
579.571	48.92
579.91	48.94
580.25	49.02
580.589	49.04
580.928	49.16
581.267	49.28
581.606	49.35
581.945	49.45
582.283	49.6
582.622	49.59
582.961	49.68
583.3	49.7
583.639	49.77
583.977	49.76
584.316	49.84
584.654	49.94
584.993	50.06
585.332	50.14
585.67	50.29
586.008	50.39
586.347	50.45
586.685	50.52
587.024	50.62
587.362	50.62
587.7	50.74
588.038	50.83
588.376	50.93
588.715	50.93
589.053	50.93
589.391	50.92
589.729	50.98
590.067	51.07
590.404	51.15
590.742	51.24
591.08	51.39
591.418	51.46
591.756	51.51
592.093	51.59
592.431	51.69
592.769	51.65
593.106	51.75
593.444	51.78
593.781	51.82
594.119	51.87
594.456	52.02
594.793	52.01
595.131	51.99
595.468	51.93
595.805	51.98
596.143	52.03
596.48	52.1
596.817	52.2
597.154	52.2
597.491	52.24
597.828	52.26
598.165	52.36
598.502	52.46
598.839	52.52
599.176	52.54
599.512	52.58
599.849	52.7
600.186	52.7
600.523	52.76
600.859	52.78
601.196	52.87
601.532	52.93
601.869	53.01
602.205	53.05
602.542	53.16
602.878	53.21
603.215	53.32
603.551	53.29
603.887	53.3
604.223	53.33
604.56	53.31
604.896	53.38
605.232	53.39
605.568	53.37
605.904	53.31
606.24	53.33
606.576	53.34
606.912	53.37
607.248	53.44
607.583	53.47
607.919	53.52
608.255	53.47
608.591	53.44
608.926	53.37
609.262	53.38
609.597	53.34
609.933	53.33
610.268	53.36
610.604	53.46
610.939	53.51
611.275	53.58
611.61	53.65
611.945	53.6
612.281	53.55
612.616	53.67
612.951	53.81
613.286	53.85
613.621	53.92
613.956	53.91
614.291	53.86
614.626	53.89
614.961	53.97
615.296	54.01
615.631	54.04
615.966	54.19
616.3	54.3
616.635	54.33
616.97	54.37
617.304	54.32
617.639	54.27
617.973	54.33
618.308	54.29
618.642	54.28
618.977	54.31
619.311	54.39
619.646	54.25
619.98	54.21
620.314	54.26
620.648	54.21
620.983	54.29
621.317	54.38
621.651	54.41
621.985	54.35
622.319	54.34
622.653	54.37
622.987	54.41
623.321	54.41
623.655	54.37
623.988	54.38
624.322	54.46
624.656	54.59
624.99	54.59
625.323	54.59
625.657	54.7
625.99	54.8
626.324	54.81
626.657	54.95
626.991	54.99
627.324	55.04
627.658	55.04
627.991	55.07
628.324	55.07
628.657	55.02
628.991	55.11
629.324	55.21
629.657	55.16
629.99	55.22
630.323	55.23
630.656	55.32
630.989	55.34
631.322	55.32
631.655	55.32
631.987	55.38
632.32	55.47
632.653	55.49
632.986	55.5
633.318	55.51
633.651	55.48
633.984	55.5
634.316	55.49
634.649	55.54
634.981	55.5
635.313	55.53
635.646	55.61
635.978	55.55
636.31	55.57
636.643	55.66
636.975	55.56
637.307	55.58
637.639	55.57
637.971	55.65
638.303	55.78
638.635	55.67
638.967	55.61
639.299	55.59
639.631	55.54
639.963	55.48
640.295	55.53
640.626	55.63
640.958	55.72
641.29	55.75
641.621	55.74
641.953	55.77
642.285	55.79
642.616	55.81
642.948	55.85
643.279	55.83
643.61	55.77
643.942	55.84
644.273	55.8
644.604	55.9
644.936	55.9
645.267	55.83
645.598	55.96
645.929	55.91
646.26	55.99
646.591	56.06
646.922	56.09
647.253	56
647.584	55.97
647.915	56.04
648.245	55.98
648.576	56.02
648.907	56.03
649.238	55.99
649.568	56.05
649.899	56.04
650.229	56.05
650.56	56.11
650.89	56.15
651.221	56.3
651.551	56.34
651.882	56.35
652.212	56.28
652.542	56.19
652.872	56.26
653.203	56.2
653.533	56.14
653.863	56.16
654.193	56.18
654.523	56.1
654.853	56
655.183	56.12
655.513	56.15
655.843	56.22
656.172	56.28
656.502	56.29
656.832	56.42
657.162	56.43
657.491	56.5
657.821	56.46
658.15	56.48
658.48	56.45
658.809	56.45
659.139	56.52
659.468	56.57
659.798	56.55
660.127	56.65
660.456	56.66
660.785	56.71
661.115	56.83
661.444	56.95
661.773	57.09
662.102	57.04
662.431	57.05
662.76	57.04
663.089	57.08
663.418	57
663.747	56.95
664.076	57.02
664.404	57.05
664.733	56.99
665.062	56.95
665.39	56.93
665.719	56.88
666.048	56.89
666.376	56.95
666.705	56.92
667.033	56.82
667.362	56.91
667.69	56.97
668.018	57.01
668.347	57.03
668.675	56.96
669.003	57.1
669.331	57.02
669.659	57.05
669.987	57.01
670.315	57.14
670.643	57.12
670.971	57.11
671.299	57.15
671.627	57.27
671.955	57.26
672.283	57.29
672.61	57.45
672.938	57.58
673.266	57.67
673.593	57.86
673.921	57.88
674.249	57.76
674.576	57.58
674.904	57.48
675.231	57.48
675.558	57.44
675.886	57.48
676.213	57.56
676.54	57.66
676.867	57.69
677.195	57.81
677.522	58.01
677.849	57.93
678.176	57.95
678.503	58.06
678.83	58.12
679.157	58.18
679.484	58.07
679.81	58.01
680.137	57.98
680.464	57.91
680.791	57.99
681.117	58.05
681.444	58.16
681.771	58.24
682.097	58.33
682.424	58.41
682.75	58.27
683.077	58.36
683.403	58.32
683.729	58.41
684.056	58.32
684.382	58.18
684.708	58.32
685.034	58.28
685.36	58.24
685.686	58.19
686.012	58.01
686.339	58.09
686.664	58.09
686.99	57.99
687.316	58.1
687.642	57.97
687.968	58.09
688.294	58.05
688.619	58.08
688.945	57.87
689.271	57.8
689.596	57.87
689.922	57.85
690.247	57.75
690.573	57.71
690.898	57.63
691.224	57.7
691.549	57.72
691.874	57.68
692.2	57.68
692.525	57.66
692.85	57.87
693.175	57.92
693.5	57.91
693.825	58.14
694.15	58.14
694.475	58.33
694.8	58.21
695.125	58.34
695.45	58.29
695.775	58.52
696.099	58.66
696.424	58.57
696.749	58.42
697.073	58.23
697.398	58.42
697.723	58.48
698.047	58.48
698.372	58.45
698.696	58.37
699.02	58.32
699.345	58.42
699.669	58.47
699.993	58.47
700.318	58.41
700.642	58.25
700.966	58.19
701.29	58.1
701.614	58.12
701.938	58.02
702.262	57.97
702.586	57.83
702.91	57.74
703.234	57.72
703.557	57.94
703.881	58.27
704.205	58.19
704.529	58.16
704.852	58.08
705.176	58.12
705.499	58.28
705.823	58.35
706.146	58.16
706.47	58
706.793	58.14
707.117	58.25
707.44	58.2
707.763	58
708.086	57.99
708.409	58.01
708.733	58.04
709.056	58.18
709.379	58.2
709.702	58.3
710.025	58.5
710.348	58.3
710.671	58.2
710.993	58.13
711.316	58.11
711.639	58.11
711.962	58.08
712.284	58.01
712.607	58.08
712.93	58.43
713.252	58.56
713.575	58.4
713.897	58.46
714.22	58.71
714.542	58.99
714.864	59.11
715.187	59.25
715.509	59.29
715.831	59.14
716.153	59.1
716.475	58.91
716.798	58.75
717.12	58.97
717.442	59.13
717.764	58.94
718.085	59.03
718.407	58.96
718.729	58.89
719.051	58.91
719.373	58.86
719.695	58.73
720.016	58.68
720.338	58.68
720.659	58.67
720.981	58.52
721.302	58.58
721.624	58.58
721.945	58.49
722.267	58.51
722.588	58.65
722.909	58.86
723.231	58.93
723.552	59.14
723.873	58.78
724.194	58.8
724.515	58.96
724.836	58.91
725.157	59.11
725.478	59.12
725.799	59.01
726.12	59.08
726.441	58.97
726.762	58.91
727.083	58.83
727.403	58.81
727.724	58.74
728.045	58.82
728.365	58.68
728.686	58.56
729.006	58.55
729.327	58.55
729.647	58.51
729.967	58.61
730.288	58.65
730.608	58.84
730.928	58.82
731.249	59
731.569	59.1
731.889	59.13
732.209	59.22
732.529	59.44
732.849	59.49
733.169	59.54
733.489	59.58
733.809	59.65
734.129	59.83
734.448	59.97
734.768	59.79
735.088	60.01
735.408	60.13
735.727	60.21
736.047	60.24
736.366	60.28
736.686	60.18
737.005	60.11
737.325	59.97
737.644	59.5
737.963	59.38
738.283	59.3
738.602	59.18
738.921	59.28
739.24	59.38
739.56	59.34
739.879	59.36
740.198	59.42
740.517	59.69
740.836	59.28
741.155	59.12
741.473	59.14
741.792	58.93
742.111	58.96
742.43	58.88
742.748	59.01
743.067	59.07
743.386	58.95
743.704	58.9
744.023	58.97
744.341	59.41
744.66	59.52
744.978	59.38
745.297	59.31
745.615	59.47
745.933	59.06
746.252	58.91
746.57	58.81
746.888	58.86
747.206	58.97
747.524	59.05
747.842	59.1
748.16	59.24
748.478	59.4
748.796	59.3
749.114	59.43
749.432	59.05
749.749	58.69
750.067	58.72
750.385	58.83
750.703	58.99
751.02	58.96
751.338	58.78
751.655	59.02
751.973	58.97
752.29	58.61
752.608	58.79
752.925	59
753.242	59.15
753.56	59.03
753.877	58.49
754.194	58.6
754.511	58.57
754.828	58.13
755.145	58.19
755.462	58.44
755.779	58.66
756.096	58.63
756.413	58.95
756.73	59.37
757.047	59.03
757.364	59.09
757.68	59.2
757.997	59.41
758.314	59.43
758.63	59.53
758.947	59.79
759.264	60.14
759.58	60.24
759.896	60.07
760.213	60.31
760.529	60.43
760.846	60.49
761.162	60.66
761.478	60.85
761.794	60.67
762.11	60.16
762.426	59.85
762.743	60.06
763.059	60.11
763.375	59.91
763.69	60.25
764.006	60.24
764.322	60.06
764.638	59.98
764.954	60.24
765.27	60.36
765.585	60.51
765.901	60.43
766.216	60.12
766.532	60.17
766.848	60.15
767.163	60.18
767.478	60.32
767.794	60.45
768.109	60.43
768.424	60.61
768.74	61.12
769.055	61.09
769.37	60.91
769.685	60.71
770	60.75
770.315	60.97
770.63	60.87
770.945	61.19
771.26	61.02
771.575	60.41
771.89	60.46
772.205	59.83
772.52	59.76
772.834	59.79
773.149	59.53
773.464	59.31
773.778	59.41
774.093	58.87
774.407	58.96
774.722	59.03
775.036	59.09
775.351	58.86
775.665	58.97
775.979	59.2
776.293	59.56
776.608	59.56
776.922	59.04
777.236	59.15
777.55	58.7
777.864	59.02
778.178	58.89
778.492	58.52
778.806	59.01
779.12	58.96
779.434	59.08
779.747	59.21
780.061	58.99
780.375	58.97
780.689	59.2
781.002	58.36
781.316	58.35
781.629	58.26
781.943	58.34
782.256	58.44
782.57	58.25
782.883	57.95
783.196	57.93
783.51	57.59
783.823	57.87
784.136	58.3
784.449	58.07
784.762	58.21
785.075	58.61
785.388	58.23
785.701	58.1
786.014	58
786.327	58.14
786.64	58.54
786.953	58.56
787.266	58.91
787.578	59.26
787.891	59.46
788.204	59.27
788.516	59.25
788.829	59.11
789.141	59.04
789.454	59
789.766	58.94
790.079	59.07
790.391	59.03
790.703	58.94
791.016	59.11
791.328	59.71
791.64	59.7
791.952	59.99
792.264	60.3
792.576	60.25
792.888	60.75
793.2	60.57
793.512	60.68
793.824	59.96
794.136	60.31
794.448	60.46
794.76	60.52
795.071	60.94
795.383	61
795.695	61.66
796.006	61.59
796.318	61.84
796.629	61.99
796.941	62.04
797.252	61.76
797.564	62.02
797.875	61.63
798.186	61.66
798.497	62.21
798.809	62.11
799.12	62.05
799.431	62.3
799.742	62.33
800.053	62.45
800.364	62.58
800.675	62.42
800.986	62.04
801.297	62.36
801.608	62.45
801.918	62.54
802.229	62.04
802.54	62.09
802.851	61.82
803.161	62.13
803.472	61.83
803.782	62.12
804.093	61.55
804.403	61.46
804.714	61.2
805.024	60.34
805.334	60.26
805.645	60.77
805.955	60.52
806.265	60.6
806.575	59.66
806.885	59.89
807.195	59.59
807.505	59.37
807.815	59.48
808.125	58.53
808.435	58.37
808.745	58.28
809.055	58.45
809.365	59.04
809.674	58.71
809.984	58.79
810.294	58.92
810.603	59.21
810.913	59.44
811.222	59.79
811.532	60.16
811.841	59.6
812.151	60.12
812.46	60.04
812.769	60.26
813.079	60.96
813.388	60.52
813.697	60.47
814.006	60.9
814.315	61.08
814.624	61.81
814.933	61.5
815.242	61.56
815.551	61.72
815.86	61.52
816.169	61.44
816.478	62.07
816.786	62.04
817.095	62.1
817.404	61.93
817.712	60.98
818.021	60.14
818.33	60.59
818.638	60.25
818.947	60.85
819.255	60.71
819.563	60.84
819.872	60.99
820.18	61.54
820.488	61.48
820.796	61.14
821.105	61.32
821.413	61.8
821.721	61.81
822.029	61.76
822.337	61.81
822.645	61.93
822.953	61.87
823.26	61.89
823.568	61.81
823.876	61.8
824.184	62.09
824.491	62.34
824.799	62.39
825.107	62.39
825.414	62.26
825.722	62.17
826.029	62.13
826.337	62.4
826.644	62.4
826.951	62.65
827.259	62.87
827.566	62.94
827.873	62.55
828.18	62.53
828.488	62.39
828.795	62.25
829.102	62.03
829.409	61.89
829.716	61.87
830.023	62.15
830.329	62.35
830.636	61.92
830.943	61.66
831.25	61.48
831.557	61.49
831.863	61.16
832.17	61.73
832.476	61.76
832.783	61.32
833.089	60.92
833.396	60.41
833.702	60.41
834.009	60.22
834.315	60.6
834.621	60.48
834.928	60.92
835.234	61.26
835.54	61.76
835.846	61.88
836.152	61.87
836.458	61.41
836.764	60.98
837.07	61.31
837.376	61.3
837.682	61.65
837.988	61.32
838.293	61.25
838.599	60.15
838.905	60
839.211	60.13
839.516	60.06
839.822	60.05
840.127	59.77
840.433	59.6
840.738	59.41
841.044	59.42
841.349	58.77
841.654	57.78
841.959	57.15
842.265	56.51
842.57	56.51
842.875	57.05
843.18	56.94
843.485	57.5
843.79	56.71
844.095	56.13
844.4	57.51
844.705	59.01
845.01	60.15
845.315	60.13
845.619	61.91
845.924	62.88
846.229	63.48
846.533	61.85
846.838	59.85
847.142	60.3
847.447	60.41
847.751	59.92
848.056	60.84
848.36	59.39
848.664	59.35
848.969	59.89
849.273	60.65
849.577	60.5
849.881	59.86
850.185	60.35
850.489	62.09
850.794	61.29
851.097	59.76
851.401	59.48
851.705	58.17
852.009	54.85
852.313	52.87
852.617	52.02
852.92	54.81
853.224	56.16
853.528	55.74
853.831	56.65
854.135	59.6
854.438	59.12
854.742	61.14
855.045	60.76
855.349	60.02
855.652	57.82
855.955	57.26
856.259	56.93
856.562	58.6
856.865	56.25
857.168	54.32
857.471	53.81
857.774	52.53
858.077	53.06
858.38	54.56
858.683	55.99
858.986	56.48
859.289	54.86
859.592	55.88
859.894	56.28
860.197	55.57
860.5	54.3
860.802	54.24
861.105	54.02
861.407	54.89
861.71	55.82
862.012	55.73
862.315	57.29
862.617	58.38
862.919	59.94
863.222	60.26
863.524	63.02
863.826	63.46
864.128	66.77
864.43	68.81
864.732	65.88
865.034	65.92
865.336	62.86
865.638	62.14
865.94	62.32
866.242	62.81
866.544	62.43
866.846	61.98
867.147	64.03
867.449	64.49
867.751	65.34
868.052	63.72
868.354	65.93
868.655	63.77
868.957	62.84
869.258	59.74
869.56	59.8
869.861	57.98
870.162	59.9
870.463	60.6
870.765	59.89
871.066	59.81
871.367	58.53
871.668	60.66
871.969	61.73
872.27	60
872.571	59.28
872.872	59.24
873.173	59.58
873.473	57.48
873.774	57.53
874.075	57.34
874.376	57.73
874.676	55.93
874.977	57.18
875.277	55.71
875.578	53.52
875.878	52.96
876.179	53.14
876.479	50.99
876.78	48.64
877.08	48.53
877.38	50.54
877.68	51.03
877.981	51.13
878.281	50.2
878.581	51.37
