Data from BU26845_Reflection_00006.txt Node
Date: Mon Nov 18 16:27:59 EST 2019
User: vgr7
Spectrometer: USB2G7710
Scans to average: 3
Trigger mode: 4
Integration Time (sec): 2.000000E-2
Electric dark correction enabled: true
Boxcar width: 10
XAxis mode: Wavelengths
Number of Pixels in Spectrum: 2048
>>>>>Begin Spectral Data<<<<<
177.721	-131.93
178.105	-147.68
178.488	-116.3
178.871	-175.09
179.254	-4.68
179.636	188.5
180.019	-56.72
180.402	112
180.785	-732.17
181.168	834.38
181.55	532.84
181.933	52.82
182.316	62.85
182.698	-14.26
183.081	34.56
183.463	40.98
183.846	94.17
184.228	47.72
184.611	11.2
184.993	56.3
185.376	-19.64
185.758	52.23
186.14	60.26
186.522	26.38
186.904	17.1
187.287	-22.55
187.669	-23.09
188.051	-23.91
188.433	-30.67
188.815	-28.57
189.197	-31.01
189.579	-31.59
189.961	-31.93
190.342	-42.06
190.724	-44.78
191.106	-50.82
191.488	-48.91
191.869	-47.45
192.251	-46.96
192.633	-45.29
193.014	-59.05
193.396	-62.24
193.777	-77.57
194.159	-83.07
194.54	-86.33
194.922	-96.12
195.303	-93.63
195.684	-80.5
196.065	-74.06
196.447	-76.3
196.828	-84.51
197.209	-77.45
197.59	-74.86
197.971	-72.41
198.352	-47.3
198.733	-55.62
199.114	-42.18
199.495	-31.19
199.876	-32.96
200.257	-38.16
200.638	-14.08
201.018	-0.61
201.399	9.02
201.78	14.34
202.16	16.17
202.541	13.99
202.922	4.83
203.302	1.55
203.683	1.09
204.063	1.28
204.444	-2.89
204.824	-4.3
205.204	-15.07
205.585	-47.46
205.965	-44.7
206.345	-49.66
206.725	-47.32
207.106	-68.53
207.486	-71.13
207.866	-48.6
208.246	-35.61
208.626	-54.68
209.006	-68.04
209.386	-80.31
209.766	-82.04
210.145	-59.91
210.525	-42.17
210.905	-27.61
211.285	-35.62
211.664	-30.61
212.044	-31.24
212.424	-15.61
212.803	-20.9
213.183	-15.66
213.562	-4.29
213.942	-2.74
214.321	-5.44
214.701	6.5
215.08	16.53
215.459	8.62
215.838	-5.21
216.218	-18.82
216.597	-10.24
216.976	-2.07
217.355	3.61
217.734	-0.65
218.113	-0.05
218.492	3.27
218.871	5.78
219.25	9.81
219.629	5.24
220.008	4.79
220.387	-0.42
220.766	7.25
221.144	1.68
221.523	-9.82
221.902	-20.81
222.28	-19.16
222.659	-16.06
223.037	-19.42
223.416	-17.61
223.794	-19.08
224.173	-10.78
224.551	-3.03
224.929	-14.31
225.308	-15.08
225.686	-14.45
226.064	-10.82
226.442	-17.79
226.821	-16.96
227.199	-10.3
227.577	-11.54
227.955	-11.17
228.333	-8.11
228.711	-7.6
229.089	-2.49
229.467	0.14
229.845	-1.37
230.222	-1.98
230.6	-5.4
230.978	-6.34
231.356	-3.28
231.733	-0.92
232.111	-0.94
232.488	-1.22
232.866	3.11
233.243	4.1
233.621	3.19
233.998	2.94
234.376	2.92
234.753	2.6
235.13	0.58
235.508	0.99
235.885	0.78
236.262	-0.19
236.639	-0.49
237.016	-1.67
237.393	-0.46
237.77	0.89
238.147	0.98
238.524	1.19
238.901	2.04
239.278	1.68
239.655	1.94
240.032	1.69
240.409	0.71
240.785	0.59
241.162	0.71
241.539	0.91
241.915	1.19
242.292	1.22
242.668	1.67
243.045	2.25
243.421	2.37
243.798	2.47
244.174	2.68
244.551	2.76
244.927	2.87
245.303	2.82
245.679	2.8
246.056	2.91
246.432	3.11
246.808	3.24
247.184	3.12
247.56	3.08
247.936	2.92
248.312	3.15
248.688	3
249.064	2.85
249.44	2.8
249.815	2.66
250.191	2.88
250.567	2.77
250.943	2.4
251.318	2.47
251.694	2.67
252.069	2.68
252.445	2.96
252.82	3.01
253.196	2.63
253.571	2.81
253.947	2.96
254.322	2.96
254.697	2.82
255.073	2.4
255.448	2.44
255.823	2.82
256.198	2.95
256.573	3.18
256.948	3.33
257.323	3.48
257.698	3.46
258.073	3.5
258.448	3.44
258.823	3.57
259.198	3.47
259.573	3.44
259.948	3.21
260.322	3.02
260.697	2.89
261.072	3.13
261.446	3.09
261.821	2.98
262.195	3.05
262.57	3.01
262.944	3.22
263.319	3.08
263.693	2.96
264.067	2.96
264.442	2.96
264.816	3.03
265.19	3.2
265.564	3.26
265.938	3.03
266.313	2.93
266.687	2.95
267.061	3.16
267.435	3.18
267.809	3.31
268.183	3.41
268.556	3.44
268.93	3.33
269.304	3.38
269.678	3.51
270.051	3.35
270.425	3.43
270.799	3.39
271.172	3.67
271.546	3.71
271.919	3.73
272.293	3.47
272.666	3.39
273.04	3.14
273.413	3.03
273.787	3.22
274.16	3.13
274.533	3.15
274.906	2.9
275.279	2.72
275.653	2.75
276.026	2.63
276.399	2.63
276.772	2.67
277.145	2.47
277.518	2.53
277.891	2.7
278.263	2.49
278.636	2.44
279.009	2.28
279.382	2.5
279.755	2.36
280.127	2.73
280.5	2.7
280.872	2.79
281.245	2.8
281.617	2.68
281.99	2.8
282.362	2.59
282.735	2.72
283.107	2.77
283.479	2.8
283.852	2.88
284.224	2.8
284.596	2.92
284.968	3.07
285.34	2.92
285.713	2.82
286.085	3.03
286.457	3.22
286.829	3.3
287.201	3.2
287.572	3.24
287.944	3.16
288.316	3.21
288.688	3.27
289.06	3.37
289.431	3.41
289.803	3.48
290.175	3.7
290.546	3.81
290.918	3.9
291.289	3.95
291.661	4
292.032	4.18
292.403	4.12
292.775	4.25
293.146	4.34
293.517	4.34
293.889	4.26
294.26	4.18
294.631	4.07
295.002	4.12
295.373	4.1
295.744	4.15
296.115	4.14
296.486	4
296.857	4.01
297.228	4.05
297.599	4
297.97	3.93
298.34	3.83
298.711	3.91
299.082	3.81
299.452	3.8
299.823	3.77
300.194	3.72
300.564	3.53
300.935	3.57
301.305	3.59
301.676	3.59
302.046	3.65
302.416	3.71
302.787	3.56
303.157	3.53
303.527	3.56
303.897	3.49
304.267	3.7
304.637	3.63
305.008	3.63
305.378	3.7
305.748	3.8
306.117	3.71
306.487	3.59
306.857	3.66
307.227	3.58
307.597	3.56
307.967	3.46
308.336	3.47
308.706	3.43
309.076	3.37
309.445	3.36
309.815	3.25
310.184	3.28
310.554	3.29
310.923	3.3
311.293	3.23
311.662	3.15
312.031	2.98
312.401	3.02
312.77	2.93
313.139	2.81
313.508	2.66
313.877	2.74
314.246	2.76
314.616	2.73
314.985	2.68
315.353	2.59
315.722	2.71
316.091	2.67
316.46	2.52
316.829	2.61
317.198	2.67
317.567	2.61
317.935	2.4
318.304	2.47
318.672	2.48
319.041	2.39
319.41	2.47
319.778	2.63
320.147	2.53
320.515	2.6
320.883	2.69
321.252	2.74
321.62	2.79
321.988	2.76
322.357	2.67
322.725	2.72
323.093	2.79
323.461	2.64
323.829	2.69
324.197	2.78
324.565	2.72
324.933	2.63
325.301	2.64
325.669	2.78
326.037	2.66
326.405	2.8
326.772	2.96
327.14	3.12
327.508	3.09
327.875	3.1
328.243	3.1
328.61	3.14
328.978	3.26
329.346	3.34
329.713	3.26
330.08	3.41
330.448	3.39
330.815	3.34
331.182	3.46
331.55	3.46
331.917	3.51
332.284	3.64
332.651	3.66
333.018	3.79
333.385	3.63
333.752	3.86
334.119	3.87
334.486	3.72
334.853	3.59
335.22	3.59
335.587	3.71
335.954	3.71
336.32	3.69
336.687	3.56
337.054	3.37
337.42	3.4
337.787	3.34
338.153	3.31
338.52	3.45
338.886	3.31
339.253	3.3
339.619	3.3
339.986	3.15
340.352	3.11
340.718	3.06
341.084	3.19
341.451	3.15
341.817	3.09
342.183	3.12
342.549	3.14
342.915	3.14
343.281	2.97
343.647	2.97
344.013	2.88
344.379	2.88
344.745	2.99
345.11	3.06
345.476	3.05
345.842	3.01
346.208	2.94
346.573	3.01
346.939	3.11
347.304	3.08
347.67	3.1
348.035	3.11
348.401	3.1
348.766	3.12
349.132	3
349.497	2.93
349.862	2.92
350.228	2.92
350.593	2.91
350.958	2.96
351.323	3.09
351.688	3.27
352.053	3.34
352.418	3.36
352.783	3.26
353.148	3.23
353.513	3.3
353.878	3.33
354.243	3.38
354.608	3.33
354.972	3.35
355.337	3.36
355.702	3.44
356.066	3.47
356.431	3.42
356.795	3.51
357.16	3.59
357.524	3.55
357.889	3.52
358.253	3.59
358.618	3.58
358.982	3.49
359.346	3.42
359.71	3.39
360.075	3.34
360.439	3.41
360.803	3.41
361.167	3.42
361.531	3.37
361.895	3.38
362.259	3.34
362.623	3.31
362.987	3.28
363.351	3.21
363.714	3.25
364.078	3.23
364.442	3.15
364.806	3.09
365.169	3.09
365.533	3.03
365.896	2.92
366.26	2.94
366.623	2.97
366.987	2.92
367.35	2.89
367.714	2.9
368.077	2.84
368.44	2.87
368.803	2.85
369.167	2.81
369.53	2.8
369.893	2.84
370.256	2.84
370.619	2.79
370.982	2.81
371.345	2.78
371.708	2.84
372.071	2.86
372.434	2.87
372.797	2.86
373.159	2.83
373.522	2.89
373.885	2.91
374.247	2.89
374.61	2.98
374.973	2.95
375.335	2.95
375.698	3.03
376.06	3
376.423	2.98
376.785	3.02
377.147	3.05
377.51	3.03
377.872	3.07
378.234	3.1
378.596	3.09
378.958	3.04
379.321	3.02
379.683	3.03
380.045	3.03
380.407	3.02
380.769	3.1
381.13	3.04
381.492	3.04
381.854	3.05
382.216	2.98
382.578	2.96
382.939	2.96
383.301	2.9
383.663	2.93
384.024	2.97
384.386	2.99
384.747	2.99
385.109	2.98
385.47	2.95
385.832	2.98
386.193	2.99
386.554	3.02
386.916	3.01
387.277	3
387.638	2.99
387.999	3.02
388.36	3.04
388.721	3.08
389.082	3.08
389.443	3.03
389.804	3.02
390.165	3.07
390.526	3.04
390.887	3.05
391.248	3.07
391.609	3.05
391.969	3.06
392.33	3.04
392.691	3.03
393.051	3.04
393.412	3.03
393.772	3.02
394.133	3.01
394.493	3
394.854	3
395.214	3
395.574	2.99
395.935	2.96
396.295	2.97
396.655	2.98
397.015	2.99
397.376	3
397.736	2.99
398.096	3
398.456	2.96
398.816	2.94
399.176	2.9
399.535	2.87
399.895	2.87
400.255	2.88
400.615	2.89
400.975	2.91
401.334	2.89
401.694	2.86
402.054	2.86
402.413	2.86
402.773	2.87
403.132	2.88
403.492	2.9
403.851	2.88
404.211	2.87
404.57	2.86
404.929	2.84
405.288	2.83
405.648	2.85
406.007	2.88
406.366	2.86
406.725	2.89
407.084	2.9
407.443	2.89
407.802	2.88
408.161	2.87
408.52	2.83
408.879	2.87
409.238	2.88
409.596	2.91
409.955	2.93
410.314	2.92
410.673	2.89
411.031	2.89
411.39	2.88
411.748	2.9
412.107	2.91
412.465	2.93
412.824	2.94
413.182	2.91
413.54	2.89
413.899	2.9
414.257	2.89
414.615	2.89
414.974	2.9
415.332	2.89
415.69	2.85
416.048	2.87
416.406	2.86
416.764	2.87
417.122	2.89
417.48	2.87
417.838	2.88
418.195	2.88
418.553	2.89
418.911	2.89
419.269	2.88
419.626	2.89
419.984	2.89
420.342	2.91
420.699	2.93
421.057	2.93
421.414	2.94
421.772	2.94
422.129	2.95
422.486	2.96
422.844	2.96
423.201	2.97
423.558	2.98
423.915	2.98
424.273	2.99
424.63	2.98
424.987	2.97
425.344	2.98
425.701	2.98
426.058	2.96
426.415	2.97
426.772	2.98
427.128	2.96
427.485	2.97
427.842	2.95
428.199	2.96
428.555	2.98
428.912	2.99
429.269	2.97
429.625	2.97
429.982	2.96
430.338	2.97
430.695	2.99
431.051	3
431.407	2.99
431.764	2.98
432.12	2.98
432.476	2.99
432.832	2.99
433.189	2.99
433.545	3.01
433.901	3
434.257	2.99
434.613	3
434.969	2.99
435.325	2.99
435.681	3
436.036	2.99
436.392	2.98
436.748	2.99
437.104	2.98
437.459	2.98
437.815	2.98
438.171	2.97
438.526	2.97
438.882	2.99
439.237	2.99
439.593	3
439.948	2.99
440.304	3
440.659	2.99
441.014	2.99
441.369	3
441.725	3.02
442.08	3.04
442.435	3.04
442.79	3.03
443.145	3.03
443.5	3.04
443.855	3.04
444.21	3.03
444.565	3.04
444.92	3.04
445.275	3.03
445.629	3.05
445.984	3.06
446.339	3.02
446.693	3.01
447.048	3.01
447.403	3.03
447.757	3.02
448.112	3.02
448.466	3.02
448.82	3.03
449.175	3.01
449.529	3
449.883	2.99
450.238	3.01
450.592	3.01
450.946	3
451.3	2.99
451.654	3
452.008	3.02
452.362	3.01
452.716	3.01
453.07	3.01
453.424	3.01
453.778	3.05
454.132	3.06
454.486	3.06
454.839	3.05
455.193	3.05
455.547	3.06
455.9	3.07
456.254	3.08
456.607	3.08
456.961	3.08
457.314	3.09
457.668	3.08
458.021	3.06
458.375	3.06
458.728	3.08
459.081	3.07
459.434	3.05
459.787	3.05
460.141	3.05
460.494	3.06
460.847	3.04
461.2	3.03
461.553	3.02
461.906	3.02
462.259	3.03
462.611	3.05
462.964	3.05
463.317	3.04
463.67	3.03
464.022	3.03
464.375	3.02
464.728	3.01
465.08	3.02
465.433	3.04
465.785	3.04
466.138	3.06
466.49	3.07
466.843	3.07
467.195	3.08
467.547	3.09
467.899	3.08
468.252	3.1
468.604	3.13
468.956	3.14
469.308	3.15
469.66	3.13
470.012	3.13
470.364	3.14
470.716	3.15
471.068	3.14
471.42	3.15
471.772	3.17
472.123	3.2
472.475	3.19
472.827	3.2
473.178	3.2
473.53	3.17
473.882	3.16
474.233	3.17
474.585	3.18
474.936	3.17
475.288	3.16
475.639	3.17
475.99	3.15
476.342	3.14
476.693	3.12
477.044	3.13
477.395	3.13
477.746	3.11
478.097	3.11
478.448	3.1
478.8	3.09
479.15	3.09
479.501	3.08
479.852	3.09
480.203	3.1
480.554	3.1
480.905	3.11
481.255	3.13
481.606	3.13
481.957	3.14
482.307	3.13
482.658	3.13
483.009	3.13
483.359	3.13
483.709	3.14
484.06	3.14
484.41	3.14
484.761	3.15
485.111	3.16
485.461	3.16
485.811	3.17
486.162	3.18
486.512	3.19
486.862	3.19
487.212	3.18
487.562	3.19
487.912	3.19
488.262	3.18
488.612	3.18
488.961	3.18
489.311	3.18
489.661	3.19
490.011	3.19
490.36	3.19
490.71	3.18
491.06	3.17
491.409	3.18
491.759	3.17
492.108	3.16
492.458	3.16
492.807	3.17
493.157	3.18
493.506	3.17
493.855	3.17
494.204	3.17
494.554	3.18
494.903	3.16
495.252	3.17
495.601	3.19
495.95	3.21
496.299	3.2
496.648	3.19
496.997	3.17
497.346	3.19
497.695	3.2
498.043	3.21
498.392	3.23
498.741	3.25
499.09	3.25
499.438	3.25
499.787	3.26
500.135	3.27
500.484	3.27
500.832	3.26
501.181	3.26
501.529	3.25
501.878	3.28
502.226	3.32
502.574	3.31
502.923	3.28
503.271	3.28
503.619	3.29
503.967	3.31
504.315	3.31
504.663	3.3
505.011	3.31
505.359	3.3
505.707	3.3
506.055	3.29
506.403	3.29
506.751	3.3
507.098	3.3
507.446	3.3
507.794	3.29
508.141	3.31
508.489	3.32
508.837	3.34
509.184	3.34
509.531	3.34
509.879	3.35
510.226	3.37
510.574	3.37
510.921	3.38
511.268	3.39
511.616	3.41
511.963	3.43
512.31	3.42
512.657	3.45
513.004	3.46
513.351	3.49
513.698	3.5
514.045	3.49
514.392	3.48
514.739	3.49
515.086	3.5
515.432	3.48
515.779	3.47
516.126	3.49
516.473	3.47
516.819	3.47
517.166	3.49
517.512	3.49
517.859	3.51
518.205	3.5
518.552	3.51
518.898	3.52
519.245	3.51
519.591	3.51
519.937	3.5
520.283	3.49
520.629	3.47
520.976	3.48
521.322	3.49
521.668	3.49
522.014	3.48
522.36	3.5
522.706	3.51
523.052	3.52
523.398	3.51
523.743	3.52
524.089	3.53
524.435	3.52
524.781	3.52
525.126	3.53
525.472	3.54
525.817	3.53
526.163	3.53
526.509	3.54
526.854	3.54
527.199	3.56
527.545	3.57
527.89	3.57
528.235	3.57
528.581	3.57
528.926	3.58
529.271	3.58
529.616	3.56
529.961	3.56
530.306	3.56
530.651	3.57
530.996	3.57
531.341	3.56
531.686	3.57
532.031	3.57
532.376	3.56
532.721	3.56
533.065	3.56
533.41	3.55
533.755	3.55
534.099	3.56
534.444	3.55
534.788	3.55
535.133	3.55
535.477	3.54
535.822	3.54
536.166	3.55
536.51	3.56
536.855	3.57
537.199	3.57
537.543	3.58
537.887	3.56
538.231	3.56
538.576	3.58
538.92	3.58
539.264	3.58
539.608	3.6
539.951	3.61
540.295	3.6
540.639	3.61
540.983	3.61
541.327	3.6
541.671	3.59
542.014	3.59
542.358	3.58
542.701	3.6
543.045	3.61
543.389	3.61
543.732	3.6
544.075	3.6
544.419	3.61
544.762	3.62
545.105	3.65
545.449	3.64
545.792	3.63
546.135	3.63
546.478	3.62
546.821	3.61
547.165	3.6
547.508	3.61
547.851	3.61
548.194	3.6
548.536	3.62
548.879	3.63
549.222	3.65
549.565	3.66
549.908	3.65
550.25	3.66
550.593	3.65
550.936	3.64
551.278	3.64
551.621	3.62
551.963	3.61
552.306	3.59
552.648	3.61
552.991	3.63
553.333	3.64
553.675	3.67
554.017	3.67
554.36	3.67
554.702	3.68
555.044	3.66
555.386	3.66
555.728	3.62
556.07	3.62
556.412	3.6
556.754	3.61
557.096	3.62
557.438	3.58
557.78	3.56
558.121	3.61
558.463	3.63
558.805	3.65
559.147	3.65
559.488	3.65
559.83	3.63
560.171	3.61
560.513	3.58
560.854	3.56
561.196	3.56
561.537	3.58
561.878	3.6
562.22	3.62
562.561	3.63
562.902	3.62
563.243	3.62
563.584	3.63
563.925	3.63
564.266	3.62
564.607	3.64
564.948	3.67
565.289	3.64
565.63	3.64
565.971	3.61
566.312	3.61
566.653	3.6
566.993	3.61
567.334	3.63
567.675	3.67
568.015	3.66
568.356	3.67
568.696	3.69
569.037	3.67
569.377	3.67
569.718	3.69
570.058	3.69
570.398	3.67
570.739	3.7
571.079	3.71
571.419	3.72
571.759	3.74
572.099	3.73
572.439	3.73
572.779	3.73
573.119	3.75
573.459	3.76
573.799	3.77
574.139	3.78
574.479	3.77
574.819	3.74
575.158	3.76
575.498	3.73
575.838	3.72
576.177	3.7
576.517	3.69
576.856	3.69
577.196	3.75
577.535	3.8
577.875	3.77
578.214	3.75
578.553	3.76
578.893	3.75
579.232	3.77
579.571	3.78
579.91	3.75
580.25	3.72
580.589	3.73
580.928	3.72
581.267	3.69
581.606	3.68
581.945	3.72
582.283	3.71
582.622	3.75
582.961	3.74
583.3	3.78
583.639	3.8
583.977	3.8
584.316	3.77
584.654	3.73
584.993	3.75
585.332	3.76
585.67	3.8
586.008	3.76
586.347	3.74
586.685	3.76
587.024	3.77
587.362	3.77
587.7	3.79
588.038	3.8
588.376	3.79
588.715	3.8
589.053	3.8
589.391	3.82
589.729	3.82
590.067	3.81
590.404	3.81
590.742	3.81
591.08	3.81
591.418	3.77
591.756	3.78
592.093	3.84
592.431	3.84
592.769	3.79
593.106	3.8
593.444	3.76
593.781	3.73
594.119	3.73
594.456	3.7
594.793	3.68
595.131	3.66
595.468	3.69
595.805	3.7
596.143	3.68
596.48	3.66
596.817	3.66
597.154	3.7
597.491	3.68
597.828	3.67
598.165	3.65
598.502	3.66
598.839	3.63
599.176	3.55
599.512	3.53
599.849	3.53
600.186	3.54
600.523	3.57
600.859	3.6
601.196	3.62
601.532	3.66
601.869	3.66
602.205	3.65
602.542	3.62
602.878	3.62
603.215	3.62
603.551	3.65
603.887	3.69
604.223	3.66
604.56	3.68
604.896	3.69
605.232	3.73
605.568	3.73
605.904	3.77
606.24	3.82
606.576	3.84
606.912	3.86
607.248	3.86
607.583	3.87
607.919	3.88
608.255	3.85
608.591	3.82
608.926	3.84
609.262	3.87
609.597	3.9
609.933	3.93
610.268	3.97
610.604	3.96
610.939	3.91
611.275	3.9
611.61	3.91
611.945	3.94
612.281	3.93
612.616	3.93
612.951	3.89
613.286	3.85
613.621	3.85
613.956	3.85
614.291	3.88
614.626	3.92
614.961	3.92
615.296	3.95
615.631	3.97
615.966	3.99
616.3	4.05
616.635	3.99
616.97	3.92
617.304	3.87
617.639	3.88
617.973	3.91
618.308	3.9
618.642	3.87
618.977	3.83
619.311	3.83
619.646	3.83
619.98	3.9
620.314	3.92
620.648	3.93
620.983	3.94
621.317	3.94
621.651	3.95
621.985	3.96
622.319	3.97
622.653	3.97
622.987	4
623.321	3.97
623.655	4.04
623.988	4.07
624.322	4.1
624.656	4.14
624.99	4.13
625.323	4.15
625.657	4.2
625.99	4.26
626.324	4.28
626.657	4.26
626.991	4.28
627.324	4.24
627.658	4.27
627.991	4.26
628.324	4.22
628.657	4.2
628.991	4.15
629.324	4.19
629.657	4.21
629.99	4.18
630.323	4.15
630.656	4.13
630.989	4.18
631.322	4.2
631.655	4.1
631.987	4.14
632.32	4.16
632.653	4.09
632.986	4.05
633.318	4.06
633.651	4.09
633.984	4.06
634.316	4.09
634.649	4.1
634.981	4.08
635.313	4.1
635.646	4.08
635.978	4.12
636.31	4.07
636.643	4.06
636.975	4.06
637.307	4.08
637.639	4.1
637.971	4.1
638.303	4.08
638.635	4.14
638.967	4.06
639.299	4.08
639.631	4.09
639.963	4.08
640.295	4.08
640.626	4.1
640.958	4.07
641.29	4.03
641.621	3.99
641.953	4.04
642.285	4.04
642.616	4.08
642.948	4.15
643.279	4.14
643.61	4.11
643.942	4.18
644.273	4.2
644.604	4.14
644.936	4.07
645.267	4.05
645.598	4.03
645.929	4.14
646.26	4.09
646.591	4.12
646.922	4.12
647.253	4.1
647.584	4.12
647.915	4.15
648.245	4.16
648.576	4.2
648.907	4.22
649.238	4.2
649.568	4.21
649.899	4.21
650.229	4.27
650.56	4.29
650.89	4.23
651.221	4.18
651.551	4.18
651.882	4.23
652.212	4.23
652.542	4.23
652.872	4.12
653.203	4.17
653.533	4.12
653.863	4.14
654.193	4.15
654.523	4.12
654.853	4.17
655.183	4.21
655.513	4.18
655.843	4.12
656.172	4.17
656.502	4.16
656.832	4.12
657.162	4.09
657.491	4.06
657.821	4.07
658.15	4.11
658.48	4.17
658.809	4.15
659.139	4.12
659.468	4.09
659.798	4.14
660.127	4.12
660.456	4.16
660.785	4.13
661.115	4.11
661.444	4.11
661.773	4.13
662.102	4.13
662.431	4.17
662.76	4.25
663.089	4.23
663.418	4.22
663.747	4.18
664.076	4.17
664.404	4.17
664.733	4.18
665.062	4.18
665.39	4.08
665.719	4.09
666.048	4.17
666.376	4.25
666.705	4.17
667.033	4.13
667.362	4.2
667.69	4.21
668.018	4.2
668.347	4.22
668.675	4.18
669.003	4.19
669.331	4.18
669.659	4.14
669.987	4.09
670.315	4.11
670.643	4.09
670.971	4.12
671.299	4.22
671.627	4.23
671.955	4.24
672.283	4.29
672.61	4.24
672.938	4.22
673.266	4.14
673.593	4.31
673.921	4.32
674.249	4.24
674.576	4.19
674.904	4.2
675.231	4.19
675.558	4.22
675.886	4.19
676.213	4.14
676.54	4.1
676.867	4.16
677.195	4.09
677.522	4.17
677.849	4.22
678.176	4.17
678.503	4.16
678.83	4.16
679.157	4.17
679.484	4.24
679.81	4.27
680.137	4.32
680.464	4.24
680.791	4.23
681.117	4.15
681.444	4.25
681.771	4.33
682.097	4.24
682.424	4.21
682.75	4.18
683.077	4.18
683.403	4.24
683.729	4.23
684.056	4.32
684.382	4.29
684.708	4.22
685.034	4.22
685.36	4.18
685.686	4.24
686.012	4.23
686.339	4.26
686.664	4.19
686.99	4.19
687.316	4.21
687.642	4.28
687.968	4.32
688.294	4.32
688.619	4.32
688.945	4.39
689.271	4.38
689.596	4.38
689.922	4.45
690.247	4.47
690.573	4.47
690.898	4.42
691.224	4.48
691.549	4.54
691.874	4.57
692.2	4.64
692.525	4.56
692.85	4.59
693.175	4.55
693.5	4.59
693.825	4.63
694.15	4.58
694.475	4.54
694.8	4.65
695.125	4.53
695.45	4.53
695.775	4.68
696.099	4.64
696.424	4.61
696.749	4.48
697.073	4.49
697.398	4.47
697.723	4.54
698.047	4.49
698.372	4.36
698.696	4.31
699.02	4.24
699.345	4.19
699.669	4.19
699.993	4.11
700.318	4.12
700.642	4.16
700.966	4.22
701.29	4.23
701.614	4.21
701.938	4.38
702.262	4.39
702.586	4.25
702.91	4.23
703.234	4.33
703.557	4.46
703.881	4.47
704.205	4.51
704.529	4.42
704.852	4.49
705.176	4.7
705.499	4.83
705.823	4.85
706.146	4.91
706.47	5.02
706.793	5.07
707.117	5.07
707.44	5.03
707.763	5.13
708.086	5.04
708.409	4.92
708.733	4.75
709.056	4.69
709.379	4.82
709.702	4.8
710.025	4.85
710.348	4.77
710.671	4.73
710.993	4.8
711.316	4.88
711.639	4.82
711.962	4.79
712.284	4.7
712.607	4.79
712.93	4.83
713.252	4.85
713.575	4.86
713.897	4.85
714.22	4.81
714.542	4.74
714.864	4.74
715.187	4.88
715.509	5.01
715.831	5.08
716.153	5.04
716.475	5.16
716.798	5.09
717.12	5.17
717.442	5.14
717.764	5.09
718.085	5.01
718.407	5.05
718.729	4.96
719.051	5.04
719.373	4.98
719.695	5
720.016	4.94
720.338	4.94
720.659	5.1
720.981	5.11
721.302	5.08
721.624	5.16
721.945	5.1
722.267	5.02
722.588	4.89
722.909	4.95
723.231	5.02
723.552	5.11
723.873	5.14
724.194	5.04
724.515	5.01
724.836	4.99
725.157	4.95
725.478	4.92
725.799	4.83
726.12	4.72
726.441	4.67
726.762	4.63
727.083	4.78
727.403	4.7
727.724	4.69
728.045	4.87
728.365	4.8
728.686	4.78
729.006	4.88
729.327	4.98
729.647	4.89
729.967	4.73
730.288	4.71
730.608	4.59
730.928	4.75
731.249	4.81
731.569	4.98
731.889	5.09
732.209	5.19
732.529	5.16
732.849	5.3
733.169	5.37
733.489	5.28
733.809	5.22
734.129	5.09
734.448	5.19
734.768	5.13
735.088	5.26
735.408	5.41
735.727	5.4
736.047	5.48
736.366	5.43
736.686	5.55
737.005	5.7
737.325	5.78
737.644	5.61
737.963	5.58
738.283	5.36
738.602	5.28
738.921	5.23
739.24	5.21
739.56	5.2
739.879	5.22
740.198	5.29
740.517	5.42
740.836	5.59
741.155	5.53
741.473	5.6
741.792	5.42
742.111	5.36
742.43	5.38
742.748	5.27
743.067	5.42
743.386	5.35
743.704	5.1
744.023	5.21
744.341	5.34
744.66	5.55
744.978	5.61
745.297	5.69
745.615	5.94
745.933	6.02
746.252	6.03
746.57	5.85
746.888	6.11
747.206	5.97
747.524	6.02
747.842	6.06
748.16	6.04
748.478	6.21
748.796	6.18
749.114	6.27
749.432	6.14
749.749	6
750.067	6.11
750.385	6.19
750.703	6.04
751.02	5.96
751.338	5.81
751.655	6.04
751.973	5.89
752.29	5.79
752.608	6.01
752.925	6.06
753.242	6.28
753.56	5.98
753.877	6.05
754.194	6.23
754.511	6.4
754.828	6.15
755.145	6.2
755.462	6.34
755.779	6.11
756.096	6.06
756.413	6.22
756.73	6.06
757.047	6.05
757.364	6.14
757.68	6.27
757.997	6.34
758.314	6.01
758.63	6.02
758.947	5.91
759.264	5.52
759.58	5.4
759.896	5.53
760.213	5.81
760.529	5.96
760.846	5.62
761.162	5.57
761.478	5.57
761.794	5.52
762.11	5.37
762.426	5.35
762.743	5.56
763.059	5.42
763.375	5.43
763.69	5.58
764.006	5.65
764.322	5.65
764.638	5.54
764.954	5.93
765.27	6
765.585	5.96
765.901	6.33
766.216	6.42
766.532	6.34
766.848	6.12
767.163	6
767.478	6.19
767.794	6.11
768.109	6.17
768.424	6.4
768.74	6.58
769.055	6.61
769.37	6.66
769.685	6.68
770	6.91
770.315	6.91
770.63	6.73
770.945	6.59
771.26	6.63
771.575	6.46
771.89	6.65
772.205	6.77
772.52	6.46
772.834	6.35
773.149	6.21
773.464	6.29
773.778	6.41
774.093	5.89
774.407	5.9
774.722	5.93
775.036	5.53
775.351	5.45
775.665	5.29
775.979	5.29
776.293	5.24
776.608	5.07
776.922	4.94
777.236	5.05
777.55	5.3
777.864	5.29
778.178	5.14
778.492	4.98
778.806	5.01
779.12	5.1
779.434	5.14
779.747	5.45
780.061	5.42
780.375	5.11
780.689	5.47
781.002	5.61
781.316	5.52
781.629	6.01
781.943	5.95
782.256	6.37
782.57	5.89
782.883	6.24
783.196	6.29
783.51	6.33
783.823	6.05
784.136	5.95
784.449	6.21
784.762	6.26
785.075	6.23
785.388	6.07
785.701	6.08
786.014	6.07
786.327	6.06
786.64	6.1
786.953	6.22
787.266	5.97
787.578	5.84
787.891	6.32
788.204	5.84
788.516	5.77
788.829	6.05
789.141	6.24
789.454	6
789.766	6.12
790.079	6.15
790.391	6.61
790.703	6.9
791.016	6.47
791.328	6.55
791.64	6.52
791.952	6.8
792.264	6.55
792.576	6.27
792.888	5.93
793.2	6
793.512	5.78
793.824	6.02
794.136	6
794.448	5.48
794.76	5.87
795.071	5.99
795.383	5.81
795.695	5.68
796.006	5.56
796.318	5.34
796.629	5.35
796.941	5.08
797.252	4.88
797.564	5.15
797.875	5.32
798.186	5.36
798.497	5.86
798.809	6.19
799.12	6.89
799.431	6.89
799.742	6.53
800.053	6.69
800.364	6.63
800.675	6.13
800.986	6.47
801.297	5.89
801.608	5.91
801.918	5.22
802.229	5.74
802.54	5.82
802.851	5.76
803.161	5.67
803.472	5.75
803.782	5.59
804.093	5.18
804.403	4.96
804.714	5.03
805.024	4.1
805.334	4.03
805.645	4.29
805.955	4.77
806.265	5.6
806.575	5.37
806.885	5.47
807.195	6.02
807.505	6.17
807.815	6.62
808.125	6.39
808.435	6.74
808.745	6.54
809.055	6.95
809.365	6.98
809.674	6.82
809.984	7.02
810.294	6.79
810.603	7.58
810.913	8.02
811.222	8.6
811.532	9.04
811.841	9.15
812.151	8.8
812.46	8.78
812.769	8.37
813.079	8.87
813.388	8.62
813.697	8.75
814.006	8.33
814.315	8.32
814.624	8.38
814.933	8.64
815.242	8.99
815.551	8.93
815.86	9.68
816.169	10.03
816.478	9.85
816.786	9.89
817.095	10.1
817.404	9.2
817.712	8.54
818.021	8.25
818.33	7.43
818.638	7.05
818.947	7.3
819.255	7.71
819.563	7.73
819.872	7.83
820.18	7.79
820.488	7.82
820.796	7.98
821.105	8.06
821.413	8.18
821.721	7.89
822.029	7.87
822.337	7.71
822.645	7.7
822.953	7.64
823.26	7.99
823.568	7.81
823.876	8.1
824.184	8.07
824.491	8.13
824.799	8.29
825.107	8.34
825.414	8.28
825.722	8.26
826.029	8.19
826.337	8.39
826.644	8.51
826.951	8.51
827.259	8.42
827.566	8.39
827.873	8.33
828.18	8.65
828.488	8.55
828.795	8.69
829.102	8.78
829.409	9.07
829.716	8.58
830.023	8.72
830.329	8.09
830.636	8.57
830.943	8.58
831.25	8.9
831.557	8.88
831.863	8.74
832.17	8.38
832.476	8.82
832.783	8.75
833.089	8.31
833.396	8.29
833.702	8.3
834.009	8.48
834.315	8.57
834.621	8.41
834.928	8.71
835.234	8.62
835.54	8.22
835.846	7.81
836.152	8.2
836.458	8.09
836.764	8.46
837.07	7.84
837.376	7.52
837.682	6.91
837.988	7.06
838.293	7.07
838.599	6.99
838.905	6.35
839.211	6.11
839.516	6.55
839.822	6.11
840.127	6.28
840.433	6.26
840.738	5.95
841.044	5.5
841.349	4.32
841.654	4.5
841.959	4.69
842.265	5.42
842.57	5.26
842.875	5.99
843.18	6.78
843.485	6.72
843.79	7.47
844.095	7.21
844.4	7.98
844.705	7.45
845.01	8.55
845.315	8.6
845.619	8.07
845.924	9.09
846.229	10.14
846.533	10.61
846.838	9.56
847.142	9.28
847.447	9.4
847.751	10.1
848.056	8.23
848.36	9.82
848.664	9.83
848.969	8.66
849.273	8.12
849.577	7.26
849.881	7.91
850.185	8.95
850.489	11.51
850.794	10.17
851.097	11.41
851.401	10.99
851.705	11.23
852.009	12.24
852.313	9.73
852.617	10.29
852.92	11.07
853.224	12.35
853.528	12.22
853.831	13.37
854.135	14.05
854.438	15.14
854.742	13.44
855.045	12.75
855.349	14.53
855.652	13.67
855.955	14.27
856.259	14.37
856.562	12.48
856.865	11.73
857.168	10.93
857.471	10.1
857.774	11.62
858.077	11.84
858.38	10.71
858.683	11.14
858.986	9.93
859.289	7.25
859.592	6.75
859.894	6.72
860.197	5.69
860.5	5.98
860.802	7.25
861.105	7.85
861.407	7.5
861.71	5.28
862.012	4.53
862.315	1.43
862.617	1.02
862.919	2.12
863.222	2
863.524	3.08
863.826	4.7
864.128	3.58
864.43	2.13
864.732	2.17
865.034	1.47
865.336	1.55
865.638	2.2
865.94	0.78
866.242	0.29
866.544	0.06
866.846	0.45
867.147	-0.26
867.449	-0.65
867.751	0.44
868.052	2.57
868.354	3.67
868.655	6
868.957	4.74
869.258	3.03
869.56	3.76
869.861	3.27
870.162	0.73
870.463	0.22
870.765	0.96
871.066	1.76
871.367	2.38
871.668	4.97
871.969	6.04
872.27	6.61
872.571	6.34
872.872	8.07
873.173	6.95
873.473	5.95
873.774	6.88
874.075	6.95
874.376	6.08
874.676	7.89
874.977	6.82
875.277	8.58
875.578	10.91
875.878	9.2
876.179	9.35
876.479	11.01
876.78	11.04
877.08	11.8
877.38	11.83
877.68	13.24
877.981	10.31
878.281	8.83
878.581	11.32
