Data from BU26848_Reflection_00015.txt Node
Date: Mon Nov 18 16:25:58 EST 2019
User: vgr7
Spectrometer: USB2G7710
Scans to average: 3
Trigger mode: 4
Integration Time (sec): 2.000000E-2
Electric dark correction enabled: true
Boxcar width: 10
XAxis mode: Wavelengths
Number of Pixels in Spectrum: 2048
>>>>>Begin Spectral Data<<<<<
177.721	28.67
178.105	-6.38
178.488	476.39
178.871	160.86
179.254	591.12
179.636	-1435.71
180.019	125.48
180.402	241.67
180.785	1053.49
181.168	-78.19
181.55	497.26
181.933	115.38
182.316	114.08
182.698	85.63
183.081	94.07
183.463	78.47
183.846	92.74
184.228	136.33
184.611	181.55
184.993	200.13
185.376	-759.92
185.758	-699.39
186.14	-2090.84
186.522	1539.83
186.904	1987.7
187.287	1221.37
187.669	-2374.86
188.051	3250.38
188.433	-622.91
188.815	-289.26
189.197	-180.13
189.579	-161.04
189.961	-96.82
190.342	-95.64
190.724	-68.18
191.106	-57.02
191.488	-63.65
191.869	-80.64
192.251	-138.14
192.633	-125.88
193.014	-100.56
193.396	-172.29
193.777	-170.32
194.159	-176.14
194.54	-104.51
194.922	-104.06
195.303	-56.16
195.684	-56.82
196.065	-53.87
196.447	-59.67
196.828	-109.89
197.209	-197.54
197.59	-215.97
197.971	-375.5
198.352	-131.05
198.733	-243.34
199.114	-134.41
199.495	-118.61
199.876	-101.67
200.257	-89.69
200.638	-95.2
201.018	-109.7
201.399	-97.42
201.78	-69.34
202.16	-62.28
202.541	-102.96
202.922	-144.22
203.302	-159.99
203.683	-223.45
204.063	-292.88
204.444	-387.86
204.824	-237.59
205.204	-124.2
205.585	-172.24
205.965	-149.22
206.345	-268.59
206.725	-245.96
207.106	-464.64
207.486	-1131.26
207.866	-394.93
208.246	-807.26
208.626	-667.33
209.006	-779.14
209.386	-1508.22
209.766	-1366.82
210.145	-674.38
210.525	-382.08
210.905	-203.36
211.285	-220.48
211.664	-162.65
212.044	-103.2
212.424	-90.99
212.803	-114.44
213.183	-136.69
213.562	-92.22
213.942	-81.49
214.321	-65.1
214.701	-61.4
215.08	-57.47
215.459	-38.7
215.838	-43.37
216.218	-32.82
216.597	-11.5
216.976	-8.4
217.355	-9.35
217.734	-13.83
218.113	-20.81
218.492	-17.15
218.871	-36.27
219.25	-25.22
219.629	-32.36
220.008	-40
220.387	-43.94
220.766	-25.5
221.144	-31.04
221.523	-33.15
221.902	-46.62
222.28	-57.79
222.659	-36.87
223.037	-37.57
223.416	-52.34
223.794	-54.28
224.173	-52
224.551	-54.97
224.929	-44.38
225.308	-24.7
225.686	-18.67
226.064	-8.34
226.442	-14.79
226.821	-3.08
227.199	-7.84
227.577	-7.71
227.955	-6.86
228.333	-2.65
228.711	-4.65
229.089	-3.56
229.467	-3
229.845	-1.64
230.222	1.46
230.6	-1.27
230.978	-3.39
231.356	-2.72
231.733	-3.02
232.111	-2.04
232.488	-2.1
232.866	-2.3
233.243	-2.9
233.621	-3.88
233.998	-3.76
234.376	-2.77
234.753	-3.82
235.13	-3.22
235.508	-3.7
235.885	-3.15
236.262	-6.18
236.639	-7.43
237.016	-6.39
237.393	-4.7
237.77	-3.71
238.147	-3.81
238.524	-3.03
238.901	-1.67
239.278	-0.65
239.655	0.76
240.032	0.51
240.409	0.33
240.785	0.53
241.162	0.14
241.539	1.01
241.915	0.69
242.292	0.13
242.668	0.67
243.045	1
243.421	1.14
243.798	1.42
244.174	1.59
244.551	1.94
244.927	2
245.303	2.03
245.679	2.35
246.056	2.44
246.432	2.69
246.808	2.87
247.184	2.6
247.56	2.34
247.936	2.42
248.312	2.52
248.688	2.39
249.064	2.6
249.44	2.4
249.815	2.55
250.191	2.79
250.567	2.82
250.943	2.6
251.318	2.89
251.694	2.5
252.069	2.72
252.445	2.87
252.82	2.86
253.196	2.66
253.571	2.69
253.947	2.66
254.322	2.33
254.697	1.99
255.073	1.96
255.448	2.14
255.823	2.23
256.198	2.45
256.573	2.47
256.948	2.37
257.323	2.37
257.698	2.37
258.073	2.69
258.448	2.6
258.823	2.78
259.198	2.75
259.573	2.83
259.948	2.82
260.322	2.71
260.697	2.71
261.072	2.81
261.446	2.72
261.821	2.77
262.195	2.91
262.57	2.88
262.944	3.03
263.319	3.07
263.693	2.95
264.067	2.83
264.442	2.8
264.816	2.82
265.19	2.93
265.564	3.03
265.938	2.64
266.313	2.74
266.687	2.65
267.061	2.66
267.435	2.78
267.809	2.77
268.183	2.73
268.556	2.79
268.93	2.83
269.304	2.86
269.678	2.99
270.051	2.89
270.425	3.15
270.799	3
271.172	2.94
271.546	2.9
271.919	2.78
272.293	2.82
272.666	2.74
273.04	2.62
273.413	2.53
273.787	2.79
274.16	2.61
274.533	2.67
274.906	2.61
275.279	2.45
275.653	2.44
276.026	2.49
276.399	2.43
276.772	2.31
277.145	2.15
277.518	2.22
277.891	2.19
278.263	1.98
278.636	2.15
279.009	2.33
279.382	2.51
279.755	2.56
280.127	2.93
280.5	3.05
280.872	3.05
281.245	2.94
281.617	2.91
281.99	3
282.362	2.95
282.735	2.84
283.107	3.02
283.479	3
283.852	2.97
284.224	2.93
284.596	3.06
284.968	3.23
285.34	3.18
285.713	3.23
286.085	3.27
286.457	3.23
286.829	3.19
287.201	3.18
287.572	3.26
287.944	3.08
288.316	3.07
288.688	3.09
289.06	3.15
289.431	3.22
289.803	3.35
290.175	3.42
290.546	3.6
290.918	3.6
291.289	3.64
291.661	3.8
292.032	3.86
292.403	3.78
292.775	3.94
293.146	3.81
293.517	3.65
293.889	3.89
294.26	3.97
294.631	3.91
295.002	3.95
295.373	3.99
295.744	4.08
296.115	4.1
296.486	4.04
296.857	4.12
297.228	4.07
297.599	3.87
297.97	3.93
298.34	4.04
298.711	4.13
299.082	4.17
299.452	4.2
299.823	4.37
300.194	4.47
300.564	4.33
300.935	4.46
301.305	4.73
301.676	4.65
302.046	4.72
302.416	4.89
302.787	4.96
303.157	5
303.527	5.06
303.897	5.07
304.267	5.25
304.637	5.31
305.008	5.41
305.378	5.68
305.748	5.68
306.117	5.51
306.487	5.5
306.857	5.65
307.227	5.66
307.597	5.54
307.967	5.63
308.336	5.75
308.706	5.77
309.076	5.85
309.445	5.8
309.815	5.83
310.184	5.68
310.554	5.71
310.923	5.66
311.293	5.7
311.662	5.87
312.031	5.98
312.401	6.04
312.77	6.07
313.139	6.18
313.508	6.31
313.877	6.54
314.246	6.73
314.616	6.64
314.985	6.62
315.353	6.7
315.722	6.65
316.091	6.55
316.46	6.55
316.829	6.44
317.198	6.6
317.567	6.62
317.935	6.85
318.304	6.87
318.672	7.08
319.041	7.21
319.41	7.18
319.778	7.21
320.147	7.16
320.515	7.2
320.883	7.03
321.252	6.89
321.62	6.75
321.988	6.69
322.357	6.76
322.725	6.77
323.093	6.76
323.461	6.83
323.829	7
324.197	7.22
324.565	7.31
324.933	7.37
325.301	7.37
325.669	7.34
326.037	7.36
326.405	7.37
326.772	7.28
327.14	7.41
327.508	7.36
327.875	7.45
328.243	7.55
328.61	7.62
328.978	7.83
329.346	7.9
329.713	7.87
330.08	8.02
330.448	8.07
330.815	8.1
331.182	8.17
331.55	8.14
331.917	8.03
332.284	8.13
332.651	8.12
333.018	8.15
333.385	8.28
333.752	8.34
334.119	8.43
334.486	8.4
334.853	8.39
335.22	8.38
335.587	8.51
335.954	8.48
336.32	8.48
336.687	8.45
337.054	8.55
337.42	8.58
337.787	8.47
338.153	8.46
338.52	8.52
338.886	8.4
339.253	8.41
339.619	8.47
339.986	8.47
340.352	8.55
340.718	8.54
341.084	8.39
341.451	8.53
341.817	8.49
342.183	8.56
342.549	8.53
342.915	8.74
343.281	8.64
343.647	8.65
344.013	8.69
344.379	8.56
344.745	8.56
345.11	8.68
345.476	8.69
345.842	8.78
346.208	8.77
346.573	8.94
346.939	9.11
347.304	9.12
347.67	9.05
348.035	8.99
348.401	9.04
348.766	9.15
349.132	9.02
349.497	9.01
349.862	9.04
350.228	9.1
350.593	8.95
350.958	8.92
351.323	8.87
351.688	8.9
352.053	9
352.418	8.94
352.783	8.88
353.148	8.99
353.513	8.97
353.878	9.05
354.243	9.05
354.608	8.96
354.972	8.86
355.337	8.93
355.702	8.93
356.066	8.97
356.431	8.91
356.795	8.98
357.16	8.94
357.524	8.86
357.889	8.74
358.253	8.76
358.618	8.78
358.982	8.82
359.346	8.74
359.71	8.77
360.075	8.8
360.439	8.74
360.803	8.7
361.167	8.72
361.531	8.68
361.895	8.6
362.259	8.58
362.623	8.6
362.987	8.54
363.351	8.53
363.714	8.54
364.078	8.57
364.442	8.48
364.806	8.45
365.169	8.43
365.533	8.47
365.896	8.46
366.26	8.37
366.623	8.3
366.987	8.36
367.35	8.32
367.714	8.27
368.077	8.26
368.44	8.24
368.803	8.14
369.167	8.06
369.53	7.99
369.893	7.97
370.256	8
370.619	7.89
370.982	7.81
371.345	7.7
371.708	7.65
372.071	7.59
372.434	7.59
372.797	7.58
373.159	7.5
373.522	7.46
373.885	7.47
374.247	7.43
374.61	7.37
374.973	7.27
375.335	7.18
375.698	7.1
376.06	7.03
376.423	6.97
376.785	6.97
377.147	7.01
377.51	6.92
377.872	6.87
378.234	6.89
378.596	6.91
378.958	6.85
379.321	6.8
379.683	6.78
380.045	6.67
380.407	6.6
380.769	6.52
381.13	6.44
381.492	6.37
381.854	6.33
382.216	6.23
382.578	6.24
382.939	6.18
383.301	6.16
383.663	6.04
384.024	6.01
384.386	5.97
384.747	5.89
385.109	5.89
385.47	5.77
385.832	5.74
386.193	5.71
386.554	5.7
386.916	5.71
387.277	5.68
387.638	5.69
387.999	5.6
388.36	5.59
388.721	5.57
389.082	5.56
389.443	5.52
389.804	5.54
390.165	5.45
390.526	5.43
390.887	5.43
391.248	5.46
391.609	5.45
391.969	5.43
392.33	5.41
392.691	5.37
393.051	5.37
393.412	5.32
393.772	5.25
394.133	5.22
394.493	5.14
394.854	5.13
395.214	5.07
395.574	5.11
395.935	5.06
396.295	5.04
396.655	5.03
397.015	5.01
397.376	4.92
397.736	4.93
398.096	4.91
398.456	4.81
398.816	4.77
399.176	4.73
399.535	4.67
399.895	4.62
400.255	4.59
400.615	4.6
400.975	4.59
401.334	4.59
401.694	4.54
402.054	4.53
402.413	4.49
402.773	4.43
403.132	4.37
403.492	4.39
403.851	4.34
404.211	4.33
404.57	4.26
404.929	4.28
405.288	4.24
405.648	4.22
406.007	4.25
406.366	4.27
406.725	4.24
407.084	4.24
407.443	4.22
407.802	4.23
408.161	4.18
408.52	4.19
408.879	4.15
409.238	4.16
409.596	4.14
409.955	4.15
410.314	4.19
410.673	4.17
411.031	4.12
411.39	4.14
411.748	4.11
412.107	4.15
412.465	4.13
412.824	4.12
413.182	4.13
413.54	4.12
413.899	4.11
414.257	4.14
414.615	4.11
414.974	4.13
415.332	4.1
415.69	4.1
416.048	4.05
416.406	4.07
416.764	4.03
417.122	4.01
417.48	3.98
417.838	3.94
418.195	3.93
418.553	3.94
418.911	3.92
419.269	3.93
419.626	3.9
419.984	3.89
420.342	3.88
420.699	3.85
421.057	3.85
421.414	3.82
421.772	3.8
422.129	3.78
422.486	3.75
422.844	3.74
423.201	3.71
423.558	3.71
423.915	3.66
424.273	3.66
424.63	3.63
424.987	3.63
425.344	3.64
425.701	3.64
426.058	3.63
426.415	3.62
426.772	3.59
427.128	3.59
427.485	3.58
427.842	3.57
428.199	3.56
428.555	3.52
428.912	3.52
429.269	3.53
429.625	3.52
429.982	3.5
430.338	3.47
430.695	3.48
431.051	3.45
431.407	3.46
431.764	3.46
432.12	3.48
432.476	3.48
432.832	3.46
433.189	3.48
433.545	3.47
433.901	3.45
434.257	3.46
434.613	3.47
434.969	3.46
435.325	3.47
435.681	3.5
436.036	3.51
436.392	3.51
436.748	3.49
437.104	3.49
437.459	3.5
437.815	3.52
438.171	3.55
438.526	3.56
438.882	3.6
439.237	3.61
439.593	3.62
439.948	3.61
440.304	3.64
440.659	3.62
441.014	3.63
441.369	3.63
441.725	3.63
442.08	3.63
442.435	3.62
442.79	3.61
443.145	3.59
443.5	3.59
443.855	3.58
444.21	3.56
444.565	3.58
444.92	3.58
445.275	3.57
445.629	3.56
445.984	3.55
446.339	3.52
446.693	3.49
447.048	3.48
447.403	3.47
447.757	3.45
448.112	3.44
448.466	3.42
448.82	3.43
449.175	3.4
449.529	3.39
449.883	3.39
450.238	3.36
450.592	3.35
450.946	3.32
451.3	3.31
451.654	3.33
452.008	3.31
452.362	3.29
452.716	3.28
453.07	3.28
453.424	3.28
453.778	3.29
454.132	3.28
454.486	3.27
454.839	3.26
455.193	3.22
455.547	3.24
455.9	3.25
456.254	3.25
456.607	3.25
456.961	3.23
457.314	3.24
457.668	3.27
458.021	3.27
458.375	3.3
458.728	3.31
459.081	3.31
459.434	3.3
459.787	3.32
460.141	3.32
460.494	3.33
460.847	3.34
461.2	3.34
461.553	3.35
461.906	3.37
462.259	3.37
462.611	3.41
462.964	3.41
463.317	3.43
463.67	3.43
464.022	3.46
464.375	3.48
464.728	3.51
465.08	3.52
465.433	3.54
465.785	3.54
466.138	3.55
466.49	3.56
466.843	3.58
467.195	3.59
467.547	3.61
467.899	3.6
468.252	3.62
468.604	3.65
468.956	3.64
469.308	3.66
469.66	3.7
470.012	3.7
470.364	3.7
470.716	3.72
471.068	3.74
471.42	3.73
471.772	3.75
472.123	3.75
472.475	3.76
472.827	3.78
473.178	3.78
473.53	3.79
473.882	3.79
474.233	3.8
474.585	3.77
474.936	3.76
475.288	3.76
475.639	3.75
475.99	3.75
476.342	3.75
476.693	3.73
477.044	3.73
477.395	3.74
477.746	3.74
478.097	3.71
478.448	3.71
478.8	3.7
479.15	3.68
479.501	3.67
479.852	3.65
480.203	3.62
480.554	3.64
480.905	3.64
481.255	3.63
481.606	3.65
481.957	3.67
482.307	3.67
482.658	3.66
483.009	3.66
483.359	3.65
483.709	3.65
484.06	3.65
484.41	3.64
484.761	3.64
485.111	3.62
485.461	3.62
485.811	3.62
486.162	3.62
486.512	3.63
486.862	3.63
487.212	3.63
487.562	3.64
487.912	3.63
488.262	3.63
488.612	3.64
488.961	3.63
489.311	3.63
489.661	3.62
490.011	3.63
490.36	3.63
490.71	3.63
491.06	3.63
491.409	3.64
491.759	3.64
492.108	3.64
492.458	3.67
492.807	3.66
493.157	3.67
493.506	3.68
493.855	3.7
494.204	3.7
494.554	3.73
494.903	3.74
495.252	3.75
495.601	3.78
495.95	3.8
496.299	3.83
496.648	3.85
496.997	3.89
497.346	3.94
497.695	4
498.043	4.03
498.392	4.08
498.741	4.12
499.09	4.18
499.438	4.23
499.787	4.27
500.135	4.36
500.484	4.4
500.832	4.46
501.181	4.52
501.529	4.6
501.878	4.68
502.226	4.8
502.574	4.89
502.923	4.96
503.271	5.04
503.619	5.14
503.967	5.25
504.315	5.33
504.663	5.45
505.011	5.55
505.359	5.67
505.707	5.81
506.055	5.95
506.403	6.11
506.751	6.26
507.098	6.42
507.446	6.56
507.794	6.72
508.141	6.89
508.489	7.05
508.837	7.23
509.184	7.41
509.531	7.56
509.879	7.76
510.226	7.97
510.574	8.16
510.921	8.34
511.268	8.55
511.616	8.76
511.963	8.97
512.31	9.21
512.657	9.45
513.004	9.72
513.351	9.96
513.698	10.23
514.045	10.52
514.392	10.82
514.739	11.15
515.086	11.46
515.432	11.75
515.779	12.03
516.126	12.33
516.473	12.61
516.819	12.91
517.166	13.18
517.512	13.44
517.859	13.69
518.205	13.95
518.552	14.22
518.898	14.48
519.245	14.74
519.591	14.97
519.937	15.24
520.283	15.49
520.629	15.79
520.976	16.11
521.322	16.4
521.668	16.73
522.014	17.04
522.36	17.37
522.706	17.72
523.052	18.09
523.398	18.48
523.743	18.88
524.089	19.24
524.435	19.6
524.781	19.97
525.126	20.33
525.472	20.61
525.817	20.93
526.163	21.2
526.509	21.44
526.854	21.68
527.199	21.93
527.545	22.13
527.89	22.35
528.235	22.55
528.581	22.8
528.926	23.03
529.271	23.25
529.616	23.48
529.961	23.72
530.306	23.95
530.651	24.19
530.996	24.44
531.341	24.72
531.686	25.01
532.031	25.28
532.376	25.54
532.721	25.86
533.065	26.11
533.41	26.42
533.755	26.73
534.099	27.06
534.444	27.36
534.788	27.68
535.133	27.99
535.477	28.29
535.822	28.57
536.166	28.86
536.51	29.19
536.855	29.56
537.199	29.92
537.543	30.32
537.887	30.68
538.231	31.04
538.576	31.43
538.92	31.77
539.264	32.11
539.608	32.45
539.951	32.79
540.295	33.1
540.639	33.39
540.983	33.69
541.327	33.94
541.671	34.2
542.014	34.45
542.358	34.71
542.701	34.99
543.045	35.27
543.389	35.51
543.732	35.78
544.075	36.05
544.419	36.33
544.762	36.58
545.105	36.86
545.449	37.17
545.792	37.45
546.135	37.78
546.478	38.1
546.821	38.41
547.165	38.69
547.508	39.02
547.851	39.34
548.194	39.67
548.536	39.99
548.879	40.32
549.222	40.65
549.565	40.95
549.908	41.27
550.25	41.57
550.593	41.91
550.936	42.2
551.278	42.47
551.621	42.75
551.963	43
552.306	43.3
552.648	43.57
552.991	43.83
553.333	44.08
553.675	44.35
554.017	44.63
554.36	44.9
554.702	45.11
555.044	45.32
555.386	45.53
555.728	45.76
556.07	46.01
556.412	46.28
556.754	46.51
557.096	46.62
557.438	46.82
557.78	47.03
558.121	47.3
558.463	47.61
558.805	47.82
559.147	48.09
559.488	48.26
559.83	48.45
560.171	48.69
560.513	48.82
560.854	48.97
561.196	49.13
561.537	49.31
561.878	49.49
562.22	49.69
562.561	49.92
562.902	50.12
563.243	50.24
563.584	50.38
563.925	50.53
564.266	50.78
564.607	50.94
564.948	51.11
565.289	51.23
565.63	51.31
565.971	51.43
566.312	51.62
566.653	51.75
566.993	51.92
567.334	52.02
567.675	52.18
568.015	52.35
568.356	52.5
568.696	52.62
569.037	52.74
569.377	52.86
569.718	52.97
570.058	53.08
570.398	53.24
570.739	53.34
571.079	53.49
571.419	53.54
571.759	53.68
572.099	53.81
572.439	53.89
572.779	53.97
573.119	54.09
573.459	54.17
573.799	54.32
574.139	54.42
574.479	54.52
574.819	54.63
575.158	54.72
575.498	54.82
575.838	54.96
576.177	55.04
576.517	55.16
576.856	55.26
577.196	55.36
577.535	55.45
577.875	55.55
578.214	55.61
578.553	55.79
578.893	55.88
579.232	55.95
579.571	56.1
579.91	56.22
580.25	56.43
580.589	56.49
580.928	56.64
581.267	56.68
581.606	56.84
581.945	56.93
582.283	57.01
582.622	57.13
582.961	57.21
583.3	57.35
583.639	57.49
583.977	57.67
584.316	57.77
584.654	57.86
584.993	58.05
585.332	58.19
585.67	58.35
586.008	58.45
586.347	58.55
586.685	58.62
587.024	58.68
587.362	58.66
587.7	58.78
588.038	58.82
588.376	58.94
588.715	58.97
589.053	59.12
589.391	59.18
589.729	59.26
590.067	59.26
590.404	59.3
590.742	59.37
591.08	59.35
591.418	59.42
591.756	59.48
592.093	59.51
592.431	59.57
592.769	59.58
593.106	59.58
593.444	59.56
593.781	59.68
594.119	59.79
594.456	59.87
594.793	59.86
595.131	59.91
595.468	59.97
595.805	60.05
596.143	60.09
596.48	60.15
596.817	60.24
597.154	60.34
597.491	60.43
597.828	60.41
598.165	60.49
598.502	60.55
598.839	60.6
599.176	60.61
599.512	60.62
599.849	60.75
600.186	60.83
600.523	60.94
600.859	61
601.196	61.1
601.532	61.21
601.869	61.3
602.205	61.35
602.542	61.42
602.878	61.41
603.215	61.4
603.551	61.49
603.887	61.42
604.223	61.48
604.56	61.5
604.896	61.62
605.232	61.63
605.568	61.67
605.904	61.73
606.24	61.82
606.576	61.85
606.912	61.78
607.248	61.81
607.583	61.88
607.919	61.89
608.255	61.93
608.591	61.98
608.926	62.02
609.262	62.05
609.597	62.05
609.933	62.15
610.268	62.23
610.604	62.26
610.939	62.35
611.275	62.35
611.61	62.37
611.945	62.38
612.281	62.47
612.616	62.55
612.951	62.64
613.286	62.72
613.621	62.86
613.956	62.98
614.291	63.06
614.626	63.15
614.961	63.13
615.296	63.23
615.631	63.18
615.966	63.21
616.3	63.26
616.635	63.31
616.97	63.28
617.304	63.29
617.639	63.29
617.973	63.32
618.308	63.37
618.642	63.45
618.977	63.45
619.311	63.47
619.646	63.52
619.98	63.56
620.314	63.54
620.648	63.45
620.983	63.51
621.317	63.62
621.651	63.57
621.985	63.65
622.319	63.56
622.653	63.64
622.987	63.68
623.321	63.8
623.655	63.75
623.988	63.81
624.322	63.9
624.656	64.01
624.99	64.11
625.323	64.13
625.657	64.13
625.99	64.13
626.324	64.11
626.657	64.06
626.991	64.01
627.324	63.93
627.658	64
627.991	63.99
628.324	63.94
628.657	64.03
628.991	64.08
629.324	64.14
629.657	64.12
629.99	64.15
630.323	64.11
630.656	64.17
630.989	64.23
631.322	64.24
631.655	64.18
631.987	64.15
632.32	64.17
632.653	64.22
632.986	64.24
633.318	64.19
633.651	64.2
633.984	64.22
634.316	64.28
634.649	64.36
634.981	64.36
635.313	64.37
635.646	64.36
635.978	64.38
636.31	64.47
636.643	64.53
636.975	64.61
637.307	64.62
637.639	64.63
637.971	64.6
638.303	64.59
638.635	64.71
638.967	64.8
639.299	64.78
639.631	64.76
639.963	64.78
640.295	64.8
640.626	64.87
640.958	65.06
641.29	65.07
641.621	65.18
641.953	65.3
642.285	65.2
642.616	65.3
642.948	65.38
643.279	65.31
643.61	65.25
643.942	65.28
644.273	65.27
644.604	65.31
644.936	65.39
645.267	65.45
645.598	65.41
645.929	65.28
646.26	65.32
646.591	65.37
646.922	65.41
647.253	65.56
647.584	65.59
647.915	65.44
648.245	65.53
648.576	65.57
648.907	65.55
649.238	65.79
649.568	65.71
649.899	65.63
650.229	65.61
650.56	65.66
650.89	65.67
651.221	65.77
651.551	65.75
651.882	65.65
652.212	65.74
652.542	65.78
652.872	65.77
653.203	65.72
653.533	65.66
653.863	65.67
654.193	65.6
654.523	65.55
654.853	65.72
655.183	65.76
655.513	65.67
655.843	65.66
656.172	65.63
656.502	65.63
656.832	65.63
657.162	65.61
657.491	65.72
657.821	65.66
658.15	65.53
658.48	65.66
658.809	65.69
659.139	65.56
659.468	65.52
659.798	65.55
660.127	65.7
660.456	65.77
660.785	65.81
661.115	65.96
661.444	66.04
661.773	65.96
662.102	65.91
662.431	65.91
662.76	66.01
663.089	66.08
663.418	66.18
663.747	66.27
664.076	66.37
664.404	66.42
664.733	66.52
665.062	66.51
665.39	66.54
665.719	66.66
666.048	66.82
666.376	66.85
666.705	67.02
667.033	67.03
667.362	67.01
667.69	67.01
668.018	66.91
668.347	66.78
668.675	66.68
669.003	66.56
669.331	66.53
669.659	66.35
669.987	66.34
670.315	66.26
670.643	66.12
670.971	66.06
671.299	65.95
671.627	65.95
671.955	66.09
672.283	66.12
672.61	66.07
672.938	65.9
673.266	66.05
673.593	66.03
673.921	65.93
674.249	66.12
674.576	65.93
674.904	65.98
675.231	66.01
675.558	66.19
675.886	66.28
676.213	66.17
676.54	66.33
676.867	66.23
677.195	66.4
677.522	66.55
677.849	66.58
678.176	66.61
678.503	66.59
678.83	66.66
679.157	66.48
679.484	66.54
679.81	66.7
680.137	66.66
680.464	66.64
680.791	66.72
681.117	66.71
681.444	66.86
681.771	66.89
682.097	66.92
682.424	66.77
682.75	66.76
683.077	66.93
683.403	66.91
683.729	66.95
684.056	66.85
684.382	66.77
684.708	66.83
685.034	66.75
685.36	66.68
685.686	66.56
686.012	66.53
686.339	66.54
686.664	66.37
686.99	66.26
687.316	66.19
687.642	66.09
687.968	65.91
688.294	66.04
688.619	65.92
688.945	65.86
689.271	66.01
689.596	66.18
689.922	66.12
690.247	66.16
690.573	66.19
690.898	66.3
691.224	66.39
691.549	66.39
691.874	66.48
692.2	66.63
692.525	66.71
692.85	66.91
693.175	66.94
693.5	67.01
693.825	66.95
694.15	67.01
694.475	67.11
694.8	67.24
695.125	67.12
695.45	67.14
695.775	67.2
696.099	67.18
696.424	67.01
696.749	67.14
697.073	67.02
697.398	66.86
697.723	66.88
698.047	66.97
698.372	66.94
698.696	66.82
699.02	66.76
699.345	66.76
699.669	66.8
699.993	66.83
700.318	66.91
700.642	67.01
700.966	66.97
701.29	66.85
701.614	66.7
701.938	66.71
702.262	66.74
702.586	66.9
702.91	66.94
703.234	66.96
703.557	66.89
703.881	66.93
704.205	67.09
704.529	66.96
704.852	66.8
705.176	66.86
705.499	66.94
705.823	66.88
706.146	67.05
706.47	66.99
706.793	66.83
707.117	66.73
707.44	66.73
707.763	66.77
708.086	66.86
708.409	66.89
708.733	66.78
709.056	66.8
709.379	66.68
709.702	66.67
710.025	66.79
710.348	66.83
710.671	66.9
710.993	66.9
711.316	67.04
711.639	67.12
711.962	67.04
712.284	66.94
712.607	66.9
712.93	66.74
713.252	66.67
713.575	66.64
713.897	66.86
714.22	66.94
714.542	66.96
714.864	67.09
715.187	67.25
715.509	67.53
715.831	67.55
716.153	67.53
716.475	67.47
716.798	67.47
717.12	67.43
717.442	67.4
717.764	67.47
718.085	67.36
718.407	67.27
718.729	67.39
719.051	67.48
719.373	67.48
719.695	67.48
720.016	67.62
720.338	67.59
720.659	67.25
720.981	67.23
721.302	67.11
721.624	67.27
721.945	67.04
722.267	66.89
722.588	66.88
722.909	67.08
723.231	67.05
723.552	66.93
723.873	66.72
724.194	66.76
724.515	66.47
724.836	66.39
725.157	66.21
725.478	65.83
725.799	66.15
726.12	66.2
726.441	66.23
726.762	66.16
727.083	66.26
727.403	66.28
727.724	66.2
728.045	66.33
728.365	66.18
728.686	66.04
729.006	65.91
729.327	65.77
729.647	65.58
729.967	65.67
730.288	65.78
730.608	65.66
730.928	65.75
731.249	65.99
731.569	65.99
731.889	66.01
732.209	66.28
732.529	65.93
732.849	65.92
733.169	65.71
733.489	65.66
733.809	65.62
734.129	65.87
734.448	65.86
734.768	65.78
735.088	65.71
735.408	66.04
735.727	65.99
736.047	66.18
736.366	66.08
736.686	65.96
737.005	66.12
737.325	66.57
737.644	66.48
737.963	66.18
738.283	66.22
738.602	66.41
738.921	66.42
739.24	66.44
739.56	66.31
739.879	66.41
740.198	66.29
740.517	66.34
740.836	66.36
741.155	66.34
741.473	66.48
741.792	66.55
742.111	66.51
742.43	66.65
742.748	66.75
743.067	66.72
743.386	66.8
743.704	66.7
744.023	66.7
744.341	66.48
744.66	66.82
744.978	66.9
745.297	66.68
745.615	66.51
745.933	66.79
746.252	66.84
746.57	66.98
746.888	66.99
747.206	66.89
747.524	66.9
747.842	66.76
748.16	66.49
748.478	66.6
748.796	66.38
749.114	66.61
749.432	66.43
749.749	66.69
750.067	67.04
750.385	66.74
750.703	66.71
751.02	67
751.338	67.14
751.655	67.46
751.973	67.65
752.29	67.88
752.608	67.74
752.925	68.34
753.242	68.31
753.56	68.27
753.877	68.22
754.194	67.75
754.511	67.89
754.828	68.33
755.145	67.97
755.462	68.21
755.779	67.75
756.096	67.78
756.413	68.18
756.73	67.96
757.047	68.4
757.364	68.17
757.68	68.16
757.997	67.76
758.314	67.23
758.63	67.25
758.947	67.36
759.264	67.42
759.58	67.06
759.896	67.03
760.213	67.28
760.529	67.54
760.846	67.89
761.162	67.66
761.478	67.29
761.794	67.38
762.11	67.52
762.426	67.63
762.743	67.84
763.059	67.63
763.375	67.72
763.69	67.51
764.006	67.54
764.322	67.48
764.638	67.6
764.954	67.6
765.27	67.54
765.585	67.64
765.901	67.81
766.216	67.79
766.532	67.9
766.848	67.73
767.163	67.65
767.478	67.5
767.794	67.73
768.109	67.79
768.424	67.76
768.74	67.49
769.055	67.62
769.37	67.26
769.685	67.14
770	67.04
770.315	67.19
770.63	67.44
770.945	67.44
771.26	67.52
771.575	67.38
771.89	67.22
772.205	66.95
772.52	66.78
772.834	67
773.149	67.12
773.464	67.11
773.778	67.05
774.093	66.7
774.407	66.49
774.722	66.9
775.036	67.2
775.351	67.07
775.665	67.02
775.979	67.25
776.293	67.1
776.608	66.8
776.922	66.52
777.236	66.13
777.55	66.28
777.864	66.08
778.178	66.5
778.492	66.65
778.806	66.75
779.12	66.59
779.434	66.72
779.747	66.93
780.061	66.65
780.375	67.22
780.689	67.25
781.002	66.85
781.316	66.25
781.629	66.07
781.943	66.32
782.256	66.24
782.57	65.87
782.883	65.84
783.196	65.88
783.51	66.13
783.823	66.42
784.136	66.15
784.449	66.57
784.762	66.74
785.075	66.8
785.388	66.63
785.701	66.85
786.014	66.86
786.327	66.64
786.64	67.43
786.953	66.75
787.266	67.12
787.578	67.73
787.891	67.84
788.204	67.53
788.516	67.38
788.829	67.22
789.141	67.79
789.454	67.74
789.766	67.74
790.079	67.25
790.391	66.79
790.703	67.17
791.016	67.27
791.328	66.95
791.64	66.84
791.952	66.69
792.264	66.95
792.576	66.66
792.888	66.29
793.2	65.66
793.512	66.03
793.824	66.53
794.136	66.85
794.448	67.17
794.76	67.32
795.071	67.16
795.383	67.25
795.695	66.86
796.006	67.27
796.318	67.75
796.629	68.47
796.941	69
797.252	68.25
797.564	67.8
797.875	68.44
798.186	68.03
798.497	68.91
798.809	67.96
799.12	67.94
799.431	68.22
799.742	67.92
800.053	67.44
800.364	66.78
800.675	66.76
800.986	66.58
801.297	66.53
801.608	66.9
801.918	67.67
802.229	68.13
802.54	68.07
802.851	67.75
803.161	67.13
803.472	67.16
803.782	67.76
804.093	68.08
804.403	67.44
804.714	68.3
805.024	67.43
805.334	67.78
805.645	67.67
805.955	67.73
806.265	68.3
806.575	68.63
806.885	69.14
807.195	68.97
807.505	69.28
807.815	69.36
808.125	69.49
808.435	69.07
808.745	69.18
809.055	69.25
809.365	68.93
809.674	69.48
809.984	68.53
810.294	68.61
810.603	69.03
810.913	68.37
811.222	67.95
811.532	67.39
811.841	67.53
812.151	67.93
812.46	67.67
812.769	67.55
813.079	67.94
813.388	67.28
813.697	67.21
814.006	66.86
814.315	67.03
814.624	67.01
814.933	66.98
815.242	66.91
815.551	66.64
815.86	66.69
816.169	66.62
816.478	67.32
816.786	67.09
817.095	66.12
817.404	66.15
817.712	66.42
818.021	67.73
818.33	67.36
818.638	67.2
818.947	67.48
819.255	67.65
819.563	67.6
819.872	67.9
820.18	68.01
820.488	68.34
820.796	68.2
821.105	68.43
821.413	68.22
821.721	68.13
822.029	68.5
822.337	68.55
822.645	68.68
822.953	68.84
823.26	68.74
823.568	68.74
823.876	69.01
824.184	69.01
824.491	68.86
824.799	69.04
825.107	68.94
825.414	68.88
825.722	69.09
826.029	69.16
826.337	69.2
826.644	68.99
826.951	68.75
827.259	68.86
827.566	68.6
827.873	68.91
828.18	68.95
828.488	68.76
828.795	68.69
829.102	68.4
829.409	68.06
829.716	67.76
830.023	67.86
830.329	67.52
830.636	67.36
830.943	66.99
831.25	67.06
831.557	66.95
831.863	67
832.17	66.89
832.476	66.95
832.783	67.38
833.089	67.99
833.396	68.89
833.702	69.09
834.009	69.51
834.315	69.46
834.621	69.48
834.928	69.51
835.234	69.71
835.54	70.07
835.846	70.5
836.152	71.43
836.458	71.15
836.764	71.44
837.07	71.81
837.376	71.68
837.682	71.64
837.988	72.47
838.293	73.19
838.599	73.33
838.905	72.64
839.211	71.96
839.516	71.81
839.822	70.68
840.127	70.85
840.433	70.91
840.738	70.42
841.044	70.41
841.349	70.88
841.654	71.91
841.959	71.56
842.265	72.26
842.57	72.01
842.875	73.33
843.18	73.36
843.485	72.94
843.79	75.44
844.095	74.78
844.4	75.92
844.705	73.72
845.01	73.38
845.315	75.87
845.619	74.66
845.924	74.18
846.229	75.05
846.533	74.59
846.838	72.73
847.142	73.02
847.447	71.67
847.751	71.05
848.056	69.3
848.36	70.77
848.664	69.1
848.969	69.73
849.273	68.79
849.577	69.32
849.881	69.63
850.185	68.35
850.489	70.64
850.794	68.71
851.097	69.15
851.401	69.65
851.705	66.44
852.009	68.85
852.313	68.54
852.617	66.87
852.92	66.95
853.224	68.68
853.528	68.53
853.831	68.94
854.135	70.84
854.438	72.01
854.742	71.68
855.045	70.07
855.349	68.43
855.652	68.15
855.955	68.59
856.259	69.05
856.562	67.26
856.865	66.91
857.168	65.1
857.471	67.12
857.774	65.27
858.077	65.46
858.38	65.05
858.683	66.29
858.986	67.6
859.289	68.01
859.592	68.42
859.894	69.14
860.197	70.31
860.5	67.05
860.802	65.8
861.105	66.03
861.407	66.14
861.71	65.99
862.012	67.56
862.315	61.59
862.617	61.18
862.919	62.37
863.222	60.31
863.524	62.44
863.826	61.81
864.128	62.65
864.43	61.76
864.732	63.73
865.034	62.98
865.336	61.88
865.638	61.44
865.94	60.02
866.242	58.56
866.544	59.67
866.846	58.9
867.147	58.28
867.449	57.19
867.751	58.78
868.052	58.49
868.354	57.37
868.655	62.04
868.957	61.9
869.258	61.7
869.56	61.64
869.861	61.59
870.162	63.22
870.463	63.43
870.765	64.12
871.066	63.35
871.367	64.83
871.668	65.32
871.969	63.68
872.27	62.54
872.571	63.15
872.872	61.2
873.173	63.08
873.473	66.42
873.774	66.56
874.075	66.61
874.376	69.13
874.676	71.14
874.977	69.54
875.277	69.45
875.578	70.15
875.878	71.7
876.179	70.68
876.479	68.86
876.78	68.53
877.08	70.26
877.38	68.91
877.68	67.97
877.981	68.95
878.281	71.33
878.581	75.94
