Data from BU26851_Reflection_00003.txt Node
Date: Mon Nov 18 16:48:08 EST 2019
User: vgr7
Spectrometer: USB2G7710
Scans to average: 3
Trigger mode: 4
Integration Time (sec): 2.000000E-2
Electric dark correction enabled: true
Boxcar width: 10
XAxis mode: Wavelengths
Number of Pixels in Spectrum: 2048
>>>>>Begin Spectral Data<<<<<
177.721	-572.33
178.105	1640.54
178.488	-3507.59
178.871	385.12
179.254	-967.8
179.636	225.48
180.019	-1171.19
180.402	91.67
180.785	-20.17
181.168	27.24
181.55	204.9
181.933	135.29
182.316	181.41
182.698	164.34
183.081	255.91
183.463	-1724.74
183.846	-312.14
184.228	-4835.48
184.611	970.97
184.993	1981.36
185.376	11.64
185.758	41.43
186.14	112.55
186.522	302.57
186.904	-4155.81
187.287	1033.01
187.669	-1586.39
188.051	1829.06
188.433	-3260.9
188.815	-410.35
189.197	-551.6
189.579	-487.82
189.961	-439
190.342	-397.42
190.724	-388.68
191.106	-595.61
191.488	-2414.17
191.869	5436.28
192.251	-2256.4
192.633	62009.09
193.014	-5403.94
193.396	-965.19
193.777	-2464.95
194.159	-2737.29
194.54	-1860.19
194.922	-14900
195.303	-2241.69
195.684	-3397.24
196.065	-1629.64
196.447	-1558.15
196.828	-1420.78
197.209	-2435.91
197.59	16341.38
197.971	2751.61
198.352	-1160.59
198.733	-943.2
199.114	-618.54
199.495	-474.72
199.876	-388.16
200.257	-323.1
200.638	-233.7
201.018	-262.34
201.399	-279.41
201.78	-192.01
202.16	-200.13
202.541	-230.77
202.922	-248.2
203.302	-316.99
203.683	-371.45
204.063	-507.17
204.444	-551.26
204.824	-754.5
205.204	-384.24
205.585	-339.24
205.965	-342.39
206.345	-763.91
206.725	-1454.22
207.106	-3752.07
207.486	3188.67
207.866	2138.33
208.246	842.31
208.626	743.13
209.006	3254.84
209.386	3164.86
209.766	11364.15
210.145	1438.9
210.525	3897.2
210.905	-1370.91
211.285	-850.44
211.664	-477.8
212.044	-270.75
212.424	-226.76
212.803	-207.43
213.183	-159.29
213.562	-128.58
213.942	-100.53
214.321	-90.66
214.701	-80.29
215.08	-78.58
215.459	-67.17
215.838	-71.69
216.218	-89.66
216.597	-75.27
216.976	-87.65
217.355	-68.43
217.734	-69.49
218.113	-55.54
218.492	-42.02
218.871	-45.99
219.25	-47.43
219.629	-49.33
220.008	-58.56
220.387	-62.43
220.766	-65.84
221.144	-112.92
221.523	-166.05
221.902	-173.75
222.28	-154.29
222.659	-141.34
223.037	-111.49
223.416	-113.19
223.794	-88.54
224.173	-70.22
224.551	-57.89
224.929	-57.79
225.308	-46.63
225.686	-40.65
226.064	-34.08
226.442	-39.59
226.821	-34.23
227.199	-32.69
227.577	-32.14
227.955	-28.43
228.333	-26
228.711	-21.4
229.089	-12.23
229.467	-13.86
229.845	-13.92
230.222	-15.5
230.6	-16.17
230.978	-15.43
231.356	-9.87
231.733	-10.16
232.111	-8.97
232.488	-7.55
232.866	-7.2
233.243	-5.96
233.621	-6.16
233.998	-5.78
234.376	-5.02
234.753	-5.2
235.13	-5.37
235.508	-4.47
235.885	-4.65
236.262	-6.04
236.639	-7.15
237.016	-8.12
237.393	-4.82
237.77	-4.16
238.147	-1.42
238.524	-1.07
238.901	-0.91
239.278	-1.34
239.655	-0.51
240.032	-0.26
240.409	-1.42
240.785	-1.13
241.162	-1.52
241.539	-1.29
241.915	-1.06
242.292	-1.35
242.668	-0.72
243.045	-0.01
243.421	0.1
243.798	0.49
244.174	0.97
244.551	1.12
244.927	1.18
245.303	1.28
245.679	1.64
246.056	1.52
246.432	1.48
246.808	1.67
247.184	1.32
247.56	1.24
247.936	1.1
248.312	1.48
248.688	1.62
249.064	1.72
249.44	1.81
249.815	1.65
250.191	1.92
250.567	1.65
250.943	1.62
251.318	1.84
251.694	1.79
252.069	1.91
252.445	1.94
252.82	2.13
253.196	1.88
253.571	1.54
253.947	1.45
254.322	1.76
254.697	1.7
255.073	1.95
255.448	2.03
255.823	2.18
256.198	2.21
256.573	2.24
256.948	2.3
257.323	2.33
257.698	2.45
258.073	2.24
258.448	2.45
258.823	2.63
259.198	2.61
259.573	2.46
259.948	2.2
260.322	2.28
260.697	2.07
261.072	1.97
261.446	1.96
261.821	2.04
262.195	1.98
262.57	1.84
262.944	1.95
263.319	1.78
263.693	1.71
264.067	1.67
264.442	1.71
264.816	1.6
265.19	1.56
265.564	1.68
265.938	1.69
266.313	1.64
266.687	1.61
267.061	1.56
267.435	1.84
267.809	1.99
268.183	1.9
268.556	2.17
268.93	2.38
269.304	2.18
269.678	2.27
270.051	2.14
270.425	2.25
270.799	2.26
271.172	2.45
271.546	2.55
271.919	2.54
272.293	2.35
272.666	2.6
273.04	2.64
273.413	2.52
273.787	2.65
274.16	2.63
274.533	2.44
274.906	2.39
275.279	2.36
275.653	2.38
276.026	2.35
276.399	2.26
276.772	2.23
277.145	2.45
277.518	2.27
277.891	2.5
278.263	2.4
278.636	2.25
279.009	2.11
279.382	2.22
279.755	2.18
280.127	2.29
280.5	2.24
280.872	2.34
281.245	2.39
281.617	2.59
281.99	2.73
282.362	2.89
282.735	2.78
283.107	2.8
283.479	2.83
283.852	2.78
284.224	2.84
284.596	2.88
284.968	2.92
285.34	2.99
285.713	2.94
286.085	3.03
286.457	3.15
286.829	3.13
287.201	3.08
287.572	3.01
287.944	3
288.316	2.85
288.688	2.78
289.06	2.69
289.431	2.61
289.803	2.48
290.175	2.41
290.546	2.61
290.918	2.64
291.289	2.62
291.661	2.79
292.032	2.83
292.403	2.86
292.775	2.86
293.146	2.84
293.517	2.84
293.889	2.98
294.26	2.92
294.631	2.95
295.002	2.91
295.373	3.01
295.744	3.1
296.115	3.28
296.486	3.24
296.857	3.33
297.228	3.34
297.599	3.32
297.97	3.29
298.34	3.29
298.711	3.2
299.082	3.2
299.452	3.07
299.823	3.11
300.194	3.2
300.564	3.26
300.935	3.34
301.305	3.27
301.676	3.17
302.046	3.26
302.416	3.44
302.787	3.49
303.157	3.6
303.527	3.49
303.897	3.38
304.267	3.64
304.637	3.67
305.008	3.7
305.378	3.76
305.748	3.81
306.117	3.89
306.487	3.96
306.857	3.97
307.227	4.09
307.597	3.96
307.967	3.93
308.336	3.91
308.706	3.84
309.076	3.98
309.445	4.04
309.815	3.96
310.184	3.82
310.554	3.76
310.923	3.67
311.293	3.66
311.662	3.72
312.031	3.67
312.401	3.65
312.77	3.65
313.139	3.64
313.508	3.69
313.877	3.47
314.246	3.54
314.616	3.54
314.985	3.5
315.353	3.43
315.722	3.43
316.091	3.31
316.46	3.32
316.829	3.26
317.198	3.12
317.567	3.08
317.935	3.08
318.304	3.16
318.672	3.16
319.041	3.19
319.41	3.25
319.778	3.02
320.147	2.94
320.515	2.7
320.883	2.54
321.252	2.49
321.62	2.61
321.988	2.43
322.357	2.54
322.725	2.42
323.093	2.51
323.461	2.41
323.829	2.46
324.197	2.47
324.565	2.39
324.933	2.59
325.301	2.7
325.669	2.61
326.037	2.57
326.405	2.5
326.772	2.55
327.14	2.46
327.508	2.52
327.875	2.5
328.243	2.79
328.61	3.01
328.978	3.11
329.346	3.17
329.713	3.23
330.08	3.14
330.448	3.1
330.815	3
331.182	2.94
331.55	2.95
331.917	3
332.284	3.13
332.651	3.09
333.018	3.09
333.385	3.2
333.752	3.29
334.119	3.39
334.486	3.33
334.853	3.37
335.22	3.38
335.587	3.46
335.954	3.28
336.32	3.24
336.687	3.23
337.054	3.22
337.42	3.37
337.787	3.45
338.153	3.6
338.52	3.75
338.886	3.63
339.253	3.65
339.619	3.63
339.986	3.53
340.352	3.46
340.718	3.35
341.084	3.37
341.451	3.33
341.817	3.26
342.183	3.33
342.549	3.3
342.915	3.3
343.281	3.32
343.647	3.28
344.013	3.19
344.379	3.17
344.745	3.15
345.11	2.93
345.476	2.95
345.842	2.87
346.208	2.91
346.573	3.04
346.939	3.13
347.304	3.06
347.67	3.09
348.035	3.06
348.401	3.06
348.766	3.03
349.132	3.1
349.497	3.09
349.862	3.17
350.228	3.19
350.593	3.11
350.958	3.11
351.323	3.21
351.688	3.23
352.053	3.3
352.418	3.39
352.783	3.52
353.148	3.47
353.513	3.49
353.878	3.47
354.243	3.5
354.608	3.43
354.972	3.46
355.337	3.48
355.702	3.52
356.066	3.64
356.431	3.62
356.795	3.57
357.16	3.61
357.524	3.51
357.889	3.52
358.253	3.6
358.618	3.6
358.982	3.51
359.346	3.45
359.71	3.39
360.075	3.39
360.439	3.47
360.803	3.5
361.167	3.53
361.531	3.49
361.895	3.45
362.259	3.43
362.623	3.44
362.987	3.38
363.351	3.36
363.714	3.41
364.078	3.4
364.442	3.4
364.806	3.47
365.169	3.52
365.533	3.46
365.896	3.44
366.26	3.42
366.623	3.42
366.987	3.5
367.35	3.52
367.714	3.56
368.077	3.42
368.44	3.48
368.803	3.45
369.167	3.45
369.53	3.43
369.893	3.49
370.256	3.48
370.619	3.51
370.982	3.51
371.345	3.41
371.708	3.47
372.071	3.44
372.434	3.41
372.797	3.42
373.159	3.5
373.522	3.53
373.885	3.62
374.247	3.69
374.61	3.7
374.973	3.67
375.335	3.66
375.698	3.71
376.06	3.64
376.423	3.64
376.785	3.65
377.147	3.71
377.51	3.66
377.872	3.71
378.234	3.74
378.596	3.8
378.958	3.82
379.321	3.78
379.683	3.78
380.045	3.77
380.407	3.7
380.769	3.71
381.13	3.71
381.492	3.69
381.854	3.69
382.216	3.64
382.578	3.66
382.939	3.63
383.301	3.61
383.663	3.6
384.024	3.59
384.386	3.61
384.747	3.6
385.109	3.61
385.47	3.58
385.832	3.6
386.193	3.56
386.554	3.59
386.916	3.63
387.277	3.67
387.638	3.67
387.999	3.71
388.36	3.66
388.721	3.66
389.082	3.63
389.443	3.62
389.804	3.62
390.165	3.63
390.526	3.66
390.887	3.62
391.248	3.65
391.609	3.67
391.969	3.68
392.33	3.68
392.691	3.66
393.051	3.66
393.412	3.68
393.772	3.67
394.133	3.63
394.493	3.62
394.854	3.59
395.214	3.59
395.574	3.61
395.935	3.62
396.295	3.61
396.655	3.59
397.015	3.6
397.376	3.59
397.736	3.58
398.096	3.58
398.456	3.62
398.816	3.61
399.176	3.6
399.535	3.58
399.895	3.58
400.255	3.63
400.615	3.58
400.975	3.55
401.334	3.56
401.694	3.58
402.054	3.57
402.413	3.61
402.773	3.61
403.132	3.58
403.492	3.57
403.851	3.58
404.211	3.63
404.57	3.63
404.929	3.65
405.288	3.65
405.648	3.64
406.007	3.63
406.366	3.64
406.725	3.68
407.084	3.71
407.443	3.69
407.802	3.68
408.161	3.71
408.52	3.7
408.879	3.72
409.238	3.75
409.596	3.75
409.955	3.75
410.314	3.75
410.673	3.75
411.031	3.77
411.39	3.76
411.748	3.71
412.107	3.74
412.465	3.74
412.824	3.74
413.182	3.75
413.54	3.75
413.899	3.77
414.257	3.76
414.615	3.75
414.974	3.76
415.332	3.75
415.69	3.78
416.048	3.78
416.406	3.78
416.764	3.76
417.122	3.79
417.48	3.79
417.838	3.78
418.195	3.79
418.553	3.78
418.911	3.79
419.269	3.81
419.626	3.79
419.984	3.79
420.342	3.8
420.699	3.78
421.057	3.77
421.414	3.77
421.772	3.76
422.129	3.77
422.486	3.76
422.844	3.77
423.201	3.76
423.558	3.76
423.915	3.75
424.273	3.76
424.63	3.75
424.987	3.73
425.344	3.74
425.701	3.74
426.058	3.75
426.415	3.77
426.772	3.76
427.128	3.77
427.485	3.77
427.842	3.77
428.199	3.79
428.555	3.78
428.912	3.79
429.269	3.8
429.625	3.76
429.982	3.76
430.338	3.77
430.695	3.77
431.051	3.77
431.407	3.78
431.764	3.78
432.12	3.76
432.476	3.79
432.832	3.78
433.189	3.77
433.545	3.75
433.901	3.72
434.257	3.71
434.613	3.72
434.969	3.72
435.325	3.73
435.681	3.73
436.036	3.72
436.392	3.7
436.748	3.69
437.104	3.71
437.459	3.72
437.815	3.72
438.171	3.71
438.526	3.73
438.882	3.75
439.237	3.74
439.593	3.76
439.948	3.74
440.304	3.75
440.659	3.75
441.014	3.75
441.369	3.75
441.725	3.76
442.08	3.75
442.435	3.75
442.79	3.74
443.145	3.73
443.5	3.75
443.855	3.76
444.21	3.76
444.565	3.77
444.92	3.77
445.275	3.77
445.629	3.77
445.984	3.77
446.339	3.75
446.693	3.74
447.048	3.74
447.403	3.74
447.757	3.73
448.112	3.71
448.466	3.71
448.82	3.73
449.175	3.73
449.529	3.73
449.883	3.74
450.238	3.75
450.592	3.75
450.946	3.73
451.3	3.72
451.654	3.73
452.008	3.74
452.362	3.74
452.716	3.75
453.07	3.76
453.424	3.77
453.778	3.78
454.132	3.79
454.486	3.79
454.839	3.81
455.193	3.8
455.547	3.82
455.9	3.84
456.254	3.84
456.607	3.83
456.961	3.81
457.314	3.8
457.668	3.81
458.021	3.82
458.375	3.84
458.728	3.85
459.081	3.84
459.434	3.84
459.787	3.82
460.141	3.82
460.494	3.82
460.847	3.83
461.2	3.81
461.553	3.81
461.906	3.81
462.259	3.79
462.611	3.8
462.964	3.83
463.317	3.81
463.67	3.81
464.022	3.81
464.375	3.82
464.728	3.81
465.08	3.79
465.433	3.79
465.785	3.77
466.138	3.76
466.49	3.78
466.843	3.76
467.195	3.78
467.547	3.78
467.899	3.77
468.252	3.76
468.604	3.79
468.956	3.79
469.308	3.79
469.66	3.8
470.012	3.8
470.364	3.81
470.716	3.79
471.068	3.79
471.42	3.8
471.772	3.81
472.123	3.83
472.475	3.84
472.827	3.84
473.178	3.88
473.53	3.87
473.882	3.86
474.233	3.86
474.585	3.83
474.936	3.84
475.288	3.86
475.639	3.86
475.99	3.84
476.342	3.83
476.693	3.83
477.044	3.83
477.395	3.83
477.746	3.81
478.097	3.82
478.448	3.83
478.8	3.84
479.15	3.84
479.501	3.82
479.852	3.84
480.203	3.85
480.554	3.84
480.905	3.86
481.255	3.86
481.606	3.88
481.957	3.91
482.307	3.9
482.658	3.9
483.009	3.91
483.359	3.92
483.709	3.93
484.06	3.93
484.41	3.95
484.761	3.95
485.111	3.95
485.461	3.96
485.811	3.96
486.162	3.96
486.512	3.97
486.862	3.98
487.212	3.98
487.562	3.98
487.912	3.99
488.262	3.98
488.612	3.99
488.961	3.99
489.311	3.98
489.661	3.99
490.011	3.98
490.36	3.98
490.71	3.98
491.06	3.97
491.409	3.97
491.759	3.96
492.108	3.95
492.458	3.93
492.807	3.92
493.157	3.92
493.506	3.93
493.855	3.92
494.204	3.92
494.554	3.92
494.903	3.91
495.252	3.89
495.601	3.87
495.95	3.87
496.299	3.85
496.648	3.86
496.997	3.84
497.346	3.84
497.695	3.85
498.043	3.85
498.392	3.86
498.741	3.87
499.09	3.87
499.438	3.89
499.787	3.91
500.135	3.93
500.484	3.94
500.832	3.94
501.181	3.95
501.529	3.96
501.878	3.99
502.226	4.02
502.574	4.04
502.923	4.05
503.271	4.03
503.619	4.03
503.967	4.04
504.315	4.05
504.663	4.07
505.011	4.08
505.359	4.07
505.707	4.08
506.055	4.08
506.403	4.09
506.751	4.07
507.098	4.07
507.446	4.06
507.794	4.02
508.141	4.03
508.489	4.04
508.837	4.02
509.184	4.01
509.531	4.01
509.879	4.03
510.226	4.05
510.574	4.07
510.921	4.08
511.268	4.08
511.616	4.08
511.963	4.09
512.31	4.1
512.657	4.12
513.004	4.12
513.351	4.12
513.698	4.12
514.045	4.15
514.392	4.17
514.739	4.18
515.086	4.2
515.432	4.18
515.779	4.17
516.126	4.18
516.473	4.18
516.819	4.19
517.166	4.17
517.512	4.16
517.859	4.16
518.205	4.16
518.552	4.18
518.898	4.17
519.245	4.17
519.591	4.16
519.937	4.14
520.283	4.14
520.629	4.13
520.976	4.14
521.322	4.15
521.668	4.15
522.014	4.14
522.36	4.16
522.706	4.15
523.052	4.18
523.398	4.17
523.743	4.18
524.089	4.19
524.435	4.2
524.781	4.21
525.126	4.21
525.472	4.22
525.817	4.23
526.163	4.24
526.509	4.26
526.854	4.27
527.199	4.28
527.545	4.29
527.89	4.3
528.235	4.31
528.581	4.31
528.926	4.31
529.271	4.33
529.616	4.31
529.961	4.33
530.306	4.33
530.651	4.34
530.996	4.35
531.341	4.34
531.686	4.35
532.031	4.36
532.376	4.37
532.721	4.38
533.065	4.38
533.41	4.38
533.755	4.36
534.099	4.35
534.444	4.36
534.788	4.36
535.133	4.35
535.477	4.35
535.822	4.34
536.166	4.33
536.51	4.32
536.855	4.34
537.199	4.34
537.543	4.34
537.887	4.34
538.231	4.34
538.576	4.34
538.92	4.35
539.264	4.33
539.608	4.35
539.951	4.34
540.295	4.33
540.639	4.33
540.983	4.35
541.327	4.36
541.671	4.34
542.014	4.32
542.358	4.32
542.701	4.32
543.045	4.32
543.389	4.34
543.732	4.34
544.075	4.35
544.419	4.35
544.762	4.38
545.105	4.37
545.449	4.38
545.792	4.39
546.135	4.39
546.478	4.42
546.821	4.4
547.165	4.4
547.508	4.43
547.851	4.43
548.194	4.43
548.536	4.42
548.879	4.47
549.222	4.48
549.565	4.5
549.908	4.52
550.25	4.55
550.593	4.56
550.936	4.53
551.278	4.53
551.621	4.52
551.963	4.52
552.306	4.52
552.648	4.52
552.991	4.53
553.333	4.5
553.675	4.48
554.017	4.47
554.36	4.49
554.702	4.49
555.044	4.49
555.386	4.5
555.728	4.52
556.07	4.51
556.412	4.5
556.754	4.48
557.096	4.48
557.438	4.48
557.78	4.5
558.121	4.53
558.463	4.53
558.805	4.53
559.147	4.5
559.488	4.47
559.83	4.46
560.171	4.45
560.513	4.48
560.854	4.52
561.196	4.57
561.537	4.56
561.878	4.57
562.22	4.55
562.561	4.52
562.902	4.51
563.243	4.51
563.584	4.51
563.925	4.54
564.266	4.52
564.607	4.49
564.948	4.46
565.289	4.45
565.63	4.45
565.971	4.47
566.312	4.48
566.653	4.53
566.993	4.54
567.334	4.56
567.675	4.53
568.015	4.53
568.356	4.48
568.696	4.46
569.037	4.45
569.377	4.48
569.718	4.49
570.058	4.49
570.398	4.48
570.739	4.49
571.079	4.47
571.419	4.48
571.759	4.49
572.099	4.52
572.439	4.53
572.779	4.51
573.119	4.51
573.459	4.53
573.799	4.51
574.139	4.5
574.479	4.48
574.819	4.47
575.158	4.46
575.498	4.48
575.838	4.48
576.177	4.5
576.517	4.48
576.856	4.5
577.196	4.5
577.535	4.52
577.875	4.55
578.214	4.57
578.553	4.59
578.893	4.57
579.232	4.58
579.571	4.58
579.91	4.59
580.25	4.58
580.589	4.58
580.928	4.58
581.267	4.56
581.606	4.58
581.945	4.59
582.283	4.58
582.622	4.61
582.961	4.65
583.3	4.61
583.639	4.66
583.977	4.66
584.316	4.63
584.654	4.6
584.993	4.57
585.332	4.53
585.67	4.5
586.008	4.47
586.347	4.48
586.685	4.47
587.024	4.5
587.362	4.48
587.7	4.47
588.038	4.5
588.376	4.54
588.715	4.52
589.053	4.56
589.391	4.51
589.729	4.51
590.067	4.47
590.404	4.47
590.742	4.47
591.08	4.44
591.418	4.49
591.756	4.5
592.093	4.5
592.431	4.5
592.769	4.51
593.106	4.53
593.444	4.5
593.781	4.51
594.119	4.52
594.456	4.55
594.793	4.54
595.131	4.52
595.468	4.51
595.805	4.52
596.143	4.52
596.48	4.55
596.817	4.58
597.154	4.6
597.491	4.58
597.828	4.54
598.165	4.57
598.502	4.52
598.839	4.57
599.176	4.58
599.512	4.61
599.849	4.63
600.186	4.65
600.523	4.67
600.859	4.73
601.196	4.75
601.532	4.7
601.869	4.68
602.205	4.67
602.542	4.7
602.878	4.69
603.215	4.66
603.551	4.64
603.887	4.61
604.223	4.6
604.56	4.63
604.896	4.66
605.232	4.67
605.568	4.69
605.904	4.66
606.24	4.68
606.576	4.7
606.912	4.68
607.248	4.66
607.583	4.66
607.919	4.61
608.255	4.55
608.591	4.62
608.926	4.67
609.262	4.69
609.597	4.67
609.933	4.68
610.268	4.71
610.604	4.75
610.939	4.76
611.275	4.78
611.61	4.75
611.945	4.78
612.281	4.73
612.616	4.76
612.951	4.76
613.286	4.72
613.621	4.7
613.956	4.73
614.291	4.77
614.626	4.74
614.961	4.74
615.296	4.78
615.631	4.77
615.966	4.77
616.3	4.77
616.635	4.74
616.97	4.74
617.304	4.74
617.639	4.74
617.973	4.75
618.308	4.74
618.642	4.79
618.977	4.78
619.311	4.78
619.646	4.75
619.98	4.75
620.314	4.79
620.648	4.85
620.983	4.86
621.317	4.88
621.651	4.89
621.985	4.9
622.319	4.91
622.653	4.89
622.987	4.88
623.321	4.86
623.655	4.91
623.988	4.98
624.322	4.96
624.656	4.98
624.99	5.02
625.323	5.05
625.657	5.05
625.99	5.02
626.324	5.08
626.657	5.12
626.991	5.14
627.324	5.1
627.658	5.08
627.991	5.08
628.324	5.06
628.657	5.07
628.991	5.11
629.324	5.12
629.657	5.08
629.99	5.09
630.323	5.07
630.656	5.08
630.989	5.1
631.322	5.13
631.655	5.04
631.987	5.02
632.32	4.98
632.653	4.96
632.986	5.03
633.318	4.99
633.651	5.01
633.984	5.03
634.316	5.02
634.649	5.02
634.981	5.04
635.313	5.06
635.646	5.06
635.978	5.02
636.31	4.98
636.643	5.09
636.975	5.04
637.307	5.09
637.639	5.08
637.971	5
638.303	4.91
638.635	4.96
638.967	4.98
639.299	5.04
639.631	5.04
639.963	4.95
640.295	4.96
640.626	4.94
640.958	4.94
641.29	5.01
641.621	4.97
641.953	4.85
642.285	4.82
642.616	4.86
642.948	4.9
643.279	4.91
643.61	4.92
643.942	4.99
644.273	4.94
644.604	4.88
644.936	4.9
645.267	4.95
645.598	4.94
645.929	4.93
646.26	4.93
646.591	4.93
646.922	4.97
647.253	4.93
647.584	4.95
647.915	4.89
648.245	4.81
648.576	4.89
648.907	5.04
649.238	5.06
649.568	5.06
649.899	5.07
650.229	5.09
650.56	4.99
650.89	5
651.221	5.02
651.551	5.03
651.882	5.02
652.212	5.08
652.542	5.09
652.872	5.06
653.203	5.03
653.533	5.03
653.863	5.03
654.193	5.04
654.523	5.02
654.853	5.05
655.183	5.11
655.513	5.02
655.843	4.95
656.172	4.99
656.502	4.95
656.832	4.89
657.162	4.89
657.491	4.97
657.821	4.94
658.15	4.95
658.48	4.99
658.809	4.98
659.139	4.95
659.468	4.93
659.798	5.02
660.127	5.04
660.456	5.12
660.785	5.23
661.115	5.27
661.444	5.27
661.773	5.3
662.102	5.32
662.431	5.39
662.76	5.42
663.089	5.36
663.418	5.37
663.747	5.43
664.076	5.46
664.404	5.38
664.733	5.47
665.062	5.52
665.39	5.53
665.719	5.52
666.048	5.53
666.376	5.58
666.705	5.48
667.033	5.42
667.362	5.4
667.69	5.28
668.018	5.22
668.347	5.2
668.675	5.23
669.003	5.23
669.331	5.24
669.659	5.21
669.987	5.26
670.315	5.31
670.643	5.26
670.971	5.29
671.299	5.36
671.627	5.36
671.955	5.31
672.283	5.32
672.61	5.37
672.938	5.36
673.266	5.38
673.593	5.46
673.921	5.44
674.249	5.42
674.576	5.4
674.904	5.47
675.231	5.47
675.558	5.39
675.886	5.35
676.213	5.3
676.54	5.33
676.867	5.3
677.195	5.26
677.522	5.23
677.849	5.26
678.176	5.31
678.503	5.22
678.83	5.23
679.157	5.19
679.484	5.17
679.81	5.19
680.137	5.2
680.464	5.13
680.791	5.16
681.117	5.18
681.444	5.18
681.771	5.15
682.097	5.21
682.424	5.34
682.75	5.36
683.077	5.45
683.403	5.45
683.729	5.54
684.056	5.59
684.382	5.62
684.708	5.52
685.034	5.48
685.36	5.51
685.686	5.41
686.012	5.37
686.339	5.46
686.664	5.53
686.99	5.51
687.316	5.44
687.642	5.54
687.968	5.45
688.294	5.48
688.619	5.53
688.945	5.45
689.271	5.24
689.596	5.18
689.922	5.21
690.247	5.12
690.573	5.1
690.898	5.07
691.224	5.14
691.549	5.23
691.874	5.15
692.2	5.23
692.525	5.39
692.85	5.54
693.175	5.51
693.5	5.46
693.825	5.52
694.15	5.62
694.475	5.52
694.8	5.55
695.125	5.55
695.45	5.45
695.775	5.62
696.099	5.73
696.424	5.74
696.749	5.63
697.073	5.73
697.398	5.69
697.723	5.75
698.047	5.62
698.372	5.58
698.696	5.66
699.02	5.6
699.345	5.54
699.669	5.55
699.993	5.51
700.318	5.53
700.642	5.47
700.966	5.53
701.29	5.59
701.614	5.53
701.938	5.58
702.262	5.69
702.586	5.63
702.91	5.66
703.234	5.7
703.557	5.75
703.881	5.7
704.205	5.61
704.529	5.52
704.852	5.72
705.176	5.59
705.499	5.64
705.823	5.55
706.146	5.66
706.47	5.62
706.793	5.73
707.117	5.66
707.44	5.71
707.763	5.63
708.086	5.63
708.409	5.74
708.733	5.74
709.056	5.67
709.379	5.71
709.702	5.7
710.025	5.66
710.348	5.58
710.671	5.62
710.993	5.76
711.316	5.76
711.639	5.7
711.962	5.84
712.284	5.78
712.607	5.81
712.93	5.75
713.252	5.68
713.575	5.61
713.897	5.61
714.22	5.6
714.542	5.57
714.864	5.53
715.187	5.59
715.509	5.61
715.831	5.63
716.153	5.61
716.475	5.56
716.798	5.71
717.12	5.8
717.442	5.73
717.764	5.69
718.085	5.7
718.407	5.54
718.729	5.5
719.051	5.49
719.373	5.38
719.695	5.4
720.016	5.34
720.338	5.38
720.659	5.42
720.981	5.32
721.302	5.39
721.624	5.51
721.945	5.5
722.267	5.36
722.588	5.25
722.909	5.12
723.231	5.08
723.552	4.86
723.873	4.82
724.194	4.84
724.515	4.75
724.836	4.72
725.157	5.05
725.478	5.02
725.799	4.89
726.12	5.1
726.441	5.25
726.762	5.33
727.083	5.17
727.403	5.24
727.724	5.49
728.045	5.71
728.365	5.58
728.686	5.41
729.006	5.33
729.327	5.54
729.647	5.67
729.967	5.85
730.288	5.86
730.608	5.94
730.928	5.96
731.249	6.01
731.569	6.14
731.889	6.18
732.209	6.31
732.529	6.36
732.849	6.45
733.169	6.38
733.489	6.44
733.809	6.52
734.129	6.39
734.448	6.42
734.768	6.34
735.088	6.4
735.408	6.46
735.727	6.65
736.047	6.68
736.366	6.69
736.686	6.59
737.005	6.85
737.325	6.69
737.644	6.73
737.963	6.7
738.283	6.58
738.602	6.53
738.921	6.6
739.24	6.88
739.56	6.71
739.879	6.79
740.198	6.65
740.517	6.7
740.836	6.79
741.155	6.56
741.473	6.4
741.792	6.48
742.111	6.57
742.43	6.62
742.748	6.41
743.067	6.49
743.386	6.56
743.704	6.34
744.023	6.26
744.341	6.09
744.66	6.55
744.978	6.65
745.297	6.61
745.615	6.42
745.933	6.27
746.252	6.32
746.57	6.17
746.888	6.23
747.206	6.2
747.524	6.17
747.842	6.32
748.16	6.52
748.478	6.51
748.796	6.63
749.114	6.81
749.432	7
749.749	7.03
750.067	7.01
750.385	7.21
750.703	7.47
751.02	7.42
751.338	7.02
751.655	7.1
751.973	6.99
752.29	7.05
752.608	7.2
752.925	7.25
753.242	7.25
753.56	7.47
753.877	7.48
754.194	7.76
754.511	7.71
754.828	7.3
755.145	7.33
755.462	7.16
755.779	7.03
756.096	6.98
756.413	6.72
756.73	6.93
757.047	6.91
757.364	6.83
757.68	7.05
757.997	7.16
758.314	6.9
758.63	7.12
758.947	7.24
759.264	7.06
759.58	6.94
759.896	7.05
760.213	6.95
760.529	7.01
760.846	6.64
761.162	6.69
761.478	6.95
761.794	6.55
762.11	6.57
762.426	6.51
762.743	6.54
763.059	6.62
763.375	6.57
763.69	6.43
764.006	6.45
764.322	6.56
764.638	6.45
764.954	6.71
765.27	6.5
765.585	6.39
765.901	6.33
766.216	6.44
766.532	6.11
766.848	5.92
767.163	5.89
767.478	6.09
767.794	6.1
768.109	5.88
768.424	5.98
768.74	6.01
769.055	6.01
769.37	5.82
769.685	5.72
770	5.64
770.315	5.65
770.63	5.69
770.945	5.56
771.26	6.02
771.575	6.06
771.89	6.27
772.205	6.25
772.52	6.32
772.834	6.3
773.149	6.39
773.464	6.5
773.778	6.71
774.093	6.51
774.407	6.27
774.722	6.54
775.036	6.66
775.351	6.54
775.665	6.45
775.979	6.64
776.293	6.8
776.608	6.3
776.922	5.98
777.236	5.84
777.55	5.57
777.864	4.99
778.178	4.69
778.492	4.65
778.806	4.69
779.12	4.81
779.434	4.94
779.747	5.22
780.061	5.25
780.375	4.89
780.689	5.03
781.002	5.32
781.316	5.05
781.629	5.71
781.943	6
782.256	6.22
782.57	5.96
782.883	5.87
783.196	6.21
783.51	6.55
783.823	6.78
784.136	6.99
784.449	7.34
784.762	7.14
785.075	7.3
785.388	7.18
785.701	7.29
786.014	6.78
786.327	6.58
786.64	6.92
786.953	7.34
787.266	7.17
787.578	6.91
787.891	6.99
788.204	6.6
788.516	6.36
788.829	6.16
789.141	6.48
789.454	6.39
789.766	6.8
790.079	6.76
790.391	6.6
790.703	6.64
791.016	7.03
791.328	6.98
791.64	6.89
791.952	7.24
792.264	6.38
792.576	6.46
792.888	6.86
793.2	6.91
793.512	6.52
793.824	6.84
794.136	6.72
794.448	7.06
794.76	6.87
795.071	6.74
795.383	6.75
795.695	6.36
796.006	6.23
796.318	6.21
796.629	6.36
796.941	6.31
797.252	6.23
797.564	5.81
797.875	5.92
798.186	5.5
798.497	5.09
798.809	6.04
799.12	6.3
799.431	6.12
799.742	6
800.053	6.71
800.364	6.69
800.675	6.65
800.986	6.54
801.297	6.14
801.608	6.47
801.918	6.19
802.229	6.38
802.54	6.57
802.851	6.19
803.161	5.96
803.472	5.62
803.782	5.85
804.093	5.77
804.403	5.72
804.714	5.73
805.024	5.35
805.334	5.11
805.645	5.48
805.955	6.01
806.265	5.88
806.575	5.44
806.885	4.95
807.195	5.57
807.505	6.16
807.815	7.08
808.125	7.14
808.435	7.28
808.745	6.99
809.055	7.37
809.365	7.23
809.674	7.11
809.984	7.78
810.294	7.25
810.603	7.23
810.913	7.74
811.222	8.12
811.532	9.28
811.841	8.87
812.151	8.9
812.46	8.22
812.769	7.84
813.079	7.37
813.388	8.16
813.697	7.26
814.006	6.72
814.315	6.36
814.624	6.07
814.933	6.28
815.242	6.88
815.551	6.92
815.86	7.67
816.169	8.02
816.478	7.53
816.786	8.17
817.095	8.47
817.404	8.88
817.712	8.53
818.021	8.48
818.33	8.64
818.638	8.36
818.947	8.68
819.255	9.21
819.563	9.54
819.872	9.08
820.18	9.38
820.488	9.41
820.796	9.09
821.105	9.12
821.413	9.22
821.721	9.12
822.029	9
822.337	8.91
822.645	9.01
822.953	9.08
823.26	8.92
823.568	8.84
823.876	8.67
824.184	8.75
824.491	8.68
824.799	8.64
825.107	8.73
825.414	8.87
825.722	8.9
826.029	8.84
826.337	9.04
826.644	9.18
826.951	8.93
827.259	9.1
827.566	9.09
827.873	9.2
828.18	9.36
828.488	9.32
828.795	9.36
829.102	9.2
829.409	9.31
829.716	9.33
830.023	9.3
830.329	9.19
830.636	9.18
830.943	9.06
831.25	9.22
831.557	9.26
831.863	8.9
832.17	8.37
832.476	8.71
832.783	8.81
833.089	8.79
833.396	9.4
833.702	9.42
834.009	9.58
834.315	9.45
834.621	8.99
834.928	9.09
835.234	8.96
835.54	8.72
835.846	8.57
836.152	8.76
836.458	9.05
836.764	9.07
837.07	9.46
837.376	9.63
837.682	9.46
837.988	9.18
838.293	8.76
838.599	9.12
838.905	8.38
839.211	7.64
839.516	6.79
839.822	6.08
840.127	5.97
840.433	5.95
840.738	5.6
841.044	5.81
841.349	5.51
841.654	5.65
841.959	5.99
842.265	5.96
842.57	6.76
842.875	6.25
843.18	6.66
843.485	5.76
843.79	5.28
844.095	4.85
844.4	5.15
844.705	5.51
845.01	5.21
845.315	5.49
845.619	5.05
845.924	5.94
846.229	6.84
846.533	6.49
846.838	4.19
847.142	3.84
847.447	3.41
847.751	3.49
848.056	3.44
848.36	3.46
848.664	4.05
848.969	3.19
849.273	3.58
849.577	3.11
849.881	3.26
850.185	3.16
850.489	4.99
850.794	5.09
851.097	4.97
851.401	5.39
851.705	4.46
852.009	6.33
852.313	4.79
852.617	3.48
852.92	7.05
853.224	8.43
853.528	9.24
853.831	9.65
854.135	9.16
854.438	8.58
854.742	8.82
855.045	6.88
855.349	5.32
855.652	3.61
855.955	3.75
856.259	4.1
856.562	5.13
856.865	4.97
857.168	5.06
857.471	5.8
857.774	6.37
858.077	7.8
858.38	8.41
858.683	7.16
858.986	9.42
859.289	6.25
859.592	7.09
859.894	6.37
860.197	5.47
860.5	6.63
860.802	6.65
861.105	6.47
861.407	8.4
861.71	11.38
862.012	13.11
862.315	13.7
862.617	11.7
862.919	11.22
863.222	11.99
863.524	9.74
863.826	9.19
864.128	8.62
864.43	9.54
864.732	8.61
865.034	11.75
865.336	8.31
865.638	7.53
865.94	5.76
866.242	5.56
866.544	6.85
866.846	6.3
867.147	5.91
867.449	6.07
867.751	5.8
868.052	3.32
868.354	3.67
868.655	4.26
868.957	7.1
869.258	7.45
869.56	5.52
869.861	5.88
870.162	5.7
870.463	6.44
870.765	4.78
871.066	4.37
871.367	3.28
871.668	3.97
871.969	3.1
872.27	3.89
872.571	2.44
872.872	2.52
873.173	1.63
873.473	1.94
873.774	0.86
874.075	1.01
874.376	2.5
874.676	0.9
874.977	-2.23
875.277	-0.66
875.578	-0.63
875.878	-0.26
876.179	0.19
876.479	0.3
876.78	-1.5
877.08	-2.03
877.38	-2.79
877.68	-2.74
877.981	-2.17
878.281	0.77
878.581	2.11
