Data from BU26940_Reflection_00010.txt Node
Date: Tue Nov 19 11:00:27 EST 2019
User: vgr7
Spectrometer: USB2G7710
Scans to average: 3
Trigger mode: 4
Integration Time (sec): 2.000000E-2
Electric dark correction enabled: true
Boxcar width: 10
XAxis mode: Wavelengths
Number of Pixels in Spectrum: 2048
>>>>>Begin Spectral Data<<<<<
177.721	35.7
178.105	2433.33
178.488	-42.57
178.871	6.41
179.254	-58.33
179.636	90.94
180.019	219.05
180.402	130
180.785	49.12
181.168	56.21
181.55	63.68
181.933	68.16
182.316	118.52
182.698	49.71
183.081	30.75
183.463	45.81
183.846	47.84
184.228	26.41
184.611	7.86
184.993	-5.56
185.376	-38.89
185.758	-36.86
186.14	3.81
186.522	-36.09
186.904	-117.78
187.287	-73.99
187.669	-189.74
188.051	-220.26
188.433	-124.36
188.815	152.08
189.197	-66.67
189.579	-27.45
189.961	-209.52
190.342	-30.63
190.724	-112.12
191.106	-70.8
191.488	-37.08
191.869	-40.03
192.251	-36.28
192.633	-43.32
193.014	-71.1
193.396	-85.9
193.777	-80.88
194.159	-75.44
194.54	-78.27
194.922	-95.79
195.303	-102.52
195.684	-114.9
196.065	-148.62
196.447	-128.14
196.828	-137.1
197.209	-130.03
197.59	-104.81
197.971	-87.63
198.352	-86.34
198.733	-88.6
199.114	-95.38
199.495	-89.56
199.876	-87.73
200.257	-72.78
200.638	-73.26
201.018	-56.42
201.399	-52.95
201.78	-25.14
202.16	-31.61
202.541	-44.18
202.922	-38.8
203.302	-26.44
203.683	-13.78
204.063	-10.96
204.444	-18.06
204.824	2.53
205.204	15.59
205.585	17.12
205.965	28.94
206.345	21.1
206.725	12.91
207.106	36.25
207.486	39.39
207.866	35.04
208.246	37.41
208.626	31.66
209.006	26.29
209.386	27.86
209.766	20.29
210.145	17.34
210.525	27.9
210.905	26.78
211.285	26.63
211.664	23.41
212.044	22.39
212.424	24.47
212.803	15.06
213.183	11.24
213.562	24.03
213.942	9.41
214.321	4.93
214.701	6.55
215.08	-19.69
215.459	-13.3
215.838	-19.49
216.218	-49.9
216.597	-44.97
216.976	-45
217.355	-51.56
217.734	-50.16
218.113	-34.52
218.492	-37.96
218.871	-37.16
219.25	-46.76
219.629	-49.54
220.008	-50.17
220.387	-40.82
220.766	-26.63
221.144	-24.34
221.523	-29.56
221.902	-25.35
222.28	-24.4
222.659	-16.64
223.037	-19.48
223.416	-27.91
223.794	-29.07
224.173	-17.55
224.551	-13.8
224.929	-16.93
225.308	-10.64
225.686	-7.21
226.064	-12.62
226.442	-10.28
226.821	-12.6
227.199	-6.03
227.577	-6.71
227.955	0.62
228.333	0.53
228.711	-0.53
229.089	-1.6
229.467	-3.74
229.845	-3.1
230.222	-1.21
230.6	-2.63
230.978	0.07
231.356	0.69
231.733	0.55
232.111	-0.52
232.488	-1.72
232.866	0.84
233.243	1.24
233.621	2.02
233.998	2.84
234.376	1.55
234.753	1.59
235.13	1.76
235.508	1.39
235.885	-0.46
236.262	0.82
236.639	-0.63
237.016	1.2
237.393	2.41
237.77	1.55
238.147	0.81
238.524	1.25
238.901	0.36
239.278	-0.95
239.655	-0.17
240.032	0.12
240.409	-0.19
240.785	-0.26
241.162	-0.69
241.539	-0.43
241.915	-0.4
242.292	0.22
242.668	0.81
243.045	0.79
243.421	1.15
243.798	1.48
244.174	1.36
244.551	1.7
244.927	1.45
245.303	1.54
245.679	1.51
246.056	1.85
246.432	2.19
246.808	2.48
247.184	2.71
247.56	2.58
247.936	2.76
248.312	3.01
248.688	2.79
249.064	2.85
249.44	2.74
249.815	2.84
250.191	2.94
250.567	2.81
250.943	2.99
251.318	2.85
251.694	2.63
252.069	2.74
252.445	2.89
252.82	3.09
253.196	3.18
253.571	3.43
253.947	3.28
254.322	3.23
254.697	2.99
255.073	3.22
255.448	3.34
255.823	3
256.198	3.17
256.573	3.56
256.948	3.74
257.323	3.65
257.698	3.58
258.073	3.44
258.448	3.45
258.823	3.32
259.198	3.53
259.573	3.38
259.948	3.31
260.322	3.14
260.697	3.11
261.072	3.17
261.446	3.18
261.821	3.25
262.195	3.09
262.57	3.2
262.944	3.23
263.319	3.18
263.693	3.49
264.067	3.36
264.442	3.17
264.816	2.98
265.19	2.98
265.564	2.94
265.938	2.85
266.313	2.93
266.687	2.88
267.061	2.64
267.435	3.13
267.809	3.01
268.183	3.12
268.556	3.07
268.93	2.91
269.304	2.93
269.678	2.96
270.051	3.01
270.425	2.84
270.799	2.68
271.172	2.73
271.546	2.81
271.919	2.95
272.293	3.04
272.666	3.16
273.04	3.28
273.413	3.34
273.787	3.26
274.16	3.17
274.533	3.3
274.906	3.38
275.279	3.14
275.653	3.27
276.026	3.33
276.399	3.21
276.772	3.37
277.145	3.42
277.518	3.28
277.891	3.26
278.263	3.42
278.636	3.68
279.009	3.68
279.382	3.27
279.755	3.14
280.127	3.14
280.5	3.22
280.872	3.1
281.245	3.05
281.617	3.32
281.99	3.39
282.362	3.29
282.735	3.33
283.107	3.35
283.479	3.33
283.852	3.37
284.224	3.56
284.596	3.43
284.968	3.24
285.34	3.27
285.713	3.22
286.085	3.17
286.457	2.99
286.829	2.93
287.201	3.15
287.572	3.23
287.944	3.27
288.316	3.19
288.688	3.31
289.06	3.35
289.431	3.29
289.803	3.37
290.175	3.25
290.546	3.23
290.918	3.27
291.289	3.21
291.661	3.12
292.032	3.04
292.403	3.15
292.775	3.39
293.146	3.39
293.517	3.55
293.889	3.59
294.26	3.7
294.631	3.83
295.002	3.85
295.373	3.75
295.744	3.81
296.115	3.79
296.486	3.66
296.857	3.61
297.228	3.46
297.599	3.4
297.97	3.54
298.34	3.6
298.711	3.61
299.082	3.77
299.452	3.79
299.823	3.73
300.194	3.71
300.564	3.72
300.935	3.82
301.305	3.79
301.676	3.72
302.046	3.77
302.416	3.66
302.787	3.55
303.157	3.72
303.527	3.79
303.897	3.9
304.267	4.04
304.637	4.25
305.008	4.39
305.378	4.51
305.748	4.63
306.117	4.63
306.487	4.68
306.857	4.59
307.227	4.67
307.597	4.83
307.967	4.83
308.336	4.88
308.706	4.93
309.076	4.97
309.445	5.29
309.815	5.18
310.184	5.31
310.554	5.44
310.923	5.48
311.293	5.43
311.662	5.44
312.031	5.52
312.401	5.47
312.77	5.61
313.139	5.56
313.508	5.66
313.877	5.59
314.246	5.58
314.616	5.73
314.985	5.75
315.353	5.76
315.722	5.98
316.091	5.97
316.46	5.86
316.829	6.04
317.198	6.1
317.567	6.27
317.935	6.29
318.304	6.54
318.672	6.67
319.041	6.82
319.41	6.94
319.778	7.03
320.147	7.17
320.515	7.27
320.883	7.32
321.252	7.37
321.62	7.52
321.988	7.67
322.357	7.6
322.725	7.73
323.093	7.82
323.461	7.84
323.829	7.96
324.197	8.06
324.565	8.04
324.933	7.89
325.301	7.84
325.669	7.86
326.037	7.81
326.405	7.77
326.772	7.85
327.14	7.71
327.508	7.72
327.875	7.68
328.243	7.53
328.61	7.56
328.978	7.42
329.346	7.46
329.713	7.54
330.08	7.64
330.448	7.63
330.815	7.68
331.182	7.63
331.55	7.68
331.917	7.86
332.284	7.83
332.651	7.84
333.018	7.9
333.385	8.06
333.752	8
334.119	8.06
334.486	8
334.853	8.19
335.22	8.13
335.587	8.22
335.954	8.26
336.32	8.31
336.687	8.52
337.054	8.55
337.42	8.44
337.787	8.56
338.153	8.65
338.52	8.74
338.886	8.73
339.253	8.63
339.619	8.59
339.986	8.61
340.352	8.69
340.718	8.77
341.084	8.68
341.451	8.74
341.817	8.73
342.183	8.79
342.549	8.92
342.915	8.91
343.281	9.01
343.647	9.08
344.013	9.14
344.379	9.1
344.745	9.27
345.11	9.4
345.476	9.33
345.842	9.25
346.208	9.1
346.573	9.09
346.939	9.13
347.304	9.16
347.67	9.15
348.035	9.07
348.401	9.02
348.766	8.98
349.132	9.01
349.497	8.98
349.862	8.93
350.228	8.83
350.593	8.81
350.958	8.82
351.323	8.96
351.688	8.99
352.053	9.04
352.418	8.95
352.783	8.84
353.148	8.8
353.513	8.82
353.878	8.84
354.243	8.76
354.608	8.86
354.972	8.82
355.337	8.89
355.702	8.89
356.066	8.95
356.431	9.03
356.795	8.98
357.16	9.02
357.524	9.07
357.889	9.03
358.253	9.14
358.618	9.09
358.982	8.96
359.346	8.88
359.71	8.85
360.075	8.79
360.439	8.81
360.803	8.83
361.167	8.79
361.531	8.81
361.895	8.85
362.259	8.82
362.623	8.86
362.987	8.8
363.351	8.72
363.714	8.71
364.078	8.67
364.442	8.63
364.806	8.6
365.169	8.54
365.533	8.53
365.896	8.47
366.26	8.33
366.623	8.29
366.987	8.24
367.35	8.16
367.714	8.16
368.077	8.17
368.44	8.08
368.803	8
369.167	7.89
369.53	7.87
369.893	7.78
370.256	7.68
370.619	7.67
370.982	7.69
371.345	7.62
371.708	7.61
372.071	7.55
372.434	7.45
372.797	7.37
373.159	7.26
373.522	7.17
373.885	7.16
374.247	7.08
374.61	7.07
374.973	6.99
375.335	6.9
375.698	6.77
376.06	6.82
376.423	6.77
376.785	6.82
377.147	6.67
377.51	6.62
377.872	6.6
378.234	6.54
378.596	6.49
378.958	6.41
379.321	6.25
379.683	6.25
380.045	6.17
380.407	6.14
380.769	6.1
381.13	6.03
381.492	5.97
381.854	5.93
382.216	5.92
382.578	5.95
382.939	5.88
383.301	5.82
383.663	5.73
384.024	5.71
384.386	5.63
384.747	5.65
385.109	5.62
385.47	5.54
385.832	5.47
386.193	5.44
386.554	5.4
386.916	5.39
387.277	5.29
387.638	5.3
387.999	5.27
388.36	5.26
388.721	5.25
389.082	5.24
389.443	5.24
389.804	5.18
390.165	5.13
390.526	5.12
390.887	5.12
391.248	5.09
391.609	5.08
391.969	5.06
392.33	5.03
392.691	4.97
393.051	4.94
393.412	4.94
393.772	4.93
394.133	4.88
394.493	4.88
394.854	4.86
395.214	4.79
395.574	4.77
395.935	4.73
396.295	4.72
396.655	4.69
397.015	4.64
397.376	4.59
397.736	4.55
398.096	4.49
398.456	4.43
398.816	4.43
399.176	4.34
399.535	4.3
399.895	4.21
400.255	4.22
400.615	4.2
400.975	4.13
401.334	4.09
401.694	4.1
402.054	4.06
402.413	4.04
402.773	4.05
403.132	3.99
403.492	3.98
403.851	3.94
404.211	3.9
404.57	3.9
404.929	3.84
405.288	3.86
405.648	3.86
406.007	3.87
406.366	3.84
406.725	3.87
407.084	3.86
407.443	3.88
407.802	3.84
408.161	3.81
408.52	3.83
408.879	3.79
409.238	3.77
409.596	3.77
409.955	3.78
410.314	3.76
410.673	3.76
411.031	3.75
411.39	3.76
411.748	3.74
412.107	3.73
412.465	3.77
412.824	3.74
413.182	3.73
413.54	3.7
413.899	3.68
414.257	3.64
414.615	3.6
414.974	3.61
415.332	3.6
415.69	3.58
416.048	3.58
416.406	3.57
416.764	3.56
417.122	3.53
417.48	3.52
417.838	3.5
418.195	3.5
418.553	3.48
418.911	3.46
419.269	3.45
419.626	3.42
419.984	3.39
420.342	3.39
420.699	3.37
421.057	3.36
421.414	3.35
421.772	3.35
422.129	3.34
422.486	3.31
422.844	3.31
423.201	3.3
423.558	3.28
423.915	3.27
424.273	3.25
424.63	3.23
424.987	3.23
425.344	3.22
425.701	3.21
426.058	3.19
426.415	3.17
426.772	3.15
427.128	3.15
427.485	3.15
427.842	3.12
428.199	3.11
428.555	3.09
428.912	3.09
429.269	3.08
429.625	3.08
429.982	3.1
430.338	3.09
430.695	3.07
431.051	3.07
431.407	3.06
431.764	3.06
432.12	3.08
432.476	3.07
432.832	3.06
433.189	3.05
433.545	3.04
433.901	3.04
434.257	3.03
434.613	3.04
434.969	3.04
435.325	3.06
435.681	3.06
436.036	3.08
436.392	3.07
436.748	3.06
437.104	3.05
437.459	3.05
437.815	3.06
438.171	3.07
438.526	3.08
438.882	3.09
439.237	3.09
439.593	3.09
439.948	3.09
440.304	3.08
440.659	3.1
441.014	3.11
441.369	3.11
441.725	3.12
442.08	3.13
442.435	3.13
442.79	3.11
443.145	3.11
443.5	3.1
443.855	3.09
444.21	3.09
444.565	3.09
444.92	3.08
445.275	3.07
445.629	3.05
445.984	3.04
446.339	3.04
446.693	3.04
447.048	3.03
447.403	3.02
447.757	3.04
448.112	3.02
448.466	3.01
448.82	3
449.175	3
449.529	2.98
449.883	2.96
450.238	2.97
450.592	2.96
450.946	2.94
451.3	2.96
451.654	2.95
452.008	2.95
452.362	2.95
452.716	2.94
453.07	2.96
453.424	2.96
453.778	2.97
454.132	2.95
454.486	2.97
454.839	2.96
455.193	2.94
455.547	2.95
455.9	2.96
456.254	2.97
456.607	2.96
456.961	2.97
457.314	2.97
457.668	2.96
458.021	2.95
458.375	2.95
458.728	2.95
459.081	2.96
459.434	2.96
459.787	2.97
460.141	2.96
460.494	2.97
460.847	2.96
461.2	2.96
461.553	2.97
461.906	2.97
462.259	2.95
462.611	2.97
462.964	2.97
463.317	2.96
463.67	2.96
464.022	2.99
464.375	2.99
464.728	3.01
465.08	3.02
465.433	3.05
465.785	3.09
466.138	3.09
466.49	3.12
466.843	3.12
467.195	3.13
467.547	3.13
467.899	3.14
468.252	3.17
468.604	3.18
468.956	3.19
469.308	3.2
469.66	3.22
470.012	3.22
470.364	3.24
470.716	3.28
471.068	3.31
471.42	3.3
471.772	3.31
472.123	3.32
472.475	3.33
472.827	3.31
473.178	3.29
473.53	3.28
473.882	3.28
474.233	3.27
474.585	3.26
474.936	3.28
475.288	3.28
475.639	3.3
475.99	3.28
476.342	3.28
476.693	3.25
477.044	3.26
477.395	3.25
477.746	3.24
478.097	3.21
478.448	3.18
478.8	3.18
479.15	3.19
479.501	3.18
479.852	3.18
480.203	3.19
480.554	3.2
480.905	3.21
481.255	3.22
481.606	3.23
481.957	3.23
482.307	3.22
482.658	3.22
483.009	3.2
483.359	3.19
483.709	3.2
484.06	3.22
484.41	3.22
484.761	3.22
485.111	3.23
485.461	3.23
485.811	3.24
486.162	3.24
486.512	3.24
486.862	3.23
487.212	3.23
487.562	3.22
487.912	3.22
488.262	3.21
488.612	3.22
488.961	3.22
489.311	3.21
489.661	3.21
490.011	3.21
490.36	3.23
490.71	3.23
491.06	3.22
491.409	3.21
491.759	3.22
492.108	3.23
492.458	3.23
492.807	3.23
493.157	3.24
493.506	3.25
493.855	3.26
494.204	3.28
494.554	3.31
494.903	3.34
495.252	3.36
495.601	3.39
495.95	3.4
496.299	3.43
496.648	3.48
496.997	3.52
497.346	3.57
497.695	3.61
498.043	3.67
498.392	3.72
498.741	3.77
499.09	3.81
499.438	3.87
499.787	3.92
500.135	3.98
500.484	4.01
500.832	4.07
501.181	4.14
501.529	4.2
501.878	4.25
502.226	4.33
502.574	4.41
502.923	4.51
503.271	4.61
503.619	4.7
503.967	4.81
504.315	4.93
504.663	5.04
505.011	5.16
505.359	5.27
505.707	5.4
506.055	5.55
506.403	5.7
506.751	5.81
507.098	5.98
507.446	6.15
507.794	6.32
508.141	6.48
508.489	6.65
508.837	6.82
509.184	7.01
509.531	7.17
509.879	7.35
510.226	7.51
510.574	7.69
510.921	7.87
511.268	8.04
511.616	8.25
511.963	8.46
512.31	8.68
512.657	8.9
513.004	9.11
513.351	9.35
513.698	9.6
514.045	9.9
514.392	10.18
514.739	10.48
515.086	10.78
515.432	11.09
515.779	11.36
516.126	11.65
516.473	11.93
516.819	12.19
517.166	12.46
517.512	12.75
517.859	12.99
518.205	13.24
518.552	13.51
518.898	13.72
519.245	13.95
519.591	14.2
519.937	14.46
520.283	14.74
520.629	14.98
520.976	15.28
521.322	15.59
521.668	15.86
522.014	16.14
522.36	16.44
522.706	16.76
523.052	17.14
523.398	17.51
523.743	17.91
524.089	18.33
524.435	18.71
524.781	19.04
525.126	19.38
525.472	19.69
525.817	19.94
526.163	20.21
526.509	20.46
526.854	20.68
527.199	20.89
527.545	21.1
527.89	21.3
528.235	21.51
528.581	21.7
528.926	21.92
529.271	22.13
529.616	22.36
529.961	22.58
530.306	22.8
530.651	23.01
530.996	23.22
531.341	23.44
531.686	23.67
532.031	23.89
532.376	24.13
532.721	24.37
533.065	24.64
533.41	24.9
533.755	25.15
534.099	25.42
534.444	25.7
534.788	25.96
535.133	26.24
535.477	26.5
535.822	26.77
536.166	27.07
536.51	27.36
536.855	27.66
537.199	27.99
537.543	28.29
537.887	28.6
538.231	28.93
538.576	29.25
538.92	29.56
539.264	29.9
539.608	30.16
539.951	30.41
540.295	30.65
540.639	30.88
540.983	31.12
541.327	31.36
541.671	31.56
542.014	31.81
542.358	32.04
542.701	32.24
543.045	32.41
543.389	32.61
543.732	32.81
544.075	33.01
544.419	33.19
544.762	33.4
545.105	33.63
545.449	33.85
545.792	34.07
546.135	34.32
546.478	34.54
546.821	34.83
547.165	35.09
547.508	35.33
547.851	35.64
548.194	35.91
548.536	36.16
548.879	36.42
549.222	36.65
549.565	36.88
549.908	37.17
550.25	37.45
550.593	37.64
550.936	37.93
551.278	38.16
551.621	38.41
551.963	38.66
552.306	38.92
552.648	39.18
552.991	39.42
553.333	39.58
553.675	39.78
554.017	39.97
554.36	40.15
554.702	40.34
555.044	40.47
555.386	40.66
555.728	40.85
556.07	41
556.412	41.23
556.754	41.41
557.096	41.58
557.438	41.74
557.78	41.92
558.121	42.08
558.463	42.3
558.805	42.48
559.147	42.67
559.488	42.77
559.83	42.89
560.171	43.01
560.513	43.19
560.854	43.31
561.196	43.47
561.537	43.66
561.878	43.88
562.22	44.11
562.561	44.25
562.902	44.4
563.243	44.57
563.584	44.67
563.925	44.77
564.266	44.9
564.607	45.05
564.948	45.15
565.289	45.28
565.63	45.34
565.971	45.41
566.312	45.51
566.653	45.64
566.993	45.73
567.334	45.82
567.675	46
568.015	46.13
568.356	46.25
568.696	46.35
569.037	46.45
569.377	46.6
569.718	46.67
570.058	46.79
570.398	46.93
570.739	47.07
571.079	47.19
571.419	47.24
571.759	47.31
572.099	47.49
572.439	47.57
572.779	47.67
573.119	47.81
573.459	47.9
573.799	47.99
574.139	48.12
574.479	48.22
574.819	48.25
575.158	48.3
575.498	48.32
575.838	48.43
576.177	48.42
576.517	48.39
576.856	48.46
577.196	48.53
577.535	48.58
577.875	48.63
578.214	48.67
578.553	48.8
578.893	48.95
579.232	48.96
579.571	49.02
579.91	49.18
580.25	49.21
580.589	49.27
580.928	49.4
581.267	49.44
581.606	49.54
581.945	49.6
582.283	49.78
582.622	49.89
582.961	49.91
583.3	50.06
583.639	50.15
583.977	50.22
584.316	50.3
584.654	50.39
584.993	50.39
585.332	50.55
585.67	50.62
586.008	50.63
586.347	50.77
586.685	50.85
587.024	50.87
587.362	51.01
587.7	51.13
588.038	51.19
588.376	51.3
588.715	51.35
589.053	51.45
589.391	51.49
589.729	51.56
590.067	51.6
590.404	51.67
590.742	51.75
591.08	51.85
591.418	51.9
591.756	51.98
592.093	52.12
592.431	52.14
592.769	52.17
593.106	52.28
593.444	52.29
593.781	52.36
594.119	52.41
594.456	52.38
594.793	52.44
595.131	52.44
595.468	52.46
595.805	52.52
596.143	52.53
596.48	52.54
596.817	52.59
597.154	52.66
597.491	52.68
597.828	52.76
598.165	52.72
598.502	52.72
598.839	52.75
599.176	52.75
599.512	52.8
599.849	52.89
600.186	52.94
600.523	53.02
600.859	53.07
601.196	53.14
601.532	53.26
601.869	53.33
602.205	53.32
602.542	53.39
602.878	53.42
603.215	53.46
603.551	53.54
603.887	53.55
604.223	53.69
604.56	53.82
604.896	53.82
605.232	53.98
605.568	54.07
605.904	54.07
606.24	54.15
606.576	54.18
606.912	54.22
607.248	54.25
607.583	54.32
607.919	54.34
608.255	54.34
608.591	54.35
608.926	54.32
609.262	54.44
609.597	54.44
609.933	54.49
610.268	54.53
610.604	54.57
610.939	54.68
611.275	54.58
611.61	54.58
611.945	54.61
612.281	54.57
612.616	54.55
612.951	54.55
613.286	54.57
613.621	54.68
613.956	54.68
614.291	54.64
614.626	54.68
614.961	54.67
615.296	54.73
615.631	54.8
615.966	54.72
616.3	54.71
616.635	54.7
616.97	54.73
617.304	54.84
617.639	54.82
617.973	54.81
618.308	54.82
618.642	54.8
618.977	54.76
619.311	54.79
619.646	54.85
619.98	54.92
620.314	54.94
620.648	54.89
620.983	54.9
621.317	54.85
621.651	54.83
621.985	55.01
622.319	54.93
622.653	54.93
622.987	55
623.321	55.07
623.655	55.2
623.988	55.27
624.322	55.19
624.656	55.18
624.99	55.22
625.323	55.31
625.657	55.37
625.99	55.43
626.324	55.43
626.657	55.43
626.991	55.43
627.324	55.5
627.658	55.49
627.991	55.52
628.324	55.61
628.657	55.62
628.991	55.59
629.324	55.75
629.657	55.77
629.99	55.88
630.323	55.89
630.656	55.78
630.989	55.7
631.322	55.91
631.655	56.06
631.987	56.06
632.32	56.09
632.653	56.09
632.986	56.11
633.318	56.08
633.651	56.15
633.984	56.19
634.316	56.09
634.649	56.12
634.981	56.15
635.313	56.25
635.646	56.34
635.978	56.39
636.31	56.4
636.643	56.41
636.975	56.44
637.307	56.54
637.639	56.66
637.971	56.71
638.303	56.56
638.635	56.51
638.967	56.52
639.299	56.57
639.631	56.59
639.963	56.71
640.295	56.88
640.626	56.86
640.958	56.85
641.29	56.92
641.621	57
641.953	57.02
642.285	56.92
642.616	56.84
642.948	56.74
643.279	56.65
643.61	56.69
643.942	56.65
644.273	56.53
644.604	56.55
644.936	56.62
645.267	56.66
645.598	56.6
645.929	56.61
646.26	56.44
646.591	56.43
646.922	56.4
647.253	56.38
647.584	56.41
647.915	56.43
648.245	56.5
648.576	56.54
648.907	56.61
649.238	56.67
649.568	56.7
649.899	56.67
650.229	56.72
650.56	56.74
650.89	56.78
651.221	56.81
651.551	56.81
651.882	56.84
652.212	56.87
652.542	56.88
652.872	56.95
653.203	57.07
653.533	57.02
653.863	57.04
654.193	56.98
654.523	57.08
654.853	57.25
655.183	57.21
655.513	57.31
655.843	57.29
656.172	57.38
656.502	57.45
656.832	57.58
657.162	57.61
657.491	57.64
657.821	57.59
658.15	57.67
658.48	57.68
658.809	57.63
659.139	57.63
659.468	57.63
659.798	57.64
660.127	57.67
660.456	57.8
660.785	57.71
661.115	57.67
661.444	57.58
661.773	57.5
662.102	57.49
662.431	57.33
662.76	57.38
663.089	57.3
663.418	57.25
663.747	57.26
664.076	57.31
664.404	57.28
664.733	57.32
665.062	57.35
665.39	57.37
665.719	57.39
666.048	57.43
666.376	57.49
666.705	57.38
667.033	57.42
667.362	57.44
667.69	57.53
668.018	57.73
668.347	57.8
668.675	57.75
669.003	57.84
669.331	57.7
669.659	57.65
669.987	57.59
670.315	57.47
670.643	57.44
670.971	57.37
671.299	57.45
671.627	57.46
671.955	57.3
672.283	57.38
672.61	57.47
672.938	57.34
673.266	57.37
673.593	57.47
673.921	57.48
674.249	57.46
674.576	57.47
674.904	57.39
675.231	57.36
675.558	57.46
675.886	57.55
676.213	57.75
676.54	57.77
676.867	57.96
677.195	58.07
677.522	58.14
677.849	58.25
678.176	58.18
678.503	58.31
678.83	58.41
679.157	58.52
679.484	58.52
679.81	58.6
680.137	58.46
680.464	58.35
680.791	58.26
681.117	58.29
681.444	58.35
681.771	58.44
682.097	58.43
682.424	58.35
682.75	58.21
683.077	58.16
683.403	58.32
683.729	58.39
684.056	58.34
684.382	58.35
684.708	58.24
685.034	58.34
685.36	58.2
685.686	58.19
686.012	58.15
686.339	58.02
686.664	58.14
686.99	58.35
687.316	58.48
687.642	58.64
687.968	58.66
688.294	58.75
688.619	58.7
688.945	58.68
689.271	58.77
689.596	58.77
689.922	58.84
690.247	58.78
690.573	58.6
690.898	58.72
691.224	58.74
691.549	58.89
691.874	58.96
692.2	59.15
692.525	59.08
692.85	59.08
693.175	59.29
693.5	59.18
693.825	59.1
694.15	59.16
694.475	59.15
694.8	59.32
695.125	59.3
695.45	59.25
695.775	59.33
696.099	59.52
696.424	59.62
696.749	59.8
697.073	59.82
697.398	59.9
697.723	59.86
698.047	59.86
698.372	59.72
698.696	59.68
699.02	59.6
699.345	59.68
699.669	59.57
699.993	59.44
700.318	59.58
700.642	59.63
700.966	59.45
701.29	59.61
701.614	59.42
701.938	59.38
702.262	59.46
702.586	59.36
702.91	59.21
703.234	59.24
703.557	59.04
703.881	58.99
704.205	59.05
704.529	59.06
704.852	58.98
705.176	59.01
705.499	58.94
705.823	58.78
706.146	58.78
706.47	58.99
706.793	59.05
707.117	58.87
707.44	58.78
707.763	59.14
708.086	58.9
708.409	58.9
708.733	58.87
709.056	58.84
709.379	58.83
709.702	58.81
710.025	58.79
710.348	58.92
710.671	58.77
710.993	58.72
711.316	58.8
711.639	58.87
711.962	58.99
712.284	58.91
712.607	59.04
712.93	58.99
713.252	58.87
713.575	58.72
713.897	58.67
714.22	58.84
714.542	58.96
714.864	58.95
715.187	59.04
715.509	58.83
715.831	58.78
716.153	58.88
716.475	58.79
716.798	58.77
717.12	58.65
717.442	58.78
717.764	58.9
718.085	58.81
718.407	58.62
718.729	58.42
719.051	58.41
719.373	58.55
719.695	58.43
720.016	58.29
720.338	58.46
720.659	58.54
720.981	58.74
721.302	58.6
721.624	58.71
721.945	58.75
722.267	58.97
722.588	58.98
722.909	59.02
723.231	58.94
723.552	58.9
723.873	59.04
724.194	58.93
724.515	58.6
724.836	58.72
725.157	59.07
725.478	59.41
725.799	59.38
726.12	59.11
726.441	59.43
726.762	59.52
727.083	59.67
727.403	59.63
727.724	59.28
728.045	59.02
728.365	58.99
728.686	58.89
729.006	58.95
729.327	59.14
729.647	59.22
729.967	59.38
730.288	59.44
730.608	59.28
730.928	59.27
731.249	59.52
731.569	59.54
731.889	59.49
732.209	59.5
732.529	59.59
732.849	59.72
733.169	59.55
733.489	59.5
733.809	59.56
734.129	59.92
734.448	60.05
734.768	60.24
735.088	60.15
735.408	60
735.727	59.99
736.047	60.04
736.366	59.88
736.686	59.75
737.005	59.85
737.325	59.96
737.644	60.24
737.963	60.08
738.283	60.03
738.602	59.8
738.921	59.84
739.24	59.82
739.56	60.08
739.879	60.25
740.198	60.49
740.517	60.18
740.836	59.9
741.155	59.97
741.473	59.78
741.792	60.05
742.111	60.36
742.43	60.45
742.748	60.53
743.067	60.82
743.386	60.85
743.704	60.69
744.023	60.62
744.341	60.72
744.66	60.95
744.978	61.02
745.297	61.19
745.615	60.93
745.933	61.26
746.252	61.11
746.57	61.04
746.888	60.94
747.206	60.99
747.524	60.99
747.842	60.68
748.16	61.04
748.478	60.94
748.796	60.87
749.114	60.77
749.432	60.66
749.749	60.8
750.067	60.96
750.385	61.24
750.703	61.17
751.02	60.77
751.338	60.77
751.655	61.03
751.973	61.16
752.29	61.18
752.608	61.12
752.925	60.99
753.242	61.06
753.56	61.09
753.877	60.98
754.194	60.81
754.511	61.44
754.828	61.39
755.145	61.29
755.462	61.08
755.779	61.16
756.096	61.14
756.413	60.76
756.73	61.04
757.047	60.55
757.364	60.9
757.68	61.18
757.997	61.13
758.314	60.87
758.63	60.71
758.947	60.81
759.264	60.59
759.58	60.72
759.896	60.76
760.213	60.79
760.529	60.96
760.846	61.2
761.162	60.77
761.478	60.79
761.794	61.01
762.11	61.09
762.426	61.29
762.743	61.19
763.059	61.32
763.375	61
763.69	61.02
764.006	60.85
764.322	60.61
764.638	60.46
764.954	60.45
765.27	60.58
765.585	60.53
765.901	60.71
766.216	60.45
766.532	60.33
766.848	60.31
767.163	60.44
767.478	60.56
767.794	60.54
768.109	60.48
768.424	60.37
768.74	60.55
769.055	60.52
769.37	60.93
769.685	60.79
770	60.9
770.315	60.82
770.63	61.04
770.945	61.37
771.26	61.61
771.575	61.49
771.89	61.43
772.205	61.54
772.52	61.6
772.834	62.04
773.149	62.22
773.464	62.22
773.778	61.67
774.093	61.46
774.407	61.74
774.722	61.68
775.036	62.01
775.351	62.3
775.665	61.82
775.979	61.81
776.293	61.94
776.608	62.23
776.922	62.2
777.236	62.06
777.55	62.06
777.864	62.06
778.178	62.5
778.492	62.6
778.806	62.58
779.12	61.94
779.434	61.83
779.747	61.92
780.061	61.56
780.375	62.35
780.689	62.31
781.002	62.06
781.316	62.21
781.629	61.89
781.943	61.46
782.256	61.4
782.57	61.04
782.883	61.26
783.196	61.06
783.51	61.83
783.823	61.39
784.136	61.52
784.449	61.29
784.762	61.34
785.075	61.4
785.388	61.45
785.701	61.56
786.014	61.79
786.327	61.13
786.64	61.89
786.953	61.99
787.266	62.2
787.578	62.14
787.891	62.18
788.204	61.86
788.516	61.91
788.829	62.16
789.141	61.66
789.454	61.2
789.766	61.31
790.079	60.5
790.391	60.58
790.703	60.53
791.016	60.5
791.328	60.71
791.64	60.89
791.952	60.52
792.264	60.62
792.576	60.03
792.888	60.38
793.2	59.67
793.512	58.72
793.824	58.3
794.136	58.5
794.448	58.53
794.76	58.89
795.071	58.97
795.383	58.54
795.695	59.16
796.006	59.14
796.318	59.23
796.629	59.93
796.941	60.21
797.252	60
797.564	60.34
797.875	59.84
798.186	60.02
798.497	60.23
798.809	60.36
799.12	60.32
799.431	60.65
799.742	61.06
800.053	61.51
800.364	62.22
800.675	62.07
800.986	61.88
801.297	61.6
801.608	60.82
801.918	62.02
802.229	61.61
802.54	61.85
802.851	61.24
803.161	61.06
803.472	60.85
803.782	61.37
804.093	60.88
804.403	61.49
804.714	61.3
805.024	61.2
805.334	61.74
805.645	62
805.955	61.93
806.265	61.65
806.575	61.89
806.885	61.68
807.195	61.78
807.505	61.56
807.815	61.68
808.125	62.21
808.435	61.41
808.745	61.53
809.055	61.68
809.365	61.95
809.674	61.6
809.984	61.56
810.294	60.38
810.603	60.55
810.913	59.34
811.222	58.84
811.532	58.83
811.841	58.47
812.151	58.31
812.46	58.48
812.769	58.15
813.079	57.37
813.388	56.64
813.697	56.03
814.006	55.93
814.315	56.44
814.624	56.49
814.933	56.83
815.242	57.04
815.551	56.71
815.86	57.23
816.169	57.78
816.478	58.05
816.786	58.74
817.095	59.11
817.404	59.51
817.712	59.84
818.021	60.15
818.33	60.14
818.638	60.76
818.947	60.64
819.255	61.1
819.563	61.4
819.872	61.72
820.18	62.07
820.488	62.19
820.796	61.77
821.105	62.01
821.413	61.8
821.721	61.87
822.029	62.04
822.337	62.04
822.645	61.93
822.953	62.15
823.26	62.34
823.568	62.2
823.876	62.27
824.184	62.21
824.491	62.32
824.799	62.41
825.107	62.27
825.414	62.26
825.722	62.28
826.029	62.37
826.337	62.3
826.644	62.23
826.951	62.08
827.259	62.4
827.566	62.32
827.873	62.63
828.18	62.49
828.488	62.34
828.795	62.32
829.102	62.45
829.409	62.11
829.716	62.06
830.023	62.55
830.329	62.91
830.636	63.1
830.943	62.65
831.25	62.22
831.557	62.17
831.863	62.22
832.17	62.21
832.476	61.94
832.783	62.29
833.089	62.39
833.396	63.39
833.702	62.9
834.009	62.7
834.315	62.24
834.621	62.03
834.928	62.13
835.234	61.58
835.54	61.74
835.846	61.76
836.152	61.11
836.458	60.81
836.764	60.06
837.07	59.78
837.376	59.98
837.682	60.74
837.988	61.13
838.293	61.02
838.599	60.77
838.905	60.62
839.211	60.28
839.516	59.84
839.822	58.64
840.127	59.07
840.433	58.8
840.738	59.05
841.044	60.49
841.349	60.78
841.654	61.95
841.959	62.94
842.265	62.87
842.57	63.16
842.875	62.21
843.18	62.5
843.485	63.31
843.79	63.72
844.095	62.98
844.4	61.5
844.705	62.6
845.01	63.26
845.315	64.89
845.619	65.86
845.924	66.76
846.229	67.46
846.533	68.27
846.838	69.47
847.142	68.59
847.447	67.03
847.751	67.22
848.056	65.99
848.36	63.58
848.664	64.34
848.969	65.46
849.273	67.21
849.577	68.92
849.881	67.73
850.185	66.21
850.489	66.5
850.794	68.14
851.097	66.39
851.401	64.38
851.705	62.77
852.009	61.89
852.313	61.37
852.617	60.64
852.92	57.2
853.224	55.54
853.528	54.71
853.831	55.02
854.135	55.92
854.438	58.46
854.742	57.04
855.045	55.12
855.349	53.43
855.652	51.66
855.955	50.06
856.259	49.98
856.562	50.89
856.865	51.15
857.168	51.87
857.471	51.28
857.774	52.88
858.077	56.35
858.38	55.85
858.683	58.01
858.986	59.52
859.289	60.22
859.592	60.37
859.894	62.63
860.197	62.13
860.5	61.73
860.802	62.43
861.105	65.37
861.407	66.15
861.71	65.63
862.012	67.98
862.315	68.5
862.617	70.43
862.919	69.98
863.222	70.31
863.524	70.97
863.826	70.58
864.128	69.58
864.43	65.01
864.732	64.69
865.034	62.79
865.336	61.3
865.638	61.89
865.94	60.65
866.242	58.79
866.544	60.79
866.846	59.53
867.147	58
867.449	56.5
867.751	57.04
868.052	56.89
868.354	55.68
868.655	55.59
868.957	54.64
869.258	53.72
869.56	48.73
869.861	48.8
870.162	50.91
870.463	53.1
870.765	55
871.066	57.57
871.367	55.18
871.668	56.61
871.969	58.32
872.27	61.53
872.571	60.87
872.872	57.73
873.173	55.99
873.473	53.25
873.774	53.79
874.075	53.51
874.376	56.3
874.676	58.28
874.977	57.78
875.277	58.86
875.578	61
875.878	64.83
876.179	64.37
876.479	63.62
876.78	62.05
877.08	60.95
877.38	57.64
877.68	61.32
877.981	59.48
878.281	57.49
878.581	56.28
