Data from BU26943_Reflection_00008.txt Node
Date: Tue Nov 19 11:02:29 EST 2019
User: vgr7
Spectrometer: USB2G7710
Scans to average: 3
Trigger mode: 4
Integration Time (sec): 2.000000E-2
Electric dark correction enabled: true
Boxcar width: 10
XAxis mode: Wavelengths
Number of Pixels in Spectrum: 2048
>>>>>Begin Spectral Data<<<<<
177.721	11.01
178.105	31.69
178.488	-32.93
178.871	-71.63
179.254	-67.9
179.636	5.8
180.019	315.05
180.402	460
180.785	-160.61
181.168	-146.79
181.55	-359.77
181.933	1202.56
182.316	-1443.86
182.698	1038.27
183.081	-143.5
183.463	-150.56
183.846	-79.32
184.228	-74.49
184.611	-51.28
184.993	-77.4
185.376	-127.75
185.758	-68.06
186.14	-103.65
186.522	-54.08
186.904	-39.27
187.287	-40.84
187.669	-38.67
188.051	-28.51
188.433	-32.19
188.815	-21.12
189.197	-19.17
189.579	-14.48
189.961	-16.41
190.342	-8.26
190.724	-16.71
191.106	-16.2
191.488	-13.67
191.869	-10.68
192.251	-11.97
192.633	-3.44
193.014	7.75
193.396	-1.15
193.777	5.49
194.159	17.21
194.54	21.23
194.922	23.97
195.303	34.17
195.684	34.9
196.065	34.71
196.447	48.36
196.828	38.58
197.209	44.52
197.59	59.98
197.971	53.06
198.352	37.29
198.733	41.77
199.114	32.86
199.495	32.54
199.876	29.73
200.257	26.03
200.638	14.85
201.018	5.34
201.399	10.42
201.78	16.15
202.16	11.42
202.541	5.41
202.922	2.31
203.302	-8.46
203.683	-11.24
204.063	-22.52
204.444	-37.35
204.824	-31.76
205.204	-40.73
205.585	-42.29
205.965	-36.48
206.345	-41.37
206.725	-39.29
207.106	-32.9
207.486	-32.65
207.866	-33.58
208.246	-21.03
208.626	-28.63
209.006	-27.44
209.386	-23.8
209.766	-27.8
210.145	-25.58
210.525	-33.6
210.905	-25.17
211.285	-20.01
211.664	-7.82
212.044	-3.34
212.424	-4.1
212.803	-8.46
213.183	-6.81
213.562	-4.42
213.942	-8.45
214.321	-3.56
214.701	-6.89
215.08	-1.69
215.459	0.31
215.838	0.7
216.218	-23.06
216.597	-23.65
216.976	-30.83
217.355	-31.1
217.734	-39.77
218.113	-41.17
218.492	-39.49
218.871	-36.23
219.25	-30.46
219.629	-53.87
220.008	-48.62
220.387	-52.26
220.766	-39.91
221.144	-42.67
221.523	-47.26
221.902	-39.8
222.28	-32.35
222.659	-19.06
223.037	-25.74
223.416	-25.27
223.794	-20.29
224.173	-12.32
224.551	-3.01
224.929	4.2
225.308	0.44
225.686	-2.36
226.064	1.78
226.442	3.81
226.821	3.87
227.199	0.76
227.577	4.4
227.955	1.2
228.333	-0.57
228.711	-2.8
229.089	-0.65
229.467	-0.69
229.845	-2.88
230.222	-3.6
230.6	-5.98
230.978	-5.18
231.356	-5.6
231.733	-6.29
232.111	-6.11
232.488	-7.87
232.866	-7.41
233.243	-6.02
233.621	-3.26
233.998	-3.06
234.376	-2.57
234.753	-3.55
235.13	-4.03
235.508	-4.89
235.885	-3.85
236.262	-3.38
236.639	-1.89
237.016	-3.96
237.393	-3.06
237.77	-1.4
238.147	-1.44
238.524	-0.5
238.901	-0.33
239.278	0.21
239.655	0.18
240.032	0.44
240.409	0.65
240.785	-0.15
241.162	-0.4
241.539	-0.61
241.915	-0.77
242.292	-0.83
242.668	-0.85
243.045	-0.08
243.421	0.72
243.798	1.22
244.174	1.71
244.551	1.83
244.927	2.16
245.303	2.11
245.679	2.26
246.056	2.36
246.432	2.41
246.808	2.58
247.184	2.56
247.56	2.54
247.936	2.75
248.312	2.67
248.688	2.72
249.064	2.91
249.44	2.9
249.815	2.91
250.191	3.14
250.567	3.23
250.943	3.03
251.318	2.83
251.694	2.54
252.069	2.59
252.445	2.55
252.82	2.73
253.196	2.91
253.571	2.71
253.947	2.62
254.322	2.53
254.697	2.35
255.073	2.67
255.448	2.85
255.823	2.76
256.198	2.82
256.573	2.92
256.948	2.93
257.323	3.02
257.698	3.1
258.073	2.92
258.448	2.74
258.823	2.53
259.198	2.42
259.573	2.4
259.948	2.31
260.322	2.2
260.697	2.12
261.072	2.07
261.446	2.01
261.821	2.07
262.195	1.9
262.57	2.05
262.944	1.95
263.319	1.91
263.693	1.74
264.067	1.76
264.442	1.81
264.816	1.66
265.19	1.63
265.564	1.48
265.938	1.46
266.313	1.44
266.687	1.69
267.061	1.9
267.435	2.04
267.809	1.96
268.183	1.98
268.556	1.85
268.93	1.92
269.304	1.86
269.678	1.91
270.051	2.1
270.425	1.9
270.799	1.84
271.172	1.86
271.546	1.9
271.919	1.89
272.293	1.87
272.666	2.03
273.04	2.03
273.413	2.07
273.787	2.06
274.16	2.02
274.533	2.01
274.906	2
275.279	1.95
275.653	2.02
276.026	2
276.399	2.07
276.772	1.97
277.145	2.13
277.518	2.01
277.891	1.92
278.263	2.05
278.636	2.28
279.009	2.2
279.382	2.43
279.755	2.5
280.127	2.59
280.5	2.4
280.872	2.48
281.245	2.42
281.617	2.44
281.99	2.61
282.362	2.49
282.735	2.39
283.107	2.55
283.479	2.51
283.852	2.55
284.224	2.65
284.596	2.61
284.968	2.62
285.34	2.74
285.713	2.82
286.085	2.69
286.457	2.72
286.829	2.77
287.201	2.57
287.572	2.59
287.944	2.53
288.316	2.61
288.688	2.68
289.06	2.78
289.431	2.78
289.803	2.78
290.175	2.8
290.546	2.76
290.918	2.55
291.289	2.7
291.661	2.76
292.032	2.75
292.403	2.79
292.775	2.78
293.146	2.7
293.517	2.56
293.889	2.69
294.26	2.58
294.631	2.69
295.002	2.78
295.373	2.87
295.744	2.9
296.115	2.85
296.486	2.72
296.857	2.82
297.228	2.68
297.599	2.58
297.97	2.82
298.34	3.01
298.711	3.23
299.082	3.1
299.452	3.11
299.823	3.06
300.194	3.23
300.564	3.29
300.935	3.56
301.305	3.8
301.676	3.76
302.046	3.85
302.416	3.9
302.787	3.93
303.157	3.8
303.527	3.88
303.897	3.92
304.267	4.06
304.637	3.91
305.008	4.13
305.378	4.24
305.748	4.09
306.117	3.96
306.487	3.81
306.857	4.03
307.227	4.11
307.597	4.16
307.967	4.15
308.336	4.09
308.706	3.75
309.076	3.69
309.445	3.73
309.815	3.74
310.184	3.65
310.554	3.59
310.923	3.66
311.293	3.65
311.662	3.76
312.031	3.72
312.401	3.83
312.77	3.86
313.139	3.91
313.508	3.95
313.877	4.06
314.246	4.12
314.616	4.21
314.985	4.1
315.353	4.14
315.722	4.17
316.091	4.24
316.46	4.34
316.829	4.32
317.198	4.43
317.567	4.49
317.935	4.52
318.304	4.71
318.672	4.71
319.041	4.69
319.41	4.64
319.778	4.78
320.147	4.72
320.515	4.72
320.883	4.7
321.252	4.77
321.62	4.82
321.988	4.99
322.357	4.87
322.725	4.98
323.093	4.85
323.461	4.78
323.829	4.79
324.197	4.82
324.565	4.94
324.933	4.88
325.301	4.77
325.669	4.78
326.037	4.71
326.405	4.84
326.772	4.79
327.14	4.82
327.508	4.71
327.875	4.7
328.243	4.78
328.61	4.8
328.978	4.74
329.346	4.72
329.713	4.74
330.08	4.72
330.448	4.7
330.815	4.84
331.182	4.94
331.55	5.01
331.917	5.05
332.284	5.1
332.651	5.09
333.018	5.26
333.385	5.24
333.752	5.34
334.119	5.29
334.486	5.43
334.853	5.54
335.22	5.65
335.587	5.75
335.954	5.76
336.32	5.8
336.687	5.85
337.054	5.84
337.42	5.9
337.787	5.91
338.153	6.01
338.52	6.07
338.886	5.95
339.253	5.87
339.619	6.04
339.986	6.01
340.352	6.09
340.718	6.07
341.084	6.17
341.451	6.18
341.817	6.23
342.183	6.19
342.549	6.25
342.915	6.22
343.281	6.21
343.647	6.06
344.013	6.05
344.379	6.07
344.745	6.03
345.11	5.91
345.476	5.89
345.842	5.78
346.208	5.85
346.573	5.9
346.939	6.08
347.304	5.99
347.67	5.89
348.035	5.88
348.401	5.92
348.766	5.91
349.132	5.91
349.497	5.84
349.862	5.87
350.228	5.7
350.593	5.68
350.958	5.79
351.323	5.88
351.688	5.92
352.053	5.88
352.418	5.94
352.783	5.96
353.148	5.97
353.513	6.03
353.878	5.88
354.243	5.83
354.608	5.71
354.972	5.74
355.337	5.82
355.702	5.81
356.066	5.79
356.431	5.75
356.795	5.72
357.16	5.81
357.524	5.87
357.889	5.93
358.253	5.92
358.618	5.85
358.982	5.81
359.346	5.77
359.71	5.75
360.075	5.75
360.439	5.72
360.803	5.73
361.167	5.69
361.531	5.75
361.895	5.77
362.259	5.79
362.623	5.75
362.987	5.75
363.351	5.63
363.714	5.55
364.078	5.55
364.442	5.55
364.806	5.42
365.169	5.36
365.533	5.38
365.896	5.43
366.26	5.4
366.623	5.43
366.987	5.45
367.35	5.45
367.714	5.42
368.077	5.41
368.44	5.43
368.803	5.41
369.167	5.31
369.53	5.31
369.893	5.22
370.256	5.18
370.619	5.08
370.982	5.16
371.345	5.21
371.708	5.17
372.071	5.12
372.434	5.12
372.797	5.07
373.159	4.95
373.522	4.88
373.885	4.8
374.247	4.7
374.61	4.62
374.973	4.56
375.335	4.52
375.698	4.44
376.06	4.36
376.423	4.38
376.785	4.43
377.147	4.4
377.51	4.38
377.872	4.39
378.234	4.42
378.596	4.34
378.958	4.25
379.321	4.2
379.683	4.14
380.045	4.16
380.407	4.12
380.769	4.11
381.13	4.08
381.492	4.12
381.854	4.13
382.216	4.13
382.578	4.12
382.939	4.1
383.301	4.16
383.663	4.11
384.024	4.07
384.386	4.03
384.747	3.93
385.109	3.91
385.47	3.92
385.832	3.84
386.193	3.84
386.554	3.82
386.916	3.84
387.277	3.76
387.638	3.67
387.999	3.69
388.36	3.65
388.721	3.59
389.082	3.57
389.443	3.6
389.804	3.59
390.165	3.58
390.526	3.53
390.887	3.46
391.248	3.49
391.609	3.46
391.969	3.45
392.33	3.48
392.691	3.5
393.051	3.44
393.412	3.41
393.772	3.42
394.133	3.42
394.493	3.39
394.854	3.42
395.214	3.46
395.574	3.41
395.935	3.4
396.295	3.43
396.655	3.38
397.015	3.36
397.376	3.32
397.736	3.31
398.096	3.29
398.456	3.28
398.816	3.21
399.176	3.17
399.535	3.1
399.895	3.08
400.255	3.07
400.615	3.06
400.975	3.04
401.334	2.96
401.694	2.94
402.054	2.92
402.413	2.91
402.773	2.88
403.132	2.86
403.492	2.86
403.851	2.83
404.211	2.81
404.57	2.77
404.929	2.75
405.288	2.73
405.648	2.75
406.007	2.75
406.366	2.75
406.725	2.75
407.084	2.77
407.443	2.77
407.802	2.75
408.161	2.73
408.52	2.79
408.879	2.84
409.238	2.83
409.596	2.85
409.955	2.82
410.314	2.8
410.673	2.78
411.031	2.79
411.39	2.81
411.748	2.83
412.107	2.81
412.465	2.82
412.824	2.82
413.182	2.82
413.54	2.84
413.899	2.83
414.257	2.84
414.615	2.84
414.974	2.85
415.332	2.84
415.69	2.82
416.048	2.82
416.406	2.79
416.764	2.8
417.122	2.78
417.48	2.8
417.838	2.79
418.195	2.78
418.553	2.78
418.911	2.76
419.269	2.75
419.626	2.77
419.984	2.75
420.342	2.76
420.699	2.73
421.057	2.73
421.414	2.74
421.772	2.75
422.129	2.73
422.486	2.72
422.844	2.7
423.201	2.71
423.558	2.68
423.915	2.67
424.273	2.67
424.63	2.67
424.987	2.67
425.344	2.67
425.701	2.69
426.058	2.68
426.415	2.67
426.772	2.65
427.128	2.65
427.485	2.68
427.842	2.67
428.199	2.69
428.555	2.67
428.912	2.65
429.269	2.62
429.625	2.64
429.982	2.65
430.338	2.65
430.695	2.63
431.051	2.65
431.407	2.65
431.764	2.64
432.12	2.64
432.476	2.64
432.832	2.64
433.189	2.61
433.545	2.62
433.901	2.64
434.257	2.63
434.613	2.63
434.969	2.6
435.325	2.6
435.681	2.58
436.036	2.58
436.392	2.6
436.748	2.61
437.104	2.61
437.459	2.61
437.815	2.61
438.171	2.62
438.526	2.62
438.882	2.62
439.237	2.62
439.593	2.62
439.948	2.61
440.304	2.62
440.659	2.63
441.014	2.62
441.369	2.63
441.725	2.65
442.08	2.63
442.435	2.64
442.79	2.65
443.145	2.64
443.5	2.63
443.855	2.61
444.21	2.61
444.565	2.61
444.92	2.6
445.275	2.59
445.629	2.59
445.984	2.59
446.339	2.59
446.693	2.58
447.048	2.57
447.403	2.56
447.757	2.54
448.112	2.53
448.466	2.53
448.82	2.5
449.175	2.5
449.529	2.51
449.883	2.49
450.238	2.48
450.592	2.49
450.946	2.5
451.3	2.51
451.654	2.51
452.008	2.5
452.362	2.49
452.716	2.49
453.07	2.48
453.424	2.47
453.778	2.46
454.132	2.46
454.486	2.47
454.839	2.48
455.193	2.49
455.547	2.49
455.9	2.49
456.254	2.5
456.607	2.5
456.961	2.49
457.314	2.5
457.668	2.5
458.021	2.49
458.375	2.49
458.728	2.48
459.081	2.48
459.434	2.48
459.787	2.49
460.141	2.5
460.494	2.52
460.847	2.51
461.2	2.52
461.553	2.53
461.906	2.54
462.259	2.52
462.611	2.54
462.964	2.55
463.317	2.57
463.67	2.57
464.022	2.56
464.375	2.57
464.728	2.56
465.08	2.57
465.433	2.58
465.785	2.58
466.138	2.61
466.49	2.61
466.843	2.63
467.195	2.64
467.547	2.62
467.899	2.63
468.252	2.65
468.604	2.65
468.956	2.66
469.308	2.66
469.66	2.7
470.012	2.7
470.364	2.7
470.716	2.73
471.068	2.74
471.42	2.75
471.772	2.76
472.123	2.79
472.475	2.81
472.827	2.83
473.178	2.83
473.53	2.8
473.882	2.81
474.233	2.79
474.585	2.78
474.936	2.79
475.288	2.81
475.639	2.81
475.99	2.83
476.342	2.82
476.693	2.82
477.044	2.79
477.395	2.78
477.746	2.76
478.097	2.75
478.448	2.75
478.8	2.75
479.15	2.74
479.501	2.73
479.852	2.73
480.203	2.72
480.554	2.74
480.905	2.75
481.255	2.76
481.606	2.75
481.957	2.74
482.307	2.74
482.658	2.73
483.009	2.73
483.359	2.73
483.709	2.73
484.06	2.73
484.41	2.72
484.761	2.73
485.111	2.74
485.461	2.74
485.811	2.73
486.162	2.73
486.512	2.73
486.862	2.72
487.212	2.72
487.562	2.7
487.912	2.69
488.262	2.69
488.612	2.69
488.961	2.7
489.311	2.71
489.661	2.72
490.011	2.71
490.36	2.71
490.71	2.7
491.06	2.7
491.409	2.7
491.759	2.71
492.108	2.69
492.458	2.68
492.807	2.68
493.157	2.68
493.506	2.68
493.855	2.7
494.204	2.72
494.554	2.74
494.903	2.77
495.252	2.78
495.601	2.79
495.95	2.81
496.299	2.81
496.648	2.81
496.997	2.83
497.346	2.85
497.695	2.87
498.043	2.89
498.392	2.92
498.741	2.96
499.09	3.01
499.438	3.05
499.787	3.07
500.135	3.1
500.484	3.12
500.832	3.17
501.181	3.19
501.529	3.21
501.878	3.22
502.226	3.25
502.574	3.29
502.923	3.32
503.271	3.36
503.619	3.4
503.967	3.45
504.315	3.51
504.663	3.56
505.011	3.6
505.359	3.65
505.707	3.69
506.055	3.75
506.403	3.78
506.751	3.82
507.098	3.88
507.446	3.96
507.794	4.04
508.141	4.11
508.489	4.18
508.837	4.25
509.184	4.34
509.531	4.43
509.879	4.5
510.226	4.59
510.574	4.69
510.921	4.76
511.268	4.86
511.616	4.94
511.963	5.05
512.31	5.17
512.657	5.28
513.004	5.39
513.351	5.5
513.698	5.62
514.045	5.76
514.392	5.9
514.739	6.04
515.086	6.18
515.432	6.33
515.779	6.48
516.126	6.64
516.473	6.79
516.819	6.93
517.166	7.07
517.512	7.18
517.859	7.31
518.205	7.43
518.552	7.54
518.898	7.66
519.245	7.76
519.591	7.88
519.937	8.04
520.283	8.19
520.629	8.34
520.976	8.51
521.322	8.65
521.668	8.81
522.014	9
522.36	9.17
522.706	9.33
523.052	9.55
523.398	9.74
523.743	9.98
524.089	10.2
524.435	10.42
524.781	10.62
525.126	10.83
525.472	11.03
525.817	11.23
526.163	11.4
526.509	11.57
526.854	11.73
527.199	11.85
527.545	12
527.89	12.13
528.235	12.29
528.581	12.45
528.926	12.59
529.271	12.74
529.616	12.88
529.961	13.03
530.306	13.2
530.651	13.35
530.996	13.52
531.341	13.7
531.686	13.88
532.031	14.08
532.376	14.28
532.721	14.47
533.065	14.66
533.41	14.88
533.755	15.09
534.099	15.32
534.444	15.55
534.788	15.76
535.133	15.98
535.477	16.18
535.822	16.39
536.166	16.67
536.51	16.93
536.855	17.22
537.199	17.52
537.543	17.79
537.887	18.11
538.231	18.41
538.576	18.7
538.92	19.02
539.264	19.28
539.608	19.52
539.951	19.77
540.295	20.04
540.639	20.27
540.983	20.52
541.327	20.74
541.671	20.98
542.014	21.22
542.358	21.47
542.701	21.7
543.045	21.93
543.389	22.15
543.732	22.38
544.075	22.59
544.419	22.84
544.762	23.08
545.105	23.32
545.449	23.57
545.792	23.83
546.135	24.08
546.478	24.38
546.821	24.68
547.165	24.97
547.508	25.26
547.851	25.57
548.194	25.85
548.536	26.15
548.879	26.46
549.222	26.73
549.565	27.01
549.908	27.31
550.25	27.6
550.593	27.89
550.936	28.19
551.278	28.56
551.621	28.82
551.963	29.16
552.306	29.43
552.648	29.75
552.991	30.06
553.333	30.31
553.675	30.61
554.017	30.89
554.36	31.21
554.702	31.48
555.044	31.7
555.386	31.96
555.728	32.17
556.07	32.45
556.412	32.71
556.754	33
557.096	33.23
557.438	33.48
557.78	33.74
558.121	33.99
558.463	34.18
558.805	34.41
559.147	34.7
559.488	34.94
559.83	35.11
560.171	35.3
560.513	35.54
560.854	35.73
561.196	36.03
561.537	36.22
561.878	36.42
562.22	36.67
562.561	36.88
562.902	37.11
563.243	37.32
563.584	37.54
563.925	37.74
564.266	37.99
564.607	38.19
564.948	38.38
565.289	38.54
565.63	38.78
565.971	38.95
566.312	39.08
566.653	39.27
566.993	39.45
567.334	39.64
567.675	39.83
568.015	39.98
568.356	40.13
568.696	40.26
569.037	40.41
569.377	40.55
569.718	40.74
570.058	40.97
570.398	41.11
570.739	41.24
571.079	41.35
571.419	41.4
571.759	41.58
572.099	41.7
572.439	41.87
572.779	41.94
573.119	42.09
573.459	42.19
573.799	42.33
574.139	42.46
574.479	42.59
574.819	42.71
575.158	42.84
575.498	42.94
575.838	43.06
576.177	43.21
576.517	43.34
576.856	43.44
577.196	43.5
577.535	43.63
577.875	43.77
578.214	43.87
578.553	44.07
578.893	44.15
579.232	44.26
579.571	44.33
579.91	44.47
580.25	44.64
580.589	44.79
580.928	44.9
581.267	45.03
581.606	45.13
581.945	45.24
582.283	45.42
582.622	45.54
582.961	45.67
583.3	45.76
583.639	45.86
583.977	45.92
584.316	45.98
584.654	46.05
584.993	46.09
585.332	46.24
585.67	46.34
586.008	46.49
586.347	46.62
586.685	46.69
587.024	46.86
587.362	46.88
587.7	46.95
588.038	47
588.376	47.1
588.715	47.21
589.053	47.28
589.391	47.34
589.729	47.42
590.067	47.51
590.404	47.55
590.742	47.62
591.08	47.7
591.418	47.86
591.756	48.05
592.093	48.13
592.431	48.25
592.769	48.39
593.106	48.45
593.444	48.53
593.781	48.66
594.119	48.75
594.456	48.91
594.793	49.02
595.131	49.11
595.468	49.22
595.805	49.35
596.143	49.45
596.48	49.52
596.817	49.59
597.154	49.7
597.491	49.77
597.828	49.83
598.165	49.91
598.502	49.91
598.839	49.97
599.176	50.12
599.512	50.23
599.849	50.29
600.186	50.37
600.523	50.49
600.859	50.47
601.196	50.54
601.532	50.62
601.869	50.66
602.205	50.66
602.542	50.72
602.878	50.73
603.215	50.75
603.551	50.87
603.887	50.93
604.223	50.96
604.56	51
604.896	51.1
605.232	51.17
605.568	51.28
605.904	51.3
606.24	51.34
606.576	51.39
606.912	51.43
607.248	51.52
607.583	51.56
607.919	51.72
608.255	51.76
608.591	51.78
608.926	51.86
609.262	52.06
609.597	52.11
609.933	52.13
610.268	52.25
610.604	52.2
610.939	52.18
611.275	52.27
611.61	52.35
611.945	52.39
612.281	52.45
612.616	52.48
612.951	52.54
613.286	52.59
613.621	52.52
613.956	52.59
614.291	52.61
614.626	52.61
614.961	52.61
615.296	52.54
615.631	52.51
615.966	52.55
616.3	52.55
616.635	52.56
616.97	52.67
617.304	52.66
617.639	52.75
617.973	52.79
618.308	52.83
618.642	52.89
618.977	52.95
619.311	52.9
619.646	52.97
619.98	52.9
620.314	52.96
620.648	53.11
620.983	53.13
621.317	53.19
621.651	53.18
621.985	53.29
622.319	53.4
622.653	53.56
622.987	53.64
623.321	53.67
623.655	53.65
623.988	53.62
624.322	53.7
624.656	53.8
624.99	53.85
625.323	53.84
625.657	53.81
625.99	53.74
626.324	53.87
626.657	53.78
626.991	53.92
627.324	53.96
627.658	53.89
627.991	53.94
628.324	54.01
628.657	54.07
628.991	54
629.324	54
629.657	53.98
629.99	53.9
630.323	53.96
630.656	54.02
630.989	54.13
631.322	54.06
631.655	54.02
631.987	54.04
632.32	54.06
632.653	54.03
632.986	54.19
633.318	54.12
633.651	54.32
633.984	54.23
634.316	54.31
634.649	54.43
634.981	54.41
635.313	54.36
635.646	54.38
635.978	54.52
636.31	54.63
636.643	54.58
636.975	54.66
637.307	54.65
637.639	54.7
637.971	54.55
638.303	54.69
638.635	54.69
638.967	54.83
639.299	54.89
639.631	55.05
639.963	55.03
640.295	55.26
640.626	55.21
640.958	55.23
641.29	55.23
641.621	55.19
641.953	55.16
642.285	55.17
642.616	55.26
642.948	55.33
643.279	55.31
643.61	55.35
643.942	55.26
644.273	55.37
644.604	55.4
644.936	55.51
645.267	55.51
645.598	55.59
645.929	55.46
646.26	55.56
646.591	55.59
646.922	55.67
647.253	55.54
647.584	55.53
647.915	55.56
648.245	55.41
648.576	55.5
648.907	55.58
649.238	55.57
649.568	55.57
649.899	55.5
650.229	55.51
650.56	55.56
650.89	55.71
651.221	55.58
651.551	55.64
651.882	55.67
652.212	55.66
652.542	55.69
652.872	55.78
653.203	55.76
653.533	55.84
653.863	55.88
654.193	55.88
654.523	55.92
654.853	55.99
655.183	56.12
655.513	56.18
655.843	56.26
656.172	56.29
656.502	56.27
656.832	56.4
657.162	56.49
657.491	56.57
657.821	56.52
658.15	56.62
658.48	56.69
658.809	56.68
659.139	56.64
659.468	56.64
659.798	56.68
660.127	56.71
660.456	56.63
660.785	56.6
661.115	56.72
661.444	56.79
661.773	56.8
662.102	56.76
662.431	56.74
662.76	56.71
663.089	56.82
663.418	56.89
663.747	56.81
664.076	56.78
664.404	56.71
664.733	56.84
665.062	56.82
665.39	56.73
665.719	56.72
666.048	56.7
666.376	56.61
666.705	56.56
667.033	56.47
667.362	56.5
667.69	56.59
668.018	56.56
668.347	56.57
668.675	56.64
669.003	56.63
669.331	56.57
669.659	56.48
669.987	56.55
670.315	56.56
670.643	56.58
670.971	56.62
671.299	56.66
671.627	56.51
671.955	56.5
672.283	56.53
672.61	56.66
672.938	56.79
673.266	56.84
673.593	56.91
673.921	57.12
674.249	57.16
674.576	56.98
674.904	57.01
675.231	56.98
675.558	57.13
675.886	57.37
676.213	57.4
676.54	57.55
676.867	57.6
677.195	57.54
677.522	57.56
677.849	57.46
678.176	57.5
678.503	57.57
678.83	57.65
679.157	57.63
679.484	57.66
679.81	57.64
680.137	57.72
680.464	57.78
680.791	57.71
681.117	57.7
681.444	57.81
681.771	57.72
682.097	57.74
682.424	57.59
682.75	57.52
683.077	57.57
683.403	57.46
683.729	57.32
684.056	57.28
684.382	57.23
684.708	57.27
685.034	57.23
685.36	57.32
685.686	57.3
686.012	57.26
686.339	57.18
686.664	57.16
686.99	57.11
687.316	56.92
687.642	56.89
687.968	56.9
688.294	56.84
688.619	56.98
688.945	56.89
689.271	56.79
689.596	56.79
689.922	56.83
690.247	56.89
690.573	56.93
690.898	57.05
691.224	57.18
691.549	57.36
691.874	57.36
692.2	57.34
692.525	57.39
692.85	57.44
693.175	57.3
693.5	57.48
693.825	57.53
694.15	57.8
694.475	57.79
694.8	57.84
695.125	57.78
695.45	57.63
695.775	57.85
696.099	58.07
696.424	58.09
696.749	58.2
697.073	58.21
697.398	58.25
697.723	58.22
698.047	58.18
698.372	58.06
698.696	58.18
699.02	58.3
699.345	58.19
699.669	58.3
699.993	58.43
700.318	58.49
700.642	58.6
700.966	58.51
701.29	58.61
701.614	58.69
701.938	58.76
702.262	58.93
702.586	58.72
702.91	58.71
703.234	58.61
703.557	58.51
703.881	58.52
704.205	58.49
704.529	58.48
704.852	58.4
705.176	58.39
705.499	58.4
705.823	58.23
706.146	58.39
706.47	58.39
706.793	58.34
707.117	58.1
707.44	57.71
707.763	57.79
708.086	57.79
708.409	57.67
708.733	57.72
709.056	57.79
709.379	58.16
709.702	58.25
710.025	58.21
710.348	58.24
710.671	58.19
710.993	58.13
711.316	58.27
711.639	58.31
711.962	58.44
712.284	58.44
712.607	58.33
712.93	58.43
713.252	58.3
713.575	58.31
713.897	58.3
714.22	58.59
714.542	58.47
714.864	58.35
715.187	58.34
715.509	58.33
715.831	58.2
716.153	58.05
716.475	58.06
716.798	58.04
717.12	58.05
717.442	58.23
717.764	58.26
718.085	58.2
718.407	58.25
718.729	58.39
719.051	58.2
719.373	58.31
719.695	58.08
720.016	58.25
720.338	58.41
720.659	58.54
720.981	58.48
721.302	58.62
721.624	58.67
721.945	58.61
722.267	58.73
722.588	58.97
722.909	58.96
723.231	58.7
723.552	58.84
723.873	58.86
724.194	58.73
724.515	58.77
724.836	58.97
725.157	59.07
725.478	58.76
725.799	59.01
726.12	58.9
726.441	59.1
726.762	58.96
727.083	58.93
727.403	58.86
727.724	58.91
728.045	59.03
728.365	59.13
728.686	59.18
729.006	59.01
729.327	58.83
729.647	58.71
729.967	58.73
730.288	58.81
730.608	58.62
730.928	58.62
731.249	58.82
731.569	58.83
731.889	58.72
732.209	58.82
732.529	58.59
732.849	58.77
733.169	58.59
733.489	58.57
733.809	58.51
734.129	58.42
734.448	58.51
734.768	58.48
735.088	58.75
735.408	58.77
735.727	58.92
736.047	59.06
736.366	59.09
736.686	59.27
737.005	59.2
737.325	59.48
737.644	59.45
737.963	59.27
738.283	59.09
738.602	58.99
738.921	59.03
739.24	59.2
739.56	59.23
739.879	59.31
740.198	59.23
740.517	59.31
740.836	59.35
741.155	59.31
741.473	59.1
741.792	58.68
742.111	58.7
742.43	58.73
742.748	58.51
743.067	58.87
743.386	58.74
743.704	58.76
744.023	58.48
744.341	58.48
744.66	58.45
744.978	58.63
745.297	58.52
745.615	58.31
745.933	58.5
746.252	58.39
746.57	58.46
746.888	58.68
747.206	58.62
747.524	58.8
747.842	58.63
748.16	58.94
748.478	58.98
748.796	59.16
749.114	59.19
749.432	59.58
749.749	59.48
750.067	59.39
750.385	59.29
750.703	59.35
751.02	59.53
751.338	59.45
751.655	59.2
751.973	59.24
752.29	59.25
752.608	58.89
752.925	58.92
753.242	58.86
753.56	58.67
753.877	58.43
754.194	58.34
754.511	58.51
754.828	58.43
755.145	58.75
755.462	58.65
755.779	58.88
756.096	58.82
756.413	58.64
756.73	58.45
757.047	58.61
757.364	58.63
757.68	58.39
757.997	58.62
758.314	58.69
758.63	58.86
758.947	58.95
759.264	59.18
759.58	59.19
759.896	59.16
760.213	59.43
760.529	59.88
760.846	59.85
761.162	59.77
761.478	59.47
761.794	58.98
762.11	58.81
762.426	58.19
762.743	57.99
763.059	57.9
763.375	58.17
763.69	58.18
764.006	57.93
764.322	58.24
764.638	58.18
764.954	58.23
765.27	58.51
765.585	58.41
765.901	58.25
766.216	58.18
766.532	58.31
766.848	58.18
767.163	58.04
767.478	57.8
767.794	57.83
768.109	58.16
768.424	58.36
768.74	58.39
769.055	58.86
769.37	58.88
769.685	58.86
770	58.58
770.315	58.82
770.63	59.17
770.945	58.98
771.26	59.03
771.575	58.67
771.89	58.05
772.205	58.45
772.52	58.4
772.834	58.46
773.149	58.04
773.464	57.87
773.778	57.48
774.093	57.81
774.407	57.95
774.722	57.78
775.036	57.95
775.351	58.04
775.665	57.96
775.979	58.11
776.293	58.4
776.608	58.73
776.922	58.06
777.236	58.03
777.55	58.26
777.864	58.07
778.178	58.54
778.492	58.77
778.806	58.47
779.12	58.57
779.434	58.5
779.747	58.68
780.061	58.9
780.375	59.59
780.689	59.48
781.002	59.42
781.316	59.5
781.629	59.41
781.943	59.1
782.256	59
782.57	58.85
782.883	58.3
783.196	58.44
783.51	59.08
783.823	59.54
784.136	58.9
784.449	58.85
784.762	58.62
785.075	58.6
785.388	58.42
785.701	58.55
786.014	58.8
786.327	58.74
786.64	58.71
786.953	58.72
787.266	58.75
787.578	58.82
787.891	58.55
788.204	58.18
788.516	58.34
788.829	58.21
789.141	58.61
789.454	58.82
789.766	58.38
790.079	57.98
790.391	57.87
790.703	58.39
791.016	58.3
791.328	58.57
791.64	58.15
791.952	58.4
792.264	58.36
792.576	58.26
792.888	58
793.2	57.9
793.512	57.86
793.824	57.84
794.136	57.61
794.448	57.64
794.76	57.95
795.071	58.39
795.383	58.42
795.695	57.94
796.006	58.13
796.318	58.15
796.629	57.89
796.941	57.54
797.252	57.2
797.564	57.67
797.875	57.61
798.186	58.06
798.497	58.32
798.809	58.22
799.12	58.24
799.431	58.6
799.742	58.63
800.053	58.32
800.364	58.24
800.675	58.41
800.986	58.47
801.297	57.94
801.608	57.86
801.918	58.32
802.229	58.47
802.54	58.15
802.851	58.29
803.161	58.4
803.472	58.43
803.782	58.31
804.093	58.06
804.403	57.74
804.714	57.74
805.024	57.36
805.334	57.55
805.645	57.65
805.955	57.92
806.265	58.82
806.575	58.78
806.885	58.34
807.195	57.93
807.505	58.13
807.815	58.36
808.125	58.62
808.435	57.86
808.745	57.38
809.055	57.86
809.365	58.25
809.674	58.81
809.984	58.65
810.294	59.12
810.603	58.28
810.913	57.73
811.222	57.95
811.532	58.67
811.841	58.57
812.151	58.72
812.46	58.46
812.769	57.43
813.079	58.14
813.388	58.6
813.697	58.18
814.006	57.78
814.315	58.41
814.624	57.55
814.933	58.48
815.242	58.8
815.551	58.69
815.86	58.47
816.169	57.77
816.478	58.15
816.786	57.77
817.095	58.74
817.404	59.51
817.712	59.54
818.021	58.98
818.33	59.07
818.638	59.87
818.947	59.52
819.255	59.56
819.563	58.76
819.872	59.12
820.18	59.45
820.488	59.76
820.796	59.49
821.105	59.51
821.413	59.46
821.721	59.71
822.029	59.9
822.337	60.01
822.645	60.23
822.953	60.28
823.26	60.41
823.568	60.5
823.876	60.72
824.184	60.63
824.491	60.65
824.799	60.64
825.107	60.34
825.414	60.5
825.722	60.48
826.029	60.62
826.337	60.61
826.644	60.57
826.951	60.41
827.259	60.5
827.566	60.6
827.873	60.56
828.18	60.45
828.488	60.42
828.795	60.24
829.102	60.03
829.409	59.88
829.716	59.48
830.023	59.32
830.329	58.67
830.636	58.88
830.943	58.59
831.25	58.34
831.557	58.11
831.863	58.3
832.17	58.38
832.476	58.45
832.783	58.19
833.089	58.26
833.396	58.25
833.702	58.01
834.009	57.96
834.315	58.42
834.621	58.26
834.928	58.01
835.234	58.31
835.54	58.57
835.846	58.61
836.152	58.88
836.458	58.71
836.764	58.7
837.07	58.21
837.376	58.75
837.682	59.05
837.988	59.1
838.293	58.45
838.599	57.8
838.905	57.76
839.211	57.62
839.516	57.68
839.822	57.29
840.127	57.5
840.433	56.95
840.738	55.62
841.044	55.85
841.349	55.42
841.654	54.71
841.959	53.81
842.265	53.83
842.57	53.47
842.875	53.45
843.18	54.09
843.485	54.2
843.79	53.18
844.095	52.41
844.4	52.61
844.705	52.39
845.01	53.05
845.315	52.5
845.619	52.24
845.924	52.82
846.229	53.52
846.533	54.1
846.838	54.76
847.142	54.52
847.447	54.25
847.751	54.12
848.056	54.57
848.36	55.59
848.664	55.18
848.969	55.97
849.273	55.49
849.577	53.13
849.881	53.36
850.185	53.41
850.489	54.79
850.794	55.65
851.097	55.89
851.401	55.95
851.705	57.61
852.009	58.59
852.313	55.52
852.617	55.15
852.92	53.84
853.224	55.13
853.528	56.69
853.831	56.39
854.135	56.68
854.438	58.78
854.742	58.95
855.045	59
855.349	58.43
855.652	58.19
855.955	58.82
856.259	57.9
856.562	57.67
856.865	57.3
857.168	56.19
857.471	55.76
857.774	58.45
858.077	55.17
858.38	54.44
858.683	55.73
858.986	54.51
859.289	54.74
859.592	53.27
859.894	53.27
860.197	53.95
860.5	52.65
860.802	49.97
861.105	48.89
861.407	49.54
861.71	47.95
862.012	50.41
862.315	52.62
862.617	53.73
862.919	53.04
863.222	52.77
863.524	51.94
863.826	53.55
864.128	50.93
864.43	51.09
864.732	50.36
865.034	50.91
865.336	51.44
865.638	50.87
865.94	50.65
866.242	50
866.544	50.26
866.846	50.65
867.147	50.48
867.449	50.8
867.751	48.94
868.052	50.2
868.354	48.92
868.655	48.26
868.957	48.53
869.258	48.77
869.56	48.69
869.861	51.99
870.162	49.76
870.463	51.25
870.765	52.19
871.066	53.76
871.367	52.98
871.668	53.27
871.969	54.59
872.27	57.53
872.571	58.8
872.872	57.87
873.173	57.77
873.473	58.33
873.774	58.07
874.075	59.05
874.376	58.81
874.676	56.53
874.977	55.13
875.277	54.03
875.578	55.69
875.878	55.36
876.179	52.56
876.479	53.08
876.78	51.67
877.08	52.64
877.38	52.38
877.68	52.85
877.981	53.69
878.281	53.49
878.581	49.38
