Data from BU26849_Reflection_00012.txt Node
Date: Mon Nov 18 16:43:26 EST 2019
User: vgr7
Spectrometer: USB2G7710
Scans to average: 3
Trigger mode: 4
Integration Time (sec): 2.000000E-2
Electric dark correction enabled: true
Boxcar width: 10
XAxis mode: Wavelengths
Number of Pixels in Spectrum: 2048
>>>>>Begin Spectral Data<<<<<
177.721	7.02
178.105	35.58
178.488	22.74
178.871	-10.45
179.254	0.42
179.636	-48.92
180.019	23.63
180.402	112.9
180.785	45.67
181.168	381.55
181.55	374.68
181.933	106.15
182.316	102.08
182.698	72.68
183.081	40.3
183.463	43.87
183.846	83.98
184.228	80.8
184.611	133.23
184.993	253.28
185.376	337.56
185.758	228.58
186.14	204.47
186.522	326.02
186.904	158.15
187.287	125.57
187.669	446.04
188.051	-1915.75
188.433	-411.15
188.815	-156.77
189.197	-118.77
189.579	-66.02
189.961	-49.76
190.342	-74.41
190.724	-56.22
191.106	-63.58
191.488	-52.87
191.869	-43.41
192.251	-71.93
192.633	-48.61
193.014	-45.35
193.396	-53.08
193.777	-54.76
194.159	-46.92
194.54	-70.26
194.922	-50.4
195.303	-69.05
195.684	-61.78
196.065	-38.53
196.447	-27.88
196.828	-42.96
197.209	-58.86
197.59	-75.24
197.971	-75.11
198.352	-58.51
198.733	-45.99
199.114	-41.37
199.495	-41.14
199.876	-35.23
200.257	-24.6
200.638	-13.07
201.018	-18.41
201.399	-15.26
201.78	-8.59
202.16	-8.96
202.541	-11.89
202.922	-28.51
203.302	-18.27
203.683	-34.13
204.063	-45.49
204.444	-40
204.824	-29.65
205.204	-30.92
205.585	-23.23
205.965	-30.73
206.345	-30.48
206.725	-41.77
207.106	-65.16
207.486	-63.52
207.866	-45.6
208.246	-36.47
208.626	-74.41
209.006	-62.93
209.386	-64.81
209.766	-70.33
210.145	-70.63
210.525	-73.33
210.905	-62.67
211.285	-44.88
211.664	-40.55
212.044	-46.12
212.424	-43.6
212.803	-47.16
213.183	-35.59
213.562	-56.37
213.942	-30.24
214.321	-32.46
214.701	-46.19
215.08	-35.76
215.459	-37.64
215.838	-38.18
216.218	-61.14
216.597	-54.47
216.976	-58.1
217.355	-60.48
217.734	-76.31
218.113	-72.98
218.492	-52.99
218.871	-44.07
219.25	-49.1
219.629	-47.79
220.008	-39.75
220.387	-51.88
220.766	-49.27
221.144	-59.48
221.523	-49.29
221.902	-52.88
222.28	-53.46
222.659	-39.3
223.037	-31.74
223.416	-30.06
223.794	-37.92
224.173	-34.92
224.551	-29.21
224.929	-22.5
225.308	-17.8
225.686	-11.66
226.064	-9.71
226.442	-10.21
226.821	-4.75
227.199	-7.15
227.577	-8.49
227.955	-12.41
228.333	-10.73
228.711	-7.06
229.089	-6.1
229.467	-8.46
229.845	-10.98
230.222	-9.21
230.6	-8.49
230.978	-9.51
231.356	-8.79
231.733	-8.97
232.111	-6.49
232.488	-6.42
232.866	-8.47
233.243	-9.41
233.621	-7.39
233.998	-6.63
234.376	-7.33
234.753	-9.83
235.13	-8.45
235.508	-7.12
235.885	-5.82
236.262	-5.53
236.639	-6.07
237.016	-4.18
237.393	-3.13
237.77	-1.47
238.147	-1.12
238.524	-0.78
238.901	-0.19
239.278	0.06
239.655	0.97
240.032	1.27
240.409	0.77
240.785	1.01
241.162	1.55
241.539	1.44
241.915	1.46
242.292	1.49
242.668	1.8
243.045	2.31
243.421	2.7
243.798	2.72
244.174	2.97
244.551	3.09
244.927	3.12
245.303	3.17
245.679	3.38
246.056	3.18
246.432	3.16
246.808	3.22
247.184	2.92
247.56	2.69
247.936	2.78
248.312	2.83
248.688	2.97
249.064	2.85
249.44	2.85
249.815	2.84
250.191	3
250.567	2.86
250.943	2.59
251.318	2.67
251.694	2.72
252.069	2.73
252.445	2.63
252.82	2.68
253.196	2.67
253.571	2.86
253.947	2.96
254.322	3.26
254.697	3.24
255.073	3.53
255.448	3.6
255.823	3.34
256.198	3.61
256.573	3.59
256.948	3.37
257.323	3.37
257.698	3.67
258.073	3.57
258.448	3.7
258.823	3.83
259.198	3.52
259.573	3.63
259.948	3.41
260.322	3.47
260.697	3.38
261.072	3.21
261.446	3.08
261.821	2.98
262.195	2.96
262.57	2.92
262.944	2.74
263.319	2.74
263.693	2.86
264.067	2.85
264.442	2.76
264.816	2.94
265.19	2.91
265.564	2.74
265.938	2.61
266.313	2.45
266.687	2.35
267.061	2.47
267.435	2.36
267.809	2.51
268.183	2.38
268.556	2.45
268.93	2.6
269.304	2.63
269.678	2.81
270.051	2.67
270.425	2.77
270.799	2.83
271.172	2.98
271.546	2.9
271.919	2.57
272.293	2.59
272.666	2.45
273.04	2.52
273.413	2.39
273.787	2.45
274.16	2.46
274.533	2.36
274.906	2.33
275.279	2.18
275.653	2.21
276.026	2.14
276.399	2.05
276.772	2.11
277.145	2.01
277.518	1.97
277.891	2.04
278.263	1.93
278.636	1.97
279.009	1.84
279.382	2.07
279.755	2.31
280.127	2.35
280.5	2.54
280.872	2.43
281.245	2.57
281.617	2.76
281.99	2.85
282.362	3.04
282.735	2.98
283.107	3.14
283.479	3.21
283.852	3.18
284.224	3.19
284.596	3.11
284.968	3.11
285.34	3.13
285.713	3.12
286.085	3.13
286.457	3.31
286.829	3.35
287.201	3.19
287.572	3.1
287.944	3.14
288.316	3.17
288.688	3.18
289.06	3.09
289.431	2.96
289.803	2.88
290.175	2.85
290.546	3.01
290.918	3.03
291.289	2.96
291.661	3.05
292.032	3.07
292.403	3.1
292.775	3.25
293.146	3.2
293.517	3.16
293.889	3.29
294.26	3.23
294.631	3.26
295.002	3.36
295.373	3.44
295.744	3.43
296.115	3.39
296.486	3.31
296.857	3.42
297.228	3.52
297.599	3.61
297.97	3.59
298.34	3.6
298.711	3.6
299.082	3.55
299.452	3.68
299.823	3.7
300.194	3.77
300.564	3.69
300.935	3.74
301.305	3.67
301.676	3.61
302.046	3.67
302.416	3.82
302.787	3.76
303.157	3.81
303.527	3.81
303.897	3.88
304.267	4.13
304.637	4.07
305.008	4.15
305.378	4.17
305.748	4.23
306.117	4.07
306.487	4.02
306.857	4.17
307.227	4.14
307.597	4.28
307.967	4.4
308.336	4.4
308.706	4.42
309.076	4.59
309.445	4.62
309.815	4.52
310.184	4.36
310.554	4.44
310.923	4.46
311.293	4.5
311.662	4.51
312.031	4.51
312.401	4.57
312.77	4.6
313.139	4.57
313.508	4.7
313.877	4.83
314.246	4.93
314.616	4.89
314.985	4.81
315.353	4.77
315.722	4.72
316.091	4.69
316.46	4.59
316.829	4.61
317.198	4.71
317.567	4.75
317.935	4.81
318.304	4.7
318.672	4.78
319.041	4.82
319.41	4.94
319.778	4.85
320.147	5.02
320.515	4.93
320.883	4.98
321.252	5.01
321.62	5.09
321.988	5.13
322.357	5.21
322.725	5.34
323.093	5.5
323.461	5.59
323.829	5.78
324.197	6.03
324.565	6.18
324.933	6.09
325.301	6.1
325.669	6.22
326.037	6.43
326.405	6.49
326.772	6.71
327.14	6.74
327.508	6.86
327.875	6.75
328.243	6.77
328.61	6.78
328.978	6.82
329.346	6.76
329.713	6.68
330.08	6.7
330.448	6.56
330.815	6.51
331.182	6.5
331.55	6.54
331.917	6.5
332.284	6.48
332.651	6.5
333.018	6.67
333.385	6.56
333.752	6.49
334.119	6.55
334.486	6.33
334.853	6.43
335.22	6.47
335.587	6.55
335.954	6.61
336.32	6.64
336.687	6.64
337.054	6.8
337.42	6.91
337.787	7
338.153	7.25
338.52	7.36
338.886	7.32
339.253	7.23
339.619	7.28
339.986	7.27
340.352	7.37
340.718	7.34
341.084	7.48
341.451	7.53
341.817	7.59
342.183	7.6
342.549	7.47
342.915	7.52
343.281	7.6
343.647	7.51
344.013	7.52
344.379	7.47
344.745	7.46
345.11	7.57
345.476	7.56
345.842	7.5
346.208	7.41
346.573	7.46
346.939	7.6
347.304	7.51
347.67	7.47
348.035	7.47
348.401	7.44
348.766	7.43
349.132	7.48
349.497	7.33
349.862	7.48
350.228	7.46
350.593	7.34
350.958	7.27
351.323	7.44
351.688	7.4
352.053	7.52
352.418	7.48
352.783	7.45
353.148	7.4
353.513	7.51
353.878	7.59
354.243	7.59
354.608	7.55
354.972	7.64
355.337	7.68
355.702	7.7
356.066	7.72
356.431	7.78
356.795	7.7
357.16	7.76
357.524	7.64
357.889	7.63
358.253	7.62
358.618	7.67
358.982	7.59
359.346	7.61
359.71	7.53
360.075	7.53
360.439	7.5
360.803	7.44
361.167	7.38
361.531	7.25
361.895	7.18
362.259	7.15
362.623	7.13
362.987	7.16
363.351	7.13
363.714	7.15
364.078	7.09
364.442	7.1
364.806	7.06
365.169	7.06
365.533	7.07
365.896	7.05
366.26	7.02
366.623	7.01
366.987	7
367.35	6.94
367.714	6.95
368.077	6.86
368.44	6.85
368.803	6.73
369.167	6.75
369.53	6.73
369.893	6.67
370.256	6.63
370.619	6.54
370.982	6.45
371.345	6.33
371.708	6.25
372.071	6.14
372.434	6.07
372.797	6.04
373.159	5.95
373.522	5.97
373.885	5.93
374.247	5.89
374.61	5.8
374.973	5.85
375.335	5.74
375.698	5.67
376.06	5.63
376.423	5.72
376.785	5.7
377.147	5.74
377.51	5.65
377.872	5.6
378.234	5.56
378.596	5.55
378.958	5.49
379.321	5.48
379.683	5.46
380.045	5.46
380.407	5.42
380.769	5.41
381.13	5.39
381.492	5.29
381.854	5.23
382.216	5.2
382.578	5.11
382.939	5.05
383.301	5.08
383.663	5.07
384.024	4.95
384.386	4.91
384.747	4.86
385.109	4.89
385.47	4.82
385.832	4.81
386.193	4.8
386.554	4.78
386.916	4.75
387.277	4.75
387.638	4.72
387.999	4.63
388.36	4.6
388.721	4.5
389.082	4.49
389.443	4.43
389.804	4.41
390.165	4.41
390.526	4.37
390.887	4.31
391.248	4.3
391.609	4.28
391.969	4.25
392.33	4.22
392.691	4.17
393.051	4.18
393.412	4.15
393.772	4.07
394.133	4.07
394.493	4.05
394.854	4.01
395.214	3.97
395.574	3.97
395.935	3.94
396.295	3.95
396.655	3.91
397.015	3.91
397.376	3.86
397.736	3.81
398.096	3.83
398.456	3.79
398.816	3.76
399.176	3.71
399.535	3.67
399.895	3.63
400.255	3.63
400.615	3.57
400.975	3.52
401.334	3.52
401.694	3.47
402.054	3.44
402.413	3.41
402.773	3.36
403.132	3.33
403.492	3.3
403.851	3.3
404.211	3.3
404.57	3.24
404.929	3.26
405.288	3.26
405.648	3.21
406.007	3.22
406.366	3.21
406.725	3.25
407.084	3.28
407.443	3.28
407.802	3.26
408.161	3.29
408.52	3.27
408.879	3.27
409.238	3.29
409.596	3.28
409.955	3.3
410.314	3.3
410.673	3.3
411.031	3.32
411.39	3.29
411.748	3.3
412.107	3.32
412.465	3.29
412.824	3.28
413.182	3.27
413.54	3.25
413.899	3.25
414.257	3.24
414.615	3.19
414.974	3.17
415.332	3.16
415.69	3.13
416.048	3.13
416.406	3.12
416.764	3.1
417.122	3.09
417.48	3.05
417.838	3.06
418.195	3.05
418.553	3.05
418.911	3.04
419.269	3.03
419.626	3.05
419.984	3.05
420.342	3.05
420.699	3.04
421.057	3.05
421.414	3.04
421.772	3.03
422.129	3.04
422.486	3.04
422.844	3.04
423.201	3.04
423.558	3.04
423.915	3.03
424.273	3.02
424.63	3.01
424.987	3.02
425.344	3.01
425.701	3
426.058	3
426.415	3.01
426.772	2.99
427.128	2.97
427.485	2.96
427.842	2.93
428.199	2.94
428.555	2.93
428.912	2.92
429.269	2.92
429.625	2.9
429.982	2.88
430.338	2.87
430.695	2.85
431.051	2.83
431.407	2.85
431.764	2.85
432.12	2.85
432.476	2.85
432.832	2.83
433.189	2.83
433.545	2.81
433.901	2.78
434.257	2.77
434.613	2.76
434.969	2.77
435.325	2.79
435.681	2.78
436.036	2.78
436.392	2.79
436.748	2.77
437.104	2.77
437.459	2.78
437.815	2.78
438.171	2.79
438.526	2.79
438.882	2.78
439.237	2.79
439.593	2.79
439.948	2.79
440.304	2.81
440.659	2.82
441.014	2.83
441.369	2.83
441.725	2.85
442.08	2.86
442.435	2.86
442.79	2.85
443.145	2.85
443.5	2.84
443.855	2.84
444.21	2.84
444.565	2.86
444.92	2.87
445.275	2.86
445.629	2.87
445.984	2.86
446.339	2.84
446.693	2.83
447.048	2.83
447.403	2.82
447.757	2.81
448.112	2.81
448.466	2.81
448.82	2.8
449.175	2.81
449.529	2.81
449.883	2.79
450.238	2.79
450.592	2.79
450.946	2.79
451.3	2.78
451.654	2.76
452.008	2.74
452.362	2.73
452.716	2.72
453.07	2.73
453.424	2.74
453.778	2.76
454.132	2.76
454.486	2.75
454.839	2.75
455.193	2.74
455.547	2.72
455.9	2.74
456.254	2.76
456.607	2.75
456.961	2.74
457.314	2.75
457.668	2.75
458.021	2.73
458.375	2.73
458.728	2.74
459.081	2.74
459.434	2.74
459.787	2.75
460.141	2.76
460.494	2.76
460.847	2.77
461.2	2.75
461.553	2.76
461.906	2.75
462.259	2.77
462.611	2.8
462.964	2.82
463.317	2.8
463.67	2.79
464.022	2.78
464.375	2.79
464.728	2.8
465.08	2.8
465.433	2.81
465.785	2.83
466.138	2.83
466.49	2.86
466.843	2.88
467.195	2.88
467.547	2.9
467.899	2.88
468.252	2.88
468.604	2.91
468.956	2.92
469.308	2.95
469.66	2.93
470.012	2.95
470.364	2.96
470.716	2.98
471.068	2.99
471.42	3.01
471.772	3.03
472.123	3.04
472.475	3.07
472.827	3.09
473.178	3.11
473.53	3.1
473.882	3.11
474.233	3.11
474.585	3.11
474.936	3.1
475.288	3.13
475.639	3.13
475.99	3.12
476.342	3.12
476.693	3.11
477.044	3.12
477.395	3.11
477.746	3.08
478.097	3.09
478.448	3.08
478.8	3.05
479.15	3.04
479.501	3.03
479.852	3.01
480.203	3
480.554	3.01
480.905	3.02
481.255	3
481.606	2.99
481.957	2.99
482.307	2.99
482.658	2.99
483.009	2.99
483.359	2.99
483.709	2.99
484.06	2.99
484.41	3
484.761	3
485.111	2.99
485.461	2.99
485.811	2.99
486.162	2.99
486.512	3
486.862	3
487.212	3
487.562	2.99
487.912	2.98
488.262	2.98
488.612	2.98
488.961	2.99
489.311	2.99
489.661	2.99
490.011	2.99
490.36	2.98
490.71	2.99
491.06	2.99
491.409	2.99
491.759	2.99
492.108	2.99
492.458	2.99
492.807	2.99
493.157	2.99
493.506	3
493.855	3.01
494.204	3.01
494.554	3.01
494.903	3.03
495.252	3.06
495.601	3.07
495.95	3.1
496.299	3.09
496.648	3.09
496.997	3.1
497.346	3.14
497.695	3.16
498.043	3.18
498.392	3.17
498.741	3.21
499.09	3.21
499.438	3.25
499.787	3.3
500.135	3.35
500.484	3.39
500.832	3.42
501.181	3.44
501.529	3.48
501.878	3.54
502.226	3.57
502.574	3.6
502.923	3.63
503.271	3.66
503.619	3.73
503.967	3.79
504.315	3.84
504.663	3.88
505.011	3.95
505.359	3.99
505.707	4.07
506.055	4.14
506.403	4.22
506.751	4.28
507.098	4.33
507.446	4.39
507.794	4.46
508.141	4.55
508.489	4.63
508.837	4.72
509.184	4.8
509.531	4.89
509.879	4.99
510.226	5.11
510.574	5.19
510.921	5.28
511.268	5.37
511.616	5.47
511.963	5.6
512.31	5.69
512.657	5.81
513.004	5.92
513.351	6.05
513.698	6.18
514.045	6.32
514.392	6.46
514.739	6.61
515.086	6.76
515.432	6.89
515.779	7.03
516.126	7.14
516.473	7.27
516.819	7.41
517.166	7.5
517.512	7.61
517.859	7.74
518.205	7.87
518.552	8.01
518.898	8.13
519.245	8.23
519.591	8.36
519.937	8.48
520.283	8.59
520.629	8.72
520.976	8.86
521.322	8.99
521.668	9.14
522.014	9.28
522.36	9.44
522.706	9.6
523.052	9.8
523.398	10.01
523.743	10.24
524.089	10.43
524.435	10.63
524.781	10.81
525.126	11
525.472	11.17
525.817	11.3
526.163	11.44
526.509	11.56
526.854	11.68
527.199	11.8
527.545	11.92
527.89	12.04
528.235	12.16
528.581	12.29
528.926	12.42
529.271	12.55
529.616	12.67
529.961	12.81
530.306	12.92
530.651	13.05
530.996	13.19
531.341	13.35
531.686	13.52
532.031	13.68
532.376	13.84
532.721	14.01
533.065	14.2
533.41	14.38
533.755	14.58
534.099	14.8
534.444	15
534.788	15.21
535.133	15.41
535.477	15.61
535.822	15.83
536.166	16.05
536.51	16.3
536.855	16.56
537.199	16.83
537.543	17.09
537.887	17.35
538.231	17.64
538.576	17.9
538.92	18.14
539.264	18.42
539.608	18.64
539.951	18.88
540.295	19.11
540.639	19.33
540.983	19.55
541.327	19.73
541.671	19.95
542.014	20.15
542.358	20.35
542.701	20.54
543.045	20.75
543.389	20.96
543.732	21.18
544.075	21.39
544.419	21.62
544.762	21.88
545.105	22.16
545.449	22.4
545.792	22.67
546.135	22.97
546.478	23.26
546.821	23.59
547.165	23.89
547.508	24.16
547.851	24.49
548.194	24.78
548.536	25.11
548.879	25.46
549.222	25.76
549.565	26.12
549.908	26.47
550.25	26.8
550.593	27.12
550.936	27.48
551.278	27.81
551.621	28.16
551.963	28.48
552.306	28.76
552.648	29.06
552.991	29.4
553.333	29.69
553.675	30.03
554.017	30.24
554.36	30.51
554.702	30.86
555.044	31.12
555.386	31.38
555.728	31.67
556.07	31.97
556.412	32.25
556.754	32.49
557.096	32.84
557.438	33.15
557.78	33.48
558.121	33.74
558.463	34.03
558.805	34.3
559.147	34.61
559.488	34.92
559.83	35.2
560.171	35.44
560.513	35.71
560.854	35.91
561.196	36.29
561.537	36.58
561.878	36.85
562.22	37.11
562.561	37.35
562.902	37.62
563.243	37.82
563.584	38.06
563.925	38.3
564.266	38.48
564.607	38.7
564.948	38.9
565.289	39.11
565.63	39.31
565.971	39.47
566.312	39.67
566.653	39.86
566.993	40.02
567.334	40.2
567.675	40.41
568.015	40.66
568.356	40.76
568.696	40.96
569.037	41.2
569.377	41.4
569.718	41.62
570.058	41.72
570.398	41.9
570.739	42.1
571.079	42.3
571.419	42.45
571.759	42.61
572.099	42.77
572.439	42.94
572.779	43.13
573.119	43.35
573.459	43.46
573.799	43.6
574.139	43.78
574.479	43.96
574.819	44.1
575.158	44.2
575.498	44.44
575.838	44.6
576.177	44.74
576.517	44.9
576.856	45.08
577.196	45.31
577.535	45.47
577.875	45.64
578.214	45.87
578.553	46.01
578.893	46.19
579.232	46.38
579.571	46.58
579.91	46.68
580.25	46.77
580.589	46.96
580.928	47.11
581.267	47.3
581.606	47.42
581.945	47.53
582.283	47.67
582.622	47.78
582.961	47.82
583.3	47.82
583.639	47.96
583.977	48.14
584.316	48.32
584.654	48.46
584.993	48.61
585.332	48.65
585.67	48.79
586.008	48.97
586.347	48.99
586.685	49.01
587.024	49.14
587.362	49.27
587.7	49.42
588.038	49.58
588.376	49.7
588.715	49.86
589.053	49.96
589.391	50.07
589.729	50.09
590.067	50.2
590.404	50.36
590.742	50.43
591.08	50.47
591.418	50.51
591.756	50.55
592.093	50.58
592.431	50.63
592.769	50.67
593.106	50.71
593.444	50.81
593.781	50.92
594.119	51
594.456	51.01
594.793	51.05
595.131	51.11
595.468	51.17
595.805	51.16
596.143	51.22
596.48	51.28
596.817	51.38
597.154	51.5
597.491	51.52
597.828	51.57
598.165	51.63
598.502	51.68
598.839	51.82
599.176	51.91
599.512	52
599.849	52.06
600.186	52.15
600.523	52.21
600.859	52.24
601.196	52.3
601.532	52.35
601.869	52.38
602.205	52.39
602.542	52.37
602.878	52.51
603.215	52.58
603.551	52.61
603.887	52.66
604.223	52.69
604.56	52.82
604.896	52.83
605.232	52.84
605.568	52.88
605.904	52.82
606.24	52.9
606.576	52.99
606.912	53.11
607.248	53.17
607.583	53.23
607.919	53.3
608.255	53.34
608.591	53.42
608.926	53.55
609.262	53.63
609.597	53.75
609.933	53.76
610.268	53.79
610.604	53.87
610.939	54.02
611.275	54.01
611.61	54.05
611.945	54.11
612.281	54.22
612.616	54.27
612.951	54.43
613.286	54.51
613.621	54.54
613.956	54.51
614.291	54.5
614.626	54.55
614.961	54.61
615.296	54.62
615.631	54.71
615.966	54.67
616.3	54.79
616.635	54.77
616.97	54.86
617.304	54.93
617.639	54.87
617.973	54.74
618.308	54.87
618.642	54.82
618.977	54.9
619.311	54.92
619.646	55.03
619.98	55.07
620.314	55
620.648	55.05
620.983	55.09
621.317	55.16
621.651	55.27
621.985	55.26
622.319	55.34
622.653	55.36
622.987	55.46
623.321	55.42
623.655	55.5
623.988	55.46
624.322	55.45
624.656	55.59
624.99	55.67
625.323	55.58
625.657	55.58
625.99	55.61
626.324	55.63
626.657	55.61
626.991	55.49
627.324	55.52
627.658	55.61
627.991	55.75
628.324	55.82
628.657	55.78
628.991	55.97
629.324	55.97
629.657	56.06
629.99	55.97
630.323	55.93
630.656	55.96
630.989	56.01
631.322	56.12
631.655	56.11
631.987	56.12
632.32	56.26
632.653	56.37
632.986	56.35
633.318	56.43
633.651	56.49
633.984	56.62
634.316	56.64
634.649	56.54
634.981	56.46
635.313	56.42
635.646	56.42
635.978	56.44
636.31	56.41
636.643	56.31
636.975	56.43
637.307	56.53
637.639	56.55
637.971	56.55
638.303	56.38
638.635	56.37
638.967	56.42
639.299	56.49
639.631	56.44
639.963	56.54
640.295	56.46
640.626	56.5
640.958	56.61
641.29	56.75
641.621	56.8
641.953	56.82
642.285	56.86
642.616	56.98
642.948	56.92
643.279	57.04
643.61	57.04
643.942	56.96
644.273	56.97
644.604	56.92
644.936	56.86
645.267	57.01
645.598	57.03
645.929	57.1
646.26	56.95
646.591	57.02
646.922	56.93
647.253	56.98
647.584	56.97
647.915	56.89
648.245	56.98
648.576	57
648.907	56.99
649.238	56.88
649.568	56.85
649.899	56.9
650.229	56.85
650.56	57.09
650.89	57.17
651.221	57.15
651.551	57.23
651.882	57.33
652.212	57.37
652.542	57.38
652.872	57.27
653.203	57.27
653.533	57.18
653.863	57.22
654.193	57.22
654.523	57.19
654.853	57.22
655.183	57.12
655.513	56.99
655.843	56.98
656.172	56.93
656.502	56.98
656.832	56.99
657.162	57.04
657.491	56.99
657.821	56.99
658.15	57.18
658.48	57.16
658.809	57.05
659.139	57.03
659.468	57.06
659.798	57.18
660.127	57.35
660.456	57.41
660.785	57.55
661.115	57.5
661.444	57.57
661.773	57.63
662.102	57.63
662.431	57.8
662.76	57.87
663.089	57.96
663.418	57.96
663.747	57.94
664.076	58.02
664.404	58.06
664.733	58.05
665.062	57.88
665.39	57.93
665.719	58.03
666.048	58.13
666.376	58.13
666.705	58.03
667.033	57.98
667.362	58.02
667.69	57.95
668.018	58.02
668.347	58.1
668.675	58.08
669.003	58.08
669.331	58.09
669.659	58.15
669.987	58.3
670.315	58.33
670.643	58.25
670.971	58.24
671.299	58.19
671.627	58.1
671.955	58.3
672.283	58.27
672.61	58.36
672.938	58.36
673.266	58.38
673.593	58.44
673.921	58.38
674.249	58.32
674.576	58.28
674.904	58.3
675.231	58.08
675.558	58.11
675.886	58.15
676.213	58.17
676.54	58.11
676.867	58.12
677.195	57.96
677.522	58.08
677.849	58.01
678.176	57.95
678.503	58.05
678.83	58
679.157	58.04
679.484	58.1
679.81	58.16
680.137	58.16
680.464	58.1
680.791	58.13
681.117	58.27
681.444	58.25
681.771	58.31
682.097	58.46
682.424	58.47
682.75	58.47
683.077	58.39
683.403	58.53
683.729	58.48
684.056	58.59
684.382	58.53
684.708	58.52
685.034	58.48
685.36	58.45
685.686	58.37
686.012	58.35
686.339	58.32
686.664	58.3
686.99	58.42
687.316	58.42
687.642	58.47
687.968	58.44
688.294	58.47
688.619	58.48
688.945	58.31
689.271	58.28
689.596	58.12
689.922	58.14
690.247	58.02
690.573	58.02
690.898	58.08
691.224	57.95
691.549	57.99
691.874	57.99
692.2	58.03
692.525	58.01
692.85	58.07
693.175	58.04
693.5	58
693.825	57.75
694.15	57.84
694.475	57.74
694.8	57.73
695.125	57.61
695.45	57.27
695.775	57.48
696.099	57.48
696.424	57.54
696.749	57.54
697.073	57.68
697.398	57.61
697.723	57.56
698.047	57.66
698.372	57.66
698.696	57.8
699.02	57.83
699.345	57.85
699.669	57.91
699.993	57.82
700.318	57.82
700.642	57.97
700.966	57.96
701.29	58.04
701.614	58.09
701.938	58.18
702.262	58.51
702.586	58.52
702.91	58.55
703.234	58.6
703.557	58.55
703.881	58.52
704.205	58.62
704.529	58.61
704.852	58.5
705.176	58.65
705.499	58.65
705.823	58.65
706.146	58.73
706.47	58.54
706.793	58.59
707.117	58.59
707.44	58.57
707.763	58.54
708.086	58.38
708.409	58.3
708.733	58.38
709.056	58.31
709.379	58.33
709.702	58.37
710.025	58.39
710.348	58.68
710.671	58.59
710.993	58.61
711.316	58.74
711.639	58.88
711.962	58.77
712.284	58.79
712.607	58.8
712.93	58.76
713.252	58.87
713.575	58.83
713.897	58.82
714.22	58.88
714.542	58.88
714.864	59.23
715.187	59.16
715.509	59.22
715.831	59.3
716.153	59.41
716.475	59.47
716.798	59.56
717.12	59.65
717.442	59.76
717.764	59.73
718.085	59.73
718.407	59.72
718.729	59.67
719.051	59.57
719.373	59.63
719.695	59.67
720.016	59.55
720.338	59.62
720.659	59.74
720.981	59.71
721.302	59.93
721.624	59.93
721.945	59.96
722.267	60.05
722.588	59.72
722.909	59.31
723.231	59.52
723.552	59.43
723.873	59.23
724.194	59.11
724.515	59
724.836	58.93
725.157	59.06
725.478	59.28
725.799	59.44
726.12	59.3
726.441	59.3
726.762	59.14
727.083	59.15
727.403	59.31
727.724	59.31
728.045	59.22
728.365	59.18
728.686	59.23
729.006	59.08
729.327	59.42
729.647	59.68
729.967	59.5
730.288	59.61
730.608	59.65
730.928	59.73
731.249	59.77
731.569	59.71
731.889	59.61
732.209	59.51
732.529	59.4
732.849	59.55
733.169	59.44
733.489	59.7
733.809	59.66
734.129	59.33
734.448	59.21
734.768	59.26
735.088	58.89
735.408	58.81
735.727	58.96
736.047	58.63
736.366	58.42
736.686	58.29
737.005	58.11
737.325	57.82
737.644	57.72
737.963	57.91
738.283	57.96
738.602	58.03
738.921	57.81
739.24	57.96
739.56	57.96
739.879	57.95
740.198	57.7
740.517	57.63
740.836	57.7
741.155	57.91
741.473	57.73
741.792	57.9
742.111	58.28
742.43	58.16
742.748	58.46
743.067	58.43
743.386	58.38
743.704	58.45
744.023	58.88
744.341	58.97
744.66	58.54
744.978	58.44
745.297	58
745.615	58.4
745.933	58.2
746.252	58.27
746.57	58.43
746.888	58.65
747.206	58.69
747.524	58.55
747.842	58.6
748.16	58.76
748.478	58.91
748.796	59.02
749.114	59.34
749.432	59.23
749.749	59.61
750.067	59.64
750.385	59.68
750.703	59.49
751.02	59.47
751.338	59.8
751.655	59.81
751.973	60.08
752.29	60.04
752.608	59.86
752.925	59.79
753.242	60.03
753.56	60.08
753.877	60.32
754.194	60.24
754.511	60.27
754.828	59.8
755.145	59.68
755.462	59.33
755.779	59.05
756.096	59.15
756.413	58.93
756.73	59.15
757.047	59.23
757.364	59.17
757.68	59.06
757.997	59.04
758.314	59.01
758.63	58.97
758.947	58.68
759.264	58.85
759.58	58.7
759.896	58.47
760.213	58.64
760.529	58.74
760.846	58.85
761.162	58.69
761.478	59.29
761.794	59.41
762.11	59.31
762.426	59.43
762.743	59.55
763.059	59.66
763.375	59.43
763.69	59.75
764.006	59.71
764.322	59.63
764.638	59.37
764.954	59.41
765.27	59.44
765.585	59.62
765.901	59.9
766.216	59.85
766.532	59.78
766.848	59.6
767.163	59.24
767.478	59.01
767.794	58.79
768.109	58.22
768.424	58.2
768.74	58.31
769.055	57.98
769.37	58
769.685	57.95
770	58.32
770.315	57.59
770.63	57.4
770.945	57.28
771.26	57.73
771.575	57.86
771.89	57.61
772.205	57.57
772.52	57.1
772.834	57.15
773.149	57.46
773.464	57.31
773.778	57.86
774.093	58.37
774.407	58.46
774.722	58.91
775.036	58.66
775.351	58.4
775.665	58.3
775.979	58.01
776.293	57.73
776.608	57.65
776.922	57.98
777.236	58.35
777.55	58.65
777.864	58.51
778.178	58.28
778.492	58.48
778.806	58.31
779.12	58.87
779.434	59.3
779.747	59.77
780.061	60.04
780.375	60.14
780.689	59.79
781.002	60.07
781.316	59.53
781.629	59.87
781.943	60.05
782.256	60.04
782.57	60.02
782.883	60.24
783.196	60.31
783.51	60.06
783.823	59.67
784.136	60.1
784.449	59.98
784.762	60
785.075	60.48
785.388	60.33
785.701	59.82
786.014	59.79
786.327	59.24
786.64	59.42
786.953	59.1
787.266	59.68
787.578	59.44
787.891	59.97
788.204	59.98
788.516	59.53
788.829	59.37
789.141	59.7
789.454	59.35
789.766	59.27
790.079	59.25
790.391	59.39
790.703	59.04
791.016	59.13
791.328	59.61
791.64	58.78
791.952	59.74
792.264	59.99
792.576	59.33
792.888	59.43
793.2	58.94
793.512	58.52
793.824	58.34
794.136	58.51
794.448	58.47
794.76	58.47
795.071	59.05
795.383	59.16
795.695	58.76
796.006	59.02
796.318	58.85
796.629	58.94
796.941	59.21
797.252	58.94
797.564	58.9
797.875	58.69
798.186	59.34
798.497	58.75
798.809	58.85
799.12	59.46
799.431	58.87
799.742	58.94
800.053	59.3
800.364	58.91
800.675	58.64
800.986	58.7
801.297	58.53
801.608	58.13
801.918	58.89
802.229	58.96
802.54	58.93
802.851	59.25
803.161	59.4
803.472	59.55
803.782	59.6
804.093	59.71
804.403	60.08
804.714	60.33
805.024	59.63
805.334	59.48
805.645	59.57
805.955	60
806.265	59.65
806.575	59.37
806.885	59.7
807.195	60.01
807.505	59.64
807.815	59.02
808.125	59.12
808.435	58.62
808.745	57.92
809.055	58
809.365	58.15
809.674	57.74
809.984	58.24
810.294	58.41
810.603	58.37
810.913	57.75
811.222	57.88
811.532	58.05
811.841	57.58
812.151	57.29
812.46	57.03
812.769	58.02
813.079	58.18
813.388	57.83
813.697	57.83
814.006	58.1
814.315	58.98
814.624	59.13
814.933	59.58
815.242	59.94
815.551	59.27
815.86	57.86
816.169	58.24
816.478	57.68
816.786	57.68
817.095	58.2
817.404	58.52
817.712	57.77
818.021	58.17
818.33	58.28
818.638	58.28
818.947	58.52
819.255	57.85
819.563	58.23
819.872	59.32
820.18	59.68
820.488	59.88
820.796	60
821.105	60.08
821.413	59.85
821.721	60.07
822.029	60.58
822.337	60.94
822.645	61.14
822.953	61.06
823.26	61.12
823.568	61.08
823.876	61.04
824.184	61.08
824.491	61.24
824.799	61.26
825.107	61.22
825.414	61.36
825.722	61.64
826.029	61.54
826.337	61.22
826.644	61.17
826.951	60.98
827.259	60.79
827.566	60.75
827.873	60.71
828.18	60.53
828.488	60.54
828.795	60.49
829.102	60.12
829.409	60.18
829.716	59.89
830.023	59.78
830.329	59.6
830.636	59.66
830.943	59.25
831.25	59.23
831.557	59.38
831.863	59.32
832.17	59.27
832.476	59.51
832.783	59.66
833.089	58.83
833.396	59.25
833.702	59.32
834.009	59.7
834.315	60
834.621	60.31
834.928	59.84
835.234	59.09
835.54	59.11
835.846	59.04
836.152	59.27
836.458	59.22
836.764	59.44
837.07	59.3
837.376	59.1
837.682	59.42
837.988	59.06
838.293	58.47
838.599	57.71
838.905	57.75
839.211	57.07
839.516	58.15
839.822	57.59
840.127	57.38
840.433	57.17
840.738	57.3
841.044	56.87
841.349	56.5
841.654	56.87
841.959	56.55
842.265	56.27
842.57	57.09
842.875	57.02
843.18	57.41
843.485	58.08
843.79	59.01
844.095	59.04
844.4	60.12
844.705	59.29
845.01	60.35
845.315	59.77
845.619	59.66
845.924	58.96
846.229	59.46
846.533	59.43
846.838	58.81
847.142	57.75
847.447	57.5
847.751	56.03
848.056	56.26
848.36	56.79
848.664	55.57
848.969	53.94
849.273	53.49
849.577	52.27
849.881	52.53
850.185	52.78
850.489	52.18
850.794	50.06
851.097	51.69
851.401	51.19
851.705	48.88
852.009	50.97
852.313	50.39
852.617	48.93
852.92	50.58
853.224	50.12
853.528	52.01
853.831	51.32
854.135	52.17
854.438	53.76
854.742	54.13
855.045	56.68
855.349	56.21
855.652	55.65
855.955	57.4
856.259	56.48
856.562	53.73
856.865	52.69
857.168	54.4
857.471	55
857.774	56.69
858.077	59.72
858.38	58.72
858.683	59.59
858.986	60.54
859.289	58.43
859.592	57.98
859.894	57.95
860.197	58.44
860.5	58.98
860.802	56.35
861.105	56.22
861.407	55.27
861.71	55.41
862.012	56.25
862.315	56.06
862.617	56.15
862.919	55.05
863.222	54.91
863.524	56.01
863.826	56.32
864.128	56.35
864.43	56.69
864.732	56.79
865.034	55.55
865.336	55.71
865.638	54.35
865.94	52.51
866.242	50.99
866.544	52.65
866.846	52.77
867.147	53.19
867.449	53.31
867.751	53.02
868.052	53.42
868.354	51.05
868.655	50.08
868.957	47.38
869.258	49.42
869.56	49.03
869.861	47.39
870.162	46.47
870.463	44.26
870.765	44.51
871.066	44.48
871.367	45.49
871.668	46.99
871.969	48.46
872.27	50.63
872.571	48.72
872.872	48.6
873.173	49.47
873.473	48.97
873.774	47.93
874.075	48.94
874.376	48.64
874.676	52.98
874.977	51.9
875.277	53.75
875.578	56.73
875.878	58.13
876.179	58.66
876.479	59.11
876.78	61.32
877.08	60.27
877.38	59.97
877.68	60.51
877.981	58.69
878.281	59.72
878.581	59.87
