Data from BU26848_Reflection_00014.txt Node
Date: Mon Nov 18 16:25:56 EST 2019
User: vgr7
Spectrometer: USB2G7710
Scans to average: 3
Trigger mode: 4
Integration Time (sec): 2.000000E-2
Electric dark correction enabled: true
Boxcar width: 10
XAxis mode: Wavelengths
Number of Pixels in Spectrum: 2048
>>>>>Begin Spectral Data<<<<<
177.721	5.79
178.105	525.53
178.488	-470.16
178.871	29.28
179.254	336.69
179.636	-78.57
180.019	72.65
180.402	383.33
180.785	-504.65
181.168	-112.77
181.55	-256.16
181.933	86.21
182.316	62.98
182.698	44.85
183.081	48.83
183.463	35.76
183.846	44.21
184.228	106.85
184.611	160.09
184.993	269.05
185.376	-896.11
185.758	-641.64
186.14	-1121.37
186.522	514.94
186.904	1308.56
187.287	902.11
187.669	-1631.84
188.051	2566.17
188.433	-589.17
188.815	-361.83
189.197	-225.81
189.579	-232.43
189.961	-140.06
190.342	-190.74
190.724	-132.82
191.106	-118.3
191.488	-149.92
191.869	-143.95
192.251	-191.58
192.633	-175.51
193.014	-142.51
193.396	-215.34
193.777	-216.68
194.159	-182.04
194.54	-94.23
194.922	-88.47
195.303	-73.65
195.684	-73.75
196.065	-63.68
196.447	-31.78
196.828	-9.92
197.209	-29.07
197.59	-37.93
197.971	-0.66
198.352	12.72
198.733	11.74
199.114	22.67
199.495	36.39
199.876	17.92
200.257	13.07
200.638	30.7
201.018	25.08
201.399	5.38
201.78	8.5
202.16	-10.45
202.541	-67.51
202.922	-97.55
203.302	-88.81
203.683	-89.52
204.063	-88.81
204.444	-147.45
204.824	-125.45
205.204	-53.5
205.585	-35.54
205.965	-34.49
206.345	-34.92
206.725	-21.02
207.106	-63.47
207.486	-191.22
207.866	-76.15
208.246	-82.38
208.626	-38.66
209.006	42.45
209.386	39.73
209.766	35.93
210.145	-17.51
210.525	61.96
210.905	48.49
211.285	54.7
211.664	24.32
212.044	23.84
212.424	32.14
212.803	21.69
213.183	12.29
213.562	2.71
213.942	1.62
214.321	-13.89
214.701	-9.01
215.08	-13.94
215.459	-8.27
215.838	-1.64
216.218	-5.6
216.597	2.02
216.976	-1.75
217.355	-3.73
217.734	-3.08
218.113	1.91
218.492	-3.78
218.871	-7.89
219.25	7.73
219.629	5.09
220.008	-6.1
220.387	-13.42
220.766	-1.44
221.144	-7.7
221.523	-16.26
221.902	-23.82
222.28	-18.7
222.659	-28.75
223.037	-29.27
223.416	-37.01
223.794	-36.81
224.173	-35.04
224.551	-44.46
224.929	-42.46
225.308	-25.34
225.686	-17.13
226.064	-11.4
226.442	-6.36
226.821	1.67
227.199	-3.65
227.577	-2.71
227.955	-2.64
228.333	-5.39
228.711	-5.57
229.089	-1.99
229.467	-1.25
229.845	-0.22
230.222	-1.39
230.6	0.08
230.978	0.87
231.356	1.05
231.733	-0.49
232.111	-0.31
232.488	0.8
232.866	1.15
233.243	0.04
233.621	-1.19
233.998	1.23
234.376	0.69
234.753	-1.15
235.13	-0.05
235.508	-0.08
235.885	-0.62
236.262	-0.5
236.639	-0.51
237.016	-1.08
237.393	0.99
237.77	1.99
238.147	3.44
238.524	3.84
238.901	4.23
239.278	5.45
239.655	7.03
240.032	6.91
240.409	7.11
240.785	6.85
241.162	7.18
241.539	7.4
241.915	6.6
242.292	6.34
242.668	6.81
243.045	6.73
243.421	6.59
243.798	6.94
244.174	7.05
244.551	6.99
244.927	7.13
245.303	6.9
245.679	6.65
246.056	6.51
246.432	6.32
246.808	6.37
247.184	5.92
247.56	5.59
247.936	5.53
248.312	5.58
248.688	5.64
249.064	5.5
249.44	5.27
249.815	5.37
250.191	5.41
250.567	5.2
250.943	4.73
251.318	4.92
251.694	4.89
252.069	4.78
252.445	4.72
252.82	4.7
253.196	4.35
253.571	4.39
253.947	4.51
254.322	4.6
254.697	4.76
255.073	4.71
255.448	4.51
255.823	4.74
256.198	4.58
256.573	4.56
256.948	4.6
257.323	4.87
257.698	4.73
258.073	4.73
258.448	4.75
258.823	4.94
259.198	4.8
259.573	4.77
259.948	4.76
260.322	4.79
260.697	4.75
261.072	4.78
261.446	4.86
261.821	4.76
262.195	4.77
262.57	4.71
262.944	4.71
263.319	4.72
263.693	4.62
264.067	4.57
264.442	4.71
264.816	4.56
265.19	4.46
265.564	4.57
265.938	4.51
266.313	4.56
266.687	4.56
267.061	4.59
267.435	4.57
267.809	4.55
268.183	4.69
268.556	4.51
268.93	4.61
269.304	4.7
269.678	4.84
270.051	4.69
270.425	4.52
270.799	4.49
271.172	4.73
271.546	4.73
271.919	4.59
272.293	4.47
272.666	4.61
273.04	4.64
273.413	4.5
273.787	4.54
274.16	4.47
274.533	4.5
274.906	4.38
275.279	4.35
275.653	4.45
276.026	4.23
276.399	4.28
276.772	4.35
277.145	4.04
277.518	3.94
277.891	4.18
278.263	4.16
278.636	4.29
279.009	4.11
279.382	4.3
279.755	4.47
280.127	4.69
280.5	4.72
280.872	4.75
281.245	4.85
281.617	4.83
281.99	5.05
282.362	5.01
282.735	5.09
283.107	5.17
283.479	5.1
283.852	5.2
284.224	5.2
284.596	5.05
284.968	5.18
285.34	5.31
285.713	5.32
286.085	5.48
286.457	5.48
286.829	5.52
287.201	5.41
287.572	5.34
287.944	5.17
288.316	5.12
288.688	5.15
289.06	5.18
289.431	5.22
289.803	5.2
290.175	5.28
290.546	5.36
290.918	5.28
291.289	5.28
291.661	5.34
292.032	5.48
292.403	5.53
292.775	5.69
293.146	5.67
293.517	5.59
293.889	5.77
294.26	5.77
294.631	5.9
295.002	5.97
295.373	6.11
295.744	6.13
296.115	6.21
296.486	6.05
296.857	6.12
297.228	6.2
297.599	6.19
297.97	6.24
298.34	6.38
298.711	6.59
299.082	6.7
299.452	6.72
299.823	6.87
300.194	6.98
300.564	7
300.935	7.06
301.305	7.09
301.676	7.07
302.046	7.26
302.416	7.19
302.787	7.28
303.157	7.37
303.527	7.53
303.897	7.55
304.267	7.94
304.637	8.11
305.008	8.06
305.378	8.1
305.748	8.11
306.117	8.04
306.487	7.99
306.857	8.01
307.227	8.1
307.597	8.07
307.967	8.28
308.336	8.35
308.706	8.4
309.076	8.64
309.445	8.56
309.815	8.54
310.184	8.63
310.554	8.66
310.923	8.68
311.293	8.65
311.662	8.73
312.031	8.65
312.401	8.49
312.77	8.7
313.139	8.78
313.508	8.93
313.877	8.92
314.246	8.88
314.616	8.95
314.985	9.1
315.353	9.11
315.722	9.18
316.091	9.04
316.46	9
316.829	9.07
317.198	9.23
317.567	9.36
317.935	9.41
318.304	9.6
318.672	9.65
319.041	9.85
319.41	9.85
319.778	9.96
320.147	10.08
320.515	10.01
320.883	10.06
321.252	10.05
321.62	10.18
321.988	10.35
322.357	10.43
322.725	10.32
323.093	10.46
323.461	10.62
323.829	10.85
324.197	10.92
324.565	10.92
324.933	10.95
325.301	10.91
325.669	11.02
326.037	11.01
326.405	11.04
326.772	11.14
327.14	11.4
327.508	11.43
327.875	11.53
328.243	11.61
328.61	11.69
328.978	11.79
329.346	11.97
329.713	12
330.08	12.13
330.448	12.19
330.815	12.01
331.182	11.9
331.55	12.05
331.917	12.23
332.284	12.26
332.651	12.27
333.018	12.36
333.385	12.46
333.752	12.44
334.119	12.6
334.486	12.49
334.853	12.37
335.22	12.38
335.587	12.48
335.954	12.55
336.32	12.45
336.687	12.41
337.054	12.33
337.42	12.35
337.787	12.31
338.153	12.29
338.52	12.49
338.886	12.41
339.253	12.38
339.619	12.39
339.986	12.32
340.352	12.3
340.718	12.37
341.084	12.36
341.451	12.41
341.817	12.42
342.183	12.55
342.549	12.58
342.915	12.68
343.281	12.61
343.647	12.6
344.013	12.74
344.379	12.77
344.745	12.81
345.11	12.87
345.476	12.9
345.842	12.88
346.208	12.81
346.573	13.05
346.939	13.06
347.304	12.97
347.67	13.04
348.035	13.02
348.401	12.98
348.766	12.96
349.132	12.97
349.497	12.74
349.862	12.69
350.228	12.75
350.593	12.72
350.958	12.66
351.323	12.73
351.688	12.63
352.053	12.79
352.418	12.73
352.783	12.76
353.148	12.79
353.513	12.84
353.878	12.85
354.243	12.73
354.608	12.66
354.972	12.74
355.337	12.72
355.702	12.83
356.066	12.84
356.431	12.86
356.795	12.84
357.16	12.91
357.524	12.83
357.889	12.84
358.253	12.83
358.618	12.9
358.982	12.83
359.346	12.83
359.71	12.72
360.075	12.7
360.439	12.67
360.803	12.66
361.167	12.62
361.531	12.62
361.895	12.53
362.259	12.55
362.623	12.49
362.987	12.44
363.351	12.39
363.714	12.33
364.078	12.23
364.442	12.17
364.806	12.15
365.169	12.19
365.533	12.07
365.896	12.05
366.26	11.97
366.623	11.95
366.987	11.94
367.35	11.9
367.714	11.78
368.077	11.64
368.44	11.56
368.803	11.53
369.167	11.41
369.53	11.43
369.893	11.36
370.256	11.31
370.619	11.28
370.982	11.21
371.345	11.12
371.708	11.12
372.071	11.04
372.434	10.96
372.797	10.87
373.159	10.75
373.522	10.67
373.885	10.64
374.247	10.57
374.61	10.46
374.973	10.33
375.335	10.33
375.698	10.36
376.06	10.3
376.423	10.22
376.785	10.25
377.147	10.18
377.51	10.15
377.872	10.12
378.234	10.04
378.596	9.98
378.958	9.96
379.321	9.83
379.683	9.78
380.045	9.74
380.407	9.61
380.769	9.6
381.13	9.48
381.492	9.36
381.854	9.31
382.216	9.25
382.578	9.26
382.939	9.21
383.301	9.09
383.663	9
384.024	8.96
384.386	8.92
384.747	8.9
385.109	8.8
385.47	8.68
385.832	8.68
386.193	8.65
386.554	8.57
386.916	8.54
387.277	8.51
387.638	8.48
387.999	8.46
388.36	8.49
388.721	8.49
389.082	8.48
389.443	8.41
389.804	8.4
390.165	8.38
390.526	8.3
390.887	8.32
391.248	8.29
391.609	8.27
391.969	8.17
392.33	8.09
392.691	8.04
393.051	8
393.412	7.96
393.772	7.89
394.133	7.87
394.493	7.82
394.854	7.77
395.214	7.7
395.574	7.7
395.935	7.59
396.295	7.55
396.655	7.5
397.015	7.49
397.376	7.44
397.736	7.36
398.096	7.32
398.456	7.23
398.816	7.19
399.176	7.08
399.535	7.07
399.895	7
400.255	6.96
400.615	6.98
400.975	6.92
401.334	6.86
401.694	6.83
402.054	6.82
402.413	6.78
402.773	6.76
403.132	6.71
403.492	6.72
403.851	6.67
404.211	6.63
404.57	6.6
404.929	6.57
405.288	6.55
405.648	6.56
406.007	6.52
406.366	6.5
406.725	6.54
407.084	6.52
407.443	6.54
407.802	6.54
408.161	6.47
408.52	6.43
408.879	6.41
409.238	6.39
409.596	6.42
409.955	6.43
410.314	6.43
410.673	6.41
411.031	6.38
411.39	6.34
411.748	6.36
412.107	6.33
412.465	6.3
412.824	6.33
413.182	6.29
413.54	6.27
413.899	6.28
414.257	6.24
414.615	6.2
414.974	6.17
415.332	6.14
415.69	6.14
416.048	6.13
416.406	6.11
416.764	6.07
417.122	6.02
417.48	5.98
417.838	5.94
418.195	5.9
418.553	5.87
418.911	5.85
419.269	5.83
419.626	5.83
419.984	5.81
420.342	5.78
420.699	5.74
421.057	5.74
421.414	5.71
421.772	5.7
422.129	5.7
422.486	5.68
422.844	5.65
423.201	5.64
423.558	5.63
423.915	5.62
424.273	5.61
424.63	5.59
424.987	5.57
425.344	5.56
425.701	5.56
426.058	5.55
426.415	5.54
426.772	5.5
427.128	5.46
427.485	5.44
427.842	5.42
428.199	5.43
428.555	5.4
428.912	5.39
429.269	5.34
429.625	5.3
429.982	5.28
430.338	5.28
430.695	5.23
431.051	5.2
431.407	5.21
431.764	5.2
432.12	5.19
432.476	5.2
432.832	5.19
433.189	5.18
433.545	5.16
433.901	5.16
434.257	5.16
434.613	5.16
434.969	5.16
435.325	5.16
435.681	5.16
436.036	5.16
436.392	5.16
436.748	5.17
437.104	5.17
437.459	5.17
437.815	5.18
438.171	5.2
438.526	5.22
438.882	5.21
439.237	5.22
439.593	5.21
439.948	5.21
440.304	5.21
440.659	5.22
441.014	5.25
441.369	5.23
441.725	5.24
442.08	5.24
442.435	5.24
442.79	5.25
443.145	5.25
443.5	5.25
443.855	5.25
444.21	5.25
444.565	5.26
444.92	5.26
445.275	5.23
445.629	5.21
445.984	5.21
446.339	5.2
446.693	5.18
447.048	5.18
447.403	5.16
447.757	5.15
448.112	5.12
448.466	5.1
448.82	5.1
449.175	5.09
449.529	5.08
449.883	5.08
450.238	5.04
450.592	5.03
450.946	4.98
451.3	4.95
451.654	4.94
452.008	4.92
452.362	4.91
452.716	4.91
453.07	4.89
453.424	4.87
453.778	4.85
454.132	4.85
454.486	4.85
454.839	4.85
455.193	4.83
455.547	4.82
455.9	4.8
456.254	4.8
456.607	4.81
456.961	4.8
457.314	4.79
457.668	4.82
458.021	4.82
458.375	4.86
458.728	4.88
459.081	4.89
459.434	4.89
459.787	4.89
460.141	4.89
460.494	4.91
460.847	4.93
461.2	4.93
461.553	4.96
461.906	4.97
462.259	4.98
462.611	5.01
462.964	5.04
463.317	5.06
463.67	5.09
464.022	5.11
464.375	5.12
464.728	5.13
465.08	5.16
465.433	5.2
465.785	5.21
466.138	5.23
466.49	5.24
466.843	5.26
467.195	5.28
467.547	5.31
467.899	5.34
468.252	5.33
468.604	5.37
468.956	5.37
469.308	5.41
469.66	5.45
470.012	5.47
470.364	5.49
470.716	5.49
471.068	5.51
471.42	5.53
471.772	5.55
472.123	5.59
472.475	5.6
472.827	5.59
473.178	5.64
473.53	5.65
473.882	5.67
474.233	5.69
474.585	5.68
474.936	5.71
475.288	5.71
475.639	5.7
475.99	5.69
476.342	5.69
476.693	5.68
477.044	5.67
477.395	5.65
477.746	5.64
478.097	5.64
478.448	5.61
478.8	5.57
479.15	5.54
479.501	5.52
479.852	5.5
480.203	5.49
480.554	5.48
480.905	5.46
481.255	5.45
481.606	5.45
481.957	5.45
482.307	5.43
482.658	5.41
483.009	5.41
483.359	5.41
483.709	5.41
484.06	5.39
484.41	5.39
484.761	5.38
485.111	5.37
485.461	5.36
485.811	5.35
486.162	5.36
486.512	5.36
486.862	5.36
487.212	5.35
487.562	5.35
487.912	5.33
488.262	5.33
488.612	5.33
488.961	5.32
489.311	5.33
489.661	5.33
490.011	5.34
490.36	5.34
490.71	5.34
491.06	5.34
491.409	5.36
491.759	5.36
492.108	5.39
492.458	5.4
492.807	5.42
493.157	5.46
493.506	5.48
493.855	5.51
494.204	5.53
494.554	5.55
494.903	5.58
495.252	5.61
495.601	5.65
495.95	5.69
496.299	5.74
496.648	5.76
496.997	5.82
497.346	5.88
497.695	5.94
498.043	5.98
498.392	6.03
498.741	6.1
499.09	6.17
499.438	6.24
499.787	6.31
500.135	6.39
500.484	6.47
500.832	6.56
501.181	6.66
501.529	6.78
501.878	6.9
502.226	7.01
502.574	7.13
502.923	7.28
503.271	7.42
503.619	7.57
503.967	7.73
504.315	7.86
504.663	8.01
505.011	8.18
505.359	8.35
505.707	8.54
506.055	8.71
506.403	8.92
506.751	9.11
507.098	9.3
507.446	9.51
507.794	9.71
508.141	9.9
508.489	10.12
508.837	10.31
509.184	10.55
509.531	10.8
509.879	11.04
510.226	11.3
510.574	11.55
510.921	11.8
511.268	12.05
511.616	12.33
511.963	12.62
512.31	12.89
512.657	13.21
513.004	13.54
513.351	13.87
513.698	14.22
514.045	14.58
514.392	14.94
514.739	15.31
515.086	15.66
515.432	16.04
515.779	16.4
516.126	16.76
516.473	17.06
516.819	17.37
517.166	17.72
517.512	18
517.859	18.32
518.205	18.6
518.552	18.89
518.898	19.15
519.245	19.44
519.591	19.75
519.937	20.04
520.283	20.33
520.629	20.65
520.976	20.97
521.322	21.3
521.668	21.63
522.014	21.99
522.36	22.36
522.706	22.77
523.052	23.17
523.398	23.61
523.743	24.07
524.089	24.49
524.435	24.92
524.781	25.33
525.126	25.71
525.472	26.05
525.817	26.39
526.163	26.7
526.509	26.96
526.854	27.24
527.199	27.47
527.545	27.7
527.89	27.96
528.235	28.18
528.581	28.41
528.926	28.67
529.271	28.9
529.616	29.15
529.961	29.36
530.306	29.6
530.651	29.85
530.996	30.1
531.341	30.39
531.686	30.65
532.031	30.91
532.376	31.17
532.721	31.46
533.065	31.75
533.41	32.06
533.755	32.38
534.099	32.67
534.444	33
534.788	33.3
535.133	33.57
535.477	33.88
535.822	34.18
536.166	34.45
536.51	34.77
536.855	35.15
537.199	35.53
537.543	35.92
537.887	36.27
538.231	36.66
538.576	37.01
538.92	37.32
539.264	37.65
539.608	37.98
539.951	38.25
540.295	38.53
540.639	38.81
540.983	39.09
541.327	39.31
541.671	39.54
542.014	39.76
542.358	40.01
542.701	40.25
543.045	40.48
543.389	40.73
543.732	40.98
544.075	41.2
544.419	41.41
544.762	41.65
545.105	41.92
545.449	42.16
545.792	42.43
546.135	42.76
546.478	43.05
546.821	43.34
547.165	43.66
547.508	43.96
547.851	44.22
548.194	44.47
548.536	44.8
548.879	45.13
549.222	45.42
549.565	45.72
549.908	46.03
550.25	46.36
550.593	46.68
550.936	46.95
551.278	47.25
551.621	47.58
551.963	47.87
552.306	48.13
552.648	48.41
552.991	48.68
553.333	48.87
553.675	49.13
554.017	49.39
554.36	49.59
554.702	49.76
555.044	50
555.386	50.22
555.728	50.42
556.07	50.64
556.412	50.91
556.754	51.09
557.096	51.13
557.438	51.36
557.78	51.53
558.121	51.76
558.463	51.95
558.805	52.18
559.147	52.37
559.488	52.58
559.83	52.74
560.171	53
560.513	53.18
560.854	53.3
561.196	53.43
561.537	53.64
561.878	53.84
562.22	54.01
562.561	54.18
562.902	54.34
563.243	54.44
563.584	54.59
563.925	54.76
564.266	55
564.607	55.1
564.948	55.29
565.289	55.38
565.63	55.46
565.971	55.56
566.312	55.7
566.653	55.74
566.993	55.91
567.334	55.95
567.675	55.98
568.015	56.14
568.356	56.26
568.696	56.37
569.037	56.41
569.377	56.5
569.718	56.67
570.058	56.79
570.398	56.99
570.739	57.09
571.079	57.19
571.419	57.25
571.759	57.37
572.099	57.38
572.439	57.52
572.779	57.62
573.119	57.69
573.459	57.76
573.799	57.9
574.139	57.91
574.479	58.01
574.819	58.17
575.158	58.25
575.498	58.34
575.838	58.45
576.177	58.59
576.517	58.68
576.856	58.78
577.196	58.79
577.535	58.78
577.875	58.87
578.214	58.91
578.553	59.11
578.893	59.19
579.232	59.41
579.571	59.55
579.91	59.71
580.25	59.87
580.589	59.98
580.928	60.04
581.267	60.18
581.606	60.28
581.945	60.38
582.283	60.42
582.622	60.54
582.961	60.59
583.3	60.67
583.639	60.78
583.977	60.83
584.316	60.96
584.654	61.11
584.993	61.15
585.332	61.35
585.67	61.36
586.008	61.43
586.347	61.47
586.685	61.5
587.024	61.47
587.362	61.46
587.7	61.47
588.038	61.52
588.376	61.57
588.715	61.62
589.053	61.73
589.391	61.86
589.729	61.87
590.067	61.91
590.404	62.04
590.742	62.08
591.08	62.07
591.418	62.12
591.756	62.13
592.093	62.31
592.431	62.33
592.769	62.41
593.106	62.48
593.444	62.47
593.781	62.56
594.119	62.67
594.456	62.67
594.793	62.73
595.131	62.76
595.468	62.85
595.805	62.89
596.143	62.97
596.48	63
596.817	63.04
597.154	63.13
597.491	63.14
597.828	63.24
598.165	63.43
598.502	63.49
598.839	63.55
599.176	63.51
599.512	63.51
599.849	63.63
600.186	63.62
600.523	63.75
600.859	63.73
601.196	63.81
601.532	63.89
601.869	63.86
602.205	63.98
602.542	63.95
602.878	63.99
603.215	63.96
603.551	63.98
603.887	64.04
604.223	64.08
604.56	64.07
604.896	64.08
605.232	64.03
605.568	64.01
605.904	64.03
606.24	64.01
606.576	64.03
606.912	63.98
607.248	63.96
607.583	64.02
607.919	64.09
608.255	64.08
608.591	64.19
608.926	64.24
609.262	64.3
609.597	64.38
609.933	64.41
610.268	64.47
610.604	64.54
610.939	64.55
611.275	64.54
611.61	64.55
611.945	64.57
612.281	64.66
612.616	64.86
612.951	64.94
613.286	65.15
613.621	65.23
613.956	65.27
614.291	65.46
614.626	65.45
614.961	65.43
615.296	65.49
615.631	65.47
615.966	65.62
616.3	65.63
616.635	65.7
616.97	65.82
617.304	65.86
617.639	65.86
617.973	65.84
618.308	65.92
618.642	66.03
618.977	66.09
619.311	66.03
619.646	66.08
619.98	66.13
620.314	66.06
620.648	66.08
620.983	66.17
621.317	66.18
621.651	66.2
621.985	66.17
622.319	66.2
622.653	66.28
622.987	66.31
623.321	66.32
623.655	66.24
623.988	66.26
624.322	66.22
624.656	66.31
624.99	66.4
625.323	66.39
625.657	66.41
625.99	66.36
626.324	66.41
626.657	66.34
626.991	66.35
627.324	66.27
627.658	66.35
627.991	66.31
628.324	66.31
628.657	66.32
628.991	66.38
629.324	66.43
629.657	66.39
629.99	66.32
630.323	66.34
630.656	66.38
630.989	66.36
631.322	66.46
631.655	66.43
631.987	66.45
632.32	66.51
632.653	66.6
632.986	66.56
633.318	66.52
633.651	66.57
633.984	66.53
634.316	66.63
634.649	66.66
634.981	66.77
635.313	66.85
635.646	66.89
635.978	66.96
636.31	67.03
636.643	67.06
636.975	67.14
637.307	67.16
637.639	67.11
637.971	67.02
638.303	67.01
638.635	66.94
638.967	66.97
639.299	67.01
639.631	67
639.963	67.01
640.295	67.04
640.626	67.03
640.958	67.18
641.29	67.32
641.621	67.31
641.953	67.3
642.285	67.2
642.616	67.25
642.948	67.37
643.279	67.39
643.61	67.28
643.942	67.35
644.273	67.35
644.604	67.59
644.936	67.76
645.267	67.81
645.598	67.84
645.929	67.75
646.26	67.73
646.591	67.72
646.922	67.81
647.253	67.91
647.584	67.92
647.915	67.78
648.245	67.66
648.576	67.7
648.907	67.67
649.238	67.77
649.568	67.76
649.899	67.64
650.229	67.59
650.56	67.79
650.89	67.87
651.221	67.94
651.551	67.86
651.882	67.93
652.212	67.78
652.542	67.9
652.872	68
653.203	67.93
653.533	67.81
653.863	67.82
654.193	67.84
654.523	67.89
654.853	68.02
655.183	68.08
655.513	68.11
655.843	68.15
656.172	68.26
656.502	68.31
656.832	68.33
657.162	68.29
657.491	68.3
657.821	68.21
658.15	68.16
658.48	68.14
658.809	68.09
659.139	68.07
659.468	67.99
659.798	67.98
660.127	68.05
660.456	68.16
660.785	68.2
661.115	68.24
661.444	68.25
661.773	68.15
662.102	68.18
662.431	68.13
662.76	68.13
663.089	68.24
663.418	68.24
663.747	68.22
664.076	68.3
664.404	68.29
664.733	68.33
665.062	68.27
665.39	68.45
665.719	68.53
666.048	68.76
666.376	68.81
666.705	68.92
667.033	69.02
667.362	69.07
667.69	69.17
668.018	68.99
668.347	68.91
668.675	68.95
669.003	68.91
669.331	68.92
669.659	68.88
669.987	68.75
670.315	68.76
670.643	68.76
670.971	68.64
671.299	68.61
671.627	68.6
671.955	68.71
672.283	68.65
672.61	68.67
672.938	68.63
673.266	68.84
673.593	68.82
673.921	68.77
674.249	68.82
674.576	68.66
674.904	68.72
675.231	68.78
675.558	68.77
675.886	68.74
676.213	68.61
676.54	68.67
676.867	68.61
677.195	68.54
677.522	68.61
677.849	68.57
678.176	68.61
678.503	68.5
678.83	68.39
679.157	68.27
679.484	68.24
679.81	68.25
680.137	68
680.464	67.99
680.791	67.92
681.117	67.93
681.444	67.99
681.771	68.06
682.097	68.03
682.424	68.08
682.75	68.05
683.077	68.16
683.403	68.2
683.729	68.28
684.056	68.28
684.382	68.25
684.708	68.4
685.034	68.22
685.36	68.36
685.686	68.42
686.012	68.43
686.339	68.4
686.664	68.14
686.99	68.18
687.316	68.21
687.642	68.23
687.968	68.03
688.294	68.06
688.619	67.98
688.945	67.88
689.271	67.92
689.596	67.98
689.922	67.99
690.247	67.97
690.573	67.82
690.898	67.92
691.224	67.95
691.549	67.91
691.874	68.14
692.2	68.1
692.525	68.19
692.85	68.33
693.175	68.56
693.5	68.79
693.825	68.81
694.15	68.82
694.475	68.93
694.8	69.01
695.125	69.07
695.45	69.07
695.775	69.27
696.099	69.25
696.424	69.17
696.749	69.12
697.073	69
697.398	69.02
697.723	69.05
698.047	69.09
698.372	69.15
698.696	69.01
699.02	69.07
699.345	69.02
699.669	68.97
699.993	68.82
700.318	68.96
700.642	68.96
700.966	68.87
701.29	68.61
701.614	68.63
701.938	68.67
702.262	68.65
702.586	68.49
702.91	68.47
703.234	68.43
703.557	68.56
703.881	68.73
704.205	68.76
704.529	68.56
704.852	68.54
705.176	68.42
705.499	68.5
705.823	68.24
706.146	68.41
706.47	68.34
706.793	68.3
707.117	68.02
707.44	68.08
707.763	68.25
708.086	68.41
708.409	68.47
708.733	68.25
709.056	68.29
709.379	68.37
709.702	68.4
710.025	68.63
710.348	68.57
710.671	68.37
710.993	68.48
711.316	68.66
711.639	68.8
711.962	68.69
712.284	68.58
712.607	68.95
712.93	68.77
713.252	68.94
713.575	68.95
713.897	69.05
714.22	68.96
714.542	68.88
714.864	68.99
715.187	69.01
715.509	69.22
715.831	69.34
716.153	69.34
716.475	69.33
716.798	69.27
717.12	69.27
717.442	69.46
717.764	69.35
718.085	69.25
718.407	68.92
718.729	68.95
719.051	69.07
719.373	68.76
719.695	69
720.016	68.75
720.338	68.7
720.659	68.84
720.981	69.07
721.302	69.09
721.624	69.04
721.945	69
722.267	68.97
722.588	68.9
722.909	68.96
723.231	68.83
723.552	68.9
723.873	68.83
724.194	68.96
724.515	68.85
724.836	68.92
725.157	69.07
725.478	69.28
725.799	69.43
726.12	69.3
726.441	69.24
726.762	69.44
727.083	69.52
727.403	69.49
727.724	69.46
728.045	69.41
728.365	69.4
728.686	69.26
729.006	69.09
729.327	69.14
729.647	69.13
729.967	69.13
730.288	69.38
730.608	69.26
730.928	68.95
731.249	69.08
731.569	68.91
731.889	68.78
732.209	68.6
732.529	68.37
732.849	68.51
733.169	68.37
733.489	68.32
733.809	68.33
734.129	68.27
734.448	68.1
734.768	68
735.088	68.04
735.408	68.27
735.727	68.35
736.047	68.41
736.366	68.38
736.686	68.6
737.005	68.18
737.325	68.26
737.644	68.5
737.963	68.55
738.283	68.62
738.602	68.56
738.921	68.51
739.24	68.76
739.56	68.93
739.879	68.93
740.198	68.76
740.517	68.75
740.836	68.59
741.155	68.65
741.473	68.95
741.792	68.89
742.111	68.83
742.43	68.89
742.748	69.06
743.067	69.16
743.386	69.13
743.704	69.38
744.023	69.53
744.341	69.47
744.66	69.11
744.978	69.23
745.297	69.39
745.615	69.71
745.933	69.87
746.252	69.49
746.57	69.69
746.888	70
747.206	69.94
747.524	70.09
747.842	70
748.16	70.06
748.478	70.11
748.796	69.87
749.114	69.64
749.432	69.34
749.749	69.14
750.067	69.21
750.385	68.91
750.703	68.78
751.02	68.87
751.338	69.31
751.655	69.31
751.973	69.41
752.29	69.54
752.608	69.18
752.925	69.72
753.242	69.72
753.56	69.73
753.877	69.77
754.194	69.7
754.511	69.92
754.828	69.7
755.145	69.5
755.462	69.79
755.779	70.28
756.096	70.05
756.413	70.34
756.73	70.32
757.047	70.63
757.364	70.33
757.68	70.25
757.997	70.18
758.314	70.23
758.63	70.03
758.947	70.04
759.264	70.37
759.58	70.09
759.896	70.04
760.213	70.07
760.529	70.4
760.846	70.93
761.162	70.73
761.478	70.5
761.794	70.66
762.11	70.48
762.426	70.26
762.743	70.53
763.059	70.6
763.375	70.65
763.69	70.56
764.006	70.81
764.322	70.93
764.638	70.83
764.954	70.84
765.27	70.84
765.585	70.77
765.901	70.51
766.216	70.47
766.532	70.46
766.848	70.3
767.163	70.05
767.478	69.57
767.794	69.62
768.109	69.71
768.424	69.59
768.74	69.47
769.055	69.56
769.37	69.23
769.685	69.15
770	68.91
770.315	68.79
770.63	68.96
770.945	68.56
771.26	68.5
771.575	68.33
771.89	68.72
772.205	68.55
772.52	68.58
772.834	68.62
773.149	68.84
773.464	68.63
773.778	68.41
774.093	68.5
774.407	68.19
774.722	68.41
775.036	69.06
775.351	68.91
775.665	68.51
775.979	68.82
776.293	68.27
776.608	68.36
776.922	68.43
777.236	68.39
777.55	68.85
777.864	68.89
778.178	69.08
778.492	68.94
778.806	69.13
779.12	68.75
779.434	69.16
779.747	69.12
780.061	68.87
780.375	69.34
780.689	69.17
781.002	69.66
781.316	69.37
781.629	68.94
781.943	69.31
782.256	69.78
782.57	69.24
782.883	69.5
783.196	69.21
783.51	69.27
783.823	68.93
784.136	68.47
784.449	68.52
784.762	68.66
785.075	68.51
785.388	68.52
785.701	68.89
786.014	68.72
786.327	68.49
786.64	68.69
786.953	67.98
787.266	68.53
787.578	68.75
787.891	68.57
788.204	68.51
788.516	68.46
788.829	68.45
789.141	69.02
789.454	69.04
789.766	69.34
790.079	68.91
790.391	68.92
790.703	69.83
791.016	69.97
791.328	69.81
791.64	69.75
791.952	69.89
792.264	70.18
792.576	70.25
792.888	70.54
793.2	70.95
793.512	71.51
793.824	71.42
794.136	71.11
794.448	71.74
794.76	71.52
795.071	71.49
795.383	71.29
795.695	71.03
796.006	71.41
796.318	71.26
796.629	71.68
796.941	72.27
797.252	71.35
797.564	71.61
797.875	71.49
798.186	71.55
798.497	71.53
798.809	71.5
799.12	71.15
799.431	71.13
799.742	70.8
800.053	70.85
800.364	70.32
800.675	70.68
800.986	70.54
801.297	70.76
801.608	71.1
801.918	70.86
802.229	71.21
802.54	70.8
802.851	71.19
803.161	71.5
803.472	71.07
803.782	71.43
804.093	71.16
804.403	71.69
804.714	72.2
805.024	72.47
805.334	72.26
805.645	71.9
805.955	71.67
806.265	72.12
806.575	71.9
806.885	72.59
807.195	72.42
807.505	72.5
807.815	72.54
808.125	72.39
808.435	73.1
808.745	73.73
809.055	74.15
809.365	73.99
809.674	74.22
809.984	74.36
810.294	74.34
810.603	74.77
810.913	74.48
811.222	74.19
811.532	73.79
811.841	73.79
812.151	73.71
812.46	73.14
812.769	72.34
813.079	72.73
813.388	72.08
813.697	71.74
814.006	71.61
814.315	71.69
814.624	71.5
814.933	71.39
815.242	70.74
815.551	69.87
815.86	70
816.169	69.38
816.478	69.48
816.786	69.61
817.095	69.09
817.404	68.62
817.712	68.68
818.021	68.75
818.33	69.15
818.638	70.11
818.947	70.84
819.255	71.6
819.563	71.87
819.872	71.88
820.18	72.36
820.488	72.34
820.796	72.39
821.105	72.28
821.413	72.25
821.721	72.41
822.029	72.53
822.337	72.33
822.645	72.36
822.953	72.48
823.26	72.15
823.568	72.09
823.876	72.21
824.184	72.16
824.491	71.94
824.799	71.73
825.107	71.6
825.414	71.54
825.722	71.51
826.029	71.35
826.337	71.21
826.644	70.79
826.951	70.62
827.259	70.52
827.566	70.53
827.873	70.47
828.18	70.25
828.488	70.23
828.795	70.3
829.102	70.49
829.409	69.93
829.716	69.95
830.023	69.98
830.329	69.72
830.636	69.53
830.943	70.11
831.25	70.34
831.557	70.34
831.863	70.5
832.17	70.01
832.476	70.17
832.783	70.88
833.089	71.63
833.396	71.91
833.702	72.12
834.009	71.83
834.315	71.69
834.621	71.8
834.928	71.9
835.234	72.09
835.54	71.64
835.846	72.05
836.152	72.97
836.458	72.66
836.764	73.03
837.07	72.86
837.376	72.07
837.682	72.66
837.988	72.85
838.293	73.05
838.599	73.74
838.905	73.12
839.211	72.79
839.516	72.98
839.822	72.94
840.127	72.9
840.433	74.07
840.738	73.78
841.044	74.45
841.349	75.17
841.654	75.08
841.959	75.24
842.265	75.97
842.57	74.42
842.875	75.48
843.18	75.47
843.485	75.97
843.79	77.4
844.095	76.82
844.4	77.48
844.705	76.05
845.01	77.19
845.315	79.62
845.619	80.06
845.924	79.51
846.229	79.79
846.533	79.9
846.838	76.3
847.142	76.59
847.447	74.2
847.751	74.64
848.056	75.18
848.36	76.4
848.664	74.97
848.969	76.01
849.273	75.98
849.577	75.49
849.881	75.34
850.185	74.84
850.489	75.18
850.794	73.82
851.097	76.13
851.401	75.85
851.705	72.68
852.009	72.21
852.313	72.25
852.617	70.79
852.92	73.06
853.224	75.94
853.528	76.26
853.831	75.32
854.135	72.43
854.438	72.22
854.742	70.14
855.045	71.85
855.349	71.8
855.652	70.99
855.955	71.44
856.259	73.4
856.562	75.67
856.865	74.85
857.168	73.07
857.471	72.1
857.774	68.85
858.077	70.24
858.38	69.28
858.683	68.65
858.986	70.35
859.289	67.65
859.592	68.45
859.894	69.77
860.197	70.14
860.5	72.68
860.802	72.44
861.105	72.78
861.407	70.99
861.71	72.07
862.012	72.26
862.315	70.34
862.617	69.89
862.919	68.06
863.222	69.69
863.524	73.24
863.826	71.84
864.128	74.28
864.43	76.02
864.732	76.73
865.034	77.4
865.336	77.75
865.638	79.55
865.94	78.52
866.242	75.55
866.544	77.48
866.846	75.14
867.147	73.92
867.449	74.77
867.751	73.63
868.052	71.98
868.354	73.33
868.655	75.41
868.957	77.72
869.258	75.12
869.56	73.39
869.861	71.74
870.162	73.07
870.463	72.67
870.765	71.95
871.066	71.72
871.367	71.36
871.668	71.52
871.969	66.56
872.27	66.63
872.571	69.94
872.872	69.6
873.173	68.8
873.473	68.32
873.774	67.82
874.075	68.09
874.376	70.02
874.676	70.75
874.977	70.22
875.277	69.07
875.578	70.19
875.878	70.03
876.179	70.61
876.479	69.82
876.78	69.62
877.08	68.26
877.38	67.71
877.68	68
877.981	67.09
878.281	71.57
878.581	73.95
