Data from BU26939_Reflection_00014.txt Node
Date: Tue Nov 19 10:57:02 EST 2019
User: vgr7
Spectrometer: USB2G7710
Scans to average: 3
Trigger mode: 4
Integration Time (sec): 2.000000E-2
Electric dark correction enabled: true
Boxcar width: 10
XAxis mode: Wavelengths
Number of Pixels in Spectrum: 2048
>>>>>Begin Spectral Data<<<<<
177.721	57.73
178.105	45.04
178.488	124.57
178.871	133.33
179.254	96.3
179.636	127.36
180.019	643.01
180.402	135.29
180.785	-74.21
181.168	-108.07
181.55	-585.19
181.933	680.81
182.316	-360.45
182.698	1032.1
183.081	-1384.13
183.463	-871.26
183.846	-880.62
184.228	-337.32
184.611	-138.98
184.993	-37.44
185.376	-38.8
185.758	-46.4
186.14	-63.85
186.522	-70.28
186.904	-69.74
187.287	-86.69
187.669	-81.28
188.051	-76.97
188.433	-118.09
188.815	-102.5
189.197	-84.16
189.579	-87
189.961	-51.95
190.342	-54.5
190.724	-49.05
191.106	-47.76
191.488	-46.33
191.869	-18.92
192.251	-6.02
192.633	-28.92
193.014	-35.4
193.396	-32.26
193.777	-19.64
194.159	-13.03
194.54	-13.05
194.922	-7.52
195.303	-10.45
195.684	-10.06
196.065	-1.67
196.447	15.96
196.828	6.87
197.209	14.87
197.59	29.05
197.971	6.48
198.352	14.71
198.733	11.74
199.114	21.39
199.495	6.86
199.876	-6.53
200.257	-10.73
200.638	3.98
201.018	-4.38
201.399	-14.83
201.78	-11.57
202.16	-35.7
202.541	-50.99
202.922	-54.16
203.302	-61.34
203.683	-49.22
204.063	-48.57
204.444	-55.52
204.824	-54.93
205.204	-56.13
205.585	-46.47
205.965	-37.75
206.345	-47.26
206.725	-41.68
207.106	-43.8
207.486	-29.91
207.866	-26.5
208.246	-22.5
208.626	-35.26
209.006	-35.63
209.386	-29.37
209.766	-37.62
210.145	-20.84
210.525	-19
210.905	-14.59
211.285	-6.09
211.664	-8.02
212.044	-15.01
212.424	-16.79
212.803	-21.07
213.183	-17.8
213.562	-11.67
213.942	-9.6
214.321	-6.18
214.701	-12.53
215.08	-15.21
215.459	-19.71
215.838	-30.81
216.218	-38.13
216.597	-35.85
216.976	-40.14
217.355	-33.46
217.734	-40.52
218.113	-27.69
218.492	-12.69
218.871	-10.84
219.25	-16.58
219.629	-29.72
220.008	-9.59
220.387	-10.49
220.766	4.64
221.144	5.11
221.523	-22.11
221.902	-36.27
222.28	-35.79
222.659	-17.64
223.037	-11.9
223.416	-9.62
223.794	1.95
224.173	6.63
224.551	9.43
224.929	1.74
225.308	-0.51
225.686	-5.43
226.064	-11.71
226.442	-14.16
226.821	-15.34
227.199	-18.61
227.577	-18.05
227.955	-17.18
228.333	-16.94
228.711	-16.38
229.089	-13.74
229.467	-12.27
229.845	-10.28
230.222	-7.32
230.6	-7.75
230.978	-8.12
231.356	-7.75
231.733	-7.89
232.111	-9.39
232.488	-8.5
232.866	-2.94
233.243	-2.69
233.621	1.51
233.998	2.32
234.376	4.84
234.753	4.64
235.13	5.8
235.508	4.92
235.885	3.24
236.262	3.57
236.639	3.09
237.016	2.27
237.393	4.35
237.77	4.08
238.147	2.72
238.524	2.41
238.901	2.24
239.278	2.01
239.655	1.14
240.032	1.2
240.409	1.57
240.785	0.76
241.162	1.66
241.539	0.81
241.915	0.98
242.292	0.84
242.668	0.92
243.045	1.64
243.421	2.38
243.798	2.69
244.174	2.71
244.551	2.76
244.927	2.74
245.303	2.19
245.679	2.05
246.056	2.25
246.432	2.36
246.808	2.56
247.184	2.74
247.56	2.77
247.936	2.72
248.312	2.62
248.688	2.69
249.064	2.48
249.44	2.79
249.815	3.02
250.191	2.85
250.567	2.94
250.943	2.72
251.318	2.23
251.694	2.34
252.069	2.3
252.445	2.42
252.82	2.69
253.196	2.86
253.571	2.98
253.947	2.9
254.322	2.72
254.697	2.5
255.073	2.21
255.448	2.65
255.823	3.23
256.198	3.26
256.573	3.19
256.948	3.19
257.323	3.08
257.698	2.78
258.073	2.8
258.448	2.81
258.823	2.84
259.198	3.05
259.573	3.02
259.948	3.15
260.322	2.91
260.697	2.94
261.072	2.96
261.446	3.09
261.821	3.12
262.195	3.09
262.57	3.15
262.944	3.37
263.319	3.32
263.693	3.11
264.067	3.13
264.442	3.22
264.816	3.09
265.19	3.19
265.564	3.27
265.938	3.36
266.313	3.3
266.687	3.29
267.061	3.35
267.435	3.29
267.809	3.12
268.183	3.2
268.556	3.03
268.93	3
269.304	2.92
269.678	2.87
270.051	3.15
270.425	3.02
270.799	2.81
271.172	2.78
271.546	2.71
271.919	2.82
272.293	2.83
272.666	3.04
273.04	2.99
273.413	3.05
273.787	3.09
274.16	3.05
274.533	3.09
274.906	3.16
275.279	2.98
275.653	3.07
276.026	3.2
276.399	3.17
276.772	3.22
277.145	3.17
277.518	3.17
277.891	2.94
278.263	3.19
278.636	3.46
279.009	3.43
279.382	3.36
279.755	3.37
280.127	3.45
280.5	3.29
280.872	3.35
281.245	3.32
281.617	3.35
281.99	3.56
282.362	3.56
282.735	3.46
283.107	3.57
283.479	3.53
283.852	3.51
284.224	3.55
284.596	3.46
284.968	3.47
285.34	3.47
285.713	3.49
286.085	3.36
286.457	3.26
286.829	3.28
287.201	3.37
287.572	3.27
287.944	3.15
288.316	3.14
288.688	3.19
289.06	3.18
289.431	3.18
289.803	3.07
290.175	3.04
290.546	3.12
290.918	3.2
291.289	3.15
291.661	3.21
292.032	3.23
292.403	3.31
292.775	3.43
293.146	3.56
293.517	3.56
293.889	3.57
294.26	3.45
294.631	3.61
295.002	3.65
295.373	3.65
295.744	3.68
296.115	3.83
296.486	3.76
296.857	3.79
297.228	3.77
297.599	3.81
297.97	3.87
298.34	3.92
298.711	3.95
299.082	4.04
299.452	3.92
299.823	4.06
300.194	4.15
300.564	4.05
300.935	4.08
301.305	4.09
301.676	4.02
302.046	4.3
302.416	4.32
302.787	4.45
303.157	4.48
303.527	4.67
303.897	4.61
304.267	4.68
304.637	4.75
305.008	4.85
305.378	4.88
305.748	4.88
306.117	4.88
306.487	5.17
306.857	5.11
307.227	5.28
307.597	5.17
307.967	5.21
308.336	5.46
308.706	5.46
309.076	5.57
309.445	5.93
309.815	5.84
310.184	5.91
310.554	5.86
310.923	5.87
311.293	5.76
311.662	5.79
312.031	5.89
312.401	5.86
312.77	5.95
313.139	6.06
313.508	6.11
313.877	6.07
314.246	5.96
314.616	6.21
314.985	6.18
315.353	6.43
315.722	6.64
316.091	6.49
316.46	6.59
316.829	6.66
317.198	6.64
317.567	6.75
317.935	6.63
318.304	6.76
318.672	7.04
319.041	7.25
319.41	7.44
319.778	7.43
320.147	7.55
320.515	7.57
320.883	7.39
321.252	7.49
321.62	7.66
321.988	7.75
322.357	7.63
322.725	7.71
323.093	7.56
323.461	7.42
323.829	7.54
324.197	7.54
324.565	7.68
324.933	7.61
325.301	7.59
325.669	7.61
326.037	7.51
326.405	7.58
326.772	7.64
327.14	7.67
327.508	7.56
327.875	7.62
328.243	7.64
328.61	7.86
328.978	7.95
329.346	7.92
329.713	8.06
330.08	8.14
330.448	8.38
330.815	8.49
331.182	8.48
331.55	8.52
331.917	8.53
332.284	8.45
332.651	8.32
333.018	8.4
333.385	8.56
333.752	8.63
334.119	8.55
334.486	8.58
334.853	8.56
335.22	8.69
335.587	8.69
335.954	8.75
336.32	8.72
336.687	8.67
337.054	8.65
337.42	8.67
337.787	8.83
338.153	8.81
338.52	8.89
338.886	9.03
339.253	9.07
339.619	9.14
339.986	9.12
340.352	9.36
340.718	9.39
341.084	9.37
341.451	9.41
341.817	9.41
342.183	9.43
342.549	9.48
342.915	9.62
343.281	9.74
343.647	9.71
344.013	9.81
344.379	9.85
344.745	10.02
345.11	9.86
345.476	9.82
345.842	9.73
346.208	9.65
346.573	9.7
346.939	9.72
347.304	9.77
347.67	9.78
348.035	9.83
348.401	9.77
348.766	9.79
349.132	9.87
349.497	10
349.862	10.01
350.228	9.99
350.593	9.96
350.958	9.97
351.323	9.96
351.688	9.98
352.053	9.94
352.418	9.9
352.783	10.02
353.148	9.98
353.513	10.08
353.878	10.18
354.243	10.07
354.608	10.08
354.972	10
355.337	10.09
355.702	10.06
356.066	10.17
356.431	10.22
356.795	10.21
357.16	10.11
357.524	10.07
357.889	10.07
358.253	9.98
358.618	9.97
358.982	9.98
359.346	9.98
359.71	10.05
360.075	10
360.439	9.98
360.803	10.1
361.167	10.03
361.531	9.93
361.895	9.97
362.259	9.97
362.623	9.97
362.987	9.94
363.351	9.9
363.714	9.82
364.078	9.81
364.442	9.76
364.806	9.76
365.169	9.79
365.533	9.76
365.896	9.83
366.26	9.75
366.623	9.71
366.987	9.66
367.35	9.55
367.714	9.53
368.077	9.49
368.44	9.32
368.803	9.25
369.167	9.23
369.53	9.22
369.893	9.2
370.256	9.13
370.619	9.13
370.982	8.99
371.345	8.98
371.708	8.87
372.071	8.86
372.434	8.83
372.797	8.7
373.159	8.64
373.522	8.52
373.885	8.48
374.247	8.42
374.61	8.39
374.973	8.29
375.335	8.2
375.698	8.12
376.06	8.06
376.423	8.06
376.785	8.04
377.147	7.9
377.51	7.86
377.872	7.82
378.234	7.76
378.596	7.8
378.958	7.75
379.321	7.67
379.683	7.59
380.045	7.51
380.407	7.51
380.769	7.47
381.13	7.43
381.492	7.43
381.854	7.44
382.216	7.35
382.578	7.42
382.939	7.38
383.301	7.3
383.663	7.31
384.024	7.23
384.386	7.19
384.747	7.2
385.109	7.1
385.47	7.07
385.832	6.98
386.193	6.91
386.554	6.84
386.916	6.88
387.277	6.87
387.638	6.82
387.999	6.75
388.36	6.69
388.721	6.66
389.082	6.6
389.443	6.55
389.804	6.53
390.165	6.47
390.526	6.47
390.887	6.46
391.248	6.38
391.609	6.39
391.969	6.36
392.33	6.3
392.691	6.29
393.051	6.24
393.412	6.24
393.772	6.2
394.133	6.19
394.493	6.13
394.854	6.05
395.214	6.04
395.574	6.04
395.935	6.04
396.295	6
396.655	5.95
397.015	5.88
397.376	5.84
397.736	5.76
398.096	5.68
398.456	5.63
398.816	5.55
399.176	5.46
399.535	5.41
399.895	5.34
400.255	5.26
400.615	5.25
400.975	5.22
401.334	5.18
401.694	5.13
402.054	5.1
402.413	5.11
402.773	5.05
403.132	4.97
403.492	4.93
403.851	4.89
404.211	4.86
404.57	4.86
404.929	4.81
405.288	4.8
405.648	4.78
406.007	4.78
406.366	4.77
406.725	4.74
407.084	4.73
407.443	4.75
407.802	4.76
408.161	4.72
408.52	4.69
408.879	4.67
409.238	4.65
409.596	4.61
409.955	4.58
410.314	4.57
410.673	4.56
411.031	4.54
411.39	4.53
411.748	4.53
412.107	4.49
412.465	4.47
412.824	4.43
413.182	4.43
413.54	4.41
413.899	4.39
414.257	4.39
414.615	4.36
414.974	4.32
415.332	4.3
415.69	4.28
416.048	4.28
416.406	4.28
416.764	4.27
417.122	4.28
417.48	4.27
417.838	4.27
418.195	4.25
418.553	4.23
418.911	4.2
419.269	4.17
419.626	4.15
419.984	4.15
420.342	4.17
420.699	4.14
421.057	4.13
421.414	4.11
421.772	4.1
422.129	4.06
422.486	4.06
422.844	4.04
423.201	4.02
423.558	4
423.915	3.97
424.273	3.95
424.63	3.92
424.987	3.89
425.344	3.86
425.701	3.84
426.058	3.82
426.415	3.8
426.772	3.79
427.128	3.78
427.485	3.75
427.842	3.71
428.199	3.69
428.555	3.66
428.912	3.65
429.269	3.63
429.625	3.64
429.982	3.64
430.338	3.63
430.695	3.63
431.051	3.62
431.407	3.64
431.764	3.63
432.12	3.64
432.476	3.65
432.832	3.64
433.189	3.65
433.545	3.65
433.901	3.66
434.257	3.65
434.613	3.64
434.969	3.63
435.325	3.65
435.681	3.64
436.036	3.65
436.392	3.67
436.748	3.67
437.104	3.66
437.459	3.65
437.815	3.65
438.171	3.65
438.526	3.65
438.882	3.65
439.237	3.63
439.593	3.64
439.948	3.62
440.304	3.64
440.659	3.64
441.014	3.65
441.369	3.65
441.725	3.66
442.08	3.65
442.435	3.68
442.79	3.67
443.145	3.69
443.5	3.69
443.855	3.68
444.21	3.68
444.565	3.69
444.92	3.69
445.275	3.69
445.629	3.68
445.984	3.68
446.339	3.67
446.693	3.68
447.048	3.65
447.403	3.65
447.757	3.62
448.112	3.6
448.466	3.59
448.82	3.58
449.175	3.57
449.529	3.58
449.883	3.54
450.238	3.53
450.592	3.49
450.946	3.48
451.3	3.47
451.654	3.45
452.008	3.44
452.362	3.42
452.716	3.4
453.07	3.4
453.424	3.38
453.778	3.35
454.132	3.33
454.486	3.36
454.839	3.35
455.193	3.37
455.547	3.35
455.9	3.35
456.254	3.36
456.607	3.34
456.961	3.33
457.314	3.32
457.668	3.32
458.021	3.34
458.375	3.34
458.728	3.35
459.081	3.34
459.434	3.36
459.787	3.36
460.141	3.38
460.494	3.38
460.847	3.39
461.2	3.42
461.553	3.43
461.906	3.44
462.259	3.46
462.611	3.48
462.964	3.51
463.317	3.52
463.67	3.54
464.022	3.55
464.375	3.57
464.728	3.6
465.08	3.62
465.433	3.65
465.785	3.66
466.138	3.66
466.49	3.71
466.843	3.74
467.195	3.77
467.547	3.79
467.899	3.82
468.252	3.86
468.604	3.89
468.956	3.89
469.308	3.87
469.66	3.91
470.012	3.92
470.364	3.94
470.716	3.98
471.068	3.99
471.42	4.03
471.772	4.06
472.123	4.09
472.475	4.14
472.827	4.14
473.178	4.16
473.53	4.17
473.882	4.16
474.233	4.15
474.585	4.15
474.936	4.13
475.288	4.12
475.639	4.1
475.99	4.09
476.342	4.11
476.693	4.13
477.044	4.12
477.395	4.1
477.746	4.08
478.097	4.05
478.448	4.05
478.8	4.03
479.15	4
479.501	3.98
479.852	3.96
480.203	3.95
480.554	3.94
480.905	3.95
481.255	3.94
481.606	3.93
481.957	3.92
482.307	3.9
482.658	3.91
483.009	3.91
483.359	3.9
483.709	3.89
484.06	3.89
484.41	3.88
484.761	3.88
485.111	3.88
485.461	3.88
485.811	3.87
486.162	3.86
486.512	3.87
486.862	3.87
487.212	3.88
487.562	3.87
487.912	3.87
488.262	3.87
488.612	3.87
488.961	3.86
489.311	3.86
489.661	3.87
490.011	3.86
490.36	3.86
490.71	3.86
491.06	3.86
491.409	3.86
491.759	3.86
492.108	3.87
492.458	3.88
492.807	3.92
493.157	3.94
493.506	3.97
493.855	3.97
494.204	3.98
494.554	4.01
494.903	4.04
495.252	4.07
495.601	4.09
495.95	4.13
496.299	4.2
496.648	4.26
496.997	4.32
497.346	4.38
497.695	4.44
498.043	4.5
498.392	4.57
498.741	4.62
499.09	4.7
499.438	4.76
499.787	4.81
500.135	4.86
500.484	4.95
500.832	5
501.181	5.08
501.529	5.18
501.878	5.26
502.226	5.35
502.574	5.45
502.923	5.55
503.271	5.64
503.619	5.74
503.967	5.82
504.315	5.95
504.663	6.06
505.011	6.19
505.359	6.33
505.707	6.48
506.055	6.62
506.403	6.76
506.751	6.9
507.098	7.07
507.446	7.24
507.794	7.38
508.141	7.55
508.489	7.73
508.837	7.88
509.184	8.05
509.531	8.21
509.879	8.37
510.226	8.55
510.574	8.74
510.921	8.9
511.268	9.12
511.616	9.3
511.963	9.51
512.31	9.72
512.657	9.91
513.004	10.1
513.351	10.36
513.698	10.59
514.045	10.86
514.392	11.09
514.739	11.34
515.086	11.61
515.432	11.85
515.779	12.11
516.126	12.34
516.473	12.58
516.819	12.82
517.166	13.06
517.512	13.29
517.859	13.51
518.205	13.71
518.552	13.91
518.898	14.12
519.245	14.32
519.591	14.5
519.937	14.75
520.283	14.99
520.629	15.19
520.976	15.44
521.322	15.67
521.668	15.92
522.014	16.18
522.36	16.43
522.706	16.71
523.052	16.99
523.398	17.32
523.743	17.66
524.089	17.98
524.435	18.3
524.781	18.59
525.126	18.84
525.472	19.12
525.817	19.34
526.163	19.56
526.509	19.77
526.854	19.97
527.199	20.14
527.545	20.32
527.89	20.48
528.235	20.65
528.581	20.81
528.926	20.97
529.271	21.14
529.616	21.34
529.961	21.51
530.306	21.69
530.651	21.87
530.996	22.04
531.341	22.24
531.686	22.41
532.031	22.62
532.376	22.81
532.721	23
533.065	23.22
533.41	23.43
533.755	23.63
534.099	23.87
534.444	24.09
534.788	24.32
535.133	24.57
535.477	24.79
535.822	25.03
536.166	25.29
536.51	25.54
536.855	25.79
537.199	26.03
537.543	26.29
537.887	26.57
538.231	26.85
538.576	27.15
538.92	27.43
539.264	27.7
539.608	28
539.951	28.25
540.295	28.46
540.639	28.68
540.983	28.91
541.327	29.1
541.671	29.27
542.014	29.46
542.358	29.64
542.701	29.8
543.045	29.99
543.389	30.18
543.732	30.4
544.075	30.62
544.419	30.85
544.762	31.05
545.105	31.29
545.449	31.5
545.792	31.72
546.135	31.93
546.478	32.17
546.821	32.38
547.165	32.62
547.508	32.9
547.851	33.13
548.194	33.38
548.536	33.64
548.879	33.93
549.222	34.15
549.565	34.41
549.908	34.68
550.25	34.97
550.593	35.2
550.936	35.44
551.278	35.66
551.621	35.88
551.963	36.18
552.306	36.42
552.648	36.65
552.991	36.87
553.333	37.14
553.675	37.36
554.017	37.56
554.36	37.76
554.702	37.93
555.044	38.12
555.386	38.29
555.728	38.44
556.07	38.66
556.412	38.89
556.754	39.06
557.096	39.22
557.438	39.38
557.78	39.63
558.121	39.82
558.463	40
558.805	40.18
559.147	40.38
559.488	40.61
559.83	40.79
560.171	40.92
560.513	41.04
560.854	41.22
561.196	41.38
561.537	41.52
561.878	41.74
562.22	41.9
562.561	42.09
562.902	42.3
563.243	42.44
563.584	42.59
563.925	42.76
564.266	42.98
564.607	43.16
564.948	43.29
565.289	43.4
565.63	43.52
565.971	43.68
566.312	43.77
566.653	43.82
566.993	43.92
567.334	44.05
567.675	44.16
568.015	44.26
568.356	44.39
568.696	44.54
569.037	44.64
569.377	44.75
569.718	44.88
570.058	44.99
570.398	45.11
570.739	45.23
571.079	45.37
571.419	45.42
571.759	45.49
572.099	45.56
572.439	45.73
572.779	45.82
573.119	45.94
573.459	46.03
573.799	46.12
574.139	46.25
574.479	46.35
574.819	46.45
575.158	46.56
575.498	46.66
575.838	46.73
576.177	46.82
576.517	46.99
576.856	47.05
577.196	47.13
577.535	47.22
577.875	47.35
578.214	47.39
578.553	47.56
578.893	47.69
579.232	47.81
579.571	47.87
579.91	48.03
580.25	48.06
580.589	48.18
580.928	48.3
581.267	48.34
581.606	48.38
581.945	48.53
582.283	48.66
582.622	48.72
582.961	48.87
583.3	48.92
583.639	49.01
583.977	49.07
584.316	49.15
584.654	49.19
584.993	49.14
585.332	49.23
585.67	49.22
586.008	49.23
586.347	49.28
586.685	49.39
587.024	49.4
587.362	49.47
587.7	49.51
588.038	49.62
588.376	49.75
588.715	49.85
589.053	49.86
589.391	49.89
589.729	49.96
590.067	50.06
590.404	50.18
590.742	50.17
591.08	50.22
591.418	50.25
591.756	50.29
592.093	50.42
592.431	50.51
592.769	50.57
593.106	50.65
593.444	50.74
593.781	50.72
594.119	50.82
594.456	50.88
594.793	50.83
595.131	50.83
595.468	50.84
595.805	50.92
596.143	50.96
596.48	50.97
596.817	50.99
597.154	50.95
597.491	50.92
597.828	50.92
598.165	50.97
598.502	51.04
598.839	51.19
599.176	51.19
599.512	51.26
599.849	51.35
600.186	51.32
600.523	51.36
600.859	51.38
601.196	51.39
601.532	51.43
601.869	51.6
602.205	51.59
602.542	51.56
602.878	51.56
603.215	51.58
603.551	51.56
603.887	51.63
604.223	51.65
604.56	51.67
604.896	51.82
605.232	51.91
605.568	52
605.904	51.98
606.24	52.05
606.576	52.09
606.912	52.1
607.248	52.19
607.583	52.26
607.919	52.31
608.255	52.34
608.591	52.4
608.926	52.38
609.262	52.5
609.597	52.63
609.933	52.63
610.268	52.7
610.604	52.74
610.939	52.74
611.275	52.77
611.61	52.85
611.945	52.75
612.281	52.72
612.616	52.74
612.951	52.75
613.286	52.71
613.621	52.74
613.956	52.77
614.291	52.81
614.626	52.75
614.961	52.84
615.296	52.81
615.631	52.86
615.966	52.88
616.3	52.82
616.635	52.85
616.97	52.91
617.304	52.92
617.639	53.04
617.973	53.05
618.308	53.1
618.642	53.12
618.977	53.2
619.311	53.27
619.646	53.2
619.98	53.19
620.314	53.25
620.648	53.11
620.983	53.11
621.317	53.13
621.651	53.13
621.985	53.09
622.319	53.12
622.653	53.11
622.987	53.16
623.321	53.28
623.655	53.25
623.988	53.31
624.322	53.3
624.656	53.26
624.99	53.44
625.323	53.43
625.657	53.33
625.99	53.37
626.324	53.4
626.657	53.42
626.991	53.47
627.324	53.46
627.658	53.55
627.991	53.59
628.324	53.61
628.657	53.65
628.991	53.8
629.324	53.82
629.657	53.78
629.99	53.81
630.323	53.77
630.656	53.84
630.989	53.84
631.322	53.9
631.655	53.94
631.987	53.84
632.32	53.92
632.653	54.09
632.986	54.08
633.318	54.06
633.651	54.13
633.984	54.15
634.316	54.19
634.649	54.27
634.981	54.31
635.313	54.41
635.646	54.41
635.978	54.27
636.31	54.27
636.643	54.28
636.975	54.33
637.307	54.38
637.639	54.37
637.971	54.39
638.303	54.43
638.635	54.4
638.967	54.35
639.299	54.35
639.631	54.37
639.963	54.41
640.295	54.49
640.626	54.49
640.958	54.5
641.29	54.45
641.621	54.41
641.953	54.37
642.285	54.32
642.616	54.36
642.948	54.42
643.279	54.49
643.61	54.55
643.942	54.56
644.273	54.55
644.604	54.5
644.936	54.42
645.267	54.47
645.598	54.52
645.929	54.59
646.26	54.54
646.591	54.5
646.922	54.57
647.253	54.47
647.584	54.47
647.915	54.46
648.245	54.58
648.576	54.64
648.907	54.74
649.238	54.71
649.568	54.68
649.899	54.79
650.229	54.84
650.56	54.81
650.89	54.84
651.221	54.8
651.551	54.85
651.882	54.88
652.212	54.85
652.542	54.93
652.872	54.87
653.203	54.89
653.533	54.92
653.863	54.88
654.193	54.94
654.523	54.91
654.853	55.02
655.183	55
655.513	54.95
655.843	54.93
656.172	54.94
656.502	54.99
656.832	54.97
657.162	54.98
657.491	55.1
657.821	55.09
658.15	55.13
658.48	55.2
658.809	55.34
659.139	55.3
659.468	55.17
659.798	55.18
660.127	55.24
660.456	55.19
660.785	55.26
661.115	55.34
661.444	55.32
661.773	55.11
662.102	55.14
662.431	55.24
662.76	55.04
663.089	55.15
663.418	55.22
663.747	55.19
664.076	55.25
664.404	55.19
664.733	55.18
665.062	55.28
665.39	55.27
665.719	55.22
666.048	55.22
666.376	55.35
666.705	55.43
667.033	55.41
667.362	55.48
667.69	55.47
668.018	55.35
668.347	55.49
668.675	55.62
669.003	55.6
669.331	55.59
669.659	55.7
669.987	55.64
670.315	55.65
670.643	55.72
670.971	55.67
671.299	55.7
671.627	55.61
671.955	55.55
672.283	55.58
672.61	55.52
672.938	55.55
673.266	55.53
673.593	55.49
673.921	55.57
674.249	55.67
674.576	55.57
674.904	55.73
675.231	55.65
675.558	55.75
675.886	55.74
676.213	55.63
676.54	55.82
676.867	55.92
677.195	55.9
677.522	55.9
677.849	55.86
678.176	55.88
678.503	56.03
678.83	56.11
679.157	56.05
679.484	56.2
679.81	56.05
680.137	56.13
680.464	56.09
680.791	56.02
681.117	55.95
681.444	56.04
681.771	55.97
682.097	56
682.424	55.96
682.75	55.99
683.077	56.09
683.403	55.97
683.729	55.87
684.056	55.87
684.382	55.87
684.708	55.92
685.034	55.9
685.36	55.95
685.686	55.89
686.012	55.92
686.339	55.7
686.664	55.92
686.99	55.81
687.316	55.89
687.642	55.85
687.968	55.92
688.294	55.86
688.619	55.93
688.945	55.89
689.271	55.91
689.596	56.01
689.922	55.88
690.247	55.9
690.573	55.86
690.898	55.85
691.224	55.75
691.549	55.58
691.874	55.54
692.2	55.39
692.525	55.29
692.85	55.36
693.175	55.27
693.5	55.21
693.825	55.28
694.15	55.37
694.475	55.51
694.8	55.51
695.125	55.67
695.45	55.56
695.775	55.58
696.099	55.61
696.424	55.58
696.749	55.7
697.073	55.7
697.398	55.73
697.723	55.72
698.047	55.79
698.372	55.79
698.696	55.83
699.02	55.82
699.345	55.93
699.669	55.94
699.993	56.28
700.318	56.39
700.642	56.41
700.966	56.44
701.29	56.29
701.614	56.17
701.938	56.13
702.262	56.13
702.586	56.13
702.91	56.06
703.234	56.18
703.557	56.14
703.881	56.03
704.205	55.99
704.529	55.96
704.852	55.82
705.176	56.01
705.499	56.1
705.823	55.97
706.146	56.01
706.47	56.06
706.793	55.92
707.117	55.94
707.44	55.83
707.763	55.72
708.086	55.81
708.409	55.88
708.733	55.75
709.056	55.79
709.379	55.98
709.702	56.15
710.025	55.97
710.348	56.15
710.671	56.25
710.993	56.21
711.316	56.34
711.639	56.56
711.962	56.53
712.284	56.41
712.607	56.49
712.93	56.41
713.252	56.24
713.575	56.13
713.897	55.94
714.22	56.05
714.542	56.13
714.864	56.21
715.187	56.3
715.509	56.42
715.831	56.55
716.153	56.38
716.475	56.27
716.798	56.39
717.12	56.21
717.442	56.2
717.764	56.32
718.085	56.17
718.407	56.04
718.729	55.93
719.051	56.05
719.373	56.21
719.695	55.98
720.016	56.15
720.338	56.22
720.659	56.15
720.981	56.21
721.302	56.27
721.624	56.27
721.945	56.26
722.267	56.23
722.588	55.92
722.909	55.89
723.231	55.93
723.552	55.77
723.873	55.73
724.194	55.78
724.515	55.71
724.836	55.8
725.157	55.91
725.478	56.04
725.799	56.03
726.12	55.9
726.441	56.06
726.762	56.17
727.083	56.23
727.403	56.33
727.724	56.14
728.045	55.91
728.365	55.83
728.686	55.77
729.006	55.69
729.327	55.88
729.647	55.92
729.967	55.93
730.288	56
730.608	56.15
730.928	56.19
731.249	56.31
731.569	56.35
731.889	56.42
732.209	56.56
732.529	56.55
732.849	56.61
733.169	56.58
733.489	56.53
733.809	56.32
734.129	56.3
734.448	56.33
734.768	56.23
735.088	56.22
735.408	56.2
735.727	56.07
736.047	56.02
736.366	56.15
736.686	56.05
737.005	56.11
737.325	56.1
737.644	56.32
737.963	56.16
738.283	56.08
738.602	56.08
738.921	56.03
739.24	56.07
739.56	56.18
739.879	56.33
740.198	56.06
740.517	56.26
740.836	56.41
741.155	56.45
741.473	56.78
741.792	56.97
742.111	57.07
742.43	57.28
742.748	57.18
743.067	57.13
743.386	57.24
743.704	57.29
744.023	57.22
744.341	56.66
744.66	56.76
744.978	56.75
745.297	56.36
745.615	56.3
745.933	56.37
746.252	56.39
746.57	56.32
746.888	56.47
747.206	56.48
747.524	56.45
747.842	56.45
748.16	56.33
748.478	56.05
748.796	56.2
749.114	56.3
749.432	56.77
749.749	56.84
750.067	56.56
750.385	56.26
750.703	56.21
751.02	56.61
751.338	56.67
751.655	56.66
751.973	56.74
752.29	56.61
752.608	56.66
752.925	56.58
753.242	56.55
753.56	56.62
753.877	56.49
754.194	56.16
754.511	56.21
754.828	56.17
755.145	56.29
755.462	56.11
755.779	56.1
756.096	55.5
756.413	55.53
756.73	55.97
757.047	56.09
757.364	56.27
757.68	56.07
757.997	56.36
758.314	56.5
758.63	56.66
758.947	56.5
759.264	56.45
759.58	56.47
759.896	56.19
760.213	56.08
760.529	56.08
760.846	56.44
761.162	56.15
761.478	56.17
761.794	56.33
762.11	56.36
762.426	56.31
762.743	56.73
763.059	56.64
763.375	56.67
763.69	56.77
764.006	56.96
764.322	57.15
764.638	56.78
764.954	56.89
765.27	56.93
765.585	57.17
765.901	56.93
766.216	56.93
766.532	57.09
766.848	57.28
767.163	57.47
767.478	57.28
767.794	57.48
768.109	57.6
768.424	57.37
768.74	57.29
769.055	57.22
769.37	56.83
769.685	56.9
770	56.55
770.315	56.25
770.63	56
770.945	55.9
771.26	55.95
771.575	55.68
771.89	55.73
772.205	55.82
772.52	56.04
772.834	56.16
773.149	56.31
773.464	56.11
773.778	55.69
774.093	56.11
774.407	56.5
774.722	56.88
775.036	57.25
775.351	57.41
775.665	57.37
775.979	57.62
776.293	57.82
776.608	57.99
776.922	58.28
777.236	58.41
777.55	58.36
777.864	58.58
778.178	58.42
778.492	58.19
778.806	58.33
779.12	58.09
779.434	58.09
779.747	58.57
780.061	58.55
780.375	58.83
780.689	58.54
781.002	58.31
781.316	58.05
781.629	57.98
781.943	57.94
782.256	57.73
782.57	57.69
782.883	57.55
783.196	57.62
783.51	57.63
783.823	57.68
784.136	57.91
784.449	57.73
784.762	58.15
785.075	58.74
785.388	58.13
785.701	58.53
786.014	58.16
786.327	57.57
786.64	57.52
786.953	57.65
787.266	57.4
787.578	57.04
787.891	56.53
788.204	56.64
788.516	56.15
788.829	56.97
789.141	56.82
789.454	56.82
789.766	57.09
790.079	57.01
790.391	56.59
790.703	56.18
791.016	56.49
791.328	56.27
791.64	55.85
791.952	55.96
792.264	55.49
792.576	55.82
792.888	55.86
793.2	56.24
793.512	56.58
793.824	57.1
794.136	57.65
794.448	58.2
794.76	58.01
795.071	58.73
795.383	58.21
795.695	58.68
796.006	58.3
796.318	58.26
796.629	58.36
796.941	58.08
797.252	58.17
797.564	57.99
797.875	58.34
798.186	58.66
798.497	58.5
798.809	59
799.12	58.57
799.431	58.33
799.742	58.28
800.053	57.58
800.364	57.23
800.675	57.21
800.986	56.62
801.297	55.72
801.608	55.88
801.918	55.44
802.229	54.83
802.54	55.1
802.851	55.02
803.161	55.18
803.472	56.02
803.782	55.57
804.093	55.94
804.403	55.45
804.714	55.56
805.024	55.77
805.334	55.88
805.645	56.02
805.955	56.05
806.265	55.1
806.575	55.57
806.885	55.04
807.195	55.41
807.505	54.78
807.815	55.6
808.125	54.76
808.435	55.2
808.745	55.74
809.055	55.91
809.365	55.16
809.674	54.76
809.984	54.42
810.294	55.17
810.603	54.44
810.913	54.84
811.222	53.66
811.532	52.94
811.841	52.14
812.151	52.33
812.46	52.46
812.769	53.03
813.079	52.59
813.388	53.33
813.697	52.26
814.006	53.62
814.315	54.27
814.624	55.22
814.933	55.36
815.242	54.78
815.551	54.75
815.86	55.75
816.169	55.75
816.478	55.41
816.786	55.02
817.095	54.94
817.404	54.74
817.712	55.78
818.021	55.81
818.33	56.26
818.638	55.88
818.947	56.45
819.255	56.82
819.563	57.07
819.872	57.24
820.18	57.8
820.488	57.58
820.796	57.35
821.105	57.23
821.413	57.23
821.721	57.41
822.029	57.37
822.337	57.46
822.645	57.38
822.953	57.47
823.26	57.62
823.568	57.75
823.876	57.5
824.184	57.21
824.491	57.46
824.799	57.4
825.107	57.67
825.414	57.55
825.722	57.43
826.029	57.34
826.337	57.17
826.644	57.13
826.951	57.08
827.259	57.13
827.566	57.17
827.873	57.19
828.18	57.2
828.488	57.23
828.795	57.06
829.102	57.17
829.409	57
829.716	56.84
830.023	56.79
830.329	57.54
830.636	57.76
830.943	57.57
831.25	57.79
831.557	57.7
831.863	58.1
832.17	58.21
832.476	58.4
832.783	58.5
833.089	58.27
833.396	58.28
833.702	58.41
834.009	58.28
834.315	57.87
834.621	57.63
834.928	57.33
835.234	56.96
835.54	57.05
835.846	57.19
836.152	57.26
836.458	57.14
836.764	56.48
837.07	56.52
837.376	56.92
837.682	56.59
837.988	56.3
838.293	55.66
838.599	55.65
838.905	55.53
839.211	55.47
839.516	55.54
839.822	56.35
840.127	55.98
840.433	55.65
840.738	55.85
841.044	55.94
841.349	55.95
841.654	55.4
841.959	55.33
842.265	55.05
842.57	55.46
842.875	55.67
843.18	55.92
843.485	55.72
843.79	55.05
844.095	54.47
844.4	53.91
844.705	54.68
845.01	54.46
845.315	54.98
845.619	54.09
845.924	53
846.229	51.31
846.533	50.88
846.838	51.19
847.142	51.02
847.447	50.72
847.751	51.97
848.056	54.72
848.36	54.65
848.664	54.68
848.969	53.57
849.273	54.22
849.577	52.96
849.881	52.21
850.185	52.64
850.489	53.08
850.794	54.38
851.097	52.66
851.401	52.37
851.705	50.45
852.009	52.52
852.313	51.25
852.617	53.44
852.92	55.2
853.224	55.96
853.528	55.58
853.831	56.22
854.135	54.67
854.438	53.93
854.742	53.94
855.045	52.4
855.349	50.37
855.652	50.4
855.955	51.86
856.259	54.83
856.562	51.83
856.865	52.82
857.168	51.52
857.471	52.16
857.774	53.37
858.077	53.66
858.38	53.64
858.683	56.58
858.986	54.16
859.289	53.37
859.592	52.63
859.894	53.12
860.197	53.52
860.5	53.4
860.802	51.67
861.105	52.36
861.407	53.32
861.71	55.02
862.012	54.67
862.315	55.71
862.617	54.76
862.919	57.09
863.222	58.74
863.524	59.68
863.826	60.97
864.128	58.75
864.43	58.92
864.732	58.66
865.034	56.64
865.336	56.29
865.638	55.94
865.94	56.48
866.242	58.69
866.544	58.57
866.846	58.77
867.147	58.25
867.449	59.3
867.751	59.6
868.052	59.56
868.354	58.36
868.655	56.45
868.957	57.01
869.258	55.2
869.56	52.47
869.861	50.52
870.162	46.96
870.463	47.14
870.765	49.11
871.066	48.47
871.367	47.78
871.668	49.32
871.969	49.39
872.27	48.99
872.571	46.41
872.872	43.67
873.173	45.32
873.473	44.82
873.774	40.68
874.075	41.21
874.376	40.38
874.676	41.63
874.977	42.38
875.277	40.61
875.578	42.68
875.878	43.37
876.179	44.53
876.479	46.99
876.78	48.03
877.08	45.63
877.38	46.14
877.68	48.14
877.981	47.1
878.281	46.14
878.581	44.64
