Data from BU26946_Reflection_00009.txt Node
Date: Tue Nov 19 10:52:06 EST 2019
User: vgr7
Spectrometer: USB2G7710
Scans to average: 3
Trigger mode: 4
Integration Time (sec): 2.000000E-2
Electric dark correction enabled: true
Boxcar width: 10
XAxis mode: Wavelengths
Number of Pixels in Spectrum: 2048
>>>>>Begin Spectral Data<<<<<
177.721	45.1
178.105	248.65
178.488	222.29
178.871	436.84
179.254	-1000
179.636	420.75
180.019	1204.65
180.402	78.57
180.785	-215.38
181.168	-19.62
181.55	-1.16
181.933	43.91
182.316	84.42
182.698	54.89
183.081	141.85
183.463	-220.9
183.846	84.47
184.228	-48.83
184.611	-43.36
184.993	-83.64
185.376	-719.15
185.758	260.65
186.14	320
186.522	161.01
186.904	141.94
187.287	158.79
187.669	125.36
188.051	223.82
188.433	124.68
188.815	80.75
189.197	74.84
189.579	45.04
189.961	26.21
190.342	38.56
190.724	28.57
191.106	49
191.488	32.16
191.869	20.78
192.251	18.78
192.633	11.16
193.014	6.39
193.396	9.26
193.777	6.63
194.159	-0.18
194.54	6.33
194.922	3.88
195.303	9.97
195.684	-5.12
196.065	1.54
196.447	0.8
196.828	6.12
197.209	-1.63
197.59	11.24
197.971	38.98
198.352	24.78
198.733	30.4
199.114	-5.73
199.495	-8.39
199.876	14.34
200.257	23.51
200.638	29.31
201.018	37.7
201.399	27.39
201.78	36.3
202.16	48.58
202.541	52.27
202.922	43.25
203.302	13.79
203.683	30.23
204.063	17.46
204.444	24.43
204.824	13.16
205.204	19.75
205.585	13.66
205.965	7.53
206.345	16.04
206.725	21.93
207.106	29.4
207.486	46.68
207.866	36.15
208.246	30.96
208.626	45.02
209.006	42.55
209.386	46.58
209.766	38.66
210.145	34.1
210.525	28.82
210.905	38.35
211.285	39.37
211.664	42.88
212.044	48.57
212.424	38.39
212.803	40.63
213.183	35.78
213.562	44.24
213.942	46.98
214.321	43.61
214.701	42.13
215.08	43.36
215.459	31.23
215.838	33.95
216.218	28.57
216.597	19.93
216.976	4.25
217.355	13.31
217.734	17.26
218.113	17.3
218.492	36.26
218.871	32.15
219.25	35.97
219.629	12.9
220.008	1.48
220.387	26.98
220.766	26.84
221.144	28.93
221.523	3.68
221.902	-50.49
222.28	-35.24
222.659	7.3
223.037	14.42
223.416	7.8
223.794	14.08
224.173	7.71
224.551	10.1
224.929	14.32
225.308	9.77
225.686	7.78
226.064	4.74
226.442	-5.53
226.821	-5.32
227.199	-2.91
227.577	0.02
227.955	2.64
228.333	-1.5
228.711	0.15
229.089	-0.28
229.467	-0.32
229.845	0.07
230.222	1.7
230.6	-2.82
230.978	-2.69
231.356	-1.33
231.733	-3.64
232.111	-3.72
232.488	-4
232.866	-2.08
233.243	-2.05
233.621	-2.67
233.998	-2.36
234.376	0.05
234.753	-0.93
235.13	-0.4
235.508	0.64
235.885	1.65
236.262	2.34
236.639	2.51
237.016	2.57
237.393	4.9
237.77	4.94
238.147	5.4
238.524	5.6
238.901	4.5
239.278	4.4
239.655	4.56
240.032	4.82
240.409	5.12
240.785	4.31
241.162	4.26
241.539	4.11
241.915	3.71
242.292	3.63
242.668	3.99
243.045	3.64
243.421	3.76
243.798	3.47
244.174	3.8
244.551	3.77
244.927	3.77
245.303	3.22
245.679	3.31
246.056	3.4
246.432	3.52
246.808	3.7
247.184	3.87
247.56	4.05
247.936	3.91
248.312	3.9
248.688	4.11
249.064	4.08
249.44	4.15
249.815	4.49
250.191	4.38
250.567	4.19
250.943	4.37
251.318	4.22
251.694	4.04
252.069	4.15
252.445	4.15
252.82	4.42
253.196	4.62
253.571	4.82
253.947	4.45
254.322	4.21
254.697	3.78
255.073	3.82
255.448	3.85
255.823	3.71
256.198	3.42
256.573	3.35
256.948	3.41
257.323	3.31
257.698	3
258.073	3.05
258.448	3.19
258.823	3.18
259.198	3.06
259.573	2.97
259.948	2.93
260.322	2.89
260.697	2.95
261.072	2.97
261.446	2.88
261.821	2.93
262.195	3.12
262.57	3.35
262.944	3.22
263.319	3.04
263.693	3.17
264.067	3.24
264.442	3.16
264.816	2.99
265.19	3.04
265.564	3.12
265.938	3.14
266.313	3.07
266.687	2.93
267.061	2.98
267.435	3.13
267.809	3.08
268.183	3.07
268.556	2.91
268.93	2.85
269.304	2.86
269.678	2.97
270.051	3.01
270.425	2.94
270.799	2.88
271.172	2.84
271.546	2.86
271.919	2.91
272.293	2.87
272.666	3.04
273.04	3.08
273.413	2.98
273.787	2.9
274.16	2.85
274.533	3.02
274.906	3.13
275.279	3.04
275.653	2.86
276.026	2.92
276.399	2.98
276.772	3.05
277.145	3.14
277.518	2.9
277.891	2.87
278.263	2.83
278.636	2.96
279.009	3.13
279.382	3.11
279.755	3.15
280.127	3.29
280.5	3.31
280.872	3.3
281.245	3.42
281.617	3.44
281.99	3.44
282.362	3.32
282.735	3.15
283.107	3.2
283.479	3.33
283.852	3.44
284.224	3.38
284.596	3.47
284.968	3.48
285.34	3.64
285.713	3.55
286.085	3.55
286.457	3.46
286.829	3.39
287.201	3.3
287.572	3.39
287.944	3.45
288.316	3.42
288.688	3.6
289.06	3.59
289.431	3.76
289.803	3.9
290.175	3.93
290.546	3.89
290.918	3.96
291.289	4.05
291.661	4.07
292.032	4.1
292.403	4.02
292.775	3.95
293.146	3.98
293.517	4.04
293.889	4.11
294.26	4.3
294.631	4.43
295.002	4.54
295.373	4.49
295.744	4.49
296.115	4.54
296.486	4.49
296.857	4.62
297.228	4.48
297.599	4.42
297.97	4.57
298.34	4.73
298.711	4.88
299.082	4.88
299.452	4.8
299.823	4.88
300.194	4.93
300.564	4.98
300.935	5.11
301.305	5.13
301.676	5.1
302.046	4.99
302.416	4.94
302.787	5.03
303.157	5
303.527	5.09
303.897	5.04
304.267	4.94
304.637	5.01
305.008	5.09
305.378	5.28
305.748	5.28
306.117	5.42
306.487	5.38
306.857	5.46
307.227	5.58
307.597	5.63
307.967	5.64
308.336	5.73
308.706	5.72
309.076	5.94
309.445	6.15
309.815	6.26
310.184	6.37
310.554	6.47
310.923	6.6
311.293	6.61
311.662	6.75
312.031	6.98
312.401	6.97
312.77	7.09
313.139	7.02
313.508	7.11
313.877	7.11
314.246	7.22
314.616	7.22
314.985	7.41
315.353	7.58
315.722	7.8
316.091	7.94
316.46	8.09
316.829	8.15
317.198	8.2
317.567	8.59
317.935	8.82
318.304	8.96
318.672	9
319.041	9.09
319.41	9.24
319.778	9.33
320.147	9.45
320.515	9.66
320.883	9.91
321.252	10.01
321.62	10.04
321.988	10.1
322.357	10.26
322.725	10.23
323.093	10.2
323.461	10.24
323.829	10.34
324.197	10.43
324.565	10.46
324.933	10.5
325.301	10.18
325.669	10.2
326.037	10.19
326.405	10.29
326.772	10.47
327.14	10.47
327.508	10.38
327.875	10.42
328.243	10.39
328.61	10.31
328.978	10.37
329.346	10.54
329.713	10.59
330.08	10.75
330.448	10.89
330.815	10.97
331.182	11.05
331.55	11.01
331.917	10.86
332.284	10.85
332.651	10.86
333.018	11.06
333.385	11.04
333.752	10.96
334.119	10.99
334.486	10.88
334.853	11.01
335.22	10.99
335.587	11
335.954	10.98
336.32	11.03
336.687	11.05
337.054	10.97
337.42	10.98
337.787	10.91
338.153	10.97
338.52	11.09
338.886	11.1
339.253	11.27
339.619	11.38
339.986	11.45
340.352	11.6
340.718	11.66
341.084	11.68
341.451	11.81
341.817	11.82
342.183	11.89
342.549	11.78
342.915	11.83
343.281	11.97
343.647	12.02
344.013	12.13
344.379	12.14
344.745	12.18
345.11	12.26
345.476	12.33
345.842	12.28
346.208	12.27
346.573	12.27
346.939	12.19
347.304	12.26
347.67	12.28
348.035	12.13
348.401	12.14
348.766	12.14
349.132	12.28
349.497	12.3
349.862	12.25
350.228	12.33
350.593	12.42
350.958	12.5
351.323	12.49
351.688	12.51
352.053	12.47
352.418	12.5
352.783	12.54
353.148	12.56
353.513	12.5
353.878	12.46
354.243	12.41
354.608	12.47
354.972	12.47
355.337	12.45
355.702	12.45
356.066	12.48
356.431	12.5
356.795	12.4
357.16	12.43
357.524	12.44
357.889	12.4
358.253	12.44
358.618	12.35
358.982	12.31
359.346	12.27
359.71	12.2
360.075	12.16
360.439	12.04
360.803	12
361.167	11.95
361.531	11.87
361.895	11.9
362.259	11.79
362.623	11.79
362.987	11.74
363.351	11.75
363.714	11.66
364.078	11.66
364.442	11.59
364.806	11.53
365.169	11.52
365.533	11.53
365.896	11.42
366.26	11.33
366.623	11.31
366.987	11.23
367.35	11.28
367.714	11.24
368.077	11.23
368.44	11.18
368.803	11.15
369.167	11.17
369.53	11.1
369.893	11.09
370.256	11
370.619	10.97
370.982	10.93
371.345	10.88
371.708	10.85
372.071	10.81
372.434	10.68
372.797	10.54
373.159	10.37
373.522	10.28
373.885	10.2
374.247	10.14
374.61	10.01
374.973	9.93
375.335	9.87
375.698	9.79
376.06	9.72
376.423	9.7
376.785	9.63
377.147	9.52
377.51	9.39
377.872	9.32
378.234	9.24
378.596	9.12
378.958	9.07
379.321	8.93
379.683	8.84
380.045	8.78
380.407	8.77
380.769	8.74
381.13	8.7
381.492	8.63
381.854	8.54
382.216	8.55
382.578	8.49
382.939	8.41
383.301	8.31
383.663	8.2
384.024	8.15
384.386	8.08
384.747	8.05
385.109	8.02
385.47	7.99
385.832	7.9
386.193	7.9
386.554	7.78
386.916	7.77
387.277	7.69
387.638	7.66
387.999	7.6
388.36	7.6
388.721	7.58
389.082	7.56
389.443	7.57
389.804	7.51
390.165	7.44
390.526	7.36
390.887	7.33
391.248	7.29
391.609	7.2
391.969	7.15
392.33	7.11
392.691	7.07
393.051	6.98
393.412	6.97
393.772	6.9
394.133	6.89
394.493	6.8
394.854	6.76
395.214	6.71
395.574	6.66
395.935	6.61
396.295	6.53
396.655	6.46
397.015	6.39
397.376	6.35
397.736	6.27
398.096	6.23
398.456	6.2
398.816	6.16
399.176	6.11
399.535	6.04
399.895	5.97
400.255	5.97
400.615	5.95
400.975	5.92
401.334	5.86
401.694	5.8
402.054	5.75
402.413	5.73
402.773	5.68
403.132	5.63
403.492	5.58
403.851	5.53
404.211	5.48
404.57	5.43
404.929	5.37
405.288	5.34
405.648	5.33
406.007	5.31
406.366	5.27
406.725	5.25
407.084	5.27
407.443	5.25
407.802	5.2
408.161	5.16
408.52	5.11
408.879	5.09
409.238	5.06
409.596	5.08
409.955	5.06
410.314	5.03
410.673	5.01
411.031	4.98
411.39	4.99
411.748	4.99
412.107	4.96
412.465	4.94
412.824	4.93
413.182	4.91
413.54	4.88
413.899	4.87
414.257	4.85
414.615	4.79
414.974	4.77
415.332	4.76
415.69	4.74
416.048	4.72
416.406	4.68
416.764	4.69
417.122	4.66
417.48	4.63
417.838	4.61
418.195	4.58
418.553	4.56
418.911	4.54
419.269	4.51
419.626	4.51
419.984	4.49
420.342	4.47
420.699	4.45
421.057	4.41
421.414	4.4
421.772	4.38
422.129	4.36
422.486	4.34
422.844	4.31
423.201	4.28
423.558	4.26
423.915	4.25
424.273	4.24
424.63	4.22
424.987	4.22
425.344	4.2
425.701	4.2
426.058	4.18
426.415	4.15
426.772	4.12
427.128	4.1
427.485	4.11
427.842	4.1
428.199	4.09
428.555	4.07
428.912	4.05
429.269	4.01
429.625	4
429.982	3.98
430.338	3.97
430.695	3.95
431.051	3.93
431.407	3.93
431.764	3.91
432.12	3.89
432.476	3.89
432.832	3.9
433.189	3.89
433.545	3.9
433.901	3.89
434.257	3.9
434.613	3.89
434.969	3.87
435.325	3.87
435.681	3.88
436.036	3.89
436.392	3.88
436.748	3.91
437.104	3.91
437.459	3.93
437.815	3.95
438.171	3.98
438.526	3.98
438.882	3.97
439.237	3.98
439.593	3.99
439.948	3.98
440.304	3.97
440.659	3.99
441.014	3.99
441.369	3.99
441.725	3.98
442.08	3.99
442.435	4
442.79	3.98
443.145	3.96
443.5	3.96
443.855	3.96
444.21	3.96
444.565	3.96
444.92	3.95
445.275	3.94
445.629	3.91
445.984	3.92
446.339	3.91
446.693	3.9
447.048	3.88
447.403	3.87
447.757	3.86
448.112	3.82
448.466	3.81
448.82	3.79
449.175	3.81
449.529	3.79
449.883	3.76
450.238	3.76
450.592	3.75
450.946	3.75
451.3	3.76
451.654	3.72
452.008	3.69
452.362	3.68
452.716	3.65
453.07	3.65
453.424	3.64
453.778	3.63
454.132	3.61
454.486	3.65
454.839	3.64
455.193	3.63
455.547	3.64
455.9	3.65
456.254	3.65
456.607	3.63
456.961	3.65
457.314	3.66
457.668	3.65
458.021	3.62
458.375	3.62
458.728	3.6
459.081	3.61
459.434	3.64
459.787	3.65
460.141	3.68
460.494	3.69
460.847	3.69
461.2	3.71
461.553	3.72
461.906	3.71
462.259	3.71
462.611	3.72
462.964	3.74
463.317	3.72
463.67	3.75
464.022	3.76
464.375	3.75
464.728	3.76
465.08	3.78
465.433	3.83
465.785	3.85
466.138	3.87
466.49	3.9
466.843	3.9
467.195	3.91
467.547	3.91
467.899	3.93
468.252	3.95
468.604	3.95
468.956	4
469.308	4.03
469.66	4.07
470.012	4.1
470.364	4.12
470.716	4.14
471.068	4.18
471.42	4.2
471.772	4.22
472.123	4.27
472.475	4.3
472.827	4.32
473.178	4.35
473.53	4.36
473.882	4.38
474.233	4.39
474.585	4.41
474.936	4.42
475.288	4.42
475.639	4.44
475.99	4.44
476.342	4.44
476.693	4.42
477.044	4.42
477.395	4.4
477.746	4.38
478.097	4.38
478.448	4.34
478.8	4.33
479.15	4.33
479.501	4.29
479.852	4.28
480.203	4.23
480.554	4.21
480.905	4.21
481.255	4.18
481.606	4.18
481.957	4.19
482.307	4.18
482.658	4.17
483.009	4.17
483.359	4.16
483.709	4.15
484.06	4.15
484.41	4.15
484.761	4.15
485.111	4.14
485.461	4.14
485.811	4.14
486.162	4.14
486.512	4.13
486.862	4.13
487.212	4.12
487.562	4.13
487.912	4.13
488.262	4.13
488.612	4.14
488.961	4.13
489.311	4.12
489.661	4.13
490.011	4.12
490.36	4.11
490.71	4.11
491.06	4.12
491.409	4.13
491.759	4.13
492.108	4.13
492.458	4.15
492.807	4.16
493.157	4.17
493.506	4.18
493.855	4.21
494.204	4.23
494.554	4.27
494.903	4.3
495.252	4.33
495.601	4.37
495.95	4.41
496.299	4.46
496.648	4.53
496.997	4.57
497.346	4.64
497.695	4.72
498.043	4.78
498.392	4.83
498.741	4.89
499.09	4.95
499.438	5.03
499.787	5.11
500.135	5.19
500.484	5.28
500.832	5.36
501.181	5.46
501.529	5.57
501.878	5.68
502.226	5.79
502.574	5.92
502.923	6.02
503.271	6.14
503.619	6.28
503.967	6.38
504.315	6.51
504.663	6.65
505.011	6.8
505.359	6.95
505.707	7.1
506.055	7.26
506.403	7.43
506.751	7.61
507.098	7.79
507.446	7.97
507.794	8.17
508.141	8.36
508.489	8.56
508.837	8.74
509.184	8.92
509.531	9.13
509.879	9.33
510.226	9.54
510.574	9.74
510.921	9.98
511.268	10.2
511.616	10.42
511.963	10.67
512.31	10.9
512.657	11.18
513.004	11.47
513.351	11.75
513.698	12.05
514.045	12.34
514.392	12.63
514.739	12.93
515.086	13.25
515.432	13.56
515.779	13.85
516.126	14.16
516.473	14.45
516.819	14.71
517.166	15.01
517.512	15.29
517.859	15.57
518.205	15.8
518.552	16.07
518.898	16.32
519.245	16.57
519.591	16.85
519.937	17.11
520.283	17.34
520.629	17.6
520.976	17.87
521.322	18.15
521.668	18.44
522.014	18.74
522.36	19.03
522.706	19.34
523.052	19.69
523.398	19.97
523.743	20.3
524.089	20.66
524.435	20.97
524.781	21.27
525.126	21.57
525.472	21.84
525.817	22.08
526.163	22.33
526.509	22.52
526.854	22.7
527.199	22.88
527.545	23.04
527.89	23.22
528.235	23.39
528.581	23.56
528.926	23.74
529.271	23.9
529.616	24.07
529.961	24.24
530.306	24.39
530.651	24.58
530.996	24.77
531.341	24.95
531.686	25.13
532.031	25.29
532.376	25.46
532.721	25.62
533.065	25.8
533.41	25.97
533.755	26.16
534.099	26.34
534.444	26.48
534.788	26.67
535.133	26.84
535.477	27.02
535.822	27.22
536.166	27.42
536.51	27.62
536.855	27.8
537.199	28.02
537.543	28.24
537.887	28.47
538.231	28.68
538.576	28.91
538.92	29.11
539.264	29.35
539.608	29.52
539.951	29.71
540.295	29.87
540.639	30.01
540.983	30.16
541.327	30.33
541.671	30.51
542.014	30.67
542.358	30.81
542.701	30.96
543.045	31.1
543.389	31.21
543.732	31.35
544.075	31.49
544.419	31.62
544.762	31.77
545.105	31.89
545.449	32.06
545.792	32.21
546.135	32.38
546.478	32.54
546.821	32.71
547.165	32.9
547.508	33.09
547.851	33.28
548.194	33.43
548.536	33.59
548.879	33.76
549.222	33.92
549.565	34.08
549.908	34.23
550.25	34.34
550.593	34.53
550.936	34.66
551.278	34.83
551.621	35
551.963	35.16
552.306	35.33
552.648	35.47
552.991	35.6
553.333	35.76
553.675	35.93
554.017	36.06
554.36	36.17
554.702	36.26
555.044	36.37
555.386	36.52
555.728	36.65
556.07	36.72
556.412	36.84
556.754	36.96
557.096	37.13
557.438	37.26
557.78	37.38
558.121	37.56
558.463	37.67
558.805	37.74
559.147	37.86
559.488	37.94
559.83	38.04
560.171	38.11
560.513	38.15
560.854	38.19
561.196	38.31
561.537	38.39
561.878	38.5
562.22	38.61
562.561	38.7
562.902	38.76
563.243	38.89
563.584	39
563.925	39.12
564.266	39.14
564.607	39.2
564.948	39.29
565.289	39.33
565.63	39.37
565.971	39.45
566.312	39.48
566.653	39.51
566.993	39.57
567.334	39.66
567.675	39.69
568.015	39.75
568.356	39.79
568.696	39.85
569.037	39.88
569.377	39.88
569.718	39.93
570.058	40
570.398	40
570.739	39.98
571.079	40.02
571.419	40.04
571.759	40.13
572.099	40.16
572.439	40.19
572.779	40.23
573.119	40.31
573.459	40.35
573.799	40.43
574.139	40.43
574.479	40.47
574.819	40.57
575.158	40.59
575.498	40.67
575.838	40.76
576.177	40.83
576.517	40.93
576.856	41
577.196	41.03
577.535	41.13
577.875	41.3
578.214	41.37
578.553	41.44
578.893	41.47
579.232	41.53
579.571	41.64
579.91	41.77
580.25	41.72
580.589	41.82
580.928	41.95
581.267	42.06
581.606	42.09
581.945	42.13
582.283	42.21
582.622	42.19
582.961	42.21
583.3	42.24
583.639	42.28
583.977	42.32
584.316	42.34
584.654	42.39
584.993	42.37
585.332	42.4
585.67	42.51
586.008	42.56
586.347	42.59
586.685	42.53
587.024	42.48
587.362	42.63
587.7	42.65
588.038	42.66
588.376	42.71
588.715	42.71
589.053	42.77
589.391	42.77
589.729	42.84
590.067	42.84
590.404	42.91
590.742	42.99
591.08	43.02
591.418	43.11
591.756	43.09
592.093	43.11
592.431	43.11
592.769	43.04
593.106	43.05
593.444	43.09
593.781	43.14
594.119	43.18
594.456	43.1
594.793	43.14
595.131	43.14
595.468	43.12
595.805	43.17
596.143	43.14
596.48	43.21
596.817	43.29
597.154	43.32
597.491	43.33
597.828	43.3
598.165	43.35
598.502	43.3
598.839	43.34
599.176	43.41
599.512	43.41
599.849	43.49
600.186	43.55
600.523	43.55
600.859	43.61
601.196	43.68
601.532	43.75
601.869	43.7
602.205	43.71
602.542	43.74
602.878	43.78
603.215	43.78
603.551	43.8
603.887	43.8
604.223	43.84
604.56	43.8
604.896	43.8
605.232	43.75
605.568	43.79
605.904	43.84
606.24	43.81
606.576	43.86
606.912	43.9
607.248	43.9
607.583	43.87
607.919	43.92
608.255	43.88
608.591	43.97
608.926	44.01
609.262	44.04
609.597	44.08
609.933	44.12
610.268	44.2
610.604	44.16
610.939	44.11
611.275	44.11
611.61	44.14
611.945	44.14
612.281	44.18
612.616	44.2
612.951	44.12
613.286	44.15
613.621	44.18
613.956	44.18
614.291	44.22
614.626	44.32
614.961	44.32
615.296	44.38
615.631	44.33
615.966	44.34
616.3	44.38
616.635	44.41
616.97	44.39
617.304	44.41
617.639	44.47
617.973	44.47
618.308	44.47
618.642	44.54
618.977	44.55
619.311	44.69
619.646	44.7
619.98	44.78
620.314	44.82
620.648	44.76
620.983	44.72
621.317	44.74
621.651	44.67
621.985	44.68
622.319	44.7
622.653	44.68
622.987	44.68
623.321	44.64
623.655	44.53
623.988	44.61
624.322	44.57
624.656	44.59
624.99	44.58
625.323	44.61
625.657	44.61
625.99	44.7
626.324	44.66
626.657	44.62
626.991	44.61
627.324	44.58
627.658	44.67
627.991	44.71
628.324	44.68
628.657	44.66
628.991	44.72
629.324	44.71
629.657	44.79
629.99	44.87
630.323	44.87
630.656	44.96
630.989	44.94
631.322	45
631.655	45
631.987	45.11
632.32	45.11
632.653	45.07
632.986	45.06
633.318	45.02
633.651	45.13
633.984	45.18
634.316	45.21
634.649	45.21
634.981	45.25
635.313	45.29
635.646	45.31
635.978	45.3
636.31	45.25
636.643	45.2
636.975	45.19
637.307	45.26
637.639	45.29
637.971	45.21
638.303	45.24
638.635	45.23
638.967	45.18
639.299	45.2
639.631	45.24
639.963	45.18
640.295	45.25
640.626	45.28
640.958	45.27
641.29	45.28
641.621	45.26
641.953	45.12
642.285	45.11
642.616	45.14
642.948	45.14
643.279	45.14
643.61	45.18
643.942	45.15
644.273	45.06
644.604	45.1
644.936	45.23
645.267	45.2
645.598	45.24
645.929	45.19
646.26	45.19
646.591	45.24
646.922	45.35
647.253	45.27
647.584	45.28
647.915	45.34
648.245	45.42
648.576	45.33
648.907	45.36
649.238	45.32
649.568	45.18
649.899	45.16
650.229	45.21
650.56	45.13
650.89	45.16
651.221	45.18
651.551	45.15
651.882	45.07
652.212	45
652.542	45.01
652.872	45.14
653.203	45.08
653.533	45.17
653.863	45.16
654.193	45.25
654.523	45.11
654.853	45.13
655.183	45.04
655.513	45.11
655.843	45.18
656.172	45.39
656.502	45.55
656.832	45.61
657.162	45.63
657.491	45.68
657.821	45.76
658.15	45.74
658.48	45.7
658.809	45.73
659.139	45.8
659.468	45.84
659.798	45.81
660.127	45.9
660.456	45.75
660.785	45.66
661.115	45.56
661.444	45.6
661.773	45.6
662.102	45.52
662.431	45.6
662.76	45.57
663.089	45.41
663.418	45.45
663.747	45.41
664.076	45.43
664.404	45.43
664.733	45.35
665.062	45.42
665.39	45.39
665.719	45.34
666.048	45.33
666.376	45.29
666.705	45.25
667.033	45.17
667.362	45.27
667.69	45.28
668.018	45.37
668.347	45.34
668.675	45.41
669.003	45.46
669.331	45.53
669.659	45.55
669.987	45.61
670.315	45.57
670.643	45.5
670.971	45.52
671.299	45.53
671.627	45.54
671.955	45.55
672.283	45.71
672.61	45.75
672.938	45.77
673.266	45.73
673.593	45.79
673.921	45.77
674.249	45.7
674.576	45.86
674.904	45.91
675.231	46.06
675.558	45.86
675.886	45.89
676.213	45.63
676.54	45.61
676.867	45.56
677.195	45.59
677.522	45.68
677.849	45.68
678.176	45.7
678.503	45.65
678.83	45.63
679.157	45.67
679.484	45.76
679.81	45.77
680.137	45.8
680.464	45.8
680.791	45.82
681.117	45.95
681.444	45.88
681.771	45.79
682.097	45.78
682.424	45.86
682.75	45.87
683.077	46
683.403	45.96
683.729	46.08
684.056	45.98
684.382	45.92
684.708	45.91
685.034	45.96
685.36	46.01
685.686	46.01
686.012	46.03
686.339	45.94
686.664	45.97
686.99	45.78
687.316	45.8
687.642	45.93
687.968	45.77
688.294	45.76
688.619	45.83
688.945	45.84
689.271	45.75
689.596	45.74
689.922	45.69
690.247	45.87
690.573	45.8
690.898	45.89
691.224	45.93
691.549	45.91
691.874	45.96
692.2	46
692.525	46.05
692.85	45.97
693.175	45.89
693.5	45.83
693.825	45.96
694.15	45.9
694.475	45.69
694.8	45.75
695.125	45.67
695.45	45.68
695.775	45.61
696.099	45.9
696.424	45.93
696.749	45.93
697.073	45.76
697.398	45.75
697.723	45.76
698.047	45.74
698.372	45.75
698.696	45.7
699.02	45.74
699.345	45.68
699.669	45.59
699.993	45.62
700.318	45.52
700.642	45.52
700.966	45.56
701.29	45.73
701.614	45.71
701.938	45.69
702.262	45.75
702.586	45.87
702.91	45.62
703.234	45.65
703.557	45.8
703.881	45.99
704.205	46.05
704.529	46.09
704.852	46.05
705.176	46.14
705.499	46.17
705.823	46.03
706.146	46.12
706.47	46.13
706.793	46.17
707.117	46.45
707.44	46.59
707.763	46.62
708.086	46.57
708.409	46.64
708.733	46.75
709.056	46.71
709.379	46.7
709.702	46.5
710.025	46.49
710.348	46.45
710.671	46.48
710.993	46.36
711.316	46.3
711.639	46.24
711.962	46.12
712.284	45.99
712.607	46.18
712.93	46.2
713.252	46.24
713.575	46.27
713.897	46.22
714.22	46.09
714.542	45.96
714.864	45.81
715.187	45.69
715.509	45.81
715.831	45.75
716.153	45.69
716.475	46.08
716.798	46.1
717.12	45.87
717.442	45.85
717.764	45.95
718.085	46.11
718.407	46.18
718.729	46.28
719.051	46.34
719.373	46.32
719.695	46.36
720.016	46.42
720.338	46.35
720.659	46.36
720.981	46.19
721.302	46.42
721.624	46.52
721.945	46.57
722.267	46.45
722.588	46.57
722.909	46.61
723.231	46.41
723.552	46.33
723.873	46.49
724.194	46.53
724.515	46.68
724.836	46.48
725.157	46.61
725.478	46.48
725.799	46.46
726.12	46.2
726.441	46.15
726.762	46.02
727.083	45.95
727.403	45.82
727.724	46.01
728.045	46.02
728.365	46.1
728.686	46.35
729.006	46.26
729.327	46.3
729.647	46.15
729.967	46.06
730.288	46.15
730.608	46.13
730.928	45.96
731.249	45.83
731.569	45.76
731.889	45.7
732.209	45.79
732.529	45.89
732.849	46.08
733.169	46.05
733.489	46.01
733.809	46.1
734.129	46.08
734.448	46.14
734.768	45.87
735.088	45.87
735.408	45.56
735.727	45.63
736.047	45.66
736.366	45.84
736.686	46.02
737.005	46.12
737.325	46.15
737.644	46.31
737.963	46.26
738.283	46.41
738.602	46.65
738.921	46.8
739.24	46.76
739.56	46.54
739.879	46.71
740.198	46.97
740.517	47.02
740.836	47.19
741.155	47.35
741.473	47.59
741.792	47.66
742.111	48.14
742.43	48.04
742.748	47.89
743.067	47.68
743.386	47.63
743.704	47.59
744.023	47.68
744.341	47.61
744.66	47.74
744.978	47.79
745.297	47.53
745.615	47.23
745.933	47.01
746.252	47.24
746.57	46.99
746.888	46.98
747.206	47.06
747.524	46.87
747.842	46.84
748.16	46.62
748.478	46.77
748.796	46.42
749.114	46.34
749.432	46.29
749.749	46.56
750.067	46.62
750.385	46.78
750.703	46.81
751.02	47
751.338	46.6
751.655	46.6
751.973	46.5
752.29	46.48
752.608	46.76
752.925	46.52
753.242	46.79
753.56	46.51
753.877	46.22
754.194	46.63
754.511	46.71
754.828	46.49
755.145	46.18
755.462	46.15
755.779	46.64
756.096	47.04
756.413	46.84
756.73	46.62
757.047	46.3
757.364	46.18
757.68	46.01
757.997	46.61
758.314	46.73
758.63	46.61
758.947	46.65
759.264	46.48
759.58	46.75
759.896	46.65
760.213	46.77
760.529	47.15
760.846	47.06
761.162	46.83
761.478	47.2
761.794	47.34
762.11	47.34
762.426	46.98
762.743	46.64
763.059	46.98
763.375	47.08
763.69	47.04
764.006	47.08
764.322	47.22
764.638	47.06
764.954	46.88
765.27	47.13
765.585	47.14
765.901	47.1
766.216	47.01
766.532	46.83
766.848	46.85
767.163	46.65
767.478	46.3
767.794	46.2
768.109	46.16
768.424	45.99
768.74	45.87
769.055	46.34
769.37	46.44
769.685	46.13
770	46.13
770.315	46.41
770.63	46.38
770.945	46.09
771.26	46.14
771.575	46.22
771.89	46.2
772.205	46.58
772.52	46.69
772.834	46.68
773.149	47.14
773.464	47.52
773.778	47.6
774.093	47.71
774.407	47.65
774.722	48.04
775.036	47.84
775.351	48.1
775.665	47.61
775.979	47.27
776.293	47.09
776.608	46.78
776.922	46.75
777.236	46.86
777.55	46.67
777.864	46.59
778.178	46.5
778.492	46.2
778.806	45.84
779.12	46
779.434	46.08
779.747	45.32
780.061	44.59
780.375	44.18
780.689	44.66
781.002	44.85
781.316	44.55
781.629	44.86
781.943	44.7
782.256	44.54
782.57	44.95
782.883	44.8
783.196	44.81
783.51	44.4
783.823	44.09
784.136	44.06
784.449	43.94
784.762	44.16
785.075	44.48
785.388	44.78
785.701	44.67
786.014	44.27
786.327	44.77
786.64	45.03
786.953	45.49
787.266	44.91
787.578	44.96
787.891	44.7
788.204	44.37
788.516	44.59
788.829	44.49
789.141	44.14
789.454	44.42
789.766	44.88
790.079	44.91
790.391	44.98
790.703	45.41
791.016	45.5
791.328	44.96
791.64	44.33
791.952	44.57
792.264	44.68
792.576	45.04
792.888	45.3
793.2	45.48
793.512	45.27
793.824	45.4
794.136	45.2
794.448	45.71
794.76	46.31
795.071	45.88
795.383	45.97
795.695	46.34
796.006	46.36
796.318	46.49
796.629	46.23
796.941	46.15
797.252	46.14
797.564	46.01
797.875	46.52
798.186	47.18
798.497	46.87
798.809	46.92
799.12	46.61
799.431	46.36
799.742	46.05
800.053	45.85
800.364	46.06
800.675	46.14
800.986	45.74
801.297	45.41
801.608	45.43
801.918	45.55
802.229	45.5
802.54	45.69
802.851	45.67
803.161	46.21
803.472	46.52
803.782	46.66
804.093	46.65
804.403	46.71
804.714	46.78
805.024	46.66
805.334	46.37
805.645	46.85
805.955	46.95
806.265	47.25
806.575	47.63
806.885	47.55
807.195	48.05
807.505	48.15
807.815	48.51
808.125	48.47
808.435	48.75
808.745	49.1
809.055	48.78
809.365	48.21
809.674	47.99
809.984	48.21
810.294	48.04
810.603	47.65
810.913	48.09
811.222	47.43
811.532	47.5
811.841	47.74
812.151	47.95
812.46	47.3
812.769	47.83
813.079	48.38
813.388	48.19
813.697	47.78
814.006	47.72
814.315	47.42
814.624	48.27
814.933	47.97
815.242	47.28
815.551	47.91
815.86	47.79
816.169	47.96
816.478	48.14
816.786	48
817.095	48.71
817.404	47.86
817.712	48.47
818.021	48.32
818.33	47.59
818.638	47.57
818.947	47.66
819.255	47.12
819.563	46.35
819.872	46.18
820.18	45.99
820.488	46.16
820.796	45.86
821.105	45.85
821.413	45.8
821.721	46.02
822.029	45.91
822.337	46.03
822.645	46.21
822.953	46.18
823.26	46.12
823.568	46.14
823.876	46.04
824.184	46.05
824.491	46.03
824.799	46.25
825.107	46.18
825.414	46.28
825.722	46.32
826.029	46.44
826.337	46.47
826.644	46.46
826.951	46.41
827.259	46.72
827.566	46.7
827.873	46.81
828.18	46.59
828.488	46.6
828.795	46.63
829.102	46.56
829.409	46.15
829.716	46.46
830.023	46.39
830.329	46.61
830.636	46.59
830.943	46.5
831.25	46.19
831.557	45.89
831.863	45.7
832.17	45.8
832.476	46.26
832.783	46.66
833.089	46.65
833.396	46.35
833.702	46.44
834.009	46.48
834.315	46.74
834.621	47.1
834.928	47.16
835.234	47.18
835.54	47.29
835.846	48.15
836.152	47.44
836.458	47.67
836.764	47.93
837.07	47.91
837.376	47.71
837.682	48.01
837.988	48.61
838.293	48.53
838.599	47.85
838.905	47.43
839.211	47.07
839.516	47.12
839.822	47.61
840.127	47.02
840.433	46.96
840.738	46.89
841.044	47.47
841.349	47.25
841.654	47.31
841.959	46.53
842.265	45.27
842.57	45.09
842.875	44.47
843.18	43.75
843.485	44.61
843.79	45.46
844.095	45.16
844.4	44.06
844.705	44.82
845.01	46.18
845.315	45.08
845.619	45.49
845.924	46.83
846.229	45.74
846.533	45.76
846.838	44.22
847.142	43.22
847.447	43.43
847.751	43.33
848.056	43
848.36	43.14
848.664	44.39
848.969	45.98
849.273	45.21
849.577	45.85
849.881	43.61
850.185	42.6
850.489	42.93
850.794	44.46
851.097	45.11
851.401	44.96
851.705	45.31
852.009	44.65
852.313	42.58
852.617	42.28
852.92	43.92
853.224	44.57
853.528	44.42
853.831	43.17
854.135	42.85
854.438	41.74
854.742	42.72
855.045	43.19
855.349	43.67
855.652	43.56
855.955	42.73
856.259	43.42
856.562	45.7
856.865	46.71
857.168	46.52
857.471	46.59
857.774	45.74
858.077	45.18
858.38	44.72
858.683	46.66
858.986	47.06
859.289	44.28
859.592	46.76
859.894	47.46
860.197	47.13
860.5	48.34
860.802	49.09
861.105	49.09
861.407	46.68
861.71	47.44
862.012	46.76
862.315	47.31
862.617	46.33
862.919	45.31
863.222	43.46
863.524	43.72
863.826	42.1
864.128	42.04
864.43	42.85
864.732	44.22
865.034	44.42
865.336	46.14
865.638	47.05
865.94	47.54
866.242	46.99
866.544	46.99
866.846	44.48
867.147	45.2
867.449	43.59
867.751	43.61
868.052	41.7
868.354	41.53
868.655	42.14
868.957	41.82
869.258	41.12
869.56	40.61
869.861	40.62
870.162	42.18
870.463	44.48
870.765	45.04
871.066	45.87
871.367	45.24
871.668	45.97
871.969	46.43
872.27	47.16
872.571	49.25
872.872	48.67
873.173	47.78
873.473	48.74
873.774	52.19
874.075	53.05
874.376	53.95
874.676	58.35
874.977	57.85
875.277	60.48
875.578	61.72
875.878	64.84
876.179	65.37
876.479	64.29
876.78	63.56
877.08	64.93
877.38	63.96
877.68	65.06
877.981	62.93
878.281	63.98
878.581	60.33
