Data from BU26942_Reflection_00013.txt Node
Date: Mon Nov 18 16:50:54 EST 2019
User: vgr7
Spectrometer: USB2G7710
Scans to average: 3
Trigger mode: 4
Integration Time (sec): 2.000000E-2
Electric dark correction enabled: true
Boxcar width: 10
XAxis mode: Wavelengths
Number of Pixels in Spectrum: 2048
>>>>>Begin Spectral Data<<<<<
177.721	61.53
178.105	12.47
178.488	-127.49
178.871	-174.65
179.254	206.51
179.636	-130.77
180.019	-238.03
180.402	113.04
180.785	-101.78
181.168	-137.62
181.55	-118.42
181.933	329.21
182.316	524.62
182.698	496.09
183.081	756.6
183.463	15330.77
183.846	202.45
184.228	161.86
184.611	416.98
184.993	348.52
185.376	-126.21
185.758	-128.93
186.14	-182.02
186.522	132100
186.904	773.8
187.287	771.81
187.669	-737.99
188.051	-280.4
188.433	-291.64
188.815	-570.81
189.197	-147.76
189.579	-32.84
189.961	-46.66
190.342	-10.18
190.724	26.03
191.106	-26.08
191.488	-51.03
191.869	-75.02
192.251	-104.14
192.633	-109.25
193.014	-112.58
193.396	-96.21
193.777	-74.21
194.159	-83.41
194.54	-67.27
194.922	-30.23
195.303	-28.47
195.684	-56.71
196.065	-44.26
196.447	-30.68
196.828	-41.64
197.209	-76.58
197.59	-142.3
197.971	-41.7
198.352	-7.37
198.733	-22.01
199.114	-9.64
199.495	-2.98
199.876	7.81
200.257	18
200.638	12.52
201.018	-6.74
201.399	-27.07
201.78	-25.61
202.16	-38.35
202.541	-62.44
202.922	-152.28
203.302	-160.57
203.683	-133.87
204.063	-245.32
204.444	-309.2
204.824	-196.21
205.204	-143.52
205.585	-186.85
205.965	-271.32
206.345	-317.95
206.725	-723.14
207.106	-360.38
207.486	-406.45
207.866	-306.27
208.246	-273.37
208.626	-251.48
209.006	-197.38
209.386	-175.06
209.766	-177.1
210.145	-188.62
210.525	-185.87
210.905	-119.3
211.285	-70.6
211.664	-60.64
212.044	-35.45
212.424	-24.53
212.803	-44.6
213.183	-34.51
213.562	-17.67
213.942	-6.46
214.321	16.06
214.701	-7.68
215.08	-16.98
215.459	-26.13
215.838	-17.68
216.218	-20.03
216.597	-18.28
216.976	-26.52
217.355	-11.76
217.734	-16.6
218.113	4.93
218.492	18.35
218.871	-15.16
219.25	-3.23
219.629	-6.81
220.008	-9.5
220.387	0.37
220.766	1.56
221.144	-11.14
221.523	-31.42
221.902	-46.51
222.28	-53.72
222.659	-11.6
223.037	-4.72
223.416	-0.18
223.794	-3.04
224.173	-18.11
224.551	-15.44
224.929	-11.22
225.308	-11.21
225.686	-2.77
226.064	-6.63
226.442	-9.25
226.821	1.9
227.199	3.11
227.577	0.47
227.955	3.46
228.333	0.5
228.711	4.02
229.089	6.38
229.467	7.87
229.845	4.05
230.222	3.38
230.6	3.89
230.978	4.02
231.356	3.59
231.733	2.37
232.111	6.72
232.488	6.52
232.866	7.75
233.243	8.71
233.621	4.92
233.998	6.62
234.376	5.16
234.753	4.63
235.13	2.35
235.508	6.79
235.885	5.23
236.262	3.59
236.639	3.03
237.016	3.01
237.393	3.36
237.77	4.49
238.147	4.08
238.524	3.93
238.901	4.6
239.278	5.41
239.655	6.77
240.032	6.23
240.409	6.01
240.785	5.64
241.162	5.64
241.539	5.98
241.915	5.55
242.292	5.33
242.668	5.55
243.045	5.38
243.421	4.69
243.798	4.84
244.174	4.94
244.551	4.87
244.927	5
245.303	4.99
245.679	5.06
246.056	5.06
246.432	4.74
246.808	4.55
247.184	4.31
247.56	3.86
247.936	3.7
248.312	3.69
248.688	3.86
249.064	3.69
249.44	3.52
249.815	3.61
250.191	3.82
250.567	3.62
250.943	3.62
251.318	3.68
251.694	3.32
252.069	3.29
252.445	3.34
252.82	2.96
253.196	2.86
253.571	2.69
253.947	2.71
254.322	3.14
254.697	3.22
255.073	3.05
255.448	3.31
255.823	3.53
256.198	3.71
256.573	3.75
256.948	4.02
257.323	4.08
257.698	3.95
258.073	3.95
258.448	3.97
258.823	3.96
259.198	3.83
259.573	4.04
259.948	4.02
260.322	3.97
260.697	4.03
261.072	3.89
261.446	3.97
261.821	3.99
262.195	4.04
262.57	3.93
262.944	4.05
263.319	3.99
263.693	4.03
264.067	4.01
264.442	3.84
264.816	3.72
265.19	3.55
265.564	3.55
265.938	3.5
266.313	3.38
266.687	3.48
267.061	3.59
267.435	3.52
267.809	3.54
268.183	3.52
268.556	3.54
268.93	3.74
269.304	3.62
269.678	3.73
270.051	3.65
270.425	3.85
270.799	3.89
271.172	3.92
271.546	3.83
271.919	3.72
272.293	3.87
272.666	3.94
273.04	4.13
273.413	4.07
273.787	4.11
274.16	4.16
274.533	4.12
274.906	4.13
275.279	4.11
275.653	4.08
276.026	4.18
276.399	4.1
276.772	4.13
277.145	4.34
277.518	4.26
277.891	4.14
278.263	4.08
278.636	4.08
279.009	4.06
279.382	4.2
279.755	4.16
280.127	4.13
280.5	4.09
280.872	4.15
281.245	4.09
281.617	4.1
281.99	4.18
282.362	4.29
282.735	4.19
283.107	4.16
283.479	4.21
283.852	4.2
284.224	4.24
284.596	4.19
284.968	4.03
285.34	4.1
285.713	4.08
286.085	4.19
286.457	4.32
286.829	4.35
287.201	4.35
287.572	4.41
287.944	4.48
288.316	4.44
288.688	4.45
289.06	4.58
289.431	4.55
289.803	4.4
290.175	4.31
290.546	4.25
290.918	4.37
291.289	4.34
291.661	4.4
292.032	4.55
292.403	4.67
292.775	4.75
293.146	4.66
293.517	4.68
293.889	4.62
294.26	4.58
294.631	4.54
295.002	4.56
295.373	4.49
295.744	4.51
296.115	4.54
296.486	4.39
296.857	4.41
297.228	4.49
297.599	4.54
297.97	4.51
298.34	4.58
298.711	4.62
299.082	4.64
299.452	4.72
299.823	4.7
300.194	4.57
300.564	4.48
300.935	4.69
301.305	4.9
301.676	5.03
302.046	5.06
302.416	5.24
302.787	5.21
303.157	5.35
303.527	5.35
303.897	5.49
304.267	5.83
304.637	5.89
305.008	5.97
305.378	6.15
305.748	6.33
306.117	6.39
306.487	6.39
306.857	6.55
307.227	6.61
307.597	6.52
307.967	6.74
308.336	6.9
308.706	6.8
309.076	6.81
309.445	6.72
309.815	6.74
310.184	6.71
310.554	6.83
310.923	7
311.293	7.04
311.662	6.95
312.031	6.92
312.401	6.82
312.77	6.95
313.139	6.98
313.508	6.99
313.877	7.04
314.246	7.17
314.616	7.18
314.985	7.16
315.353	7.17
315.722	7.09
316.091	7.26
316.46	7.36
316.829	7.32
317.198	7.55
317.567	7.54
317.935	7.68
318.304	7.66
318.672	7.57
319.041	7.66
319.41	7.8
319.778	7.87
320.147	8.14
320.515	8.06
320.883	8.12
321.252	8.15
321.62	8.4
321.988	8.53
322.357	8.64
322.725	8.55
323.093	8.83
323.461	8.99
323.829	8.91
324.197	8.98
324.565	9.04
324.933	9.1
325.301	9.2
325.669	9.18
326.037	9.32
326.405	9.41
326.772	9.58
327.14	9.67
327.508	9.69
327.875	9.55
328.243	9.68
328.61	9.65
328.978	9.78
329.346	9.69
329.713	9.55
330.08	9.58
330.448	9.6
330.815	9.59
331.182	9.68
331.55	9.69
331.917	9.78
332.284	9.89
332.651	9.84
333.018	9.95
333.385	10.06
333.752	10.13
334.119	10.11
334.486	10.06
334.853	10.13
335.22	10.13
335.587	10.33
335.954	10.24
336.32	10.26
336.687	10.3
337.054	10.34
337.42	10.44
337.787	10.47
338.153	10.55
338.52	10.59
338.886	10.5
339.253	10.47
339.619	10.42
339.986	10.4
340.352	10.44
340.718	10.39
341.084	10.32
341.451	10.36
341.817	10.39
342.183	10.35
342.549	10.4
342.915	10.47
343.281	10.46
343.647	10.57
344.013	10.68
344.379	10.65
344.745	10.82
345.11	10.9
345.476	10.82
345.842	10.89
346.208	10.94
346.573	11.1
346.939	11.24
347.304	11.23
347.67	11.31
348.035	11.27
348.401	11.32
348.766	11.34
349.132	11.28
349.497	11.32
349.862	11.46
350.228	11.48
350.593	11.39
350.958	11.44
351.323	11.41
351.688	11.43
352.053	11.49
352.418	11.41
352.783	11.41
353.148	11.51
353.513	11.52
353.878	11.44
354.243	11.41
354.608	11.4
354.972	11.39
355.337	11.34
355.702	11.32
356.066	11.36
356.431	11.3
356.795	11.4
357.16	11.44
357.524	11.3
357.889	11.2
358.253	11.25
358.618	11.22
358.982	11.22
359.346	11.11
359.71	11.05
360.075	11.03
360.439	11
360.803	11.05
361.167	11.05
361.531	11.07
361.895	10.97
362.259	10.97
362.623	10.99
362.987	10.96
363.351	10.97
363.714	10.89
364.078	10.86
364.442	10.76
364.806	10.68
365.169	10.69
365.533	10.61
365.896	10.57
366.26	10.5
366.623	10.45
366.987	10.48
367.35	10.51
367.714	10.44
368.077	10.32
368.44	10.12
368.803	10.02
369.167	9.89
369.53	9.81
369.893	9.74
370.256	9.66
370.619	9.61
370.982	9.48
371.345	9.43
371.708	9.37
372.071	9.33
372.434	9.23
372.797	9.15
373.159	9.15
373.522	9.13
373.885	9.08
374.247	9.05
374.61	8.97
374.973	8.86
375.335	8.81
375.698	8.8
376.06	8.77
376.423	8.73
376.785	8.72
377.147	8.75
377.51	8.66
377.872	8.61
378.234	8.58
378.596	8.57
378.958	8.5
379.321	8.47
379.683	8.41
380.045	8.36
380.407	8.27
380.769	8.23
381.13	8.14
381.492	8.09
381.854	8.03
382.216	7.95
382.578	7.88
382.939	7.82
383.301	7.76
383.663	7.69
384.024	7.68
384.386	7.64
384.747	7.56
385.109	7.54
385.47	7.47
385.832	7.39
386.193	7.35
386.554	7.32
386.916	7.28
387.277	7.29
387.638	7.29
387.999	7.25
388.36	7.19
388.721	7.15
389.082	7.11
389.443	7.05
389.804	7.02
390.165	7.01
390.526	6.94
390.887	6.9
391.248	6.91
391.609	6.83
391.969	6.78
392.33	6.74
392.691	6.7
393.051	6.66
393.412	6.64
393.772	6.58
394.133	6.52
394.493	6.48
394.854	6.38
395.214	6.33
395.574	6.29
395.935	6.26
396.295	6.19
396.655	6.14
397.015	6.06
397.376	6.05
397.736	5.98
398.096	5.99
398.456	5.94
398.816	5.92
399.176	5.86
399.535	5.79
399.895	5.75
400.255	5.7
400.615	5.68
400.975	5.63
401.334	5.58
401.694	5.53
402.054	5.52
402.413	5.49
402.773	5.44
403.132	5.41
403.492	5.4
403.851	5.39
404.211	5.33
404.57	5.33
404.929	5.27
405.288	5.25
405.648	5.16
406.007	5.13
406.366	5.06
406.725	5.07
407.084	5.09
407.443	5.05
407.802	5.07
408.161	5.02
408.52	4.99
408.879	4.98
409.238	4.98
409.596	4.95
409.955	4.96
410.314	4.96
410.673	4.95
411.031	4.95
411.39	4.93
411.748	4.94
412.107	4.9
412.465	4.88
412.824	4.85
413.182	4.87
413.54	4.88
413.899	4.86
414.257	4.85
414.615	4.79
414.974	4.79
415.332	4.74
415.69	4.7
416.048	4.68
416.406	4.66
416.764	4.64
417.122	4.63
417.48	4.56
417.838	4.54
418.195	4.52
418.553	4.49
418.911	4.47
419.269	4.46
419.626	4.45
419.984	4.43
420.342	4.43
420.699	4.41
421.057	4.39
421.414	4.38
421.772	4.36
422.129	4.36
422.486	4.33
422.844	4.34
423.201	4.32
423.558	4.31
423.915	4.29
424.273	4.3
424.63	4.26
424.987	4.27
425.344	4.26
425.701	4.26
426.058	4.24
426.415	4.22
426.772	4.21
427.128	4.2
427.485	4.2
427.842	4.18
428.199	4.18
428.555	4.17
428.912	4.14
429.269	4.15
429.625	4.15
429.982	4.15
430.338	4.11
430.695	4.12
431.051	4.11
431.407	4.1
431.764	4.07
432.12	4.1
432.476	4.1
432.832	4.07
433.189	4.07
433.545	4.06
433.901	4.07
434.257	4.07
434.613	4.07
434.969	4.09
435.325	4.09
435.681	4.09
436.036	4.09
436.392	4.11
436.748	4.09
437.104	4.08
437.459	4.08
437.815	4.08
438.171	4.08
438.526	4.1
438.882	4.11
439.237	4.1
439.593	4.1
439.948	4.1
440.304	4.12
440.659	4.12
441.014	4.13
441.369	4.11
441.725	4.1
442.08	4.09
442.435	4.06
442.79	4.05
443.145	4.06
443.5	4.06
443.855	4.05
444.21	4.05
444.565	4.06
444.92	4.07
445.275	4.06
445.629	4.07
445.984	4.05
446.339	4.03
446.693	4.03
447.048	4.02
447.403	4.01
447.757	4
448.112	3.98
448.466	3.98
448.82	3.98
449.175	3.97
449.529	3.97
449.883	3.96
450.238	3.95
450.592	3.93
450.946	3.91
451.3	3.91
451.654	3.89
452.008	3.88
452.362	3.85
452.716	3.84
453.07	3.84
453.424	3.83
453.778	3.83
454.132	3.8
454.486	3.78
454.839	3.78
455.193	3.75
455.547	3.76
455.9	3.78
456.254	3.79
456.607	3.81
456.961	3.82
457.314	3.83
457.668	3.83
458.021	3.83
458.375	3.84
458.728	3.82
459.081	3.83
459.434	3.81
459.787	3.83
460.141	3.83
460.494	3.84
460.847	3.84
461.2	3.86
461.553	3.9
461.906	3.91
462.259	3.93
462.611	3.98
462.964	3.99
463.317	3.98
463.67	3.99
464.022	3.99
464.375	4
464.728	4.03
465.08	4.05
465.433	4.08
465.785	4.1
466.138	4.13
466.49	4.14
466.843	4.18
467.195	4.19
467.547	4.2
467.899	4.19
468.252	4.2
468.604	4.21
468.956	4.23
469.308	4.26
469.66	4.26
470.012	4.25
470.364	4.25
470.716	4.29
471.068	4.27
471.42	4.29
471.772	4.31
472.123	4.3
472.475	4.32
472.827	4.31
473.178	4.33
473.53	4.33
473.882	4.34
474.233	4.33
474.585	4.32
474.936	4.35
475.288	4.37
475.639	4.38
475.99	4.36
476.342	4.35
476.693	4.34
477.044	4.35
477.395	4.36
477.746	4.34
478.097	4.33
478.448	4.33
478.8	4.31
479.15	4.29
479.501	4.29
479.852	4.27
480.203	4.25
480.554	4.25
480.905	4.25
481.255	4.25
481.606	4.24
481.957	4.24
482.307	4.22
482.658	4.22
483.009	4.21
483.359	4.2
483.709	4.2
484.06	4.19
484.41	4.19
484.761	4.19
485.111	4.19
485.461	4.19
485.811	4.18
486.162	4.18
486.512	4.19
486.862	4.19
487.212	4.18
487.562	4.19
487.912	4.18
488.262	4.17
488.612	4.18
488.961	4.18
489.311	4.19
489.661	4.2
490.011	4.21
490.36	4.2
490.71	4.21
491.06	4.22
491.409	4.23
491.759	4.25
492.108	4.25
492.458	4.27
492.807	4.28
493.157	4.3
493.506	4.34
493.855	4.35
494.204	4.38
494.554	4.39
494.903	4.42
495.252	4.43
495.601	4.48
495.95	4.52
496.299	4.57
496.648	4.61
496.997	4.63
497.346	4.67
497.695	4.75
498.043	4.79
498.392	4.84
498.741	4.9
499.09	4.95
499.438	5.02
499.787	5.07
500.135	5.16
500.484	5.23
500.832	5.29
501.181	5.37
501.529	5.44
501.878	5.54
502.226	5.65
502.574	5.75
502.923	5.82
503.271	5.91
503.619	6.01
503.967	6.1
504.315	6.23
504.663	6.35
505.011	6.46
505.359	6.58
505.707	6.72
506.055	6.83
506.403	6.96
506.751	7.08
507.098	7.21
507.446	7.33
507.794	7.46
508.141	7.6
508.489	7.75
508.837	7.92
509.184	8.07
509.531	8.2
509.879	8.36
510.226	8.53
510.574	8.67
510.921	8.85
511.268	9
511.616	9.14
511.963	9.29
512.31	9.46
512.657	9.65
513.004	9.81
513.351	10.02
513.698	10.2
514.045	10.39
514.392	10.55
514.739	10.74
515.086	10.94
515.432	11.11
515.779	11.28
516.126	11.45
516.473	11.62
516.819	11.79
517.166	11.95
517.512	12.1
517.859	12.27
518.205	12.4
518.552	12.54
518.898	12.68
519.245	12.8
519.591	12.93
519.937	13.04
520.283	13.2
520.629	13.32
520.976	13.47
521.322	13.64
521.668	13.83
522.014	14
522.36	14.15
522.706	14.35
523.052	14.54
523.398	14.72
523.743	14.93
524.089	15.17
524.435	15.38
524.781	15.59
525.126	15.76
525.472	15.94
525.817	16.1
526.163	16.24
526.509	16.38
526.854	16.51
527.199	16.64
527.545	16.77
527.89	16.9
528.235	17.03
528.581	17.17
528.926	17.3
529.271	17.44
529.616	17.59
529.961	17.72
530.306	17.87
530.651	18.03
530.996	18.19
531.341	18.34
531.686	18.48
532.031	18.65
532.376	18.83
532.721	19.02
533.065	19.23
533.41	19.46
533.755	19.68
534.099	19.9
534.444	20.12
534.788	20.32
535.133	20.53
535.477	20.76
535.822	20.97
536.166	21.22
536.51	21.47
536.855	21.74
537.199	22
537.543	22.29
537.887	22.6
538.231	22.88
538.576	23.17
538.92	23.49
539.264	23.75
539.608	24.02
539.951	24.26
540.295	24.5
540.639	24.69
540.983	24.92
541.327	25.15
541.671	25.36
542.014	25.62
542.358	25.84
542.701	26.05
543.045	26.27
543.389	26.49
543.732	26.7
544.075	26.93
544.419	27.19
544.762	27.42
545.105	27.67
545.449	27.93
545.792	28.19
546.135	28.44
546.478	28.77
546.821	29.03
547.165	29.34
547.508	29.66
547.851	29.99
548.194	30.28
548.536	30.6
548.879	30.94
549.222	31.22
549.565	31.54
549.908	31.84
550.25	32.21
550.593	32.48
550.936	32.82
551.278	33.13
551.621	33.45
551.963	33.79
552.306	34.08
552.648	34.38
552.991	34.68
553.333	34.99
553.675	35.28
554.017	35.53
554.36	35.75
554.702	36.02
555.044	36.28
555.386	36.53
555.728	36.74
556.07	37.01
556.412	37.24
556.754	37.45
557.096	37.68
557.438	37.9
557.78	38.17
558.121	38.38
558.463	38.63
558.805	38.81
559.147	38.99
559.488	39.17
559.83	39.38
560.171	39.57
560.513	39.73
560.854	39.87
561.196	40.16
561.537	40.35
561.878	40.48
562.22	40.68
562.561	40.9
562.902	41.12
563.243	41.24
563.584	41.46
563.925	41.64
564.266	41.79
564.607	41.99
564.948	42.15
565.289	42.3
565.63	42.45
565.971	42.62
566.312	42.84
566.653	42.96
566.993	43.11
567.334	43.23
567.675	43.39
568.015	43.53
568.356	43.62
568.696	43.8
569.037	43.93
569.377	44.09
569.718	44.16
570.058	44.27
570.398	44.45
570.739	44.57
571.079	44.68
571.419	44.82
571.759	44.85
572.099	44.97
572.439	45.09
572.779	45.17
573.119	45.29
573.459	45.32
573.799	45.44
574.139	45.56
574.479	45.71
574.819	45.84
575.158	45.92
575.498	46.03
575.838	46.12
576.177	46.23
576.517	46.31
576.856	46.45
577.196	46.56
577.535	46.62
577.875	46.71
578.214	46.81
578.553	46.99
578.893	47.15
579.232	47.17
579.571	47.24
579.91	47.35
580.25	47.43
580.589	47.6
580.928	47.72
581.267	47.73
581.606	47.85
581.945	47.87
582.283	48.02
582.622	48.12
582.961	48.17
583.3	48.34
583.639	48.42
583.977	48.49
584.316	48.56
584.654	48.65
584.993	48.73
585.332	48.84
585.67	48.92
586.008	49.01
586.347	49.11
586.685	49.21
587.024	49.22
587.362	49.29
587.7	49.35
588.038	49.44
588.376	49.47
588.715	49.44
589.053	49.56
589.391	49.62
589.729	49.63
590.067	49.74
590.404	49.71
590.742	49.81
591.08	49.91
591.418	49.98
591.756	50.06
592.093	50.1
592.431	50.1
592.769	50.08
593.106	50.1
593.444	50.17
593.781	50.22
594.119	50.34
594.456	50.36
594.793	50.36
595.131	50.42
595.468	50.53
595.805	50.58
596.143	50.58
596.48	50.64
596.817	50.7
597.154	50.74
597.491	50.76
597.828	50.78
598.165	50.79
598.502	50.75
598.839	50.72
599.176	50.7
599.512	50.86
599.849	50.87
600.186	50.91
600.523	50.95
600.859	50.98
601.196	51.02
601.532	51.08
601.869	51.11
602.205	51.11
602.542	51.11
602.878	51.14
603.215	51.18
603.551	51.16
603.887	51.2
604.223	51.28
604.56	51.38
604.896	51.37
605.232	51.36
605.568	51.48
605.904	51.5
606.24	51.55
606.576	51.5
606.912	51.53
607.248	51.53
607.583	51.57
607.919	51.58
608.255	51.58
608.591	51.64
608.926	51.72
609.262	51.8
609.597	51.81
609.933	51.83
610.268	51.86
610.604	51.92
610.939	51.96
611.275	51.91
611.61	51.95
611.945	51.95
612.281	52
612.616	51.94
612.951	51.96
613.286	51.95
613.621	51.96
613.956	52.06
614.291	52.04
614.626	51.98
614.961	52.06
615.296	52.11
615.631	52.15
615.966	52.19
616.3	52.17
616.635	52.29
616.97	52.31
617.304	52.32
617.639	52.32
617.973	52.29
618.308	52.29
618.642	52.21
618.977	52.25
619.311	52.26
619.646	52.39
619.98	52.46
620.314	52.55
620.648	52.54
620.983	52.53
621.317	52.66
621.651	52.73
621.985	52.71
622.319	52.68
622.653	52.67
622.987	52.72
623.321	52.64
623.655	52.65
623.988	52.69
624.322	52.79
624.656	52.85
624.99	52.84
625.323	52.91
625.657	52.96
625.99	52.98
626.324	53.05
626.657	53.07
626.991	53.12
627.324	53.11
627.658	53.1
627.991	53.11
628.324	53.13
628.657	53.15
628.991	53.2
629.324	53.27
629.657	53.23
629.99	53.23
630.323	53.39
630.656	53.37
630.989	53.41
631.322	53.29
631.655	53.31
631.987	53.39
632.32	53.38
632.653	53.37
632.986	53.37
633.318	53.29
633.651	53.22
633.984	53.2
634.316	53.27
634.649	53.35
634.981	53.43
635.313	53.48
635.646	53.55
635.978	53.59
636.31	53.57
636.643	53.56
636.975	53.47
637.307	53.4
637.639	53.46
637.971	53.43
638.303	53.51
638.635	53.48
638.967	53.51
639.299	53.61
639.631	53.65
639.963	53.73
640.295	53.8
640.626	53.89
640.958	53.94
641.29	53.89
641.621	53.9
641.953	53.88
642.285	53.85
642.616	53.78
642.948	53.64
643.279	53.69
643.61	53.78
643.942	53.85
644.273	53.91
644.604	53.99
644.936	53.98
645.267	54.03
645.598	54.15
645.929	54.23
646.26	54.17
646.591	54.26
646.922	54.18
647.253	54.24
647.584	54.31
647.915	54.31
648.245	54.31
648.576	54.25
648.907	54.2
649.238	54.15
649.568	54.17
649.899	54.36
650.229	54.31
650.56	54.33
650.89	54.27
651.221	54.34
651.551	54.13
651.882	54.17
652.212	54.2
652.542	54.16
652.872	54.05
653.203	54.11
653.533	54.17
653.863	54.31
654.193	54.22
654.523	54.18
654.853	54.35
655.183	54.38
655.513	54.44
655.843	54.55
656.172	54.59
656.502	54.6
656.832	54.6
657.162	54.74
657.491	54.78
657.821	54.83
658.15	54.71
658.48	54.85
658.809	54.97
659.139	54.95
659.468	54.79
659.798	54.74
660.127	54.73
660.456	54.56
660.785	54.51
661.115	54.63
661.444	54.66
661.773	54.54
662.102	54.59
662.431	54.67
662.76	54.75
663.089	54.81
663.418	54.83
663.747	54.86
664.076	54.76
664.404	54.54
664.733	54.77
665.062	54.84
665.39	54.69
665.719	54.6
666.048	54.51
666.376	54.62
666.705	54.71
667.033	54.76
667.362	54.8
667.69	54.82
668.018	54.8
668.347	54.81
668.675	54.84
669.003	54.84
669.331	54.9
669.659	54.75
669.987	54.69
670.315	54.65
670.643	54.67
670.971	54.88
671.299	55.16
671.627	55.09
671.955	55.05
672.283	55.28
672.61	55.24
672.938	55.32
673.266	55.37
673.593	55.3
673.921	55.3
674.249	55.33
674.576	55.21
674.904	55.22
675.231	55.29
675.558	55.21
675.886	55.2
676.213	55.09
676.54	55.2
676.867	55.28
677.195	55.4
677.522	55.28
677.849	55.19
678.176	55.17
678.503	55.12
678.83	55.23
679.157	55.26
679.484	55.28
679.81	55.36
680.137	55.37
680.464	55.34
680.791	55.33
681.117	55.22
681.444	55.31
681.771	55.32
682.097	55.29
682.424	55.3
682.75	55.29
683.077	55.21
683.403	55.17
683.729	55.18
684.056	55.18
684.382	55.32
684.708	55.27
685.034	55.08
685.36	55.02
685.686	54.9
686.012	54.79
686.339	54.72
686.664	54.56
686.99	54.69
687.316	54.9
687.642	54.97
687.968	55.25
688.294	55.47
688.619	55.47
688.945	55.29
689.271	55.3
689.596	55.38
689.922	55.44
690.247	55.5
690.573	55.4
690.898	55.43
691.224	55.26
691.549	55.23
691.874	55.33
692.2	55.28
692.525	55.32
692.85	55.27
693.175	55.4
693.5	55.65
693.825	55.49
694.15	55.44
694.475	55.35
694.8	55.11
695.125	54.95
695.45	54.88
695.775	55.05
696.099	55.04
696.424	55
696.749	55
697.073	54.99
697.398	55.1
697.723	55.11
698.047	55.13
698.372	55.15
698.696	55.18
699.02	55.3
699.345	55.3
699.669	55.32
699.993	55.16
700.318	55
700.642	55.01
700.966	54.99
701.29	54.92
701.614	55.02
701.938	54.88
702.262	54.93
702.586	54.82
702.91	54.84
703.234	54.91
703.557	54.94
703.881	54.88
704.205	54.9
704.529	54.86
704.852	54.82
705.176	54.7
705.499	54.81
705.823	54.63
706.146	54.59
706.47	54.52
706.793	54.65
707.117	54.91
707.44	54.94
707.763	54.84
708.086	54.75
708.409	54.79
708.733	54.98
709.056	55.23
709.379	55.38
709.702	55.27
710.025	55.16
710.348	55.25
710.671	55.27
710.993	55.11
711.316	55.01
711.639	55.04
711.962	55.28
712.284	55.25
712.607	55.22
712.93	55.31
713.252	55.18
713.575	55.28
713.897	55.14
714.22	55.15
714.542	55.34
714.864	55.41
715.187	55.22
715.509	55.06
715.831	54.92
716.153	54.9
716.475	54.96
716.798	54.99
717.12	54.88
717.442	54.75
717.764	55.04
718.085	55.17
718.407	55.2
718.729	55.09
719.051	55.07
719.373	54.99
719.695	55.07
720.016	55.33
720.338	55.26
720.659	55.29
720.981	55.14
721.302	54.83
721.624	55
721.945	55.29
722.267	55.43
722.588	55.54
722.909	55.47
723.231	55.45
723.552	55.5
723.873	55.57
724.194	55.94
724.515	55.58
724.836	55.42
725.157	55.37
725.478	55.08
725.799	55
726.12	55.4
726.441	55.19
726.762	55.23
727.083	55.18
727.403	55.34
727.724	55.51
728.045	55.71
728.365	55.63
728.686	55.57
729.006	55.6
729.327	55.39
729.647	55.51
729.967	55.51
730.288	55.62
730.608	55.37
730.928	54.96
731.249	55.06
731.569	55.23
731.889	55.38
732.209	55.83
732.529	55.91
732.849	55.67
733.169	55.91
733.489	56.04
733.809	56.23
734.129	55.8
734.448	55.72
734.768	55.76
735.088	55.81
735.408	55.78
735.727	56.02
736.047	56.07
736.366	56.05
736.686	56.16
737.005	56.08
737.325	56.25
737.644	56.42
737.963	56.28
738.283	56.09
738.602	56.16
738.921	55.75
739.24	55.8
739.56	55.9
739.879	55.92
740.198	55.85
740.517	55.91
740.836	56.26
741.155	56.29
741.473	56.32
741.792	56.29
742.111	56.49
742.43	56.14
742.748	55.89
743.067	55.96
743.386	56.18
743.704	56.21
744.023	56.53
744.341	56.74
744.66	57.07
744.978	57.14
745.297	57.04
745.615	57.41
745.933	57.52
746.252	57.71
746.57	57.6
746.888	57.45
747.206	57.46
747.524	57.6
747.842	57.88
748.16	57.92
748.478	57.94
748.796	57.88
749.114	58.5
749.432	58.49
749.749	58.47
750.067	58.19
750.385	58.22
750.703	57.67
751.02	57.58
751.338	57.75
751.655	58.08
751.973	57.98
752.29	57.59
752.608	57.49
752.925	57.37
753.242	57.38
753.56	57.08
753.877	57
754.194	56.96
754.511	56.64
754.828	56.25
755.145	56.37
755.462	56.18
755.779	55.79
756.096	56.04
756.413	55.9
756.73	56.2
757.047	56
757.364	56.64
757.68	56.56
757.997	56.44
758.314	56.25
758.63	56.1
758.947	56.4
759.264	56.41
759.58	56.58
759.896	56.44
760.213	56.97
760.529	57.04
760.846	56.94
761.162	56.9
761.478	56.99
761.794	57.03
762.11	56.92
762.426	56.71
762.743	56.58
763.059	56.55
763.375	56.58
763.69	56.62
764.006	56.4
764.322	56.53
764.638	56.35
764.954	56.41
765.27	56.62
765.585	56.52
765.901	56.78
766.216	56.56
766.532	56.55
766.848	56.35
767.163	56.48
767.478	56.5
767.794	56.48
768.109	56.74
768.424	56.42
768.74	56.65
769.055	56.91
769.37	56.94
769.685	57.07
770	57.01
770.315	57.06
770.63	57.35
770.945	57.39
771.26	57.47
771.575	57.41
771.89	57.7
772.205	57.83
772.52	57.38
772.834	57.84
773.149	58.18
773.464	58.36
773.778	58.11
774.093	58.09
774.407	58.51
774.722	58.67
775.036	59.23
775.351	59.34
775.665	59.29
775.979	59.12
776.293	59.22
776.608	59.3
776.922	58.88
777.236	58.6
777.55	58.4
777.864	58.66
778.178	58.62
778.492	58.29
778.806	57.95
779.12	57.87
779.434	57.81
779.747	57.88
780.061	57.8
780.375	57.49
780.689	57.66
781.002	57.64
781.316	57.14
781.629	56.99
781.943	57.08
782.256	57.1
782.57	57.15
782.883	57.2
783.196	56.91
783.51	57.41
783.823	57.89
784.136	58.24
784.449	58.04
784.762	58.12
785.075	58.6
785.388	58.54
785.701	58.96
786.014	59.17
786.327	58.61
786.64	57.83
786.953	58.6
787.266	58.03
787.578	57.66
787.891	57.61
788.204	57.38
788.516	57.56
788.829	57.28
789.141	57.79
789.454	57.68
789.766	57.27
790.079	57.29
790.391	56.97
790.703	56.82
791.016	56.26
791.328	56.25
791.64	55.26
791.952	55.13
792.264	54.91
792.576	54.37
792.888	54.97
793.2	56.31
793.512	55.69
793.824	55.35
794.136	55.54
794.448	55.83
794.76	55.77
795.071	54.97
795.383	54.53
795.695	54.84
796.006	54.51
796.318	54.86
796.629	54.95
796.941	54.96
797.252	54.89
797.564	55.45
797.875	55.57
798.186	56.58
798.497	57.02
798.809	57.2
799.12	57.55
799.431	56.94
799.742	56.48
800.053	56.55
800.364	56.9
800.675	56.88
800.986	56.99
801.297	56.83
801.608	56.91
801.918	57.62
802.229	56.91
802.54	56.63
802.851	56.96
803.161	56.66
803.472	56.39
803.782	56.74
804.093	57.22
804.403	55.96
804.714	55.46
805.024	55.41
805.334	54.62
805.645	54.47
805.955	54.72
806.265	54.58
806.575	55.12
806.885	55.56
807.195	55.64
807.505	55.55
807.815	55.77
808.125	56.3
808.435	56.17
808.745	57.2
809.055	57.96
809.365	57.97
809.674	57.9
809.984	58.01
810.294	57.81
810.603	56.9
810.913	58.23
811.222	58.31
811.532	58.65
811.841	59.31
812.151	59.24
812.46	59.12
812.769	59.87
813.079	59.21
813.388	58.88
813.697	58.64
814.006	58.42
814.315	58.74
814.624	58.62
814.933	58.79
815.242	58.12
815.551	58.4
815.86	58.77
816.169	59.33
816.478	59.61
816.786	59.31
817.095	59.48
817.404	58.68
817.712	59.28
818.021	59.71
818.33	59.03
818.638	58.31
818.947	58.65
819.255	57.58
819.563	57.68
819.872	57.91
820.18	58.18
820.488	58.19
820.796	58.16
821.105	58.13
821.413	58.26
821.721	58.17
822.029	58.21
822.337	58.22
822.645	58.37
822.953	58.22
823.26	58.25
823.568	58.13
823.876	58.36
824.184	58.05
824.491	57.93
824.799	58.12
825.107	58.38
825.414	58.34
825.722	58.58
826.029	58.44
826.337	58.53
826.644	58.61
826.951	58.67
827.259	58.52
827.566	58.52
827.873	58.43
828.18	58.5
828.488	58.43
828.795	58.01
829.102	57.82
829.409	58.1
829.716	58.12
830.023	58.51
830.329	58.58
830.636	58.72
830.943	58.87
831.25	58.72
831.557	58.35
831.863	58.1
832.17	58.04
832.476	58.16
832.783	58.39
833.089	57.77
833.396	58.12
833.702	58.46
834.009	58.63
834.315	58.34
834.621	58.55
834.928	58.44
835.234	58.26
835.54	58.13
835.846	57.97
836.152	58.16
836.458	58.13
836.764	57.71
837.07	57.83
837.376	56.91
837.682	57
837.988	57.28
838.293	58.12
838.599	58.05
838.905	58.4
839.211	57.24
839.516	57.48
839.822	56.92
840.127	56.81
840.433	55.66
840.738	56.44
841.044	56.03
841.349	56.28
841.654	57.55
841.959	57.08
842.265	57.27
842.57	56.42
842.875	55.52
843.18	55.82
843.485	56.47
843.79	57.15
844.095	58.12
844.4	59.21
844.705	57.14
845.01	57.31
845.315	58.13
845.619	58.3
845.924	58.79
846.229	58.62
846.533	59.56
846.838	60.19
847.142	59.5
847.447	58.3
847.751	57.34
848.056	54.26
848.36	54.31
848.664	55.11
848.969	54.18
849.273	54.77
849.577	54.22
849.881	53.41
850.185	57.23
850.489	56.82
850.794	54.26
851.097	56.21
851.401	56
851.705	53.04
852.009	55.1
852.313	55.38
852.617	56.71
852.92	56.44
853.224	57.16
853.528	57.3
853.831	57.96
854.135	58.83
854.438	61.04
854.742	60.83
855.045	60.19
855.349	62.04
855.652	63.92
855.955	61.21
856.259	60.15
856.562	59.38
856.865	58.03
857.168	57.94
857.471	56.7
857.774	56.16
858.077	57.67
858.38	56.34
858.683	56
858.986	54.95
859.289	54.44
859.592	51.6
859.894	50.22
860.197	50.53
860.5	49.93
860.802	50.14
861.105	52.8
861.407	50.98
861.71	51.53
862.012	49.97
862.315	52.7
862.617	52.35
862.919	50.61
863.222	50.7
863.524	50.82
863.826	51.97
864.128	52.57
864.43	54.11
864.732	56.02
865.034	56.32
865.336	54.77
865.638	53.03
865.94	56.56
866.242	58.54
866.544	57.59
866.846	57.57
867.147	59.71
867.449	58.8
867.751	61.13
868.052	61.68
868.354	62.27
868.655	62.51
868.957	62.72
869.258	62.66
869.56	63.61
869.861	63.98
870.162	64.76
870.463	64.29
870.765	63.18
871.066	65.6
871.367	64.96
871.668	66.51
871.969	66.77
872.27	66.7
872.571	65.37
872.872	66.61
873.173	67.38
873.473	65.84
873.774	65.92
874.075	63.32
874.376	63.46
874.676	62
874.977	61.38
875.277	62.67
875.578	62.13
875.878	61.7
876.179	62.55
876.479	61.6
876.78	62.23
877.08	61.97
877.38	57.18
877.68	57.11
877.981	56.55
878.281	58.98
878.581	58.7
