Data from BU26842_Reflection_00009.txt Node
Date: Mon Nov 18 16:38:42 EST 2019
User: vgr7
Spectrometer: USB2G7710
Scans to average: 3
Trigger mode: 4
Integration Time (sec): 2.000000E-2
Electric dark correction enabled: true
Boxcar width: 10
XAxis mode: Wavelengths
Number of Pixels in Spectrum: 2048
>>>>>Begin Spectral Data<<<<<
177.721	-221.99
178.105	-143.79
178.488	-77.16
178.871	-57.08
179.254	-13.13
179.636	-153.41
180.019	-386.87
180.402	53.49
180.785	-143.96
181.168	-86.54
181.55	-159.97
181.933	558.18
182.316	-1182.76
182.698	-792.56
183.081	-176.92
183.463	47.19
183.846	27.15
184.228	-19.23
184.611	-40.76
184.993	-6.84
185.376	17.2
185.758	-56.31
186.14	376.15
186.522	505.14
186.904	800.51
187.287	9203.45
187.669	-197.61
188.051	-161.55
188.433	-157.95
188.815	-133.67
189.197	-195.36
189.579	-136.88
189.961	-149.89
190.342	-127.61
190.724	-115.41
191.106	-129.73
191.488	-149.39
191.869	-116.81
192.251	-128.81
192.633	-128.55
193.014	-136.21
193.396	-163.93
193.777	-111.8
194.159	-86.06
194.54	-82.1
194.922	-69.48
195.303	-68.3
195.684	-65.19
196.065	-46.44
196.447	-40.92
196.828	-59.49
197.209	-54.4
197.59	-66.88
197.971	-69.99
198.352	-71.34
198.733	-101.16
199.114	-74.47
199.495	-82.24
199.876	-93.12
200.257	-77.73
200.638	-78.65
201.018	-80.9
201.399	-66.92
201.78	-60.55
202.16	-89.66
202.541	-106.49
202.922	-182.06
203.302	-215.03
203.683	-260.26
204.063	-406.65
204.444	-322.03
204.824	-237.15
205.204	-167.88
205.585	-122.9
205.965	-106.52
206.345	-149.44
206.725	-146.68
207.106	-237.83
207.486	-274.79
207.866	-324.32
208.246	-287.89
208.626	-234.06
209.006	-167.12
209.386	-203.21
209.766	-221.78
210.145	-162.95
210.525	-145.17
210.905	-106.1
211.285	-79.81
211.664	-70.64
212.044	-65.6
212.424	-65.74
212.803	-51.23
213.183	-45.97
213.562	-41.82
213.942	-39.91
214.321	-11.35
214.701	-5.13
215.08	2.95
215.459	6.23
215.838	11.22
216.218	16.59
216.597	33.06
216.976	23.09
217.355	31.88
217.734	21.23
218.113	25.48
218.492	33.82
218.871	26.69
219.25	33.73
219.629	37.95
220.008	37.73
220.387	27.68
220.766	24.8
221.144	6.45
221.523	-2.51
221.902	-7.86
222.28	-14.3
222.659	-16.7
223.037	-14.18
223.416	-29.55
223.794	-24.75
224.173	-26.32
224.551	-28.61
224.929	-26.68
225.308	-29.64
225.686	-26.95
226.064	-24.92
226.442	-28.26
226.821	-19.05
227.199	-22.19
227.577	-23.09
227.955	-19.55
228.333	-15.94
228.711	-12.08
229.089	-6.15
229.467	-7.87
229.845	-7.19
230.222	-7.51
230.6	-9.1
230.978	-7.71
231.356	-3.37
231.733	-4.33
232.111	-3.19
232.488	-1.36
232.866	-2.35
233.243	-0.45
233.621	1.38
233.998	1.36
234.376	2.78
234.753	1.79
235.13	2.11
235.508	2.71
235.885	2.45
236.262	2.45
236.639	1.87
237.016	0.31
237.393	1.31
237.77	1.77
238.147	2.13
238.524	3.34
238.901	3.38
239.278	3.13
239.655	4.11
240.032	4.26
240.409	2.64
240.785	2.92
241.162	2.5
241.539	2.78
241.915	2.75
242.292	2.86
242.668	2.61
243.045	2.54
243.421	2.57
243.798	2.79
244.174	2.7
244.551	2.42
244.927	2.51
245.303	2.87
245.679	2.64
246.056	2.62
246.432	2.43
246.808	2.34
247.184	2.12
247.56	1.79
247.936	1.81
248.312	1.85
248.688	1.87
249.064	1.93
249.44	1.83
249.815	2.03
250.191	1.97
250.567	2.13
250.943	2.14
251.318	2.19
251.694	2.3
252.069	2.28
252.445	2.54
252.82	2.42
253.196	2.32
253.571	2.56
253.947	2.46
254.322	2.93
254.697	2.81
255.073	2.92
255.448	2.98
255.823	2.8
256.198	2.94
256.573	2.97
256.948	3.09
257.323	3.05
257.698	2.92
258.073	2.93
258.448	2.78
258.823	2.85
259.198	2.79
259.573	2.64
259.948	2.53
260.322	2.49
260.697	2.37
261.072	2.23
261.446	2.16
261.821	2.08
262.195	1.98
262.57	2.01
262.944	1.99
263.319	2.05
263.693	1.96
264.067	2.07
264.442	2.16
264.816	1.89
265.19	1.76
265.564	1.66
265.938	1.36
266.313	1.35
266.687	1.3
267.061	1.39
267.435	1.55
267.809	1.57
268.183	1.67
268.556	1.73
268.93	1.82
269.304	2.01
269.678	2.16
270.051	2.08
270.425	2.08
270.799	2.1
271.172	2.09
271.546	2.22
271.919	2.1
272.293	1.97
272.666	2.21
273.04	2.29
273.413	2.41
273.787	2.68
274.16	2.63
274.533	2.65
274.906	2.44
275.279	2.25
275.653	2.25
276.026	2.11
276.399	2.15
276.772	2.06
277.145	1.84
277.518	1.85
277.891	1.88
278.263	1.86
278.636	1.94
279.009	1.98
279.382	2.01
279.755	2.02
280.127	2.15
280.5	2.01
280.872	2.08
281.245	2.01
281.617	2.03
281.99	2.15
282.362	2.22
282.735	2.23
283.107	2.23
283.479	2.25
283.852	2.4
284.224	2.41
284.596	2.44
284.968	2.58
285.34	2.63
285.713	2.58
286.085	2.56
286.457	2.6
286.829	2.6
287.201	2.66
287.572	2.66
287.944	2.61
288.316	2.74
288.688	2.76
289.06	2.77
289.431	2.72
289.803	2.63
290.175	2.66
290.546	3
290.918	3.1
291.289	3.28
291.661	3.29
292.032	3.37
292.403	3.49
292.775	3.55
293.146	3.38
293.517	3.45
293.889	3.48
294.26	3.5
294.631	3.61
295.002	3.5
295.373	3.56
295.744	3.54
296.115	3.44
296.486	3.44
296.857	3.58
297.228	3.78
297.599	3.94
297.97	3.92
298.34	3.79
298.711	3.83
299.082	3.75
299.452	3.85
299.823	4
300.194	3.89
300.564	3.77
300.935	3.95
301.305	3.98
301.676	4.21
302.046	4.18
302.416	4.13
302.787	4.31
303.157	4.44
303.527	4.54
303.897	4.61
304.267	4.75
304.637	4.63
305.008	4.52
305.378	4.66
305.748	4.88
306.117	4.9
306.487	4.87
306.857	4.81
307.227	4.89
307.597	4.87
307.967	5.07
308.336	5.32
308.706	5.49
309.076	5.5
309.445	5.51
309.815	5.46
310.184	5.45
310.554	5.43
310.923	5.39
311.293	5.4
311.662	5.49
312.031	5.38
312.401	5.47
312.77	5.62
313.139	5.57
313.508	5.42
313.877	5.47
314.246	5.62
314.616	5.74
314.985	5.72
315.353	5.7
315.722	5.79
316.091	5.73
316.46	5.46
316.829	5.67
317.198	5.66
317.567	5.81
317.935	5.83
318.304	6.03
318.672	6.29
319.041	6.58
319.41	6.7
319.778	6.66
320.147	6.83
320.515	6.8
320.883	6.84
321.252	7.03
321.62	7.1
321.988	7.15
322.357	7.16
322.725	7.18
323.093	7.16
323.461	7.16
323.829	7.18
324.197	7.54
324.565	7.51
324.933	7.5
325.301	7.59
325.669	7.64
326.037	7.52
326.405	7.47
326.772	7.42
327.14	7.52
327.508	7.65
327.875	7.65
328.243	7.73
328.61	7.79
328.978	7.86
329.346	7.98
329.713	7.96
330.08	8.28
330.448	8.31
330.815	8.33
331.182	8.41
331.55	8.48
331.917	8.41
332.284	8.65
332.651	8.7
333.018	8.77
333.385	8.87
333.752	9.02
334.119	8.98
334.486	8.96
334.853	8.85
335.22	8.88
335.587	8.88
335.954	8.82
336.32	8.74
336.687	8.74
337.054	8.57
337.42	8.58
337.787	8.45
338.153	8.53
338.52	8.76
338.886	8.7
339.253	8.72
339.619	8.83
339.986	8.69
340.352	8.71
340.718	8.73
341.084	8.68
341.451	8.72
341.817	8.84
342.183	8.93
342.549	9
342.915	9.15
343.281	9.14
343.647	9.2
344.013	9.25
344.379	9.25
344.745	9.49
345.11	9.51
345.476	9.49
345.842	9.47
346.208	9.4
346.573	9.44
346.939	9.59
347.304	9.47
347.67	9.41
348.035	9.51
348.401	9.6
348.766	9.71
349.132	9.69
349.497	9.61
349.862	9.68
350.228	9.69
350.593	9.63
350.958	9.76
351.323	9.74
351.688	9.75
352.053	9.85
352.418	9.72
352.783	9.77
353.148	9.77
353.513	9.76
353.878	9.86
354.243	9.87
354.608	9.76
354.972	9.77
355.337	9.8
355.702	9.77
356.066	9.7
356.431	9.63
356.795	9.65
357.16	9.63
357.524	9.52
357.889	9.49
358.253	9.43
358.618	9.42
358.982	9.36
359.346	9.4
359.71	9.31
360.075	9.33
360.439	9.32
360.803	9.33
361.167	9.28
361.531	9.15
361.895	9.16
362.259	9.09
362.623	9.05
362.987	9.01
363.351	8.93
363.714	8.94
364.078	8.91
364.442	8.83
364.806	8.81
365.169	8.8
365.533	8.79
365.896	8.73
366.26	8.59
366.623	8.54
366.987	8.43
367.35	8.39
367.714	8.36
368.077	8.27
368.44	8.14
368.803	8.13
369.167	8.1
369.53	7.95
369.893	7.92
370.256	7.91
370.619	7.82
370.982	7.67
371.345	7.56
371.708	7.48
372.071	7.39
372.434	7.29
372.797	7.15
373.159	7.03
373.522	6.97
373.885	6.96
374.247	6.95
374.61	6.84
374.973	6.76
375.335	6.66
375.698	6.59
376.06	6.51
376.423	6.41
376.785	6.35
377.147	6.32
377.51	6.25
377.872	6.22
378.234	6.21
378.596	6.25
378.958	6.18
379.321	6.14
379.683	6.12
380.045	6.07
380.407	6.08
380.769	6.01
381.13	5.98
381.492	5.91
381.854	5.83
382.216	5.82
382.578	5.79
382.939	5.71
383.301	5.66
383.663	5.59
384.024	5.58
384.386	5.52
384.747	5.44
385.109	5.39
385.47	5.32
385.832	5.28
386.193	5.22
386.554	5.13
386.916	5.08
387.277	5.04
387.638	5
387.999	4.92
388.36	4.88
388.721	4.82
389.082	4.77
389.443	4.73
389.804	4.7
390.165	4.66
390.526	4.64
390.887	4.6
391.248	4.64
391.609	4.57
391.969	4.55
392.33	4.51
392.691	4.49
393.051	4.46
393.412	4.44
393.772	4.41
394.133	4.42
394.493	4.39
394.854	4.35
395.214	4.34
395.574	4.3
395.935	4.25
396.295	4.26
396.655	4.2
397.015	4.19
397.376	4.14
397.736	4.05
398.096	4.01
398.456	3.95
398.816	3.91
399.176	3.89
399.535	3.83
399.895	3.84
400.255	3.79
400.615	3.77
400.975	3.7
401.334	3.65
401.694	3.64
402.054	3.59
402.413	3.57
402.773	3.52
403.132	3.51
403.492	3.53
403.851	3.47
404.211	3.47
404.57	3.41
404.929	3.39
405.288	3.42
405.648	3.37
406.007	3.37
406.366	3.33
406.725	3.33
407.084	3.34
407.443	3.31
407.802	3.31
408.161	3.26
408.52	3.23
408.879	3.25
409.238	3.23
409.596	3.22
409.955	3.2
410.314	3.22
410.673	3.19
411.031	3.16
411.39	3.18
411.748	3.17
412.107	3.17
412.465	3.18
412.824	3.14
413.182	3.15
413.54	3.16
413.899	3.16
414.257	3.12
414.615	3.1
414.974	3.09
415.332	3.08
415.69	3.07
416.048	3.08
416.406	3.05
416.764	3.04
417.122	3.04
417.48	3.02
417.838	3.01
418.195	2.99
418.553	2.97
418.911	2.94
419.269	2.93
419.626	2.92
419.984	2.91
420.342	2.9
420.699	2.89
421.057	2.88
421.414	2.85
421.772	2.84
422.129	2.82
422.486	2.81
422.844	2.8
423.201	2.81
423.558	2.79
423.915	2.78
424.273	2.79
424.63	2.77
424.987	2.76
425.344	2.73
425.701	2.74
426.058	2.74
426.415	2.73
426.772	2.71
427.128	2.67
427.485	2.66
427.842	2.65
428.199	2.65
428.555	2.61
428.912	2.62
429.269	2.61
429.625	2.62
429.982	2.61
430.338	2.59
430.695	2.58
431.051	2.56
431.407	2.56
431.764	2.54
432.12	2.53
432.476	2.54
432.832	2.53
433.189	2.52
433.545	2.51
433.901	2.51
434.257	2.52
434.613	2.57
434.969	2.56
435.325	2.57
435.681	2.57
436.036	2.58
436.392	2.6
436.748	2.61
437.104	2.6
437.459	2.58
437.815	2.58
438.171	2.59
438.526	2.59
438.882	2.59
439.237	2.6
439.593	2.59
439.948	2.59
440.304	2.59
440.659	2.6
441.014	2.58
441.369	2.58
441.725	2.59
442.08	2.56
442.435	2.58
442.79	2.58
443.145	2.57
443.5	2.57
443.855	2.55
444.21	2.55
444.565	2.55
444.92	2.57
445.275	2.57
445.629	2.55
445.984	2.55
446.339	2.53
446.693	2.52
447.048	2.52
447.403	2.52
447.757	2.5
448.112	2.49
448.466	2.51
448.82	2.51
449.175	2.5
449.529	2.49
449.883	2.48
450.238	2.46
450.592	2.44
450.946	2.44
451.3	2.41
451.654	2.4
452.008	2.37
452.362	2.33
452.716	2.33
453.07	2.36
453.424	2.37
453.778	2.38
454.132	2.36
454.486	2.35
454.839	2.34
455.193	2.34
455.547	2.34
455.9	2.35
456.254	2.36
456.607	2.36
456.961	2.37
457.314	2.38
457.668	2.37
458.021	2.38
458.375	2.39
458.728	2.4
459.081	2.41
459.434	2.42
459.787	2.44
460.141	2.44
460.494	2.42
460.847	2.42
461.2	2.43
461.553	2.42
461.906	2.45
462.259	2.46
462.611	2.49
462.964	2.51
463.317	2.51
463.67	2.51
464.022	2.51
464.375	2.5
464.728	2.49
465.08	2.51
465.433	2.53
465.785	2.53
466.138	2.54
466.49	2.54
466.843	2.54
467.195	2.55
467.547	2.57
467.899	2.59
468.252	2.58
468.604	2.59
468.956	2.63
469.308	2.62
469.66	2.63
470.012	2.63
470.364	2.64
470.716	2.63
471.068	2.64
471.42	2.65
471.772	2.68
472.123	2.71
472.475	2.73
472.827	2.74
473.178	2.74
473.53	2.75
473.882	2.75
474.233	2.78
474.585	2.77
474.936	2.79
475.288	2.79
475.639	2.8
475.99	2.81
476.342	2.78
476.693	2.76
477.044	2.77
477.395	2.77
477.746	2.75
478.097	2.76
478.448	2.74
478.8	2.73
479.15	2.68
479.501	2.66
479.852	2.64
480.203	2.62
480.554	2.62
480.905	2.62
481.255	2.63
481.606	2.62
481.957	2.62
482.307	2.61
482.658	2.61
483.009	2.61
483.359	2.61
483.709	2.62
484.06	2.62
484.41	2.61
484.761	2.61
485.111	2.6
485.461	2.61
485.811	2.61
486.162	2.62
486.512	2.64
486.862	2.65
487.212	2.65
487.562	2.66
487.912	2.66
488.262	2.66
488.612	2.67
488.961	2.68
489.311	2.68
489.661	2.69
490.011	2.69
490.36	2.69
490.71	2.7
491.06	2.7
491.409	2.71
491.759	2.72
492.108	2.73
492.458	2.75
492.807	2.75
493.157	2.76
493.506	2.76
493.855	2.76
494.204	2.78
494.554	2.8
494.903	2.81
495.252	2.83
495.601	2.86
495.95	2.88
496.299	2.91
496.648	2.94
496.997	2.96
497.346	3.01
497.695	3.05
498.043	3.08
498.392	3.11
498.741	3.16
499.09	3.2
499.438	3.26
499.787	3.3
500.135	3.38
500.484	3.45
500.832	3.52
501.181	3.58
501.529	3.66
501.878	3.75
502.226	3.86
502.574	3.94
502.923	4
503.271	4.07
503.619	4.19
503.967	4.28
504.315	4.4
504.663	4.5
505.011	4.6
505.359	4.73
505.707	4.85
506.055	4.95
506.403	5.09
506.751	5.18
507.098	5.32
507.446	5.46
507.794	5.56
508.141	5.68
508.489	5.82
508.837	5.95
509.184	6.08
509.531	6.2
509.879	6.35
510.226	6.49
510.574	6.62
510.921	6.75
511.268	6.87
511.616	7.02
511.963	7.16
512.31	7.32
512.657	7.46
513.004	7.6
513.351	7.8
513.698	7.95
514.045	8.14
514.392	8.31
514.739	8.46
515.086	8.63
515.432	8.83
515.779	9.01
516.126	9.18
516.473	9.35
516.819	9.5
517.166	9.64
517.512	9.8
517.859	9.97
518.205	10.1
518.552	10.25
518.898	10.37
519.245	10.51
519.591	10.64
519.937	10.8
520.283	10.99
520.629	11.14
520.976	11.32
521.322	11.49
521.668	11.64
522.014	11.84
522.36	12.03
522.706	12.18
523.052	12.36
523.398	12.59
523.743	12.8
524.089	13.01
524.435	13.18
524.781	13.38
525.126	13.54
525.472	13.73
525.817	13.88
526.163	14.03
526.509	14.17
526.854	14.29
527.199	14.4
527.545	14.51
527.89	14.62
528.235	14.75
528.581	14.9
528.926	15.02
529.271	15.14
529.616	15.26
529.961	15.41
530.306	15.55
530.651	15.69
530.996	15.84
531.341	16
531.686	16.19
532.031	16.35
532.376	16.53
532.721	16.7
533.065	16.91
533.41	17.12
533.755	17.34
534.099	17.56
534.444	17.79
534.788	17.99
535.133	18.21
535.477	18.41
535.822	18.61
536.166	18.86
536.51	19.12
536.855	19.41
537.199	19.69
537.543	19.98
537.887	20.28
538.231	20.55
538.576	20.84
538.92	21.12
539.264	21.43
539.608	21.71
539.951	21.96
540.295	22.19
540.639	22.41
540.983	22.65
541.327	22.87
541.671	23.06
542.014	23.27
542.358	23.49
542.701	23.71
543.045	23.94
543.389	24.14
543.732	24.37
544.075	24.6
544.419	24.81
544.762	25.07
545.105	25.27
545.449	25.52
545.792	25.79
546.135	26.06
546.478	26.32
546.821	26.6
547.165	26.91
547.508	27.21
547.851	27.51
548.194	27.75
548.536	28.1
548.879	28.42
549.222	28.75
549.565	29.04
549.908	29.33
550.25	29.65
550.593	29.96
550.936	30.25
551.278	30.54
551.621	30.85
551.963	31.13
552.306	31.48
552.648	31.77
552.991	32.07
553.333	32.32
553.675	32.54
554.017	32.75
554.36	32.97
554.702	33.18
555.044	33.36
555.386	33.61
555.728	33.78
556.07	34.04
556.412	34.26
556.754	34.48
557.096	34.79
557.438	34.97
557.78	35.25
558.121	35.51
558.463	35.75
558.805	35.95
559.147	36.12
559.488	36.26
559.83	36.53
560.171	36.69
560.513	36.88
560.854	37.12
561.196	37.32
561.537	37.54
561.878	37.73
562.22	37.95
562.561	38.17
562.902	38.32
563.243	38.48
563.584	38.6
563.925	38.8
564.266	38.92
564.607	39.14
564.948	39.28
565.289	39.44
565.63	39.54
565.971	39.66
566.312	39.82
566.653	39.99
566.993	40.12
567.334	40.3
567.675	40.47
568.015	40.59
568.356	40.74
568.696	40.84
569.037	40.92
569.377	41.04
569.718	41.11
570.058	41.24
570.398	41.35
570.739	41.52
571.079	41.61
571.419	41.76
571.759	41.81
572.099	41.92
572.439	42.02
572.779	42.14
573.119	42.33
573.459	42.4
573.799	42.51
574.139	42.55
574.479	42.59
574.819	42.66
575.158	42.74
575.498	42.79
575.838	42.93
576.177	42.99
576.517	43.1
576.856	43.23
577.196	43.34
577.535	43.46
577.875	43.49
578.214	43.59
578.553	43.63
578.893	43.69
579.232	43.76
579.571	43.76
579.91	43.84
580.25	43.91
580.589	43.97
580.928	43.99
581.267	44.08
581.606	44.19
581.945	44.2
582.283	44.28
582.622	44.38
582.961	44.36
583.3	44.56
583.639	44.69
583.977	44.83
584.316	44.94
584.654	44.95
584.993	44.99
585.332	45.04
585.67	45.08
586.008	45.13
586.347	45.18
586.685	45.28
587.024	45.34
587.362	45.34
587.7	45.43
588.038	45.59
588.376	45.67
588.715	45.74
589.053	45.87
589.391	45.92
589.729	45.96
590.067	46.05
590.404	46.1
590.742	46.14
591.08	46.11
591.418	46.15
591.756	46.18
592.093	46.34
592.431	46.39
592.769	46.48
593.106	46.56
593.444	46.58
593.781	46.6
594.119	46.65
594.456	46.71
594.793	46.74
595.131	46.69
595.468	46.68
595.805	46.71
596.143	46.72
596.48	46.78
596.817	46.82
597.154	46.86
597.491	46.86
597.828	46.84
598.165	46.89
598.502	46.91
598.839	46.98
599.176	47
599.512	46.96
599.849	46.97
600.186	46.96
600.523	47.01
600.859	47.04
601.196	47.12
601.532	47.18
601.869	47.14
602.205	47.22
602.542	47.25
602.878	47.27
603.215	47.28
603.551	47.33
603.887	47.37
604.223	47.38
604.56	47.38
604.896	47.4
605.232	47.47
605.568	47.44
605.904	47.42
606.24	47.48
606.576	47.54
606.912	47.58
607.248	47.62
607.583	47.66
607.919	47.77
608.255	47.71
608.591	47.73
608.926	47.81
609.262	47.88
609.597	47.91
609.933	47.87
610.268	47.93
610.604	47.92
610.939	47.9
611.275	47.93
611.61	47.96
611.945	47.99
612.281	47.94
612.616	48.05
612.951	48.16
613.286	48.15
613.621	48.17
613.956	48.15
614.291	48.14
614.626	48.1
614.961	48.04
615.296	48.08
615.631	48.02
615.966	48.07
616.3	48
616.635	47.92
616.97	48.05
617.304	47.92
617.639	47.93
617.973	48
618.308	48.04
618.642	48.05
618.977	48
619.311	47.95
619.646	47.96
619.98	47.99
620.314	47.92
620.648	47.97
620.983	48
621.317	48.1
621.651	48.2
621.985	48.23
622.319	48.24
622.653	48.31
622.987	48.37
623.321	48.44
623.655	48.52
623.988	48.48
624.322	48.52
624.656	48.54
624.99	48.49
625.323	48.48
625.657	48.47
625.99	48.55
626.324	48.58
626.657	48.56
626.991	48.51
627.324	48.52
627.658	48.54
627.991	48.57
628.324	48.54
628.657	48.5
628.991	48.56
629.324	48.66
629.657	48.63
629.99	48.56
630.323	48.6
630.656	48.66
630.989	48.75
631.322	48.8
631.655	48.8
631.987	48.91
632.32	48.89
632.653	48.91
632.986	48.92
633.318	48.96
633.651	48.96
633.984	48.96
634.316	48.91
634.649	48.9
634.981	48.89
635.313	48.88
635.646	48.85
635.978	48.82
636.31	48.73
636.643	48.78
636.975	48.84
637.307	48.77
637.639	48.72
637.971	48.57
638.303	48.56
638.635	48.65
638.967	48.61
639.299	48.62
639.631	48.57
639.963	48.61
640.295	48.61
640.626	48.67
640.958	48.75
641.29	48.92
641.621	48.96
641.953	48.94
642.285	49.01
642.616	49.09
642.948	49.09
643.279	49.05
643.61	49.09
643.942	49.07
644.273	49.11
644.604	49.21
644.936	49.33
645.267	49.46
645.598	49.33
645.929	49.3
646.26	49.39
646.591	49.52
646.922	49.4
647.253	49.51
647.584	49.46
647.915	49.39
648.245	49.38
648.576	49.34
648.907	49.45
649.238	49.36
649.568	49.35
649.899	49.33
650.229	49.33
650.56	49.34
650.89	49.33
651.221	49.23
651.551	49.13
651.882	49.18
652.212	49.12
652.542	49.13
652.872	49.18
653.203	49.07
653.533	49.05
653.863	49.13
654.193	49.04
654.523	49.11
654.853	49.13
655.183	49.06
655.513	49.11
655.843	49.07
656.172	49.22
656.502	49.34
656.832	49.39
657.162	49.5
657.491	49.5
657.821	49.56
658.15	49.6
658.48	49.61
658.809	49.54
659.139	49.59
659.468	49.66
659.798	49.54
660.127	49.62
660.456	49.61
660.785	49.62
661.115	49.67
661.444	49.69
661.773	49.67
662.102	49.81
662.431	49.78
662.76	49.7
663.089	49.56
663.418	49.39
663.747	49.3
664.076	49.24
664.404	49.14
664.733	49.07
665.062	49.15
665.39	49.14
665.719	49.23
666.048	49.17
666.376	49.27
666.705	49.43
667.033	49.5
667.362	49.52
667.69	49.59
668.018	49.43
668.347	49.37
668.675	49.43
669.003	49.37
669.331	49.45
669.659	49.54
669.987	49.57
670.315	49.53
670.643	49.67
670.971	49.64
671.299	49.71
671.627	49.67
671.955	49.66
672.283	49.71
672.61	49.62
672.938	49.68
673.266	49.59
673.593	49.69
673.921	49.5
674.249	49.49
674.576	49.44
674.904	49.58
675.231	49.71
675.558	49.7
675.886	49.65
676.213	49.67
676.54	49.69
676.867	49.79
677.195	49.91
677.522	49.81
677.849	49.83
678.176	49.8
678.503	49.92
678.83	49.94
679.157	49.91
679.484	49.81
679.81	49.8
680.137	49.74
680.464	49.61
680.791	49.78
681.117	49.73
681.444	49.6
681.771	49.62
682.097	49.5
682.424	49.54
682.75	49.46
683.077	49.51
683.403	49.48
683.729	49.52
684.056	49.57
684.382	49.5
684.708	49.61
685.034	49.67
685.36	49.69
685.686	49.57
686.012	49.61
686.339	49.81
686.664	49.77
686.99	49.84
687.316	49.86
687.642	49.71
687.968	49.67
688.294	49.89
688.619	49.86
688.945	49.99
689.271	49.93
689.596	49.96
689.922	49.84
690.247	49.91
690.573	49.81
690.898	49.6
691.224	49.69
691.549	49.57
691.874	49.51
692.2	49.21
692.525	49.29
692.85	49.25
693.175	49.1
693.5	49.02
693.825	48.88
694.15	48.98
694.475	49.14
694.8	49.16
695.125	49.11
695.45	49
695.775	49.14
696.099	49.17
696.424	49.25
696.749	49.23
697.073	49.16
697.398	49.19
697.723	49.31
698.047	49.33
698.372	49.31
698.696	49.41
699.02	49.55
699.345	49.56
699.669	49.57
699.993	49.63
700.318	49.7
700.642	49.79
700.966	49.74
701.29	49.65
701.614	49.73
701.938	49.88
702.262	50.01
702.586	49.9
702.91	49.87
703.234	49.95
703.557	50
703.881	50.1
704.205	50.08
704.529	50
704.852	50.05
705.176	50.11
705.499	49.89
705.823	49.94
706.146	49.97
706.47	50.03
706.793	49.95
707.117	49.84
707.44	49.79
707.763	49.85
708.086	50
708.409	50.04
708.733	49.79
709.056	49.86
709.379	49.93
709.702	49.78
710.025	49.55
710.348	49.46
710.671	49.28
710.993	49.29
711.316	49.42
711.639	49.4
711.962	49.44
712.284	49.49
712.607	49.45
712.93	49.38
713.252	49.19
713.575	49.31
713.897	49.33
714.22	49.35
714.542	49.33
714.864	49.21
715.187	49.22
715.509	49.18
715.831	49
716.153	48.93
716.475	49.15
716.798	49.39
717.12	49.58
717.442	49.67
717.764	49.68
718.085	49.59
718.407	49.65
718.729	49.61
719.051	49.56
719.373	49.42
719.695	49.54
720.016	49.75
720.338	49.72
720.659	49.86
720.981	49.94
721.302	49.88
721.624	50.07
721.945	49.96
722.267	49.92
722.588	50.15
722.909	49.93
723.231	49.62
723.552	49.29
723.873	49.07
724.194	49.32
724.515	49.26
724.836	49.19
725.157	49.2
725.478	48.86
725.799	49.26
726.12	49.37
726.441	49.19
726.762	49.23
727.083	49.32
727.403	49.27
727.724	49.51
728.045	49.39
728.365	49.22
728.686	49.18
729.006	49.33
729.327	49.32
729.647	49.41
729.967	49.58
730.288	49.81
730.608	49.84
730.928	49.68
731.249	49.79
731.569	50.11
731.889	50.06
732.209	50.35
732.529	50.17
732.849	50.24
733.169	50.47
733.489	50.48
733.809	50.44
734.129	50.38
734.448	50.01
734.768	50.15
735.088	50.1
735.408	50.09
735.727	49.92
736.047	49.87
736.366	50.03
736.686	49.9
737.005	49.89
737.325	49.76
737.644	49.83
737.963	49.55
738.283	49.18
738.602	49.08
738.921	49.03
739.24	49.17
739.56	49.39
739.879	49.32
740.198	49.18
740.517	49.15
740.836	49.22
741.155	49.41
741.473	49.67
741.792	49.77
742.111	49.99
742.43	50.36
742.748	50.35
743.067	50.28
743.386	50.58
743.704	50.79
744.023	51.14
744.341	50.94
744.66	51.35
744.978	51.66
745.297	51.74
745.615	51.97
745.933	51.79
746.252	51.52
746.57	51.42
746.888	51.28
747.206	51.35
747.524	51.29
747.842	51.23
748.16	51.15
748.478	50.94
748.796	50.86
749.114	50.95
749.432	50.75
749.749	50.25
750.067	50.08
750.385	49.73
750.703	49.75
751.02	50.1
751.338	49.84
751.655	49.72
751.973	49.88
752.29	49.58
752.608	49.39
752.925	49.14
753.242	49.07
753.56	49.09
753.877	49.11
754.194	49.33
754.511	49.33
754.828	49.07
755.145	49.38
755.462	49.27
755.779	48.98
756.096	48.85
756.413	49.27
756.73	49.16
757.047	49.11
757.364	48.98
757.68	48.67
757.997	48.66
758.314	48.68
758.63	48.33
758.947	48.4
759.264	48.57
759.58	48.85
759.896	48.83
760.213	49.04
760.529	48.93
760.846	48.64
761.162	48.91
761.478	48.81
761.794	48.73
762.11	48.9
762.426	48.96
762.743	49.09
763.059	48.85
763.375	49.06
763.69	49.21
764.006	49.04
764.322	49.08
764.638	49.13
764.954	49.1
765.27	49.29
765.585	49.26
765.901	49.11
766.216	48.97
766.532	48.98
766.848	48.82
767.163	48.81
767.478	48.93
767.794	48.57
768.109	48.6
768.424	48.53
768.74	48.56
769.055	48.55
769.37	48.28
769.685	48.53
770	48.39
770.315	48.37
770.63	48.27
770.945	48.38
771.26	48.53
771.575	48.57
771.89	48.12
772.205	48.53
772.52	48.65
772.834	48.83
773.149	48.89
773.464	49.1
773.778	49
774.093	49.08
774.407	48.84
774.722	49.15
775.036	49.32
775.351	49.01
775.665	48.61
775.979	48.87
776.293	48.69
776.608	48.52
776.922	48.44
777.236	48.42
777.55	48.47
777.864	48.16
778.178	47.96
778.492	48.14
778.806	48.03
779.12	48.5
779.434	48.59
779.747	48.71
780.061	48.26
780.375	48.19
780.689	47.92
781.002	48.41
781.316	48.24
781.629	48.19
781.943	48.52
782.256	48.62
782.57	48.5
782.883	48.64
783.196	48.9
783.51	48.96
783.823	49.41
784.136	49.18
784.449	49.16
784.762	49.02
785.075	49.19
785.388	49.24
785.701	48.95
786.014	48.72
786.327	48.6
786.64	49.38
786.953	49.96
787.266	49.64
787.578	49.47
787.891	49.11
788.204	49.24
788.516	48.94
788.829	49.27
789.141	49.88
789.454	50.24
789.766	50.32
790.079	50.47
790.391	50.33
790.703	50.45
791.016	50.69
791.328	50.73
791.64	50.78
791.952	50.23
792.264	50.14
792.576	49.9
792.888	50.11
793.2	49.98
793.512	50.08
793.824	50.79
794.136	51.17
794.448	51.89
794.76	51.63
795.071	51.54
795.383	51.29
795.695	50.83
796.006	50.68
796.318	50.36
796.629	50.4
796.941	50.27
797.252	49.83
797.564	50.03
797.875	50.72
798.186	50.71
798.497	51.38
798.809	50.94
799.12	50.97
799.431	50.71
799.742	50.58
800.053	50.07
800.364	49.66
800.675	49.44
800.986	49.16
801.297	48.93
801.608	49.25
801.918	48.98
802.229	48.7
802.54	48.43
802.851	48.48
803.161	48.77
803.472	48.99
803.782	49.45
804.093	48.8
804.403	47.81
804.714	48.24
805.024	47.49
805.334	47.36
805.645	47.15
805.955	47.52
806.265	47.05
806.575	47.13
806.885	47.55
807.195	47.43
807.505	47.89
807.815	47.68
808.125	47.76
808.435	48.01
808.745	48.39
809.055	48.73
809.365	48.31
809.674	47.57
809.984	47.33
810.294	46.79
810.603	47.35
810.913	48.23
811.222	47.61
811.532	48
811.841	48.56
812.151	49.31
812.46	48.55
812.769	48.72
813.079	48.38
813.388	48.08
813.697	48.75
814.006	47.56
814.315	48.13
814.624	47.37
814.933	47.71
815.242	47.76
815.551	47.33
815.86	48.09
816.169	48.22
816.478	48.07
816.786	49.1
817.095	48.66
817.404	48.82
817.712	49.5
818.021	49.7
818.33	49.52
818.638	49.5
818.947	49.47
819.255	49.8
819.563	49.69
819.872	49.69
820.18	49.73
820.488	50.22
820.796	50.46
821.105	50.47
821.413	50.45
821.721	50.42
822.029	50.51
822.337	50.33
822.645	50.31
822.953	50.68
823.26	50.59
823.568	50.59
823.876	50.51
824.184	50.19
824.491	50.07
824.799	50.18
825.107	49.88
825.414	50
825.722	49.93
826.029	50.29
826.337	50.21
826.644	50.04
826.951	49.85
827.259	49.8
827.566	49.86
827.873	49.68
828.18	49.67
828.488	49.71
828.795	49.66
829.102	49.61
829.409	49.24
829.716	48.96
830.023	49.22
830.329	49.03
830.636	49.51
830.943	49.74
831.25	49.92
831.557	50.24
831.863	50.57
832.17	50.38
832.476	50.12
832.783	50.29
833.089	50.53
833.396	51.25
833.702	50.96
834.009	50.75
834.315	51.31
834.621	50.96
834.928	51.04
835.234	51.22
835.54	51.31
835.846	51.26
836.152	51.53
836.458	51.43
836.764	51.21
837.07	51.24
837.376	50.96
837.682	50.83
837.988	51.4
838.293	51.21
838.599	51.84
838.905	51.17
839.211	51.84
839.516	51.73
839.822	50.96
840.127	51.67
840.433	52.1
840.738	52.38
841.044	52.64
841.349	52.44
841.654	52.92
841.959	52.07
842.265	51.85
842.57	51.87
842.875	50.44
843.18	50.24
843.485	50.17
843.79	50.2
844.095	49.37
844.4	48.74
844.705	46.75
845.01	45.51
845.315	46.85
845.619	45.12
845.924	44.11
846.229	45.15
846.533	43.45
846.838	41.9
847.142	39.49
847.447	38.49
847.751	38.06
848.056	38.1
848.36	38.63
848.664	38.2
848.969	36.82
849.273	37.77
849.577	38.02
849.881	36.9
850.185	36.96
850.489	38.97
850.794	38.16
851.097	40.35
851.401	40.57
851.705	38.06
852.009	39.6
852.313	40.18
852.617	37.39
852.92	39.87
853.224	41.65
853.528	43.59
853.831	43.43
854.135	41.55
854.438	40.13
854.742	40.17
855.045	40.09
855.349	40.25
855.652	41.59
855.955	44.61
856.259	46.6
856.562	46.47
856.865	44.47
857.168	46.47
857.471	46.58
857.774	46.99
858.077	48.22
858.38	48.71
858.683	48.86
858.986	48.17
859.289	45.14
859.592	44.92
859.894	45.13
860.197	46.81
860.5	47.97
860.802	48.76
861.105	50.06
861.407	49.08
861.71	49.83
862.012	49.55
862.315	46.87
862.617	44.05
862.919	43.4
863.222	42.38
863.524	42.54
863.826	42.04
864.128	42.02
864.43	40.15
864.732	40.14
865.034	39.56
865.336	40.23
865.638	41.81
865.94	40.64
866.242	39.37
866.544	39.79
866.846	39.73
867.147	40.16
867.449	37.45
867.751	37.87
868.052	38.92
868.354	39.04
868.655	38.09
868.957	38.6
869.258	40.03
869.56	43.89
869.861	42.58
870.162	42.98
870.463	44.34
870.765	46.55
871.066	46.06
871.367	46.74
871.668	49.2
871.969	47.67
872.27	47.9
872.571	47.23
872.872	48.7
873.173	47.24
873.473	46.67
873.774	50.73
874.075	50.94
874.376	49.97
874.676	48.25
874.977	49.39
875.277	50.02
875.578	50.81
875.878	47.84
876.179	48.31
876.479	48.52
876.78	47.44
877.08	47.09
877.38	45.75
877.68	46.35
877.981	43.56
878.281	45.07
878.581	46.67
