Data from BU26843_Reflection_00008.txt Node
Date: Mon Nov 18 16:31:09 EST 2019
User: vgr7
Spectrometer: USB2G7710
Scans to average: 3
Trigger mode: 4
Integration Time (sec): 2.000000E-2
Electric dark correction enabled: true
Boxcar width: 10
XAxis mode: Wavelengths
Number of Pixels in Spectrum: 2048
>>>>>Begin Spectral Data<<<<<
177.721	87.44
178.105	275.44
178.488	-243.36
178.871	-71.09
179.254	8.91
179.636	-74.48
180.019	47.42
180.402	110.34
180.785	22.01
181.168	-118.55
181.55	-140.92
181.933	72.28
182.316	65.08
182.698	68.62
183.081	139.61
183.463	195.71
183.846	153.14
184.228	-39.16
184.611	-142.67
184.993	586.59
185.376	384.12
185.758	213.02
186.14	206.12
186.522	214.25
186.904	143.55
187.287	64.67
187.669	48.97
188.051	-8.99
188.433	10.13
188.815	24.63
189.197	-21.43
189.579	-5.63
189.961	20.89
190.342	25.23
190.724	39.42
191.106	37.01
191.488	28.02
191.869	19.89
192.251	1.96
192.633	-0.9
193.014	-5.97
193.396	-7.55
193.777	6.19
194.159	-21.6
194.54	-15.03
194.922	-1.66
195.303	58.19
195.684	51.78
196.065	83.49
196.447	116.42
196.828	83.47
197.209	89.57
197.59	92.89
197.971	35.43
198.352	21.04
198.733	8.24
199.114	57.95
199.495	42.85
199.876	35.04
200.257	74.69
200.638	55.14
201.018	24.43
201.399	20.79
201.78	-2.18
202.16	24.48
202.541	20.96
202.922	-6.56
203.302	-58.75
203.683	-76.25
204.063	-90
204.444	-92.02
204.824	-105.95
205.204	-86.37
205.585	-127.53
205.965	-148.63
206.345	-191.8
206.725	-249.74
207.106	-476.68
207.486	-412.29
207.866	-289.5
208.246	-246.45
208.626	-149.88
209.006	-100.8
209.386	-110.51
209.766	-124.51
210.145	-89.5
210.525	-79.86
210.905	-61.36
211.285	-40.5
211.664	-33.3
212.044	-37.34
212.424	-27.57
212.803	-27.37
213.183	-31.27
213.562	-20.5
213.942	-21.01
214.321	-17.93
214.701	-8.84
215.08	-2.75
215.459	8.33
215.838	8.96
216.218	10.13
216.597	8.58
216.976	11.12
217.355	15.85
217.734	14.97
218.113	23.05
218.492	31.23
218.871	28.91
219.25	36.44
219.629	43.51
220.008	36.56
220.387	34.5
220.766	46.03
221.144	56.02
221.523	50.85
221.902	53.97
222.28	52.51
222.659	57.23
223.037	42.01
223.416	33.86
223.794	33.04
224.173	36.36
224.551	33.39
224.929	33.72
225.308	18.55
225.686	24.06
226.064	14.15
226.442	11.44
226.821	14.32
227.199	12.62
227.577	12.14
227.955	13.96
228.333	14.06
228.711	11.32
229.089	12.85
229.467	13.8
229.845	15.92
230.222	14.88
230.6	10.7
230.978	13.39
231.356	13.87
231.733	13.52
232.111	10.76
232.488	9.99
232.866	9.44
233.243	11.85
233.621	9.6
233.998	10.25
234.376	7.69
234.753	6.99
235.13	7.83
235.508	8.86
235.885	10.84
236.262	10.14
236.639	9.34
237.016	8.33
237.393	8.83
237.77	9.38
238.147	8.48
238.524	8.72
238.901	8.11
239.278	8.12
239.655	8.68
240.032	8.94
240.409	8.34
240.785	7.36
241.162	7.24
241.539	8.31
241.915	8.15
242.292	8.02
242.668	7.49
243.045	7.12
243.421	6.72
243.798	6.06
244.174	5.98
244.551	6.01
244.927	5.89
245.303	5.89
245.679	5.79
246.056	5.79
246.432	5.88
246.808	5.89
247.184	5.7
247.56	5.54
247.936	5.56
248.312	5.83
248.688	6.11
249.064	6.05
249.44	5.62
249.815	5.6
250.191	6.02
250.567	6.23
250.943	6.34
251.318	6.49
251.694	6.49
252.069	6.55
252.445	6.72
252.82	6.77
253.196	6.77
253.571	6.76
253.947	7.05
254.322	7.22
254.697	7.08
255.073	7.08
255.448	6.69
255.823	6.77
256.198	6.54
256.573	6.57
256.948	6.42
257.323	6.45
257.698	6.62
258.073	6.49
258.448	6.26
258.823	6.1
259.198	5.81
259.573	5.74
259.948	5.67
260.322	5.74
260.697	5.8
261.072	5.76
261.446	5.66
261.821	5.62
262.195	5.57
262.57	5.48
262.944	5.58
263.319	5.67
263.693	5.46
264.067	5.33
264.442	5.46
264.816	5.55
265.19	5.42
265.564	5.24
265.938	5.06
266.313	5.4
266.687	5.49
267.061	5.88
267.435	5.9
267.809	5.91
268.183	5.79
268.556	5.65
268.93	5.65
269.304	5.77
269.678	5.83
270.051	5.74
270.425	5.85
270.799	5.89
271.172	5.96
271.546	6.06
271.919	6.12
272.293	5.97
272.666	6.01
273.04	6.09
273.413	6.15
273.787	6.33
274.16	6
274.533	5.9
274.906	5.72
275.279	5.86
275.653	5.83
276.026	5.69
276.399	5.69
276.772	5.83
277.145	5.71
277.518	5.63
277.891	5.62
278.263	5.69
278.636	5.7
279.009	5.74
279.382	5.82
279.755	5.83
280.127	5.98
280.5	5.89
280.872	5.91
281.245	5.96
281.617	5.83
281.99	6.03
282.362	6.18
282.735	5.95
283.107	5.82
283.479	5.85
283.852	6.01
284.224	6.02
284.596	5.89
284.968	5.91
285.34	5.96
285.713	5.92
286.085	5.91
286.457	5.95
286.829	5.9
287.201	5.95
287.572	6.03
287.944	5.88
288.316	5.94
288.688	5.95
289.06	5.93
289.431	5.93
289.803	5.88
290.175	5.8
290.546	6.12
290.918	6.26
291.289	6.33
291.661	6.34
292.032	6.46
292.403	6.69
292.775	6.86
293.146	6.78
293.517	7.01
293.889	7.13
294.26	7
294.631	7.09
295.002	7.11
295.373	7.21
295.744	7.38
296.115	7.32
296.486	7.32
296.857	7.4
297.228	7.59
297.599	7.64
297.97	7.63
298.34	7.71
298.711	7.77
299.082	7.83
299.452	8.01
299.823	8.16
300.194	8.11
300.564	8.17
300.935	8.45
301.305	8.39
301.676	8.45
302.046	8.63
302.416	8.85
302.787	8.85
303.157	8.78
303.527	8.74
303.897	9.04
304.267	9.29
304.637	9.29
305.008	9.39
305.378	9.67
305.748	10.08
306.117	10.08
306.487	10.15
306.857	10.23
307.227	10.24
307.597	10.2
307.967	10.44
308.336	10.52
308.706	10.48
309.076	10.76
309.445	10.82
309.815	10.85
310.184	10.77
310.554	10.8
310.923	10.86
311.293	11
311.662	10.95
312.031	10.97
312.401	11.12
312.77	11.19
313.139	11.24
313.508	11.14
313.877	11.23
314.246	11.31
314.616	11.44
314.985	11.55
315.353	11.67
315.722	11.67
316.091	11.65
316.46	11.81
316.829	11.84
317.198	11.97
317.567	12.1
317.935	12.04
318.304	12.27
318.672	12.54
319.041	12.63
319.41	12.86
319.778	12.79
320.147	12.88
320.515	12.96
320.883	12.89
321.252	12.92
321.62	13.05
321.988	13.23
322.357	13.33
322.725	13.41
323.093	13.65
323.461	13.73
323.829	13.96
324.197	14.01
324.565	14.14
324.933	14.13
325.301	14.28
325.669	14.6
326.037	14.72
326.405	14.74
326.772	14.89
327.14	14.95
327.508	15.2
327.875	15.25
328.243	15.37
328.61	15.49
328.978	15.64
329.346	15.76
329.713	15.75
330.08	15.87
330.448	15.83
330.815	15.77
331.182	15.94
331.55	15.86
331.917	16.02
332.284	16.09
332.651	16.16
333.018	16.07
333.385	16.17
333.752	16.24
334.119	16.23
334.486	16.09
334.853	16.14
335.22	16.15
335.587	16.22
335.954	16.1
336.32	16.21
336.687	16.33
337.054	16.39
337.42	16.35
337.787	16.23
338.153	16.36
338.52	16.41
338.886	16.36
339.253	16.56
339.619	16.57
339.986	16.55
340.352	16.71
340.718	16.89
341.084	16.78
341.451	16.8
341.817	16.86
342.183	16.97
342.549	17.03
342.915	16.99
343.281	17.05
343.647	17.08
344.013	17.11
344.379	17.01
344.745	17.1
345.11	17.1
345.476	17.23
345.842	17.28
346.208	17.33
346.573	17.43
346.939	17.47
347.304	17.51
347.67	17.57
348.035	17.56
348.401	17.53
348.766	17.56
349.132	17.58
349.497	17.59
349.862	17.78
350.228	17.78
350.593	17.81
350.958	17.87
351.323	18
351.688	17.98
352.053	18.14
352.418	18.1
352.783	18.25
353.148	18.22
353.513	18.1
353.878	18.14
354.243	18.07
354.608	18.03
354.972	17.98
355.337	17.91
355.702	17.97
356.066	18.06
356.431	18.09
356.795	18.14
357.16	18.18
357.524	18.05
357.889	18.08
358.253	18.13
358.618	18.06
358.982	17.96
359.346	17.89
359.71	17.79
360.075	17.81
360.439	17.83
360.803	17.79
361.167	17.8
361.531	17.75
361.895	17.72
362.259	17.71
362.623	17.71
362.987	17.69
363.351	17.65
363.714	17.62
364.078	17.64
364.442	17.54
364.806	17.43
365.169	17.35
365.533	17.28
365.896	17.19
366.26	17.1
366.623	17.04
366.987	17.07
367.35	17.04
367.714	16.93
368.077	16.86
368.44	16.9
368.803	16.88
369.167	16.79
369.53	16.7
369.893	16.65
370.256	16.58
370.619	16.49
370.982	16.38
371.345	16.16
371.708	16.11
372.071	15.99
372.434	15.9
372.797	15.91
373.159	15.84
373.522	15.8
373.885	15.82
374.247	15.72
374.61	15.65
374.973	15.54
375.335	15.46
375.698	15.28
376.06	15.09
376.423	14.98
376.785	14.91
377.147	14.89
377.51	14.76
377.872	14.65
378.234	14.62
378.596	14.54
378.958	14.46
379.321	14.29
379.683	14.26
380.045	14.22
380.407	14.1
380.769	14.01
381.13	13.94
381.492	13.78
381.854	13.72
382.216	13.58
382.578	13.52
382.939	13.39
383.301	13.35
383.663	13.28
384.024	13.25
384.386	13.18
384.747	13.15
385.109	13.11
385.47	13.02
385.832	12.95
386.193	12.85
386.554	12.86
386.916	12.82
387.277	12.75
387.638	12.74
387.999	12.67
388.36	12.67
388.721	12.57
389.082	12.56
389.443	12.49
389.804	12.45
390.165	12.41
390.526	12.37
390.887	12.33
391.248	12.31
391.609	12.24
391.969	12.26
392.33	12.15
392.691	12.07
393.051	12.03
393.412	11.99
393.772	11.96
394.133	11.92
394.493	11.83
394.854	11.75
395.214	11.66
395.574	11.59
395.935	11.44
396.295	11.38
396.655	11.28
397.015	11.25
397.376	11.18
397.736	11.11
398.096	11.09
398.456	11.01
398.816	10.92
399.176	10.81
399.535	10.66
399.895	10.59
400.255	10.53
400.615	10.48
400.975	10.38
401.334	10.27
401.694	10.17
402.054	10.15
402.413	10.12
402.773	10.05
403.132	9.99
403.492	9.95
403.851	9.89
404.211	9.86
404.57	9.79
404.929	9.77
405.288	9.75
405.648	9.64
406.007	9.6
406.366	9.56
406.725	9.58
407.084	9.54
407.443	9.53
407.802	9.5
408.161	9.47
408.52	9.43
408.879	9.41
409.238	9.39
409.596	9.36
409.955	9.31
410.314	9.3
410.673	9.3
411.031	9.27
411.39	9.26
411.748	9.23
412.107	9.2
412.465	9.13
412.824	9.07
413.182	9.06
413.54	9.03
413.899	9
414.257	8.96
414.615	8.92
414.974	8.86
415.332	8.82
415.69	8.76
416.048	8.72
416.406	8.68
416.764	8.63
417.122	8.59
417.48	8.55
417.838	8.52
418.195	8.48
418.553	8.44
418.911	8.4
419.269	8.37
419.626	8.36
419.984	8.32
420.342	8.3
420.699	8.28
421.057	8.25
421.414	8.2
421.772	8.15
422.129	8.12
422.486	8.08
422.844	8.05
423.201	8.02
423.558	8
423.915	7.98
424.273	7.97
424.63	7.94
424.987	7.91
425.344	7.89
425.701	7.84
426.058	7.81
426.415	7.8
426.772	7.76
427.128	7.72
427.485	7.7
427.842	7.65
428.199	7.63
428.555	7.61
428.912	7.61
429.269	7.59
429.625	7.58
429.982	7.55
430.338	7.53
430.695	7.52
431.051	7.49
431.407	7.48
431.764	7.44
432.12	7.4
432.476	7.4
432.832	7.37
433.189	7.39
433.545	7.36
433.901	7.34
434.257	7.33
434.613	7.33
434.969	7.34
435.325	7.37
435.681	7.36
436.036	7.36
436.392	7.37
436.748	7.36
437.104	7.36
437.459	7.37
437.815	7.37
438.171	7.36
438.526	7.39
438.882	7.4
439.237	7.41
439.593	7.43
439.948	7.44
440.304	7.45
440.659	7.44
441.014	7.46
441.369	7.46
441.725	7.45
442.08	7.43
442.435	7.42
442.79	7.41
443.145	7.4
443.5	7.38
443.855	7.37
444.21	7.37
444.565	7.36
444.92	7.36
445.275	7.35
445.629	7.34
445.984	7.34
446.339	7.31
446.693	7.29
447.048	7.26
447.403	7.23
447.757	7.2
448.112	7.18
448.466	7.17
448.82	7.17
449.175	7.16
449.529	7.14
449.883	7.11
450.238	7.07
450.592	7.04
450.946	7.03
451.3	7
451.654	6.97
452.008	6.96
452.362	6.93
452.716	6.91
453.07	6.87
453.424	6.83
453.778	6.82
454.132	6.8
454.486	6.8
454.839	6.8
455.193	6.8
455.547	6.76
455.9	6.74
456.254	6.72
456.607	6.72
456.961	6.73
457.314	6.74
457.668	6.74
458.021	6.75
458.375	6.74
458.728	6.75
459.081	6.76
459.434	6.73
459.787	6.73
460.141	6.75
460.494	6.78
460.847	6.82
461.2	6.83
461.553	6.84
461.906	6.85
462.259	6.88
462.611	6.9
462.964	6.96
463.317	7
463.67	7.04
464.022	7.07
464.375	7.09
464.728	7.12
465.08	7.17
465.433	7.2
465.785	7.24
466.138	7.25
466.49	7.29
466.843	7.34
467.195	7.38
467.547	7.43
467.899	7.46
468.252	7.47
468.604	7.5
468.956	7.53
469.308	7.55
469.66	7.57
470.012	7.59
470.364	7.63
470.716	7.65
471.068	7.68
471.42	7.72
471.772	7.76
472.123	7.8
472.475	7.81
472.827	7.85
473.178	7.88
473.53	7.92
473.882	7.94
474.233	7.97
474.585	7.99
474.936	8
475.288	7.98
475.639	8.01
475.99	8.01
476.342	8.03
476.693	8.04
477.044	8.03
477.395	8.04
477.746	8.01
478.097	7.99
478.448	7.98
478.8	7.93
479.15	7.88
479.501	7.88
479.852	7.85
480.203	7.83
480.554	7.8
480.905	7.8
481.255	7.78
481.606	7.77
481.957	7.76
482.307	7.73
482.658	7.71
483.009	7.69
483.359	7.67
483.709	7.67
484.06	7.65
484.41	7.65
484.761	7.63
485.111	7.62
485.461	7.61
485.811	7.59
486.162	7.59
486.512	7.6
486.862	7.57
487.212	7.57
487.562	7.56
487.912	7.56
488.262	7.54
488.612	7.53
488.961	7.51
489.311	7.5
489.661	7.52
490.011	7.54
490.36	7.53
490.71	7.53
491.06	7.52
491.409	7.54
491.759	7.55
492.108	7.59
492.458	7.61
492.807	7.62
493.157	7.64
493.506	7.68
493.855	7.7
494.204	7.74
494.554	7.77
494.903	7.82
495.252	7.85
495.601	7.92
495.95	8
496.299	8.07
496.648	8.13
496.997	8.18
497.346	8.26
497.695	8.36
498.043	8.48
498.392	8.57
498.741	8.66
499.09	8.74
499.438	8.82
499.787	8.91
500.135	9.08
500.484	9.22
500.832	9.33
501.181	9.46
501.529	9.6
501.878	9.75
502.226	9.87
502.574	10.03
502.923	10.19
503.271	10.34
503.619	10.54
503.967	10.71
504.315	10.89
504.663	11.07
505.011	11.24
505.359	11.41
505.707	11.61
506.055	11.79
506.403	11.98
506.751	12.18
507.098	12.37
507.446	12.56
507.794	12.72
508.141	12.92
508.489	13.12
508.837	13.34
509.184	13.57
509.531	13.79
509.879	13.98
510.226	14.18
510.574	14.38
510.921	14.57
511.268	14.77
511.616	14.97
511.963	15.18
512.31	15.42
512.657	15.64
513.004	15.83
513.351	16.09
513.698	16.35
514.045	16.58
514.392	16.84
514.739	17.07
515.086	17.35
515.432	17.58
515.779	17.81
516.126	18.04
516.473	18.27
516.819	18.47
517.166	18.65
517.512	18.85
517.859	19.03
518.205	19.21
518.552	19.4
518.898	19.62
519.245	19.78
519.591	19.94
519.937	20.13
520.283	20.32
520.629	20.5
520.976	20.69
521.322	20.88
521.668	21.09
522.014	21.32
522.36	21.53
522.706	21.79
523.052	22.06
523.398	22.29
523.743	22.58
524.089	22.84
524.435	23.13
524.781	23.39
525.126	23.62
525.472	23.85
525.817	24.05
526.163	24.22
526.509	24.38
526.854	24.53
527.199	24.67
527.545	24.81
527.89	24.98
528.235	25.14
528.581	25.31
528.926	25.47
529.271	25.62
529.616	25.77
529.961	25.91
530.306	26.07
530.651	26.26
530.996	26.42
531.341	26.64
531.686	26.81
532.031	26.98
532.376	27.19
532.721	27.4
533.065	27.6
533.41	27.8
533.755	28.05
534.099	28.3
534.444	28.56
534.788	28.81
535.133	29.01
535.477	29.25
535.822	29.51
536.166	29.79
536.51	30.08
536.855	30.41
537.199	30.77
537.543	31.09
537.887	31.41
538.231	31.7
538.576	31.99
538.92	32.33
539.264	32.65
539.608	32.94
539.951	33.2
540.295	33.45
540.639	33.7
540.983	33.92
541.327	34.15
541.671	34.36
542.014	34.59
542.358	34.82
542.701	35.05
543.045	35.26
543.389	35.43
543.732	35.66
544.075	35.86
544.419	36.06
544.762	36.29
545.105	36.53
545.449	36.82
545.792	37.09
546.135	37.36
546.478	37.64
546.821	37.93
547.165	38.25
547.508	38.55
547.851	38.93
548.194	39.26
548.536	39.62
548.879	39.93
549.222	40.23
549.565	40.5
549.908	40.79
550.25	41.14
550.593	41.47
550.936	41.78
551.278	42.05
551.621	42.3
551.963	42.56
552.306	42.84
552.648	43.11
552.991	43.32
553.333	43.6
553.675	43.83
554.017	44.06
554.36	44.24
554.702	44.47
555.044	44.62
555.386	44.91
555.728	45.08
556.07	45.31
556.412	45.55
556.754	45.81
557.096	46.03
557.438	46.22
557.78	46.4
558.121	46.65
558.463	46.85
558.805	47.14
559.147	47.33
559.488	47.49
559.83	47.71
560.171	47.88
560.513	48.06
560.854	48.19
561.196	48.36
561.537	48.49
561.878	48.68
562.22	48.82
562.561	48.94
562.902	49.09
563.243	49.23
563.584	49.33
563.925	49.48
564.266	49.59
564.607	49.73
564.948	49.88
565.289	50
565.63	50.19
565.971	50.26
566.312	50.41
566.653	50.53
566.993	50.64
567.334	50.79
567.675	50.91
568.015	51.03
568.356	51.12
568.696	51.31
569.037	51.46
569.377	51.57
569.718	51.72
570.058	51.82
570.398	52
570.739	52.12
571.079	52.19
571.419	52.34
571.759	52.43
572.099	52.49
572.439	52.56
572.779	52.62
573.119	52.71
573.459	52.87
573.799	52.99
574.139	53.06
574.479	53.07
574.819	53.14
575.158	53.24
575.498	53.35
575.838	53.39
576.177	53.47
576.517	53.51
576.856	53.55
577.196	53.66
577.535	53.68
577.875	53.78
578.214	53.96
578.553	53.95
578.893	54.06
579.232	54.25
579.571	54.32
579.91	54.41
580.25	54.47
580.589	54.47
580.928	54.44
581.267	54.52
581.606	54.68
581.945	54.75
582.283	54.8
582.622	54.87
582.961	54.96
583.3	55.01
583.639	55.15
583.977	55.14
584.316	55.26
584.654	55.41
584.993	55.49
585.332	55.45
585.67	55.58
586.008	55.6
586.347	55.61
586.685	55.67
587.024	55.78
587.362	55.87
587.7	55.91
588.038	56.09
588.376	56.07
588.715	56.19
589.053	56.15
589.391	56.22
589.729	56.29
590.067	56.33
590.404	56.33
590.742	56.41
591.08	56.46
591.418	56.42
591.756	56.35
592.093	56.35
592.431	56.44
592.769	56.53
593.106	56.53
593.444	56.55
593.781	56.59
594.119	56.64
594.456	56.69
594.793	56.77
595.131	56.78
595.468	56.81
595.805	56.8
596.143	56.9
596.48	56.89
596.817	56.99
597.154	57.04
597.491	57.13
597.828	57.14
598.165	57.23
598.502	57.28
598.839	57.47
599.176	57.58
599.512	57.57
599.849	57.57
600.186	57.73
600.523	57.72
600.859	57.73
601.196	57.64
601.532	57.67
601.869	57.7
602.205	57.77
602.542	57.79
602.878	57.78
603.215	57.79
603.551	57.83
603.887	57.81
604.223	57.8
604.56	57.84
604.896	57.83
605.232	57.83
605.568	57.86
605.904	57.79
606.24	57.74
606.576	57.83
606.912	57.81
607.248	57.73
607.583	57.85
607.919	57.88
608.255	57.98
608.591	58.01
608.926	57.98
609.262	57.96
609.597	58.04
609.933	58.09
610.268	58.13
610.604	58.2
610.939	58.2
611.275	58.2
611.61	58.19
611.945	58.25
612.281	58.29
612.616	58.38
612.951	58.38
613.286	58.45
613.621	58.52
613.956	58.63
614.291	58.67
614.626	58.64
614.961	58.71
615.296	58.72
615.631	58.75
615.966	58.67
616.3	58.7
616.635	58.79
616.97	58.81
617.304	58.76
617.639	58.76
617.973	58.78
618.308	58.79
618.642	58.86
618.977	58.91
619.311	58.96
619.646	58.93
619.98	58.92
620.314	58.81
620.648	58.72
620.983	58.82
621.317	58.97
621.651	58.97
621.985	59.03
622.319	59.16
622.653	59.22
622.987	59.33
623.321	59.36
623.655	59.41
623.988	59.48
624.322	59.54
624.656	59.58
624.99	59.59
625.323	59.65
625.657	59.64
625.99	59.61
626.324	59.51
626.657	59.53
626.991	59.6
627.324	59.74
627.658	59.78
627.991	59.78
628.324	59.73
628.657	59.75
628.991	59.7
629.324	59.7
629.657	59.65
629.99	59.58
630.323	59.57
630.656	59.45
630.989	59.49
631.322	59.53
631.655	59.47
631.987	59.47
632.32	59.46
632.653	59.45
632.986	59.52
633.318	59.65
633.651	59.7
633.984	59.69
634.316	59.65
634.649	59.55
634.981	59.48
635.313	59.42
635.646	59.54
635.978	59.57
636.31	59.51
636.643	59.56
636.975	59.79
637.307	59.76
637.639	59.91
637.971	59.92
638.303	59.91
638.635	59.9
638.967	59.87
639.299	59.95
639.631	59.86
639.963	59.79
640.295	59.75
640.626	59.74
640.958	59.79
641.29	59.93
641.621	60.01
641.953	59.94
642.285	60.08
642.616	59.98
642.948	60.18
643.279	60.2
643.61	60.18
643.942	60.12
644.273	60.19
644.604	60.05
644.936	59.95
645.267	59.96
645.598	60.11
645.929	60.25
646.26	60.27
646.591	60.41
646.922	60.48
647.253	60.48
647.584	60.34
647.915	60.28
648.245	60.12
648.576	60.17
648.907	60.29
649.238	60.23
649.568	60.28
649.899	60.08
650.229	60.08
650.56	60.11
650.89	60.1
651.221	60.08
651.551	60.14
651.882	60.25
652.212	60.25
652.542	60.23
652.872	60.19
653.203	60.11
653.533	60.13
653.863	60.08
654.193	60.04
654.523	60.25
654.853	60.33
655.183	60.38
655.513	60.28
655.843	60.21
656.172	60.25
656.502	60.36
656.832	60.36
657.162	60.44
657.491	60.45
657.821	60.54
658.15	60.51
658.48	60.63
658.809	60.53
659.139	60.64
659.468	60.65
659.798	60.66
660.127	60.7
660.456	60.58
660.785	60.57
661.115	60.59
661.444	60.52
661.773	60.57
662.102	60.74
662.431	60.89
662.76	61.03
663.089	60.94
663.418	60.85
663.747	60.92
664.076	60.87
664.404	60.93
664.733	60.97
665.062	60.98
665.39	60.77
665.719	60.86
666.048	60.84
666.376	60.74
666.705	60.73
667.033	60.66
667.362	60.89
667.69	61.03
668.018	61.11
668.347	61.15
668.675	61.08
669.003	61.01
669.331	60.85
669.659	60.86
669.987	60.92
670.315	60.93
670.643	60.82
670.971	60.83
671.299	60.7
671.627	60.7
671.955	60.76
672.283	60.9
672.61	60.79
672.938	60.74
673.266	60.92
673.593	60.9
673.921	60.99
674.249	60.87
674.576	60.78
674.904	60.83
675.231	60.66
675.558	60.71
675.886	60.57
676.213	60.74
676.54	60.79
676.867	60.82
677.195	60.79
677.522	60.87
677.849	60.89
678.176	60.93
678.503	60.87
678.83	60.93
679.157	60.91
679.484	60.97
679.81	60.92
680.137	60.83
680.464	60.81
680.791	60.73
681.117	60.73
681.444	60.82
681.771	60.79
682.097	60.77
682.424	60.72
682.75	60.77
683.077	60.77
683.403	60.65
683.729	60.65
684.056	60.54
684.382	60.56
684.708	60.59
685.034	60.69
685.36	60.68
685.686	60.53
686.012	60.54
686.339	60.67
686.664	60.78
686.99	60.7
687.316	60.79
687.642	60.99
687.968	60.99
688.294	60.89
688.619	60.89
688.945	60.94
689.271	61.14
689.596	61.26
689.922	61.24
690.247	61.2
690.573	61.24
690.898	61.49
691.224	61.39
691.549	61.41
691.874	61.24
692.2	61.08
692.525	61.13
692.85	61.14
693.175	61.1
693.5	60.84
693.825	60.99
694.15	61.01
694.475	60.98
694.8	60.95
695.125	61.06
695.45	61.14
695.775	61.22
696.099	60.98
696.424	60.98
696.749	61.18
697.073	61.2
697.398	61.19
697.723	61.21
698.047	61.26
698.372	61.22
698.696	61.32
699.02	61.44
699.345	61.51
699.669	61.51
699.993	61.36
700.318	61.57
700.642	61.69
700.966	61.66
701.29	61.43
701.614	61.43
701.938	61.42
702.262	61.22
702.586	61.18
702.91	61.1
703.234	61.03
703.557	60.89
703.881	60.76
704.205	60.68
704.529	60.69
704.852	60.69
705.176	60.74
705.499	60.73
705.823	60.65
706.146	60.54
706.47	60.44
706.793	60.63
707.117	60.65
707.44	60.4
707.763	60.38
708.086	60.52
708.409	60.58
708.733	60.42
709.056	60.63
709.379	60.63
709.702	60.76
710.025	60.75
710.348	60.62
710.671	60.76
710.993	60.76
711.316	60.59
711.639	60.54
711.962	60.5
712.284	60.53
712.607	60.64
712.93	60.78
713.252	60.84
713.575	60.67
713.897	60.59
714.22	60.61
714.542	60.62
714.864	60.73
715.187	60.72
715.509	60.71
715.831	60.82
716.153	60.76
716.475	60.79
716.798	60.87
717.12	60.98
717.442	61.05
717.764	61.02
718.085	60.97
718.407	60.99
718.729	61.08
719.051	60.89
719.373	60.85
719.695	60.8
720.016	61.04
720.338	61.32
720.659	61.4
720.981	61.43
721.302	61.55
721.624	61.56
721.945	61.66
722.267	61.86
722.588	61.76
722.909	62.02
723.231	61.93
723.552	61.71
723.873	61.64
724.194	61.49
724.515	61.81
724.836	62.08
725.157	62.06
725.478	61.75
725.799	61.59
726.12	61.78
726.441	61.83
726.762	61.5
727.083	61.54
727.403	61.52
727.724	61.8
728.045	61.73
728.365	61.58
728.686	61.41
729.006	61.39
729.327	61.43
729.647	61.6
729.967	61.63
730.288	61.79
730.608	61.76
730.928	61.89
731.249	61.66
731.569	61.73
731.889	62.01
732.209	62.09
732.529	62.35
732.849	62.13
733.169	62.22
733.489	62.3
733.809	62.18
734.129	62.17
734.448	61.93
734.768	61.86
735.088	61.98
735.408	62.23
735.727	62.12
736.047	62.28
736.366	61.97
736.686	61.85
737.005	61.83
737.325	61.93
737.644	61.79
737.963	61.73
738.283	61.52
738.602	61.45
738.921	61.8
739.24	61.67
739.56	61.62
739.879	61.43
740.198	61.46
740.517	61.38
740.836	61.55
741.155	61.39
741.473	61.51
741.792	61.39
742.111	61.41
742.43	61.43
742.748	61.16
743.067	61.13
743.386	61.4
743.704	61.4
744.023	61.32
744.341	61.52
744.66	61.51
744.978	61.44
745.297	61.37
745.615	61.05
745.933	61.17
746.252	61.34
746.57	61.44
746.888	61.64
747.206	61.38
747.524	61.41
747.842	61.59
748.16	61.7
748.478	61.68
748.796	61.61
749.114	61.99
749.432	61.77
749.749	61.83
750.067	61.75
750.385	61.72
750.703	61.6
751.02	61.74
751.338	61.74
751.655	61.49
751.973	61.52
752.29	61.83
752.608	62
752.925	61.66
753.242	61.72
753.56	61.07
753.877	61.45
754.194	61.3
754.511	61.28
754.828	61.12
755.145	61.16
755.462	61.03
755.779	60.58
756.096	61.07
756.413	61.23
756.73	61.17
757.047	61
757.364	61
757.68	60.71
757.997	60.76
758.314	61.09
758.63	61.11
758.947	60.82
759.264	60.85
759.58	61.48
759.896	61.46
760.213	61.82
760.529	61.62
760.846	61.41
761.162	61.65
761.478	61.51
761.794	61.78
762.11	61.57
762.426	61.66
762.743	61.74
763.059	61.66
763.375	61.88
763.69	62.02
764.006	62.18
764.322	62.22
764.638	62.28
764.954	62.34
765.27	62.08
765.585	61.99
765.901	61.89
766.216	61.53
766.532	61.43
766.848	61.46
767.163	61.48
767.478	61.54
767.794	61.37
768.109	61.54
768.424	61.26
768.74	61.75
769.055	61.63
769.37	61.77
769.685	61.87
770	61.62
770.315	61.76
770.63	61.76
770.945	61.72
771.26	61.76
771.575	61.79
771.89	62.24
772.205	62.27
772.52	62.22
772.834	62.44
773.149	62.48
773.464	62.69
773.778	63.17
774.093	63.22
774.407	63.05
774.722	62.82
775.036	62.96
775.351	62.73
775.665	62.94
775.979	61.99
776.293	61.82
776.608	62.17
776.922	62.34
777.236	62.2
777.55	62.23
777.864	62.21
778.178	62.05
778.492	61.86
778.806	61.89
779.12	61.52
779.434	61.42
779.747	61.46
780.061	61.02
780.375	60.82
780.689	60.85
781.002	60.89
781.316	61
781.629	61.14
781.943	61.1
782.256	61.08
782.57	61.49
782.883	61.88
783.196	61.35
783.51	61.25
783.823	61.24
784.136	61.12
784.449	60.8
784.762	60.8
785.075	60.79
785.388	60.94
785.701	61.1
786.014	61.14
786.327	61.15
786.64	61.43
786.953	61.29
787.266	61.24
787.578	61.87
787.891	61.59
788.204	61.39
788.516	61.45
788.829	60.89
789.141	60.82
789.454	60.76
789.766	61.13
790.079	60.65
790.391	60.96
790.703	61.06
791.016	61.19
791.328	61.44
791.64	61.4
791.952	61.51
792.264	61.82
792.576	61.67
792.888	61.84
793.2	61.7
793.512	61.81
793.824	61.72
794.136	61.34
794.448	62.23
794.76	61.89
795.071	61.75
795.383	62.23
795.695	62.39
796.006	62.38
796.318	62.81
796.629	62.87
796.941	62.41
797.252	62.37
797.564	62.52
797.875	62.38
798.186	62.63
798.497	62.59
798.809	61.99
799.12	62.42
799.431	62.16
799.742	62.27
800.053	62.5
800.364	62.83
800.675	63.06
800.986	62.58
801.297	63.21
801.608	63.5
801.918	63.59
802.229	63.66
802.54	63.24
802.851	62.48
803.161	62.73
803.472	63.33
803.782	63.45
804.093	63.78
804.403	63.63
804.714	63.92
805.024	64.19
805.334	64.69
805.645	64.11
805.955	64.34
806.265	64.01
806.575	64.3
806.885	63.61
807.195	63.12
807.505	62.97
807.815	62.56
808.125	62.14
808.435	62.29
808.745	61.85
809.055	61.84
809.365	62.05
809.674	62.43
809.984	62.09
810.294	62.2
810.603	62.38
810.913	62.18
811.222	61.38
811.532	61.09
811.841	61.23
812.151	62.18
812.46	61.66
812.769	61.97
813.079	61.47
813.388	62.14
813.697	62.43
814.006	62.71
814.315	63.4
814.624	63.62
814.933	64.24
815.242	64.9
815.551	64.77
815.86	64.47
816.169	63.61
816.478	63.31
816.786	63
817.095	62.57
817.404	63.48
817.712	63.79
818.021	63.9
818.33	63.57
818.638	62.87
818.947	63.02
819.255	62.56
819.563	62.42
819.872	62.02
820.18	62.23
820.488	62.13
820.796	62.14
821.105	61.95
821.413	61.68
821.721	61.42
822.029	61.44
822.337	61.62
822.645	61.43
822.953	61.93
823.26	61.9
823.568	61.98
823.876	61.81
824.184	61.82
824.491	61.74
824.799	61.81
825.107	61.65
825.414	61.74
825.722	62.16
826.029	62.14
826.337	62.35
826.644	62.38
826.951	62.4
827.259	62.29
827.566	62.38
827.873	62.47
828.18	62.83
828.488	63.23
828.795	63.09
829.102	63.64
829.409	63.27
829.716	63.5
830.023	63.48
830.329	63.38
830.636	63.88
830.943	64.05
831.25	64.31
831.557	64.71
831.863	65.02
832.17	64.53
832.476	65.06
832.783	65.35
833.089	64.99
833.396	64.8
833.702	65.08
834.009	65.11
834.315	65.51
834.621	65.2
834.928	64.53
835.234	64.87
835.54	65.14
835.846	64.81
836.152	64.85
836.458	64.58
836.764	65.05
837.07	64.39
837.376	64.08
837.682	63.97
837.988	64.51
838.293	64.22
838.599	64.49
838.905	64.42
839.211	64.22
839.516	64.82
839.822	65.28
840.127	64.69
840.433	64.97
840.738	64.8
841.044	65.24
841.349	66.48
841.654	67.26
841.959	66.83
842.265	66.89
842.57	67.69
842.875	68.92
843.18	69.85
843.485	68.9
843.79	69.17
844.095	68.78
844.4	68.75
844.705	68.17
845.01	67.43
845.315	66.59
845.619	66.86
845.924	66.4
846.229	66.58
846.533	67.47
846.838	68.64
847.142	67.69
847.447	67.09
847.751	66.36
848.056	64.91
848.36	64.27
848.664	65.06
848.969	64.92
849.273	63.75
849.577	63.28
849.881	63.95
850.185	65.15
850.489	67.16
850.794	65.79
851.097	66.19
851.401	67.75
851.705	67.53
852.009	68.41
852.313	69.3
852.617	70.11
852.92	71.94
853.224	69.82
853.528	71.26
853.831	71.04
854.135	70.8
854.438	71.06
854.742	71.17
855.045	68.79
855.349	66.74
855.652	68.22
855.955	67.49
856.259	69.99
856.562	71.1
856.865	70.44
857.168	70.77
857.471	72.32
857.774	72.75
858.077	74.52
858.38	73.86
858.683	70.47
858.986	71.8
859.289	68.35
859.592	69.29
859.894	67.61
860.197	68.27
860.5	66.66
860.802	64.29
861.105	66.89
861.407	68.6
861.71	68.47
862.012	67.07
862.315	66.24
862.617	64.42
862.919	61.92
863.222	61.32
863.524	61.26
863.826	60.25
864.128	59.68
864.43	59.28
864.732	58.95
865.034	61.08
865.336	61.64
865.638	63.9
865.94	64.27
866.242	64.13
866.544	62.89
866.846	66.39
867.147	68.39
867.449	68.36
867.751	68.24
868.052	70.39
868.354	67.97
868.655	70.16
868.957	70.57
869.258	72.06
869.56	72.87
869.861	74.84
870.162	73.47
870.463	73.69
870.765	73.32
871.066	74.03
871.367	74.19
871.668	70.04
871.969	69.14
872.27	69.22
872.571	71.9
872.872	74.62
873.173	72
873.473	72.16
873.774	68.49
874.075	71.27
874.376	70.85
874.676	72.84
874.977	71.46
875.277	73.95
875.578	73.93
875.878	73.59
876.179	72.24
876.479	73.39
876.78	72.36
877.08	72.65
877.38	70.33
877.68	71.04
877.981	73.44
878.281	73.7
878.581	74.37
