Data from BU26849_Reflection_00007.txt Node
Date: Mon Nov 18 16:43:15 EST 2019
User: vgr7
Spectrometer: USB2G7710
Scans to average: 3
Trigger mode: 4
Integration Time (sec): 2.000000E-2
Electric dark correction enabled: true
Boxcar width: 10
XAxis mode: Wavelengths
Number of Pixels in Spectrum: 2048
>>>>>Begin Spectral Data<<<<<
177.721	29.52
178.105	50.22
178.488	45.81
178.871	28.09
179.254	24.85
179.636	34.64
180.019	57.47
180.402	109.68
180.785	135.38
181.168	852.43
181.55	443.35
181.933	97.54
182.316	132.21
182.698	127.32
183.081	134.12
183.463	133.46
183.846	116.02
184.228	131.33
184.611	162.62
184.993	310.14
185.376	440.29
185.758	273.76
186.14	225.87
186.522	425.89
186.904	253.02
187.287	174.49
187.669	1003.23
188.051	-2750.39
188.433	-551.8
188.815	-180.36
189.197	-168.17
189.579	-138.44
189.961	-100.67
190.342	-71.7
190.724	-40.49
191.106	-39.25
191.488	-30.88
191.869	-25.87
192.251	-50.67
192.633	-44.61
193.014	-46.73
193.396	-52.37
193.777	-54.02
194.159	-60.98
194.54	-56.38
194.922	-51.78
195.303	-53.85
195.684	-32.16
196.065	-17.33
196.447	-14.76
196.828	-21.81
197.209	-17.76
197.59	-21.23
197.971	-21.82
198.352	-10.9
198.733	-13.77
199.114	-3.08
199.495	-11.65
199.876	-13.22
200.257	3.05
200.638	-0.46
201.018	-6.17
201.399	-6.81
201.78	-6.3
202.16	-1.93
202.541	-6.4
202.922	-13.12
203.302	-22.58
203.683	-24.06
204.063	-30.25
204.444	-32.12
204.824	-23.72
205.204	-17.75
205.585	-20.65
205.965	-28
206.345	-40.04
206.725	-46.84
207.106	-78.54
207.486	-62.95
207.866	-44.99
208.246	-64.88
208.626	-71.12
209.006	-67.01
209.386	-101.34
209.766	-77.82
210.145	-94.07
210.525	-85.36
210.905	-79.15
211.285	-51.81
211.664	-51.88
212.044	-31.41
212.424	-13.39
212.803	-28.31
213.183	-33.03
213.562	-35.9
213.942	-8.76
214.321	-8.47
214.701	-12.81
215.08	0.14
215.459	8.46
215.838	0.43
216.218	-0.77
216.597	16.36
216.976	19.7
217.355	29.29
217.734	19.59
218.113	49.64
218.492	29.27
218.871	34.17
219.25	34.4
219.629	31.61
220.008	16.86
220.387	10.02
220.766	12.82
221.144	-0.3
221.523	-0.89
221.902	-9.46
222.28	-10.38
222.659	-12.84
223.037	-16.8
223.416	-19.14
223.794	-28.13
224.173	-23.05
224.551	-24.19
224.929	-23.62
225.308	-22.72
225.686	-22.72
226.064	-26.73
226.442	-18.07
226.821	-17.76
227.199	-19.45
227.577	-18.84
227.955	-16.59
228.333	-14.31
228.711	-9.67
229.089	-2.51
229.467	-3.35
229.845	-2.96
230.222	-0.45
230.6	0.28
230.978	1.94
231.356	3.91
231.733	4.12
232.111	3.39
232.488	2.68
232.866	4.43
233.243	5.06
233.621	7.06
233.998	8.13
234.376	6.26
234.753	7.14
235.13	7.78
235.508	8.04
235.885	8.2
236.262	6.86
236.639	7.29
237.016	5.91
237.393	7.85
237.77	7.87
238.147	6.6
238.524	5.68
238.901	6.22
239.278	5.59
239.655	6.06
240.032	6.07
240.409	6.06
240.785	5.42
241.162	5.46
241.539	5.34
241.915	5.94
242.292	5.16
242.668	5.29
243.045	5.43
243.421	5.46
243.798	5.56
244.174	5.85
244.551	5.36
244.927	5.37
245.303	5.19
245.679	5.47
246.056	5.65
246.432	5.69
246.808	5.45
247.184	5.31
247.56	5.19
247.936	5.15
248.312	5.09
248.688	5.28
249.064	5.07
249.44	5.16
249.815	5.05
250.191	5.59
250.567	5.7
250.943	5.5
251.318	5.42
251.694	5.28
252.069	5.22
252.445	5.36
252.82	5.5
253.196	5.34
253.571	5.15
253.947	4.71
254.322	4.94
254.697	5
255.073	4.95
255.448	4.92
255.823	5.03
256.198	4.97
256.573	4.82
256.948	5
257.323	5.05
257.698	5
258.073	4.88
258.448	4.69
258.823	4.78
259.198	4.74
259.573	4.67
259.948	4.75
260.322	4.82
260.697	4.77
261.072	4.93
261.446	4.95
261.821	5.25
262.195	5.38
262.57	5.47
262.944	5.46
263.319	5.45
263.693	5.59
264.067	5.75
264.442	5.94
264.816	5.98
265.19	5.77
265.564	5.63
265.938	5.47
266.313	5.41
266.687	5.45
267.061	5.64
267.435	5.71
267.809	5.56
268.183	5.55
268.556	5.44
268.93	5.43
269.304	5.46
269.678	5.51
270.051	5.35
270.425	5.19
270.799	5.34
271.172	5.4
271.546	5.33
271.919	5.1
272.293	5.08
272.666	5.1
273.04	5.07
273.413	5.24
273.787	5.46
274.16	5.48
274.533	5.53
274.906	5.31
275.279	5.33
275.653	5.3
276.026	5.15
276.399	5.21
276.772	5.16
277.145	5.06
277.518	4.93
277.891	5.18
278.263	5.27
278.636	5.17
279.009	5.07
279.382	4.96
279.755	5.11
280.127	5.07
280.5	5.01
280.872	5.2
281.245	5.02
281.617	5
281.99	5.07
282.362	5.15
282.735	5.1
283.107	5.05
283.479	5
283.852	5.05
284.224	5.29
284.596	5.29
284.968	5.29
285.34	5.36
285.713	5.22
286.085	5.19
286.457	5.26
286.829	5.33
287.201	5.39
287.572	5.28
287.944	5.26
288.316	5.44
288.688	5.38
289.06	5.44
289.431	5.52
289.803	5.61
290.175	5.56
290.546	5.87
290.918	6.01
291.289	6.19
291.661	6.5
292.032	6.4
292.403	6.46
292.775	6.69
293.146	6.8
293.517	6.92
293.889	7.05
294.26	7.18
294.631	7.31
295.002	7.42
295.373	7.55
295.744	7.74
296.115	7.72
296.486	7.83
296.857	7.96
297.228	8.04
297.599	8.16
297.97	8.26
298.34	8.31
298.711	8.43
299.082	8.38
299.452	8.32
299.823	8.42
300.194	8.47
300.564	8.57
300.935	8.58
301.305	8.69
301.676	8.8
302.046	8.83
302.416	9.05
302.787	9.04
303.157	9.3
303.527	9.28
303.897	9.34
304.267	9.62
304.637	9.84
305.008	9.98
305.378	10.04
305.748	10.3
306.117	10.21
306.487	10.3
306.857	10.64
307.227	10.91
307.597	11.16
307.967	11.37
308.336	11.57
308.706	11.67
309.076	11.87
309.445	12.02
309.815	12.14
310.184	12.2
310.554	12.4
310.923	12.33
311.293	12.49
311.662	12.62
312.031	12.71
312.401	12.72
312.77	12.91
313.139	12.97
313.508	13.06
313.877	13.25
314.246	13.29
314.616	13.28
314.985	13.29
315.353	13.15
315.722	13.28
316.091	13.1
316.46	13.1
316.829	13.04
317.198	13.17
317.567	13.36
317.935	13.34
318.304	13.5
318.672	13.73
319.041	13.92
319.41	14.15
319.778	14.32
320.147	14.37
320.515	14.17
320.883	14.26
321.252	14.45
321.62	14.53
321.988	14.65
322.357	14.81
322.725	14.96
323.093	15.17
323.461	15.19
323.829	15.53
324.197	15.78
324.565	15.83
324.933	15.85
325.301	15.7
325.669	15.8
326.037	15.77
326.405	15.75
326.772	15.92
327.14	15.92
327.508	15.93
327.875	15.99
328.243	16.29
328.61	16.41
328.978	16.21
329.346	16.4
329.713	16.37
330.08	16.43
330.448	16.36
330.815	16.35
331.182	16.4
331.55	16.32
331.917	16.56
332.284	16.78
332.651	16.78
333.018	16.96
333.385	17.06
333.752	17.28
334.119	17.3
334.486	17.14
334.853	17.19
335.22	17.32
335.587	17.44
335.954	17.39
336.32	17.32
336.687	17.58
337.054	17.71
337.42	17.94
337.787	18.02
338.153	18.07
338.52	18.23
338.886	18.24
339.253	18.35
339.619	18.33
339.986	18.27
340.352	18.54
340.718	18.64
341.084	18.61
341.451	18.51
341.817	18.8
342.183	18.89
342.549	18.91
342.915	18.83
343.281	18.88
343.647	18.97
344.013	19.07
344.379	18.99
344.745	18.92
345.11	18.94
345.476	19.02
345.842	19.06
346.208	19.1
346.573	19.27
346.939	19.23
347.304	19.2
347.67	19.19
348.035	19.07
348.401	19.09
348.766	19.14
349.132	19.22
349.497	19.24
349.862	19.34
350.228	19.34
350.593	19.42
350.958	19.46
351.323	19.49
351.688	19.59
352.053	19.67
352.418	19.67
352.783	19.7
353.148	19.75
353.513	19.81
353.878	19.86
354.243	19.88
354.608	19.92
354.972	19.93
355.337	20.03
355.702	20.14
356.066	20.13
356.431	20.19
356.795	20.24
357.16	20.13
357.524	20.01
357.889	20.06
358.253	20.01
358.618	20.04
358.982	19.95
359.346	19.95
359.71	19.92
360.075	19.99
360.439	19.93
360.803	19.83
361.167	19.83
361.531	19.77
361.895	19.68
362.259	19.62
362.623	19.62
362.987	19.62
363.351	19.5
363.714	19.52
364.078	19.4
364.442	19.36
364.806	19.22
365.169	19.29
365.533	19.22
365.896	19.21
366.26	19.13
366.623	19.14
366.987	19.04
367.35	18.98
367.714	18.85
368.077	18.76
368.44	18.74
368.803	18.68
369.167	18.57
369.53	18.56
369.893	18.49
370.256	18.42
370.619	18.32
370.982	18.23
371.345	18.06
371.708	18.01
372.071	17.91
372.434	17.91
372.797	17.76
373.159	17.63
373.522	17.56
373.885	17.5
374.247	17.35
374.61	17.23
374.973	17.09
375.335	16.96
375.698	16.93
376.06	16.8
376.423	16.71
376.785	16.66
377.147	16.56
377.51	16.44
377.872	16.28
378.234	16.16
378.596	16.06
378.958	15.98
379.321	15.93
379.683	15.81
380.045	15.79
380.407	15.67
380.769	15.65
381.13	15.55
381.492	15.48
381.854	15.45
382.216	15.35
382.578	15.28
382.939	15.22
383.301	15.13
383.663	15.06
384.024	14.89
384.386	14.81
384.747	14.75
385.109	14.73
385.47	14.64
385.832	14.58
386.193	14.56
386.554	14.5
386.916	14.44
387.277	14.37
387.638	14.28
387.999	14.19
388.36	14.07
388.721	14.01
389.082	13.87
389.443	13.75
389.804	13.72
390.165	13.67
390.526	13.61
390.887	13.51
391.248	13.43
391.609	13.42
391.969	13.33
392.33	13.27
392.691	13.17
393.051	13.12
393.412	13.09
393.772	12.97
394.133	12.93
394.493	12.83
394.854	12.73
395.214	12.62
395.574	12.57
395.935	12.48
396.295	12.39
396.655	12.32
397.015	12.18
397.376	12.05
397.736	11.97
398.096	11.87
398.456	11.81
398.816	11.72
399.176	11.63
399.535	11.53
399.895	11.41
400.255	11.34
400.615	11.28
400.975	11.17
401.334	11.11
401.694	10.96
402.054	10.89
402.413	10.81
402.773	10.75
403.132	10.63
403.492	10.58
403.851	10.49
404.211	10.44
404.57	10.4
404.929	10.39
405.288	10.33
405.648	10.22
406.007	10.16
406.366	10.12
406.725	10.06
407.084	10.05
407.443	10
407.802	9.98
408.161	9.91
408.52	9.86
408.879	9.82
409.238	9.82
409.596	9.79
409.955	9.79
410.314	9.76
410.673	9.76
411.031	9.74
411.39	9.73
411.748	9.74
412.107	9.73
412.465	9.69
412.824	9.62
413.182	9.62
413.54	9.61
413.899	9.58
414.257	9.54
414.615	9.49
414.974	9.47
415.332	9.42
415.69	9.38
416.048	9.34
416.406	9.3
416.764	9.25
417.122	9.2
417.48	9.15
417.838	9.13
418.195	9.09
418.553	9.06
418.911	9.01
419.269	8.97
419.626	8.93
419.984	8.88
420.342	8.87
420.699	8.82
421.057	8.78
421.414	8.72
421.772	8.7
422.129	8.65
422.486	8.61
422.844	8.56
423.201	8.53
423.558	8.49
423.915	8.46
424.273	8.44
424.63	8.42
424.987	8.39
425.344	8.33
425.701	8.29
426.058	8.24
426.415	8.21
426.772	8.17
427.128	8.14
427.485	8.13
427.842	8.07
428.199	8.04
428.555	8
428.912	8
429.269	7.95
429.625	7.91
429.982	7.88
430.338	7.87
430.695	7.84
431.051	7.83
431.407	7.81
431.764	7.78
432.12	7.74
432.476	7.74
432.832	7.74
433.189	7.74
433.545	7.77
433.901	7.76
434.257	7.75
434.613	7.76
434.969	7.73
435.325	7.74
435.681	7.75
436.036	7.76
436.392	7.76
436.748	7.76
437.104	7.75
437.459	7.74
437.815	7.74
438.171	7.74
438.526	7.76
438.882	7.74
439.237	7.76
439.593	7.76
439.948	7.78
440.304	7.79
440.659	7.8
441.014	7.78
441.369	7.78
441.725	7.75
442.08	7.74
442.435	7.75
442.79	7.73
443.145	7.73
443.5	7.71
443.855	7.69
444.21	7.67
444.565	7.68
444.92	7.67
445.275	7.67
445.629	7.66
445.984	7.63
446.339	7.62
446.693	7.57
447.048	7.56
447.403	7.53
447.757	7.5
448.112	7.47
448.466	7.44
448.82	7.42
449.175	7.41
449.529	7.38
449.883	7.34
450.238	7.31
450.592	7.28
450.946	7.26
451.3	7.24
451.654	7.21
452.008	7.19
452.362	7.16
452.716	7.14
453.07	7.1
453.424	7.08
453.778	7.07
454.132	7.06
454.486	7.04
454.839	7.02
455.193	7
455.547	6.97
455.9	6.97
456.254	6.97
456.607	6.96
456.961	6.95
457.314	6.97
457.668	6.98
458.021	6.98
458.375	6.98
458.728	7
459.081	7.02
459.434	7
459.787	7
460.141	7.01
460.494	7.05
460.847	7.07
461.2	7.08
461.553	7.1
461.906	7.12
462.259	7.13
462.611	7.16
462.964	7.21
463.317	7.24
463.67	7.26
464.022	7.28
464.375	7.3
464.728	7.33
465.08	7.36
465.433	7.39
465.785	7.42
466.138	7.44
466.49	7.47
466.843	7.51
467.195	7.57
467.547	7.6
467.899	7.6
468.252	7.63
468.604	7.65
468.956	7.69
469.308	7.73
469.66	7.73
470.012	7.77
470.364	7.78
470.716	7.81
471.068	7.84
471.42	7.9
471.772	7.96
472.123	8.02
472.475	8.02
472.827	8.08
473.178	8.11
473.53	8.16
473.882	8.17
474.233	8.2
474.585	8.2
474.936	8.23
475.288	8.28
475.639	8.3
475.99	8.32
476.342	8.32
476.693	8.31
477.044	8.33
477.395	8.33
477.746	8.32
478.097	8.31
478.448	8.3
478.8	8.26
479.15	8.23
479.501	8.19
479.852	8.18
480.203	8.15
480.554	8.14
480.905	8.12
481.255	8.11
481.606	8.11
481.957	8.11
482.307	8.09
482.658	8.05
483.009	8.03
483.359	8.02
483.709	8.02
484.06	8
484.41	8
484.761	7.98
485.111	7.98
485.461	7.98
485.811	7.97
486.162	7.95
486.512	7.95
486.862	7.95
487.212	7.93
487.562	7.92
487.912	7.92
488.262	7.91
488.612	7.91
488.961	7.9
489.311	7.9
489.661	7.89
490.011	7.9
490.36	7.9
490.71	7.91
491.06	7.9
491.409	7.93
491.759	7.92
492.108	7.95
492.458	7.97
492.807	7.98
493.157	8
493.506	8.06
493.855	8.09
494.204	8.12
494.554	8.17
494.903	8.23
495.252	8.26
495.601	8.31
495.95	8.37
496.299	8.43
496.648	8.48
496.997	8.57
497.346	8.69
497.695	8.81
498.043	8.9
498.392	8.98
498.741	9.07
499.09	9.19
499.438	9.29
499.787	9.41
500.135	9.52
500.484	9.66
500.832	9.75
501.181	9.89
501.529	10.02
501.878	10.17
502.226	10.32
502.574	10.5
502.923	10.65
503.271	10.8
503.619	10.98
503.967	11.19
504.315	11.39
504.663	11.56
505.011	11.74
505.359	11.95
505.707	12.18
506.055	12.37
506.403	12.59
506.751	12.82
507.098	13.01
507.446	13.26
507.794	13.49
508.141	13.76
508.489	14.01
508.837	14.25
509.184	14.5
509.531	14.78
509.879	15.03
510.226	15.31
510.574	15.57
510.921	15.82
511.268	16.07
511.616	16.32
511.963	16.57
512.31	16.87
512.657	17.16
513.004	17.43
513.351	17.75
513.698	18.05
514.045	18.36
514.392	18.7
514.739	19
515.086	19.3
515.432	19.61
515.779	19.92
516.126	20.22
516.473	20.49
516.819	20.74
517.166	20.98
517.512	21.21
517.859	21.47
518.205	21.72
518.552	21.96
518.898	22.2
519.245	22.45
519.591	22.67
519.937	22.88
520.283	23.11
520.629	23.4
520.976	23.69
521.322	23.97
521.668	24.23
522.014	24.52
522.36	24.81
522.706	25.11
523.052	25.38
523.398	25.7
523.743	26.02
524.089	26.37
524.435	26.7
524.781	27
525.126	27.29
525.472	27.57
525.817	27.82
526.163	28.02
526.509	28.23
526.854	28.43
527.199	28.62
527.545	28.82
527.89	28.99
528.235	29.16
528.581	29.34
528.926	29.53
529.271	29.73
529.616	29.92
529.961	30.1
530.306	30.31
530.651	30.52
530.996	30.73
531.341	30.96
531.686	31.18
532.031	31.43
532.376	31.66
532.721	31.87
533.065	32.1
533.41	32.35
533.755	32.6
534.099	32.86
534.444	33.12
534.788	33.38
535.133	33.59
535.477	33.83
535.822	34.08
536.166	34.37
536.51	34.65
536.855	34.95
537.199	35.24
537.543	35.54
537.887	35.82
538.231	36.12
538.576	36.43
538.92	36.72
539.264	36.98
539.608	37.24
539.951	37.53
540.295	37.75
540.639	38.03
540.983	38.26
541.327	38.43
541.671	38.66
542.014	38.86
542.358	39.08
542.701	39.29
543.045	39.49
543.389	39.69
543.732	39.87
544.075	40.1
544.419	40.32
544.762	40.54
545.105	40.81
545.449	41.08
545.792	41.29
546.135	41.52
546.478	41.8
546.821	42.08
547.165	42.36
547.508	42.65
547.851	42.89
548.194	43.15
548.536	43.44
548.879	43.73
549.222	43.99
549.565	44.28
549.908	44.52
550.25	44.84
550.593	45.11
550.936	45.4
551.278	45.62
551.621	45.93
551.963	46.24
552.306	46.43
552.648	46.64
552.991	46.88
553.333	47.13
553.675	47.38
554.017	47.6
554.36	47.76
554.702	48.01
555.044	48.21
555.386	48.37
555.728	48.63
556.07	48.79
556.412	48.98
556.754	49.14
557.096	49.36
557.438	49.54
557.78	49.76
558.121	49.9
558.463	50.1
558.805	50.32
559.147	50.46
559.488	50.67
559.83	50.84
560.171	51
560.513	51.14
560.854	51.27
561.196	51.46
561.537	51.57
561.878	51.7
562.22	51.89
562.561	52.06
562.902	52.2
563.243	52.34
563.584	52.59
563.925	52.76
564.266	52.92
564.607	53.03
564.948	53.12
565.289	53.29
565.63	53.47
565.971	53.51
566.312	53.63
566.653	53.76
566.993	53.85
567.334	54.01
567.675	54.12
568.015	54.23
568.356	54.28
568.696	54.47
569.037	54.61
569.377	54.71
569.718	54.82
570.058	54.89
570.398	55
570.739	55.01
571.079	55.12
571.419	55.2
571.759	55.26
572.099	55.33
572.439	55.4
572.779	55.43
573.119	55.55
573.459	55.62
573.799	55.66
574.139	55.81
574.479	55.89
574.819	55.99
575.158	56.07
575.498	56.12
575.838	56.21
576.177	56.3
576.517	56.35
576.856	56.41
577.196	56.47
577.535	56.55
577.875	56.66
578.214	56.71
578.553	56.77
578.893	56.84
579.232	56.95
579.571	57.03
579.91	57.1
580.25	57.15
580.589	57.27
580.928	57.4
581.267	57.48
581.606	57.5
581.945	57.62
582.283	57.68
582.622	57.8
582.961	57.87
583.3	57.86
583.639	57.91
583.977	58.04
584.316	58.18
584.654	58.25
584.993	58.31
585.332	58.42
585.67	58.46
586.008	58.6
586.347	58.63
586.685	58.63
587.024	58.71
587.362	58.75
587.7	58.72
588.038	58.77
588.376	58.76
588.715	58.83
589.053	58.83
589.391	58.85
589.729	58.89
590.067	58.91
590.404	58.97
590.742	59.06
591.08	59.02
591.418	59.06
591.756	59.08
592.093	59.11
592.431	59.08
592.769	59.13
593.106	59.18
593.444	59.23
593.781	59.24
594.119	59.22
594.456	59.21
594.793	59.33
595.131	59.31
595.468	59.41
595.805	59.39
596.143	59.38
596.48	59.44
596.817	59.46
597.154	59.46
597.491	59.55
597.828	59.55
598.165	59.64
598.502	59.6
598.839	59.66
599.176	59.71
599.512	59.78
599.849	59.78
600.186	59.8
600.523	59.82
600.859	59.91
601.196	60.02
601.532	60.09
601.869	60.09
602.205	60.11
602.542	60.09
602.878	60.09
603.215	60.15
603.551	60.08
603.887	60.14
604.223	60.11
604.56	60.05
604.896	60.04
605.232	60.04
605.568	60.08
605.904	60.02
606.24	60.08
606.576	60.11
606.912	60.16
607.248	60.16
607.583	60.19
607.919	60.21
608.255	60.15
608.591	60.14
608.926	60.15
609.262	60.18
609.597	60.2
609.933	60.31
610.268	60.32
610.604	60.39
610.939	60.38
611.275	60.45
611.61	60.53
611.945	60.6
612.281	60.59
612.616	60.68
612.951	60.86
613.286	60.88
613.621	60.94
613.956	61.01
614.291	61.03
614.626	61.04
614.961	61.11
615.296	61.18
615.631	61.27
615.966	61.3
616.3	61.38
616.635	61.42
616.97	61.39
617.304	61.38
617.639	61.41
617.973	61.38
618.308	61.43
618.642	61.49
618.977	61.54
619.311	61.56
619.646	61.55
619.98	61.5
620.314	61.35
620.648	61.26
620.983	61.25
621.317	61.3
621.651	61.32
621.985	61.29
622.319	61.29
622.653	61.19
622.987	61.32
623.321	61.32
623.655	61.35
623.988	61.37
624.322	61.42
624.656	61.5
624.99	61.5
625.323	61.47
625.657	61.36
625.99	61.38
626.324	61.38
626.657	61.34
626.991	61.24
627.324	61.29
627.658	61.35
627.991	61.42
628.324	61.38
628.657	61.44
628.991	61.57
629.324	61.64
629.657	61.79
629.99	61.71
630.323	61.69
630.656	61.7
630.989	61.73
631.322	61.77
631.655	61.75
631.987	61.82
632.32	61.88
632.653	61.87
632.986	61.79
633.318	61.84
633.651	61.91
633.984	61.98
634.316	62.02
634.649	62.02
634.981	62
635.313	62.09
635.646	62.11
635.978	62.02
636.31	61.98
636.643	61.88
636.975	62.01
637.307	62.07
637.639	62.01
637.971	62.05
638.303	61.97
638.635	61.93
638.967	61.89
639.299	61.82
639.631	61.91
639.963	61.95
640.295	61.93
640.626	61.97
640.958	62.07
641.29	62.05
641.621	62.03
641.953	62.02
642.285	62
642.616	61.93
642.948	61.93
643.279	61.88
643.61	61.92
643.942	61.8
644.273	61.79
644.604	61.79
644.936	61.81
645.267	61.93
645.598	61.99
645.929	62.01
646.26	62.05
646.591	62.01
646.922	62.03
647.253	62.02
647.584	61.94
647.915	61.85
648.245	61.95
648.576	61.92
648.907	61.97
649.238	61.9
649.568	61.97
649.899	62.02
650.229	61.99
650.56	62.05
650.89	62.07
651.221	62.06
651.551	62.1
651.882	62.05
652.212	62.01
652.542	62.07
652.872	62.19
653.203	62.11
653.533	62.15
653.863	62.28
654.193	62.37
654.523	62.41
654.853	62.44
655.183	62.52
655.513	62.49
655.843	62.32
656.172	62.21
656.502	62.23
656.832	62.25
657.162	62.39
657.491	62.31
657.821	62.16
658.15	62.14
658.48	62.11
658.809	62.13
659.139	62.15
659.468	62.17
659.798	62.14
660.127	62.2
660.456	62.18
660.785	62.13
661.115	62.13
661.444	62.12
661.773	62.17
662.102	62.04
662.431	62.09
662.76	62.23
663.089	62.27
663.418	62.23
663.747	62.11
664.076	62.11
664.404	62.17
664.733	62.28
665.062	62.36
665.39	62.33
665.719	62.32
666.048	62.44
666.376	62.33
666.705	62.22
667.033	62.19
667.362	62.17
667.69	62.16
668.018	62.08
668.347	62.14
668.675	62.12
669.003	62.16
669.331	62.25
669.659	62.25
669.987	62.37
670.315	62.19
670.643	62.14
670.971	62.16
671.299	62.12
671.627	62.07
671.955	62.1
672.283	62.11
672.61	62.18
672.938	62.04
673.266	62.03
673.593	62.09
673.921	62.16
674.249	62.2
674.576	62.15
674.904	62.23
675.231	62.09
675.558	61.99
675.886	61.87
676.213	61.75
676.54	61.71
676.867	61.74
677.195	61.92
677.522	62.09
677.849	62.03
678.176	62.1
678.503	62.14
678.83	62.15
679.157	62.12
679.484	61.99
679.81	62
680.137	62.05
680.464	62.19
680.791	62.16
681.117	62.21
681.444	62.27
681.771	62.31
682.097	62.48
682.424	62.48
682.75	62.6
683.077	62.71
683.403	62.71
683.729	62.71
684.056	62.7
684.382	62.58
684.708	62.56
685.034	62.55
685.36	62.57
685.686	62.49
686.012	62.47
686.339	62.57
686.664	62.4
686.99	62.4
687.316	62.38
687.642	62.35
687.968	62.3
688.294	62.29
688.619	62.24
688.945	62.15
689.271	62.12
689.596	62.03
689.922	61.91
690.247	61.98
690.573	61.93
690.898	61.9
691.224	61.9
691.549	61.96
691.874	61.99
692.2	61.99
692.525	62.03
692.85	62.09
693.175	62.13
693.5	62.31
693.825	62.31
694.15	62.26
694.475	62.23
694.8	62.35
695.125	62.27
695.45	62.16
695.775	62.14
696.099	62.23
696.424	62.22
696.749	62.24
697.073	62.37
697.398	62.35
697.723	62.19
698.047	62.22
698.372	62.26
698.696	62.24
699.02	62.27
699.345	62.28
699.669	62.38
699.993	62.12
700.318	62.16
700.642	62.29
700.966	62.17
701.29	62.22
701.614	62.04
701.938	62.08
702.262	62.11
702.586	62.15
702.91	62.17
703.234	62.27
703.557	62.26
703.881	62.13
704.205	62.13
704.529	62.37
704.852	62.29
705.176	62.23
705.499	62.15
705.823	62.06
706.146	62.03
706.47	61.94
706.793	62.14
707.117	62
707.44	61.64
707.763	61.71
708.086	61.84
708.409	61.9
708.733	62
709.056	62.06
709.379	62.01
709.702	62.15
710.025	62.19
710.348	62.36
710.671	62.13
710.993	62.18
711.316	62.17
711.639	62.15
711.962	62.15
712.284	62.08
712.607	62.04
712.93	62.04
713.252	62.03
713.575	62.18
713.897	62.31
714.22	62.49
714.542	62.56
714.864	62.46
715.187	62.55
715.509	62.41
715.831	62.33
716.153	62.48
716.475	62.27
716.798	62.32
717.12	62.3
717.442	62.52
717.764	62.55
718.085	62.5
718.407	62.58
718.729	62.41
719.051	62.49
719.373	62.46
719.695	62.51
720.016	62.44
720.338	62.34
720.659	62.29
720.981	62.29
721.302	62.37
721.624	62.34
721.945	62.09
722.267	62.16
722.588	62.24
722.909	61.92
723.231	62.08
723.552	62.03
723.873	61.92
724.194	61.82
724.515	61.48
724.836	61.38
725.157	61.48
725.478	61.77
725.799	61.72
726.12	61.94
726.441	62.05
726.762	61.99
727.083	61.86
727.403	61.79
727.724	61.7
728.045	61.54
728.365	61.55
728.686	61.62
729.006	61.57
729.327	61.6
729.647	61.64
729.967	61.62
730.288	61.58
730.608	61.59
730.928	61.51
731.249	61.69
731.569	61.66
731.889	61.55
732.209	61.37
732.529	61.59
732.849	61.61
733.169	61.31
733.489	61.36
733.809	61.53
734.129	61.59
734.448	61.46
734.768	61.68
735.088	61.71
735.408	61.7
735.727	61.91
736.047	61.83
736.366	61.85
736.686	61.76
737.005	61.9
737.325	61.97
737.644	62.11
737.963	62.16
738.283	62.32
738.602	62.39
738.921	62.17
739.24	62.03
739.56	61.76
739.879	61.74
740.198	61.77
740.517	61.93
740.836	62.1
741.155	62.17
741.473	62.11
741.792	61.88
742.111	62.1
742.43	61.93
742.748	62.04
743.067	62.09
743.386	62.17
743.704	61.94
744.023	61.87
744.341	61.82
744.66	61.91
744.978	62.03
745.297	62.08
745.615	62.4
745.933	62.2
746.252	62.44
746.57	62.51
746.888	62.69
747.206	62.36
747.524	62.13
747.842	62.15
748.16	61.81
748.478	62.1
748.796	62.16
749.114	62.24
749.432	61.85
749.749	61.87
750.067	61.79
750.385	61.87
750.703	61.86
751.02	62.19
751.338	62.29
751.655	61.88
751.973	61.83
752.29	61.99
752.608	62.12
752.925	62.26
753.242	62.37
753.56	62.09
753.877	61.88
754.194	61.72
754.511	62.09
754.828	62.05
755.145	62.08
755.462	61.92
755.779	61.82
756.096	62.14
756.413	62.23
756.73	62.5
757.047	62.49
757.364	62.43
757.68	62.19
757.997	62.11
758.314	62.23
758.63	62.42
758.947	62.13
759.264	61.84
759.58	61.67
759.896	61.71
760.213	61.87
760.529	62.25
760.846	62.04
761.162	61.61
761.478	61.69
761.794	61.55
762.11	61.55
762.426	61.64
762.743	61.75
763.059	61.7
763.375	61.46
763.69	61.64
764.006	61.81
764.322	61.78
764.638	61.53
764.954	61.43
765.27	61.28
765.585	61.1
765.901	61.45
766.216	61.46
766.532	61.48
766.848	61.46
767.163	61.29
767.478	61.65
767.794	61.74
768.109	61.82
768.424	61.84
768.74	61.87
769.055	61.82
769.37	61.92
769.685	62.1
770	62.01
770.315	61.81
770.63	61.33
770.945	61.19
771.26	61.84
771.575	62.19
771.89	62.13
772.205	62.49
772.52	62.44
772.834	62.29
773.149	61.95
773.464	61.94
773.778	62.05
774.093	61.95
774.407	62.25
774.722	62.19
775.036	62.12
775.351	62.32
775.665	62.23
775.979	61.84
776.293	61.51
776.608	62.18
776.922	61.93
777.236	62.08
777.55	62.03
777.864	61.56
778.178	61.44
778.492	61.46
778.806	61.3
779.12	61.52
779.434	61.98
779.747	62.38
780.061	62.05
780.375	61.95
780.689	62.06
781.002	61.94
781.316	62
781.629	62.26
781.943	62.32
782.256	61.94
782.57	61.97
782.883	62.64
783.196	62.14
783.51	62.2
783.823	62.49
784.136	62.53
784.449	62.82
784.762	62.67
785.075	62.79
785.388	63.16
785.701	62.71
786.014	62.24
786.327	62.54
786.64	62.94
786.953	62.68
787.266	63
787.578	62.56
787.891	62.79
788.204	62.12
788.516	61.44
788.829	61.56
789.141	61.96
789.454	61.39
789.766	61.53
790.079	61.47
790.391	61.5
790.703	61.63
791.016	61.37
791.328	62.05
791.64	61.6
791.952	61.14
792.264	61.26
792.576	61.25
792.888	61.21
793.2	60.92
793.512	61.18
793.824	60.5
794.136	60.88
794.448	60.55
794.76	61.18
795.071	61.95
795.383	61.92
795.695	61.64
796.006	61.66
796.318	60.97
796.629	61.51
796.941	61.4
797.252	61.39
797.564	61.42
797.875	60.67
798.186	61.6
798.497	61.93
798.809	62.11
799.12	61.85
799.431	61.15
799.742	61.14
800.053	61.47
800.364	61.85
800.675	61.52
800.986	61.92
801.297	61.77
801.608	61.48
801.918	61.61
802.229	61.6
802.54	61.28
802.851	62.31
803.161	61.61
803.472	61.46
803.782	61.43
804.093	61.37
804.403	61.28
804.714	60.73
805.024	60.94
805.334	60.5
805.645	60.94
805.955	61.62
806.265	61.47
806.575	61.05
806.885	60.95
807.195	61.67
807.505	61.64
807.815	61.73
808.125	61.79
808.435	62.21
808.745	62.06
809.055	62.15
809.365	61.75
809.674	62.19
809.984	61.96
810.294	61.74
810.603	62.06
810.913	62.02
811.222	62.66
811.532	62.51
811.841	62.64
812.151	62.54
812.46	61.8
812.769	62.44
813.079	62.72
813.388	62.62
813.697	62.36
814.006	61.74
814.315	62.3
814.624	62.52
814.933	62.51
815.242	62.52
815.551	63.07
815.86	62.78
816.169	63.46
816.478	64.36
816.786	64.33
817.095	64.85
817.404	65.49
817.712	64.43
818.021	64.23
818.33	64.44
818.638	64.8
818.947	64.99
819.255	64.61
819.563	64.51
819.872	64.83
820.18	64.72
820.488	64.59
820.796	64.35
821.105	64.03
821.413	63.75
821.721	63.61
822.029	63.46
822.337	63.57
822.645	63.26
822.953	63.23
823.26	63.25
823.568	63.06
823.876	63.25
824.184	63.29
824.491	63.34
824.799	63.26
825.107	63.17
825.414	63.3
825.722	63.49
826.029	63.61
826.337	63.53
826.644	63.59
826.951	63.78
827.259	63.7
827.566	63.72
827.873	63.75
828.18	64.04
828.488	64.22
828.795	64.19
829.102	64.22
829.409	63.95
829.716	63.91
830.023	64.18
830.329	63.75
830.636	63.81
830.943	63.96
831.25	63.72
831.557	63.75
831.863	63.65
832.17	63.79
832.476	63.33
832.783	63.54
833.089	63.3
833.396	63.04
833.702	63.5
834.009	63.57
834.315	63.42
834.621	63.23
834.928	62.99
835.234	62.94
835.54	63.18
835.846	63.61
836.152	63.97
836.458	63.03
836.764	62.61
837.07	62.41
837.376	62.46
837.682	63.08
837.988	63.4
838.293	62.73
838.599	61.93
838.905	62.15
839.211	60.66
839.516	60.31
839.822	60.08
840.127	59.46
840.433	59.66
840.738	59.89
841.044	59.16
841.349	58.83
841.654	58.9
841.959	58.41
842.265	58.51
842.57	58.98
842.875	59.65
843.18	60.34
843.485	61.02
843.79	60.84
844.095	60.1
844.4	59.48
844.705	59.32
845.01	59.27
845.315	58.46
845.619	59.05
845.924	58.78
846.229	58.93
846.533	59.12
846.838	58.49
847.142	59.56
847.447	59.5
847.751	59.77
848.056	59.27
848.36	60.73
848.664	59.99
848.969	59.2
849.273	58.98
849.577	59.24
849.881	57.1
850.185	56.79
850.489	58.07
850.794	57.14
851.097	58.37
851.401	56.72
851.705	56.11
852.009	56.8
852.313	59.29
852.617	57.94
852.92	56.3
853.224	57.75
853.528	57.13
853.831	57.52
854.135	58.84
854.438	61.15
854.742	58.92
855.045	56.57
855.349	56.94
855.652	57.4
855.955	58.49
856.259	63.27
856.562	60
856.865	57.87
857.168	59.59
857.471	60.44
857.774	62.54
858.077	62.47
858.38	63.46
858.683	61.99
858.986	64.39
859.289	64.36
859.592	60.58
859.894	60.59
860.197	59.59
860.5	57.79
860.802	55.01
861.105	55.41
861.407	56.19
861.71	54.6
862.012	54.57
862.315	51.35
862.617	47.77
862.919	47.38
863.222	49.03
863.524	48.4
863.826	47.02
864.128	46.29
864.43	47.05
864.732	46.49
865.034	45.87
865.336	43.75
865.638	43.69
865.94	43.82
866.242	43.69
866.544	44.72
866.846	45.41
867.147	47.35
867.449	47.99
867.751	50.3
868.052	49.55
868.354	49.74
868.655	53.25
868.957	53.79
869.258	55.53
869.56	54.48
869.861	51.2
870.162	52.62
870.463	50.81
870.765	51.68
871.066	54.79
871.367	55
871.668	56.35
871.969	58.01
872.27	58.24
872.571	58.39
872.872	57.18
873.173	56.84
873.473	54.66
873.774	53.6
874.075	53.13
874.376	54.29
874.676	55.73
874.977	51.96
875.277	51.53
875.578	51.57
875.878	51.28
876.179	54.14
876.479	52.75
876.78	54.83
877.08	53.66
877.38	48.51
877.68	48.3
877.981	46.93
878.281	45.27
878.581	46.85
