Data from BU26850_Reflection_00008.txt Node
Date: Mon Nov 18 16:45:38 EST 2019
User: vgr7
Spectrometer: USB2G7710
Scans to average: 3
Trigger mode: 4
Integration Time (sec): 2.000000E-2
Electric dark correction enabled: true
Boxcar width: 10
XAxis mode: Wavelengths
Number of Pixels in Spectrum: 2048
>>>>>Begin Spectral Data<<<<<
177.721	-149.63
178.105	-104.95
178.488	-78.6
178.871	11.15
179.254	-41.32
179.636	-268.02
180.019	-29.08
180.402	26.92
180.785	64.18
181.168	126.32
181.55	351.53
181.933	312.63
182.316	638.03
182.698	506.08
183.081	618.07
183.463	-2224.68
183.846	-318.89
184.228	-301.62
184.611	887.23
184.993	1834.18
185.376	-310.32
185.758	-398.33
186.14	-166.74
186.522	-161.68
186.904	-224.16
187.287	-172.55
187.669	-61.74
188.051	-123.84
188.433	-83.45
188.815	-44.67
189.197	-46.7
189.579	-55.43
189.961	-76.31
190.342	-66.01
190.724	-70.85
191.106	-59.08
191.488	-68.57
191.869	-68.33
192.251	-77.24
192.633	-47.76
193.014	-49.6
193.396	-76.61
193.777	-92.94
194.159	-97.87
194.54	-50.23
194.922	-40.7
195.303	-55.28
195.684	-54.41
196.065	-46.9
196.447	-45.1
196.828	-58.33
197.209	-46.21
197.59	-44.13
197.971	-28.04
198.352	-17.78
198.733	-18.27
199.114	-12.48
199.495	-12.4
199.876	-13.6
200.257	-10.57
200.638	-3.6
201.018	-12.7
201.399	2.71
201.78	5.63
202.16	2.44
202.541	-13.93
202.922	-22.27
203.302	-23.55
203.683	-37.87
204.063	-57.15
204.444	-56.68
204.824	-41.36
205.204	-49.91
205.585	-40.27
205.965	-52.62
206.345	-74.38
206.725	-80.79
207.106	-97.84
207.486	-92.86
207.866	-66.72
208.246	-67.46
208.626	-119.81
209.006	-84
209.386	-115.16
209.766	-118.61
210.145	-132.31
210.525	-109.53
210.905	-95.76
211.285	-59.06
211.664	-45.64
212.044	-27.39
212.424	-23.61
212.803	-28.78
213.183	-11.36
213.562	-7.73
213.942	1.49
214.321	1.4
214.701	7.35
215.08	0.98
215.459	-3.82
215.838	-0.06
216.218	0.16
216.597	12.78
216.976	22.47
217.355	28.52
217.734	36
218.113	27.72
218.492	29.02
218.871	24.37
219.25	18.86
219.629	12.38
220.008	13.86
220.387	13.54
220.766	7.38
221.144	-4.69
221.523	-17.75
221.902	-41.65
222.28	-28.7
222.659	-19.45
223.037	-2.08
223.416	-2.54
223.794	-12.27
224.173	-14.98
224.551	-16.77
224.929	-23.82
225.308	-19.95
225.686	-15.14
226.064	-10.71
226.442	-8.72
226.821	-11.45
227.199	-10.99
227.577	-15.35
227.955	-19.37
228.333	-19.46
228.711	-10.35
229.089	-4.82
229.467	-6.13
229.845	-4.05
230.222	-5.77
230.6	-9.58
230.978	-11.93
231.356	-9.36
231.733	-8.92
232.111	-7.79
232.488	-6.29
232.866	-4.86
233.243	-4.85
233.621	-4.35
233.998	-2.51
234.376	-2.29
234.753	-0.8
235.13	-1.12
235.508	1.03
235.885	1.28
236.262	0.85
236.639	-2.13
237.016	-2.06
237.393	-0.31
237.77	-0.07
238.147	1.48
238.524	2.59
238.901	2.5
239.278	2.18
239.655	2.88
240.032	2.97
240.409	2.56
240.785	2.56
241.162	3.23
241.539	2.86
241.915	3.1
242.292	3.12
242.668	3.44
243.045	3.84
243.421	3.89
243.798	3.87
244.174	3.54
244.551	3.8
244.927	3.41
245.303	3.67
245.679	3.69
246.056	3.47
246.432	3.3
246.808	3.51
247.184	3.59
247.56	3.37
247.936	3.37
248.312	3.48
248.688	3.41
249.064	3.09
249.44	3.18
249.815	2.71
250.191	2.67
250.567	2.54
250.943	2.44
251.318	2.66
251.694	2.82
252.069	3.03
252.445	2.94
252.82	2.97
253.196	2.72
253.571	2.65
253.947	2.52
254.322	2.75
254.697	2.69
255.073	2.37
255.448	2.69
255.823	2.38
256.198	2.42
256.573	2.44
256.948	2.68
257.323	2.91
257.698	3.18
258.073	3.12
258.448	3.03
258.823	3.01
259.198	2.77
259.573	2.79
259.948	2.79
260.322	2.93
260.697	2.87
261.072	2.98
261.446	3.04
261.821	3.12
262.195	3.1
262.57	3.06
262.944	3.14
263.319	2.99
263.693	3.24
264.067	3.36
264.442	3.29
264.816	3.31
265.19	3.18
265.564	3.07
265.938	3.16
266.313	3.19
266.687	3.41
267.061	3.49
267.435	3.3
267.809	3.3
268.183	3.15
268.556	3.17
268.93	3.03
269.304	3.32
269.678	3.42
270.051	3.4
270.425	3.37
270.799	3.37
271.172	3.41
271.546	3.37
271.919	3.23
272.293	3.26
272.666	3.16
273.04	3.22
273.413	3.15
273.787	3.26
274.16	3.44
274.533	3.26
274.906	3.27
275.279	3.34
275.653	3.38
276.026	3.3
276.399	3.24
276.772	3.31
277.145	3.01
277.518	2.85
277.891	2.93
278.263	3.02
278.636	3.11
279.009	3.11
279.382	3.37
279.755	3.37
280.127	3.47
280.5	3.51
280.872	3.44
281.245	3.48
281.617	3.4
281.99	3.24
282.362	3.41
282.735	3.27
283.107	3.31
283.479	3.43
283.852	3.6
284.224	3.71
284.596	3.73
284.968	3.74
285.34	3.8
285.713	3.72
286.085	3.76
286.457	3.84
286.829	3.75
287.201	3.7
287.572	3.76
287.944	3.66
288.316	3.85
288.688	3.87
289.06	3.95
289.431	3.92
289.803	3.93
290.175	3.91
290.546	4.11
290.918	4.15
291.289	4.12
291.661	4.18
292.032	4.22
292.403	4.14
292.775	4.35
293.146	4.3
293.517	4.43
293.889	4.44
294.26	4.45
294.631	4.67
295.002	4.67
295.373	4.67
295.744	4.73
296.115	4.56
296.486	4.48
296.857	4.54
297.228	4.72
297.599	4.77
297.97	4.81
298.34	4.83
298.711	4.96
299.082	4.98
299.452	5.06
299.823	5.02
300.194	5.11
300.564	4.85
300.935	5.07
301.305	5.07
301.676	5.15
302.046	5.2
302.416	5.26
302.787	5.19
303.157	5.24
303.527	5.34
303.897	5.44
304.267	5.64
304.637	5.75
305.008	5.71
305.378	5.88
305.748	5.95
306.117	5.89
306.487	5.87
306.857	5.94
307.227	5.89
307.597	6.09
307.967	6.19
308.336	6.39
308.706	6.45
309.076	6.53
309.445	6.52
309.815	6.43
310.184	6.39
310.554	6.59
310.923	6.66
311.293	6.62
311.662	6.67
312.031	6.78
312.401	6.86
312.77	6.95
313.139	7.03
313.508	6.92
313.877	7.12
314.246	7.16
314.616	7.14
314.985	7.16
315.353	7.19
315.722	7.35
316.091	7.44
316.46	7.34
316.829	7.38
317.198	7.51
317.567	7.71
317.935	7.84
318.304	7.78
318.672	7.85
319.041	8.26
319.41	8.29
319.778	8.15
320.147	8.14
320.515	8.12
320.883	8.05
321.252	8.32
321.62	8.25
321.988	8.36
322.357	8.46
322.725	8.52
323.093	8.69
323.461	8.7
323.829	8.92
324.197	9.09
324.565	9.18
324.933	9.3
325.301	9.33
325.669	9.44
326.037	9.55
326.405	9.63
326.772	9.55
327.14	9.76
327.508	9.87
327.875	9.79
328.243	9.99
328.61	10.15
328.978	10.12
329.346	10.27
329.713	10.25
330.08	10.48
330.448	10.57
330.815	10.6
331.182	10.55
331.55	10.44
331.917	10.43
332.284	10.49
332.651	10.44
333.018	10.48
333.385	10.46
333.752	10.33
334.119	10.36
334.486	10.36
334.853	10.28
335.22	10.24
335.587	10.43
335.954	10.45
336.32	10.42
336.687	10.61
337.054	10.62
337.42	10.73
337.787	10.72
338.153	10.81
338.52	10.86
338.886	10.9
339.253	10.91
339.619	10.97
339.986	11.07
340.352	11.1
340.718	11.06
341.084	11.13
341.451	11.24
341.817	11.31
342.183	11.31
342.549	11.33
342.915	11.47
343.281	11.46
343.647	11.41
344.013	11.43
344.379	11.31
344.745	11.29
345.11	11.34
345.476	11.26
345.842	11.19
346.208	11.17
346.573	11.15
346.939	11.19
347.304	11.25
347.67	11.07
348.035	11.07
348.401	11.21
348.766	11.2
349.132	11.31
349.497	11.24
349.862	11.26
350.228	11.3
350.593	11.24
350.958	11.15
351.323	11.27
351.688	11.42
352.053	11.46
352.418	11.46
352.783	11.49
353.148	11.42
353.513	11.35
353.878	11.29
354.243	11.31
354.608	11.4
354.972	11.28
355.337	11.36
355.702	11.4
356.066	11.34
356.431	11.24
356.795	11.17
357.16	11.16
357.524	11.11
357.889	11.08
358.253	11.08
358.618	11.07
358.982	10.89
359.346	10.67
359.71	10.66
360.075	10.67
360.439	10.58
360.803	10.6
361.167	10.7
361.531	10.7
361.895	10.7
362.259	10.6
362.623	10.58
362.987	10.49
363.351	10.44
363.714	10.35
364.078	10.33
364.442	10.29
364.806	10.22
365.169	10.22
365.533	10.15
365.896	10.05
366.26	10.06
366.623	10.08
366.987	10.1
367.35	10.01
367.714	9.93
368.077	9.85
368.44	9.82
368.803	9.72
369.167	9.55
369.53	9.39
369.893	9.36
370.256	9.35
370.619	9.31
370.982	9.3
371.345	9.22
371.708	9.19
372.071	9.1
372.434	9.02
372.797	8.96
373.159	8.93
373.522	8.92
373.885	8.83
374.247	8.73
374.61	8.69
374.973	8.57
375.335	8.45
375.698	8.4
376.06	8.27
376.423	8.25
376.785	8.29
377.147	8.39
377.51	8.26
377.872	8.2
378.234	8.17
378.596	8.09
378.958	7.99
379.321	7.93
379.683	7.92
380.045	7.87
380.407	7.76
380.769	7.65
381.13	7.57
381.492	7.5
381.854	7.49
382.216	7.43
382.578	7.41
382.939	7.32
383.301	7.26
383.663	7.27
384.024	7.19
384.386	7.12
384.747	7.04
385.109	7.08
385.47	6.96
385.832	6.84
386.193	6.79
386.554	6.78
386.916	6.75
387.277	6.7
387.638	6.71
387.999	6.67
388.36	6.63
388.721	6.57
389.082	6.54
389.443	6.47
389.804	6.4
390.165	6.35
390.526	6.34
390.887	6.26
391.248	6.2
391.609	6.11
391.969	6.07
392.33	6.01
392.691	5.92
393.051	5.91
393.412	5.92
393.772	5.84
394.133	5.83
394.493	5.76
394.854	5.69
395.214	5.61
395.574	5.55
395.935	5.5
396.295	5.49
396.655	5.44
397.015	5.37
397.376	5.32
397.736	5.24
398.096	5.22
398.456	5.19
398.816	5.16
399.176	5.12
399.535	5.07
399.895	5
400.255	4.95
400.615	4.94
400.975	4.87
401.334	4.82
401.694	4.76
402.054	4.72
402.413	4.68
402.773	4.63
403.132	4.63
403.492	4.62
403.851	4.55
404.211	4.53
404.57	4.54
404.929	4.55
405.288	4.57
405.648	4.51
406.007	4.5
406.366	4.44
406.725	4.45
407.084	4.46
407.443	4.44
407.802	4.42
408.161	4.36
408.52	4.33
408.879	4.33
409.238	4.33
409.596	4.29
409.955	4.28
410.314	4.31
410.673	4.29
411.031	4.27
411.39	4.25
411.748	4.22
412.107	4.23
412.465	4.17
412.824	4.14
413.182	4.14
413.54	4.11
413.899	4.11
414.257	4.07
414.615	4.03
414.974	4.02
415.332	4.01
415.69	3.99
416.048	3.99
416.406	3.96
416.764	3.92
417.122	3.93
417.48	3.89
417.838	3.86
418.195	3.85
418.553	3.82
418.911	3.81
419.269	3.78
419.626	3.75
419.984	3.76
420.342	3.75
420.699	3.73
421.057	3.72
421.414	3.69
421.772	3.68
422.129	3.66
422.486	3.65
422.844	3.63
423.201	3.62
423.558	3.6
423.915	3.59
424.273	3.58
424.63	3.57
424.987	3.56
425.344	3.55
425.701	3.52
426.058	3.51
426.415	3.52
426.772	3.51
427.128	3.48
427.485	3.46
427.842	3.45
428.199	3.45
428.555	3.45
428.912	3.45
429.269	3.45
429.625	3.44
429.982	3.41
430.338	3.41
430.695	3.39
431.051	3.4
431.407	3.41
431.764	3.39
432.12	3.37
432.476	3.35
432.832	3.33
433.189	3.34
433.545	3.32
433.901	3.3
434.257	3.3
434.613	3.32
434.969	3.3
435.325	3.28
435.681	3.27
436.036	3.25
436.392	3.25
436.748	3.26
437.104	3.25
437.459	3.25
437.815	3.25
438.171	3.27
438.526	3.27
438.882	3.26
439.237	3.28
439.593	3.29
439.948	3.31
440.304	3.31
440.659	3.3
441.014	3.32
441.369	3.29
441.725	3.29
442.08	3.3
442.435	3.3
442.79	3.3
443.145	3.31
443.5	3.31
443.855	3.3
444.21	3.3
444.565	3.31
444.92	3.32
445.275	3.31
445.629	3.31
445.984	3.29
446.339	3.27
446.693	3.25
447.048	3.22
447.403	3.22
447.757	3.22
448.112	3.21
448.466	3.2
448.82	3.21
449.175	3.21
449.529	3.18
449.883	3.17
450.238	3.16
450.592	3.16
450.946	3.15
451.3	3.14
451.654	3.12
452.008	3.12
452.362	3.11
452.716	3.1
453.07	3.1
453.424	3.1
453.778	3.11
454.132	3.12
454.486	3.14
454.839	3.1
455.193	3.09
455.547	3.1
455.9	3.1
456.254	3.09
456.607	3.08
456.961	3.1
457.314	3.12
457.668	3.13
458.021	3.13
458.375	3.14
458.728	3.15
459.081	3.16
459.434	3.14
459.787	3.14
460.141	3.16
460.494	3.14
460.847	3.15
461.2	3.15
461.553	3.16
461.906	3.15
462.259	3.18
462.611	3.19
462.964	3.19
463.317	3.21
463.67	3.23
464.022	3.24
464.375	3.23
464.728	3.23
465.08	3.23
465.433	3.24
465.785	3.23
466.138	3.23
466.49	3.24
466.843	3.26
467.195	3.27
467.547	3.27
467.899	3.29
468.252	3.3
468.604	3.32
468.956	3.31
469.308	3.33
469.66	3.34
470.012	3.35
470.364	3.37
470.716	3.37
471.068	3.39
471.42	3.42
471.772	3.44
472.123	3.46
472.475	3.5
472.827	3.51
473.178	3.52
473.53	3.53
473.882	3.52
474.233	3.54
474.585	3.53
474.936	3.53
475.288	3.52
475.639	3.53
475.99	3.53
476.342	3.54
476.693	3.55
477.044	3.56
477.395	3.54
477.746	3.54
478.097	3.56
478.448	3.53
478.8	3.5
479.15	3.48
479.501	3.48
479.852	3.45
480.203	3.45
480.554	3.45
480.905	3.45
481.255	3.46
481.606	3.45
481.957	3.44
482.307	3.43
482.658	3.42
483.009	3.41
483.359	3.4
483.709	3.4
484.06	3.4
484.41	3.4
484.761	3.39
485.111	3.39
485.461	3.37
485.811	3.38
486.162	3.38
486.512	3.39
486.862	3.38
487.212	3.37
487.562	3.37
487.912	3.37
488.262	3.35
488.612	3.36
488.961	3.37
489.311	3.38
489.661	3.39
490.011	3.39
490.36	3.39
490.71	3.41
491.06	3.41
491.409	3.42
491.759	3.42
492.108	3.45
492.458	3.45
492.807	3.46
493.157	3.46
493.506	3.47
493.855	3.48
494.204	3.5
494.554	3.53
494.903	3.55
495.252	3.57
495.601	3.62
495.95	3.64
496.299	3.65
496.648	3.68
496.997	3.72
497.346	3.75
497.695	3.8
498.043	3.83
498.392	3.88
498.741	3.9
499.09	3.95
499.438	4
499.787	4.07
500.135	4.14
500.484	4.21
500.832	4.29
501.181	4.35
501.529	4.45
501.878	4.52
502.226	4.61
502.574	4.69
502.923	4.75
503.271	4.85
503.619	4.94
503.967	5.04
504.315	5.12
504.663	5.25
505.011	5.37
505.359	5.5
505.707	5.63
506.055	5.74
506.403	5.86
506.751	6
507.098	6.12
507.446	6.26
507.794	6.39
508.141	6.52
508.489	6.65
508.837	6.79
509.184	6.94
509.531	7.08
509.879	7.23
510.226	7.4
510.574	7.53
510.921	7.68
511.268	7.83
511.616	8
511.963	8.16
512.31	8.34
512.657	8.51
513.004	8.68
513.351	8.87
513.698	9.05
514.045	9.22
514.392	9.44
514.739	9.64
515.086	9.82
515.432	10.02
515.779	10.21
516.126	10.42
516.473	10.58
516.819	10.75
517.166	10.93
517.512	11.08
517.859	11.28
518.205	11.46
518.552	11.64
518.898	11.81
519.245	11.96
519.591	12.11
519.937	12.29
520.283	12.45
520.629	12.62
520.976	12.82
521.322	13.03
521.668	13.21
522.014	13.42
522.36	13.66
522.706	13.9
523.052	14.13
523.398	14.36
523.743	14.64
524.089	14.9
524.435	15.11
524.781	15.35
525.126	15.55
525.472	15.75
525.817	15.93
526.163	16.1
526.509	16.25
526.854	16.41
527.199	16.54
527.545	16.66
527.89	16.8
528.235	16.94
528.581	17.08
528.926	17.22
529.271	17.35
529.616	17.5
529.961	17.62
530.306	17.77
530.651	17.91
530.996	18.06
531.341	18.2
531.686	18.4
532.031	18.57
532.376	18.76
532.721	18.94
533.065	19.1
533.41	19.28
533.755	19.48
534.099	19.67
534.444	19.89
534.788	20.1
535.133	20.29
535.477	20.53
535.822	20.75
536.166	20.97
536.51	21.22
536.855	21.48
537.199	21.77
537.543	22.04
537.887	22.31
538.231	22.56
538.576	22.88
538.92	23.13
539.264	23.41
539.608	23.66
539.951	23.9
540.295	24.13
540.639	24.39
540.983	24.62
541.327	24.86
541.671	25.04
542.014	25.22
542.358	25.44
542.701	25.63
543.045	25.82
543.389	26.02
543.732	26.22
544.075	26.42
544.419	26.62
544.762	26.84
545.105	27.08
545.449	27.37
545.792	27.59
546.135	27.87
546.478	28.11
546.821	28.39
547.165	28.66
547.508	28.97
547.851	29.21
548.194	29.48
548.536	29.74
548.879	30.08
549.222	30.42
549.565	30.69
549.908	30.99
550.25	31.31
550.593	31.61
550.936	31.9
551.278	32.21
551.621	32.5
551.963	32.81
552.306	33.16
552.648	33.42
552.991	33.71
553.333	33.96
553.675	34.24
554.017	34.45
554.36	34.71
554.702	34.96
555.044	35.17
555.386	35.4
555.728	35.66
556.07	35.88
556.412	36.11
556.754	36.38
557.096	36.56
557.438	36.84
557.78	37.12
558.121	37.37
558.463	37.6
558.805	37.83
559.147	38.04
559.488	38.2
559.83	38.4
560.171	38.6
560.513	38.79
560.854	38.98
561.196	39.23
561.537	39.49
561.878	39.7
562.22	39.89
562.561	40.12
562.902	40.29
563.243	40.42
563.584	40.68
563.925	40.85
564.266	41.04
564.607	41.2
564.948	41.33
565.289	41.47
565.63	41.63
565.971	41.8
566.312	41.94
566.653	42.1
566.993	42.29
567.334	42.44
567.675	42.61
568.015	42.78
568.356	42.92
568.696	43.09
569.037	43.19
569.377	43.39
569.718	43.49
570.058	43.66
570.398	43.87
570.739	43.93
571.079	44.11
571.419	44.26
571.759	44.36
572.099	44.53
572.439	44.63
572.779	44.76
573.119	44.88
573.459	45.02
573.799	45.13
574.139	45.24
574.479	45.32
574.819	45.42
575.158	45.48
575.498	45.55
575.838	45.63
576.177	45.76
576.517	45.85
576.856	45.97
577.196	46.08
577.535	46.14
577.875	46.28
578.214	46.33
578.553	46.42
578.893	46.53
579.232	46.58
579.571	46.76
579.91	46.82
580.25	46.98
580.589	47.1
580.928	47.15
581.267	47.24
581.606	47.36
581.945	47.51
582.283	47.68
582.622	47.82
582.961	47.93
583.3	48.07
583.639	48.17
583.977	48.23
584.316	48.31
584.654	48.4
584.993	48.49
585.332	48.52
585.67	48.65
586.008	48.71
586.347	48.74
586.685	48.79
587.024	48.85
587.362	48.91
587.7	48.96
588.038	49.1
588.376	49.15
588.715	49.21
589.053	49.26
589.391	49.27
589.729	49.31
590.067	49.3
590.404	49.31
590.742	49.36
591.08	49.45
591.418	49.45
591.756	49.52
592.093	49.54
592.431	49.66
592.769	49.65
593.106	49.76
593.444	49.8
593.781	49.83
594.119	49.88
594.456	49.86
594.793	49.86
595.131	49.89
595.468	49.89
595.805	49.88
596.143	49.86
596.48	49.97
596.817	50.04
597.154	50.12
597.491	50.19
597.828	50.18
598.165	50.21
598.502	50.23
598.839	50.28
599.176	50.36
599.512	50.41
599.849	50.46
600.186	50.52
600.523	50.6
600.859	50.64
601.196	50.7
601.532	50.71
601.869	50.82
602.205	50.87
602.542	50.91
602.878	50.97
603.215	51.01
603.551	50.99
603.887	51.01
604.223	51.06
604.56	51.09
604.896	51.15
605.232	51.12
605.568	51.23
605.904	51.18
606.24	51.17
606.576	51.16
606.912	51.24
607.248	51.25
607.583	51.35
607.919	51.37
608.255	51.41
608.591	51.52
608.926	51.52
609.262	51.54
609.597	51.66
609.933	51.74
610.268	51.81
610.604	51.81
610.939	51.8
611.275	51.74
611.61	51.77
611.945	51.75
612.281	51.91
612.616	51.92
612.951	52.09
613.286	52.11
613.621	52.24
613.956	52.36
614.291	52.42
614.626	52.35
614.961	52.43
615.296	52.47
615.631	52.44
615.966	52.51
616.3	52.54
616.635	52.47
616.97	52.42
617.304	52.37
617.639	52.45
617.973	52.52
618.308	52.61
618.642	52.53
618.977	52.62
619.311	52.62
619.646	52.51
619.98	52.57
620.314	52.6
620.648	52.56
620.983	52.49
621.317	52.49
621.651	52.62
621.985	52.57
622.319	52.57
622.653	52.61
622.987	52.58
623.321	52.58
623.655	52.55
623.988	52.66
624.322	52.72
624.656	52.74
624.99	52.71
625.323	52.67
625.657	52.77
625.99	52.8
626.324	52.72
626.657	52.81
626.991	52.67
627.324	52.73
627.658	52.74
627.991	52.72
628.324	52.63
628.657	52.52
628.991	52.62
629.324	52.67
629.657	52.69
629.99	52.69
630.323	52.72
630.656	52.74
630.989	52.69
631.322	52.72
631.655	52.65
631.987	52.75
632.32	52.81
632.653	52.7
632.986	52.66
633.318	52.71
633.651	52.79
633.984	52.91
634.316	52.89
634.649	52.84
634.981	52.93
635.313	52.99
635.646	53.12
635.978	53.08
636.31	52.98
636.643	52.95
636.975	53.06
637.307	52.89
637.639	53.01
637.971	53.04
638.303	53
638.635	53.08
638.967	53.06
639.299	52.98
639.631	53.1
639.963	53.05
640.295	53.17
640.626	53.07
640.958	53.13
641.29	53.05
641.621	53.12
641.953	52.97
642.285	53.05
642.616	53.04
642.948	53.12
643.279	53.14
643.61	53.16
643.942	53.11
644.273	53.29
644.604	53.3
644.936	53.32
645.267	53.38
645.598	53.31
645.929	53.27
646.26	53.31
646.591	53.32
646.922	53.34
647.253	53.33
647.584	53.3
647.915	53.31
648.245	53.38
648.576	53.31
648.907	53.4
649.238	53.3
649.568	53.24
649.899	53.09
650.229	53.24
650.56	53.06
650.89	52.98
651.221	53.1
651.551	53.04
651.882	52.97
652.212	52.92
652.542	53.06
652.872	53.09
653.203	53.13
653.533	53.17
653.863	53.16
654.193	53.18
654.523	53.22
654.853	53.04
655.183	52.97
655.513	53.11
655.843	53.14
656.172	53.41
656.502	53.45
656.832	53.57
657.162	53.51
657.491	53.7
657.821	53.82
658.15	53.86
658.48	53.85
658.809	53.83
659.139	53.82
659.468	53.81
659.798	53.76
660.127	53.75
660.456	53.82
660.785	53.84
661.115	53.78
661.444	53.8
661.773	54
662.102	54.06
662.431	54.11
662.76	54.07
663.089	53.93
663.418	53.89
663.747	53.82
664.076	53.79
664.404	53.82
664.733	53.78
665.062	53.65
665.39	53.72
665.719	53.82
666.048	53.85
666.376	53.78
666.705	53.76
667.033	53.79
667.362	53.52
667.69	53.67
668.018	53.69
668.347	53.84
668.675	53.84
669.003	53.84
669.331	53.66
669.659	53.73
669.987	53.71
670.315	53.69
670.643	53.82
670.971	53.9
671.299	53.87
671.627	53.96
671.955	53.94
672.283	53.88
672.61	53.89
672.938	54.07
673.266	54.16
673.593	54.19
673.921	54.28
674.249	54.4
674.576	54.29
674.904	54.28
675.231	54.07
675.558	53.95
675.886	53.98
676.213	54.15
676.54	54.21
676.867	54.28
677.195	54.37
677.522	54.35
677.849	54.31
678.176	54.37
678.503	54.26
678.83	54.25
679.157	54.31
679.484	54.21
679.81	54.06
680.137	53.91
680.464	53.9
680.791	53.91
681.117	53.96
681.444	53.92
681.771	53.87
682.097	53.83
682.424	53.9
682.75	53.88
683.077	53.75
683.403	53.64
683.729	53.41
684.056	53.43
684.382	53.41
684.708	53.34
685.034	53.26
685.36	53.33
685.686	53.39
686.012	53.38
686.339	53.46
686.664	53.54
686.99	53.49
687.316	53.52
687.642	53.38
687.968	53.34
688.294	53.49
688.619	53.56
688.945	53.49
689.271	53.43
689.596	53.45
689.922	53.49
690.247	53.38
690.573	53.7
690.898	53.57
691.224	53.48
691.549	53.46
691.874	53.38
692.2	53.33
692.525	53.34
692.85	53.3
693.175	53.2
693.5	53.17
693.825	53.16
694.15	53.1
694.475	53.18
694.8	53.15
695.125	53.02
695.45	52.95
695.775	53.2
696.099	53.16
696.424	53.2
696.749	53.21
697.073	53.29
697.398	53.19
697.723	53.29
698.047	53.32
698.372	53.43
698.696	53.35
699.02	53.34
699.345	53.21
699.669	53.37
699.993	53.39
700.318	53.3
700.642	53.47
700.966	53.52
701.29	53.59
701.614	53.66
701.938	53.75
702.262	53.81
702.586	53.84
702.91	53.99
703.234	53.95
703.557	53.92
703.881	54.04
704.205	53.97
704.529	53.97
704.852	53.87
705.176	53.83
705.499	54.03
705.823	53.88
706.146	53.88
706.47	53.74
706.793	53.83
707.117	54.08
707.44	54
707.763	54.06
708.086	53.95
708.409	53.94
708.733	53.97
709.056	54.01
709.379	53.94
709.702	53.91
710.025	53.92
710.348	54.01
710.671	53.94
710.993	53.9
711.316	53.97
711.639	54.16
711.962	54.28
712.284	54.22
712.607	54.32
712.93	54.55
713.252	54.52
713.575	54.51
713.897	54.33
714.22	54.57
714.542	54.5
714.864	54.4
715.187	54.43
715.509	54.23
715.831	54.08
716.153	53.94
716.475	53.96
716.798	53.88
717.12	53.77
717.442	53.76
717.764	53.72
718.085	53.62
718.407	53.5
718.729	53.32
719.051	53.28
719.373	53.53
719.695	53.35
720.016	53.19
720.338	53.24
720.659	53.14
720.981	52.78
721.302	52.73
721.624	52.72
721.945	52.66
722.267	52.69
722.588	52.8
722.909	52.89
723.231	52.76
723.552	52.79
723.873	52.83
724.194	53.01
724.515	53.1
724.836	52.95
725.157	53.1
725.478	53.25
725.799	53.48
726.12	53.38
726.441	53.51
726.762	53.5
727.083	53.4
727.403	53.29
727.724	53.6
728.045	53.45
728.365	53.53
728.686	53.52
729.006	53.6
729.327	53.76
729.647	53.91
729.967	53.92
730.288	53.95
730.608	53.91
730.928	53.76
731.249	53.85
731.569	53.91
731.889	53.96
732.209	53.78
732.529	53.59
732.849	53.53
733.169	53.5
733.489	53.57
733.809	53.64
734.129	53.88
734.448	53.72
734.768	53.93
735.088	54.03
735.408	54.03
735.727	54.03
736.047	53.99
736.366	53.88
736.686	53.96
737.005	54.1
737.325	54.14
737.644	54.02
737.963	53.99
738.283	53.93
738.602	53.87
738.921	53.76
739.24	54.04
739.56	53.92
739.879	53.66
740.198	53.63
740.517	53.54
740.836	53.61
741.155	53.9
741.473	53.97
741.792	53.92
742.111	53.89
742.43	53.78
742.748	53.71
743.067	53.56
743.386	53.65
743.704	53.55
744.023	53.48
744.341	53.58
744.66	53.53
744.978	53.54
745.297	53.53
745.615	53.56
745.933	53.43
746.252	53.53
746.57	53.52
746.888	53.79
747.206	53.87
747.524	53.83
747.842	53.4
748.16	53.43
748.478	53.56
748.796	53.69
749.114	54.2
749.432	53.89
749.749	54.17
750.067	53.95
750.385	53.76
750.703	53.77
751.02	53.82
751.338	53.99
751.655	54.06
751.973	53.82
752.29	54
752.608	53.91
752.925	53.97
753.242	54.11
753.56	53.96
753.877	54.14
754.194	53.98
754.511	54.07
754.828	53.85
755.145	53.59
755.462	53.18
755.779	52.73
756.096	52.78
756.413	52.64
756.73	53.01
757.047	53.19
757.364	53.35
757.68	53.51
757.997	53.29
758.314	53.37
758.63	53.59
758.947	53.55
759.264	53.8
759.58	53.91
759.896	54
760.213	54.35
760.529	54.19
760.846	54.66
761.162	54.69
761.478	54.6
761.794	54.64
762.11	54.86
762.426	54.92
762.743	55.15
763.059	55.3
763.375	54.97
763.69	55.07
764.006	55.02
764.322	54.98
764.638	55.13
764.954	55.26
765.27	55.21
765.585	55.55
765.901	55.46
766.216	55.52
766.532	55.42
766.848	54.97
767.163	55.08
767.478	54.85
767.794	54.85
768.109	54.85
768.424	54.96
768.74	54.79
769.055	55.02
769.37	55.11
769.685	54.82
770	55.16
770.315	55.09
770.63	55.01
770.945	54.88
771.26	54.74
771.575	54.01
771.89	54.11
772.205	53.61
772.52	53.44
772.834	53.05
773.149	53.49
773.464	53.78
773.778	53.85
774.093	53.54
774.407	53.55
774.722	53.91
775.036	53.93
775.351	54.04
775.665	53.75
775.979	53.6
776.293	53.46
776.608	53.43
776.922	53.08
777.236	53.44
777.55	53.64
777.864	53.94
778.178	55.02
778.492	55.02
778.806	55.38
779.12	55.72
779.434	55.91
779.747	55.47
780.061	55.88
780.375	55.87
780.689	56.08
781.002	56.1
781.316	56.09
781.629	56.13
781.943	56.24
782.256	55.92
782.57	55.89
782.883	55.87
783.196	55.65
783.51	56.01
783.823	55.63
784.136	55.26
784.449	54.96
784.762	55.07
785.075	54.69
785.388	54.71
785.701	54.2
786.014	53.74
786.327	54.21
786.64	53.8
786.953	53.61
787.266	53.95
787.578	53.83
787.891	53.37
788.204	53.57
788.516	53.49
788.829	53.78
789.141	54.26
789.454	54.46
789.766	54.65
790.079	54.91
790.391	55.28
790.703	55.59
791.016	56.34
791.328	55.64
791.64	55.88
791.952	55.66
792.264	55.98
792.576	56.47
792.888	56.18
793.2	56.32
793.512	56
793.824	55.57
794.136	55.61
794.448	55.93
794.76	55.55
795.071	55.34
795.383	55.67
795.695	55.06
796.006	55.01
796.318	55.25
796.629	54.95
796.941	55.01
797.252	55.15
797.564	54.28
797.875	54.23
798.186	54.48
798.497	54.36
798.809	54.15
799.12	54.22
799.431	54.16
799.742	53.43
800.053	54.11
800.364	54.05
800.675	53.91
800.986	54.11
801.297	54.28
801.608	54.96
801.918	55.46
802.229	56.29
802.54	56.46
802.851	55.91
803.161	55.46
803.472	55.01
803.782	54.7
804.093	54.63
804.403	55.1
804.714	55.21
805.024	55.02
805.334	54.98
805.645	54.73
805.955	55.15
806.265	56.09
806.575	55.5
806.885	55.92
807.195	55.8
807.505	56.29
807.815	56.06
808.125	55.86
808.435	54.85
808.745	53.86
809.055	52.87
809.365	53.49
809.674	54.31
809.984	54.24
810.294	54.41
810.603	54.51
810.913	53.86
811.222	53.73
811.532	54.9
811.841	55.44
812.151	55.99
812.46	55.26
812.769	54.94
813.079	54.97
813.388	54.84
813.697	55.39
814.006	54.68
814.315	55.13
814.624	54.66
814.933	54.95
815.242	54.95
815.551	56.27
815.86	56.35
816.169	56.26
816.478	56.4
816.786	55.98
817.095	56.12
817.404	56.8
817.712	57.03
818.021	55.51
818.33	54.51
818.638	55.22
818.947	55.58
819.255	55.5
819.563	55.48
819.872	55.09
820.18	54.94
820.488	55.14
820.796	55.52
821.105	55.76
821.413	55.57
821.721	55.49
822.029	55.49
822.337	55.12
822.645	54.94
822.953	54.9
823.26	55.03
823.568	54.8
823.876	54.79
824.184	54.61
824.491	54.71
824.799	55
825.107	54.84
825.414	54.88
825.722	54.96
826.029	54.85
826.337	54.92
826.644	54.97
826.951	54.85
827.259	54.55
827.566	54.41
827.873	54.5
828.18	54.89
828.488	54.66
828.795	54.95
829.102	54.94
829.409	55.08
829.716	54.7
830.023	55.04
830.329	54.87
830.636	54.98
830.943	54.97
831.25	54.37
831.557	54.04
831.863	53.78
832.17	53.23
832.476	53.85
832.783	54.07
833.089	53.73
833.396	53.54
833.702	53.46
834.009	53.37
834.315	53.31
834.621	52.41
834.928	52.46
835.234	52.12
835.54	52.23
835.846	51.91
836.152	52.21
836.458	52.54
836.764	52.23
837.07	52.01
837.376	52.27
837.682	52.89
837.988	52.84
838.293	52.33
838.599	52.63
838.905	51.9
839.211	51.69
839.516	51.38
839.822	51.73
840.127	52.78
840.433	52.72
840.738	52.97
841.044	53.6
841.349	54.04
841.654	54.92
841.959	55.03
842.265	55.59
842.57	56.11
842.875	55.33
843.18	56.16
843.485	57.19
843.79	57.01
844.095	56.03
844.4	55.56
844.705	55.86
845.01	55.08
845.315	55.01
845.619	54.49
845.924	56.5
846.229	55.86
846.533	53.29
846.838	54.07
847.142	53.37
847.447	52.39
847.751	52.21
848.056	49.39
848.36	49.39
848.664	50.41
848.969	49.91
849.273	49.44
849.577	49.12
849.881	48.17
850.185	49.6
850.489	51.5
850.794	51.87
851.097	53.39
851.401	55.1
851.705	53.53
852.009	55.25
852.313	54.4
852.617	54.62
852.92	56.75
853.224	57.13
853.528	57.05
853.831	57.62
854.135	57.13
854.438	59.25
854.742	57.7
855.045	57.33
855.349	55.79
855.652	57.06
855.955	57.49
856.259	56.2
856.562	54.97
856.865	55.74
857.168	58.38
857.471	58.79
857.774	59.45
858.077	62.86
858.38	62.99
858.683	61.54
858.986	61.28
859.289	60.14
859.592	59.24
859.894	60.71
860.197	60.69
860.5	59.97
860.802	59.53
861.105	60.9
861.407	60.17
861.71	61.63
862.012	61.41
862.315	61.74
862.617	65.72
862.919	63.94
863.222	61.07
863.524	59.52
863.826	60.97
864.128	60.42
864.43	60.61
864.732	59.62
865.034	61.15
865.336	62.2
865.638	59.8
865.94	56.89
866.242	55.54
866.544	54.84
866.846	53.74
867.147	54.69
867.449	56.05
867.751	54.94
868.052	55.9
868.354	54.65
868.655	53.86
868.957	54.42
869.258	52.43
869.56	52.88
869.861	50.88
870.162	50.3
870.463	49.56
870.765	47.95
871.066	46.69
871.367	46.02
871.668	42.73
871.969	44.53
872.27	46.16
872.571	47.22
872.872	49.04
873.173	51.07
873.473	50.39
873.774	50.57
874.075	51.73
874.376	50.48
874.676	51.38
874.977	48.85
875.277	47.5
875.578	51.21
875.878	50.85
876.179	52.27
876.479	50.91
876.78	50.78
877.08	50.89
877.38	51.33
877.68	52.1
877.981	56.57
878.281	55.55
878.581	57.3
