Data from BU26940_Reflection_00015.txt Node
Date: Tue Nov 19 11:00:38 EST 2019
User: vgr7
Spectrometer: USB2G7710
Scans to average: 3
Trigger mode: 4
Integration Time (sec): 2.000000E-2
Electric dark correction enabled: true
Boxcar width: 10
XAxis mode: Wavelengths
Number of Pixels in Spectrum: 2048
>>>>>Begin Spectral Data<<<<<
177.721	173.49
178.105	-8066.67
178.488	126.1
178.871	25.64
179.254	66.67
179.636	96.38
180.019	201.19
180.402	250
180.785	38.6
181.168	-37.01
181.55	-0.43
181.933	11.99
182.316	-0.53
182.698	-2.01
183.081	-36.15
183.463	-37.01
183.846	-81.93
184.228	-90.48
184.611	-97.83
184.993	-42.22
185.376	-46.46
185.758	-65.31
186.14	-30.48
186.522	-17.74
186.904	-37.78
187.287	-95.97
187.669	-212.82
188.051	-288.89
188.433	-643.59
188.815	1245.83
189.197	1587.18
189.579	310.78
189.961	576.19
190.342	192.34
190.724	149.24
191.106	82.09
191.488	87.18
191.869	72.68
192.251	80.9
192.633	75.04
193.014	85.82
193.396	72.76
193.777	91.6
194.159	101.25
194.54	115.87
194.922	117.97
195.303	99.37
195.684	73.75
196.065	84.85
196.447	50.14
196.828	42.82
197.209	24.93
197.59	11.38
197.971	31.87
198.352	42.13
198.733	27.94
199.114	20.72
199.495	11.3
199.876	-13.55
200.257	-13.15
200.638	-11.11
201.018	-5.19
201.399	21.12
201.78	-4.38
202.16	-5.75
202.541	-26.87
202.922	-40.32
203.302	-42.35
203.683	-37.78
204.063	-49.12
204.444	-47.82
204.824	-38.38
205.204	-25.75
205.585	-21.34
205.965	-36.89
206.345	-30.72
206.725	-16.79
207.106	-1.77
207.486	8.71
207.866	17.22
208.246	33.19
208.626	22.25
209.006	20.42
209.386	8.27
209.766	10.51
210.145	14.32
210.525	17.03
210.905	27.89
211.285	38.6
211.664	44.84
212.044	39.56
212.424	50.62
212.803	48.25
213.183	47.29
213.562	51.94
213.942	35.34
214.321	26.87
214.701	33.68
215.08	15.54
215.459	3.76
215.838	-3.62
216.218	-35.54
216.597	-21.53
216.976	-27.76
217.355	-30.95
217.734	-26.01
218.113	-24.54
218.492	-24.3
218.871	-30.27
219.25	-39.73
219.629	-49.54
220.008	-36.21
220.387	-43.07
220.766	-41
221.144	-41.2
221.523	-47.45
221.902	-25.35
222.28	-4.76
222.659	5.28
223.037	11.98
223.416	6.23
223.794	7.73
224.173	12.48
224.551	9.72
224.929	10.66
225.308	13.03
225.686	12.3
226.064	3.2
226.442	8.87
226.821	3.67
227.199	5.92
227.577	8.74
227.955	7.31
228.333	8.06
228.711	7.81
229.089	7.8
229.467	8.6
229.845	3.83
230.222	1.86
230.6	-2.35
230.978	-0.19
231.356	1.41
231.733	2.58
232.111	2.8
232.488	3.04
232.866	4.55
233.243	2.88
233.621	2.22
233.998	4.01
234.376	2.48
234.753	5.27
235.13	5.58
235.508	4.04
235.885	5.59
236.262	5.85
236.639	4.89
237.016	5.14
237.393	6.19
237.77	7.29
238.147	6.29
238.524	5.88
238.901	4.51
239.278	4.09
239.655	3.46
240.032	3.49
240.409	4.38
240.785	4.04
241.162	4.55
241.539	4.05
241.915	4.26
242.292	4.5
242.668	4.31
243.045	4.09
243.421	4.27
243.798	3.72
244.174	3.94
244.551	4.03
244.927	3.71
245.303	3.54
245.679	3.39
246.056	3.67
246.432	3.94
246.808	4.14
247.184	4.38
247.56	4.43
247.936	4.39
248.312	4.06
248.688	4.04
249.064	4.08
249.44	4.08
249.815	4.29
250.191	4.1
250.567	3.96
250.943	4.06
251.318	4.06
251.694	4.22
252.069	4.08
252.445	3.88
252.82	4.17
253.196	3.98
253.571	4.02
253.947	3.79
254.322	3.29
254.697	3.2
255.073	3.08
255.448	2.66
255.823	2.57
256.198	2.41
256.573	2.66
256.948	2.64
257.323	2.97
257.698	2.82
258.073	2.67
258.448	2.68
258.823	2.7
259.198	2.71
259.573	2.5
259.948	2.66
260.322	2.8
260.697	2.85
261.072	3
261.446	3.07
261.821	3.16
262.195	3.38
262.57	3.4
262.944	3.53
263.319	3.77
263.693	3.85
264.067	4.04
264.442	3.86
264.816	3.84
265.19	3.92
265.564	3.98
265.938	4.17
266.313	4.15
266.687	4.09
267.061	4.21
267.435	4.42
267.809	4.06
268.183	3.98
268.556	3.89
268.93	3.9
269.304	3.63
269.678	3.61
270.051	3.37
270.425	3.34
270.799	3.19
271.172	3.11
271.546	3.18
271.919	3.23
272.293	3.46
272.666	3.51
273.04	3.42
273.413	3.37
273.787	3.42
274.16	3.4
274.533	3.36
274.906	3.33
275.279	3.38
275.653	3.5
276.026	3.45
276.399	3.42
276.772	3.45
277.145	3.69
277.518	3.54
277.891	3.79
278.263	3.71
278.636	3.77
279.009	3.83
279.382	3.8
279.755	3.84
280.127	3.7
280.5	3.6
280.872	3.7
281.245	3.72
281.617	3.6
281.99	3.71
282.362	3.74
282.735	3.47
283.107	3.4
283.479	3.38
283.852	3.4
284.224	3.46
284.596	3.42
284.968	3.34
285.34	3.49
285.713	3.63
286.085	3.7
286.457	3.67
286.829	3.64
287.201	3.6
287.572	3.53
287.944	3.64
288.316	3.73
288.688	3.67
289.06	3.65
289.431	3.64
289.803	3.77
290.175	3.85
290.546	4.08
290.918	4.07
291.289	4.07
291.661	4.27
292.032	4.21
292.403	4.28
292.775	4.35
293.146	4.32
293.517	4.18
293.889	4.22
294.26	4.39
294.631	4.51
295.002	4.58
295.373	4.64
295.744	4.63
296.115	4.63
296.486	4.62
296.857	4.66
297.228	4.69
297.599	4.57
297.97	4.63
298.34	4.69
298.711	4.79
299.082	4.95
299.452	4.81
299.823	4.95
300.194	4.95
300.564	4.9
300.935	4.99
301.305	5.07
301.676	5.02
302.046	5.03
302.416	5.05
302.787	5.02
303.157	4.95
303.527	5.13
303.897	5.27
304.267	5.37
304.637	5.47
305.008	5.8
305.378	5.9
305.748	5.95
306.117	6.07
306.487	6.3
306.857	6.34
307.227	6.54
307.597	6.59
307.967	6.76
308.336	6.91
308.706	6.92
309.076	7.04
309.445	7.26
309.815	7.22
310.184	7.2
310.554	7.26
310.923	7.44
311.293	7.37
311.662	7.43
312.031	7.43
312.401	7.48
312.77	7.46
313.139	7.54
313.508	7.54
313.877	7.42
314.246	7.36
314.616	7.52
314.985	7.61
315.353	7.76
315.722	7.76
316.091	7.77
316.46	7.9
316.829	7.92
317.198	7.93
317.567	8.19
317.935	8.32
318.304	8.5
318.672	8.5
319.041	8.76
319.41	8.64
319.778	8.87
320.147	8.91
320.515	8.94
320.883	8.96
321.252	8.97
321.62	9.09
321.988	9.05
322.357	8.97
322.725	8.89
323.093	8.84
323.461	8.97
323.829	9.19
324.197	9.34
324.565	9.49
324.933	9.63
325.301	9.49
325.669	9.46
326.037	9.52
326.405	9.58
326.772	9.46
327.14	9.57
327.508	9.46
327.875	9.34
328.243	9.43
328.61	9.53
328.978	9.71
329.346	9.81
329.713	10.05
330.08	10.15
330.448	10.4
330.815	10.5
331.182	10.39
331.55	10.25
331.917	10.14
332.284	10.04
332.651	9.98
333.018	10.08
333.385	10.22
333.752	10.18
334.119	10.27
334.486	10.29
334.853	10.19
335.22	10.36
335.587	10.53
335.954	10.48
336.32	10.56
336.687	10.53
337.054	10.6
337.42	10.41
337.787	10.39
338.153	10.37
338.52	10.5
338.886	10.52
339.253	10.53
339.619	10.64
339.986	10.65
340.352	10.67
340.718	10.64
341.084	10.65
341.451	10.62
341.817	10.6
342.183	10.64
342.549	10.82
342.915	10.85
343.281	10.9
343.647	10.94
344.013	10.87
344.379	10.95
344.745	10.81
345.11	10.95
345.476	10.99
345.842	10.87
346.208	10.81
346.573	10.96
346.939	11.08
347.304	11.11
347.67	11.14
348.035	11.12
348.401	11.13
348.766	11.07
349.132	11.14
349.497	11.22
349.862	11.19
350.228	11.2
350.593	11.08
350.958	11.09
351.323	11.03
351.688	11.06
352.053	11
352.418	11.04
352.783	11.03
353.148	11.01
353.513	10.99
353.878	10.92
354.243	10.88
354.608	10.83
354.972	10.73
355.337	10.78
355.702	10.83
356.066	10.82
356.431	10.93
356.795	10.97
357.16	10.94
357.524	10.99
357.889	10.96
358.253	11.08
358.618	11.06
358.982	11.06
359.346	10.96
359.71	10.96
360.075	10.93
360.439	10.88
360.803	10.81
361.167	10.83
361.531	10.79
361.895	10.72
362.259	10.72
362.623	10.66
362.987	10.61
363.351	10.59
363.714	10.57
364.078	10.47
364.442	10.35
364.806	10.32
365.169	10.22
365.533	10.15
365.896	10.04
366.26	9.89
366.623	9.8
366.987	9.79
367.35	9.77
367.714	9.7
368.077	9.71
368.44	9.74
368.803	9.65
369.167	9.57
369.53	9.5
369.893	9.34
370.256	9.32
370.619	9.22
370.982	9.09
371.345	9.03
371.708	8.97
372.071	8.9
372.434	8.86
372.797	8.78
373.159	8.64
373.522	8.54
373.885	8.57
374.247	8.54
374.61	8.46
374.973	8.34
375.335	8.31
375.698	8.18
376.06	8.08
376.423	8.05
376.785	7.99
377.147	7.89
377.51	7.86
377.872	7.83
378.234	7.77
378.596	7.7
378.958	7.59
379.321	7.53
379.683	7.47
380.045	7.29
380.407	7.25
380.769	7.24
381.13	7.2
381.492	7.09
381.854	7.04
382.216	6.99
382.578	6.93
382.939	6.86
383.301	6.81
383.663	6.75
384.024	6.69
384.386	6.65
384.747	6.61
385.109	6.58
385.47	6.48
385.832	6.4
386.193	6.38
386.554	6.36
386.916	6.31
387.277	6.23
387.638	6.25
387.999	6.17
388.36	6.17
388.721	6.11
389.082	6.09
389.443	6.02
389.804	6.03
390.165	6.01
390.526	5.97
390.887	5.94
391.248	5.91
391.609	5.86
391.969	5.83
392.33	5.77
392.691	5.72
393.051	5.68
393.412	5.67
393.772	5.62
394.133	5.54
394.493	5.47
394.854	5.45
395.214	5.41
395.574	5.37
395.935	5.31
396.295	5.22
396.655	5.15
397.015	5.07
397.376	4.99
397.736	4.9
398.096	4.83
398.456	4.75
398.816	4.64
399.176	4.6
399.535	4.55
399.895	4.52
400.255	4.49
400.615	4.46
400.975	4.39
401.334	4.35
401.694	4.31
402.054	4.32
402.413	4.33
402.773	4.3
403.132	4.26
403.492	4.23
403.851	4.24
404.211	4.25
404.57	4.24
404.929	4.22
405.288	4.22
405.648	4.22
406.007	4.23
406.366	4.23
406.725	4.19
407.084	4.17
407.443	4.16
407.802	4.14
408.161	4.12
408.52	4.14
408.879	4.11
409.238	4.13
409.596	4.11
409.955	4.04
410.314	4.03
410.673	4
411.031	3.96
411.39	3.96
411.748	3.96
412.107	3.96
412.465	3.92
412.824	3.9
413.182	3.86
413.54	3.83
413.899	3.79
414.257	3.81
414.615	3.78
414.974	3.77
415.332	3.77
415.69	3.75
416.048	3.74
416.406	3.72
416.764	3.69
417.122	3.67
417.48	3.66
417.838	3.65
418.195	3.66
418.553	3.64
418.911	3.6
419.269	3.57
419.626	3.56
419.984	3.54
420.342	3.54
420.699	3.52
421.057	3.5
421.414	3.51
421.772	3.48
422.129	3.46
422.486	3.44
422.844	3.43
423.201	3.4
423.558	3.38
423.915	3.38
424.273	3.38
424.63	3.37
424.987	3.38
425.344	3.36
425.701	3.35
426.058	3.35
426.415	3.34
426.772	3.33
427.128	3.32
427.485	3.33
427.842	3.3
428.199	3.3
428.555	3.3
428.912	3.29
429.269	3.28
429.625	3.29
429.982	3.29
430.338	3.29
430.695	3.29
431.051	3.29
431.407	3.28
431.764	3.25
432.12	3.25
432.476	3.26
432.832	3.27
433.189	3.27
433.545	3.25
433.901	3.26
434.257	3.26
434.613	3.24
434.969	3.23
435.325	3.23
435.681	3.24
436.036	3.26
436.392	3.25
436.748	3.26
437.104	3.27
437.459	3.26
437.815	3.27
438.171	3.28
438.526	3.28
438.882	3.3
439.237	3.32
439.593	3.32
439.948	3.29
440.304	3.29
440.659	3.3
441.014	3.31
441.369	3.32
441.725	3.32
442.08	3.32
442.435	3.33
442.79	3.33
443.145	3.33
443.5	3.31
443.855	3.31
444.21	3.31
444.565	3.31
444.92	3.3
445.275	3.27
445.629	3.26
445.984	3.26
446.339	3.24
446.693	3.24
447.048	3.22
447.403	3.21
447.757	3.19
448.112	3.17
448.466	3.18
448.82	3.15
449.175	3.16
449.529	3.13
449.883	3.11
450.238	3.1
450.592	3.08
450.946	3.08
451.3	3.06
451.654	3.05
452.008	3.01
452.362	3.01
452.716	3
453.07	2.98
453.424	2.98
453.778	2.97
454.132	2.95
454.486	2.96
454.839	2.94
455.193	2.96
455.547	2.97
455.9	2.95
456.254	2.97
456.607	2.94
456.961	2.96
457.314	2.99
457.668	2.99
458.021	2.99
458.375	2.98
458.728	2.98
459.081	2.99
459.434	3.01
459.787	3.02
460.141	3.04
460.494	3.05
460.847	3.03
461.2	3.04
461.553	3.04
461.906	3.05
462.259	3.03
462.611	3.04
462.964	3.06
463.317	3.06
463.67	3.05
464.022	3.08
464.375	3.09
464.728	3.08
465.08	3.08
465.433	3.11
465.785	3.12
466.138	3.12
466.49	3.13
466.843	3.14
467.195	3.18
467.547	3.17
467.899	3.17
468.252	3.19
468.604	3.22
468.956	3.24
469.308	3.26
469.66	3.31
470.012	3.33
470.364	3.33
470.716	3.36
471.068	3.38
471.42	3.41
471.772	3.39
472.123	3.42
472.475	3.44
472.827	3.45
473.178	3.46
473.53	3.5
473.882	3.52
474.233	3.5
474.585	3.49
474.936	3.49
475.288	3.5
475.639	3.51
475.99	3.5
476.342	3.51
476.693	3.5
477.044	3.51
477.395	3.49
477.746	3.48
478.097	3.47
478.448	3.46
478.8	3.44
479.15	3.43
479.501	3.41
479.852	3.39
480.203	3.38
480.554	3.4
480.905	3.37
481.255	3.37
481.606	3.37
481.957	3.36
482.307	3.36
482.658	3.36
483.009	3.35
483.359	3.34
483.709	3.34
484.06	3.33
484.41	3.33
484.761	3.32
485.111	3.32
485.461	3.32
485.811	3.32
486.162	3.32
486.512	3.33
486.862	3.33
487.212	3.34
487.562	3.33
487.912	3.33
488.262	3.33
488.612	3.32
488.961	3.32
489.311	3.33
489.661	3.33
490.011	3.33
490.36	3.34
490.71	3.35
491.06	3.36
491.409	3.37
491.759	3.37
492.108	3.38
492.458	3.39
492.807	3.4
493.157	3.41
493.506	3.42
493.855	3.43
494.204	3.44
494.554	3.46
494.903	3.48
495.252	3.51
495.601	3.56
495.95	3.6
496.299	3.63
496.648	3.66
496.997	3.71
497.346	3.77
497.695	3.81
498.043	3.86
498.392	3.91
498.741	3.94
499.09	4
499.438	4.06
499.787	4.11
500.135	4.18
500.484	4.24
500.832	4.3
501.181	4.37
501.529	4.44
501.878	4.53
502.226	4.61
502.574	4.67
502.923	4.73
503.271	4.81
503.619	4.91
503.967	4.99
504.315	5.1
504.663	5.16
505.011	5.3
505.359	5.38
505.707	5.51
506.055	5.65
506.403	5.74
506.751	5.9
507.098	6.05
507.446	6.2
507.794	6.35
508.141	6.54
508.489	6.72
508.837	6.88
509.184	7.05
509.531	7.22
509.879	7.4
510.226	7.59
510.574	7.78
510.921	7.97
511.268	8.19
511.616	8.4
511.963	8.63
512.31	8.85
512.657	9.09
513.004	9.32
513.351	9.6
513.698	9.88
514.045	10.14
514.392	10.44
514.739	10.74
515.086	11.04
515.432	11.34
515.779	11.62
516.126	11.91
516.473	12.2
516.819	12.47
517.166	12.76
517.512	13.03
517.859	13.3
518.205	13.56
518.552	13.82
518.898	14.07
519.245	14.33
519.591	14.6
519.937	14.89
520.283	15.21
520.629	15.48
520.976	15.81
521.322	16.14
521.668	16.49
522.014	16.81
522.36	17.15
522.706	17.49
523.052	17.87
523.398	18.3
523.743	18.71
524.089	19.13
524.435	19.48
524.781	19.85
525.126	20.18
525.472	20.5
525.817	20.79
526.163	21.09
526.509	21.35
526.854	21.55
527.199	21.75
527.545	21.96
527.89	22.17
528.235	22.38
528.581	22.58
528.926	22.76
529.271	22.95
529.616	23.17
529.961	23.38
530.306	23.61
530.651	23.81
530.996	24.02
531.341	24.25
531.686	24.5
532.031	24.72
532.376	24.97
532.721	25.2
533.065	25.44
533.41	25.65
533.755	25.9
534.099	26.2
534.444	26.46
534.788	26.69
535.133	26.94
535.477	27.19
535.822	27.47
536.166	27.76
536.51	28.09
536.855	28.38
537.199	28.7
537.543	28.97
537.887	29.25
538.231	29.6
538.576	29.92
538.92	30.24
539.264	30.55
539.608	30.82
539.951	31.05
540.295	31.27
540.639	31.51
540.983	31.73
541.327	31.94
541.671	32.15
542.014	32.38
542.358	32.58
542.701	32.77
543.045	32.95
543.389	33.14
543.732	33.31
544.075	33.5
544.419	33.69
544.762	33.92
545.105	34.16
545.449	34.35
545.792	34.55
546.135	34.77
546.478	35
546.821	35.25
547.165	35.54
547.508	35.81
547.851	36.03
548.194	36.27
548.536	36.48
548.879	36.73
549.222	36.92
549.565	37.19
549.908	37.41
550.25	37.66
550.593	37.9
550.936	38.13
551.278	38.39
551.621	38.58
551.963	38.77
552.306	38.96
552.648	39.19
552.991	39.35
553.333	39.51
553.675	39.62
554.017	39.8
554.36	39.98
554.702	40.12
555.044	40.35
555.386	40.53
555.728	40.74
556.07	40.88
556.412	41.06
556.754	41.24
557.096	41.43
557.438	41.55
557.78	41.72
558.121	41.88
558.463	42.05
558.805	42.19
559.147	42.35
559.488	42.52
559.83	42.62
560.171	42.78
560.513	42.91
560.854	43.07
561.196	43.21
561.537	43.4
561.878	43.6
562.22	43.74
562.561	43.85
562.902	43.94
563.243	44.11
563.584	44.26
563.925	44.35
564.266	44.46
564.607	44.58
564.948	44.6
565.289	44.74
565.63	44.81
565.971	44.98
566.312	45.12
566.653	45.21
566.993	45.35
567.334	45.49
567.675	45.65
568.015	45.83
568.356	45.92
568.696	46.01
569.037	46.09
569.377	46.21
569.718	46.28
570.058	46.35
570.398	46.48
570.739	46.58
571.079	46.66
571.419	46.77
571.759	46.9
572.099	47.07
572.439	47.13
572.779	47.22
573.119	47.28
573.459	47.32
573.799	47.38
574.139	47.43
574.479	47.48
574.819	47.53
575.158	47.61
575.498	47.7
575.838	47.79
576.177	47.87
576.517	47.91
576.856	48.03
577.196	48.15
577.535	48.14
577.875	48.21
578.214	48.28
578.553	48.38
578.893	48.44
579.232	48.5
579.571	48.61
579.91	48.75
580.25	48.8
580.589	48.87
580.928	49.08
581.267	49.18
581.606	49.28
581.945	49.37
582.283	49.45
582.622	49.55
582.961	49.57
583.3	49.65
583.639	49.75
583.977	49.82
584.316	49.96
584.654	50.08
584.993	50.13
585.332	50.27
585.67	50.29
586.008	50.32
586.347	50.39
586.685	50.46
587.024	50.51
587.362	50.6
587.7	50.66
588.038	50.68
588.376	50.74
588.715	50.76
589.053	50.87
589.391	50.87
589.729	50.85
590.067	50.91
590.404	50.89
590.742	50.95
591.08	50.96
591.418	50.9
591.756	51.04
592.093	51.11
592.431	51.1
592.769	51.07
593.106	51.11
593.444	51.19
593.781	51.33
594.119	51.32
594.456	51.31
594.793	51.37
595.131	51.41
595.468	51.42
595.805	51.52
596.143	51.52
596.48	51.53
596.817	51.53
597.154	51.54
597.491	51.59
597.828	51.62
598.165	51.71
598.502	51.83
598.839	51.85
599.176	51.93
599.512	51.97
599.849	52.09
600.186	52.13
600.523	52.15
600.859	52.09
601.196	52.15
601.532	52.25
601.869	52.3
602.205	52.24
602.542	52.3
602.878	52.32
603.215	52.39
603.551	52.41
603.887	52.44
604.223	52.48
604.56	52.6
604.896	52.62
605.232	52.63
605.568	52.61
605.904	52.55
606.24	52.51
606.576	52.56
606.912	52.64
607.248	52.69
607.583	52.74
607.919	52.72
608.255	52.72
608.591	52.74
608.926	52.81
609.262	52.9
609.597	52.94
609.933	52.92
610.268	52.93
610.604	52.96
610.939	53.11
611.275	53.24
611.61	53.19
611.945	53.2
612.281	53.25
612.616	53.33
612.951	53.42
613.286	53.54
613.621	53.71
613.956	53.72
614.291	53.77
614.626	53.81
614.961	53.94
615.296	54.04
615.631	54.1
615.966	54.04
616.3	54.06
616.635	54.08
616.97	54.18
617.304	54.21
617.639	54.39
617.973	54.27
618.308	54.13
618.642	54.16
618.977	54.19
619.311	54.27
619.646	54.27
619.98	54.23
620.314	54.21
620.648	54.12
620.983	54.14
621.317	54.06
621.651	54.11
621.985	54.1
622.319	54.02
622.653	53.96
622.987	54
623.321	54.04
623.655	54.11
623.988	54.03
624.322	53.95
624.656	53.82
624.99	53.9
625.323	53.92
625.657	53.95
625.99	53.99
626.324	53.94
626.657	53.99
626.991	54
627.324	53.94
627.658	54.02
627.991	53.99
628.324	54.02
628.657	53.97
628.991	53.97
629.324	54.05
629.657	54.08
629.99	54.18
630.323	54.13
630.656	54.1
630.989	54.14
631.322	54.25
631.655	54.34
631.987	54.31
632.32	54.3
632.653	54.36
632.986	54.4
633.318	54.37
633.651	54.34
633.984	54.34
634.316	54.39
634.649	54.35
634.981	54.45
635.313	54.53
635.646	54.56
635.978	54.68
636.31	54.74
636.643	54.73
636.975	54.65
637.307	54.74
637.639	54.81
637.971	54.91
638.303	54.87
638.635	54.92
638.967	55.02
639.299	55.22
639.631	55.24
639.963	55.22
640.295	55.32
640.626	55.28
640.958	55.31
641.29	55.33
641.621	55.41
641.953	55.33
642.285	55.35
642.616	55.43
642.948	55.4
643.279	55.39
643.61	55.47
643.942	55.5
644.273	55.44
644.604	55.31
644.936	55.32
645.267	55.37
645.598	55.36
645.929	55.29
646.26	55.1
646.591	55.05
646.922	55.03
647.253	55.08
647.584	55.17
647.915	55.26
648.245	55.34
648.576	55.28
648.907	55.3
649.238	55.32
649.568	55.25
649.899	55.14
650.229	55.11
650.56	55.16
650.89	55.2
651.221	55.26
651.551	55.34
651.882	55.29
652.212	55.29
652.542	55.31
652.872	55.35
653.203	55.46
653.533	55.39
653.863	55.38
654.193	55.31
654.523	55.27
654.853	55.24
655.183	55.22
655.513	55.31
655.843	55.27
656.172	55.28
656.502	55.34
656.832	55.45
657.162	55.39
657.491	55.45
657.821	55.43
658.15	55.46
658.48	55.48
658.809	55.45
659.139	55.49
659.468	55.53
659.798	55.55
660.127	55.6
660.456	55.67
660.785	55.72
661.115	55.84
661.444	55.84
661.773	55.75
662.102	55.67
662.431	55.58
662.76	55.67
663.089	55.69
663.418	55.62
663.747	55.63
664.076	55.72
664.404	55.56
664.733	55.47
665.062	55.49
665.39	55.4
665.719	55.42
666.048	55.5
666.376	55.42
666.705	55.45
667.033	55.38
667.362	55.57
667.69	55.59
668.018	55.58
668.347	55.57
668.675	55.78
669.003	55.92
669.331	55.87
669.659	55.81
669.987	55.67
670.315	55.58
670.643	55.54
670.971	55.56
671.299	55.6
671.627	55.75
671.955	55.61
672.283	55.76
672.61	55.87
672.938	55.58
673.266	55.53
673.593	55.45
673.921	55.45
674.249	55.29
674.576	55.16
674.904	55.09
675.231	55
675.558	54.95
675.886	54.92
676.213	55.03
676.54	55.08
676.867	55.24
677.195	55.34
677.522	55.41
677.849	55.36
678.176	55.41
678.503	55.31
678.83	55.25
679.157	55.26
679.484	55.09
679.81	55.16
680.137	55.29
680.464	55.27
680.791	55.33
681.117	55.3
681.444	55.44
681.771	55.52
682.097	55.58
682.424	55.54
682.75	55.47
683.077	55.42
683.403	55.51
683.729	55.5
684.056	55.63
684.382	55.61
684.708	55.59
685.034	55.64
685.36	55.75
685.686	55.94
686.012	55.95
686.339	55.85
686.664	56.02
686.99	55.88
687.316	55.96
687.642	55.97
687.968	56.03
688.294	56.07
688.619	55.96
688.945	56.02
689.271	56.03
689.596	56.05
689.922	55.93
690.247	55.88
690.573	55.84
690.898	55.71
691.224	55.75
691.549	55.98
691.874	55.98
692.2	55.92
692.525	55.92
692.85	55.8
693.175	55.95
693.5	55.84
693.825	56.1
694.15	56.03
694.475	55.85
694.8	55.91
695.125	55.87
695.45	55.89
695.775	55.9
696.099	56.02
696.424	56.08
696.749	56.21
697.073	56.23
697.398	56.37
697.723	56.52
698.047	56.47
698.372	56.36
698.696	56.43
699.02	56.44
699.345	56.48
699.669	56.52
699.993	56.53
700.318	56.62
700.642	56.6
700.966	56.59
701.29	56.68
701.614	56.53
701.938	56.49
702.262	56.6
702.586	56.55
702.91	56.46
703.234	56.51
703.557	56.49
703.881	56.38
704.205	56.18
704.529	55.88
704.852	55.94
705.176	55.94
705.499	55.74
705.823	55.62
706.146	55.61
706.47	55.56
706.793	55.71
707.117	55.66
707.44	55.53
707.763	55.56
708.086	55.64
708.409	55.78
708.733	55.73
709.056	55.63
709.379	55.75
709.702	55.73
710.025	55.69
710.348	55.77
710.671	55.76
710.993	55.91
711.316	55.98
711.639	55.89
711.962	55.8
712.284	55.82
712.607	56
712.93	55.89
713.252	55.94
713.575	55.93
713.897	55.95
714.22	56.07
714.542	56.19
714.864	56.08
715.187	56.04
715.509	56.08
715.831	56.16
716.153	56.2
716.475	56.21
716.798	56.19
717.12	56.26
717.442	56.29
717.764	56.25
718.085	56.35
718.407	56.34
718.729	56.23
719.051	56.4
719.373	56.29
719.695	56.33
720.016	56.37
720.338	56.42
720.659	56.44
720.981	56.48
721.302	56.39
721.624	56.71
721.945	56.74
722.267	56.87
722.588	56.79
722.909	56.83
723.231	56.89
723.552	57.01
723.873	56.94
724.194	56.96
724.515	56.96
724.836	56.93
725.157	56.99
725.478	57.21
725.799	57.06
726.12	57.12
726.441	57.02
726.762	57.03
727.083	57.03
727.403	56.99
727.724	56.75
728.045	56.85
728.365	56.73
728.686	56.55
729.006	56.45
729.327	56.61
729.647	56.52
729.967	56.62
730.288	56.52
730.608	56.41
730.928	56.42
731.249	56.51
731.569	56.62
731.889	56.78
732.209	56.83
732.529	56.8
732.849	56.86
733.169	56.99
733.489	56.91
733.809	56.95
734.129	56.93
734.448	57.04
734.768	56.95
735.088	56.98
735.408	57.3
735.727	57.5
736.047	57.26
736.366	57.39
736.686	57.25
737.005	57.22
737.325	57.46
737.644	57.41
737.963	57.45
738.283	57.38
738.602	57.12
738.921	57.15
739.24	57.11
739.56	57.19
739.879	57.26
740.198	57.38
740.517	57.1
740.836	57.05
741.155	56.91
741.473	56.7
741.792	56.82
742.111	56.87
742.43	56.67
742.748	56.91
743.067	56.96
743.386	56.7
743.704	56.88
744.023	56.54
744.341	56.38
744.66	56.08
744.978	56.06
745.297	56.14
745.615	56.16
745.933	56.29
746.252	55.98
746.57	56.03
746.888	55.9
747.206	56.21
747.524	56.08
747.842	56.13
748.16	56.26
748.478	56.05
748.796	55.95
749.114	55.78
749.432	55.75
749.749	55.78
750.067	56.02
750.385	55.8
750.703	55.85
751.02	56.01
751.338	56.28
751.655	56.36
751.973	56.06
752.29	55.89
752.608	55.86
752.925	56.06
753.242	56.03
753.56	55.91
753.877	55.57
754.194	55.69
754.511	56.02
754.828	56.29
755.145	56.22
755.462	56.09
755.779	55.98
756.096	55.92
756.413	55.56
756.73	55.51
757.047	55.33
757.364	55.44
757.68	55.52
757.997	55.53
758.314	55.76
758.63	55.81
758.947	55.96
759.264	55.89
759.58	55.73
759.896	55.67
760.213	55.89
760.529	56.05
760.846	56.42
761.162	56.23
761.478	55.94
761.794	56.07
762.11	56.49
762.426	56.79
762.743	56.65
763.059	56.64
763.375	56.47
763.69	56.72
764.006	56.71
764.322	56.7
764.638	56.76
764.954	56.58
765.27	56.81
765.585	56.66
765.901	56.59
766.216	56.69
766.532	56.95
766.848	56.97
767.163	57.02
767.478	56.88
767.794	56.89
768.109	57.12
768.424	57.11
768.74	56.46
769.055	56.55
769.37	56.72
769.685	56.59
770	56.81
770.315	56.77
770.63	57.2
770.945	57.42
771.26	57.43
771.575	57.17
771.89	56.91
772.205	57.11
772.52	57.47
772.834	57.86
773.149	57.78
773.464	57.84
773.778	57.7
774.093	57.78
774.407	57.56
774.722	57.29
775.036	57.14
775.351	57.89
775.665	57.57
775.979	57.46
776.293	57.75
776.608	57.96
776.922	57.41
777.236	56.87
777.55	56.46
777.864	56.48
778.178	56.9
778.492	57.05
778.806	57.12
779.12	56.95
779.434	56.66
779.747	56.11
780.061	56.19
780.375	56.02
780.689	55.81
781.002	55.81
781.316	55.89
781.629	56.23
781.943	55.71
782.256	55.9
782.57	55.9
782.883	56.38
783.196	56.38
783.51	56.93
783.823	57.08
784.136	57.5
784.449	57.21
784.762	57.01
785.075	57.24
785.388	57.3
785.701	57.1
786.014	56.9
786.327	57.41
786.64	57.53
786.953	58.03
787.266	58.31
787.578	58.43
787.891	58.8
788.204	58.34
788.516	58.36
788.829	57.97
789.141	58.09
789.454	57.53
789.766	57.59
790.079	57.89
790.391	57.8
790.703	57.45
791.016	57.66
791.328	58.34
791.64	58.31
791.952	58.11
792.264	58.19
792.576	58.39
792.888	57.87
793.2	57.88
793.512	57.19
793.824	56.84
794.136	56.96
794.448	56.9
794.76	57.33
795.071	57.48
795.383	57.78
795.695	57.78
796.006	58.17
796.318	58.17
796.629	57.83
796.941	58
797.252	58.67
797.564	58.68
797.875	58.38
798.186	58.67
798.497	58.31
798.809	58.18
799.12	57.55
799.431	57.57
799.742	57.51
800.053	57.93
800.364	58.02
800.675	57.68
800.986	57.61
801.297	57.6
801.608	57.74
801.918	58.39
802.229	57.89
802.54	57.26
802.851	56.84
803.161	57.42
803.472	57.42
803.782	57.05
804.093	56.63
804.403	56.65
804.714	56.14
805.024	56.65
805.334	57.35
805.645	57.03
805.955	57.37
806.265	57.02
806.575	56.84
806.885	57.18
807.195	57.24
807.505	57.91
807.815	57.82
808.125	57.49
808.435	56.69
808.745	56.81
809.055	57.39
809.365	58
809.674	56.58
809.984	55.96
810.294	55.55
810.603	55.65
810.913	54.97
811.222	54.74
811.532	54.65
811.841	54.04
812.151	54.56
812.46	54.7
812.769	54.61
813.079	54.93
813.388	54.26
813.697	53.75
814.006	53.54
814.315	53.31
814.624	53.17
814.933	53.18
815.242	53.06
815.551	52.88
815.86	53.09
816.169	53.64
816.478	54.38
816.786	54.49
817.095	54.19
817.404	54.24
817.712	53.63
818.021	54.01
818.33	53.87
818.638	54.22
818.947	54.06
819.255	54.02
819.563	53.74
819.872	54.17
820.18	54.89
820.488	54.66
820.796	54.72
821.105	55.25
821.413	55.47
821.721	55.64
822.029	55.7
822.337	55.59
822.645	55.69
822.953	55.68
823.26	55.79
823.568	56.02
823.876	56.06
824.184	56.44
824.491	56.34
824.799	56.42
825.107	56.49
825.414	56.46
825.722	56.58
826.029	56.65
826.337	56.69
826.644	56.58
826.951	56.52
827.259	56.5
827.566	56.21
827.873	56.04
828.18	56.01
828.488	55.86
828.795	56.07
829.102	56.15
829.409	55.83
829.716	55.79
830.023	55.8
830.329	55.69
830.636	55.53
830.943	55.66
831.25	55.51
831.557	55.64
831.863	56.02
832.17	56.35
832.476	56.3
832.783	56.32
833.089	56.77
833.396	56.96
833.702	56.92
834.009	57.03
834.315	56.98
834.621	56.88
834.928	56.98
835.234	56.28
835.54	56.14
835.846	56.74
836.152	56.38
836.458	56.06
836.764	56.48
837.07	56.27
837.376	56.1
837.682	56.32
837.988	56.16
838.293	56.09
838.599	55.77
838.905	56.08
839.211	55.59
839.516	54.77
839.822	54.92
840.127	55.37
840.433	54.91
840.738	55.55
841.044	56.28
841.349	56.82
841.654	57.44
841.959	58.36
842.265	57.35
842.57	57.45
842.875	57.52
843.18	56.41
843.485	56.12
843.79	56.72
844.095	56.52
844.4	55.21
844.705	54.68
845.01	54.67
845.315	55.25
845.619	56.09
845.924	56.75
846.229	56.71
846.533	56.86
846.838	57.96
847.142	55.86
847.447	54.43
847.751	54.09
848.056	54.57
848.36	52.86
848.664	54.32
848.969	54.7
849.273	54.67
849.577	56.14
849.881	57.14
850.185	55.38
850.489	55.46
850.794	57.74
851.097	57.12
851.401	56.66
851.705	55.75
852.009	55.65
852.313	53.98
852.617	53.48
852.92	53.11
853.224	52.61
853.528	54.22
853.831	54.35
854.135	54.58
854.438	53.87
854.742	52.54
855.045	53.2
855.349	51.37
855.652	50.97
855.955	50.06
856.259	48.82
856.562	49.9
856.865	50.98
857.168	51.53
857.471	51.62
857.774	51.85
858.077	54.57
858.38	53.02
858.683	54.26
858.986	55.96
859.289	54.83
859.592	56.63
859.894	56.8
860.197	55.96
860.5	56.45
860.802	56.08
861.105	58.79
861.407	58.26
861.71	59.55
862.012	59.9
862.315	60.92
862.617	60.14
862.919	60.91
863.222	60.04
863.524	58.7
863.826	59.65
864.128	57.03
864.43	54.73
864.732	55.93
865.034	55.4
865.336	53.18
865.638	54.17
865.94	51.32
866.242	51.6
866.544	54.69
866.846	53.53
867.147	54.59
867.449	53.68
867.751	54.21
868.052	55.56
868.354	56.25
868.655	56.16
868.957	58.79
869.258	59.24
869.56	56.15
869.861	57.36
870.162	57.11
870.463	59.93
870.765	59.29
871.066	59.95
871.367	57.34
871.668	57.6
871.969	58.52
872.27	59.31
872.571	56.89
872.872	57.13
873.173	55.4
873.473	53.84
873.774	54.79
874.075	53.91
874.376	51.84
874.676	49.95
874.977	50.59
875.277	49.34
875.578	47.49
875.878	49.73
876.179	48.02
876.479	47.76
876.78	46.62
877.08	46.95
877.38	45.82
877.68	49.57
877.981	50.49
878.281	48.36
878.581	48.42
