Data from BU26941_Reflection_00015.txt Node
Date: Tue Nov 19 11:03:52 EST 2019
User: vgr7
Spectrometer: USB2G7710
Scans to average: 3
Trigger mode: 4
Integration Time (sec): 2.000000E-2
Electric dark correction enabled: true
Boxcar width: 10
XAxis mode: Wavelengths
Number of Pixels in Spectrum: 2048
>>>>>Begin Spectral Data<<<<<
177.721	196.51
178.105	138.07
178.488	206.57
178.871	213.51
179.254	104.92
179.636	138.59
180.019	25.59
180.402	180
180.785	241.51
181.168	11725
181.55	-257.87
181.933	-1230.99
182.316	630.08
182.698	657.85
183.081	1518.92
183.463	-232.34
183.846	-290.76
184.228	681.63
184.611	-166.55
184.993	-137.31
185.376	-342.2
185.758	-139.56
186.14	-116.46
186.522	-19.34
186.904	-55.64
187.287	-93.76
187.669	-111.3
188.051	-179.96
188.433	-355.43
188.815	-227.88
189.197	-169.73
189.579	-309.71
189.961	-337.68
190.342	-230.73
190.724	-334.73
191.106	-445.82
191.488	-358.87
191.869	-224.25
192.251	-242.01
192.633	-325.73
193.014	-354.67
193.396	-337.68
193.777	-232.98
194.159	-321.11
194.54	-321.78
194.922	-811.48
195.303	-978.38
195.684	-539.93
196.065	-510.41
196.447	-225.49
196.828	-157.21
197.209	-226.09
197.59	-131.57
197.971	-96.41
198.352	-73.89
198.733	-71.47
199.114	-36.64
199.495	-36.63
199.876	-25.15
200.257	-33.84
200.638	-6.54
201.018	-7.04
201.399	8.65
201.78	11.89
202.16	16.25
202.541	15.63
202.922	39.13
203.302	60.83
203.683	32.34
204.063	44.22
204.444	77.87
204.824	88.19
205.204	88.41
205.585	158.44
205.965	186.63
206.345	210.89
206.725	128.4
207.106	84.07
207.486	113.04
207.866	103.34
208.246	126.52
208.626	52.43
209.006	21.45
209.386	11.41
209.766	57.14
210.145	67.31
210.525	113.43
210.905	55.27
211.285	-5.74
211.664	104.48
212.044	23.63
212.424	60.62
212.803	56.23
213.183	43.96
213.562	41.79
213.942	80.11
214.321	95.75
214.701	220.44
215.08	319.1
215.459	-1.29
215.838	14.45
216.218	-10.84
216.597	352.81
216.976	-249.62
217.355	-22400
217.734	-65.07
218.113	-122.77
218.492	-521.95
218.871	-89.8
219.25	-41.11
219.629	-103.79
220.008	-13.98
220.387	-56.88
220.766	-21.96
221.144	13.89
221.523	9.97
221.902	6.61
222.28	13.56
222.659	30.68
223.037	28.66
223.416	42.9
223.794	43.52
224.173	27.6
224.551	22.91
224.929	21.1
225.308	18.37
225.686	18.23
226.064	8.52
226.442	1.12
226.821	2.32
227.199	5.56
227.577	7.27
227.955	5.73
228.333	4.57
228.711	-0.23
229.089	-5.8
229.467	-6.76
229.845	-6.65
230.222	-7.2
230.6	-9.92
230.978	-9.29
231.356	-11.3
231.733	-8.99
232.111	-5.8
232.488	-5.28
232.866	-5.07
233.243	-2.53
233.621	1.37
233.998	0.36
234.376	1.53
234.753	3.63
235.13	3.08
235.508	1.49
235.885	3.4
236.262	3.19
236.639	3.67
237.016	5.28
237.393	4.72
237.77	5.27
238.147	4.03
238.524	5.16
238.901	4.26
239.278	4.64
239.655	4.14
240.032	4.51
240.409	4.18
240.785	4.51
241.162	4.12
241.539	3.43
241.915	3.52
242.292	3.62
242.668	3.69
243.045	3.53
243.421	4.04
243.798	3.52
244.174	3.7
244.551	4.02
244.927	3.86
245.303	4.12
245.679	4.09
246.056	4.17
246.432	4
246.808	4.53
247.184	4.63
247.56	4.35
247.936	4.41
248.312	4.53
248.688	4.43
249.064	4.54
249.44	4.41
249.815	4.77
250.191	5.01
250.567	5.02
250.943	5.34
251.318	5.35
251.694	5.33
252.069	5.76
252.445	5.7
252.82	5.82
253.196	5.83
253.571	5.96
253.947	6.36
254.322	6.53
254.697	6.14
255.073	5.81
255.448	5.89
255.823	6.02
256.198	5.84
256.573	5.64
256.948	5.53
257.323	5.63
257.698	5.53
258.073	5.23
258.448	5.2
258.823	5.02
259.198	4.92
259.573	4.94
259.948	4.66
260.322	4.59
260.697	4.68
261.072	4.63
261.446	4.49
261.821	4.28
262.195	4.19
262.57	4.24
262.944	4.38
263.319	4.53
263.693	4.31
264.067	4.19
264.442	4.21
264.816	4.09
265.19	3.96
265.564	3.95
265.938	4.12
266.313	3.89
266.687	4
267.061	3.97
267.435	4.04
267.809	3.99
268.183	4.09
268.556	3.94
268.93	4.02
269.304	4.03
269.678	4.18
270.051	4.23
270.425	4.24
270.799	4.09
271.172	3.93
271.546	3.81
271.919	3.82
272.293	3.87
272.666	3.91
273.04	3.98
273.413	3.89
273.787	3.77
274.16	3.73
274.533	3.65
274.906	3.74
275.279	3.72
275.653	3.72
276.026	3.85
276.399	3.73
276.772	3.76
277.145	3.78
277.518	3.63
277.891	3.66
278.263	3.63
278.636	3.77
279.009	3.94
279.382	4.16
279.755	4.19
280.127	4.28
280.5	4.32
280.872	4.43
281.245	4.43
281.617	4.44
281.99	4.64
282.362	4.7
282.735	4.5
283.107	4.45
283.479	4.43
283.852	4.3
284.224	4.47
284.596	4.41
284.968	4.29
285.34	4.4
285.713	4.41
286.085	4.3
286.457	4.21
286.829	4.28
287.201	4.24
287.572	4.28
287.944	4.31
288.316	4.38
288.688	4.33
289.06	4.36
289.431	4.49
289.803	4.46
290.175	4.4
290.546	4.55
290.918	4.66
291.289	4.69
291.661	4.83
292.032	4.85
292.403	5.03
292.775	5.17
293.146	5.33
293.517	5.36
293.889	5.39
294.26	5.48
294.631	5.46
295.002	5.47
295.373	5.46
295.744	5.41
296.115	5.41
296.486	5.49
296.857	5.59
297.228	5.61
297.599	5.5
297.97	5.58
298.34	5.69
298.711	5.6
299.082	5.79
299.452	5.75
299.823	5.8
300.194	5.71
300.564	5.83
300.935	5.81
301.305	5.86
301.676	6.07
302.046	6.17
302.416	6.19
302.787	6.4
303.157	6.54
303.527	6.8
303.897	6.97
304.267	6.97
304.637	7.05
305.008	7.16
305.378	7.41
305.748	7.57
306.117	7.6
306.487	7.93
306.857	7.93
307.227	8.17
307.597	8.24
307.967	8.36
308.336	8.36
308.706	8.46
309.076	8.81
309.445	8.86
309.815	9.01
310.184	9.11
310.554	9.01
310.923	9.08
311.293	9.1
311.662	9.18
312.031	9.31
312.401	9.38
312.77	9.43
313.139	9.5
313.508	9.53
313.877	9.65
314.246	9.72
314.616	9.86
314.985	9.79
315.353	10.02
315.722	10.18
316.091	10.31
316.46	10.37
316.829	10.11
317.198	10.39
317.567	10.51
317.935	10.53
318.304	10.86
318.672	11.08
319.041	11.17
319.41	11.18
319.778	11.11
320.147	11.33
320.515	11.39
320.883	11.52
321.252	11.65
321.62	11.66
321.988	11.82
322.357	11.93
322.725	12.14
323.093	12.16
323.461	12.13
323.829	12.2
324.197	12.3
324.565	12.44
324.933	12.39
325.301	12.33
325.669	12.55
326.037	12.65
326.405	12.57
326.772	12.62
327.14	12.6
327.508	12.74
327.875	12.73
328.243	12.95
328.61	12.91
328.978	12.73
329.346	12.85
329.713	12.84
330.08	12.79
330.448	12.64
330.815	12.6
331.182	12.71
331.55	12.76
331.917	12.76
332.284	12.76
332.651	12.75
333.018	12.84
333.385	12.8
333.752	12.77
334.119	12.85
334.486	12.82
334.853	12.97
335.22	12.99
335.587	13
335.954	12.86
336.32	13.01
336.687	13.28
337.054	13.29
337.42	13.17
337.787	13.27
338.153	13.44
338.52	13.58
338.886	13.78
339.253	13.88
339.619	13.89
339.986	13.84
340.352	13.89
340.718	13.91
341.084	14.02
341.451	14.13
341.817	14.08
342.183	14.13
342.549	14.24
342.915	14.36
343.281	14.35
343.647	14.44
344.013	14.38
344.379	14.28
344.745	14.22
345.11	14.38
345.476	14.47
345.842	14.42
346.208	14.42
346.573	14.28
346.939	14.27
347.304	14.39
347.67	14.5
348.035	14.54
348.401	14.61
348.766	14.51
349.132	14.41
349.497	14.52
349.862	14.57
350.228	14.43
350.593	14.35
350.958	14.4
351.323	14.33
351.688	14.35
352.053	14.44
352.418	14.47
352.783	14.42
353.148	14.29
353.513	14.29
353.878	14.23
354.243	14.18
354.608	14.14
354.972	14.09
355.337	14.08
355.702	14.01
356.066	13.97
356.431	14.01
356.795	14.03
357.16	13.96
357.524	13.97
357.889	13.95
358.253	13.97
358.618	14.02
358.982	14.03
359.346	13.92
359.71	13.86
360.075	13.94
360.439	13.95
360.803	14.03
361.167	14.03
361.531	14.01
361.895	14.06
362.259	14.03
362.623	13.97
362.987	13.91
363.351	13.84
363.714	13.77
364.078	13.76
364.442	13.74
364.806	13.72
365.169	13.65
365.533	13.66
365.896	13.64
366.26	13.49
366.623	13.41
366.987	13.51
367.35	13.53
367.714	13.44
368.077	13.31
368.44	13.23
368.803	13.19
369.167	13.21
369.53	13.15
369.893	13.13
370.256	13.09
370.619	13.1
370.982	13.07
371.345	13.06
371.708	13
372.071	12.88
372.434	12.78
372.797	12.68
373.159	12.59
373.522	12.46
373.885	12.39
374.247	12.39
374.61	12.28
374.973	12.18
375.335	12.1
375.698	12.05
376.06	11.96
376.423	11.89
376.785	11.77
377.147	11.64
377.51	11.61
377.872	11.54
378.234	11.47
378.596	11.42
378.958	11.37
379.321	11.25
379.683	11.23
380.045	11.18
380.407	11.16
380.769	11.1
381.13	11.04
381.492	10.97
381.854	10.85
382.216	10.79
382.578	10.74
382.939	10.64
383.301	10.64
383.663	10.56
384.024	10.46
384.386	10.47
384.747	10.38
385.109	10.31
385.47	10.29
385.832	10.18
386.193	10.14
386.554	10.01
386.916	9.98
387.277	9.9
387.638	9.84
387.999	9.78
388.36	9.69
388.721	9.68
389.082	9.66
389.443	9.64
389.804	9.6
390.165	9.53
390.526	9.52
390.887	9.44
391.248	9.39
391.609	9.4
391.969	9.26
392.33	9.19
392.691	9.1
393.051	8.99
393.412	8.97
393.772	8.92
394.133	8.87
394.493	8.76
394.854	8.71
395.214	8.64
395.574	8.56
395.935	8.52
396.295	8.45
396.655	8.37
397.015	8.27
397.376	8.22
397.736	8.12
398.096	8.05
398.456	7.94
398.816	7.89
399.176	7.75
399.535	7.71
399.895	7.71
400.255	7.66
400.615	7.65
400.975	7.56
401.334	7.51
401.694	7.47
402.054	7.44
402.413	7.37
402.773	7.35
403.132	7.32
403.492	7.26
403.851	7.18
404.211	7.15
404.57	7.12
404.929	7.07
405.288	7.07
405.648	7.01
406.007	6.98
406.366	6.95
406.725	6.93
407.084	6.91
407.443	6.89
407.802	6.84
408.161	6.81
408.52	6.81
408.879	6.78
409.238	6.79
409.596	6.8
409.955	6.77
410.314	6.74
410.673	6.71
411.031	6.71
411.39	6.76
411.748	6.73
412.107	6.7
412.465	6.65
412.824	6.58
413.182	6.55
413.54	6.54
413.899	6.51
414.257	6.51
414.615	6.47
414.974	6.43
415.332	6.4
415.69	6.37
416.048	6.32
416.406	6.24
416.764	6.2
417.122	6.13
417.48	6.11
417.838	6.06
418.195	6.02
418.553	5.96
418.911	5.89
419.269	5.85
419.626	5.83
419.984	5.81
420.342	5.79
420.699	5.74
421.057	5.72
421.414	5.7
421.772	5.67
422.129	5.63
422.486	5.59
422.844	5.57
423.201	5.53
423.558	5.5
423.915	5.49
424.273	5.47
424.63	5.46
424.987	5.44
425.344	5.43
425.701	5.39
426.058	5.38
426.415	5.37
426.772	5.35
427.128	5.32
427.485	5.31
427.842	5.28
428.199	5.3
428.555	5.27
428.912	5.24
429.269	5.2
429.625	5.19
429.982	5.19
430.338	5.17
430.695	5.17
431.051	5.17
431.407	5.15
431.764	5.13
432.12	5.11
432.476	5.09
432.832	5.09
433.189	5.1
433.545	5.11
433.901	5.13
434.257	5.14
434.613	5.14
434.969	5.13
435.325	5.14
435.681	5.14
436.036	5.13
436.392	5.13
436.748	5.16
437.104	5.16
437.459	5.19
437.815	5.22
438.171	5.22
438.526	5.22
438.882	5.24
439.237	5.24
439.593	5.25
439.948	5.25
440.304	5.25
440.659	5.24
441.014	5.23
441.369	5.21
441.725	5.19
442.08	5.19
442.435	5.19
442.79	5.17
443.145	5.15
443.5	5.14
443.855	5.13
444.21	5.1
444.565	5.07
444.92	5.05
445.275	5.01
445.629	4.99
445.984	4.97
446.339	4.94
446.693	4.94
447.048	4.9
447.403	4.89
447.757	4.87
448.112	4.85
448.466	4.84
448.82	4.81
449.175	4.8
449.529	4.8
449.883	4.78
450.238	4.78
450.592	4.75
450.946	4.74
451.3	4.72
451.654	4.71
452.008	4.72
452.362	4.71
452.716	4.7
453.07	4.68
453.424	4.67
453.778	4.66
454.132	4.64
454.486	4.64
454.839	4.63
455.193	4.63
455.547	4.63
455.9	4.64
456.254	4.64
456.607	4.66
456.961	4.66
457.314	4.66
457.668	4.67
458.021	4.69
458.375	4.67
458.728	4.68
459.081	4.68
459.434	4.7
459.787	4.7
460.141	4.72
460.494	4.74
460.847	4.76
461.2	4.78
461.553	4.82
461.906	4.85
462.259	4.86
462.611	4.88
462.964	4.91
463.317	4.93
463.67	4.94
464.022	4.96
464.375	4.98
464.728	5.01
465.08	5.03
465.433	5.07
465.785	5.12
466.138	5.16
466.49	5.23
466.843	5.25
467.195	5.27
467.547	5.3
467.899	5.35
468.252	5.41
468.604	5.45
468.956	5.49
469.308	5.51
469.66	5.57
470.012	5.59
470.364	5.61
470.716	5.63
471.068	5.7
471.42	5.74
471.772	5.77
472.123	5.79
472.475	5.81
472.827	5.82
473.178	5.83
473.53	5.83
473.882	5.8
474.233	5.8
474.585	5.79
474.936	5.8
475.288	5.78
475.639	5.77
475.99	5.74
476.342	5.72
476.693	5.7
477.044	5.66
477.395	5.65
477.746	5.63
478.097	5.6
478.448	5.55
478.8	5.53
479.15	5.49
479.501	5.45
479.852	5.43
480.203	5.41
480.554	5.41
480.905	5.4
481.255	5.41
481.606	5.4
481.957	5.4
482.307	5.41
482.658	5.4
483.009	5.38
483.359	5.38
483.709	5.37
484.06	5.38
484.41	5.38
484.761	5.37
485.111	5.37
485.461	5.38
485.811	5.39
486.162	5.37
486.512	5.38
486.862	5.4
487.212	5.41
487.562	5.41
487.912	5.41
488.262	5.42
488.612	5.42
488.961	5.43
489.311	5.43
489.661	5.43
490.011	5.44
490.36	5.46
490.71	5.47
491.06	5.49
491.409	5.5
491.759	5.53
492.108	5.57
492.458	5.61
492.807	5.63
493.157	5.66
493.506	5.72
493.855	5.78
494.204	5.83
494.554	5.88
494.903	5.94
495.252	6
495.601	6.07
495.95	6.17
496.299	6.26
496.648	6.37
496.997	6.45
497.346	6.55
497.695	6.66
498.043	6.78
498.392	6.89
498.741	6.99
499.09	7.09
499.438	7.19
499.787	7.31
500.135	7.43
500.484	7.56
500.832	7.69
501.181	7.84
501.529	7.97
501.878	8.13
502.226	8.29
502.574	8.47
502.923	8.65
503.271	8.8
503.619	8.99
503.967	9.17
504.315	9.35
504.663	9.54
505.011	9.73
505.359	9.94
505.707	10.14
506.055	10.36
506.403	10.56
506.751	10.79
507.098	10.99
507.446	11.21
507.794	11.45
508.141	11.66
508.489	11.9
508.837	12.14
509.184	12.36
509.531	12.62
509.879	12.85
510.226	13.05
510.574	13.26
510.921	13.49
511.268	13.7
511.616	13.95
511.963	14.19
512.31	14.43
512.657	14.64
513.004	14.89
513.351	15.15
513.698	15.44
514.045	15.69
514.392	15.96
514.739	16.24
515.086	16.5
515.432	16.78
515.779	17.01
516.126	17.27
516.473	17.51
516.819	17.71
517.166	17.92
517.512	18.14
517.859	18.35
518.205	18.53
518.552	18.74
518.898	18.93
519.245	19.14
519.591	19.34
519.937	19.54
520.283	19.76
520.629	19.94
520.976	20.13
521.322	20.36
521.668	20.56
522.014	20.75
522.36	20.97
522.706	21.19
523.052	21.45
523.398	21.67
523.743	21.94
524.089	22.22
524.435	22.49
524.781	22.75
525.126	22.98
525.472	23.19
525.817	23.37
526.163	23.54
526.509	23.71
526.854	23.87
527.199	24.04
527.545	24.16
527.89	24.27
528.235	24.4
528.581	24.53
528.926	24.67
529.271	24.81
529.616	24.97
529.961	25.11
530.306	25.25
530.651	25.4
530.996	25.55
531.341	25.69
531.686	25.83
532.031	25.98
532.376	26.14
532.721	26.32
533.065	26.5
533.41	26.68
533.755	26.84
534.099	26.99
534.444	27.15
534.788	27.3
535.133	27.48
535.477	27.69
535.822	27.89
536.166	28.11
536.51	28.34
536.855	28.55
537.199	28.76
537.543	28.97
537.887	29.2
538.231	29.41
538.576	29.66
538.92	29.86
539.264	30.06
539.608	30.22
539.951	30.4
540.295	30.56
540.639	30.71
540.983	30.86
541.327	30.99
541.671	31.17
542.014	31.34
542.358	31.5
542.701	31.63
543.045	31.73
543.389	31.85
543.732	31.97
544.075	32.07
544.419	32.21
544.762	32.35
545.105	32.48
545.449	32.61
545.792	32.76
546.135	32.93
546.478	33.06
546.821	33.24
547.165	33.39
547.508	33.54
547.851	33.69
548.194	33.86
548.536	34.04
548.879	34.15
549.222	34.29
549.565	34.44
549.908	34.56
550.25	34.74
550.593	34.92
550.936	35.04
551.278	35.17
551.621	35.3
551.963	35.43
552.306	35.59
552.648	35.74
552.991	35.8
553.333	35.92
553.675	36.05
554.017	36.16
554.36	36.28
554.702	36.39
555.044	36.47
555.386	36.59
555.728	36.72
556.07	36.8
556.412	36.95
556.754	37.03
557.096	37.18
557.438	37.22
557.78	37.23
558.121	37.33
558.463	37.44
558.805	37.57
559.147	37.66
559.488	37.71
559.83	37.81
560.171	37.96
560.513	38.06
560.854	38.14
561.196	38.23
561.537	38.3
561.878	38.41
562.22	38.54
562.561	38.58
562.902	38.66
563.243	38.72
563.584	38.76
563.925	38.82
564.266	38.86
564.607	38.94
564.948	39.02
565.289	39.1
565.63	39.2
565.971	39.28
566.312	39.37
566.653	39.44
566.993	39.44
567.334	39.45
567.675	39.57
568.015	39.61
568.356	39.66
568.696	39.72
569.037	39.72
569.377	39.76
569.718	39.87
570.058	39.91
570.398	40
570.739	40.07
571.079	40.13
571.419	40.2
571.759	40.28
572.099	40.38
572.439	40.42
572.779	40.49
573.119	40.51
573.459	40.56
573.799	40.67
574.139	40.78
574.479	40.86
574.819	40.88
575.158	41.02
575.498	41.04
575.838	41.08
576.177	41.17
576.517	41.23
576.856	41.27
577.196	41.33
577.535	41.36
577.875	41.44
578.214	41.52
578.553	41.57
578.893	41.64
579.232	41.69
579.571	41.79
579.91	41.82
580.25	41.89
580.589	41.86
580.928	41.84
581.267	41.9
581.606	41.92
581.945	41.95
582.283	41.87
582.622	41.96
582.961	42.03
583.3	42
583.639	42.07
583.977	42.09
584.316	42.06
584.654	42.15
584.993	42.14
585.332	42.19
585.67	42.22
586.008	42.32
586.347	42.34
586.685	42.4
587.024	42.39
587.362	42.44
587.7	42.56
588.038	42.66
588.376	42.66
588.715	42.73
589.053	42.79
589.391	42.87
589.729	42.9
590.067	42.9
590.404	43
590.742	42.94
591.08	42.96
591.418	43.01
591.756	43.03
592.093	43.07
592.431	43.18
592.769	43.25
593.106	43.25
593.444	43.31
593.781	43.27
594.119	43.37
594.456	43.37
594.793	43.39
595.131	43.38
595.468	43.45
595.805	43.49
596.143	43.48
596.48	43.52
596.817	43.59
597.154	43.68
597.491	43.69
597.828	43.84
598.165	43.89
598.502	43.93
598.839	43.97
599.176	44
599.512	43.97
599.849	44.04
600.186	44.07
600.523	44.05
600.859	44.11
601.196	44.17
601.532	44.15
601.869	44.14
602.205	44.15
602.542	44.16
602.878	44.14
603.215	44.23
603.551	44.26
603.887	44.27
604.223	44.21
604.56	44.27
604.896	44.25
605.232	44.3
605.568	44.33
605.904	44.36
606.24	44.43
606.576	44.47
606.912	44.46
607.248	44.45
607.583	44.49
607.919	44.53
608.255	44.49
608.591	44.55
608.926	44.65
609.262	44.72
609.597	44.72
609.933	44.77
610.268	44.77
610.604	44.76
610.939	44.76
611.275	44.83
611.61	44.81
611.945	44.85
612.281	44.81
612.616	44.9
612.951	44.97
613.286	44.95
613.621	44.95
613.956	44.99
614.291	45.07
614.626	45.15
614.961	45.15
615.296	45.22
615.631	45.31
615.966	45.3
616.3	45.31
616.635	45.33
616.97	45.42
617.304	45.38
617.639	45.4
617.973	45.46
618.308	45.5
618.642	45.58
618.977	45.61
619.311	45.71
619.646	45.63
619.98	45.58
620.314	45.58
620.648	45.59
620.983	45.64
621.317	45.65
621.651	45.6
621.985	45.59
622.319	45.57
622.653	45.54
622.987	45.56
623.321	45.58
623.655	45.67
623.988	45.67
624.322	45.7
624.656	45.76
624.99	45.74
625.323	45.74
625.657	45.77
625.99	45.8
626.324	45.75
626.657	45.81
626.991	45.84
627.324	45.88
627.658	45.93
627.991	45.95
628.324	45.91
628.657	46.01
628.991	46.11
629.324	46.1
629.657	46.16
629.99	46.11
630.323	46.1
630.656	46.02
630.989	45.93
631.322	45.99
631.655	46
631.987	46
632.32	46
632.653	45.99
632.986	45.99
633.318	46.06
633.651	46.06
633.984	46.04
634.316	46.12
634.649	46.13
634.981	46.08
635.313	46.2
635.646	46.14
635.978	46.16
636.31	46.19
636.643	46.16
636.975	46.28
637.307	46.3
637.639	46.38
637.971	46.4
638.303	46.36
638.635	46.37
638.967	46.4
639.299	46.43
639.631	46.46
639.963	46.4
640.295	46.47
640.626	46.51
640.958	46.62
641.29	46.52
641.621	46.46
641.953	46.59
642.285	46.57
642.616	46.62
642.948	46.59
643.279	46.62
643.61	46.77
643.942	46.71
644.273	46.79
644.604	46.87
644.936	46.98
645.267	47.04
645.598	47.12
645.929	47.11
646.26	47.22
646.591	47.19
646.922	47.29
647.253	47.34
647.584	47.37
647.915	47.33
648.245	47.38
648.576	47.38
648.907	47.31
649.238	47.23
649.568	47.28
649.899	47.28
650.229	47.35
650.56	47.3
650.89	47.27
651.221	47.29
651.551	47.19
651.882	47.17
652.212	47.15
652.542	47.23
652.872	47.36
653.203	47.37
653.533	47.44
653.863	47.45
654.193	47.31
654.523	47.27
654.853	47.32
655.183	47.36
655.513	47.45
655.843	47.42
656.172	47.53
656.502	47.48
656.832	47.59
657.162	47.67
657.491	47.71
657.821	47.8
658.15	47.77
658.48	47.89
658.809	47.94
659.139	47.98
659.468	47.99
659.798	48.03
660.127	47.94
660.456	47.91
660.785	47.97
661.115	48.03
661.444	48.11
661.773	48.18
662.102	48.1
662.431	48.16
662.76	48.26
663.089	48.29
663.418	48.29
663.747	48.23
664.076	48.22
664.404	48.24
664.733	48.29
665.062	48.45
665.39	48.33
665.719	48.38
666.048	48.47
666.376	48.39
666.705	48.3
667.033	48.4
667.362	48.42
667.69	48.41
668.018	48.52
668.347	48.45
668.675	48.53
669.003	48.66
669.331	48.56
669.659	48.55
669.987	48.6
670.315	48.7
670.643	48.72
670.971	48.68
671.299	48.62
671.627	48.71
671.955	48.6
672.283	48.6
672.61	48.63
672.938	48.6
673.266	48.64
673.593	48.6
673.921	48.54
674.249	48.46
674.576	48.48
674.904	48.43
675.231	48.45
675.558	48.38
675.886	48.45
676.213	48.64
676.54	48.7
676.867	48.54
677.195	48.52
677.522	48.54
677.849	48.65
678.176	48.82
678.503	48.73
678.83	48.76
679.157	48.87
679.484	48.82
679.81	48.81
680.137	48.93
680.464	49.14
680.791	49.19
681.117	49.37
681.444	49.37
681.771	49.34
682.097	49.32
682.424	49.37
682.75	49.26
683.077	49.2
683.403	49.18
683.729	49.28
684.056	49.34
684.382	49.47
684.708	49.34
685.034	49.24
685.36	49.24
685.686	49.23
686.012	49.22
686.339	49.24
686.664	49.31
686.99	49.07
687.316	48.91
687.642	48.92
687.968	49.02
688.294	49.09
688.619	49.19
688.945	49.19
689.271	49.26
689.596	49.33
689.922	49.39
690.247	49.34
690.573	49.36
690.898	49.37
691.224	49.29
691.549	49.38
691.874	49.3
692.2	49.26
692.525	49.29
692.85	49.43
693.175	49.48
693.5	49.54
693.825	49.56
694.15	49.54
694.475	49.45
694.8	49.29
695.125	49.28
695.45	49.27
695.775	49.32
696.099	49.16
696.424	49.22
696.749	49.2
697.073	49.21
697.398	49.17
697.723	49.27
698.047	49.36
698.372	49.32
698.696	49.2
699.02	49.38
699.345	49.37
699.669	49.26
699.993	49.13
700.318	49.08
700.642	49.16
700.966	49.29
701.29	49.47
701.614	49.48
701.938	49.42
702.262	49.46
702.586	49.58
702.91	49.57
703.234	49.47
703.557	49.52
703.881	49.59
704.205	49.76
704.529	49.63
704.852	49.51
705.176	49.65
705.499	49.87
705.823	49.7
706.146	49.81
706.47	49.92
706.793	50.03
707.117	50.09
707.44	50.24
707.763	50.19
708.086	50.21
708.409	50.33
708.733	50.27
709.056	50.27
709.379	50.2
709.702	50.17
710.025	50.38
710.348	50.25
710.671	50.39
710.993	50.23
711.316	50.22
711.639	50.25
711.962	50.16
712.284	50.21
712.607	50.23
712.93	50.15
713.252	50.18
713.575	50.31
713.897	50.34
714.22	50.14
714.542	50.09
714.864	49.93
715.187	49.85
715.509	49.94
715.831	49.87
716.153	49.97
716.475	50.09
716.798	49.98
717.12	49.96
717.442	49.89
717.764	49.95
718.085	50.14
718.407	50.04
718.729	50.13
719.051	50.24
719.373	50.45
719.695	50.49
720.016	50.47
720.338	50.52
720.659	50.56
720.981	50.8
721.302	50.93
721.624	50.87
721.945	51
722.267	50.99
722.588	51
722.909	50.89
723.231	50.94
723.552	50.98
723.873	51.52
724.194	51.62
724.515	51.66
724.836	51.62
725.157	51.72
725.478	51.56
725.799	51.42
726.12	51.42
726.441	51.37
726.762	51.49
727.083	51.32
727.403	51.07
727.724	50.97
728.045	51
728.365	51.02
728.686	50.96
729.006	51.09
729.327	51.18
729.647	51.13
729.967	50.99
730.288	51.01
730.608	50.79
730.928	50.77
731.249	50.72
731.569	50.81
731.889	50.84
732.209	50.97
732.529	51.07
732.849	50.94
733.169	50.96
733.489	50.74
733.809	50.9
734.129	50.99
734.448	51.09
734.768	50.88
735.088	50.99
735.408	50.8
735.727	50.71
736.047	50.8
736.366	50.73
736.686	50.83
737.005	50.81
737.325	50.65
737.644	50.54
737.963	50.69
738.283	50.78
738.602	50.79
738.921	50.74
739.24	50.7
739.56	50.71
739.879	50.87
740.198	51.17
740.517	50.93
740.836	50.89
741.155	50.69
741.473	51.01
741.792	51.02
742.111	51.19
742.43	51.19
742.748	51.11
743.067	51.19
743.386	51.2
743.704	51.15
744.023	51.27
744.341	51.27
744.66	51.25
744.978	51.06
745.297	51.03
745.615	50.93
745.933	50.99
746.252	51.03
746.57	50.85
746.888	50.48
747.206	50.46
747.524	50.52
747.842	50.75
748.16	50.48
748.478	50.67
748.796	50.96
749.114	50.96
749.432	50.87
749.749	50.96
750.067	50.99
750.385	51.08
750.703	50.84
751.02	51.05
751.338	50.89
751.655	50.84
751.973	50.86
752.29	51.06
752.608	51.15
752.925	51.35
753.242	51.33
753.56	51.44
753.877	51.5
754.194	51.64
754.511	51.66
754.828	51.77
755.145	51.47
755.462	51.12
755.779	51.02
756.096	51.16
756.413	51.2
756.73	51.16
757.047	51.14
757.364	51.21
757.68	51.07
757.997	51.15
758.314	51.16
758.63	51.28
758.947	51.54
759.264	51.41
759.58	51.33
759.896	51.32
760.213	51.38
760.529	51.21
760.846	50.94
761.162	50.95
761.478	50.73
761.794	50.73
762.11	50.96
762.426	51.18
762.743	51.05
763.059	51.02
763.375	50.96
763.69	51.07
764.006	51.03
764.322	51.16
764.638	51.09
764.954	51.04
765.27	50.78
765.585	50.59
765.901	50.37
766.216	50.13
766.532	50.34
766.848	50.32
767.163	50.7
767.478	50.94
767.794	50.54
768.109	50.77
768.424	50.93
768.74	50.58
769.055	50.42
769.37	50.42
769.685	50.44
770	50.59
770.315	50.56
770.63	50.66
770.945	50.38
771.26	50.47
771.575	50.51
771.89	50.77
772.205	50.66
772.52	51.27
772.834	51.38
773.149	50.86
773.464	50.69
773.778	50.33
774.093	50.61
774.407	51.02
774.722	50.98
775.036	51.04
775.351	51.65
775.665	51.77
775.979	51.89
776.293	51.94
776.608	52.15
776.922	52.23
777.236	52.33
777.55	52.44
777.864	52.31
778.178	52.63
778.492	53.13
778.806	53.59
779.12	53.28
779.434	53.64
779.747	54.15
780.061	54.21
780.375	54.44
780.689	53.95
781.002	53.72
781.316	54.07
781.629	53.81
781.943	53.5
782.256	53.45
782.57	53.36
782.883	53.3
783.196	53.27
783.51	53.26
783.823	53.21
784.136	53.16
784.449	53.41
784.762	53.03
785.075	52.74
785.388	52.47
785.701	52.92
786.014	52.25
786.327	52.26
786.64	52.4
786.953	52.45
787.266	52.68
787.578	53.11
787.891	52.77
788.204	52.92
788.516	52.78
788.829	52.51
789.141	52.63
789.454	52.69
789.766	52.77
790.079	52.59
790.391	52.6
790.703	52.61
791.016	52.32
791.328	52.37
791.64	52.11
791.952	51.8
792.264	50.96
792.576	51.56
792.888	50.81
793.2	50.94
793.512	50.86
793.824	50.95
794.136	50.73
794.448	50.94
794.76	51.47
795.071	51.3
795.383	51.41
795.695	51.09
796.006	50.87
796.318	50.76
796.629	50.33
796.941	50.46
797.252	50.8
797.564	50.71
797.875	49.83
798.186	50.52
798.497	50.61
798.809	51.17
799.12	50.73
799.431	51.01
799.742	50.99
800.053	50.42
800.364	50.14
800.675	50.56
800.986	50.49
801.297	50.04
801.608	50.28
801.918	50.65
802.229	50.71
802.54	50.38
802.851	50.45
803.161	50.92
803.472	50.9
803.782	50.47
804.093	50.94
804.403	51.56
804.714	51.02
805.024	50.87
805.334	50.87
805.645	51.01
805.955	51.35
806.265	51.07
806.575	51.28
806.885	51.23
807.195	51.47
807.505	50.57
807.815	51.11
808.125	50.98
808.435	50.87
808.745	50.68
809.055	51.14
809.365	50.47
809.674	50.68
809.984	50.91
810.294	51.52
810.603	51.69
810.913	52.3
811.222	52.2
811.532	52.48
811.841	52.4
812.151	52.21
812.46	51.83
812.769	51.48
813.079	51.73
813.388	51.92
813.697	51.1
814.006	52.35
814.315	51.74
814.624	52.16
814.933	52.16
815.242	52.16
815.551	51.8
815.86	52.34
816.169	51.84
816.478	50.85
816.786	50.1
817.095	50.21
817.404	50.05
817.712	50.24
818.021	50.63
818.33	51.19
818.638	51.19
818.947	51.56
819.255	51.87
819.563	51.9
819.872	51.71
820.18	51.75
820.488	51.71
820.796	51.78
821.105	51.74
821.413	52.09
821.721	52.22
822.029	52.62
822.337	52.63
822.645	52.89
822.953	53.11
823.26	53.15
823.568	53.15
823.876	52.84
824.184	52.79
824.491	52.84
824.799	52.78
825.107	52.82
825.414	52.74
825.722	52.82
826.029	52.88
826.337	53.11
826.644	53.07
826.951	53.03
827.259	53.31
827.566	53.35
827.873	53
828.18	52.95
828.488	52.74
828.795	52.92
829.102	52.6
829.409	52.21
829.716	52.23
830.023	52.05
830.329	52.51
830.636	52.32
830.943	51.96
831.25	51.74
831.557	51.88
831.863	52.09
832.17	51.92
832.476	52
832.783	51.82
833.089	52.34
833.396	52.37
833.702	51.72
834.009	51.8
834.315	52.35
834.621	52.56
834.928	52.42
835.234	52.14
835.54	52.41
835.846	53.59
836.152	53.73
836.458	53.89
836.764	54.01
837.07	54.58
837.376	54.63
837.682	55.02
837.988	54.72
838.293	55.06
838.599	55.38
838.905	55.51
839.211	55.75
839.516	55.48
839.822	55.9
840.127	55.28
840.433	54.87
840.738	53.9
841.044	54.18
841.349	54.36
841.654	53.15
841.959	52.84
842.265	51.65
842.57	51.4
842.875	50.88
843.18	49.97
843.485	50.55
843.79	50.37
844.095	50.35
844.4	50.51
844.705	50.89
845.01	50.58
845.315	49.35
845.619	49.45
845.924	49.76
846.229	48.99
846.533	48.56
846.838	49.62
847.142	50.57
847.447	50.29
847.751	49.44
848.056	49.74
848.36	49.79
848.664	49.08
848.969	48.73
849.273	49.43
849.577	49.89
849.881	48.21
850.185	50.18
850.489	48.87
850.794	49.03
851.097	47.02
851.401	46.51
851.705	46.52
852.009	45
852.313	44.83
852.617	45.77
852.92	48.99
853.224	48.74
853.528	47.43
853.831	47.4
854.135	48.88
854.438	48.79
854.742	50.1
855.045	50.13
855.349	51.17
855.652	49.59
855.955	49.88
856.259	49.62
856.562	47.86
856.865	47.22
857.168	46.28
857.471	47.99
857.774	51.26
858.077	51.14
858.38	50.94
858.683	52.68
858.986	52.37
859.289	51.18
859.592	50.36
859.894	49.53
860.197	48.97
860.5	47.58
860.802	49.82
861.105	48.75
861.407	50.97
861.71	49.11
862.012	50.2
862.315	52
862.617	51.59
862.919	54.53
863.222	55.64
863.524	57.19
863.826	56.49
864.128	53.94
864.43	55.19
864.732	56.99
865.034	56.3
865.336	54.48
865.638	55.82
865.94	55.44
866.242	55.89
866.544	55.6
866.846	58.33
867.147	56.93
867.449	59.14
867.751	56.95
868.052	56.85
868.354	56.6
868.655	56.99
868.957	56.78
869.258	55.39
869.56	55.27
869.861	54.92
870.162	55.88
870.463	54.82
870.765	55.23
871.066	53.81
871.367	51.58
871.668	51.84
871.969	52.45
872.27	54.12
872.571	55.05
872.872	55.25
873.173	53.89
873.473	54.38
873.774	54.08
874.075	53.66
874.376	55.09
874.676	56.41
874.977	52.81
875.277	51.97
875.578	51.21
875.878	50.88
876.179	51.33
876.479	49.85
876.78	49.78
877.08	49.69
877.38	50.15
877.68	51.24
877.981	53.41
878.281	51.52
878.581	50.07
