Data from BU26844_Reflection_00003.txt Node
Date: Mon Nov 18 16:36:02 EST 2019
User: vgr7
Spectrometer: USB2G7710
Scans to average: 3
Trigger mode: 4
Integration Time (sec): 2.000000E-2
Electric dark correction enabled: true
Boxcar width: 10
XAxis mode: Wavelengths
Number of Pixels in Spectrum: 2048
>>>>>Begin Spectral Data<<<<<
177.721	635.17
178.105	11433.33
178.488	-211.62
178.871	-7816.67
179.254	101.43
179.636	-535.42
180.019	126.62
180.402	50
180.785	38.65
181.168	118.26
181.55	83.41
181.933	108.93
182.316	154.3
182.698	181.04
183.081	141.6
183.463	190.61
183.846	175.37
184.228	127.41
184.611	225.68
184.993	456.93
185.376	3766.67
185.758	-171.16
186.14	-119.97
186.522	-106.59
186.904	-200.33
187.287	344.98
187.669	-106.12
188.051	-132.95
188.433	1.87
188.815	16.79
189.197	29.35
189.579	31.97
189.961	36.04
190.342	37
190.724	25.33
191.106	10.19
191.488	13.26
191.869	6.26
192.251	-3.14
192.633	-0.03
193.014	-2.99
193.396	-5.36
193.777	-16.44
194.159	-15.54
194.54	-2.11
194.922	-1.13
195.303	-5.15
195.684	0.24
196.065	6.33
196.447	-6.42
196.828	-16.57
197.209	-15.28
197.59	-36.99
197.971	-40.93
198.352	-45.54
198.733	-53.24
199.114	-24.29
199.495	-24.12
199.876	-10.61
200.257	0.95
200.638	-7.25
201.018	-1.06
201.399	-24.25
201.78	-11.59
202.16	5.98
202.541	-38.24
202.922	-66.38
203.302	-93.32
203.683	-81.77
204.063	-195.8
204.444	-246.72
204.824	-177.22
205.204	-121.26
205.585	-182.46
205.965	-103.65
206.345	-82.16
206.725	-127.98
207.106	-264.14
207.486	-420.22
207.866	-842.6
208.246	-883.23
208.626	-1192.83
209.006	-328.35
209.386	-340.33
209.766	-389.29
210.145	-264.39
210.525	-331.05
210.905	-256.4
211.285	-161.08
211.664	-138.1
212.044	-105.89
212.424	-105.39
212.803	-108.59
213.183	-105.11
213.562	-83.06
213.942	-60.85
214.321	-52.53
214.701	-45.24
215.08	-43.74
215.459	-34.86
215.838	-23.5
216.218	-25.58
216.597	-23.23
216.976	-20.85
217.355	-21.91
217.734	-22.18
218.113	-16.73
218.492	-8.32
218.871	-9.64
219.25	-17.57
219.629	-18.58
220.008	-16.27
220.387	-9.13
220.766	-13.25
221.144	-15.05
221.523	-19.26
221.902	-27.38
222.28	-44.25
222.659	-35.89
223.037	-26.75
223.416	-43.19
223.794	-50.07
224.173	-36.37
224.551	-30.07
224.929	-29.64
225.308	-14.42
225.686	-7.1
226.064	-6.7
226.442	-7.08
226.821	-9.06
227.199	-8.16
227.577	-13.39
227.955	-13.41
228.333	-13.02
228.711	-5.74
229.089	-1.43
229.467	-3.62
229.845	-5.93
230.222	-4.94
230.6	-6.57
230.978	-5.33
231.356	-0.18
231.733	-0.53
232.111	-0.37
232.488	-0.47
232.866	-0.31
233.243	-0.58
233.621	-2.53
233.998	-0.3
234.376	-1.89
234.753	-1.22
235.13	-0.28
235.508	2.7
235.885	1.62
236.262	0.72
236.639	-1.41
237.016	-2.19
237.393	-0.25
237.77	0.54
238.147	2.34
238.524	3.29
238.901	3.47
239.278	3.49
239.655	3.74
240.032	3.63
240.409	3.85
240.785	4.04
241.162	3.61
241.539	3.85
241.915	3.51
242.292	3.29
242.668	2.99
243.045	2.95
243.421	2.98
243.798	3.25
244.174	3.39
244.551	3.88
244.927	3.77
245.303	3.95
245.679	4.2
246.056	4.33
246.432	4.45
246.808	4.38
247.184	4.01
247.56	3.93
247.936	3.75
248.312	3.56
248.688	3.59
249.064	3.43
249.44	3.61
249.815	3.32
250.191	3.33
250.567	3.25
250.943	3.13
251.318	3.02
251.694	3
252.069	3.1
252.445	2.65
252.82	2.75
253.196	2.45
253.571	2.3
253.947	2.14
254.322	1.96
254.697	1.72
255.073	1.48
255.448	1.23
255.823	1.33
256.198	1.69
256.573	1.83
256.948	2.04
257.323	1.89
257.698	2.17
258.073	2.51
258.448	2.64
258.823	2.53
259.198	2.57
259.573	2.54
259.948	2.44
260.322	2.51
260.697	2.46
261.072	2.45
261.446	2.38
261.821	2.1
262.195	2.08
262.57	1.94
262.944	2.04
263.319	2.09
263.693	2.17
264.067	2.13
264.442	2.11
264.816	2.13
265.19	2.09
265.564	2.09
265.938	1.97
266.313	2.01
266.687	2.3
267.061	2.36
267.435	2.28
267.809	2.41
268.183	2.46
268.556	2.38
268.93	2.31
269.304	2.41
269.678	2.62
270.051	2.68
270.425	2.93
270.799	3.12
271.172	3.14
271.546	3.13
271.919	2.88
272.293	2.73
272.666	2.69
273.04	2.79
273.413	2.62
273.787	2.56
274.16	2.66
274.533	2.49
274.906	2.45
275.279	2.56
275.653	2.47
276.026	2.45
276.399	2.36
276.772	2.45
277.145	2.4
277.518	2.41
277.891	2.37
278.263	2.26
278.636	2.12
279.009	2.19
279.382	2.15
279.755	2.28
280.127	2.45
280.5	2.64
280.872	2.71
281.245	2.73
281.617	2.8
281.99	2.74
282.362	2.8
282.735	2.74
283.107	2.71
283.479	2.69
283.852	2.7
284.224	2.83
284.596	2.91
284.968	2.96
285.34	3.01
285.713	2.98
286.085	2.97
286.457	3.12
286.829	3.13
287.201	3.16
287.572	3.2
287.944	3.1
288.316	3.02
288.688	2.81
289.06	2.89
289.431	2.93
289.803	2.9
290.175	2.93
290.546	3.11
290.918	3.01
291.289	3.07
291.661	3.19
292.032	3.22
292.403	3.14
292.775	3.2
293.146	3.04
293.517	3.16
293.889	3.39
294.26	3.33
294.631	3.35
295.002	3.36
295.373	3.46
295.744	3.52
296.115	3.51
296.486	3.62
296.857	3.66
297.228	3.71
297.599	3.7
297.97	3.79
298.34	3.72
298.711	3.88
299.082	3.8
299.452	3.68
299.823	3.77
300.194	3.82
300.564	3.78
300.935	3.84
301.305	3.7
301.676	3.67
302.046	3.69
302.416	3.82
302.787	3.87
303.157	3.62
303.527	3.59
303.897	3.68
304.267	3.63
304.637	3.58
305.008	3.44
305.378	3.46
305.748	3.38
306.117	3.21
306.487	3.13
306.857	3.19
307.227	3.3
307.597	3.15
307.967	3.07
308.336	3.06
308.706	3.16
309.076	3.28
309.445	3.07
309.815	3.03
310.184	2.89
310.554	2.81
310.923	3.02
311.293	2.99
311.662	2.86
312.031	2.97
312.401	2.93
312.77	3.09
313.139	3.13
313.508	3.07
313.877	3.19
314.246	3.24
314.616	3.18
314.985	3.17
315.353	3.14
315.722	3.24
316.091	3.22
316.46	3.08
316.829	3.08
317.198	3.21
317.567	3.21
317.935	3.3
318.304	3.44
318.672	3.28
319.041	3.41
319.41	3.36
319.778	3.22
320.147	3.2
320.515	2.99
320.883	2.99
321.252	3.16
321.62	3.15
321.988	3.08
322.357	3.25
322.725	3.05
323.093	3.08
323.461	2.96
323.829	3.13
324.197	3.19
324.565	3.13
324.933	3.1
325.301	3.09
325.669	3.11
326.037	3.09
326.405	3.1
326.772	3.13
327.14	3.34
327.508	3.43
327.875	3.49
328.243	3.6
328.61	3.65
328.978	3.6
329.346	3.69
329.713	3.66
330.08	3.54
330.448	3.64
330.815	3.6
331.182	3.61
331.55	3.52
331.917	3.63
332.284	3.66
332.651	3.72
333.018	3.79
333.385	3.7
333.752	3.73
334.119	3.71
334.486	3.5
334.853	3.45
335.22	3.45
335.587	3.46
335.954	3.4
336.32	3.24
336.687	3.23
337.054	3.23
337.42	3.34
337.787	3.37
338.153	3.45
338.52	3.55
338.886	3.54
339.253	3.58
339.619	3.54
339.986	3.52
340.352	3.51
340.718	3.47
341.084	3.52
341.451	3.47
341.817	3.53
342.183	3.58
342.549	3.59
342.915	3.62
343.281	3.67
343.647	3.78
344.013	3.83
344.379	3.74
344.745	3.81
345.11	3.76
345.476	3.78
345.842	3.71
346.208	3.71
346.573	3.8
346.939	3.84
347.304	3.81
347.67	3.75
348.035	3.72
348.401	3.75
348.766	3.77
349.132	3.76
349.497	3.71
349.862	3.86
350.228	3.86
350.593	3.75
350.958	3.67
351.323	3.58
351.688	3.62
352.053	3.74
352.418	3.66
352.783	3.64
353.148	3.66
353.513	3.62
353.878	3.56
354.243	3.59
354.608	3.55
354.972	3.6
355.337	3.73
355.702	3.75
356.066	3.79
356.431	3.74
356.795	3.7
357.16	3.74
357.524	3.69
357.889	3.68
358.253	3.7
358.618	3.73
358.982	3.7
359.346	3.64
359.71	3.65
360.075	3.62
360.439	3.66
360.803	3.65
361.167	3.67
361.531	3.72
361.895	3.7
362.259	3.63
362.623	3.62
362.987	3.58
363.351	3.6
363.714	3.62
364.078	3.6
364.442	3.63
364.806	3.69
365.169	3.7
365.533	3.72
365.896	3.73
366.26	3.73
366.623	3.81
366.987	3.88
367.35	3.84
367.714	3.86
368.077	3.88
368.44	3.9
368.803	3.91
369.167	3.87
369.53	3.8
369.893	3.87
370.256	3.92
370.619	3.88
370.982	3.82
371.345	3.79
371.708	3.83
372.071	3.82
372.434	3.73
372.797	3.65
373.159	3.6
373.522	3.66
373.885	3.65
374.247	3.61
374.61	3.58
374.973	3.53
375.335	3.55
375.698	3.58
376.06	3.6
376.423	3.58
376.785	3.65
377.147	3.74
377.51	3.71
377.872	3.67
378.234	3.68
378.596	3.72
378.958	3.66
379.321	3.66
379.683	3.65
380.045	3.69
380.407	3.72
380.769	3.73
381.13	3.71
381.492	3.7
381.854	3.74
382.216	3.71
382.578	3.76
382.939	3.75
383.301	3.73
383.663	3.71
384.024	3.73
384.386	3.73
384.747	3.7
385.109	3.67
385.47	3.67
385.832	3.69
386.193	3.72
386.554	3.72
386.916	3.72
387.277	3.73
387.638	3.77
387.999	3.77
388.36	3.76
388.721	3.8
389.082	3.79
389.443	3.74
389.804	3.77
390.165	3.73
390.526	3.75
390.887	3.73
391.248	3.74
391.609	3.74
391.969	3.73
392.33	3.69
392.691	3.72
393.051	3.76
393.412	3.75
393.772	3.72
394.133	3.78
394.493	3.77
394.854	3.82
395.214	3.78
395.574	3.75
395.935	3.75
396.295	3.71
396.655	3.71
397.015	3.72
397.376	3.71
397.736	3.74
398.096	3.73
398.456	3.74
398.816	3.75
399.176	3.74
399.535	3.71
399.895	3.72
400.255	3.71
400.615	3.68
400.975	3.69
401.334	3.68
401.694	3.66
402.054	3.66
402.413	3.66
402.773	3.64
403.132	3.69
403.492	3.7
403.851	3.71
404.211	3.73
404.57	3.72
404.929	3.74
405.288	3.72
405.648	3.69
406.007	3.72
406.366	3.7
406.725	3.7
407.084	3.73
407.443	3.75
407.802	3.79
408.161	3.78
408.52	3.78
408.879	3.78
409.238	3.74
409.596	3.74
409.955	3.72
410.314	3.74
410.673	3.7
411.031	3.68
411.39	3.7
411.748	3.71
412.107	3.74
412.465	3.75
412.824	3.76
413.182	3.77
413.54	3.75
413.899	3.76
414.257	3.79
414.615	3.76
414.974	3.74
415.332	3.69
415.69	3.7
416.048	3.68
416.406	3.68
416.764	3.69
417.122	3.7
417.48	3.67
417.838	3.68
418.195	3.7
418.553	3.7
418.911	3.7
419.269	3.71
419.626	3.69
419.984	3.68
420.342	3.69
420.699	3.68
421.057	3.68
421.414	3.66
421.772	3.64
422.129	3.66
422.486	3.65
422.844	3.67
423.201	3.64
423.558	3.65
423.915	3.65
424.273	3.66
424.63	3.65
424.987	3.65
425.344	3.64
425.701	3.64
426.058	3.64
426.415	3.64
426.772	3.62
427.128	3.61
427.485	3.61
427.842	3.59
428.199	3.61
428.555	3.6
428.912	3.64
429.269	3.63
429.625	3.61
429.982	3.61
430.338	3.62
430.695	3.66
431.051	3.64
431.407	3.63
431.764	3.64
432.12	3.65
432.476	3.66
432.832	3.67
433.189	3.65
433.545	3.66
433.901	3.65
434.257	3.64
434.613	3.65
434.969	3.64
435.325	3.65
435.681	3.65
436.036	3.67
436.392	3.64
436.748	3.65
437.104	3.66
437.459	3.68
437.815	3.66
438.171	3.66
438.526	3.69
438.882	3.7
439.237	3.71
439.593	3.71
439.948	3.7
440.304	3.7
440.659	3.7
441.014	3.7
441.369	3.69
441.725	3.68
442.08	3.7
442.435	3.7
442.79	3.71
443.145	3.7
443.5	3.69
443.855	3.69
444.21	3.68
444.565	3.68
444.92	3.69
445.275	3.69
445.629	3.68
445.984	3.66
446.339	3.66
446.693	3.64
447.048	3.62
447.403	3.64
447.757	3.63
448.112	3.62
448.466	3.63
448.82	3.62
449.175	3.64
449.529	3.61
449.883	3.61
450.238	3.59
450.592	3.6
450.946	3.62
451.3	3.63
451.654	3.62
452.008	3.62
452.362	3.61
452.716	3.61
453.07	3.63
453.424	3.65
453.778	3.67
454.132	3.68
454.486	3.69
454.839	3.67
455.193	3.67
455.547	3.67
455.9	3.67
456.254	3.7
456.607	3.7
456.961	3.71
457.314	3.71
457.668	3.71
458.021	3.68
458.375	3.67
458.728	3.68
459.081	3.68
459.434	3.68
459.787	3.68
460.141	3.67
460.494	3.64
460.847	3.63
461.2	3.62
461.553	3.62
461.906	3.63
462.259	3.66
462.611	3.67
462.964	3.69
463.317	3.7
463.67	3.67
464.022	3.67
464.375	3.68
464.728	3.68
465.08	3.7
465.433	3.71
465.785	3.71
466.138	3.69
466.49	3.7
466.843	3.7
467.195	3.71
467.547	3.72
467.899	3.74
468.252	3.73
468.604	3.75
468.956	3.74
469.308	3.73
469.66	3.71
470.012	3.68
470.364	3.67
470.716	3.66
471.068	3.67
471.42	3.67
471.772	3.7
472.123	3.71
472.475	3.72
472.827	3.74
473.178	3.75
473.53	3.76
473.882	3.77
474.233	3.78
474.585	3.75
474.936	3.77
475.288	3.78
475.639	3.8
475.99	3.79
476.342	3.8
476.693	3.8
477.044	3.82
477.395	3.82
477.746	3.83
478.097	3.84
478.448	3.85
478.8	3.84
479.15	3.82
479.501	3.84
479.852	3.81
480.203	3.8
480.554	3.8
480.905	3.81
481.255	3.81
481.606	3.82
481.957	3.84
482.307	3.83
482.658	3.82
483.009	3.82
483.359	3.83
483.709	3.84
484.06	3.84
484.41	3.84
484.761	3.84
485.111	3.84
485.461	3.85
485.811	3.85
486.162	3.85
486.512	3.86
486.862	3.86
487.212	3.88
487.562	3.89
487.912	3.89
488.262	3.9
488.612	3.91
488.961	3.9
489.311	3.9
489.661	3.91
490.011	3.92
490.36	3.92
490.71	3.92
491.06	3.91
491.409	3.91
491.759	3.92
492.108	3.92
492.458	3.93
492.807	3.93
493.157	3.92
493.506	3.92
493.855	3.91
494.204	3.91
494.554	3.9
494.903	3.89
495.252	3.86
495.601	3.86
495.95	3.85
496.299	3.85
496.648	3.84
496.997	3.85
497.346	3.87
497.695	3.88
498.043	3.89
498.392	3.9
498.741	3.91
499.09	3.88
499.438	3.9
499.787	3.9
500.135	3.89
500.484	3.92
500.832	3.94
501.181	3.94
501.529	3.95
501.878	3.95
502.226	3.99
502.574	4
502.923	4.01
503.271	4.01
503.619	4.02
503.967	4.02
504.315	4.01
504.663	4.01
505.011	4.01
505.359	4
505.707	4.03
506.055	4.03
506.403	4.06
506.751	4.05
507.098	4.05
507.446	4.05
507.794	4.04
508.141	4.04
508.489	4.05
508.837	4.05
509.184	4.06
509.531	4.06
509.879	4.07
510.226	4.08
510.574	4.11
510.921	4.12
511.268	4.12
511.616	4.14
511.963	4.14
512.31	4.14
512.657	4.17
513.004	4.16
513.351	4.17
513.698	4.17
514.045	4.17
514.392	4.19
514.739	4.19
515.086	4.2
515.432	4.21
515.779	4.21
516.126	4.24
516.473	4.24
516.819	4.24
517.166	4.24
517.512	4.23
517.859	4.21
518.205	4.21
518.552	4.24
518.898	4.24
519.245	4.25
519.591	4.25
519.937	4.23
520.283	4.23
520.629	4.23
520.976	4.24
521.322	4.26
521.668	4.25
522.014	4.28
522.36	4.31
522.706	4.33
523.052	4.31
523.398	4.32
523.743	4.34
524.089	4.35
524.435	4.35
524.781	4.36
525.126	4.38
525.472	4.38
525.817	4.37
526.163	4.37
526.509	4.38
526.854	4.4
527.199	4.41
527.545	4.41
527.89	4.41
528.235	4.4
528.581	4.4
528.926	4.4
529.271	4.4
529.616	4.39
529.961	4.39
530.306	4.4
530.651	4.39
530.996	4.39
531.341	4.39
531.686	4.39
532.031	4.38
532.376	4.38
532.721	4.39
533.065	4.39
533.41	4.4
533.755	4.39
534.099	4.38
534.444	4.38
534.788	4.38
535.133	4.38
535.477	4.39
535.822	4.38
536.166	4.39
536.51	4.38
536.855	4.38
537.199	4.38
537.543	4.39
537.887	4.4
538.231	4.39
538.576	4.41
538.92	4.41
539.264	4.43
539.608	4.43
539.951	4.42
540.295	4.43
540.639	4.42
540.983	4.43
541.327	4.43
541.671	4.42
542.014	4.42
542.358	4.43
542.701	4.43
543.045	4.45
543.389	4.45
543.732	4.45
544.075	4.46
544.419	4.46
544.762	4.44
545.105	4.44
545.449	4.45
545.792	4.43
546.135	4.44
546.478	4.43
546.821	4.44
547.165	4.43
547.508	4.45
547.851	4.47
548.194	4.43
548.536	4.42
548.879	4.46
549.222	4.46
549.565	4.45
549.908	4.47
550.25	4.44
550.593	4.45
550.936	4.45
551.278	4.45
551.621	4.47
551.963	4.48
552.306	4.46
552.648	4.48
552.991	4.49
553.333	4.48
553.675	4.49
554.017	4.45
554.36	4.46
554.702	4.47
555.044	4.46
555.386	4.48
555.728	4.5
556.07	4.51
556.412	4.52
556.754	4.51
557.096	4.49
557.438	4.5
557.78	4.53
558.121	4.57
558.463	4.56
558.805	4.54
559.147	4.53
559.488	4.53
559.83	4.53
560.171	4.55
560.513	4.58
560.854	4.6
561.196	4.6
561.537	4.61
561.878	4.59
562.22	4.6
562.561	4.61
562.902	4.6
563.243	4.55
563.584	4.55
563.925	4.57
564.266	4.6
564.607	4.59
564.948	4.56
565.289	4.53
565.63	4.54
565.971	4.51
566.312	4.52
566.653	4.53
566.993	4.48
567.334	4.46
567.675	4.46
568.015	4.47
568.356	4.48
568.696	4.49
569.037	4.5
569.377	4.49
569.718	4.47
570.058	4.47
570.398	4.49
570.739	4.5
571.079	4.48
571.419	4.47
571.759	4.48
572.099	4.5
572.439	4.53
572.779	4.53
573.119	4.56
573.459	4.55
573.799	4.59
574.139	4.62
574.479	4.61
574.819	4.6
575.158	4.6
575.498	4.58
575.838	4.6
576.177	4.57
576.517	4.57
576.856	4.59
577.196	4.61
577.535	4.62
577.875	4.64
578.214	4.65
578.553	4.67
578.893	4.66
579.232	4.68
579.571	4.65
579.91	4.62
580.25	4.6
580.589	4.57
580.928	4.57
581.267	4.58
581.606	4.58
581.945	4.55
582.283	4.54
582.622	4.57
582.961	4.57
583.3	4.58
583.639	4.61
583.977	4.58
584.316	4.56
584.654	4.54
584.993	4.55
585.332	4.57
585.67	4.55
586.008	4.58
586.347	4.52
586.685	4.53
587.024	4.54
587.362	4.57
587.7	4.64
588.038	4.65
588.376	4.65
588.715	4.67
589.053	4.68
589.391	4.68
589.729	4.7
590.067	4.67
590.404	4.71
590.742	4.68
591.08	4.68
591.418	4.69
591.756	4.71
592.093	4.73
592.431	4.74
592.769	4.71
593.106	4.67
593.444	4.7
593.781	4.71
594.119	4.71
594.456	4.69
594.793	4.64
595.131	4.6
595.468	4.58
595.805	4.58
596.143	4.61
596.48	4.62
596.817	4.6
597.154	4.63
597.491	4.62
597.828	4.62
598.165	4.64
598.502	4.64
598.839	4.66
599.176	4.62
599.512	4.61
599.849	4.63
600.186	4.68
600.523	4.71
600.859	4.73
601.196	4.75
601.532	4.77
601.869	4.77
602.205	4.76
602.542	4.8
602.878	4.8
603.215	4.78
603.551	4.78
603.887	4.77
604.223	4.74
604.56	4.73
604.896	4.76
605.232	4.76
605.568	4.75
605.904	4.76
606.24	4.76
606.576	4.72
606.912	4.73
607.248	4.71
607.583	4.69
607.919	4.66
608.255	4.67
608.591	4.66
608.926	4.66
609.262	4.73
609.597	4.71
609.933	4.7
610.268	4.72
610.604	4.73
610.939	4.76
611.275	4.76
611.61	4.78
611.945	4.79
612.281	4.77
612.616	4.81
612.951	4.83
613.286	4.86
613.621	4.9
613.956	4.9
614.291	4.91
614.626	4.91
614.961	4.92
615.296	4.92
615.631	4.98
615.966	5.05
616.3	4.99
616.635	4.98
616.97	4.96
617.304	4.94
617.639	4.97
617.973	4.92
618.308	4.93
618.642	4.93
618.977	4.92
619.311	4.97
619.646	4.97
619.98	4.91
620.314	4.9
620.648	4.94
620.983	5
621.317	4.98
621.651	5.01
621.985	5.07
622.319	5.04
622.653	5.03
622.987	5.01
623.321	5.02
623.655	5.01
623.988	5.06
624.322	5.05
624.656	5.1
624.99	5.12
625.323	5.14
625.657	5.14
625.99	5.16
626.324	5.13
626.657	5.09
626.991	5.16
627.324	5.16
627.658	5.13
627.991	5.09
628.324	5.14
628.657	5.14
628.991	5.1
629.324	5.09
629.657	5.08
629.99	5.09
630.323	5.08
630.656	5.11
630.989	5.11
631.322	5.11
631.655	5.07
631.987	5.06
632.32	5.07
632.653	5.03
632.986	5
633.318	5.01
633.651	5.04
633.984	4.95
634.316	4.93
634.649	4.94
634.981	4.9
635.313	4.88
635.646	4.86
635.978	4.89
636.31	4.91
636.643	4.93
636.975	4.94
637.307	4.97
637.639	4.98
637.971	5
638.303	5.07
638.635	5.03
638.967	5.09
639.299	5.1
639.631	5.1
639.963	5.07
640.295	5.07
640.626	5.12
640.958	5.19
641.29	5.23
641.621	5.22
641.953	5.26
642.285	5.3
642.616	5.39
642.948	5.3
643.279	5.25
643.61	5.18
643.942	5.18
644.273	5.21
644.604	5.22
644.936	5.17
645.267	5.15
645.598	5.14
645.929	5.13
646.26	5.14
646.591	5.17
646.922	5.24
647.253	5.22
647.584	5.17
647.915	5.11
648.245	5.08
648.576	5.12
648.907	5.12
649.238	5.01
649.568	4.91
649.899	4.98
650.229	5.03
650.56	5.07
650.89	5.07
651.221	5.03
651.551	5.03
651.882	5.02
652.212	5.01
652.542	5.03
652.872	4.98
653.203	4.88
653.533	4.97
653.863	4.95
654.193	4.98
654.523	4.96
654.853	5.01
655.183	5.03
655.513	5.05
655.843	5.07
656.172	5.13
656.502	5.18
656.832	5.17
657.162	5.2
657.491	5.21
657.821	5.15
658.15	5.21
658.48	5.26
658.809	5.25
659.139	5.29
659.468	5.26
659.798	5.3
660.127	5.37
660.456	5.34
660.785	5.3
661.115	5.34
661.444	5.41
661.773	5.42
662.102	5.44
662.431	5.45
662.76	5.49
663.089	5.51
663.418	5.43
663.747	5.4
664.076	5.42
664.404	5.5
664.733	5.62
665.062	5.57
665.39	5.48
665.719	5.53
666.048	5.46
666.376	5.43
666.705	5.37
667.033	5.31
667.362	5.35
667.69	5.4
668.018	5.37
668.347	5.33
668.675	5.39
669.003	5.39
669.331	5.33
669.659	5.27
669.987	5.22
670.315	5.31
670.643	5.35
670.971	5.28
671.299	5.28
671.627	5.26
671.955	5.2
672.283	5.28
672.61	5.34
672.938	5.36
673.266	5.46
673.593	5.59
673.921	5.68
674.249	5.63
674.576	5.57
674.904	5.61
675.231	5.51
675.558	5.49
675.886	5.51
676.213	5.57
676.54	5.59
676.867	5.72
677.195	5.64
677.522	5.61
677.849	5.67
678.176	5.65
678.503	5.62
678.83	5.73
679.157	5.73
679.484	5.65
679.81	5.66
680.137	5.6
680.464	5.53
680.791	5.45
681.117	5.44
681.444	5.54
681.771	5.56
682.097	5.6
682.424	5.61
682.75	5.51
683.077	5.47
683.403	5.57
683.729	5.48
684.056	5.53
684.382	5.57
684.708	5.53
685.034	5.44
685.36	5.4
685.686	5.27
686.012	5.14
686.339	5.23
686.664	5.22
686.99	5.3
687.316	5.34
687.642	5.46
687.968	5.48
688.294	5.45
688.619	5.44
688.945	5.45
689.271	5.43
689.596	5.38
689.922	5.43
690.247	5.28
690.573	5.26
690.898	5.34
691.224	5.41
691.549	5.45
691.874	5.43
692.2	5.57
692.525	5.6
692.85	5.67
693.175	5.69
693.5	5.68
693.825	5.63
694.15	5.54
694.475	5.5
694.8	5.43
695.125	5.38
695.45	5.42
695.775	5.34
696.099	5.36
696.424	5.5
696.749	5.48
697.073	5.54
697.398	5.63
697.723	5.6
698.047	5.51
698.372	5.51
698.696	5.57
699.02	5.53
699.345	5.56
699.669	5.63
699.993	5.51
700.318	5.55
700.642	5.58
700.966	5.67
701.29	5.74
701.614	5.76
701.938	5.82
702.262	5.87
702.586	6.01
702.91	6
703.234	6.01
703.557	6.04
703.881	5.96
704.205	5.84
704.529	5.78
704.852	5.92
705.176	5.9
705.499	5.93
705.823	5.95
706.146	5.91
706.47	5.85
706.793	5.91
707.117	5.79
707.44	5.72
707.763	5.77
708.086	5.55
708.409	5.59
708.733	5.57
709.056	5.56
709.379	5.63
709.702	5.61
710.025	5.64
710.348	5.74
710.671	5.79
710.993	5.92
711.316	5.94
711.639	5.88
711.962	6.01
712.284	5.98
712.607	5.9
712.93	5.98
713.252	5.83
713.575	5.87
713.897	5.87
714.22	5.9
714.542	5.85
714.864	6.05
715.187	6.07
715.509	5.98
715.831	6.03
716.153	6.04
716.475	6.13
716.798	6.24
717.12	6.09
717.442	6.18
717.764	5.94
718.085	6.05
718.407	5.98
718.729	5.9
719.051	5.88
719.373	6.02
719.695	6.07
720.016	6.39
720.338	6.38
720.659	6.58
720.981	6.66
721.302	6.62
721.624	6.42
721.945	6.49
722.267	6.69
722.588	6.52
722.909	6.37
723.231	6.24
723.552	6.02
723.873	6.18
724.194	6.12
724.515	6.51
724.836	6.43
725.157	6.63
725.478	6.54
725.799	6.56
726.12	6.46
726.441	6.48
726.762	6.34
727.083	6.38
727.403	6.43
727.724	6.46
728.045	6.54
728.365	6.67
728.686	6.57
729.006	6.62
729.327	6.58
729.647	6.69
729.967	6.83
730.288	6.98
730.608	6.92
730.928	6.88
731.249	6.64
731.569	6.66
731.889	6.67
732.209	6.68
732.529	6.82
732.849	6.82
733.169	6.73
733.489	6.78
733.809	6.8
734.129	6.72
734.448	6.73
734.768	6.72
735.088	6.74
735.408	6.78
735.727	6.7
736.047	6.78
736.366	6.65
736.686	6.58
737.005	6.6
737.325	6.62
737.644	6.66
737.963	6.86
738.283	6.82
738.602	6.67
738.921	6.9
739.24	6.88
739.56	6.9
739.879	6.94
740.198	7.01
740.517	6.92
740.836	6.87
741.155	6.85
741.473	6.92
741.792	7.03
742.111	7
742.43	6.97
742.748	6.91
743.067	6.8
743.386	6.72
743.704	6.69
744.023	6.73
744.341	6.79
744.66	6.85
744.978	6.83
745.297	6.73
745.615	6.82
745.933	6.69
746.252	6.83
746.57	6.89
746.888	6.68
747.206	6.69
747.524	6.61
747.842	6.46
748.16	6.51
748.478	6.42
748.796	6.67
749.114	6.92
749.432	7.03
749.749	7.34
750.067	7.41
750.385	7.23
750.703	7.23
751.02	7.24
751.338	6.98
751.655	7.05
751.973	7.36
752.29	7.11
752.608	7.08
752.925	6.97
753.242	6.79
753.56	6.86
753.877	6.8
754.194	7.15
754.511	7.28
754.828	6.97
755.145	6.84
755.462	6.7
755.779	6.5
756.096	6.34
756.413	6.25
756.73	6.36
757.047	6.45
757.364	6.37
757.68	6.54
757.997	6.59
758.314	6.93
758.63	6.61
758.947	6.63
759.264	6.67
759.58	6.57
759.896	6.91
760.213	7.04
760.529	7.12
760.846	7.07
761.162	7.13
761.478	7.35
761.794	7.35
762.11	7.36
762.426	7.43
762.743	7.56
763.059	7.71
763.375	7.73
763.69	7.68
764.006	7.72
764.322	7.53
764.638	7.59
764.954	7.37
765.27	7.45
765.585	7.34
765.901	7.46
766.216	7.69
766.532	7.31
766.848	7.42
767.163	7.47
767.478	7.3
767.794	7.21
768.109	7.02
768.424	7.13
768.74	7.16
769.055	7.03
769.37	7.32
769.685	6.96
770	7.1
770.315	7.1
770.63	7.18
770.945	7.11
771.26	7.16
771.575	7.04
771.89	7.32
772.205	7.3
772.52	7.28
772.834	7.2
773.149	7.78
773.464	7.66
773.778	7.9
774.093	7.84
774.407	8.31
774.722	8.74
775.036	8.85
775.351	9.05
775.665	8.97
775.979	8.5
776.293	8.68
776.608	8.38
776.922	8.09
777.236	7.9
777.55	8.14
777.864	8.3
778.178	8.49
778.492	8.54
778.806	8.53
779.12	8.53
779.434	8.39
779.747	8.23
780.061	8.12
780.375	8.22
780.689	8.6
781.002	8.42
781.316	8.25
781.629	8.15
781.943	7.78
782.256	8.12
782.57	8.18
782.883	8.37
783.196	8.43
783.51	8.65
783.823	8.4
784.136	8.53
784.449	8.48
784.762	8.5
785.075	8.08
785.388	7.67
785.701	7.6
786.014	7.67
786.327	7.31
786.64	7.76
786.953	7.54
787.266	7.12
787.578	6.71
787.891	7.12
788.204	7.23
788.516	7.43
788.829	7.72
789.141	7.97
789.454	7.88
789.766	7.87
790.079	8
790.391	8.25
790.703	8.03
791.016	7.95
791.328	8.04
791.64	8.39
791.952	9.38
792.264	9.02
792.576	8.82
792.888	9.15
793.2	8.92
793.512	8.87
793.824	9.37
794.136	9.71
794.448	9.42
794.76	9.34
795.071	9.15
795.383	8.61
795.695	8.29
796.006	8.39
796.318	8.44
796.629	8.66
796.941	8.88
797.252	8.68
797.564	8.63
797.875	8.61
798.186	8.26
798.497	8.43
798.809	8.25
799.12	8.62
799.431	8.42
799.742	8.54
800.053	8.73
800.364	8.53
800.675	8.74
800.986	8.61
801.297	8.35
801.608	8.62
801.918	8.5
802.229	8.73
802.54	8.25
802.851	8.14
803.161	8.34
803.472	8.3
803.782	8.63
804.093	8.83
804.403	8.58
804.714	8.49
805.024	7.78
805.334	8.79
805.645	9.04
805.955	9.56
806.265	9.52
806.575	9.45
806.885	9.61
807.195	9.87
807.505	10
807.815	10.54
808.125	10.19
808.435	10.63
808.745	10.88
809.055	12.06
809.365	12.1
809.674	11.79
809.984	11.6
810.294	11.38
810.603	11.19
810.913	12.09
811.222	12.04
811.532	12.35
811.841	12.28
812.151	12.57
812.46	12.72
812.769	12
813.079	11.59
813.388	10.6
813.697	10.25
814.006	10.01
814.315	9.92
814.624	10.22
814.933	10.06
815.242	9.45
815.551	8.73
815.86	9.47
816.169	9.55
816.478	9.78
816.786	9.96
817.095	9.92
817.404	10.11
817.712	10.57
818.021	10.88
818.33	10.85
818.638	10.39
818.947	10.55
819.255	10.63
819.563	10.94
819.872	11.32
820.18	11.37
820.488	11.35
820.796	11.13
821.105	10.94
821.413	10.98
821.721	11.05
822.029	10.97
822.337	10.77
822.645	10.7
822.953	10.64
823.26	10.61
823.568	10.62
823.876	10.31
824.184	10.26
824.491	10.27
824.799	10.19
825.107	10.33
825.414	10.34
825.722	10.47
826.029	10.41
826.337	10.57
826.644	10.48
826.951	10.56
827.259	10.62
827.566	10.76
827.873	10.73
828.18	10.71
828.488	10.8
828.795	10.92
829.102	11.13
829.409	11.1
829.716	11.17
830.023	11.03
830.329	11.29
830.636	11.54
830.943	11.38
831.25	11.33
831.557	11.14
831.863	11
832.17	10.71
832.476	10.82
832.783	10.92
833.089	10.55
833.396	10.46
833.702	10.54
834.009	10.29
834.315	10.25
834.621	10.37
834.928	10.71
835.234	10.9
835.54	10.53
835.846	10.8
836.152	10.74
836.458	10.98
836.764	11.13
837.07	10.76
837.376	10.73
837.682	10.78
837.988	10.26
838.293	10.35
838.599	10.48
838.905	10.01
839.211	8.96
839.516	9.86
839.822	9.79
840.127	9.86
840.433	10.62
840.738	10.54
841.044	10.77
841.349	10.75
841.654	10.58
841.959	11.02
842.265	10.6
842.57	11.44
842.875	11.38
843.18	11.32
843.485	11.86
843.79	11.91
844.095	11.37
844.4	13.08
844.705	11.71
845.01	10.92
845.315	11.17
845.619	12.62
845.924	12.17
846.229	12
846.533	11.6
846.838	10.59
847.142	10.45
847.447	8.87
847.751	7.26
848.056	6.42
848.36	6.69
848.664	8.41
848.969	7.44
849.273	7.28
849.577	6.92
849.881	6.94
850.185	6.86
850.489	9.1
850.794	6.94
851.097	9.22
851.401	10.45
851.705	9.77
852.009	9.03
852.313	8.13
852.617	7.06
852.92	9.26
853.224	9.94
853.528	10.51
853.831	10.57
854.135	11.38
854.438	11.38
854.742	11.64
855.045	8.18
855.349	7.76
855.652	8.46
855.955	10.8
856.259	9.04
856.562	9.86
856.865	9.42
857.168	10.23
857.471	11.02
857.774	12.55
858.077	13.96
858.38	17.04
858.683	17.68
858.986	19.25
859.289	16.79
859.592	17.84
859.894	18.12
860.197	18.37
860.5	18.24
860.802	19.86
861.105	20.14
861.407	23.38
861.71	24.14
862.012	25.39
862.315	22.54
862.617	22.9
862.919	22.11
863.222	22.81
863.524	20.23
863.826	18.7
864.128	16.9
864.43	16.61
864.732	16.15
865.034	18.78
865.336	17.31
865.638	17.71
865.94	14.79
866.242	14.53
866.544	15.7
866.846	14.63
867.147	13.53
867.449	11.38
867.751	10.69
868.052	12.32
868.354	10.78
868.655	13.28
868.957	13.86
869.258	12.27
869.56	10.43
869.861	11.2
870.162	9.65
870.463	11.34
870.765	12.32
871.066	9.94
871.367	7.05
871.668	7.81
871.969	7.2
872.27	9.41
872.571	9.97
872.872	10.82
873.173	9.87
873.473	8.62
873.774	9.71
874.075	9.46
874.376	8.96
874.676	9.53
874.977	7.04
875.277	7.37
875.578	8.83
875.878	9.15
876.179	11.08
876.479	12.83
876.78	11.54
877.08	11.24
877.38	10.4
877.68	10.67
877.981	10.56
878.281	11.08
878.581	10.7
