Data from BU26844_Reflection_00007.txt Node
Date: Mon Nov 18 16:36:14 EST 2019
User: vgr7
Spectrometer: USB2G7710
Scans to average: 3
Trigger mode: 4
Integration Time (sec): 2.000000E-2
Electric dark correction enabled: true
Boxcar width: 10
XAxis mode: Wavelengths
Number of Pixels in Spectrum: 2048
>>>>>Begin Spectral Data<<<<<
177.721	473.09
178.105	10766.67
178.488	-282.19
178.871	-9233.33
179.254	111.44
179.636	-389.58
180.019	44.62
180.402	52.78
180.785	128.09
181.168	81.74
181.55	75.87
181.933	80.76
182.316	97.25
182.698	135.24
183.081	131.91
183.463	136.58
183.846	148.17
184.228	82.15
184.611	115.3
184.993	353.69
185.376	5615.15
185.758	-390.5
186.14	-291.36
186.522	-335.99
186.904	-837.29
187.287	1120.08
187.669	-220.38
188.051	-226.9
188.433	-91.4
188.815	7.43
189.197	2.9
189.579	-1.2
189.961	-20.29
190.342	-53.53
190.724	-20.6
191.106	-15.21
191.488	-22.23
191.869	-8.6
192.251	-22.11
192.633	-33.54
193.014	-46.79
193.396	-36.08
193.777	-38.47
194.159	-42.82
194.54	-33.01
194.922	-32.37
195.303	-25.88
195.684	-38.46
196.065	-28.62
196.447	-32.88
196.828	-51.69
197.209	-52.98
197.59	-48.05
197.971	-48.97
198.352	-36.89
198.733	-69.89
199.114	-55.14
199.495	-65.11
199.876	-63.77
200.257	-53.56
200.638	-51.62
201.018	-36.89
201.399	-62.69
201.78	-69.7
202.16	-112.17
202.541	-132.66
202.922	-174.04
203.302	-221.13
203.683	-144.68
204.063	-282.48
204.444	-432.8
204.824	-414.03
205.204	-377.29
205.585	-480.99
205.965	-274.43
206.345	-241.65
206.725	-257.2
207.106	-331.24
207.486	-363.04
207.866	-646.14
208.246	-684.07
208.626	-1009.03
209.006	-278.54
209.386	-247.33
209.766	-199.91
210.145	-142.6
210.525	-157.27
210.905	-92.2
211.285	-66.02
211.664	-78.47
212.044	-90.79
212.424	-79.37
212.803	-80.64
213.183	-49.07
213.562	-63.18
213.942	-51.85
214.321	-47.78
214.701	-35.82
215.08	-50.5
215.459	-50.64
215.838	-37.35
216.218	-33.46
216.597	-28.4
216.976	-24.12
217.355	-31.29
217.734	-30.49
218.113	-14.72
218.492	-12.87
218.871	-17.56
219.25	-8.06
219.629	-10.22
220.008	-1.3
220.387	-0.93
220.766	10.31
221.144	-5.48
221.523	-17.06
221.902	-19.89
222.28	-12.6
222.659	0.16
223.037	9.72
223.416	12.1
223.794	8.63
224.173	-10.73
224.551	-7.14
224.929	-14.11
225.308	-6.72
225.686	-9.26
226.064	-7.88
226.442	-4.8
226.821	-2.27
227.199	-5.27
227.577	-10.3
227.955	-10.52
228.333	-10.05
228.711	-7.35
229.089	-6.72
229.467	-5.37
229.845	-8.22
230.222	-9.24
230.6	-11.15
230.978	-11.23
231.356	-8.04
231.733	-8.75
232.111	-4.85
232.488	-4.77
232.866	-2.79
233.243	-3.42
233.621	-3.87
233.998	-4.75
234.376	-6.77
234.753	-6.81
235.13	-6.15
235.508	-3.5
235.885	-2.46
236.262	-3.08
236.639	-2.61
237.016	-0.12
237.393	0.23
237.77	2
238.147	2.84
238.524	2.7
238.901	3.03
239.278	2.37
239.655	3.08
240.032	3.35
240.409	3.33
240.785	2.78
241.162	2.94
241.539	3.22
241.915	3.74
242.292	4.07
242.668	3.72
243.045	3.7
243.421	3.56
243.798	3.75
244.174	4.01
244.551	3.94
244.927	3.57
245.303	3.76
245.679	3.82
246.056	3.67
246.432	3.58
246.808	3.41
247.184	3.44
247.56	3.53
247.936	3.07
248.312	2.96
248.688	3.32
249.064	3.32
249.44	3.21
249.815	3.04
250.191	2.94
250.567	3.05
250.943	2.84
251.318	3.06
251.694	2.84
252.069	2.85
252.445	2.57
252.82	2.65
253.196	2.44
253.571	2.13
253.947	2.14
254.322	2.58
254.697	2.66
255.073	2.55
255.448	2.36
255.823	2.51
256.198	2.73
256.573	2.43
256.948	2.48
257.323	2.64
257.698	2.74
258.073	2.91
258.448	2.85
258.823	3.03
259.198	2.84
259.573	2.8
259.948	2.74
260.322	3.01
260.697	2.98
261.072	3.09
261.446	3.07
261.821	3.01
262.195	3.08
262.57	3.11
262.944	3.19
263.319	3.15
263.693	3.25
264.067	3.24
264.442	3.35
264.816	3.3
265.19	3.23
265.564	3.22
265.938	3.08
266.313	3.09
266.687	3.15
267.061	3.3
267.435	3.3
267.809	3.28
268.183	3.03
268.556	3.04
268.93	3.04
269.304	3.02
269.678	3.28
270.051	3.08
270.425	3.07
270.799	3.12
271.172	3.17
271.546	3.06
271.919	3.08
272.293	2.95
272.666	2.99
273.04	3.12
273.413	3
273.787	2.93
274.16	2.95
274.533	2.73
274.906	2.57
275.279	2.62
275.653	2.69
276.026	2.59
276.399	2.55
276.772	2.47
277.145	2.5
277.518	2.28
277.891	2.38
278.263	2.25
278.636	2.21
279.009	2.2
279.382	2.49
279.755	2.52
280.127	2.71
280.5	2.75
280.872	2.72
281.245	2.71
281.617	2.94
281.99	3.06
282.362	3.25
282.735	3.3
283.107	3.29
283.479	3.22
283.852	3.31
284.224	3.24
284.596	3.31
284.968	3.36
285.34	3.35
285.713	3.27
286.085	3.42
286.457	3.5
286.829	3.52
287.201	3.44
287.572	3.32
287.944	3.25
288.316	3.19
288.688	3.17
289.06	3.22
289.431	3.18
289.803	3.15
290.175	3.1
290.546	3.3
290.918	3.35
291.289	3.37
291.661	3.42
292.032	3.61
292.403	3.61
292.775	3.6
293.146	3.6
293.517	3.55
293.889	3.62
294.26	3.63
294.631	3.66
295.002	3.62
295.373	3.62
295.744	3.68
296.115	3.7
296.486	3.71
296.857	3.68
297.228	3.56
297.599	3.46
297.97	3.53
298.34	3.48
298.711	3.52
299.082	3.55
299.452	3.52
299.823	3.47
300.194	3.49
300.564	3.54
300.935	3.56
301.305	3.64
301.676	3.74
302.046	3.71
302.416	3.83
302.787	3.9
303.157	3.99
303.527	4.02
303.897	4.06
304.267	4.03
304.637	4.24
305.008	4.5
305.378	4.67
305.748	4.72
306.117	4.57
306.487	4.65
306.857	4.69
307.227	4.75
307.597	4.68
307.967	4.73
308.336	4.69
308.706	4.83
309.076	4.82
309.445	4.7
309.815	4.82
310.184	4.75
310.554	4.79
310.923	4.85
311.293	4.87
311.662	5
312.031	5.11
312.401	5.1
312.77	5.1
313.139	4.99
313.508	4.97
313.877	5.07
314.246	4.98
314.616	5.11
314.985	5.08
315.353	5.09
315.722	5.15
316.091	5.24
316.46	5.2
316.829	5.31
317.198	5.4
317.567	5.31
317.935	5.37
318.304	5.41
318.672	5.32
319.041	5.44
319.41	5.33
319.778	5.31
320.147	5.35
320.515	5.25
320.883	5.41
321.252	5.44
321.62	5.55
321.988	5.61
322.357	5.5
322.725	5.57
323.093	5.92
323.461	5.86
323.829	5.86
324.197	5.89
324.565	5.81
324.933	5.87
325.301	5.89
325.669	5.92
326.037	5.84
326.405	6.03
326.772	5.97
327.14	6.17
327.508	6.22
327.875	6.24
328.243	6.33
328.61	6.38
328.978	6.58
329.346	6.6
329.713	6.57
330.08	6.65
330.448	6.6
330.815	6.41
331.182	6.42
331.55	6.47
331.917	6.54
332.284	6.64
332.651	6.66
333.018	6.74
333.385	6.88
333.752	6.96
334.119	6.9
334.486	6.98
334.853	6.88
335.22	7.01
335.587	6.95
335.954	6.89
336.32	6.98
336.687	6.82
337.054	6.73
337.42	6.79
337.787	6.91
338.153	7.08
338.52	7.14
338.886	7.19
339.253	7.22
339.619	7.21
339.986	7.23
340.352	7.35
340.718	7.33
341.084	7.21
341.451	7.28
341.817	7.34
342.183	7.3
342.549	7.25
342.915	7.26
343.281	7.34
343.647	7.33
344.013	7.26
344.379	7.23
344.745	7.38
345.11	7.35
345.476	7.25
345.842	7.27
346.208	7.25
346.573	7.33
346.939	7.42
347.304	7.42
347.67	7.44
348.035	7.27
348.401	7.32
348.766	7.36
349.132	7.32
349.497	7.26
349.862	7.37
350.228	7.49
350.593	7.39
350.958	7.4
351.323	7.58
351.688	7.59
352.053	7.77
352.418	7.72
352.783	7.78
353.148	7.76
353.513	7.76
353.878	7.76
354.243	7.73
354.608	7.7
354.972	7.74
355.337	7.8
355.702	7.86
356.066	7.88
356.431	7.86
356.795	7.98
357.16	8.03
357.524	8.01
357.889	7.97
358.253	8
358.618	7.99
358.982	7.94
359.346	7.91
359.71	7.85
360.075	7.9
360.439	7.94
360.803	8.01
361.167	7.98
361.531	7.97
361.895	7.96
362.259	7.91
362.623	7.95
362.987	7.95
363.351	7.95
363.714	7.98
364.078	8.01
364.442	7.92
364.806	7.82
365.169	7.76
365.533	7.76
365.896	7.71
366.26	7.68
366.623	7.65
366.987	7.67
367.35	7.67
367.714	7.63
368.077	7.56
368.44	7.54
368.803	7.52
369.167	7.51
369.53	7.45
369.893	7.4
370.256	7.36
370.619	7.28
370.982	7.24
371.345	7.11
371.708	7.06
372.071	6.98
372.434	7
372.797	7.02
373.159	6.97
373.522	6.97
373.885	6.93
374.247	6.89
374.61	6.87
374.973	6.79
375.335	6.73
375.698	6.71
376.06	6.57
376.423	6.54
376.785	6.59
377.147	6.59
377.51	6.58
377.872	6.51
378.234	6.53
378.596	6.52
378.958	6.44
379.321	6.39
379.683	6.4
380.045	6.37
380.407	6.25
380.769	6.19
381.13	6.15
381.492	6.12
381.854	6.11
382.216	6.07
382.578	6.03
382.939	5.98
383.301	5.94
383.663	5.95
384.024	5.9
384.386	5.86
384.747	5.82
385.109	5.82
385.47	5.8
385.832	5.72
386.193	5.7
386.554	5.74
386.916	5.75
387.277	5.74
387.638	5.71
387.999	5.73
388.36	5.69
388.721	5.66
389.082	5.64
389.443	5.62
389.804	5.57
390.165	5.53
390.526	5.52
390.887	5.48
391.248	5.48
391.609	5.48
391.969	5.4
392.33	5.39
392.691	5.39
393.051	5.32
393.412	5.3
393.772	5.24
394.133	5.22
394.493	5.15
394.854	5.14
395.214	5.1
395.574	5.07
395.935	5.09
396.295	5.07
396.655	5
397.015	4.98
397.376	4.97
397.736	4.96
398.096	4.93
398.456	4.92
398.816	4.9
399.176	4.85
399.535	4.81
399.895	4.75
400.255	4.7
400.615	4.7
400.975	4.68
401.334	4.65
401.694	4.59
402.054	4.58
402.413	4.56
402.773	4.53
403.132	4.5
403.492	4.48
403.851	4.43
404.211	4.44
404.57	4.42
404.929	4.38
405.288	4.34
405.648	4.31
406.007	4.29
406.366	4.27
406.725	4.29
407.084	4.29
407.443	4.26
407.802	4.26
408.161	4.23
408.52	4.21
408.879	4.22
409.238	4.28
409.596	4.26
409.955	4.23
410.314	4.23
410.673	4.21
411.031	4.19
411.39	4.22
411.748	4.21
412.107	4.2
412.465	4.19
412.824	4.23
413.182	4.21
413.54	4.21
413.899	4.22
414.257	4.19
414.615	4.16
414.974	4.17
415.332	4.14
415.69	4.14
416.048	4.14
416.406	4.13
416.764	4.09
417.122	4.09
417.48	4.07
417.838	4.08
418.195	4.07
418.553	4.06
418.911	4.04
419.269	4.04
419.626	4.02
419.984	3.99
420.342	3.98
420.699	3.96
421.057	3.94
421.414	3.92
421.772	3.93
422.129	3.93
422.486	3.92
422.844	3.93
423.201	3.91
423.558	3.9
423.915	3.89
424.273	3.88
424.63	3.87
424.987	3.86
425.344	3.84
425.701	3.85
426.058	3.85
426.415	3.84
426.772	3.82
427.128	3.82
427.485	3.83
427.842	3.8
428.199	3.82
428.555	3.83
428.912	3.83
429.269	3.8
429.625	3.8
429.982	3.81
430.338	3.78
430.695	3.78
431.051	3.77
431.407	3.76
431.764	3.76
432.12	3.74
432.476	3.76
432.832	3.74
433.189	3.73
433.545	3.74
433.901	3.74
434.257	3.76
434.613	3.77
434.969	3.79
435.325	3.81
435.681	3.82
436.036	3.8
436.392	3.79
436.748	3.8
437.104	3.79
437.459	3.79
437.815	3.82
438.171	3.83
438.526	3.84
438.882	3.84
439.237	3.86
439.593	3.87
439.948	3.87
440.304	3.87
440.659	3.86
441.014	3.86
441.369	3.85
441.725	3.84
442.08	3.84
442.435	3.83
442.79	3.83
443.145	3.82
443.5	3.83
443.855	3.81
444.21	3.79
444.565	3.81
444.92	3.81
445.275	3.78
445.629	3.78
445.984	3.78
446.339	3.77
446.693	3.75
447.048	3.75
447.403	3.75
447.757	3.74
448.112	3.75
448.466	3.72
448.82	3.73
449.175	3.73
449.529	3.72
449.883	3.68
450.238	3.68
450.592	3.68
450.946	3.68
451.3	3.7
451.654	3.72
452.008	3.71
452.362	3.7
452.716	3.71
453.07	3.71
453.424	3.72
453.778	3.72
454.132	3.71
454.486	3.69
454.839	3.69
455.193	3.68
455.547	3.68
455.9	3.7
456.254	3.69
456.607	3.68
456.961	3.7
457.314	3.73
457.668	3.73
458.021	3.7
458.375	3.7
458.728	3.67
459.081	3.69
459.434	3.68
459.787	3.69
460.141	3.7
460.494	3.7
460.847	3.71
461.2	3.69
461.553	3.71
461.906	3.73
462.259	3.74
462.611	3.78
462.964	3.78
463.317	3.8
463.67	3.82
464.022	3.81
464.375	3.8
464.728	3.81
465.08	3.83
465.433	3.87
465.785	3.9
466.138	3.94
466.49	3.94
466.843	3.97
467.195	3.98
467.547	4.03
467.899	4.04
468.252	4.05
468.604	4.1
468.956	4.11
469.308	4.15
469.66	4.15
470.012	4.16
470.364	4.18
470.716	4.21
471.068	4.22
471.42	4.25
471.772	4.27
472.123	4.29
472.475	4.3
472.827	4.32
473.178	4.33
473.53	4.32
473.882	4.31
474.233	4.31
474.585	4.32
474.936	4.28
475.288	4.28
475.639	4.25
475.99	4.23
476.342	4.23
476.693	4.22
477.044	4.23
477.395	4.22
477.746	4.22
478.097	4.19
478.448	4.18
478.8	4.17
479.15	4.13
479.501	4.14
479.852	4.15
480.203	4.14
480.554	4.12
480.905	4.13
481.255	4.14
481.606	4.13
481.957	4.13
482.307	4.14
482.658	4.13
483.009	4.13
483.359	4.13
483.709	4.13
484.06	4.13
484.41	4.12
484.761	4.12
485.111	4.12
485.461	4.12
485.811	4.12
486.162	4.12
486.512	4.13
486.862	4.12
487.212	4.11
487.562	4.11
487.912	4.11
488.262	4.11
488.612	4.09
488.961	4.09
489.311	4.09
489.661	4.08
490.011	4.08
490.36	4.08
490.71	4.09
491.06	4.09
491.409	4.09
491.759	4.1
492.108	4.1
492.458	4.1
492.807	4.12
493.157	4.15
493.506	4.15
493.855	4.19
494.204	4.21
494.554	4.25
494.903	4.26
495.252	4.28
495.601	4.32
495.95	4.36
496.299	4.4
496.648	4.43
496.997	4.48
497.346	4.51
497.695	4.56
498.043	4.6
498.392	4.64
498.741	4.67
499.09	4.73
499.438	4.79
499.787	4.85
500.135	4.92
500.484	4.97
500.832	5.07
501.181	5.13
501.529	5.2
501.878	5.28
502.226	5.37
502.574	5.48
502.923	5.58
503.271	5.68
503.619	5.8
503.967	5.93
504.315	6.05
504.663	6.21
505.011	6.34
505.359	6.5
505.707	6.68
506.055	6.85
506.403	6.99
506.751	7.17
507.098	7.35
507.446	7.53
507.794	7.69
508.141	7.86
508.489	8.02
508.837	8.22
509.184	8.44
509.531	8.64
509.879	8.85
510.226	9.04
510.574	9.26
510.921	9.48
511.268	9.72
511.616	9.95
511.963	10.19
512.31	10.42
512.657	10.67
513.004	10.94
513.351	11.22
513.698	11.5
514.045	11.79
514.392	12.08
514.739	12.38
515.086	12.71
515.432	13
515.779	13.27
516.126	13.57
516.473	13.85
516.819	14.11
517.166	14.37
517.512	14.66
517.859	14.91
518.205	15.17
518.552	15.4
518.898	15.63
519.245	15.88
519.591	16.13
519.937	16.35
520.283	16.57
520.629	16.84
520.976	17.14
521.322	17.46
521.668	17.76
522.014	18.06
522.36	18.36
522.706	18.67
523.052	19.04
523.398	19.38
523.743	19.72
524.089	20.07
524.435	20.38
524.781	20.68
525.126	20.98
525.472	21.22
525.817	21.48
526.163	21.73
526.509	21.94
526.854	22.14
527.199	22.34
527.545	22.55
527.89	22.72
528.235	22.88
528.581	23.06
528.926	23.23
529.271	23.4
529.616	23.57
529.961	23.75
530.306	23.92
530.651	24.1
530.996	24.29
531.341	24.49
531.686	24.7
532.031	24.93
532.376	25.11
532.721	25.35
533.065	25.56
533.41	25.77
533.755	25.98
534.099	26.21
534.444	26.42
534.788	26.61
535.133	26.84
535.477	27.06
535.822	27.27
536.166	27.49
536.51	27.74
536.855	28.02
537.199	28.3
537.543	28.54
537.887	28.78
538.231	29.03
538.576	29.3
538.92	29.54
539.264	29.76
539.608	29.98
539.951	30.18
540.295	30.4
540.639	30.57
540.983	30.77
541.327	30.96
541.671	31.15
542.014	31.32
542.358	31.51
542.701	31.67
543.045	31.8
543.389	31.98
543.732	32.15
544.075	32.3
544.419	32.46
544.762	32.63
545.105	32.83
545.449	33.02
545.792	33.19
546.135	33.42
546.478	33.61
546.821	33.85
547.165	34.06
547.508	34.25
547.851	34.47
548.194	34.68
548.536	34.82
548.879	35.03
549.222	35.25
549.565	35.41
549.908	35.59
550.25	35.83
550.593	36.08
550.936	36.24
551.278	36.48
551.621	36.69
551.963	36.9
552.306	37.05
552.648	37.23
552.991	37.43
553.333	37.56
553.675	37.73
554.017	37.89
554.36	38.01
554.702	38.13
555.044	38.27
555.386	38.38
555.728	38.57
556.07	38.69
556.412	38.81
556.754	38.94
557.096	39.1
557.438	39.2
557.78	39.28
558.121	39.47
558.463	39.59
558.805	39.7
559.147	39.8
559.488	39.97
559.83	40.16
560.171	40.27
560.513	40.45
560.854	40.6
561.196	40.66
561.537	40.77
561.878	40.93
562.22	41.09
562.561	41.19
562.902	41.25
563.243	41.36
563.584	41.48
563.925	41.62
564.266	41.7
564.607	41.8
564.948	41.88
565.289	41.95
565.63	41.99
565.971	42.06
566.312	42.16
566.653	42.23
566.993	42.26
567.334	42.34
567.675	42.37
568.015	42.44
568.356	42.56
568.696	42.66
569.037	42.72
569.377	42.75
569.718	42.81
570.058	42.95
570.398	43.05
570.739	43.15
571.079	43.2
571.419	43.29
571.759	43.36
572.099	43.45
572.439	43.52
572.779	43.62
573.119	43.75
573.459	43.83
573.799	43.94
574.139	44.02
574.479	44.15
574.819	44.2
575.158	44.29
575.498	44.36
575.838	44.43
576.177	44.52
576.517	44.63
576.856	44.79
577.196	44.84
577.535	44.9
577.875	44.94
578.214	45.04
578.553	45.17
578.893	45.29
579.232	45.36
579.571	45.49
579.91	45.55
580.25	45.58
580.589	45.62
580.928	45.66
581.267	45.74
581.606	45.73
581.945	45.86
582.283	45.94
582.622	46.04
582.961	46.09
583.3	46.12
583.639	46.18
583.977	46.23
584.316	46.25
584.654	46.3
584.993	46.43
585.332	46.5
585.67	46.53
586.008	46.6
586.347	46.67
586.685	46.64
587.024	46.69
587.362	46.78
587.7	46.92
588.038	46.98
588.376	47.09
588.715	47.14
589.053	47.2
589.391	47.31
589.729	47.41
590.067	47.59
590.404	47.67
590.742	47.81
591.08	47.88
591.418	47.99
591.756	48.07
592.093	48.07
592.431	48.15
592.769	48.17
593.106	48.2
593.444	48.25
593.781	48.35
594.119	48.43
594.456	48.47
594.793	48.49
595.131	48.55
595.468	48.63
595.805	48.65
596.143	48.77
596.48	48.74
596.817	48.73
597.154	48.71
597.491	48.76
597.828	48.75
598.165	48.79
598.502	48.8
598.839	48.9
599.176	48.97
599.512	49
599.849	49.2
600.186	49.29
600.523	49.38
600.859	49.43
601.196	49.51
601.532	49.52
601.869	49.61
602.205	49.67
602.542	49.66
602.878	49.76
603.215	49.74
603.551	49.82
603.887	49.91
604.223	49.91
604.56	50
604.896	50.05
605.232	50.12
605.568	50.2
605.904	50.2
606.24	50.28
606.576	50.24
606.912	50.24
607.248	50.32
607.583	50.4
607.919	50.52
608.255	50.59
608.591	50.73
608.926	50.77
609.262	50.84
609.597	50.86
609.933	50.83
610.268	50.88
610.604	50.87
610.939	50.85
611.275	50.99
611.61	51
611.945	51
612.281	50.95
612.616	50.99
612.951	51.12
613.286	51.17
613.621	51.28
613.956	51.26
614.291	51.22
614.626	51.24
614.961	51.18
615.296	51.21
615.631	51.2
615.966	51.19
616.3	51.2
616.635	51.3
616.97	51.53
617.304	51.7
617.639	51.75
617.973	51.87
618.308	51.87
618.642	51.93
618.977	51.99
619.311	52.08
619.646	52.2
619.98	52.13
620.314	52.17
620.648	52.19
620.983	52.22
621.317	52.29
621.651	52.41
621.985	52.48
622.319	52.57
622.653	52.66
622.987	52.79
623.321	52.79
623.655	52.83
623.988	52.76
624.322	52.63
624.656	52.7
624.99	52.7
625.323	52.7
625.657	52.78
625.99	52.82
626.324	52.9
626.657	52.89
626.991	52.91
627.324	52.85
627.658	52.92
627.991	52.95
628.324	52.98
628.657	52.91
628.991	52.91
629.324	52.92
629.657	52.93
629.99	52.95
630.323	53.02
630.656	53.04
630.989	53.05
631.322	53.04
631.655	53.06
631.987	53.15
632.32	53.25
632.653	53.23
632.986	53.2
633.318	53.17
633.651	53.22
633.984	53.31
634.316	53.39
634.649	53.48
634.981	53.6
635.313	53.66
635.646	53.67
635.978	53.75
636.31	53.86
636.643	53.92
636.975	53.91
637.307	53.91
637.639	53.89
637.971	53.99
638.303	54.14
638.635	54.14
638.967	54.16
639.299	54.17
639.631	54.17
639.963	54.21
640.295	54.27
640.626	54.26
640.958	54.29
641.29	54.47
641.621	54.35
641.953	54.34
642.285	54.37
642.616	54.49
642.948	54.37
643.279	54.25
643.61	54.2
643.942	54.23
644.273	54.37
644.604	54.37
644.936	54.36
645.267	54.37
645.598	54.49
645.929	54.48
646.26	54.41
646.591	54.58
646.922	54.75
647.253	54.87
647.584	54.92
647.915	54.94
648.245	54.82
648.576	54.92
648.907	54.94
649.238	55.03
649.568	55.05
649.899	55.21
650.229	55.34
650.56	55.44
650.89	55.51
651.221	55.45
651.551	55.42
651.882	55.41
652.212	55.44
652.542	55.4
652.872	55.47
653.203	55.52
653.533	55.53
653.863	55.44
654.193	55.41
654.523	55.42
654.853	55.41
655.183	55.42
655.513	55.52
655.843	55.66
656.172	55.56
656.502	55.62
656.832	55.71
657.162	55.75
657.491	55.75
657.821	55.8
658.15	55.86
658.48	55.97
658.809	56.01
659.139	56.01
659.468	55.97
659.798	55.95
660.127	56.05
660.456	55.99
660.785	56.04
661.115	56.08
661.444	56.16
661.773	56.19
662.102	56.22
662.431	56.19
662.76	56.24
663.089	56.25
663.418	56.27
663.747	56.19
664.076	56.12
664.404	56.1
664.733	56.13
665.062	56.17
665.39	56.11
665.719	56.31
666.048	56.39
666.376	56.5
666.705	56.55
667.033	56.48
667.362	56.52
667.69	56.64
668.018	56.71
668.347	56.72
668.675	56.76
669.003	56.98
669.331	57.04
669.659	56.96
669.987	57.09
670.315	57.18
670.643	57.24
670.971	57.3
671.299	57.38
671.627	57.4
671.955	57.37
672.283	57.5
672.61	57.47
672.938	57.49
673.266	57.45
673.593	57.44
673.921	57.49
674.249	57.5
674.576	57.55
674.904	57.53
675.231	57.7
675.558	57.78
675.886	57.79
676.213	57.78
676.54	57.68
676.867	57.54
677.195	57.45
677.522	57.43
677.849	57.45
678.176	57.43
678.503	57.31
678.83	57.32
679.157	57.35
679.484	57.31
679.81	57.28
680.137	57.33
680.464	57.35
680.791	57.41
681.117	57.46
681.444	57.29
681.771	57.23
682.097	57.15
682.424	57.2
682.75	57.01
683.077	57.07
683.403	57.1
683.729	57.13
684.056	57.07
684.382	57.13
684.708	57.05
685.034	57
685.36	57.11
685.686	57.14
686.012	57.06
686.339	56.92
686.664	57.08
686.99	57.14
687.316	57.06
687.642	57.06
687.968	57.14
688.294	57.22
688.619	57.36
688.945	57.15
689.271	56.93
689.596	57.02
689.922	57.16
690.247	57.18
690.573	57.19
690.898	57.2
691.224	57.15
691.549	57.27
691.874	57.39
692.2	57.46
692.525	57.51
692.85	57.44
693.175	57.67
693.5	57.46
693.825	57.5
694.15	57.5
694.475	57.63
694.8	57.61
695.125	57.74
695.45	57.67
695.775	57.83
696.099	58.05
696.424	58.2
696.749	58.19
697.073	58.32
697.398	58.42
697.723	58.48
698.047	58.47
698.372	58.49
698.696	58.42
699.02	58.42
699.345	58.46
699.669	58.64
699.993	58.58
700.318	58.67
700.642	58.71
700.966	58.94
701.29	58.78
701.614	58.81
701.938	58.75
702.262	58.84
702.586	58.92
702.91	58.9
703.234	58.82
703.557	58.67
703.881	58.64
704.205	58.61
704.529	58.64
704.852	58.53
705.176	58.59
705.499	58.56
705.823	58.56
706.146	58.63
706.47	58.59
706.793	58.59
707.117	58.49
707.44	58.45
707.763	58.19
708.086	58.28
708.409	58.22
708.733	58.17
709.056	58.05
709.379	58.08
709.702	58.05
710.025	57.91
710.348	57.93
710.671	57.8
710.993	58.08
711.316	58.14
711.639	58.48
711.962	58.48
712.284	58.65
712.607	58.63
712.93	58.48
713.252	58.46
713.575	58.46
713.897	58.53
714.22	58.48
714.542	58.52
714.864	58.68
715.187	58.64
715.509	58.85
715.831	59.02
716.153	59.01
716.475	59.21
716.798	59.39
717.12	59.53
717.442	59.71
717.764	59.48
718.085	59.53
718.407	59.53
718.729	59.45
719.051	59.59
719.373	59.52
719.695	59.51
720.016	59.61
720.338	59.63
720.659	59.89
720.981	60.12
721.302	60.23
721.624	59.92
721.945	60
722.267	59.77
722.588	59.45
722.909	59.53
723.231	59.28
723.552	59.31
723.873	59.06
724.194	59.06
724.515	59.48
724.836	59.26
725.157	59.2
725.478	59.24
725.799	59.22
726.12	59.27
726.441	59.52
726.762	59.46
727.083	59.63
727.403	59.4
727.724	59.27
728.045	59.31
728.365	59.56
728.686	59.6
729.006	59.87
729.327	60.14
729.647	59.96
729.967	60.21
730.288	60.22
730.608	60.45
730.928	60.42
731.249	60.08
731.569	60.11
731.889	60.1
732.209	60.09
732.529	59.99
732.849	60.13
733.169	59.94
733.489	60.1
733.809	59.79
734.129	59.77
734.448	59.99
734.768	60.06
735.088	60.01
735.408	60.07
735.727	59.96
736.047	59.95
736.366	60.27
736.686	60.12
737.005	59.99
737.325	59.97
737.644	59.95
737.963	60.1
738.283	60.18
738.602	60.18
738.921	60.17
739.24	60.27
739.56	60.11
739.879	60.15
740.198	59.88
740.517	60.03
740.836	60.06
741.155	59.85
741.473	59.92
741.792	59.78
742.111	59.61
742.43	59.41
742.748	59.16
743.067	59.09
743.386	59.14
743.704	59.22
744.023	59.19
744.341	59.37
744.66	59.29
744.978	59.41
745.297	59.34
745.615	59.4
745.933	59.28
746.252	59.48
746.57	59.42
746.888	59.81
747.206	60.05
747.524	60.09
747.842	60.09
748.16	60.1
748.478	60.17
748.796	60.41
749.114	60.56
749.432	61.17
749.749	60.9
750.067	60.61
750.385	60.46
750.703	60.49
751.02	60.19
751.338	59.97
751.655	59.67
751.973	59.64
752.29	59.71
752.608	59.55
752.925	59.32
753.242	59.52
753.56	59.03
753.877	58.95
754.194	59
754.511	59.21
754.828	58.85
755.145	58.89
755.462	58.61
755.779	58.92
756.096	58.43
756.413	58.27
756.73	58.3
757.047	58.36
757.364	58.43
757.68	58.69
757.997	58.89
758.314	59.07
758.63	59.12
758.947	59.06
759.264	59.21
759.58	59.4
759.896	59.43
760.213	59.52
760.529	59.56
760.846	59.62
761.162	59.52
761.478	59.65
761.794	59.39
762.11	59.47
762.426	59.31
762.743	59.57
763.059	60.01
763.375	60.38
763.69	60.17
764.006	60.17
764.322	60.13
764.638	60.17
764.954	60.24
765.27	60.4
765.585	60.47
765.901	60.67
766.216	60.54
766.532	60.5
766.848	60.55
767.163	60.41
767.478	60.4
767.794	60.3
768.109	60.39
768.424	60.72
768.74	60.94
769.055	61.01
769.37	60.86
769.685	60.49
770	60.52
770.315	60.77
770.63	60.78
770.945	60.66
771.26	60.36
771.575	60.47
771.89	60.25
772.205	60.07
772.52	60.19
772.834	60.3
773.149	60.15
773.464	60.1
773.778	60.39
774.093	60.19
774.407	60.17
774.722	60.18
775.036	60.25
775.351	60.21
775.665	60.68
775.979	60.33
776.293	60.81
776.608	60.31
776.922	60.36
777.236	60.25
777.55	60.44
777.864	60.76
778.178	60.62
778.492	61.05
778.806	60.86
779.12	60.76
779.434	60.85
779.747	61.07
780.061	61.73
780.375	61.74
780.689	61.74
781.002	61.98
781.316	62.09
781.629	62.13
781.943	61.55
782.256	61.33
782.57	61.74
782.883	60.98
783.196	61.35
783.51	60.76
783.823	60.8
784.136	60.36
784.449	60.4
784.762	60.65
785.075	60.23
785.388	60.58
785.701	59.99
786.014	59.95
786.327	59.65
786.64	59.61
786.953	59.74
787.266	59.94
787.578	59.5
787.891	59.38
788.204	59.36
788.516	59.79
788.829	59.61
789.141	59.84
789.454	60
789.766	59.93
790.079	60.96
790.391	60.84
790.703	61.15
791.016	61.33
791.328	61.32
791.64	61.65
791.952	61.77
792.264	61.79
792.576	61.52
792.888	61.86
793.2	61.64
793.512	61.48
793.824	61.71
794.136	62.43
794.448	62.91
794.76	62.93
795.071	62.75
795.383	62.87
795.695	62.45
796.006	62.17
796.318	62.23
796.629	61.84
796.941	61.96
797.252	62.09
797.564	61.75
797.875	61.66
798.186	61.28
798.497	61.29
798.809	61.1
799.12	60.7
799.431	60.91
799.742	61
800.053	61.05
800.364	60.77
800.675	59.94
800.986	59.47
801.297	58.91
801.608	59.07
801.918	58.76
802.229	58.97
802.54	59.77
802.851	59.5
803.161	59.76
803.472	59.67
803.782	59.5
804.093	59.71
804.403	59.8
804.714	60.17
805.024	59.86
805.334	60.45
805.645	61.58
805.955	61.3
806.265	61
806.575	61.17
806.885	61.57
807.195	62.51
807.505	62.5
807.815	63.18
808.125	63.17
808.435	63.07
808.745	62.44
809.055	62.29
809.365	63.08
809.674	62.49
809.984	62.34
810.294	62.01
810.603	62.36
810.913	62.82
811.222	62.34
811.532	62.26
811.841	62.37
812.151	62.69
812.46	62.37
812.769	62.4
813.079	61.67
813.388	61.18
813.697	60.52
814.006	60.06
814.315	59.38
814.624	59.46
814.933	59.65
815.242	60.14
815.551	59.34
815.86	58.51
816.169	58.61
816.478	58.65
816.786	58.8
817.095	58.23
817.404	57.26
817.712	57.16
818.021	57.72
818.33	58.31
818.638	57.5
818.947	58.46
819.255	59.12
819.563	60.01
819.872	60.6
820.18	60.91
820.488	61.53
820.796	62.07
821.105	62.31
821.413	62.33
821.721	62.5
822.029	62.73
822.337	62.84
822.645	62.89
822.953	62.87
823.26	63.05
823.568	63.15
823.876	63.13
824.184	63.28
824.491	63.48
824.799	63.34
825.107	63.73
825.414	63.68
825.722	63.57
826.029	63.51
826.337	63.57
826.644	63.65
826.951	63.55
827.259	63.6
827.566	63.37
827.873	63.14
828.18	63
828.488	62.7
828.795	62.56
829.102	62.66
829.409	62.73
829.716	62.38
830.023	62.21
830.329	62.52
830.636	62.61
830.943	62.33
831.25	62.58
831.557	61.94
831.863	61.83
832.17	62.04
832.476	61.83
832.783	61.56
833.089	61.21
833.396	61.63
833.702	61.37
834.009	61.42
834.315	61.94
834.621	62.08
834.928	62.37
835.234	62.5
835.54	62.3
835.846	62.19
836.152	62.55
836.458	62.67
836.764	62.39
837.07	61.67
837.376	61.35
837.682	60.49
837.988	60.48
838.293	59.99
838.599	59.83
838.905	59.82
839.211	59.24
839.516	59.06
839.822	58.83
840.127	58.63
840.433	58.97
840.738	58.64
841.044	58.67
841.349	59.39
841.654	59.39
841.959	58.72
842.265	57.42
842.57	57.32
842.875	56.71
843.18	57.04
843.485	57.04
843.79	57.66
844.095	57.18
844.4	57.5
844.705	58.4
845.01	57.44
845.315	57.67
845.619	58.59
845.924	59.35
846.229	58.07
846.533	57.57
846.838	55.99
847.142	55
847.447	54.28
847.751	53.02
848.056	51.99
848.36	52.84
848.664	55.48
848.969	54.95
849.273	54.25
849.577	53.06
849.881	53.66
850.185	51.97
850.489	54.96
850.794	54.04
851.097	53.52
851.401	55.88
851.705	55.4
852.009	54.48
852.313	53.48
852.617	54.61
852.92	54.59
853.224	54.93
853.528	56.26
853.831	56.15
854.135	57
854.438	57.35
854.742	57.68
855.045	55.51
855.349	53.41
855.652	54.27
855.955	55.61
856.259	56.12
856.562	54.45
856.865	53.02
857.168	55.07
857.471	53.14
857.774	52.11
858.077	52.63
858.38	54.49
858.683	53.13
858.986	53.58
859.289	52.2
859.592	52.05
859.894	51.19
860.197	50.95
860.5	51.15
860.802	53.36
861.105	53.15
861.407	55.65
861.71	59.6
862.012	61.07
862.315	58.59
862.617	59.17
862.919	59.63
863.222	59.68
863.524	57.44
863.826	60.66
864.128	58.12
864.43	57.32
864.732	57.56
865.034	58.03
865.336	54.04
865.638	53.55
865.94	55.02
866.242	55.83
866.544	58.49
866.846	58.86
867.147	56.81
867.449	57.13
867.751	57.26
868.052	57.35
868.354	54.69
868.655	56.78
868.957	55.17
869.258	55.81
869.56	55.45
869.861	55.08
870.162	55.45
870.463	59
870.765	60.33
871.066	56.62
871.367	57.88
871.668	59.17
871.969	60.47
872.27	59.22
872.571	60.22
872.872	57.19
873.173	56.61
873.473	56.27
873.774	54.52
874.075	54.49
874.376	52.09
874.676	55.61
874.977	53.87
875.277	54.22
875.578	55.36
875.878	55.76
876.179	57.1
876.479	55.5
876.78	52.97
877.08	51.72
877.38	53.48
877.68	53.02
877.981	54.18
878.281	54.84
878.581	56.64
