Data from BU26846_Reflection_00012.txt Node
Date: Mon Nov 18 16:33:43 EST 2019
User: vgr7
Spectrometer: USB2G7710
Scans to average: 3
Trigger mode: 4
Integration Time (sec): 2.000000E-2
Electric dark correction enabled: true
Boxcar width: 10
XAxis mode: Wavelengths
Number of Pixels in Spectrum: 2048
>>>>>Begin Spectral Data<<<<<
177.721	-65.77
178.105	552.83
178.488	-1274.05
178.871	200.32
179.254	65.68
179.636	-7.88
180.019	-29.5
180.402	124.24
180.785	-25.14
181.168	195.41
181.55	145.94
181.933	102.85
182.316	112.47
182.698	145.35
183.081	147.11
183.463	192.99
183.846	745.31
184.228	550.75
184.611	1083.61
184.993	3268.54
185.376	-3302.06
185.758	4916.9
186.14	493.08
186.522	582.34
186.904	309.44
187.287	207.02
187.669	267.28
188.051	202.87
188.433	229.19
188.815	225.77
189.197	201.79
189.579	273.29
189.961	665.82
190.342	847.88
190.724	-513.23
191.106	2161.07
191.488	494.32
191.869	140.84
192.251	181.03
192.633	160.64
193.014	133.01
193.396	122.83
193.777	81.35
194.159	67
194.54	41.76
194.922	41.95
195.303	36.63
195.684	14.63
196.065	48.56
196.447	57.71
196.828	81.8
197.209	107.42
197.59	171.51
197.971	131.7
198.352	108.94
198.733	103.05
199.114	118.03
199.495	239.72
199.876	-985.43
200.257	-484.32
200.638	-194.19
201.018	-208.45
201.399	-127.49
201.78	-67.63
202.16	-83.16
202.541	-72.07
202.922	-111.28
203.302	-113.24
203.683	-124.81
204.063	-154.07
204.444	-107.3
204.824	-120.76
205.204	-110.25
205.585	-111.74
205.965	-92.54
206.345	-101.09
206.725	-111.38
207.106	-146.71
207.486	-150.59
207.866	-213.89
208.246	-313.25
208.626	-322.93
209.006	-192.98
209.386	-245.53
209.766	-399.43
210.145	-384.36
210.525	-321.92
210.905	-214.67
211.285	-223.95
211.664	-194.38
212.044	-199.05
212.424	-237.76
212.803	-202.52
213.183	-217.53
213.562	-171.68
213.942	-243.07
214.321	-195.81
214.701	-196.23
215.08	-425.55
215.459	-418.05
215.838	-233.03
216.218	-212.25
216.597	-190.44
216.976	-309.51
217.355	-246.05
217.734	-219.76
218.113	-216.5
218.492	-436.81
218.871	-10278.38
219.25	-368.26
219.629	-1167.61
220.008	2255.69
220.387	-11413.51
220.766	-662.95
221.144	-9145.9
221.523	3677.64
221.902	1687.74
222.28	3960.14
222.659	-851.33
223.037	-235.98
223.416	-316.44
223.794	-317.83
224.173	-202.52
224.551	-171.11
224.929	-140.48
225.308	-111.06
225.686	-91.38
226.064	-67.77
226.442	-50.7
226.821	-39.16
227.199	-40.63
227.577	-32.04
227.955	-29.61
228.333	-25.46
228.711	-25.83
229.089	-16.78
229.467	-15.73
229.845	-15.92
230.222	-14.71
230.6	-11.97
230.978	-10.35
231.356	-5.57
231.733	-2.74
232.111	-1.04
232.488	-1.12
232.866	-1.55
233.243	-0.16
233.621	-0.67
233.998	-1.05
234.376	-1.84
234.753	0.1
235.13	1.63
235.508	2.67
235.885	3.27
236.262	1.34
236.639	0.44
237.016	0.09
237.393	1.53
237.77	2.45
238.147	2.17
238.524	1.69
238.901	2.26
239.278	2.1
239.655	2.19
240.032	2.4
240.409	2.17
240.785	3.12
241.162	3.29
241.539	3.44
241.915	3.92
242.292	3.96
242.668	3.75
243.045	3.58
243.421	3.47
243.798	3.37
244.174	3.74
244.551	4.07
244.927	3.66
245.303	3.9
245.679	3.84
246.056	3.92
246.432	3.65
246.808	3.47
247.184	3.32
247.56	3.12
247.936	2.89
248.312	3.19
248.688	3.11
249.064	3.11
249.44	3.21
249.815	3.1
250.191	3.34
250.567	3.12
250.943	3.03
251.318	3.1
251.694	3.16
252.069	3.1
252.445	2.97
252.82	3.22
253.196	2.6
253.571	2.65
253.947	2.68
254.322	2.93
254.697	2.86
255.073	2.82
255.448	3.14
255.823	3.32
256.198	3.17
256.573	2.94
256.948	2.93
257.323	3.17
257.698	3.06
258.073	3.01
258.448	3.12
258.823	3.3
259.198	3.09
259.573	3.06
259.948	2.97
260.322	3.05
260.697	3.09
261.072	3.21
261.446	3.22
261.821	3.08
262.195	3.15
262.57	3.18
262.944	3.22
263.319	3.08
263.693	2.98
264.067	2.95
264.442	3.04
264.816	3.01
265.19	2.8
265.564	2.83
265.938	2.64
266.313	2.62
266.687	2.5
267.061	2.7
267.435	2.8
267.809	2.7
268.183	2.64
268.556	2.44
268.93	2.34
269.304	2.24
269.678	2.41
270.051	2.24
270.425	2.21
270.799	2.34
271.172	2.41
271.546	2.4
271.919	2.33
272.293	2.13
272.666	2.13
273.04	2.05
273.413	2.02
273.787	2.15
274.16	2.02
274.533	1.93
274.906	1.89
275.279	1.76
275.653	1.79
276.026	1.72
276.399	1.73
276.772	1.82
277.145	1.9
277.518	1.91
277.891	1.86
278.263	1.86
278.636	1.72
279.009	1.67
279.382	1.97
279.755	2.05
280.127	2.34
280.5	2.4
280.872	2.51
281.245	2.53
281.617	2.53
281.99	2.68
282.362	2.89
282.735	2.83
283.107	2.78
283.479	2.89
283.852	2.88
284.224	2.93
284.596	2.95
284.968	2.95
285.34	2.86
285.713	2.95
286.085	2.97
286.457	3
286.829	3.06
287.201	2.81
287.572	2.82
287.944	2.74
288.316	2.65
288.688	2.63
289.06	2.76
289.431	2.83
289.803	2.85
290.175	2.79
290.546	3.03
290.918	3.07
291.289	3.14
291.661	3.33
292.032	3.53
292.403	3.57
292.775	3.6
293.146	3.52
293.517	3.6
293.889	3.68
294.26	3.77
294.631	3.76
295.002	3.81
295.373	3.89
295.744	4
296.115	4.08
296.486	3.96
296.857	3.86
297.228	3.78
297.599	3.76
297.97	3.7
298.34	3.57
298.711	3.72
299.082	3.73
299.452	3.62
299.823	3.62
300.194	3.56
300.564	3.55
300.935	3.73
301.305	3.71
301.676	3.68
302.046	3.74
302.416	3.68
302.787	3.8
303.157	3.76
303.527	3.74
303.897	3.77
304.267	4.16
304.637	4.17
305.008	4.26
305.378	4.42
305.748	4.6
306.117	4.54
306.487	4.58
306.857	4.56
307.227	4.76
307.597	4.76
307.967	4.95
308.336	5.05
308.706	5.08
309.076	5.25
309.445	5.26
309.815	5.32
310.184	5.41
310.554	5.47
310.923	5.54
311.293	5.57
311.662	5.58
312.031	5.47
312.401	5.55
312.77	5.69
313.139	5.81
313.508	5.76
313.877	5.92
314.246	5.96
314.616	5.96
314.985	5.97
315.353	5.93
315.722	5.97
316.091	6.01
316.46	6.05
316.829	6.03
317.198	6.23
317.567	6.27
317.935	6.29
318.304	6.28
318.672	6.31
319.041	6.39
319.41	6.52
319.778	6.5
320.147	6.63
320.515	6.57
320.883	6.39
321.252	6.58
321.62	6.63
321.988	6.63
322.357	6.84
322.725	6.82
323.093	7.13
323.461	7.19
323.829	7.33
324.197	7.5
324.565	7.53
324.933	7.66
325.301	7.65
325.669	7.62
326.037	7.67
326.405	7.73
326.772	7.88
327.14	8.11
327.508	8.27
327.875	8.26
328.243	8.41
328.61	8.48
328.978	8.54
329.346	8.66
329.713	8.68
330.08	8.69
330.448	8.67
330.815	8.44
331.182	8.5
331.55	8.41
331.917	8.33
332.284	8.38
332.651	8.26
333.018	8.27
333.385	8.39
333.752	8.37
334.119	8.46
334.486	8.41
334.853	8.25
335.22	8.19
335.587	8.31
335.954	8.22
336.32	8.18
336.687	8.18
337.054	8.12
337.42	8.25
337.787	8.3
338.153	8.32
338.52	8.44
338.886	8.37
339.253	8.42
339.619	8.39
339.986	8.4
340.352	8.6
340.718	8.68
341.084	8.65
341.451	8.88
341.817	8.9
342.183	8.87
342.549	8.81
342.915	8.88
343.281	8.85
343.647	8.92
344.013	9.02
344.379	9.01
344.745	9.02
345.11	8.94
345.476	8.9
345.842	9.02
346.208	9.09
346.573	9.16
346.939	9.27
347.304	9.33
347.67	9.31
348.035	9.11
348.401	9.02
348.766	9.04
349.132	8.93
349.497	8.79
349.862	8.93
350.228	9.01
350.593	8.93
350.958	8.93
351.323	8.87
351.688	8.84
352.053	8.84
352.418	8.86
352.783	8.9
353.148	8.85
353.513	8.82
353.878	8.83
354.243	8.88
354.608	8.83
354.972	8.7
355.337	8.69
355.702	8.8
356.066	8.95
356.431	8.98
356.795	9.08
357.16	9.23
357.524	9.16
357.889	9.13
358.253	9.15
358.618	9.2
358.982	9.17
359.346	9.12
359.71	9.08
360.075	9.07
360.439	9.07
360.803	9.1
361.167	9.02
361.531	8.92
361.895	8.78
362.259	8.75
362.623	8.82
362.987	8.81
363.351	8.74
363.714	8.66
364.078	8.64
364.442	8.48
364.806	8.35
365.169	8.27
365.533	8.19
365.896	8.14
366.26	8.04
366.623	7.98
366.987	7.99
367.35	7.96
367.714	7.91
368.077	7.84
368.44	7.85
368.803	7.83
369.167	7.77
369.53	7.75
369.893	7.73
370.256	7.67
370.619	7.57
370.982	7.5
371.345	7.42
371.708	7.34
372.071	7.27
372.434	7.26
372.797	7.2
373.159	7.16
373.522	7.13
373.885	7.1
374.247	7.12
374.61	7.09
374.973	7.01
375.335	6.95
375.698	6.85
376.06	6.72
376.423	6.66
376.785	6.64
377.147	6.66
377.51	6.59
377.872	6.53
378.234	6.52
378.596	6.55
378.958	6.47
379.321	6.47
379.683	6.44
380.045	6.34
380.407	6.31
380.769	6.32
381.13	6.24
381.492	6.18
381.854	6.1
382.216	5.98
382.578	5.95
382.939	5.89
383.301	5.88
383.663	5.8
384.024	5.75
384.386	5.76
384.747	5.68
385.109	5.59
385.47	5.53
385.832	5.47
386.193	5.43
386.554	5.4
386.916	5.3
387.277	5.3
387.638	5.31
387.999	5.25
388.36	5.14
388.721	5.15
389.082	5.13
389.443	5.08
389.804	5.04
390.165	5.01
390.526	5.01
390.887	4.98
391.248	5
391.609	4.96
391.969	4.9
392.33	4.84
392.691	4.85
393.051	4.8
393.412	4.81
393.772	4.74
394.133	4.71
394.493	4.67
394.854	4.65
395.214	4.58
395.574	4.54
395.935	4.53
396.295	4.49
396.655	4.44
397.015	4.44
397.376	4.43
397.736	4.41
398.096	4.36
398.456	4.31
398.816	4.26
399.176	4.22
399.535	4.14
399.895	4.1
400.255	4.06
400.615	4.05
400.975	4.02
401.334	4.01
401.694	3.99
402.054	4
402.413	3.96
402.773	3.96
403.132	3.94
403.492	3.89
403.851	3.9
404.211	3.86
404.57	3.82
404.929	3.8
405.288	3.76
405.648	3.73
406.007	3.73
406.366	3.72
406.725	3.73
407.084	3.78
407.443	3.76
407.802	3.78
408.161	3.76
408.52	3.72
408.879	3.67
409.238	3.66
409.596	3.62
409.955	3.62
410.314	3.59
410.673	3.57
411.031	3.59
411.39	3.52
411.748	3.52
412.107	3.52
412.465	3.52
412.824	3.51
413.182	3.5
413.54	3.49
413.899	3.48
414.257	3.48
414.615	3.43
414.974	3.44
415.332	3.42
415.69	3.41
416.048	3.4
416.406	3.4
416.764	3.39
417.122	3.4
417.48	3.34
417.838	3.35
418.195	3.35
418.553	3.33
418.911	3.36
419.269	3.34
419.626	3.31
419.984	3.31
420.342	3.3
420.699	3.28
421.057	3.27
421.414	3.25
421.772	3.23
422.129	3.23
422.486	3.22
422.844	3.2
423.201	3.19
423.558	3.17
423.915	3.18
424.273	3.17
424.63	3.15
424.987	3.18
425.344	3.16
425.701	3.15
426.058	3.14
426.415	3.11
426.772	3.11
427.128	3.1
427.485	3.08
427.842	3.07
428.199	3.07
428.555	3.06
428.912	3.07
429.269	3.09
429.625	3.08
429.982	3.07
430.338	3.07
430.695	3.09
431.051	3.09
431.407	3.08
431.764	3.07
432.12	3.07
432.476	3.05
432.832	3.04
433.189	3.04
433.545	3.04
433.901	3.05
434.257	3.04
434.613	3.06
434.969	3.05
435.325	3.07
435.681	3.06
436.036	3.05
436.392	3.04
436.748	3
437.104	3
437.459	2.99
437.815	3
438.171	2.99
438.526	3
438.882	2.99
439.237	3
439.593	3.02
439.948	3.01
440.304	3.03
440.659	3.04
441.014	3.04
441.369	3.02
441.725	3.02
442.08	3.02
442.435	3.03
442.79	3.02
443.145	3.03
443.5	3.02
443.855	3.01
444.21	3.02
444.565	3.02
444.92	3.04
445.275	3.02
445.629	3.03
445.984	3.01
446.339	3
446.693	3
447.048	2.99
447.403	2.99
447.757	2.96
448.112	2.96
448.466	2.95
448.82	2.96
449.175	2.95
449.529	2.94
449.883	2.94
450.238	2.93
450.592	2.91
450.946	2.9
451.3	2.9
451.654	2.9
452.008	2.87
452.362	2.84
452.716	2.85
453.07	2.84
453.424	2.86
453.778	2.86
454.132	2.84
454.486	2.83
454.839	2.83
455.193	2.84
455.547	2.84
455.9	2.84
456.254	2.85
456.607	2.84
456.961	2.82
457.314	2.8
457.668	2.81
458.021	2.81
458.375	2.8
458.728	2.82
459.081	2.82
459.434	2.81
459.787	2.83
460.141	2.82
460.494	2.82
460.847	2.82
461.2	2.81
461.553	2.82
461.906	2.83
462.259	2.83
462.611	2.84
462.964	2.84
463.317	2.85
463.67	2.84
464.022	2.86
464.375	2.88
464.728	2.9
465.08	2.9
465.433	2.9
465.785	2.94
466.138	2.93
466.49	2.95
466.843	2.98
467.195	2.97
467.547	3
467.899	3
468.252	3.01
468.604	3.04
468.956	3.02
469.308	3.05
469.66	3.05
470.012	3.07
470.364	3.09
470.716	3.11
471.068	3.13
471.42	3.15
471.772	3.2
472.123	3.21
472.475	3.23
472.827	3.26
473.178	3.26
473.53	3.27
473.882	3.3
474.233	3.3
474.585	3.3
474.936	3.28
475.288	3.3
475.639	3.3
475.99	3.3
476.342	3.31
476.693	3.29
477.044	3.29
477.395	3.27
477.746	3.25
478.097	3.22
478.448	3.21
478.8	3.18
479.15	3.14
479.501	3.12
479.852	3.11
480.203	3.1
480.554	3.1
480.905	3.11
481.255	3.1
481.606	3.12
481.957	3.13
482.307	3.14
482.658	3.13
483.009	3.13
483.359	3.12
483.709	3.13
484.06	3.12
484.41	3.13
484.761	3.13
485.111	3.12
485.461	3.13
485.811	3.13
486.162	3.13
486.512	3.14
486.862	3.14
487.212	3.14
487.562	3.14
487.912	3.14
488.262	3.13
488.612	3.14
488.961	3.12
489.311	3.12
489.661	3.12
490.011	3.12
490.36	3.11
490.71	3.11
491.06	3.11
491.409	3.11
491.759	3.11
492.108	3.11
492.458	3.14
492.807	3.14
493.157	3.14
493.506	3.17
493.855	3.17
494.204	3.18
494.554	3.19
494.903	3.2
495.252	3.21
495.601	3.24
495.95	3.26
496.299	3.29
496.648	3.31
496.997	3.31
497.346	3.34
497.695	3.4
498.043	3.43
498.392	3.46
498.741	3.5
499.09	3.55
499.438	3.6
499.787	3.64
500.135	3.68
500.484	3.73
500.832	3.77
501.181	3.86
501.529	3.93
501.878	4.01
502.226	4.08
502.574	4.16
502.923	4.24
503.271	4.31
503.619	4.41
503.967	4.54
504.315	4.64
504.663	4.75
505.011	4.87
505.359	4.97
505.707	5.11
506.055	5.25
506.403	5.37
506.751	5.5
507.098	5.65
507.446	5.81
507.794	5.95
508.141	6.12
508.489	6.28
508.837	6.45
509.184	6.62
509.531	6.8
509.879	6.99
510.226	7.17
510.574	7.36
510.921	7.55
511.268	7.73
511.616	7.95
511.963	8.16
512.31	8.37
512.657	8.62
513.004	8.87
513.351	9.14
513.698	9.42
514.045	9.7
514.392	9.96
514.739	10.29
515.086	10.59
515.432	10.88
515.779	11.15
516.126	11.46
516.473	11.75
516.819	12.03
517.166	12.32
517.512	12.63
517.859	12.9
518.205	13.18
518.552	13.44
518.898	13.71
519.245	13.97
519.591	14.25
519.937	14.5
520.283	14.79
520.629	15.05
520.976	15.36
521.322	15.71
521.668	16.05
522.014	16.36
522.36	16.71
522.706	17.09
523.052	17.46
523.398	17.83
523.743	18.25
524.089	18.69
524.435	19.04
524.781	19.37
525.126	19.73
525.472	20.02
525.817	20.32
526.163	20.57
526.509	20.81
526.854	21.05
527.199	21.28
527.545	21.48
527.89	21.71
528.235	21.9
528.581	22.1
528.926	22.31
529.271	22.53
529.616	22.74
529.961	22.92
530.306	23.16
530.651	23.4
530.996	23.64
531.341	23.87
531.686	24.13
532.031	24.39
532.376	24.63
532.721	24.91
533.065	25.16
533.41	25.43
533.755	25.72
534.099	25.99
534.444	26.29
534.788	26.59
535.133	26.88
535.477	27.16
535.822	27.46
536.166	27.79
536.51	28.11
536.855	28.44
537.199	28.79
537.543	29.12
537.887	29.45
538.231	29.79
538.576	30.09
538.92	30.45
539.264	30.76
539.608	31.03
539.951	31.3
540.295	31.55
540.639	31.83
540.983	32.08
541.327	32.33
541.671	32.52
542.014	32.73
542.358	32.92
542.701	33.15
543.045	33.35
543.389	33.53
543.732	33.75
544.075	33.98
544.419	34.21
544.762	34.46
545.105	34.68
545.449	34.91
545.792	35.18
546.135	35.38
546.478	35.65
546.821	35.94
547.165	36.24
547.508	36.57
547.851	36.83
548.194	37.07
548.536	37.35
548.879	37.67
549.222	37.96
549.565	38.27
549.908	38.55
550.25	38.86
550.593	39.09
550.936	39.34
551.278	39.59
551.621	39.87
551.963	40.1
552.306	40.38
552.648	40.69
552.991	40.96
553.333	41.15
553.675	41.35
554.017	41.56
554.36	41.73
554.702	41.9
555.044	42.12
555.386	42.31
555.728	42.48
556.07	42.63
556.412	42.81
556.754	42.99
557.096	43.19
557.438	43.36
557.78	43.64
558.121	43.86
558.463	44.07
558.805	44.25
559.147	44.43
559.488	44.63
559.83	44.74
560.171	44.84
560.513	45.08
560.854	45.21
561.196	45.37
561.537	45.57
561.878	45.69
562.22	45.84
562.561	46.01
562.902	46.19
563.243	46.36
563.584	46.52
563.925	46.62
564.266	46.71
564.607	46.85
564.948	46.97
565.289	47.04
565.63	47.18
565.971	47.29
566.312	47.41
566.653	47.5
566.993	47.56
567.334	47.67
567.675	47.75
568.015	47.96
568.356	48.05
568.696	48.11
569.037	48.25
569.377	48.37
569.718	48.51
570.058	48.59
570.398	48.7
570.739	48.78
571.079	48.88
571.419	49.03
571.759	49.15
572.099	49.21
572.439	49.35
572.779	49.47
573.119	49.52
573.459	49.61
573.799	49.67
574.139	49.75
574.479	49.83
574.819	49.91
575.158	49.94
575.498	50.05
575.838	50.19
576.177	50.28
576.517	50.42
576.856	50.46
577.196	50.58
577.535	50.68
577.875	50.84
578.214	50.98
578.553	51.07
578.893	51.17
579.232	51.24
579.571	51.3
579.91	51.33
580.25	51.49
580.589	51.55
580.928	51.72
581.267	51.86
581.606	52.01
581.945	52.09
582.283	52.22
582.622	52.27
582.961	52.37
583.3	52.46
583.639	52.54
583.977	52.69
584.316	52.76
584.654	52.81
584.993	52.78
585.332	52.86
585.67	52.91
586.008	52.86
586.347	52.9
586.685	52.97
587.024	53.06
587.362	53.07
587.7	53.16
588.038	53.2
588.376	53.31
588.715	53.33
589.053	53.42
589.391	53.44
589.729	53.52
590.067	53.51
590.404	53.61
590.742	53.59
591.08	53.62
591.418	53.65
591.756	53.73
592.093	53.78
592.431	53.83
592.769	53.89
593.106	54.04
593.444	54.16
593.781	54.22
594.119	54.3
594.456	54.37
594.793	54.39
595.131	54.41
595.468	54.45
595.805	54.58
596.143	54.61
596.48	54.62
596.817	54.67
597.154	54.76
597.491	54.75
597.828	54.78
598.165	54.79
598.502	54.88
598.839	54.9
599.176	54.95
599.512	55.03
599.849	55.13
600.186	55.11
600.523	55.16
600.859	55.21
601.196	55.22
601.532	55.24
601.869	55.32
602.205	55.36
602.542	55.4
602.878	55.43
603.215	55.43
603.551	55.55
603.887	55.6
604.223	55.55
604.56	55.59
604.896	55.64
605.232	55.72
605.568	55.69
605.904	55.67
606.24	55.78
606.576	55.79
606.912	55.79
607.248	55.85
607.583	55.9
607.919	55.93
608.255	55.98
608.591	56.05
608.926	56.05
609.262	56.09
609.597	56.09
609.933	56.03
610.268	56.13
610.604	56.08
610.939	56.04
611.275	56.09
611.61	56.09
611.945	56.14
612.281	56.23
612.616	56.31
612.951	56.42
613.286	56.4
613.621	56.43
613.956	56.45
614.291	56.54
614.626	56.66
614.961	56.64
615.296	56.61
615.631	56.7
615.966	56.74
616.3	56.77
616.635	56.79
616.97	56.84
617.304	56.87
617.639	56.89
617.973	56.94
618.308	57.09
618.642	57.18
618.977	57.2
619.311	57.07
619.646	57.11
619.98	57.13
620.314	57.12
620.648	57.08
620.983	57.1
621.317	57.06
621.651	57.03
621.985	57.14
622.319	57.29
622.653	57.29
622.987	57.27
623.321	57.29
623.655	57.32
623.988	57.42
624.322	57.52
624.656	57.52
624.99	57.64
625.323	57.64
625.657	57.7
625.99	57.73
626.324	57.76
626.657	57.87
626.991	57.95
627.324	57.98
627.658	58.12
627.991	58.12
628.324	58.2
628.657	58.14
628.991	58.14
629.324	58.13
629.657	58.04
629.99	58.12
630.323	58.14
630.656	58.18
630.989	58.12
631.322	58.12
631.655	58.27
631.987	58.22
632.32	58.24
632.653	58.17
632.986	58.16
633.318	58.14
633.651	57.99
633.984	57.95
634.316	57.98
634.649	57.87
634.981	57.84
635.313	57.8
635.646	57.87
635.978	57.96
636.31	57.96
636.643	58.03
636.975	58.08
637.307	58.11
637.639	58.16
637.971	58.22
638.303	58.23
638.635	58.1
638.967	57.99
639.299	58.02
639.631	58.06
639.963	58.06
640.295	58.29
640.626	58.36
640.958	58.35
641.29	58.37
641.621	58.43
641.953	58.44
642.285	58.6
642.616	58.65
642.948	58.56
643.279	58.57
643.61	58.64
643.942	58.74
644.273	58.79
644.604	58.8
644.936	58.8
645.267	58.66
645.598	58.72
645.929	58.83
646.26	58.76
646.591	58.89
646.922	58.97
647.253	58.85
647.584	58.93
647.915	58.91
648.245	58.89
648.576	58.99
648.907	58.97
649.238	58.95
649.568	58.91
649.899	58.96
650.229	58.96
650.56	58.87
650.89	58.78
651.221	58.76
651.551	58.76
651.882	58.75
652.212	58.79
652.542	58.84
652.872	58.78
653.203	58.93
653.533	58.82
653.863	58.76
654.193	58.77
654.523	58.77
654.853	58.88
655.183	58.91
655.513	58.88
655.843	59.07
656.172	59.05
656.502	59.06
656.832	59.07
657.162	58.98
657.491	59.02
657.821	58.98
658.15	59.01
658.48	59.07
658.809	59.01
659.139	59.09
659.468	59.1
659.798	59.16
660.127	59.04
660.456	59.05
660.785	59.14
661.115	59.11
661.444	59.15
661.773	59.12
662.102	59.15
662.431	59.2
662.76	59.03
663.089	58.95
663.418	58.98
663.747	59.05
664.076	59.16
664.404	59.2
664.733	59.23
665.062	59.22
665.39	59.13
665.719	59.23
666.048	59.24
666.376	59.16
666.705	59.18
667.033	59.07
667.362	59.08
667.69	59.04
668.018	59.15
668.347	59.16
668.675	59.06
669.003	59.02
669.331	58.93
669.659	59.13
669.987	59.19
670.315	59.14
670.643	59.03
670.971	58.98
671.299	59.09
671.627	59.19
671.955	59.07
672.283	59.13
672.61	59.18
672.938	59.15
673.266	59.22
673.593	59.33
673.921	59.56
674.249	59.59
674.576	59.65
674.904	59.54
675.231	59.5
675.558	59.5
675.886	59.51
676.213	59.5
676.54	59.44
676.867	59.57
677.195	59.58
677.522	59.55
677.849	59.72
678.176	59.73
678.503	59.66
678.83	59.83
679.157	59.74
679.484	59.69
679.81	59.68
680.137	59.68
680.464	59.67
680.791	59.52
681.117	59.5
681.444	59.46
681.771	59.52
682.097	59.39
682.424	59.55
682.75	59.56
683.077	59.55
683.403	59.54
683.729	59.57
684.056	59.48
684.382	59.56
684.708	59.43
685.034	59.34
685.36	59.32
685.686	59.24
686.012	59.38
686.339	59.39
686.664	59.48
686.99	59.5
687.316	59.47
687.642	59.67
687.968	59.61
688.294	59.6
688.619	59.68
688.945	59.84
689.271	59.75
689.596	59.73
689.922	59.77
690.247	59.75
690.573	59.61
690.898	59.75
691.224	59.68
691.549	59.56
691.874	59.58
692.2	59.71
692.525	59.83
692.85	59.7
693.175	59.81
693.5	59.67
693.825	59.63
694.15	59.7
694.475	59.64
694.8	59.66
695.125	59.59
695.45	59.52
695.775	59.41
696.099	59.4
696.424	59.43
696.749	59.44
697.073	59.54
697.398	59.71
697.723	59.68
698.047	59.8
698.372	59.87
698.696	59.89
699.02	59.79
699.345	59.63
699.669	59.69
699.993	59.63
700.318	59.76
700.642	59.86
700.966	59.74
701.29	59.69
701.614	59.79
701.938	59.83
702.262	59.76
702.586	59.7
702.91	59.77
703.234	59.74
703.557	59.83
703.881	59.72
704.205	59.58
704.529	59.58
704.852	59.65
705.176	59.66
705.499	59.52
705.823	59.49
706.146	59.73
706.47	59.77
706.793	59.9
707.117	59.85
707.44	59.85
707.763	59.77
708.086	59.83
708.409	59.78
708.733	59.78
709.056	59.93
709.379	59.99
709.702	59.8
710.025	59.83
710.348	59.78
710.671	59.85
710.993	59.9
711.316	59.87
711.639	59.93
711.962	59.95
712.284	59.89
712.607	59.92
712.93	59.82
713.252	59.74
713.575	59.5
713.897	59.37
714.22	59.36
714.542	59.59
714.864	59.6
715.187	59.71
715.509	59.79
715.831	59.69
716.153	59.84
716.475	60.16
716.798	60.34
717.12	60.37
717.442	60.28
717.764	60.25
718.085	60.51
718.407	60.31
718.729	60.35
719.051	60.44
719.373	60.55
719.695	60.44
720.016	60.38
720.338	60.59
720.659	60.45
720.981	60.38
721.302	60.43
721.624	60.38
721.945	60.06
722.267	60.17
722.588	60.19
722.909	60.02
723.231	59.71
723.552	59.65
723.873	59.73
724.194	59.74
724.515	59.72
724.836	59.55
725.157	59.48
725.478	59.62
725.799	59.73
726.12	59.94
726.441	60.2
726.762	60.24
727.083	60.15
727.403	60.67
727.724	60.83
728.045	60.66
728.365	60.74
728.686	60.6
729.006	60.54
729.327	60.58
729.647	60.6
729.967	60.69
730.288	60.74
730.608	60.62
730.928	60.78
731.249	60.79
731.569	60.92
731.889	61.05
732.209	60.85
732.529	60.98
732.849	60.77
733.169	60.61
733.489	60.77
733.809	60.76
734.129	60.68
734.448	60.46
734.768	60.47
735.088	60.51
735.408	60.79
735.727	60.78
736.047	60.72
736.366	60.9
736.686	60.93
737.005	60.79
737.325	60.86
737.644	60.5
737.963	60.5
738.283	60.35
738.602	60.31
738.921	60.3
739.24	60.18
739.56	60.03
739.879	60.25
740.198	59.88
740.517	59.66
740.836	59.54
741.155	59.75
741.473	59.8
741.792	59.68
742.111	60.1
742.43	60.16
742.748	60.35
743.067	60.32
743.386	60.48
743.704	60.68
744.023	60.72
744.341	60.94
744.66	60.82
744.978	60.82
745.297	61
745.615	61.05
745.933	60.98
746.252	60.93
746.57	60.7
746.888	61.02
747.206	61.46
747.524	61.49
747.842	61.38
748.16	61.12
748.478	61.36
748.796	60.66
749.114	60.46
749.432	60.36
749.749	60.4
750.067	60.15
750.385	60.01
750.703	59.89
751.02	59.97
751.338	59.88
751.655	59.78
751.973	59.69
752.29	59.85
752.608	59.59
752.925	59.98
753.242	59.79
753.56	59.68
753.877	59.65
754.194	59.58
754.511	60.03
754.828	60.31
755.145	60.08
755.462	60.31
755.779	60.48
756.096	60.36
756.413	60.48
756.73	60.74
757.047	60.6
757.364	60.72
757.68	60.85
757.997	61.18
758.314	61.35
758.63	61.23
758.947	60.97
759.264	61.38
759.58	61.09
759.896	61.25
760.213	61.39
760.529	61.29
760.846	61.3
761.162	60.83
761.478	60.71
761.794	60.6
762.11	60.8
762.426	60.56
762.743	60.72
763.059	60.46
763.375	60.31
763.69	60.38
764.006	60.49
764.322	60.66
764.638	60.7
764.954	60.7
765.27	60.66
765.585	60.77
765.901	60.7
766.216	60.82
766.532	60.93
766.848	60.9
767.163	60.85
767.478	60.92
767.794	61.09
768.109	61.11
768.424	61.42
768.74	61.65
769.055	61.89
769.37	61.89
769.685	61.98
770	62.03
770.315	62.24
770.63	62.22
770.945	61.85
771.26	61.59
771.575	61.84
771.89	62.01
772.205	62.55
772.52	62.62
772.834	62.89
773.149	62.59
773.464	62.7
773.778	63.23
774.093	62.96
774.407	62.87
774.722	62.75
775.036	63.02
775.351	62.35
775.665	62.26
775.979	62.16
776.293	62.28
776.608	62.24
776.922	61.85
777.236	61.65
777.55	62.09
777.864	62.34
778.178	62.2
778.492	61.89
778.806	61.66
779.12	61.85
779.434	61.52
779.747	61.75
780.061	61.79
780.375	61.29
780.689	61.8
781.002	61.65
781.316	61.62
781.629	61.6
781.943	61.63
782.256	61.54
782.57	61.25
782.883	61.51
783.196	61.4
783.51	61.44
783.823	61.63
784.136	61.77
784.449	61.56
784.762	61.74
785.075	62.51
785.388	62.16
785.701	62.03
786.014	61.68
786.327	61.51
786.64	61.39
786.953	61.59
787.266	61.29
787.578	61.49
787.891	61.93
788.204	61.68
788.516	62.18
788.829	62.8
789.141	62.85
789.454	62.78
789.766	63.05
790.079	62.98
790.391	63.01
790.703	62.25
791.016	62.33
791.328	62.58
791.64	62.37
791.952	62.74
792.264	62.16
792.576	62.48
792.888	62.51
793.2	62.12
793.512	61.67
793.824	61.76
794.136	61.83
794.448	61.47
794.76	61.29
795.071	60.41
795.383	59.87
795.695	60.45
796.006	60.38
796.318	60.6
796.629	61.23
796.941	60.87
797.252	61.13
797.564	61.6
797.875	60.72
798.186	60.27
798.497	59.25
798.809	59.5
799.12	59.22
799.431	59.11
799.742	59.51
800.053	59.89
800.364	59.21
800.675	59.16
800.986	58.99
801.297	58.95
801.608	59.68
801.918	60.32
802.229	59.71
802.54	59.42
802.851	58.86
803.161	58.71
803.472	59.15
803.782	59.38
804.093	59.13
804.403	59.23
804.714	59.29
805.024	59.68
805.334	60.1
805.645	60.34
805.955	60.35
806.265	60.55
806.575	60.39
806.885	60.61
807.195	60.21
807.505	61.36
807.815	61.67
808.125	61.71
808.435	61.4
808.745	61.58
809.055	62.05
809.365	61.67
809.674	61.45
809.984	61.49
810.294	61.23
810.603	61.06
810.913	61.19
811.222	61.06
811.532	60.8
811.841	60.64
812.151	61.01
812.46	61.78
812.769	61.67
813.079	62.28
813.388	62.55
813.697	63.46
814.006	62.37
814.315	62.75
814.624	62.17
814.933	62.15
815.242	62.67
815.551	62.24
815.86	63.24
816.169	62.77
816.478	61.97
816.786	62.33
817.095	61.53
817.404	62.07
817.712	62.2
818.021	62.63
818.33	62.89
818.638	62.56
818.947	62.44
819.255	62.3
819.563	62.38
819.872	62.26
820.18	62.11
820.488	62.5
820.796	61.83
821.105	61.89
821.413	61.67
821.721	61.61
822.029	61.77
822.337	61.72
822.645	61.78
822.953	61.84
823.26	61.86
823.568	61.97
823.876	61.94
824.184	62.02
824.491	61.96
824.799	61.94
825.107	62.03
825.414	61.81
825.722	61.73
826.029	61.4
826.337	61.49
826.644	61.41
826.951	61.14
827.259	61.46
827.566	61.35
827.873	61.35
828.18	60.9
828.488	60.99
828.795	60.89
829.102	60.79
829.409	61.03
829.716	60.55
830.023	60.5
830.329	60.15
830.636	59.96
830.943	60.2
831.25	59.74
831.557	59.33
831.863	59.61
832.17	59.26
832.476	59.73
832.783	59.38
833.089	59.28
833.396	59.31
833.702	58.87
834.009	59.11
834.315	59.46
834.621	60.72
834.928	60.39
835.234	60.62
835.54	60.99
835.846	60.08
836.152	60.56
836.458	60.78
836.764	60.69
837.07	60.17
837.376	59.95
837.682	60.43
837.988	61.05
838.293	61.41
838.599	61.67
838.905	62.01
839.211	62.3
839.516	62.27
839.822	62.56
840.127	63.23
840.433	63.15
840.738	63.66
841.044	63.08
841.349	62.69
841.654	62.36
841.959	61.79
842.265	62.77
842.57	61.9
842.875	61.62
843.18	62
843.485	63.56
843.79	63.82
844.095	63.3
844.4	62.97
844.705	61.15
845.01	62.43
845.315	61.63
845.619	62.34
845.924	61.78
846.229	62.11
846.533	60.89
846.838	60.1
847.142	58.6
847.447	56.45
847.751	56.74
848.056	56.17
848.36	55.95
848.664	55.84
848.969	55.85
849.273	56.58
849.577	57.01
849.881	55.71
850.185	55.41
850.489	56.3
850.794	55.27
851.097	56.05
851.401	53.46
851.705	53.74
852.009	55.49
852.313	57.58
852.617	57
852.92	59.07
853.224	60.31
853.528	59.72
853.831	62.02
854.135	63.97
854.438	64.6
854.742	64.35
855.045	65.73
855.349	65.86
855.652	66.13
855.955	64.61
856.259	66.02
856.562	66.56
856.865	66.4
857.168	66.05
857.471	66.24
857.774	67.73
858.077	67.38
858.38	64.86
858.683	60.47
858.986	59.33
859.289	57.29
859.592	57.27
859.894	58.69
860.197	58.01
860.5	53.38
860.802	53.88
861.105	54.91
861.407	54.04
861.71	55.4
862.012	53.56
862.315	56.15
862.617	53.79
862.919	52.56
863.222	51.54
863.524	52.21
863.826	51.96
864.128	51.81
864.43	50.04
864.732	50.89
865.034	53.25
865.336	53.06
865.638	54.55
865.94	54.57
866.242	55.24
866.544	54.92
866.846	57.64
867.147	57.26
867.449	57.28
867.751	59.11
868.052	59.05
868.354	59.36
868.655	58.95
868.957	60.29
869.258	61.81
869.56	63.76
869.861	61.86
870.162	64.27
870.463	64.14
870.765	65.78
871.066	65.17
871.367	66.49
871.668	68.59
871.969	67.23
872.27	66.07
872.571	63.7
872.872	63.81
873.173	65.85
873.473	65.51
873.774	66.24
874.075	66
874.376	64.71
874.676	63.91
874.977	64.27
875.277	64.75
875.578	64.64
875.878	63.69
876.179	66.26
876.479	64.59
876.78	65.4
877.08	65.96
877.38	65.92
877.68	65.98
877.981	65.5
878.281	66.53
878.581	69.71
