Data from BU26946_Reflection_00004.txt Node
Date: Tue Nov 19 10:51:55 EST 2019
User: vgr7
Spectrometer: USB2G7710
Scans to average: 3
Trigger mode: 4
Integration Time (sec): 2.000000E-2
Electric dark correction enabled: true
Boxcar width: 10
XAxis mode: Wavelengths
Number of Pixels in Spectrum: 2048
>>>>>Begin Spectral Data<<<<<
177.721	-6.82
178.105	-264.86
178.488	-206.5
178.871	-421.05
179.254	100
179.636	100
180.019	937.21
180.402	-78.57
180.785	376.92
181.168	35.41
181.55	47.98
181.933	78.52
182.316	66.01
182.698	76.97
183.081	285.02
183.463	-1198.51
183.846	249.07
184.228	120.07
184.611	162.94
184.993	-41.82
185.376	-410.64
185.758	2.53
186.14	-84.62
186.522	-23.61
186.904	-27.74
187.287	-1.28
187.669	2.39
188.051	14.93
188.433	-10.01
188.815	37.57
189.197	17.66
189.579	19.08
189.961	17.33
190.342	0.92
190.724	11.33
191.106	32.34
191.488	35.57
191.869	21.01
192.251	28.96
192.633	16.29
193.014	7.8
193.396	6.93
193.777	19.43
194.159	35.55
194.54	49.58
194.922	56
195.303	61.29
195.684	83.16
196.065	56.67
196.447	88.06
196.828	80.58
197.209	89.52
197.59	95.89
197.971	118.21
198.352	153.1
198.733	135.87
199.114	78.53
199.495	59.24
199.876	67.99
200.257	55.7
200.638	74.24
201.018	88.38
201.399	95.87
201.78	79.49
202.16	67.82
202.541	44.7
202.922	45.6
203.302	37.54
203.683	11.25
204.063	13.22
204.444	-8.64
204.824	-20
205.204	-17.92
205.585	-7
205.965	-18.4
206.345	-14.31
206.725	0.04
207.106	11.12
207.486	15.49
207.866	15.09
208.246	11.45
208.626	10.55
209.006	5.24
209.386	14.16
209.766	15.64
210.145	6.22
210.525	7.56
210.905	12.5
211.285	16.39
211.664	16.15
212.044	10.46
212.424	8.6
212.803	12.36
213.183	7.88
213.562	2.25
213.942	4.64
214.321	3.56
214.701	2.18
215.08	-0.38
215.459	5.91
215.838	-7.48
216.218	-12.85
216.597	-5.28
216.976	-3.83
217.355	-6.82
217.734	-20.4
218.113	1.81
218.492	17.36
218.871	11.25
219.25	10.42
219.629	13.38
220.008	84.19
220.387	72.09
220.766	75.75
221.144	72.25
221.523	117.42
221.902	174.9
222.28	121.15
222.659	82.89
223.037	81.72
223.416	89.97
223.794	69.82
224.173	74.17
224.551	58.51
224.929	51.89
225.308	43.59
225.686	40.94
226.064	27.7
226.442	21.32
226.821	20.13
227.199	16.75
227.577	20.07
227.955	17.48
228.333	20.04
228.711	17.35
229.089	17.91
229.467	15.18
229.845	10.92
230.222	10.9
230.6	9.45
230.978	9.26
231.356	8.02
231.733	7.19
232.111	6.05
232.488	6.07
232.866	7.08
233.243	5.85
233.621	5.59
233.998	7.92
234.376	8.07
234.753	7.28
235.13	8.68
235.508	7.3
235.885	7.65
236.262	6.72
236.639	4.62
237.016	5.13
237.393	4.8
237.77	4.73
238.147	5.1
238.524	5.91
238.901	5.33
239.278	4.83
239.655	5.11
240.032	5.4
240.409	5.53
240.785	5.13
241.162	5.56
241.539	5.22
241.915	5.06
242.292	5.14
242.668	4.75
243.045	4.79
243.421	4.95
243.798	4.91
244.174	4.72
244.551	4.9
244.927	4.89
245.303	4.79
245.679	4.93
246.056	4.76
246.432	4.7
246.808	4.62
247.184	4.92
247.56	5.01
247.936	4.96
248.312	4.83
248.688	4.87
249.064	4.86
249.44	5.08
249.815	5.05
250.191	5.11
250.567	5.31
250.943	5.26
251.318	5.24
251.694	5
252.069	5.35
252.445	5.47
252.82	5.82
253.196	6.07
253.571	6.3
253.947	6.54
254.322	6.63
254.697	6.99
255.073	6.61
255.448	6.35
255.823	6.56
256.198	6.51
256.573	6.54
256.948	6.29
257.323	6.12
257.698	5.91
258.073	5.6
258.448	5.61
258.823	5.4
259.198	5.2
259.573	5.18
259.948	5.08
260.322	5.1
260.697	4.9
261.072	4.77
261.446	4.76
261.821	4.55
262.195	4.52
262.57	4.57
262.944	4.73
263.319	4.7
263.693	4.56
264.067	4.67
264.442	4.71
264.816	4.7
265.19	4.65
265.564	4.71
265.938	4.91
266.313	4.56
266.687	4.77
267.061	4.95
267.435	4.99
267.809	4.79
268.183	4.74
268.556	4.68
268.93	4.79
269.304	4.7
269.678	4.75
270.051	4.73
270.425	4.5
270.799	4.28
271.172	4.22
271.546	4.32
271.919	4.34
272.293	4.23
272.666	4.28
273.04	4.39
273.413	4.47
273.787	4.35
274.16	4.59
274.533	4.54
274.906	4.52
275.279	4.48
275.653	4.56
276.026	4.63
276.399	4.58
276.772	4.48
277.145	4.6
277.518	4.6
277.891	4.74
278.263	4.8
278.636	5.1
279.009	5.32
279.382	5.22
279.755	5.05
280.127	5.16
280.5	5.03
280.872	4.97
281.245	4.85
281.617	4.88
281.99	4.9
282.362	4.93
282.735	4.8
283.107	4.69
283.479	4.79
283.852	4.69
284.224	4.83
284.596	4.91
284.968	4.81
285.34	4.81
285.713	4.64
286.085	4.56
286.457	4.43
286.829	4.35
287.201	4.39
287.572	4.38
287.944	4.44
288.316	4.58
288.688	4.56
289.06	4.62
289.431	4.54
289.803	4.56
290.175	4.6
290.546	4.74
290.918	4.84
291.289	4.76
291.661	4.75
292.032	4.78
292.403	4.67
292.775	4.78
293.146	4.83
293.517	4.82
293.889	4.94
294.26	5.02
294.631	5
295.002	4.95
295.373	5.03
295.744	4.84
296.115	4.83
296.486	4.85
296.857	4.81
297.228	4.82
297.599	4.72
297.97	4.74
298.34	4.65
298.711	4.72
299.082	4.82
299.452	4.82
299.823	4.83
300.194	4.92
300.564	4.8
300.935	4.73
301.305	4.8
301.676	4.72
302.046	4.6
302.416	4.7
302.787	4.57
303.157	4.52
303.527	4.65
303.897	4.74
304.267	4.7
304.637	4.74
305.008	4.86
305.378	5.04
305.748	4.88
306.117	4.88
306.487	4.89
306.857	4.77
307.227	4.93
307.597	4.78
307.967	4.76
308.336	4.78
308.706	4.81
309.076	4.78
309.445	4.77
309.815	4.81
310.184	4.79
310.554	4.91
310.923	4.9
311.293	4.75
311.662	4.57
312.031	4.57
312.401	4.46
312.77	4.38
313.139	4.25
313.508	4.2
313.877	4.2
314.246	4.04
314.616	4.17
314.985	4.01
315.353	4.04
315.722	4.13
316.091	4.1
316.46	4.05
316.829	4.08
317.198	4.03
317.567	4.12
317.935	4.09
318.304	4.08
318.672	4.13
319.041	4.29
319.41	4.36
319.778	4.4
320.147	4.46
320.515	4.45
320.883	4.54
321.252	4.7
321.62	4.66
321.988	4.76
322.357	4.6
322.725	4.77
323.093	4.71
323.461	4.66
323.829	4.78
324.197	4.84
324.565	4.78
324.933	4.86
325.301	4.81
325.669	4.75
326.037	4.67
326.405	4.68
326.772	4.62
327.14	4.59
327.508	4.59
327.875	4.66
328.243	4.6
328.61	4.62
328.978	4.47
329.346	4.56
329.713	4.64
330.08	4.64
330.448	4.64
330.815	4.59
331.182	4.49
331.55	4.38
331.917	4.41
332.284	4.46
332.651	4.41
333.018	4.23
333.385	4.28
333.752	4.43
334.119	4.34
334.486	4.39
334.853	4.4
335.22	4.51
335.587	4.45
335.954	4.55
336.32	4.52
336.687	4.66
337.054	4.57
337.42	4.62
337.787	4.64
338.153	4.6
338.52	4.7
338.886	4.78
339.253	4.75
339.619	4.79
339.986	4.73
340.352	4.81
340.718	4.87
341.084	4.86
341.451	4.76
341.817	4.82
342.183	4.88
342.549	4.95
342.915	4.79
343.281	4.87
343.647	4.87
344.013	4.87
344.379	4.8
344.745	4.79
345.11	4.68
345.476	4.71
345.842	4.67
346.208	4.71
346.573	4.65
346.939	4.71
347.304	4.74
347.67	4.8
348.035	4.78
348.401	4.92
348.766	4.99
349.132	5.1
349.497	5.09
349.862	5.06
350.228	4.95
350.593	4.99
350.958	4.92
351.323	4.95
351.688	4.9
352.053	4.94
352.418	5.03
352.783	5.04
353.148	5.05
353.513	5.04
353.878	5.05
354.243	5.01
354.608	4.96
354.972	4.86
355.337	4.79
355.702	4.76
356.066	4.68
356.431	4.6
356.795	4.51
357.16	4.47
357.524	4.41
357.889	4.47
358.253	4.38
358.618	4.42
358.982	4.37
359.346	4.36
359.71	4.32
360.075	4.35
360.439	4.37
360.803	4.36
361.167	4.33
361.531	4.3
361.895	4.41
362.259	4.52
362.623	4.51
362.987	4.52
363.351	4.51
363.714	4.48
364.078	4.54
364.442	4.52
364.806	4.54
365.169	4.55
365.533	4.57
365.896	4.69
366.26	4.69
366.623	4.7
366.987	4.72
367.35	4.8
367.714	4.74
368.077	4.75
368.44	4.78
368.803	4.8
369.167	4.78
369.53	4.76
369.893	4.69
370.256	4.7
370.619	4.68
370.982	4.7
371.345	4.75
371.708	4.67
372.071	4.68
372.434	4.66
372.797	4.64
373.159	4.67
373.522	4.64
373.885	4.63
374.247	4.62
374.61	4.64
374.973	4.64
375.335	4.65
375.698	4.64
376.06	4.6
376.423	4.6
376.785	4.65
377.147	4.6
377.51	4.59
377.872	4.61
378.234	4.66
378.596	4.66
378.958	4.67
379.321	4.67
379.683	4.74
380.045	4.74
380.407	4.78
380.769	4.76
381.13	4.73
381.492	4.73
381.854	4.76
382.216	4.83
382.578	4.77
382.939	4.81
383.301	4.8
383.663	4.82
384.024	4.79
384.386	4.72
384.747	4.71
385.109	4.71
385.47	4.72
385.832	4.69
386.193	4.67
386.554	4.62
386.916	4.63
387.277	4.58
387.638	4.56
387.999	4.57
388.36	4.58
388.721	4.61
389.082	4.64
389.443	4.63
389.804	4.57
390.165	4.61
390.526	4.57
390.887	4.55
391.248	4.57
391.609	4.59
391.969	4.63
392.33	4.64
392.691	4.65
393.051	4.63
393.412	4.64
393.772	4.63
394.133	4.62
394.493	4.61
394.854	4.63
395.214	4.66
395.574	4.65
395.935	4.62
396.295	4.62
396.655	4.58
397.015	4.57
397.376	4.54
397.736	4.52
398.096	4.51
398.456	4.49
398.816	4.44
399.176	4.41
399.535	4.39
399.895	4.39
400.255	4.37
400.615	4.38
400.975	4.4
401.334	4.4
401.694	4.42
402.054	4.4
402.413	4.37
402.773	4.35
403.132	4.33
403.492	4.32
403.851	4.29
404.211	4.31
404.57	4.3
404.929	4.3
405.288	4.32
405.648	4.31
406.007	4.34
406.366	4.36
406.725	4.37
407.084	4.36
407.443	4.36
407.802	4.34
408.161	4.33
408.52	4.3
408.879	4.29
409.238	4.27
409.596	4.28
409.955	4.29
410.314	4.28
410.673	4.27
411.031	4.27
411.39	4.27
411.748	4.24
412.107	4.25
412.465	4.24
412.824	4.24
413.182	4.25
413.54	4.24
413.899	4.22
414.257	4.2
414.615	4.18
414.974	4.19
415.332	4.19
415.69	4.19
416.048	4.2
416.406	4.19
416.764	4.19
417.122	4.19
417.48	4.18
417.838	4.17
418.195	4.17
418.553	4.18
418.911	4.18
419.269	4.17
419.626	4.18
419.984	4.19
420.342	4.17
420.699	4.15
421.057	4.15
421.414	4.17
421.772	4.18
422.129	4.18
422.486	4.17
422.844	4.17
423.201	4.17
423.558	4.15
423.915	4.17
424.273	4.17
424.63	4.17
424.987	4.18
425.344	4.17
425.701	4.17
426.058	4.15
426.415	4.14
426.772	4.15
427.128	4.14
427.485	4.13
427.842	4.12
428.199	4.12
428.555	4.12
428.912	4.08
429.269	4.08
429.625	4.07
429.982	4.08
430.338	4.08
430.695	4.07
431.051	4.05
431.407	4.05
431.764	4.03
432.12	4.01
432.476	4.01
432.832	4.02
433.189	4.03
433.545	4.02
433.901	4.05
434.257	4.04
434.613	4.03
434.969	4.03
435.325	4.04
435.681	4.04
436.036	4.06
436.392	4.07
436.748	4.06
437.104	4.06
437.459	4.04
437.815	4.05
438.171	4.06
438.526	4.07
438.882	4.1
439.237	4.1
439.593	4.11
439.948	4.11
440.304	4.11
440.659	4.11
441.014	4.13
441.369	4.11
441.725	4.14
442.08	4.13
442.435	4.14
442.79	4.13
443.145	4.15
443.5	4.13
443.855	4.12
444.21	4.14
444.565	4.14
444.92	4.16
445.275	4.17
445.629	4.16
445.984	4.17
446.339	4.15
446.693	4.15
447.048	4.13
447.403	4.13
447.757	4.13
448.112	4.13
448.466	4.12
448.82	4.12
449.175	4.11
449.529	4.13
449.883	4.12
450.238	4.12
450.592	4.1
450.946	4.1
451.3	4.09
451.654	4.06
452.008	4.06
452.362	4.04
452.716	4.05
453.07	4.04
453.424	4.04
453.778	4.02
454.132	4.03
454.486	4.05
454.839	4.04
455.193	4.02
455.547	4.02
455.9	4.02
456.254	4.02
456.607	4.02
456.961	4.02
457.314	4
457.668	4
458.021	4
458.375	3.98
458.728	4
459.081	4.01
459.434	4.02
459.787	4.04
460.141	4.05
460.494	4.06
460.847	4.06
461.2	4.07
461.553	4.09
461.906	4.07
462.259	4.06
462.611	4.07
462.964	4.08
463.317	4.09
463.67	4.09
464.022	4.09
464.375	4.09
464.728	4.1
465.08	4.12
465.433	4.14
465.785	4.16
466.138	4.17
466.49	4.18
466.843	4.2
467.195	4.2
467.547	4.17
467.899	4.17
468.252	4.17
468.604	4.18
468.956	4.19
469.308	4.2
469.66	4.22
470.012	4.22
470.364	4.24
470.716	4.25
471.068	4.26
471.42	4.29
471.772	4.28
472.123	4.3
472.475	4.31
472.827	4.3
473.178	4.29
473.53	4.31
473.882	4.32
474.233	4.3
474.585	4.27
474.936	4.28
475.288	4.27
475.639	4.29
475.99	4.28
476.342	4.28
476.693	4.26
477.044	4.27
477.395	4.27
477.746	4.25
478.097	4.23
478.448	4.22
478.8	4.19
479.15	4.19
479.501	4.18
479.852	4.18
480.203	4.18
480.554	4.18
480.905	4.17
481.255	4.16
481.606	4.18
481.957	4.19
482.307	4.19
482.658	4.2
483.009	4.2
483.359	4.2
483.709	4.2
484.06	4.21
484.41	4.21
484.761	4.21
485.111	4.21
485.461	4.22
485.811	4.22
486.162	4.23
486.512	4.23
486.862	4.24
487.212	4.23
487.562	4.24
487.912	4.24
488.262	4.25
488.612	4.25
488.961	4.23
489.311	4.24
489.661	4.23
490.011	4.23
490.36	4.24
490.71	4.24
491.06	4.22
491.409	4.22
491.759	4.23
492.108	4.23
492.458	4.24
492.807	4.23
493.157	4.25
493.506	4.26
493.855	4.25
494.204	4.25
494.554	4.28
494.903	4.28
495.252	4.28
495.601	4.28
495.95	4.28
496.299	4.29
496.648	4.3
496.997	4.31
497.346	4.32
497.695	4.31
498.043	4.33
498.392	4.36
498.741	4.37
499.09	4.37
499.438	4.41
499.787	4.41
500.135	4.42
500.484	4.41
500.832	4.42
501.181	4.45
501.529	4.45
501.878	4.44
502.226	4.45
502.574	4.46
502.923	4.49
503.271	4.53
503.619	4.55
503.967	4.57
504.315	4.58
504.663	4.6
505.011	4.61
505.359	4.59
505.707	4.6
506.055	4.6
506.403	4.6
506.751	4.59
507.098	4.6
507.446	4.61
507.794	4.64
508.141	4.64
508.489	4.65
508.837	4.67
509.184	4.7
509.531	4.72
509.879	4.74
510.226	4.73
510.574	4.72
510.921	4.71
511.268	4.73
511.616	4.76
511.963	4.77
512.31	4.79
512.657	4.81
513.004	4.83
513.351	4.86
513.698	4.87
514.045	4.89
514.392	4.89
514.739	4.91
515.086	4.94
515.432	4.97
515.779	4.96
516.126	4.97
516.473	4.96
516.819	4.95
517.166	4.96
517.512	4.97
517.859	4.99
518.205	4.99
518.552	4.99
518.898	4.97
519.245	4.97
519.591	4.98
519.937	4.99
520.283	4.98
520.629	4.98
520.976	5
521.322	5
521.668	5
522.014	5.01
522.36	4.99
522.706	4.98
523.052	4.99
523.398	5.01
523.743	5.03
524.089	5.06
524.435	5.07
524.781	5.09
525.126	5.11
525.472	5.13
525.817	5.14
526.163	5.16
526.509	5.18
526.854	5.17
527.199	5.18
527.545	5.19
527.89	5.2
528.235	5.21
528.581	5.22
528.926	5.23
529.271	5.22
529.616	5.24
529.961	5.25
530.306	5.24
530.651	5.23
530.996	5.25
531.341	5.25
531.686	5.25
532.031	5.24
532.376	5.23
532.721	5.23
533.065	5.24
533.41	5.24
533.755	5.23
534.099	5.23
534.444	5.22
534.788	5.22
535.133	5.21
535.477	5.19
535.822	5.18
536.166	5.2
536.51	5.22
536.855	5.21
537.199	5.21
537.543	5.24
537.887	5.24
538.231	5.23
538.576	5.22
538.92	5.24
539.264	5.24
539.608	5.24
539.951	5.25
540.295	5.24
540.639	5.25
540.983	5.27
541.327	5.29
541.671	5.31
542.014	5.33
542.358	5.34
542.701	5.36
543.045	5.36
543.389	5.34
543.732	5.33
544.075	5.36
544.419	5.37
544.762	5.36
545.105	5.37
545.449	5.38
545.792	5.39
546.135	5.4
546.478	5.4
546.821	5.41
547.165	5.42
547.508	5.44
547.851	5.45
548.194	5.44
548.536	5.41
548.879	5.38
549.222	5.36
549.565	5.34
549.908	5.33
550.25	5.32
550.593	5.34
550.936	5.34
551.278	5.31
551.621	5.32
551.963	5.34
552.306	5.35
552.648	5.34
552.991	5.33
553.333	5.34
553.675	5.34
554.017	5.35
554.36	5.36
554.702	5.32
555.044	5.32
555.386	5.32
555.728	5.31
556.07	5.35
556.412	5.36
556.754	5.35
557.096	5.37
557.438	5.4
557.78	5.38
558.121	5.37
558.463	5.38
558.805	5.38
559.147	5.35
559.488	5.32
559.83	5.35
560.171	5.35
560.513	5.31
560.854	5.31
561.196	5.31
561.537	5.32
561.878	5.35
562.22	5.38
562.561	5.4
562.902	5.41
563.243	5.38
563.584	5.39
563.925	5.43
564.266	5.43
564.607	5.43
564.948	5.44
565.289	5.45
565.63	5.42
565.971	5.43
566.312	5.43
566.653	5.45
566.993	5.41
567.334	5.41
567.675	5.4
568.015	5.38
568.356	5.37
568.696	5.35
569.037	5.33
569.377	5.28
569.718	5.27
570.058	5.26
570.398	5.27
570.739	5.25
571.079	5.22
571.419	5.21
571.759	5.18
572.099	5.15
572.439	5.15
572.779	5.19
573.119	5.17
573.459	5.2
573.799	5.18
574.139	5.22
574.479	5.25
574.819	5.28
575.158	5.29
575.498	5.32
575.838	5.33
576.177	5.35
576.517	5.35
576.856	5.35
577.196	5.37
577.535	5.4
577.875	5.42
578.214	5.44
578.553	5.45
578.893	5.49
579.232	5.58
579.571	5.58
579.91	5.56
580.25	5.58
580.589	5.57
580.928	5.58
581.267	5.56
581.606	5.54
581.945	5.56
582.283	5.58
582.622	5.55
582.961	5.56
583.3	5.56
583.639	5.58
583.977	5.57
584.316	5.6
584.654	5.53
584.993	5.55
585.332	5.57
585.67	5.55
586.008	5.52
586.347	5.48
586.685	5.46
587.024	5.5
587.362	5.47
587.7	5.48
588.038	5.52
588.376	5.53
588.715	5.48
589.053	5.44
589.391	5.44
589.729	5.42
590.067	5.45
590.404	5.42
590.742	5.43
591.08	5.43
591.418	5.44
591.756	5.47
592.093	5.46
592.431	5.42
592.769	5.43
593.106	5.44
593.444	5.44
593.781	5.47
594.119	5.47
594.456	5.44
594.793	5.43
595.131	5.42
595.468	5.43
595.805	5.5
596.143	5.5
596.48	5.49
596.817	5.51
597.154	5.48
597.491	5.49
597.828	5.46
598.165	5.45
598.502	5.42
598.839	5.42
599.176	5.4
599.512	5.43
599.849	5.43
600.186	5.45
600.523	5.44
600.859	5.47
601.196	5.48
601.532	5.5
601.869	5.5
602.205	5.52
602.542	5.5
602.878	5.49
603.215	5.5
603.551	5.52
603.887	5.53
604.223	5.55
604.56	5.57
604.896	5.61
605.232	5.63
605.568	5.65
605.904	5.65
606.24	5.66
606.576	5.66
606.912	5.65
607.248	5.67
607.583	5.68
607.919	5.63
608.255	5.61
608.591	5.67
608.926	5.63
609.262	5.64
609.597	5.67
609.933	5.64
610.268	5.66
610.604	5.62
610.939	5.66
611.275	5.66
611.61	5.61
611.945	5.55
612.281	5.54
612.616	5.52
612.951	5.57
613.286	5.57
613.621	5.57
613.956	5.61
614.291	5.55
614.626	5.56
614.961	5.61
615.296	5.62
615.631	5.57
615.966	5.57
616.3	5.54
616.635	5.53
616.97	5.57
617.304	5.6
617.639	5.63
617.973	5.6
618.308	5.63
618.642	5.68
618.977	5.73
619.311	5.75
619.646	5.77
619.98	5.75
620.314	5.8
620.648	5.8
620.983	5.78
621.317	5.83
621.651	5.83
621.985	5.8
622.319	5.8
622.653	5.84
622.987	5.92
623.321	5.94
623.655	5.94
623.988	5.91
624.322	5.89
624.656	5.89
624.99	5.86
625.323	5.84
625.657	5.86
625.99	5.92
626.324	5.93
626.657	5.93
626.991	5.91
627.324	5.87
627.658	5.9
627.991	5.93
628.324	5.89
628.657	5.91
628.991	5.93
629.324	5.95
629.657	5.94
629.99	5.95
630.323	5.91
630.656	5.92
630.989	5.88
631.322	5.87
631.655	5.88
631.987	5.95
632.32	5.98
632.653	5.93
632.986	5.86
633.318	5.87
633.651	5.88
633.984	5.91
634.316	5.9
634.649	5.85
634.981	5.81
635.313	5.87
635.646	5.83
635.978	5.84
636.31	5.81
636.643	5.8
636.975	5.75
637.307	5.79
637.639	5.77
637.971	5.82
638.303	5.81
638.635	5.79
638.967	5.75
639.299	5.72
639.631	5.77
639.963	5.8
640.295	5.83
640.626	5.84
640.958	5.79
641.29	5.8
641.621	5.83
641.953	5.86
642.285	5.82
642.616	5.85
642.948	5.87
643.279	5.92
643.61	5.96
643.942	6.01
644.273	6
644.604	6
644.936	6.06
645.267	6.05
645.598	6.05
645.929	6.08
646.26	6.09
646.591	6.08
646.922	6.14
647.253	6.09
647.584	6.09
647.915	6.14
648.245	6.19
648.576	6.15
648.907	6.14
649.238	6.15
649.568	6.13
649.899	6.12
650.229	6.06
650.56	6.03
650.89	6.03
651.221	6
651.551	6
651.882	5.98
652.212	6.02
652.542	6.07
652.872	6
653.203	6.07
653.533	6.04
653.863	5.94
654.193	5.94
654.523	5.9
654.853	5.85
655.183	5.86
655.513	5.91
655.843	5.95
656.172	5.99
656.502	5.97
656.832	5.93
657.162	5.94
657.491	5.98
657.821	5.97
658.15	6.01
658.48	6.01
658.809	6.02
659.139	6.04
659.468	6.03
659.798	6.11
660.127	6.05
660.456	6.08
660.785	6.13
661.115	6.15
661.444	6.19
661.773	6.24
662.102	6.2
662.431	6.19
662.76	6.16
663.089	6.19
663.418	6.25
663.747	6.26
664.076	6.31
664.404	6.33
664.733	6.29
665.062	6.22
665.39	6.21
665.719	6.17
666.048	6.06
666.376	6.01
666.705	6
667.033	5.97
667.362	5.97
667.69	5.99
668.018	6.06
668.347	6.06
668.675	6.05
669.003	6.07
669.331	6.16
669.659	6.12
669.987	6.1
670.315	6.09
670.643	6.11
670.971	6.09
671.299	6.1
671.627	6.07
671.955	6.13
672.283	6.1
672.61	6.09
672.938	6.15
673.266	6.22
673.593	6.19
673.921	6.22
674.249	6.19
674.576	6.18
674.904	6.1
675.231	6.07
675.558	6.14
675.886	6.12
676.213	6.01
676.54	6.08
676.867	6.11
677.195	6.16
677.522	6.2
677.849	6.22
678.176	6.21
678.503	6.27
678.83	6.25
679.157	6.24
679.484	6.24
679.81	6.25
680.137	6.32
680.464	6.37
680.791	6.42
681.117	6.48
681.444	6.46
681.771	6.48
682.097	6.46
682.424	6.4
682.75	6.43
683.077	6.48
683.403	6.4
683.729	6.4
684.056	6.36
684.382	6.38
684.708	6.38
685.034	6.37
685.36	6.42
685.686	6.5
686.012	6.62
686.339	6.72
686.664	6.75
686.99	6.53
687.316	6.46
687.642	6.38
687.968	6.33
688.294	6.31
688.619	6.32
688.945	6.37
689.271	6.38
689.596	6.42
689.922	6.37
690.247	6.48
690.573	6.5
690.898	6.59
691.224	6.63
691.549	6.61
691.874	6.62
692.2	6.51
692.525	6.46
692.85	6.47
693.175	6.38
693.5	6.37
693.825	6.55
694.15	6.59
694.475	6.73
694.8	6.73
695.125	6.66
695.45	6.53
695.775	6.5
696.099	6.56
696.424	6.59
696.749	6.64
697.073	6.65
697.398	6.63
697.723	6.62
698.047	6.55
698.372	6.61
698.696	6.63
699.02	6.61
699.345	6.67
699.669	6.67
699.993	6.66
700.318	6.67
700.642	6.71
700.966	6.71
701.29	6.66
701.614	6.7
701.938	6.8
702.262	6.94
702.586	6.88
702.91	6.84
703.234	6.73
703.557	6.75
703.881	6.69
704.205	6.64
704.529	6.62
704.852	6.64
705.176	6.68
705.499	6.61
705.823	6.67
706.146	6.65
706.47	6.73
706.793	6.82
707.117	6.86
707.44	6.83
707.763	6.84
708.086	6.79
708.409	6.82
708.733	6.84
709.056	6.89
709.379	7.18
709.702	7.11
710.025	7.16
710.348	7.14
710.671	7.22
710.993	7.2
711.316	7.29
711.639	7.26
711.962	7.21
712.284	7.29
712.607	7.44
712.93	7.42
713.252	7.27
713.575	7.35
713.897	7.43
714.22	7.48
714.542	7.51
714.864	7.46
715.187	7.39
715.509	7.36
715.831	7.3
716.153	7.11
716.475	7.25
716.798	7.46
717.12	7.4
717.442	7.28
717.764	7.35
718.085	7.33
718.407	7.27
718.729	7.11
719.051	7.11
719.373	7.02
719.695	6.97
720.016	7.03
720.338	6.92
720.659	6.74
720.981	6.64
721.302	6.64
721.624	6.79
721.945	6.81
722.267	6.87
722.588	6.99
722.909	7.07
723.231	6.95
723.552	6.89
723.873	6.97
724.194	6.96
724.515	6.99
724.836	6.84
725.157	6.96
725.478	7.07
725.799	7.12
726.12	7.16
726.441	7.33
726.762	7.4
727.083	7.25
727.403	7.32
727.724	7.39
728.045	7.42
728.365	7.51
728.686	7.61
729.006	7.6
729.327	7.64
729.647	7.62
729.967	7.55
730.288	7.37
730.608	7.35
730.928	7.54
731.249	7.67
731.569	7.61
731.889	7.64
732.209	7.71
732.529	7.6
732.849	7.69
733.169	7.52
733.489	7.43
733.809	7.7
734.129	7.74
734.448	7.83
734.768	7.77
735.088	7.67
735.408	7.53
735.727	7.58
736.047	7.67
736.366	7.68
736.686	7.93
737.005	8.03
737.325	8.11
737.644	8.07
737.963	7.89
738.283	7.9
738.602	8.01
738.921	8.22
739.24	8.2
739.56	8.11
739.879	8.27
740.198	8.25
740.517	8.16
740.836	8.02
741.155	7.89
741.473	8.12
741.792	8.17
742.111	8.25
742.43	8.33
742.748	8.1
743.067	8.11
743.386	7.86
743.704	7.91
744.023	7.96
744.341	7.96
744.66	7.97
744.978	8.24
745.297	8.1
745.615	7.69
745.933	7.85
746.252	7.92
746.57	8.09
746.888	8.25
747.206	8.23
747.524	8.35
747.842	8.13
748.16	8.06
748.478	8.16
748.796	8.07
749.114	7.98
749.432	8.03
749.749	8.11
750.067	8.26
750.385	8.26
750.703	8.17
751.02	8.28
751.338	8.35
751.655	8.35
751.973	8.52
752.29	8.65
752.608	8.56
752.925	8.64
753.242	8.52
753.56	8.34
753.877	8.34
754.194	8.33
754.511	8.44
754.828	8.05
755.145	7.99
755.462	8.14
755.779	8.01
756.096	8.13
756.413	8.15
756.73	8.14
757.047	8.01
757.364	8.2
757.68	8.08
757.997	8.13
758.314	8.02
758.63	7.84
758.947	7.82
759.264	7.78
759.58	7.78
759.896	7.76
760.213	8.05
760.529	8.12
760.846	8.36
761.162	8.59
761.478	8.84
761.794	8.76
762.11	8.77
762.426	8.67
762.743	8.59
763.059	8.54
763.375	8.58
763.69	8.66
764.006	8.65
764.322	8.74
764.638	8.68
764.954	8.76
765.27	8.81
765.585	8.95
765.901	9.03
766.216	8.92
766.532	8.84
766.848	8.62
767.163	8.39
767.478	8.07
767.794	8.07
768.109	8.12
768.424	8.21
768.74	8.23
769.055	8.54
769.37	8.29
769.685	8.26
770	8.17
770.315	8.24
770.63	8.36
770.945	8.38
771.26	8.7
771.575	8.94
771.89	8.96
772.205	9.05
772.52	9.01
772.834	8.9
773.149	8.81
773.464	9.31
773.778	9.46
774.093	9.62
774.407	9.68
774.722	9.54
775.036	9.72
775.351	9.83
775.665	9.77
775.979	9.97
776.293	10.1
776.608	10.2
776.922	10.15
777.236	9.98
777.55	9.68
777.864	9.5
778.178	9.25
778.492	9.1
778.806	9.26
779.12	9.56
779.434	9.57
779.747	10.1
780.061	9.65
780.375	9.83
780.689	10.1
781.002	9.61
781.316	9.45
781.629	9.52
781.943	9.77
782.256	9.6
782.57	9.63
782.883	9.73
783.196	9.58
783.51	9.31
783.823	9.04
784.136	9.14
784.449	8.86
784.762	9.14
785.075	9.11
785.388	8.94
785.701	8.77
786.014	9.08
786.327	9.18
786.64	9.5
786.953	9.62
787.266	9.52
787.578	9.89
787.891	10.15
788.204	9.9
788.516	9.72
788.829	9.58
789.141	9.78
789.454	9.83
789.766	10.2
790.079	10.44
790.391	10.57
790.703	10.6
791.016	11.07
791.328	10.55
791.64	10.34
791.952	10.64
792.264	10.45
792.576	10.39
792.888	9.88
793.2	10.13
793.512	10.05
793.824	9.94
794.136	9.88
794.448	9.92
794.76	10.12
795.071	9.59
795.383	10.05
795.695	9.92
796.006	9.84
796.318	9.78
796.629	9.87
796.941	10.11
797.252	10.28
797.564	9.95
797.875	9.7
798.186	9.95
798.497	9.39
798.809	9.44
799.12	9.51
799.431	10.29
799.742	10.31
800.053	10.48
800.364	10.93
800.675	10.89
800.986	10.85
801.297	10.7
801.608	11.07
801.918	11.18
802.229	11.18
802.54	10.98
802.851	10.89
803.161	11.32
803.472	10.97
803.782	10.86
804.093	10.93
804.403	11.48
804.714	11.89
805.024	12.12
805.334	12.26
805.645	12.11
805.955	11.4
806.265	10.93
806.575	10.76
806.885	10.58
807.195	10.7
807.505	10.65
807.815	11.11
808.125	11.32
808.435	11.5
808.745	11.79
809.055	12.21
809.365	12.1
809.674	11.25
809.984	11.56
810.294	11.89
810.603	11.71
810.913	12.11
811.222	12.28
811.532	12.43
811.841	13.05
812.151	12.78
812.46	12.62
812.769	12.38
813.079	12.7
813.388	12.24
813.697	12.24
814.006	12.33
814.315	11.83
814.624	11.87
814.933	11.11
815.242	10.74
815.551	10.89
815.86	11.36
816.169	11.52
816.478	11.65
816.786	11.19
817.095	11.27
817.404	10.65
817.712	10.77
818.021	11.06
818.33	10.72
818.638	10.96
818.947	10.46
819.255	10.48
819.563	10.5
819.872	10.65
820.18	10.73
820.488	10.61
820.796	10.61
821.105	10.54
821.413	10.73
821.721	10.79
822.029	10.61
822.337	10.52
822.645	10.79
822.953	10.65
823.26	10.66
823.568	10.78
823.876	10.88
824.184	10.76
824.491	10.72
824.799	10.68
825.107	10.66
825.414	10.81
825.722	10.8
826.029	10.72
826.337	10.75
826.644	10.83
826.951	10.85
827.259	10.98
827.566	11.05
827.873	11.06
828.18	11.03
828.488	11.1
828.795	11.22
829.102	10.95
829.409	11.08
829.716	11.36
830.023	11.19
830.329	11.31
830.636	11.08
830.943	11.17
831.25	11.36
831.557	11.41
831.863	11.42
832.17	11.6
832.476	11.87
832.783	11.71
833.089	11.65
833.396	11.81
833.702	11.93
834.009	11.62
834.315	11.5
834.621	11.95
834.928	11.85
835.234	11.8
835.54	12.08
835.846	12.12
836.152	12.11
836.458	11.82
836.764	11.82
837.07	12.18
837.376	11.87
837.682	11.99
837.988	12.07
838.293	12.49
838.599	12.27
838.905	11.9
839.211	12.38
839.516	12.33
839.822	13.08
840.127	12.64
840.433	13.52
840.738	13.37
841.044	12.66
841.349	12.71
841.654	12.71
841.959	12.01
842.265	12.61
842.57	12.8
842.875	14.22
843.18	13.69
843.485	13.31
843.79	13.62
844.095	13.69
844.4	14.76
844.705	14.19
845.01	15.18
845.315	15.72
845.619	15.51
845.924	15.12
846.229	13.82
846.533	14.19
846.838	13.57
847.142	14.05
847.447	14.79
847.751	16.49
848.056	16.92
848.36	18.15
848.664	17.19
848.969	15.98
849.273	14.37
849.577	13.45
849.881	15.01
850.185	14.16
850.489	14.13
850.794	15.21
851.097	16.57
851.401	16
851.705	13.85
852.009	13.5
852.313	13.83
852.617	14.3
852.92	14.99
853.224	15.11
853.528	13.9
853.831	14.29
854.135	13.98
854.438	14.81
854.742	13.11
855.045	14.32
855.349	14.11
855.652	15.63
855.955	15.57
856.259	15.26
856.562	18.25
856.865	18.3
857.168	14.77
857.471	15.04
857.774	15.86
858.077	18.53
858.38	19.14
858.683	18.95
858.986	18.67
859.289	17.61
859.592	17.17
859.894	17.54
860.197	15.78
860.5	15.12
860.802	13.59
861.105	15.33
861.407	14.51
861.71	16.52
862.012	16.7
862.315	19.6
862.617	19.26
862.919	16.33
863.222	14.4
863.524	15.45
863.826	15.13
864.128	14.95
864.43	15.04
864.732	13.97
865.034	14.52
865.336	15.57
865.638	15.21
865.94	14.42
866.242	14.93
866.544	16.43
866.846	16.4
867.147	16.52
867.449	16.99
867.751	17.32
868.052	16.18
868.354	15
868.655	14.29
868.957	13.45
869.258	11.46
869.56	10.18
869.861	10.29
870.162	9.41
870.463	8.27
870.765	7.18
871.066	8.2
871.367	7.12
871.668	7.08
871.969	6.83
872.27	8.35
872.571	7.48
872.872	5.67
873.173	4.71
873.473	4.5
873.774	2.56
874.075	5.14
874.376	4.37
874.676	4.58
874.977	5.89
875.277	6.54
875.578	8.5
875.878	10.89
876.179	10.38
876.479	10.08
876.78	11.13
877.08	12.01
877.38	11.63
877.68	12.41
877.981	11.15
878.281	11.66
878.581	11.18
