Data from BU26944_Reflection_00004.txt Node
Date: Tue Nov 19 10:54:34 EST 2019
User: vgr7
Spectrometer: USB2G7710
Scans to average: 3
Trigger mode: 4
Integration Time (sec): 2.000000E-2
Electric dark correction enabled: true
Boxcar width: 10
XAxis mode: Wavelengths
Number of Pixels in Spectrum: 2048
>>>>>Begin Spectral Data<<<<<
177.721	-241.5
178.105	-227.43
178.488	-235.3
178.871	-502.86
179.254	1100
179.636	234.85
180.019	47.26
180.402	-625
180.785	12.94
181.168	-65.08
181.55	-148.93
181.933	12.6
182.316	9.09
182.698	2.92
183.081	19.75
183.463	17.37
183.846	58.2
184.228	12.6
184.611	208.11
184.993	88.57
185.376	39.85
185.758	51.81
186.14	57.89
186.522	104.74
186.904	-27.71
187.287	-102.4
187.669	-56.8
188.051	-89.45
188.433	-203.54
188.815	-135.97
189.197	-129.09
189.579	-163.39
189.961	-128.78
190.342	-102.43
190.724	-101.35
191.106	-108.36
191.488	-121.26
191.869	-128.46
192.251	-107.73
192.633	-150.17
193.014	-122.94
193.396	-142.31
193.777	-101.37
194.159	-82.04
194.54	-103.37
194.922	-82.22
195.303	-83.56
195.684	-97.98
196.065	-93.89
196.447	-75.92
196.828	-83.34
197.209	-84.47
197.59	-60.1
197.971	-79.29
198.352	-51.94
198.733	-46.45
199.114	-41.67
199.495	-37.21
199.876	-44.24
200.257	-45.68
200.638	-37.11
201.018	-54.48
201.399	-41.87
201.78	-45.22
202.16	-58.22
202.541	-57.95
202.922	-67.67
203.302	-69.3
203.683	-70.82
204.063	-69.72
204.444	-39.68
204.824	-44.3
205.204	-37.24
205.585	-33.58
205.965	-30.39
206.345	-48.74
206.725	-76.17
207.106	-71.45
207.486	-54.81
207.866	-24.66
208.246	-12.67
208.626	-22.84
209.006	-28.99
209.386	-31.68
209.766	-31.56
210.145	-17.05
210.525	-33.92
210.905	-0.61
211.285	14.89
211.664	22.77
212.044	18.5
212.424	-0.06
212.803	-0.9
213.183	-11.95
213.562	-17.38
213.942	-0.85
214.321	-13.54
214.701	3.25
215.08	-9.05
215.459	-13.26
215.838	-22.04
216.218	-71.16
216.597	-39.28
216.976	-66.49
217.355	-45.5
217.734	-35.04
218.113	-27.96
218.492	-25.91
218.871	-52
219.25	-56.83
219.629	-116.52
220.008	-131.31
220.387	-110.08
220.766	-51.12
221.144	-11.39
221.523	-0.95
221.902	-7.74
222.28	9.51
222.659	9.39
223.037	28.44
223.416	16.48
223.794	23.77
224.173	31.16
224.551	23.13
224.929	34.75
225.308	38.99
225.686	36
226.064	27.64
226.442	26.19
226.821	31.02
227.199	23.44
227.577	21.19
227.955	21.68
228.333	17.99
228.711	17.34
229.089	14.37
229.467	12.58
229.845	10.04
230.222	9.68
230.6	6.34
230.978	4.7
231.356	4.15
231.733	3.7
232.111	5.98
232.488	3.24
232.866	4.17
233.243	0.12
233.621	2.38
233.998	0.85
234.376	-0.46
234.753	-0.79
235.13	1.23
235.508	1.41
235.885	1.61
236.262	1.83
236.639	2.04
237.016	2.47
237.393	4.29
237.77	4.23
238.147	4.18
238.524	4.73
238.901	4.28
239.278	3.58
239.655	3.07
240.032	2.7
240.409	3.54
240.785	2.99
241.162	3.63
241.539	3.01
241.915	3.66
242.292	3.83
242.668	4.02
243.045	4.43
243.421	4.73
243.798	4.86
244.174	4.67
244.551	4.71
244.927	4.56
245.303	3.94
245.679	4.11
246.056	4.25
246.432	4.26
246.808	4.52
247.184	4.87
247.56	5
247.936	4.87
248.312	4.81
248.688	5.01
249.064	5
249.44	4.85
249.815	4.88
250.191	4.81
250.567	4.59
250.943	4.21
251.318	4.2
251.694	4.05
252.069	4.11
252.445	3.89
252.82	3.68
253.196	4.15
253.571	4.2
253.947	3.81
254.322	4
254.697	3.87
255.073	3.65
255.448	3.57
255.823	3.7
256.198	3.51
256.573	3.41
256.948	3.57
257.323	3.59
257.698	3.52
258.073	3.57
258.448	3.63
258.823	3.72
259.198	3.51
259.573	3.36
259.948	3.29
260.322	3.44
260.697	3.49
261.072	3.41
261.446	3.41
261.821	3.56
262.195	3.34
262.57	3.27
262.944	3.42
263.319	3.38
263.693	3.33
264.067	3.51
264.442	3.41
264.816	3.27
265.19	3.38
265.564	3.55
265.938	3.71
266.313	3.54
266.687	3.36
267.061	3.49
267.435	3.71
267.809	3.86
268.183	3.74
268.556	3.79
268.93	3.77
269.304	3.68
269.678	3.72
270.051	3.83
270.425	3.86
270.799	3.66
271.172	3.55
271.546	3.56
271.919	3.68
272.293	3.77
272.666	3.81
273.04	3.69
273.413	3.44
273.787	3.34
274.16	3.52
274.533	3.74
274.906	3.66
275.279	3.5
275.653	3.41
276.026	3.43
276.399	3.58
276.772	3.65
277.145	3.63
277.518	3.55
277.891	3.57
278.263	3.69
278.636	3.72
279.009	3.93
279.382	4.08
279.755	3.95
280.127	3.96
280.5	3.84
280.872	3.87
281.245	3.98
281.617	4.02
281.99	3.89
282.362	3.82
282.735	3.88
283.107	3.92
283.479	3.91
283.852	4.04
284.224	3.94
284.596	3.77
284.968	3.78
285.34	3.78
285.713	3.82
286.085	3.64
286.457	3.68
286.829	3.6
287.201	3.4
287.572	3.4
287.944	3.41
288.316	3.56
288.688	3.62
289.06	3.57
289.431	3.58
289.803	3.72
290.175	3.74
290.546	3.77
290.918	3.8
291.289	3.82
291.661	3.76
292.032	3.84
292.403	3.97
292.775	4.01
293.146	3.96
293.517	3.91
293.889	3.94
294.26	3.89
294.631	3.91
295.002	4.05
295.373	3.98
295.744	4.05
296.115	3.89
296.486	3.88
296.857	3.97
297.228	3.91
297.599	3.83
297.97	3.73
298.34	3.65
298.711	3.6
299.082	3.68
299.452	3.6
299.823	3.53
300.194	3.42
300.564	3.34
300.935	3.37
301.305	3.27
301.676	3.37
302.046	3.33
302.416	3.21
302.787	3.1
303.157	3.09
303.527	2.9
303.897	2.93
304.267	2.9
304.637	2.8
305.008	2.77
305.378	2.92
305.748	2.99
306.117	3.03
306.487	3.18
306.857	3.12
307.227	3.15
307.597	3.12
307.967	3.19
308.336	3.17
308.706	3.22
309.076	3.39
309.445	3.44
309.815	3.5
310.184	3.69
310.554	3.72
310.923	3.76
311.293	3.82
311.662	3.9
312.031	3.96
312.401	3.89
312.77	3.95
313.139	3.83
313.508	3.73
313.877	3.71
314.246	3.46
314.616	3.4
314.985	3.33
315.353	3.32
315.722	3.47
316.091	3.41
316.46	3.32
316.829	3.25
317.198	3.11
317.567	3.14
317.935	3.06
318.304	3.11
318.672	3.15
319.041	3.21
319.41	3.18
319.778	3.09
320.147	3.17
320.515	3.22
320.883	3.33
321.252	3.55
321.62	3.6
321.988	3.71
322.357	3.8
322.725	3.82
323.093	3.84
323.461	3.72
323.829	3.86
324.197	3.8
324.565	3.8
324.933	3.74
325.301	3.69
325.669	3.55
326.037	3.56
326.405	3.55
326.772	3.49
327.14	3.38
327.508	3.34
327.875	3.33
328.243	3.15
328.61	3
328.978	2.85
329.346	2.82
329.713	2.81
330.08	2.86
330.448	2.88
330.815	2.84
331.182	2.78
331.55	2.7
331.917	2.77
332.284	2.8
332.651	2.74
333.018	2.73
333.385	2.8
333.752	2.74
334.119	2.7
334.486	2.65
334.853	2.73
335.22	2.69
335.587	2.74
335.954	2.8
336.32	2.78
336.687	2.76
337.054	2.76
337.42	2.85
337.787	2.8
338.153	2.95
338.52	3.01
338.886	3.03
339.253	3.04
339.619	3.07
339.986	2.94
340.352	2.98
340.718	2.91
341.084	2.86
341.451	2.88
341.817	2.9
342.183	2.95
342.549	2.95
342.915	3.01
343.281	3
343.647	2.98
344.013	2.97
344.379	2.93
344.745	2.95
345.11	2.86
345.476	2.89
345.842	2.79
346.208	2.74
346.573	2.76
346.939	2.76
347.304	2.84
347.67	2.98
348.035	3.05
348.401	3.09
348.766	3.11
349.132	3.13
349.497	3.1
349.862	3.06
350.228	3.09
350.593	3.04
350.958	3.07
351.323	3.08
351.688	3.2
352.053	3.31
352.418	3.33
352.783	3.39
353.148	3.36
353.513	3.27
353.878	3.24
354.243	3.19
354.608	3.19
354.972	3.11
355.337	3.05
355.702	3.02
356.066	3.02
356.431	3.1
356.795	3.12
357.16	3.1
357.524	3.07
357.889	3.06
358.253	3.12
358.618	3.03
358.982	3.03
359.346	2.99
359.71	2.99
360.075	2.97
360.439	2.96
360.803	2.95
361.167	3.01
361.531	3.02
361.895	3.03
362.259	3.04
362.623	3.04
362.987	3.11
363.351	3.18
363.714	3.14
364.078	3.13
364.442	3.07
364.806	3.15
365.169	3.26
365.533	3.25
365.896	3.21
366.26	3.23
366.623	3.27
366.987	3.25
367.35	3.23
367.714	3.22
368.077	3.26
368.44	3.26
368.803	3.27
369.167	3.23
369.53	3.21
369.893	3.16
370.256	3.13
370.619	3.13
370.982	3.03
371.345	3.1
371.708	3.08
372.071	3.05
372.434	2.95
372.797	2.9
373.159	2.89
373.522	2.9
373.885	2.87
374.247	2.87
374.61	2.88
374.973	2.92
375.335	2.92
375.698	2.84
376.06	2.86
376.423	2.89
376.785	2.96
377.147	2.99
377.51	3.02
377.872	3.03
378.234	2.98
378.596	3.08
378.958	3.04
379.321	2.94
379.683	2.95
380.045	2.99
380.407	3.05
380.769	3.06
381.13	3.06
381.492	3.12
381.854	3.08
382.216	3.07
382.578	3.01
382.939	3.04
383.301	3.07
383.663	3.07
384.024	3.07
384.386	3.04
384.747	3.08
385.109	3.1
385.47	3.14
385.832	3.12
386.193	3.05
386.554	3.01
386.916	3.09
387.277	3.11
387.638	3.09
387.999	3.04
388.36	3.03
388.721	3.06
389.082	3.07
389.443	3.07
389.804	3.06
390.165	3.1
390.526	3.08
390.887	3.08
391.248	3.08
391.609	3.1
391.969	3.12
392.33	3.05
392.691	3.03
393.051	3.02
393.412	3.06
393.772	3.08
394.133	3.12
394.493	3.12
394.854	3.13
395.214	3.13
395.574	3.12
395.935	3.13
396.295	3.13
396.655	3.11
397.015	3.15
397.376	3.18
397.736	3.17
398.096	3.17
398.456	3.18
398.816	3.18
399.176	3.11
399.535	3.12
399.895	3.16
400.255	3.16
400.615	3.18
400.975	3.16
401.334	3.14
401.694	3.13
402.054	3.15
402.413	3.15
402.773	3.16
403.132	3.15
403.492	3.15
403.851	3.11
404.211	3.1
404.57	3.1
404.929	3.09
405.288	3.11
405.648	3.09
406.007	3.09
406.366	3.08
406.725	3.08
407.084	3.06
407.443	3.05
407.802	3.04
408.161	3.04
408.52	3.04
408.879	3.05
409.238	3.07
409.596	3.06
409.955	3.06
410.314	3.06
410.673	3.07
411.031	3.06
411.39	3.06
411.748	3.09
412.107	3.09
412.465	3.07
412.824	3.03
413.182	3.04
413.54	3.05
413.899	3.03
414.257	3.07
414.615	3.06
414.974	3.07
415.332	3.09
415.69	3.07
416.048	3.05
416.406	3.05
416.764	3.05
417.122	3.05
417.48	3.06
417.838	3.05
418.195	3.06
418.553	3.07
418.911	3.08
419.269	3.06
419.626	3.05
419.984	3.06
420.342	3.08
420.699	3.06
421.057	3.05
421.414	3.08
421.772	3.07
422.129	3.08
422.486	3.08
422.844	3.08
423.201	3.09
423.558	3.09
423.915	3.09
424.273	3.08
424.63	3.09
424.987	3.09
425.344	3.09
425.701	3.08
426.058	3.08
426.415	3.07
426.772	3.08
427.128	3.1
427.485	3.09
427.842	3.09
428.199	3.12
428.555	3.12
428.912	3.09
429.269	3.08
429.625	3.08
429.982	3.09
430.338	3.07
430.695	3.06
431.051	3.07
431.407	3.09
431.764	3.08
432.12	3.09
432.476	3.08
432.832	3.06
433.189	3.08
433.545	3.07
433.901	3.07
434.257	3.07
434.613	3.05
434.969	3.05
435.325	3.05
435.681	3.04
436.036	3.05
436.392	3.06
436.748	3.08
437.104	3.07
437.459	3.05
437.815	3.06
438.171	3.07
438.526	3.07
438.882	3.06
439.237	3.08
439.593	3.07
439.948	3.06
440.304	3.08
440.659	3.08
441.014	3.08
441.369	3.09
441.725	3.09
442.08	3.09
442.435	3.1
442.79	3.09
443.145	3.09
443.5	3.07
443.855	3.08
444.21	3.08
444.565	3.09
444.92	3.09
445.275	3.11
445.629	3.1
445.984	3.1
446.339	3.1
446.693	3.08
447.048	3.07
447.403	3.06
447.757	3.05
448.112	3.04
448.466	3.04
448.82	3.04
449.175	3.04
449.529	3.03
449.883	3.01
450.238	3.02
450.592	3.02
450.946	3.03
451.3	3.01
451.654	2.99
452.008	2.99
452.362	2.99
452.716	2.97
453.07	2.96
453.424	2.96
453.778	2.95
454.132	2.93
454.486	2.96
454.839	2.96
455.193	2.97
455.547	2.99
455.9	3.01
456.254	3
456.607	3.01
456.961	3.02
457.314	3.03
457.668	3.03
458.021	3.02
458.375	3.03
458.728	3.04
459.081	3.07
459.434	3.06
459.787	3.07
460.141	3.08
460.494	3.1
460.847	3.11
461.2	3.12
461.553	3.15
461.906	3.14
462.259	3.12
462.611	3.12
462.964	3.11
463.317	3.1
463.67	3.13
464.022	3.12
464.375	3.13
464.728	3.14
465.08	3.11
465.433	3.13
465.785	3.11
466.138	3.12
466.49	3.09
466.843	3.12
467.195	3.09
467.547	3.1
467.899	3.09
468.252	3.07
468.604	3.07
468.956	3.06
469.308	3.06
469.66	3.1
470.012	3.1
470.364	3.11
470.716	3.12
471.068	3.1
471.42	3.1
471.772	3.11
472.123	3.1
472.475	3.11
472.827	3.11
473.178	3.12
473.53	3.13
473.882	3.14
474.233	3.1
474.585	3.13
474.936	3.12
475.288	3.13
475.639	3.16
475.99	3.16
476.342	3.16
476.693	3.17
477.044	3.15
477.395	3.16
477.746	3.18
478.097	3.19
478.448	3.19
478.8	3.17
479.15	3.14
479.501	3.15
479.852	3.16
480.203	3.17
480.554	3.2
480.905	3.19
481.255	3.19
481.606	3.21
481.957	3.2
482.307	3.21
482.658	3.2
483.009	3.19
483.359	3.21
483.709	3.21
484.06	3.2
484.41	3.2
484.761	3.2
485.111	3.2
485.461	3.2
485.811	3.21
486.162	3.23
486.512	3.24
486.862	3.24
487.212	3.24
487.562	3.23
487.912	3.22
488.262	3.22
488.612	3.22
488.961	3.21
489.311	3.21
489.661	3.21
490.011	3.22
490.36	3.22
490.71	3.22
491.06	3.21
491.409	3.22
491.759	3.22
492.108	3.22
492.458	3.22
492.807	3.22
493.157	3.21
493.506	3.2
493.855	3.21
494.204	3.21
494.554	3.19
494.903	3.21
495.252	3.21
495.601	3.24
495.95	3.24
496.299	3.25
496.648	3.26
496.997	3.27
497.346	3.28
497.695	3.29
498.043	3.29
498.392	3.31
498.741	3.31
499.09	3.31
499.438	3.33
499.787	3.34
500.135	3.33
500.484	3.33
500.832	3.34
501.181	3.33
501.529	3.36
501.878	3.38
502.226	3.39
502.574	3.41
502.923	3.39
503.271	3.41
503.619	3.4
503.967	3.38
504.315	3.37
504.663	3.35
505.011	3.35
505.359	3.34
505.707	3.34
506.055	3.36
506.403	3.36
506.751	3.35
507.098	3.34
507.446	3.35
507.794	3.37
508.141	3.37
508.489	3.38
508.837	3.36
509.184	3.36
509.531	3.36
509.879	3.33
510.226	3.34
510.574	3.33
510.921	3.35
511.268	3.37
511.616	3.39
511.963	3.4
512.31	3.42
512.657	3.42
513.004	3.41
513.351	3.41
513.698	3.41
514.045	3.43
514.392	3.44
514.739	3.43
515.086	3.43
515.432	3.45
515.779	3.43
516.126	3.44
516.473	3.45
516.819	3.45
517.166	3.48
517.512	3.48
517.859	3.49
518.205	3.48
518.552	3.48
518.898	3.47
519.245	3.48
519.591	3.47
519.937	3.48
520.283	3.5
520.629	3.49
520.976	3.48
521.322	3.48
521.668	3.46
522.014	3.48
522.36	3.49
522.706	3.5
523.052	3.52
523.398	3.52
523.743	3.52
524.089	3.52
524.435	3.51
524.781	3.52
525.126	3.52
525.472	3.53
525.817	3.54
526.163	3.54
526.509	3.55
526.854	3.54
527.199	3.54
527.545	3.53
527.89	3.54
528.235	3.55
528.581	3.56
528.926	3.57
529.271	3.57
529.616	3.56
529.961	3.56
530.306	3.56
530.651	3.56
530.996	3.56
531.341	3.57
531.686	3.57
532.031	3.58
532.376	3.59
532.721	3.6
533.065	3.6
533.41	3.61
533.755	3.61
534.099	3.61
534.444	3.62
534.788	3.62
535.133	3.62
535.477	3.62
535.822	3.62
536.166	3.61
536.51	3.61
536.855	3.61
537.199	3.62
537.543	3.62
537.887	3.63
538.231	3.63
538.576	3.63
538.92	3.62
539.264	3.61
539.608	3.61
539.951	3.59
540.295	3.58
540.639	3.59
540.983	3.59
541.327	3.6
541.671	3.59
542.014	3.6
542.358	3.6
542.701	3.61
543.045	3.61
543.389	3.63
543.732	3.62
544.075	3.63
544.419	3.62
544.762	3.61
545.105	3.6
545.449	3.61
545.792	3.6
546.135	3.6
546.478	3.62
546.821	3.61
547.165	3.62
547.508	3.63
547.851	3.62
548.194	3.61
548.536	3.58
548.879	3.61
549.222	3.61
549.565	3.62
549.908	3.59
550.25	3.59
550.593	3.59
550.936	3.57
551.278	3.55
551.621	3.57
551.963	3.59
552.306	3.59
552.648	3.59
552.991	3.61
553.333	3.62
553.675	3.6
554.017	3.58
554.36	3.59
554.702	3.58
555.044	3.59
555.386	3.6
555.728	3.62
556.07	3.6
556.412	3.61
556.754	3.58
557.096	3.6
557.438	3.62
557.78	3.64
558.121	3.64
558.463	3.65
558.805	3.65
559.147	3.63
559.488	3.64
559.83	3.63
560.171	3.62
560.513	3.62
560.854	3.63
561.196	3.63
561.537	3.62
561.878	3.66
562.22	3.66
562.561	3.66
562.902	3.65
563.243	3.7
563.584	3.7
563.925	3.74
564.266	3.75
564.607	3.74
564.948	3.75
565.289	3.77
565.63	3.78
565.971	3.76
566.312	3.76
566.653	3.76
566.993	3.74
567.334	3.75
567.675	3.74
568.015	3.73
568.356	3.77
568.696	3.77
569.037	3.73
569.377	3.72
569.718	3.72
570.058	3.73
570.398	3.72
570.739	3.69
571.079	3.67
571.419	3.65
571.759	3.64
572.099	3.59
572.439	3.58
572.779	3.57
573.119	3.6
573.459	3.61
573.799	3.59
574.139	3.62
574.479	3.63
574.819	3.67
575.158	3.69
575.498	3.67
575.838	3.67
576.177	3.66
576.517	3.67
576.856	3.68
577.196	3.68
577.535	3.65
577.875	3.66
578.214	3.66
578.553	3.67
578.893	3.69
579.232	3.72
579.571	3.72
579.91	3.73
580.25	3.75
580.589	3.72
580.928	3.75
581.267	3.77
581.606	3.74
581.945	3.69
582.283	3.68
582.622	3.68
582.961	3.68
583.3	3.74
583.639	3.74
583.977	3.73
584.316	3.75
584.654	3.74
584.993	3.74
585.332	3.77
585.67	3.77
586.008	3.8
586.347	3.8
586.685	3.84
587.024	3.84
587.362	3.84
587.7	3.88
588.038	3.89
588.376	3.85
588.715	3.87
589.053	3.88
589.391	3.87
589.729	3.85
590.067	3.87
590.404	3.85
590.742	3.84
591.08	3.87
591.418	3.86
591.756	3.86
592.093	3.86
592.431	3.87
592.769	3.9
593.106	3.88
593.444	3.89
593.781	3.86
594.119	3.85
594.456	3.83
594.793	3.83
595.131	3.81
595.468	3.84
595.805	3.83
596.143	3.84
596.48	3.85
596.817	3.86
597.154	3.86
597.491	3.83
597.828	3.83
598.165	3.78
598.502	3.8
598.839	3.79
599.176	3.8
599.512	3.77
599.849	3.74
600.186	3.72
600.523	3.7
600.859	3.69
601.196	3.72
601.532	3.68
601.869	3.7
602.205	3.72
602.542	3.7
602.878	3.74
603.215	3.74
603.551	3.75
603.887	3.75
604.223	3.74
604.56	3.74
604.896	3.77
605.232	3.81
605.568	3.79
605.904	3.79
606.24	3.8
606.576	3.83
606.912	3.83
607.248	3.85
607.583	3.88
607.919	3.9
608.255	3.9
608.591	3.93
608.926	3.92
609.262	3.94
609.597	3.93
609.933	3.88
610.268	3.89
610.604	3.89
610.939	3.93
611.275	3.94
611.61	3.96
611.945	3.91
612.281	3.92
612.616	3.94
612.951	3.95
613.286	3.93
613.621	3.9
613.956	3.87
614.291	3.85
614.626	3.86
614.961	3.88
615.296	3.88
615.631	3.86
615.966	3.82
616.3	3.78
616.635	3.81
616.97	3.82
617.304	3.81
617.639	3.78
617.973	3.69
618.308	3.71
618.642	3.74
618.977	3.74
619.311	3.73
619.646	3.73
619.98	3.76
620.314	3.77
620.648	3.75
620.983	3.81
621.317	3.83
621.651	3.81
621.985	3.77
622.319	3.73
622.653	3.75
622.987	3.79
623.321	3.88
623.655	3.9
623.988	3.89
624.322	3.87
624.656	3.9
624.99	3.95
625.323	3.94
625.657	3.93
625.99	3.95
626.324	3.94
626.657	3.9
626.991	3.89
627.324	3.92
627.658	3.96
627.991	3.97
628.324	3.95
628.657	3.9
628.991	3.92
629.324	3.94
629.657	3.93
629.99	3.99
630.323	3.92
630.656	3.84
630.989	3.84
631.322	3.82
631.655	3.84
631.987	3.82
632.32	3.85
632.653	3.78
632.986	3.76
633.318	3.76
633.651	3.8
633.984	3.78
634.316	3.75
634.649	3.74
634.981	3.69
635.313	3.73
635.646	3.78
635.978	3.77
636.31	3.8
636.643	3.79
636.975	3.76
637.307	3.79
637.639	3.87
637.971	3.85
638.303	3.87
638.635	3.82
638.967	3.87
639.299	3.85
639.631	3.88
639.963	3.91
640.295	3.91
640.626	3.9
640.958	3.95
641.29	4.01
641.621	4.02
641.953	3.97
642.285	3.97
642.616	3.96
642.948	4.05
643.279	4.03
643.61	4.03
643.942	4.03
644.273	4.03
644.604	4
644.936	4.07
645.267	4.09
645.598	4.17
645.929	4.13
646.26	4.14
646.591	4.15
646.922	4.17
647.253	4.18
647.584	4.24
647.915	4.16
648.245	4.14
648.576	4.1
648.907	4.19
649.238	4.2
649.568	4.24
649.899	4.18
650.229	4.21
650.56	4.24
650.89	4.26
651.221	4.26
651.551	4.29
651.882	4.22
652.212	4.24
652.542	4.19
652.872	4.22
653.203	4.22
653.533	4.25
653.863	4.27
654.193	4.24
654.523	4.21
654.853	4.27
655.183	4.26
655.513	4.36
655.843	4.35
656.172	4.34
656.502	4.31
656.832	4.27
657.162	4.2
657.491	4.24
657.821	4.19
658.15	4.23
658.48	4.27
658.809	4.28
659.139	4.28
659.468	4.28
659.798	4.27
660.127	4.26
660.456	4.24
660.785	4.23
661.115	4.34
661.444	4.34
661.773	4.36
662.102	4.31
662.431	4.24
662.76	4.2
663.089	4.25
663.418	4.23
663.747	4.27
664.076	4.34
664.404	4.32
664.733	4.31
665.062	4.24
665.39	4.23
665.719	4.3
666.048	4.27
666.376	4.28
666.705	4.27
667.033	4.28
667.362	4.25
667.69	4.24
668.018	4.15
668.347	4.11
668.675	4.14
669.003	4.17
669.331	4.17
669.659	4.17
669.987	4.13
670.315	4.11
670.643	4.01
670.971	3.99
671.299	3.91
671.627	3.98
671.955	3.9
672.283	3.89
672.61	3.88
672.938	3.93
673.266	3.89
673.593	3.91
673.921	3.86
674.249	3.8
674.576	3.85
674.904	3.82
675.231	3.83
675.558	3.79
675.886	3.86
676.213	3.85
676.54	3.95
676.867	3.95
677.195	4.04
677.522	4.07
677.849	4.12
678.176	4.17
678.503	4.11
678.83	4.18
679.157	4.13
679.484	4.1
679.81	4.02
680.137	4.09
680.464	4.12
680.791	4.18
681.117	4.25
681.444	4.2
681.771	4.2
682.097	4.25
682.424	4.29
682.75	4.22
683.077	4.27
683.403	4.2
683.729	4.13
684.056	4.05
684.382	4.15
684.708	4.1
685.034	4.07
685.36	4.07
685.686	4.12
686.012	4.15
686.339	4.22
686.664	4.28
686.99	4.2
687.316	4.23
687.642	4.27
687.968	4.26
688.294	4.36
688.619	4.36
688.945	4.34
689.271	4.3
689.596	4.35
689.922	4.34
690.247	4.45
690.573	4.46
690.898	4.54
691.224	4.55
691.549	4.58
691.874	4.65
692.2	4.71
692.525	4.66
692.85	4.66
693.175	4.63
693.5	4.67
693.825	4.67
694.15	4.7
694.475	4.73
694.8	4.7
695.125	4.65
695.45	4.7
695.775	4.7
696.099	4.69
696.424	4.62
696.749	4.64
697.073	4.55
697.398	4.63
697.723	4.65
698.047	4.61
698.372	4.6
698.696	4.54
699.02	4.54
699.345	4.59
699.669	4.63
699.993	4.64
700.318	4.64
700.642	4.68
700.966	4.57
701.29	4.48
701.614	4.57
701.938	4.57
702.262	4.55
702.586	4.47
702.91	4.57
703.234	4.54
703.557	4.44
703.881	4.46
704.205	4.47
704.529	4.36
704.852	4.45
705.176	4.46
705.499	4.5
705.823	4.53
706.146	4.56
706.47	4.55
706.793	4.55
707.117	4.55
707.44	4.57
707.763	4.58
708.086	4.65
708.409	4.55
708.733	4.48
709.056	4.38
709.379	4.44
709.702	4.3
710.025	4.53
710.348	4.62
710.671	4.69
710.993	4.54
711.316	4.68
711.639	4.62
711.962	4.61
712.284	4.63
712.607	4.6
712.93	4.45
713.252	4.48
713.575	4.56
713.897	4.51
714.22	4.48
714.542	4.46
714.864	4.32
715.187	4.33
715.509	4.35
715.831	4.44
716.153	4.54
716.475	4.59
716.798	4.45
717.12	4.39
717.442	4.37
717.764	4.5
718.085	4.47
718.407	4.52
718.729	4.49
719.051	4.47
719.373	4.59
719.695	4.7
720.016	4.49
720.338	4.54
720.659	4.69
720.981	4.71
721.302	4.92
721.624	5.07
721.945	5.09
722.267	5.07
722.588	5.04
722.909	5
723.231	5
723.552	5.15
723.873	5.18
724.194	5.04
724.515	5.03
724.836	4.72
725.157	4.7
725.478	4.82
725.799	4.86
726.12	4.76
726.441	4.82
726.762	5
727.083	5.01
727.403	4.92
727.724	4.98
728.045	4.81
728.365	4.76
728.686	4.76
729.006	4.85
729.327	5
729.647	4.9
729.967	4.92
730.288	4.88
730.608	4.95
730.928	5.09
731.249	5.18
731.569	5.39
731.889	5.37
732.209	5.29
732.529	5.27
732.849	5.27
733.169	5.2
733.489	5.15
733.809	4.94
734.129	5.02
734.448	4.96
734.768	4.96
735.088	5.02
735.408	5.06
735.727	4.96
736.047	4.99
736.366	4.97
736.686	4.99
737.005	5.02
737.325	4.81
737.644	4.73
737.963	4.8
738.283	4.78
738.602	4.79
738.921	4.8
739.24	4.69
739.56	4.79
739.879	4.83
740.198	4.86
740.517	4.95
740.836	4.86
741.155	4.97
741.473	4.92
741.792	4.85
742.111	5.13
742.43	5.2
742.748	4.96
743.067	5.03
743.386	4.98
743.704	4.79
744.023	5.1
744.341	5.31
744.66	5.13
744.978	5.11
745.297	5.15
745.615	5.16
745.933	5.51
746.252	5.38
746.57	5.52
746.888	5.51
747.206	5.39
747.524	5.38
747.842	5.1
748.16	5.37
748.478	5.42
748.796	5.29
749.114	5.34
749.432	5.49
749.749	5.48
750.067	5.49
750.385	5.6
750.703	5.52
751.02	5.47
751.338	5.42
751.655	5.57
751.973	5.53
752.29	5.44
752.608	5.09
752.925	5.24
753.242	5.18
753.56	4.95
753.877	4.96
754.194	4.96
754.511	5.2
754.828	4.94
755.145	5.03
755.462	5.01
755.779	5.02
756.096	5.15
756.413	4.96
756.73	5.04
757.047	5.05
757.364	4.94
757.68	4.77
757.997	4.83
758.314	5.04
758.63	5.26
758.947	5.47
759.264	5.52
759.58	5.4
759.896	5.46
760.213	5.74
760.529	5.85
760.846	5.93
761.162	5.92
761.478	5.86
761.794	6.03
762.11	5.88
762.426	5.85
762.743	5.76
763.059	5.99
763.375	6.04
763.69	6.12
764.006	6.24
764.322	6.27
764.638	6.39
764.954	6.27
765.27	6.14
765.585	5.98
765.901	5.79
766.216	5.77
766.532	5.67
766.848	5.59
767.163	5.43
767.478	5.3
767.794	5.18
768.109	5.24
768.424	4.89
768.74	5.04
769.055	5.05
769.37	4.96
769.685	4.85
770	4.71
770.315	4.83
770.63	4.8
770.945	4.91
771.26	4.55
771.575	4.77
771.89	4.52
772.205	4.52
772.52	4.9
772.834	5.06
773.149	4.94
773.464	4.9
773.778	5.11
774.093	4.95
774.407	5.21
774.722	5.44
775.036	5.94
775.351	5.77
775.665	5.77
775.979	5.85
776.293	6.07
776.608	6.21
776.922	5.8
777.236	6
777.55	5.72
777.864	6.09
778.178	5.75
778.492	6.26
778.806	6.32
779.12	6.43
779.434	6.29
779.747	6.53
780.061	6.85
780.375	6.97
780.689	7.23
781.002	6.94
781.316	6.92
781.629	6.55
781.943	6.53
782.256	6.32
782.57	6.42
782.883	6.3
783.196	6.38
783.51	6.66
783.823	6.44
784.136	6.32
784.449	5.92
784.762	6.12
785.075	6.01
785.388	6.08
785.701	6.21
786.014	6.35
786.327	6.18
786.64	5.94
786.953	6.13
787.266	6.25
787.578	5.94
787.891	5.91
788.204	5.73
788.516	6.25
788.829	6.62
789.141	6.95
789.454	6.9
789.766	6.98
790.079	6.86
790.391	6.88
790.703	7.26
791.016	7.74
791.328	7.6
791.64	7.76
791.952	7.45
792.264	7.28
792.576	6.98
792.888	6.85
793.2	7.19
793.512	6.99
793.824	7.12
794.136	7.6
794.448	7.29
794.76	7.78
795.071	7.52
795.383	7.5
795.695	7.03
796.006	6.92
796.318	6.48
796.629	6.52
796.941	6.41
797.252	5.95
797.564	5.86
797.875	5.59
798.186	5.33
798.497	5.56
798.809	5.39
799.12	5.31
799.431	5.68
799.742	5.59
800.053	5.47
800.364	5.26
800.675	5.74
800.986	6.28
801.297	6.02
801.608	5.68
801.918	5.8
802.229	5.99
802.54	5.96
802.851	6.1
803.161	6.06
803.472	6.28
803.782	7.14
804.093	7.06
804.403	7.71
804.714	7.69
805.024	7.79
805.334	7.74
805.645	8.3
805.955	8.13
806.265	7.72
806.575	7.9
806.885	8.73
807.195	8.32
807.505	7.86
807.815	7.91
808.125	7.91
808.435	7.25
808.745	6.95
809.055	7.31
809.365	7.37
809.674	7.78
809.984	7.85
810.294	7.37
810.603	6.67
810.913	6.24
811.222	6.12
811.532	6.52
811.841	7.38
812.151	7.21
812.46	7.51
812.769	7.43
813.079	7.1
813.388	6.05
813.697	5.8
814.006	6.55
814.315	6.53
814.624	6.98
814.933	7.29
815.242	7.25
815.551	7.17
815.86	6.69
816.169	5.97
816.478	5.47
816.786	5.06
817.095	6
817.404	6.26
817.712	6.06
818.021	6.13
818.33	5.74
818.638	5.75
818.947	5.5
819.255	5.8
819.563	6.19
819.872	6.45
820.18	6.5
820.488	6.65
820.796	6.75
821.105	6.52
821.413	6.59
821.721	6.6
822.029	6.59
822.337	6.72
822.645	6.83
822.953	6.97
823.26	7.03
823.568	7
823.876	6.87
824.184	6.91
824.491	6.88
824.799	6.9
825.107	7.07
825.414	7.1
825.722	7.19
826.029	7.12
826.337	7.07
826.644	7.27
826.951	7.18
827.259	7.32
827.566	7.44
827.873	7.59
828.18	7.69
828.488	7.84
828.795	7.71
829.102	7.7
829.409	7.67
829.716	7.9
830.023	8.08
830.329	8.58
830.636	8.53
830.943	8.45
831.25	8.57
831.557	8.12
831.863	8.2
832.17	8.13
832.476	8.22
832.783	8.68
833.089	8.25
833.396	8.17
833.702	7.52
834.009	7.79
834.315	7.74
834.621	7.73
834.928	7.38
835.234	7.82
835.54	7.91
835.846	7.87
836.152	8.03
836.458	7.69
836.764	7.57
837.07	8.18
837.376	8.25
837.682	7.91
837.988	8.04
838.293	8.12
838.599	8.31
838.905	8.81
839.211	8.42
839.516	9.11
839.822	9.33
840.127	9.79
840.433	9.52
840.738	9.54
841.044	10.38
841.349	10.86
841.654	10.69
841.959	10.46
842.265	10.56
842.57	9.88
842.875	9.35
843.18	8.72
843.485	7.59
843.79	7.39
844.095	7.89
844.4	8.12
844.705	8.67
845.01	8.33
845.315	6.55
845.619	6.09
845.924	5.36
846.229	4.34
846.533	4.55
846.838	5.15
847.142	4.22
847.447	3.75
847.751	5.02
848.056	5.66
848.36	5.74
848.664	6.95
848.969	6.9
849.273	8.3
849.577	9.52
849.881	10.08
850.185	11.87
850.489	12.42
850.794	13.86
851.097	12.75
851.401	12.22
851.705	14.22
852.009	14.45
852.313	12.43
852.617	12.04
852.92	12.75
853.224	11.6
853.528	13.13
853.831	13.88
854.135	12.57
854.438	13.27
854.742	13.54
855.045	11.87
855.349	12.26
855.652	11.44
855.955	10.88
856.259	11.98
856.562	10.78
856.865	10.4
857.168	9.03
857.471	10.04
857.774	11.46
858.077	10.5
858.38	13.11
858.683	15.61
858.986	16.5
859.289	15.57
859.592	17.17
859.894	15.62
860.197	14.35
860.5	15.26
860.802	15.26
861.105	15.98
861.407	18.17
861.71	17.6
862.012	19.5
862.315	21.22
862.617	20.36
862.919	20.97
863.222	21.49
863.524	19.88
863.826	17.67
864.128	17.52
864.43	18.57
864.732	17.04
865.034	17.43
865.336	16.3
865.638	16.37
865.94	16.61
866.242	18.43
866.544	18.71
866.846	19.87
867.147	21.04
867.449	21.3
867.751	19.64
868.052	18.31
868.354	19.41
868.655	18.01
868.957	18.22
869.258	15.77
869.56	15.67
869.861	17.58
870.162	19.64
870.463	19.91
870.765	18.87
871.066	16.28
871.367	15.69
871.668	17.63
871.969	18.87
872.27	18.61
872.571	19.31
872.872	17.88
873.173	15.66
873.473	13.9
873.774	15.44
874.075	15.09
874.376	16.85
874.676	14.07
874.977	15.29
875.277	15.21
875.578	17.41
875.878	17.35
876.179	17.46
876.479	17.68
876.78	17.03
877.08	17.87
877.38	21.92
877.68	22.18
877.981	22.23
878.281	21.35
878.581	19.84
