Data from BU26843_Reflection_00001.txt Node
Date: Mon Nov 18 16:30:52 EST 2019
User: vgr7
Spectrometer: USB2G7710
Scans to average: 3
Trigger mode: 4
Integration Time (sec): 2.000000E-2
Electric dark correction enabled: true
Boxcar width: 10
XAxis mode: Wavelengths
Number of Pixels in Spectrum: 2048
>>>>>Begin Spectral Data<<<<<
177.721	136.95
178.105	187.72
178.488	210.28
178.871	14.45
179.254	31.93
179.636	47.92
180.019	16.28
180.402	34.48
180.785	-61.95
181.168	-87.11
181.55	33.99
181.933	85.02
182.316	87.3
182.698	77.95
183.081	69.08
183.463	-25.41
183.846	-170.53
184.228	-100.65
184.611	30.67
184.993	38.7
185.376	10.51
185.758	85.69
186.14	-17.35
186.522	-67.26
186.904	-7.68
187.287	-35.18
187.669	13.85
188.051	-3.42
188.433	-6.7
188.815	-20.47
189.197	-33.47
189.579	-14.46
189.961	-6.59
190.342	-3.07
190.724	9.27
191.106	14.57
191.488	14.72
191.869	2.61
192.251	9.66
192.633	-3.3
193.014	-17.99
193.396	-29.16
193.777	-32.1
194.159	-23.03
194.54	-6.75
194.922	-8.55
195.303	-14.11
195.684	-21.79
196.065	-4.67
196.447	5.02
196.828	25.84
197.209	38.15
197.59	43.12
197.971	0.17
198.352	9.48
198.733	-1.58
199.114	-2.7
199.495	0.71
199.876	46.89
200.257	31.36
200.638	63.1
201.018	66.24
201.399	81.5
201.78	52.43
202.16	36.73
202.541	-10.95
202.922	-1.63
203.302	-12.11
203.683	-16.88
204.063	-46.22
204.444	-36.97
204.824	-60.86
205.204	-53.77
205.585	-99.28
205.965	-124.31
206.345	-184.53
206.725	-267.18
207.106	-308.11
207.486	-316.91
207.866	-266.59
208.246	-217.23
208.626	-175.59
209.006	-117.17
209.386	-139.19
209.766	-154.23
210.145	-123.66
210.525	-92.3
210.905	-79.75
211.285	-53.31
211.664	-45.66
212.044	-39.45
212.424	-30.61
212.803	-30.34
213.183	-37
213.562	-22.12
213.942	-19.32
214.321	-17.02
214.701	-16.03
215.08	-27.96
215.459	-21.35
215.838	-22.98
216.218	-24.87
216.597	-16.72
216.976	-24.52
217.355	-23.34
217.734	-20.22
218.113	-9.84
218.492	-11.93
218.871	-30.47
219.25	-44.33
219.629	-48.96
220.008	-45.04
220.387	-51.53
220.766	-48.54
221.144	-57.96
221.523	-63.7
221.902	-44.72
222.28	-61.25
222.659	-38.33
223.037	-22.33
223.416	-22.38
223.794	-15.14
224.173	-17.61
224.551	-12.36
224.929	-15.35
225.308	-9.24
225.686	-4.89
226.064	-6.12
226.442	0.76
226.821	3.97
227.199	4
227.577	3.13
227.955	6.05
228.333	5.53
228.711	5.88
229.089	7.63
229.467	8.41
229.845	2.94
230.222	8.25
230.6	5.82
230.978	6.55
231.356	8.02
231.733	6.08
232.111	6.23
232.488	6.19
232.866	7.49
233.243	7.69
233.621	6.29
233.998	7.75
234.376	4.85
234.753	5.07
235.13	7.18
235.508	7.23
235.885	4.68
236.262	3.71
236.639	4.52
237.016	5.42
237.393	5.67
237.77	5.77
238.147	4.89
238.524	4.87
238.901	4.62
239.278	4.37
239.655	4.72
240.032	4.49
240.409	3.44
240.785	3.1
241.162	3.5
241.539	3.66
241.915	3.12
242.292	3.45
242.668	3.37
243.045	3.26
243.421	3.45
243.798	3.42
244.174	3.55
244.551	3.33
244.927	3.23
245.303	3.32
245.679	3.41
246.056	3.33
246.432	3.09
246.808	3.04
247.184	2.95
247.56	2.76
247.936	2.82
248.312	2.74
248.688	2.75
249.064	2.33
249.44	2.35
249.815	2.53
250.191	2.55
250.567	2.73
250.943	2.71
251.318	2.54
251.694	2.77
252.069	2.65
252.445	2.72
252.82	2.81
253.196	2.65
253.571	2.72
253.947	2.51
254.322	2.81
254.697	2.85
255.073	2.66
255.448	2.58
255.823	2.58
256.198	3.01
256.573	2.96
256.948	3.5
257.323	3.48
257.698	3.39
258.073	3.46
258.448	3.42
258.823	3.28
259.198	3.27
259.573	3.13
259.948	3.41
260.322	3.35
260.697	3.11
261.072	2.93
261.446	2.77
261.821	2.84
262.195	2.96
262.57	2.99
262.944	3.13
263.319	3.32
263.693	3.34
264.067	3.22
264.442	3.33
264.816	3.23
265.19	3.13
265.564	3.2
265.938	3.19
266.313	3.25
266.687	3.47
267.061	3.55
267.435	3.74
267.809	3.62
268.183	3.86
268.556	3.99
268.93	4.22
269.304	4.28
269.678	4.21
270.051	4.04
270.425	4.06
270.799	4.14
271.172	4.09
271.546	4.15
271.919	4.06
272.293	4.23
272.666	4.15
273.04	4.26
273.413	4.2
273.787	4.09
274.16	4.17
274.533	4.13
274.906	4.11
275.279	4.09
275.653	3.97
276.026	3.8
276.399	3.89
276.772	3.96
277.145	3.94
277.518	4.06
277.891	4.05
278.263	3.91
278.636	3.68
279.009	3.71
279.382	3.85
279.755	4.1
280.127	4.11
280.5	4.11
280.872	4.03
281.245	3.98
281.617	4.11
281.99	3.9
282.362	3.96
282.735	3.94
283.107	3.95
283.479	4.12
283.852	4.12
284.224	4.01
284.596	3.94
284.968	4.08
285.34	4.05
285.713	4.04
286.085	4.12
286.457	4.26
286.829	4.25
287.201	4.19
287.572	4.01
287.944	3.8
288.316	3.82
288.688	3.96
289.06	4.06
289.431	3.97
289.803	4.1
290.175	3.96
290.546	4.09
290.918	4.12
291.289	4.03
291.661	4.02
292.032	4.16
292.403	4.11
292.775	4.01
293.146	3.96
293.517	4.1
293.889	4.13
294.26	4.08
294.631	4.05
295.002	3.98
295.373	4.06
295.744	4.21
296.115	4.17
296.486	4.04
296.857	3.98
297.228	4.16
297.599	4.2
297.97	4.27
298.34	4.32
298.711	4.3
299.082	4.2
299.452	4.2
299.823	4.12
300.194	4.19
300.564	4.26
300.935	4.34
301.305	4.36
301.676	4.38
302.046	4.49
302.416	4.48
302.787	4.54
303.157	4.61
303.527	4.5
303.897	4.51
304.267	4.79
304.637	4.83
305.008	4.73
305.378	4.68
305.748	4.59
306.117	4.31
306.487	4.36
306.857	4.45
307.227	4.42
307.597	4.42
307.967	4.34
308.336	4.19
308.706	4.14
309.076	4.08
309.445	3.96
309.815	3.83
310.184	3.72
310.554	3.63
310.923	3.56
311.293	3.61
311.662	3.59
312.031	3.41
312.401	3.37
312.77	3.38
313.139	3.36
313.508	3.46
313.877	3.51
314.246	3.57
314.616	3.48
314.985	3.51
315.353	3.51
315.722	3.53
316.091	3.61
316.46	3.58
316.829	3.56
317.198	3.64
317.567	3.66
317.935	3.86
318.304	4.01
318.672	4.02
319.041	4.07
319.41	4.02
319.778	3.95
320.147	4.02
320.515	3.82
320.883	3.8
321.252	3.87
321.62	3.98
321.988	3.77
322.357	3.82
322.725	3.72
323.093	3.68
323.461	3.74
323.829	3.77
324.197	3.91
324.565	3.94
324.933	3.92
325.301	3.95
325.669	3.9
326.037	3.75
326.405	3.8
326.772	3.8
327.14	3.93
327.508	3.98
327.875	3.79
328.243	3.89
328.61	3.91
328.978	3.95
329.346	3.94
329.713	3.94
330.08	4
330.448	4.02
330.815	3.97
331.182	3.95
331.55	4.02
331.917	4.05
332.284	4.11
332.651	4.08
333.018	4.07
333.385	4.19
333.752	4.33
334.119	4.28
334.486	4.26
334.853	4.19
335.22	4.12
335.587	4.24
335.954	4.25
336.32	4.15
336.687	4.06
337.054	4.01
337.42	4.07
337.787	4.13
338.153	4.17
338.52	4.21
338.886	4.21
339.253	4.11
339.619	4.08
339.986	3.98
340.352	4.06
340.718	4.04
341.084	3.87
341.451	3.84
341.817	3.87
342.183	3.8
342.549	3.83
342.915	4
343.281	3.92
343.647	3.89
344.013	4
344.379	3.93
344.745	3.99
345.11	3.95
345.476	3.9
345.842	3.87
346.208	3.86
346.573	3.84
346.939	3.9
347.304	3.84
347.67	3.79
348.035	3.74
348.401	3.68
348.766	3.76
349.132	3.74
349.497	3.73
349.862	3.89
350.228	3.89
350.593	3.72
350.958	3.78
351.323	3.9
351.688	3.9
352.053	3.95
352.418	3.92
352.783	4.03
353.148	4.04
353.513	4.03
353.878	4.02
354.243	4.09
354.608	4.03
354.972	4.05
355.337	3.99
355.702	4.05
356.066	4.15
356.431	4.13
356.795	4.18
357.16	4.12
357.524	4
357.889	3.99
358.253	4
358.618	4.05
358.982	3.99
359.346	3.89
359.71	3.88
360.075	3.83
360.439	3.78
360.803	3.76
361.167	3.77
361.531	3.8
361.895	3.73
362.259	3.72
362.623	3.71
362.987	3.78
363.351	3.76
363.714	3.78
364.078	3.77
364.442	3.7
364.806	3.8
365.169	3.81
365.533	3.81
365.896	3.82
366.26	3.76
366.623	3.75
366.987	3.86
367.35	3.93
367.714	4.04
368.077	4.02
368.44	4.1
368.803	4.08
369.167	4.05
369.53	4
369.893	4.06
370.256	4.11
370.619	4.13
370.982	4.13
371.345	4.09
371.708	4.12
372.071	4.13
372.434	3.98
372.797	3.99
373.159	3.91
373.522	3.93
373.885	3.93
374.247	4
374.61	3.95
374.973	3.89
375.335	3.86
375.698	3.85
376.06	3.75
376.423	3.77
376.785	3.79
377.147	3.87
377.51	3.82
377.872	3.8
378.234	3.73
378.596	3.71
378.958	3.66
379.321	3.65
379.683	3.68
380.045	3.72
380.407	3.72
380.769	3.8
381.13	3.79
381.492	3.8
381.854	3.82
382.216	3.75
382.578	3.77
382.939	3.75
383.301	3.75
383.663	3.75
384.024	3.7
384.386	3.72
384.747	3.71
385.109	3.72
385.47	3.7
385.832	3.75
386.193	3.81
386.554	3.83
386.916	3.8
387.277	3.78
387.638	3.82
387.999	3.75
388.36	3.7
388.721	3.74
389.082	3.73
389.443	3.66
389.804	3.7
390.165	3.67
390.526	3.65
390.887	3.67
391.248	3.71
391.609	3.75
391.969	3.76
392.33	3.75
392.691	3.72
393.051	3.7
393.412	3.69
393.772	3.65
394.133	3.65
394.493	3.65
394.854	3.64
395.214	3.62
395.574	3.65
395.935	3.68
396.295	3.65
396.655	3.65
397.015	3.66
397.376	3.68
397.736	3.69
398.096	3.69
398.456	3.67
398.816	3.67
399.176	3.65
399.535	3.64
399.895	3.65
400.255	3.66
400.615	3.67
400.975	3.68
401.334	3.68
401.694	3.7
402.054	3.7
402.413	3.71
402.773	3.7
403.132	3.7
403.492	3.69
403.851	3.71
404.211	3.73
404.57	3.7
404.929	3.69
405.288	3.71
405.648	3.68
406.007	3.69
406.366	3.7
406.725	3.72
407.084	3.72
407.443	3.75
407.802	3.79
408.161	3.8
408.52	3.77
408.879	3.79
409.238	3.77
409.596	3.78
409.955	3.81
410.314	3.82
410.673	3.82
411.031	3.8
411.39	3.77
411.748	3.76
412.107	3.79
412.465	3.78
412.824	3.76
413.182	3.82
413.54	3.83
413.899	3.8
414.257	3.77
414.615	3.76
414.974	3.74
415.332	3.72
415.69	3.72
416.048	3.73
416.406	3.73
416.764	3.74
417.122	3.75
417.48	3.73
417.838	3.75
418.195	3.75
418.553	3.75
418.911	3.77
419.269	3.77
419.626	3.77
419.984	3.78
420.342	3.79
420.699	3.79
421.057	3.8
421.414	3.79
421.772	3.8
422.129	3.8
422.486	3.8
422.844	3.8
423.201	3.79
423.558	3.79
423.915	3.78
424.273	3.77
424.63	3.76
424.987	3.76
425.344	3.76
425.701	3.76
426.058	3.77
426.415	3.77
426.772	3.77
427.128	3.77
427.485	3.79
427.842	3.77
428.199	3.76
428.555	3.74
428.912	3.74
429.269	3.76
429.625	3.76
429.982	3.77
430.338	3.78
430.695	3.79
431.051	3.78
431.407	3.78
431.764	3.8
432.12	3.82
432.476	3.81
432.832	3.78
433.189	3.8
433.545	3.79
433.901	3.78
434.257	3.78
434.613	3.77
434.969	3.76
435.325	3.77
435.681	3.77
436.036	3.76
436.392	3.78
436.748	3.77
437.104	3.75
437.459	3.74
437.815	3.73
438.171	3.74
438.526	3.76
438.882	3.77
439.237	3.78
439.593	3.79
439.948	3.79
440.304	3.79
440.659	3.78
441.014	3.78
441.369	3.77
441.725	3.77
442.08	3.78
442.435	3.77
442.79	3.78
443.145	3.77
443.5	3.78
443.855	3.77
444.21	3.76
444.565	3.77
444.92	3.8
445.275	3.78
445.629	3.79
445.984	3.78
446.339	3.76
446.693	3.75
447.048	3.72
447.403	3.74
447.757	3.75
448.112	3.78
448.466	3.78
448.82	3.79
449.175	3.79
449.529	3.78
449.883	3.78
450.238	3.78
450.592	3.8
450.946	3.79
451.3	3.79
451.654	3.79
452.008	3.79
452.362	3.76
452.716	3.79
453.07	3.77
453.424	3.78
453.778	3.78
454.132	3.76
454.486	3.77
454.839	3.77
455.193	3.75
455.547	3.73
455.9	3.74
456.254	3.75
456.607	3.74
456.961	3.73
457.314	3.73
457.668	3.71
458.021	3.7
458.375	3.7
458.728	3.74
459.081	3.74
459.434	3.72
459.787	3.74
460.141	3.73
460.494	3.74
460.847	3.75
461.2	3.77
461.553	3.78
461.906	3.8
462.259	3.79
462.611	3.81
462.964	3.82
463.317	3.81
463.67	3.81
464.022	3.82
464.375	3.83
464.728	3.85
465.08	3.85
465.433	3.85
465.785	3.84
466.138	3.81
466.49	3.81
466.843	3.83
467.195	3.81
467.547	3.81
467.899	3.82
468.252	3.8
468.604	3.78
468.956	3.77
469.308	3.78
469.66	3.78
470.012	3.78
470.364	3.78
470.716	3.8
471.068	3.8
471.42	3.81
471.772	3.83
472.123	3.84
472.475	3.85
472.827	3.87
473.178	3.88
473.53	3.89
473.882	3.91
474.233	3.9
474.585	3.92
474.936	3.91
475.288	3.9
475.639	3.95
475.99	3.95
476.342	3.95
476.693	3.96
477.044	3.99
477.395	3.99
477.746	3.99
478.097	3.98
478.448	3.96
478.8	3.96
479.15	3.93
479.501	3.92
479.852	3.92
480.203	3.93
480.554	3.95
480.905	3.95
481.255	3.95
481.606	3.95
481.957	3.95
482.307	3.97
482.658	3.97
483.009	3.96
483.359	3.96
483.709	3.97
484.06	3.95
484.41	3.95
484.761	3.95
485.111	3.96
485.461	3.96
485.811	3.97
486.162	3.97
486.512	3.97
486.862	3.98
487.212	3.98
487.562	3.98
487.912	3.98
488.262	3.97
488.612	3.98
488.961	3.99
489.311	3.99
489.661	3.98
490.011	3.99
490.36	3.99
490.71	3.99
491.06	4
491.409	3.99
491.759	4
492.108	3.99
492.458	3.98
492.807	3.98
493.157	3.98
493.506	3.99
493.855	4
494.204	4.01
494.554	4
494.903	3.99
495.252	3.99
495.601	3.99
495.95	3.98
496.299	3.96
496.648	3.98
496.997	3.99
497.346	4
497.695	4
498.043	4
498.392	4
498.741	4.02
499.09	4
499.438	4.02
499.787	4.03
500.135	4.04
500.484	4.05
500.832	4.05
501.181	4.05
501.529	4.05
501.878	4.08
502.226	4.09
502.574	4.1
502.923	4.14
503.271	4.15
503.619	4.16
503.967	4.15
504.315	4.14
504.663	4.13
505.011	4.13
505.359	4.13
505.707	4.15
506.055	4.18
506.403	4.21
506.751	4.24
507.098	4.24
507.446	4.25
507.794	4.25
508.141	4.24
508.489	4.24
508.837	4.25
509.184	4.25
509.531	4.26
509.879	4.29
510.226	4.29
510.574	4.3
510.921	4.29
511.268	4.31
511.616	4.33
511.963	4.35
512.31	4.37
512.657	4.39
513.004	4.39
513.351	4.38
513.698	4.37
514.045	4.36
514.392	4.37
514.739	4.37
515.086	4.39
515.432	4.4
515.779	4.4
516.126	4.39
516.473	4.39
516.819	4.39
517.166	4.37
517.512	4.38
517.859	4.4
518.205	4.39
518.552	4.4
518.898	4.38
519.245	4.38
519.591	4.36
519.937	4.35
520.283	4.36
520.629	4.34
520.976	4.34
521.322	4.36
521.668	4.35
522.014	4.36
522.36	4.36
522.706	4.38
523.052	4.38
523.398	4.38
523.743	4.38
524.089	4.39
524.435	4.4
524.781	4.4
525.126	4.39
525.472	4.41
525.817	4.42
526.163	4.43
526.509	4.43
526.854	4.43
527.199	4.44
527.545	4.44
527.89	4.46
528.235	4.47
528.581	4.47
528.926	4.48
529.271	4.48
529.616	4.47
529.961	4.46
530.306	4.48
530.651	4.49
530.996	4.5
531.341	4.51
531.686	4.52
532.031	4.53
532.376	4.54
532.721	4.56
533.065	4.55
533.41	4.55
533.755	4.56
534.099	4.58
534.444	4.58
534.788	4.59
535.133	4.58
535.477	4.58
535.822	4.57
536.166	4.57
536.51	4.59
536.855	4.59
537.199	4.6
537.543	4.6
537.887	4.61
538.231	4.61
538.576	4.6
538.92	4.62
539.264	4.63
539.608	4.64
539.951	4.64
540.295	4.62
540.639	4.63
540.983	4.64
541.327	4.65
541.671	4.65
542.014	4.64
542.358	4.66
542.701	4.67
543.045	4.68
543.389	4.7
543.732	4.7
544.075	4.7
544.419	4.71
544.762	4.72
545.105	4.72
545.449	4.73
545.792	4.73
546.135	4.72
546.478	4.73
546.821	4.72
547.165	4.69
547.508	4.72
547.851	4.73
548.194	4.72
548.536	4.72
548.879	4.74
549.222	4.75
549.565	4.73
549.908	4.74
550.25	4.74
550.593	4.75
550.936	4.73
551.278	4.75
551.621	4.76
551.963	4.74
552.306	4.72
552.648	4.73
552.991	4.74
553.333	4.76
553.675	4.73
554.017	4.76
554.36	4.79
554.702	4.78
555.044	4.77
555.386	4.78
555.728	4.77
556.07	4.78
556.412	4.77
556.754	4.78
557.096	4.76
557.438	4.75
557.78	4.72
558.121	4.75
558.463	4.77
558.805	4.77
559.147	4.8
559.488	4.84
559.83	4.81
560.171	4.82
560.513	4.82
560.854	4.84
561.196	4.8
561.537	4.8
561.878	4.8
562.22	4.82
562.561	4.82
562.902	4.81
563.243	4.83
563.584	4.84
563.925	4.88
564.266	4.88
564.607	4.9
564.948	4.89
565.289	4.9
565.63	4.89
565.971	4.88
566.312	4.88
566.653	4.84
566.993	4.83
567.334	4.82
567.675	4.83
568.015	4.83
568.356	4.84
568.696	4.88
569.037	4.89
569.377	4.9
569.718	4.9
570.058	4.93
570.398	4.91
570.739	4.89
571.079	4.88
571.419	4.9
571.759	4.9
572.099	4.9
572.439	4.88
572.779	4.87
573.119	4.87
573.459	4.9
573.799	4.93
574.139	4.94
574.479	4.94
574.819	4.94
575.158	4.93
575.498	4.92
575.838	4.91
576.177	4.87
576.517	4.88
576.856	4.87
577.196	4.84
577.535	4.85
577.875	4.85
578.214	4.86
578.553	4.85
578.893	4.85
579.232	4.87
579.571	4.87
579.91	4.88
580.25	4.87
580.589	4.82
580.928	4.86
581.267	4.87
581.606	4.85
581.945	4.86
582.283	4.85
582.622	4.88
582.961	4.88
583.3	4.94
583.639	4.91
583.977	4.9
584.316	4.87
584.654	4.87
584.993	4.92
585.332	4.93
585.67	4.92
586.008	4.92
586.347	4.89
586.685	4.9
587.024	4.9
587.362	4.94
587.7	4.96
588.038	4.97
588.376	5
588.715	5
589.053	5.02
589.391	5.04
589.729	5.03
590.067	5.04
590.404	5.04
590.742	5.07
591.08	5.06
591.418	5.1
591.756	5.07
592.093	5.06
592.431	5.07
592.769	5.08
593.106	5.07
593.444	5.06
593.781	5.07
594.119	5.09
594.456	5.05
594.793	5.03
595.131	4.98
595.468	5
595.805	5.01
596.143	4.96
596.48	4.96
596.817	4.99
597.154	4.98
597.491	4.97
597.828	4.97
598.165	4.98
598.502	4.98
598.839	5.02
599.176	5.01
599.512	4.98
599.849	5.01
600.186	5
600.523	5.04
600.859	5.08
601.196	5.11
601.532	5.11
601.869	5.12
602.205	5.18
602.542	5.17
602.878	5.15
603.215	5.18
603.551	5.24
603.887	5.21
604.223	5.2
604.56	5.23
604.896	5.23
605.232	5.24
605.568	5.27
605.904	5.24
606.24	5.28
606.576	5.29
606.912	5.27
607.248	5.29
607.583	5.3
607.919	5.28
608.255	5.24
608.591	5.27
608.926	5.32
609.262	5.32
609.597	5.31
609.933	5.32
610.268	5.33
610.604	5.27
610.939	5.27
611.275	5.25
611.61	5.24
611.945	5.24
612.281	5.22
612.616	5.2
612.951	5.23
613.286	5.24
613.621	5.23
613.956	5.25
614.291	5.26
614.626	5.27
614.961	5.24
615.296	5.27
615.631	5.24
615.966	5.18
616.3	5.16
616.635	5.17
616.97	5.18
617.304	5.17
617.639	5.24
617.973	5.27
618.308	5.31
618.642	5.29
618.977	5.31
619.311	5.33
619.646	5.32
619.98	5.3
620.314	5.25
620.648	5.29
620.983	5.32
621.317	5.3
621.651	5.29
621.985	5.36
622.319	5.39
622.653	5.37
622.987	5.4
623.321	5.38
623.655	5.42
623.988	5.48
624.322	5.46
624.656	5.45
624.99	5.46
625.323	5.44
625.657	5.43
625.99	5.48
626.324	5.46
626.657	5.48
626.991	5.51
627.324	5.54
627.658	5.54
627.991	5.52
628.324	5.56
628.657	5.56
628.991	5.54
629.324	5.53
629.657	5.56
629.99	5.53
630.323	5.55
630.656	5.52
630.989	5.48
631.322	5.49
631.655	5.48
631.987	5.48
632.32	5.54
632.653	5.53
632.986	5.5
633.318	5.53
633.651	5.54
633.984	5.52
634.316	5.54
634.649	5.49
634.981	5.47
635.313	5.42
635.646	5.43
635.978	5.41
636.31	5.43
636.643	5.45
636.975	5.55
637.307	5.52
637.639	5.55
637.971	5.56
638.303	5.54
638.635	5.52
638.967	5.49
639.299	5.52
639.631	5.51
639.963	5.41
640.295	5.44
640.626	5.48
640.958	5.53
641.29	5.5
641.621	5.53
641.953	5.53
642.285	5.62
642.616	5.66
642.948	5.68
643.279	5.66
643.61	5.66
643.942	5.54
644.273	5.6
644.604	5.5
644.936	5.43
645.267	5.51
645.598	5.54
645.929	5.59
646.26	5.55
646.591	5.6
646.922	5.65
647.253	5.64
647.584	5.57
647.915	5.56
648.245	5.58
648.576	5.62
648.907	5.67
649.238	5.6
649.568	5.6
649.899	5.59
650.229	5.62
650.56	5.66
650.89	5.74
651.221	5.74
651.551	5.82
651.882	5.89
652.212	5.88
652.542	5.86
652.872	5.81
653.203	5.75
653.533	5.77
653.863	5.82
654.193	5.87
654.523	5.9
654.853	5.93
655.183	5.92
655.513	5.92
655.843	5.87
656.172	5.92
656.502	5.94
656.832	5.98
657.162	6.04
657.491	6.01
657.821	6.02
658.15	5.98
658.48	6.03
658.809	6.01
659.139	5.98
659.468	5.95
659.798	5.99
660.127	6.01
660.456	6.06
660.785	6.07
661.115	6.01
661.444	5.99
661.773	6.01
662.102	5.98
662.431	6.02
662.76	6.07
663.089	6.07
663.418	6.05
663.747	6.03
664.076	6
664.404	5.99
664.733	6.06
665.062	6.04
665.39	5.99
665.719	6.04
666.048	6.15
666.376	6.17
666.705	6.18
667.033	6.19
667.362	6.17
667.69	6.09
668.018	6.11
668.347	6.18
668.675	6.17
669.003	6.22
669.331	6.23
669.659	6.23
669.987	6.23
670.315	6.27
670.643	6.29
670.971	6.3
671.299	6.37
671.627	6.27
671.955	6.27
672.283	6.35
672.61	6.35
672.938	6.26
673.266	6.33
673.593	6.43
673.921	6.5
674.249	6.53
674.576	6.58
674.904	6.62
675.231	6.62
675.558	6.64
675.886	6.71
676.213	6.66
676.54	6.66
676.867	6.71
677.195	6.61
677.522	6.56
677.849	6.57
678.176	6.5
678.503	6.42
678.83	6.42
679.157	6.29
679.484	6.28
679.81	6.32
680.137	6.29
680.464	6.22
680.791	6.13
681.117	6.09
681.444	6.17
681.771	6.19
682.097	6.13
682.424	6.1
682.75	5.96
683.077	5.95
683.403	5.97
683.729	5.92
684.056	5.96
684.382	6.01
684.708	5.95
685.034	5.94
685.36	6
685.686	6.11
686.012	6.08
686.339	6.17
686.664	6.17
686.99	6.19
687.316	6.15
687.642	6.3
687.968	6.29
688.294	6.27
688.619	6.28
688.945	6.29
689.271	6.32
689.596	6.4
689.922	6.43
690.247	6.38
690.573	6.41
690.898	6.44
691.224	6.41
691.549	6.48
691.874	6.61
692.2	6.63
692.525	6.59
692.85	6.8
693.175	6.77
693.5	6.71
693.825	6.84
694.15	6.8
694.475	6.65
694.8	6.69
695.125	6.6
695.45	6.58
695.775	6.71
696.099	6.7
696.424	6.77
696.749	6.7
697.073	6.73
697.398	6.75
697.723	6.78
698.047	6.72
698.372	6.68
698.696	6.69
699.02	6.71
699.345	6.67
699.669	6.62
699.993	6.51
700.318	6.58
700.642	6.5
700.966	6.62
701.29	6.69
701.614	6.66
701.938	6.68
702.262	6.75
702.586	6.72
702.91	6.65
703.234	6.65
703.557	6.75
703.881	6.74
704.205	6.65
704.529	6.54
704.852	6.73
705.176	6.73
705.499	6.65
705.823	6.61
706.146	6.69
706.47	6.62
706.793	6.71
707.117	6.82
707.44	6.78
707.763	6.75
708.086	6.72
708.409	6.88
708.733	6.96
709.056	6.93
709.379	6.99
709.702	6.99
710.025	7.01
710.348	6.95
710.671	6.98
710.993	7.05
711.316	7.14
711.639	7.17
711.962	7.28
712.284	7.28
712.607	7.31
712.93	7.51
713.252	7.63
713.575	7.8
713.897	7.7
714.22	7.86
714.542	7.83
714.864	7.76
715.187	7.74
715.509	7.73
715.831	7.83
716.153	7.8
716.475	7.9
716.798	7.92
717.12	7.98
717.442	7.92
717.764	7.9
718.085	7.91
718.407	7.83
718.729	7.64
719.051	7.76
719.373	7.81
719.695	7.66
720.016	7.74
720.338	7.57
720.659	7.67
720.981	7.43
721.302	7.38
721.624	7.54
721.945	7.49
722.267	7.44
722.588	7.31
722.909	7.41
723.231	7.41
723.552	7.36
723.873	7.37
724.194	7.35
724.515	7.41
724.836	7.38
725.157	7.43
725.478	7.62
725.799	7.63
726.12	7.6
726.441	7.54
726.762	7.56
727.083	7.44
727.403	7.28
727.724	7.51
728.045	7.64
728.365	7.7
728.686	7.82
729.006	7.93
729.327	7.9
729.647	7.75
729.967	7.8
730.288	7.92
730.608	7.92
730.928	7.87
731.249	7.83
731.569	8
731.889	8.17
732.209	8.11
732.529	8.1
732.849	8.16
733.169	8.09
733.489	7.94
733.809	8.11
734.129	8.2
734.448	8.07
734.768	8.16
735.088	8.07
735.408	8.05
735.727	8.16
736.047	8.24
736.366	8.29
736.686	8.25
737.005	8.13
737.325	8.26
737.644	8.41
737.963	8.42
738.283	8.19
738.602	7.85
738.921	7.91
739.24	8.04
739.56	8.07
739.879	8.19
740.198	8.33
740.517	8.23
740.836	8.43
741.155	8.47
741.473	8.35
741.792	8.28
742.111	8.37
742.43	8.26
742.748	8.05
743.067	8.09
743.386	8.13
743.704	8.1
744.023	8.11
744.341	8.23
744.66	8.71
744.978	8.69
745.297	8.86
745.615	8.8
745.933	8.58
746.252	8.65
746.57	8.65
746.888	8.49
747.206	8.42
747.524	8.45
747.842	8.59
748.16	8.67
748.478	9.06
748.796	8.86
749.114	9.04
749.432	9.01
749.749	8.98
750.067	9.04
750.385	9.17
750.703	9.08
751.02	8.82
751.338	8.42
751.655	8.39
751.973	8.52
752.29	8.64
752.608	8.73
752.925	8.64
753.242	8.78
753.56	8.91
753.877	9.09
754.194	9.06
754.511	9.11
754.828	8.96
755.145	8.81
755.462	8.83
755.779	8.51
756.096	8.66
756.413	8.78
756.73	8.87
757.047	8.82
757.364	8.78
757.68	8.9
757.997	8.96
758.314	8.99
758.63	8.95
758.947	8.94
759.264	9.02
759.58	9.17
759.896	8.94
760.213	8.86
760.529	8.93
760.846	8.86
761.162	8.77
761.478	9
761.794	8.8
762.11	8.81
762.426	9.13
762.743	9.35
763.059	9.21
763.375	9.31
763.69	9.43
764.006	9.33
764.322	9.45
764.638	9.48
764.954	9.84
765.27	9.76
765.585	9.62
765.901	9.83
766.216	9.91
766.532	9.91
766.848	10.03
767.163	10.12
767.478	10.23
767.794	10.33
768.109	10.21
768.424	10.35
768.74	10.56
769.055	10.67
769.37	10.72
769.685	10.77
770	10.51
770.315	10.38
770.63	10.3
770.945	10.47
771.26	10.92
771.575	10.67
771.89	10.77
772.205	10.78
772.52	10.44
772.834	10.42
773.149	10.43
773.464	10.2
773.778	9.97
774.093	9.63
774.407	9.43
774.722	9.45
775.036	9.85
775.351	9.68
775.665	9.42
775.979	9.43
776.293	9.46
776.608	9.49
776.922	9.71
777.236	9.93
777.55	9.86
777.864	9.47
778.178	9.53
778.492	9.5
778.806	9.47
779.12	9.63
779.434	9.34
779.747	9.63
780.061	10.14
780.375	10.43
780.689	10.64
781.002	10.96
781.316	10.98
781.629	10.63
781.943	10.74
782.256	10.57
782.57	10.24
782.883	10.55
783.196	10.56
783.51	10.18
783.823	10.52
784.136	10.21
784.449	10.17
784.762	9.9
785.075	10.28
785.388	10.52
785.701	10.49
786.014	10.52
786.327	10.25
786.64	9.85
786.953	9.81
787.266	9.51
787.578	9.37
787.891	9.74
788.204	9.88
788.516	9.95
788.829	10.02
789.141	10.08
789.454	9.99
789.766	10.06
790.079	10.71
790.391	10.57
790.703	10.76
791.016	10.32
791.328	10.72
791.64	10.36
791.952	10.43
792.264	9.77
792.576	9.63
792.888	9.71
793.2	9.82
793.512	9.44
793.824	9.74
794.136	9.84
794.448	9.73
794.76	9
795.071	8.6
795.383	8.45
795.695	8.58
796.006	8.95
796.318	8.76
796.629	8.67
796.941	8.56
797.252	8.94
797.564	9.57
797.875	8.96
798.186	8.91
798.497	8.92
798.809	9.48
799.12	9.87
799.431	10.04
799.742	10.25
800.053	11.03
800.364	11.45
800.675	11.46
800.986	10.95
801.297	11.49
801.608	11.54
801.918	11.79
802.229	11.76
802.54	11.18
802.851	11.1
803.161	10.81
803.472	10.81
803.782	10.61
804.093	10.58
804.403	11.35
804.714	11.25
805.024	11.01
805.334	11.08
805.645	11.11
805.955	10.93
806.265	10.83
806.575	10.57
806.885	10.06
807.195	10.47
807.505	11.09
807.815	11.6
808.125	11.44
808.435	11.01
808.745	10.76
809.055	10.95
809.365	11.42
809.674	11.61
809.984	11.87
810.294	11.91
810.603	11.56
810.913	11.87
811.222	12.61
811.532	13.12
811.841	13.26
812.151	14.13
812.46	14.73
812.769	14.52
813.079	15.04
813.388	15.14
813.697	15.2
814.006	14.91
814.315	14.8
814.624	15.18
814.933	16.48
815.242	16.87
815.551	16.93
815.86	17.14
816.169	16.52
816.478	16.03
816.786	15.7
817.095	16.05
817.404	15.4
817.712	14.72
818.021	14.52
818.33	14.61
818.638	13.64
818.947	13.34
819.255	13.95
819.563	13.08
819.872	12.99
820.18	12.91
820.488	12.8
820.796	12.68
821.105	12.8
821.413	12.64
821.721	12.62
822.029	12.74
822.337	12.83
822.645	12.89
822.953	13.14
823.26	13.18
823.568	13.16
823.876	13.15
824.184	13.21
824.491	13.17
824.799	13.06
825.107	13.16
825.414	13.18
825.722	12.93
826.029	13.07
826.337	13.04
826.644	13
826.951	13.04
827.259	13.12
827.566	13.08
827.873	13.04
828.18	13
828.488	12.99
828.795	12.92
829.102	13.03
829.409	12.82
829.716	12.57
830.023	12.51
830.329	12.6
830.636	12.73
830.943	12.59
831.25	12.93
831.557	12.78
831.863	12.81
832.17	13.03
832.476	13.19
832.783	13.72
833.089	13.92
833.396	14.36
833.702	14.88
834.009	14.82
834.315	14.61
834.621	14.62
834.928	14.47
835.234	14.15
835.54	14.23
835.846	14.31
836.152	14.64
836.458	14.68
836.764	14.53
837.07	14.4
837.376	14.31
837.682	13.98
837.988	14.18
838.293	14.37
838.599	14.27
838.905	13.88
839.211	13.4
839.516	13.36
839.822	13.37
840.127	12.58
840.433	12.55
840.738	12.33
841.044	12.25
841.349	12.07
841.654	11.74
841.959	11.28
842.265	11.82
842.57	12.42
842.875	12.76
843.18	13.43
843.485	13.31
843.79	14.8
844.095	15.15
844.4	16.3
844.705	16.08
845.01	17.02
845.315	17.63
845.619	17.63
845.924	17.32
846.229	18.25
846.533	18.48
846.838	19.68
847.142	21.13
847.447	21.08
847.751	22.23
848.056	22.96
848.36	22.58
848.664	22.07
848.969	21.74
849.273	21.08
849.577	20.59
849.881	21.56
850.185	19.5
850.489	20.31
850.794	17.32
851.097	17.22
851.401	16.55
851.705	15.5
852.009	16.98
852.313	17.52
852.617	14.89
852.92	14.47
853.224	15.2
853.528	15.73
853.831	16.44
854.135	15.88
854.438	16.17
854.742	16.39
855.045	16.59
855.349	17.19
855.652	15.64
855.955	16.46
856.259	15.96
856.562	16.78
856.865	15.62
857.168	17.25
857.471	16.36
857.774	15.94
858.077	17.89
858.38	16.05
858.683	13.54
858.986	14.98
859.289	15.52
859.592	14.58
859.894	14.12
860.197	13.02
860.5	12.23
860.802	11.48
861.105	14.06
861.407	12.89
861.71	11.93
862.012	13.67
862.315	12.97
862.617	12.52
862.919	11.45
863.222	10.67
863.524	10.92
863.826	10.51
864.128	10.93
864.43	10.21
864.732	10.3
865.034	11.55
865.336	11.47
865.638	14.08
865.94	11.07
866.242	10.11
866.544	11.84
866.846	11.75
867.147	11.97
867.449	9.95
867.751	11.46
868.052	13.92
868.354	14.69
868.655	15.32
868.957	15.12
869.258	16.14
869.56	16.17
869.861	12.75
870.162	14.55
870.463	15.8
870.765	15.1
871.066	17.4
871.367	17.96
871.668	16.46
871.969	13.73
872.27	15.28
872.571	15.88
872.872	17.59
873.173	16.82
873.473	19.27
873.774	20.9
874.075	21.62
874.376	18.6
874.676	19.14
874.977	17.58
875.277	17.15
875.578	19.44
875.878	20.54
876.179	23.24
876.479	23.3
876.78	21.75
877.08	23.16
877.38	21.4
877.68	21.65
877.981	23
878.281	23.3
878.581	25.47
