Data from BU26846_Reflection_00003.txt Node
Date: Mon Nov 18 16:33:23 EST 2019
User: vgr7
Spectrometer: USB2G7710
Scans to average: 3
Trigger mode: 4
Integration Time (sec): 2.000000E-2
Electric dark correction enabled: true
Boxcar width: 10
XAxis mode: Wavelengths
Number of Pixels in Spectrum: 2048
>>>>>Begin Spectral Data<<<<<
177.721	52.42
178.105	194.34
178.488	-709.16
178.871	58.6
179.254	33.27
179.636	-45.55
180.019	-8.57
180.402	100
180.785	-50.64
181.168	-225.09
181.55	-172.59
181.933	4.04
182.316	11.02
182.698	-21.83
183.081	-54.27
183.463	-95.91
183.846	-266.13
184.228	-247.25
184.611	-640.98
184.993	-2371.91
185.376	2306.19
185.758	-2998.59
186.14	-164.52
186.522	-146.04
186.904	-108.14
187.287	-45.79
187.669	-66.23
188.051	-38.02
188.433	-43.21
188.815	-30.54
189.197	2.08
189.579	10.47
189.961	68.57
190.342	37.68
190.724	-108.42
191.106	1260.31
191.488	306.04
191.869	36.47
192.251	81.09
192.633	77.54
193.014	88.15
193.396	48.81
193.777	31.05
194.159	32.85
194.54	14.93
194.922	36.79
195.303	21.54
195.684	12.85
196.065	-66.8
196.447	-62.88
196.828	-55.71
197.209	-90.36
197.59	-112.16
197.971	-88.68
198.352	-121.89
198.733	-57.6
199.114	-96.84
199.495	-153.56
199.876	481.91
200.257	337.53
200.638	236.77
201.018	266.46
201.399	118.96
201.78	66.61
202.16	63.96
202.541	27.16
202.922	30.88
203.302	3.49
203.683	27.25
204.063	-20.99
204.444	-11.08
204.824	-6.91
205.204	-5.79
205.585	-16.54
205.965	-29.01
206.345	-53.85
206.725	-50.46
207.106	-48.37
207.486	-80.35
207.866	-110.46
208.246	-184.22
208.626	-180.4
209.006	-122.07
209.386	-163.04
209.766	-230.67
210.145	-186.58
210.525	-181.28
210.905	-92.77
211.285	-61.22
211.664	-91.09
212.044	-45.11
212.424	-37.61
212.803	-6.95
213.183	-14.66
213.562	-21.26
213.942	82.21
214.321	114.88
214.701	113.39
215.08	202.19
215.459	332.34
215.838	184.15
216.218	170.46
216.597	196.81
216.976	128.96
217.355	114.88
217.734	85.2
218.113	134.66
218.492	267.61
218.871	5397.3
219.25	254.01
219.629	719.72
220.008	-1325.15
220.387	5883.78
220.766	228.73
221.144	1739.34
221.523	-781.99
221.902	-78.27
222.28	407.69
222.659	-119.78
223.037	-52.12
223.416	-80.46
223.794	-105.01
224.173	-65.14
224.551	-36.12
224.929	-41.16
225.308	-42.71
225.686	-32.36
226.064	-24.84
226.442	-23.77
226.821	-18.58
227.199	-16.75
227.577	-16.08
227.955	-17.04
228.333	-16.65
228.711	-14.29
229.089	-9.55
229.467	-14
229.845	-9.33
230.222	-2.76
230.6	-2.3
230.978	-0.52
231.356	2.38
231.733	3.8
232.111	4
232.488	2.77
232.866	6.88
233.243	7.89
233.621	7.38
233.998	8.85
234.376	9.74
234.753	11.82
235.13	13.16
235.508	14.91
235.885	16.27
236.262	13.59
236.639	13.53
237.016	13.39
237.393	15.65
237.77	13.86
238.147	12.06
238.524	10.62
238.901	10.16
239.278	9.64
239.655	9.86
240.032	10.24
240.409	10.42
240.785	8.99
241.162	8.69
241.539	8.37
241.915	7.61
242.292	6.86
242.668	6.35
243.045	5.55
243.421	5.29
243.798	5.09
244.174	5.3
244.551	5.24
244.927	4.87
245.303	4.71
245.679	4.61
246.056	4.5
246.432	4.62
246.808	4.65
247.184	4.39
247.56	4.13
247.936	3.76
248.312	3.83
248.688	3.83
249.064	3.85
249.44	3.9
249.815	4.12
250.191	4.17
250.567	4.26
250.943	4.17
251.318	4.13
251.694	4.01
252.069	3.89
252.445	3.96
252.82	4.19
253.196	4.06
253.571	4.41
253.947	4.64
254.322	4.94
254.697	4.43
255.073	4.48
255.448	4.5
255.823	4.49
256.198	4.41
256.573	4.57
256.948	4.76
257.323	4.89
257.698	4.61
258.073	4.61
258.448	4.46
258.823	4.65
259.198	4.6
259.573	4.7
259.948	4.83
260.322	4.88
260.697	4.77
261.072	4.7
261.446	4.58
261.821	4.37
262.195	4.18
262.57	4.32
262.944	4.37
263.319	4.41
263.693	4.53
264.067	4.53
264.442	4.66
264.816	4.57
265.19	4.34
265.564	4.36
265.938	4.35
266.313	4.25
266.687	4.24
267.061	4.37
267.435	4.5
267.809	4.25
268.183	3.98
268.556	3.98
268.93	4.04
269.304	4.03
269.678	4.17
270.051	4.3
270.425	4.34
270.799	4.26
271.172	4.24
271.546	4.11
271.919	4.05
272.293	3.8
272.666	3.85
273.04	3.88
273.413	3.91
273.787	3.94
274.16	4.01
274.533	3.94
274.906	3.76
275.279	3.6
275.653	3.76
276.026	3.88
276.399	3.93
276.772	3.97
277.145	3.86
277.518	3.86
277.891	3.81
278.263	3.82
278.636	3.78
279.009	3.87
279.382	4.02
279.755	4.01
280.127	4.27
280.5	4.28
280.872	4.31
281.245	4.24
281.617	4.34
281.99	4.41
282.362	4.45
282.735	4.52
283.107	4.52
283.479	4.49
283.852	4.5
284.224	4.47
284.596	4.43
284.968	4.61
285.34	4.65
285.713	4.73
286.085	4.81
286.457	4.86
286.829	4.79
287.201	4.84
287.572	4.79
287.944	4.6
288.316	4.62
288.688	4.56
289.06	4.61
289.431	4.51
289.803	4.51
290.175	4.46
290.546	4.56
290.918	4.71
291.289	4.77
291.661	4.88
292.032	4.91
292.403	5.01
292.775	4.88
293.146	4.83
293.517	4.86
293.889	4.73
294.26	4.69
294.631	4.7
295.002	4.57
295.373	4.66
295.744	4.8
296.115	4.83
296.486	4.87
296.857	4.91
297.228	5.01
297.599	5.01
297.97	5.05
298.34	4.99
298.711	4.99
299.082	5
299.452	4.99
299.823	5
300.194	4.94
300.564	4.93
300.935	5.02
301.305	4.86
301.676	4.89
302.046	5.05
302.416	5.09
302.787	5.19
303.157	5.23
303.527	5.18
303.897	5.21
304.267	5.27
304.637	5.28
305.008	5.22
305.378	5.38
305.748	5.39
306.117	5.37
306.487	5.36
306.857	5.35
307.227	5.41
307.597	5.33
307.967	5.41
308.336	5.44
308.706	5.34
309.076	5.37
309.445	5.43
309.815	5.38
310.184	5.35
310.554	5.37
310.923	5.3
311.293	5.29
311.662	5.21
312.031	5.28
312.401	5.31
312.77	5.33
313.139	5.22
313.508	5.3
313.877	5.39
314.246	5.29
314.616	5.28
314.985	5.13
315.353	5.17
315.722	5.18
316.091	5.16
316.46	5.12
316.829	5.07
317.198	5.04
317.567	4.96
317.935	5.01
318.304	4.96
318.672	4.89
319.041	4.89
319.41	4.95
319.778	4.74
320.147	4.7
320.515	4.71
320.883	4.75
321.252	4.86
321.62	4.8
321.988	4.98
322.357	5.02
322.725	5.02
323.093	5.1
323.461	5.03
323.829	5.03
324.197	5.13
324.565	5.26
324.933	5.23
325.301	5.38
325.669	5.31
326.037	5.35
326.405	5.44
326.772	5.5
327.14	5.47
327.508	5.56
327.875	5.46
328.243	5.53
328.61	5.45
328.978	5.34
329.346	5.47
329.713	5.33
330.08	5.26
330.448	5.32
330.815	5.27
331.182	5.29
331.55	5.41
331.917	5.28
332.284	5.2
332.651	5.21
333.018	5.22
333.385	5.3
333.752	5.23
334.119	5.29
334.486	5.2
334.853	5.12
335.22	5.09
335.587	5.21
335.954	5.08
336.32	5.04
336.687	4.98
337.054	4.85
337.42	4.86
337.787	4.96
338.153	4.91
338.52	4.9
338.886	4.87
339.253	4.75
339.619	4.85
339.986	4.96
340.352	5.02
340.718	4.83
341.084	4.76
341.451	4.74
341.817	4.67
342.183	4.72
342.549	4.76
342.915	4.76
343.281	4.75
343.647	4.75
344.013	4.76
344.379	4.75
344.745	4.78
345.11	4.86
345.476	4.76
345.842	4.82
346.208	4.91
346.573	4.94
346.939	5.02
347.304	5.01
347.67	4.98
348.035	4.91
348.401	4.98
348.766	5
349.132	4.95
349.497	4.94
349.862	4.96
350.228	4.99
350.593	4.92
350.958	4.85
351.323	4.95
351.688	4.93
352.053	5.01
352.418	4.99
352.783	4.96
353.148	4.94
353.513	4.97
353.878	4.81
354.243	4.94
354.608	4.99
354.972	4.95
355.337	4.98
355.702	5.07
356.066	5.07
356.431	5.01
356.795	5.16
357.16	5.16
357.524	5.1
357.889	5.03
358.253	5.09
358.618	5.11
358.982	5.01
359.346	5.01
359.71	4.94
360.075	4.98
360.439	4.98
360.803	5.03
361.167	4.96
361.531	5.05
361.895	4.94
362.259	4.87
362.623	4.92
362.987	4.89
363.351	4.86
363.714	4.9
364.078	4.94
364.442	4.85
364.806	4.88
365.169	4.89
365.533	4.9
365.896	4.95
366.26	4.98
366.623	5
366.987	5.01
367.35	5.06
367.714	5.03
368.077	5
368.44	5.03
368.803	5.03
369.167	4.96
369.53	4.92
369.893	5
370.256	5.04
370.619	5.07
370.982	5.02
371.345	5
371.708	5.01
372.071	5
372.434	4.93
372.797	4.93
373.159	4.92
373.522	4.87
373.885	4.89
374.247	4.95
374.61	4.97
374.973	4.97
375.335	4.99
375.698	4.98
376.06	4.96
376.423	4.93
376.785	4.97
377.147	5.08
377.51	5.07
377.872	5.07
378.234	5.05
378.596	5.08
378.958	5.06
379.321	5.09
379.683	5.14
380.045	5.16
380.407	5.14
380.769	5.17
381.13	5.17
381.492	5.11
381.854	5.06
382.216	5.09
382.578	5.05
382.939	5.02
383.301	5.04
383.663	4.98
384.024	5.02
384.386	4.99
384.747	4.93
385.109	4.93
385.47	4.89
385.832	4.87
386.193	4.87
386.554	4.9
386.916	4.87
387.277	4.87
387.638	4.93
387.999	4.91
388.36	4.94
388.721	4.97
389.082	5
389.443	5.02
389.804	5.02
390.165	5.01
390.526	5.06
390.887	5.05
391.248	5.09
391.609	5.08
391.969	5.1
392.33	5.11
392.691	5.1
393.051	5.09
393.412	5.08
393.772	5.07
394.133	5.06
394.493	5.05
394.854	5.03
395.214	4.99
395.574	5.03
395.935	4.99
396.295	5
396.655	5.01
397.015	5.02
397.376	5.01
397.736	5.02
398.096	5.05
398.456	5.07
398.816	5.06
399.176	5.12
399.535	5.12
399.895	5.12
400.255	5.13
400.615	5.19
400.975	5.22
401.334	5.24
401.694	5.28
402.054	5.29
402.413	5.3
402.773	5.3
403.132	5.3
403.492	5.31
403.851	5.29
404.211	5.28
404.57	5.26
404.929	5.27
405.288	5.27
405.648	5.23
406.007	5.21
406.366	5.2
406.725	5.14
407.084	5.18
407.443	5.19
407.802	5.18
408.161	5.15
408.52	5.13
408.879	5.1
409.238	5.08
409.596	5.1
409.955	5.11
410.314	5.12
410.673	5.12
411.031	5.13
411.39	5.12
411.748	5.13
412.107	5.14
412.465	5.15
412.824	5.16
413.182	5.15
413.54	5.15
413.899	5.2
414.257	5.23
414.615	5.22
414.974	5.22
415.332	5.22
415.69	5.21
416.048	5.21
416.406	5.22
416.764	5.2
417.122	5.18
417.48	5.17
417.838	5.17
418.195	5.16
418.553	5.17
418.911	5.18
419.269	5.18
419.626	5.18
419.984	5.19
420.342	5.19
420.699	5.18
421.057	5.2
421.414	5.16
421.772	5.15
422.129	5.15
422.486	5.14
422.844	5.14
423.201	5.15
423.558	5.15
423.915	5.15
424.273	5.17
424.63	5.17
424.987	5.17
425.344	5.17
425.701	5.19
426.058	5.17
426.415	5.17
426.772	5.17
427.128	5.18
427.485	5.18
427.842	5.16
428.199	5.19
428.555	5.18
428.912	5.19
429.269	5.21
429.625	5.19
429.982	5.18
430.338	5.19
430.695	5.21
431.051	5.19
431.407	5.19
431.764	5.2
432.12	5.22
432.476	5.19
432.832	5.19
433.189	5.19
433.545	5.19
433.901	5.18
434.257	5.17
434.613	5.17
434.969	5.16
435.325	5.17
435.681	5.17
436.036	5.17
436.392	5.19
436.748	5.19
437.104	5.21
437.459	5.22
437.815	5.21
438.171	5.22
438.526	5.24
438.882	5.23
439.237	5.23
439.593	5.21
439.948	5.24
440.304	5.25
440.659	5.25
441.014	5.27
441.369	5.27
441.725	5.28
442.08	5.28
442.435	5.28
442.79	5.28
443.145	5.26
443.5	5.26
443.855	5.27
444.21	5.27
444.565	5.27
444.92	5.28
445.275	5.27
445.629	5.26
445.984	5.26
446.339	5.26
446.693	5.24
447.048	5.23
447.403	5.21
447.757	5.2
448.112	5.2
448.466	5.19
448.82	5.2
449.175	5.18
449.529	5.19
449.883	5.18
450.238	5.18
450.592	5.19
450.946	5.2
451.3	5.18
451.654	5.17
452.008	5.18
452.362	5.16
452.716	5.18
453.07	5.18
453.424	5.19
453.778	5.21
454.132	5.21
454.486	5.22
454.839	5.23
455.193	5.24
455.547	5.23
455.9	5.24
456.254	5.23
456.607	5.24
456.961	5.25
457.314	5.25
457.668	5.24
458.021	5.26
458.375	5.25
458.728	5.28
459.081	5.27
459.434	5.26
459.787	5.26
460.141	5.26
460.494	5.25
460.847	5.24
461.2	5.23
461.553	5.25
461.906	5.26
462.259	5.28
462.611	5.29
462.964	5.29
463.317	5.29
463.67	5.3
464.022	5.3
464.375	5.29
464.728	5.31
465.08	5.33
465.433	5.33
465.785	5.33
466.138	5.31
466.49	5.33
466.843	5.33
467.195	5.32
467.547	5.32
467.899	5.34
468.252	5.34
468.604	5.36
468.956	5.34
469.308	5.35
469.66	5.32
470.012	5.34
470.364	5.35
470.716	5.36
471.068	5.37
471.42	5.37
471.772	5.39
472.123	5.38
472.475	5.39
472.827	5.39
473.178	5.4
473.53	5.39
473.882	5.4
474.233	5.4
474.585	5.41
474.936	5.39
475.288	5.39
475.639	5.4
475.99	5.4
476.342	5.39
476.693	5.38
477.044	5.42
477.395	5.4
477.746	5.39
478.097	5.39
478.448	5.38
478.8	5.38
479.15	5.37
479.501	5.39
479.852	5.39
480.203	5.4
480.554	5.41
480.905	5.44
481.255	5.43
481.606	5.44
481.957	5.45
482.307	5.47
482.658	5.47
483.009	5.49
483.359	5.51
483.709	5.53
484.06	5.52
484.41	5.52
484.761	5.53
485.111	5.54
485.461	5.54
485.811	5.54
486.162	5.54
486.512	5.55
486.862	5.54
487.212	5.55
487.562	5.55
487.912	5.55
488.262	5.56
488.612	5.56
488.961	5.57
489.311	5.58
489.661	5.58
490.011	5.58
490.36	5.57
490.71	5.55
491.06	5.55
491.409	5.56
491.759	5.54
492.108	5.54
492.458	5.53
492.807	5.52
493.157	5.53
493.506	5.55
493.855	5.55
494.204	5.56
494.554	5.56
494.903	5.54
495.252	5.53
495.601	5.53
495.95	5.51
496.299	5.51
496.648	5.5
496.997	5.5
497.346	5.52
497.695	5.53
498.043	5.52
498.392	5.52
498.741	5.51
499.09	5.52
499.438	5.54
499.787	5.55
500.135	5.57
500.484	5.58
500.832	5.56
501.181	5.55
501.529	5.54
501.878	5.56
502.226	5.57
502.574	5.57
502.923	5.56
503.271	5.57
503.619	5.57
503.967	5.59
504.315	5.6
504.663	5.58
505.011	5.58
505.359	5.61
505.707	5.63
506.055	5.64
506.403	5.66
506.751	5.64
507.098	5.62
507.446	5.64
507.794	5.62
508.141	5.63
508.489	5.66
508.837	5.68
509.184	5.67
509.531	5.69
509.879	5.71
510.226	5.73
510.574	5.74
510.921	5.73
511.268	5.72
511.616	5.75
511.963	5.77
512.31	5.77
512.657	5.79
513.004	5.79
513.351	5.81
513.698	5.81
514.045	5.8
514.392	5.84
514.739	5.84
515.086	5.85
515.432	5.85
515.779	5.82
516.126	5.82
516.473	5.82
516.819	5.84
517.166	5.83
517.512	5.84
517.859	5.84
518.205	5.84
518.552	5.85
518.898	5.82
519.245	5.8
519.591	5.78
519.937	5.77
520.283	5.75
520.629	5.75
520.976	5.76
521.322	5.78
521.668	5.77
522.014	5.77
522.36	5.76
522.706	5.79
523.052	5.81
523.398	5.83
523.743	5.83
524.089	5.83
524.435	5.84
524.781	5.84
525.126	5.86
525.472	5.88
525.817	5.89
526.163	5.9
526.509	5.93
526.854	5.96
527.199	5.97
527.545	5.98
527.89	5.99
528.235	5.99
528.581	6
528.926	5.99
529.271	6
529.616	6
529.961	5.99
530.306	6
530.651	6
530.996	6.01
531.341	6
531.686	6.01
532.031	6.02
532.376	6.01
532.721	6.02
533.065	6.03
533.41	6.03
533.755	6.03
534.099	6.01
534.444	6.01
534.788	6
535.133	6
535.477	5.99
535.822	5.99
536.166	6
536.51	6
536.855	6.02
537.199	6.04
537.543	6.05
537.887	6.05
538.231	6.04
538.576	6.07
538.92	6.07
539.264	6.08
539.608	6.09
539.951	6.08
540.295	6.09
540.639	6.1
540.983	6.1
541.327	6.11
541.671	6.1
542.014	6.11
542.358	6.11
542.701	6.11
543.045	6.11
543.389	6.12
543.732	6.12
544.075	6.12
544.419	6.13
544.762	6.12
545.105	6.12
545.449	6.12
545.792	6.1
546.135	6.11
546.478	6.11
546.821	6.09
547.165	6.08
547.508	6.07
547.851	6.06
548.194	6.05
548.536	6.05
548.879	6.09
549.222	6.09
549.565	6.12
549.908	6.13
550.25	6.14
550.593	6.13
550.936	6.13
551.278	6.15
551.621	6.15
551.963	6.2
552.306	6.22
552.648	6.24
552.991	6.29
553.333	6.28
553.675	6.29
554.017	6.32
554.36	6.33
554.702	6.35
555.044	6.35
555.386	6.37
555.728	6.37
556.07	6.34
556.412	6.32
556.754	6.31
557.096	6.32
557.438	6.31
557.78	6.33
558.121	6.37
558.463	6.36
558.805	6.35
559.147	6.31
559.488	6.28
559.83	6.28
560.171	6.25
560.513	6.3
560.854	6.26
561.196	6.23
561.537	6.24
561.878	6.23
562.22	6.24
562.561	6.2
562.902	6.22
563.243	6.23
563.584	6.23
563.925	6.21
564.266	6.21
564.607	6.21
564.948	6.19
565.289	6.16
565.63	6.2
565.971	6.17
566.312	6.17
566.653	6.2
566.993	6.19
567.334	6.18
567.675	6.18
568.015	6.22
568.356	6.23
568.696	6.25
569.037	6.26
569.377	6.26
569.718	6.31
570.058	6.31
570.398	6.32
570.739	6.34
571.079	6.38
571.419	6.4
571.759	6.4
572.099	6.41
572.439	6.43
572.779	6.41
573.119	6.44
573.459	6.47
573.799	6.47
574.139	6.47
574.479	6.48
574.819	6.47
575.158	6.45
575.498	6.46
575.838	6.46
576.177	6.44
576.517	6.44
576.856	6.46
577.196	6.44
577.535	6.42
577.875	6.43
578.214	6.41
578.553	6.42
578.893	6.46
579.232	6.47
579.571	6.5
579.91	6.47
580.25	6.48
580.589	6.45
580.928	6.46
581.267	6.5
581.606	6.53
581.945	6.53
582.283	6.53
582.622	6.57
582.961	6.58
583.3	6.59
583.639	6.6
583.977	6.6
584.316	6.59
584.654	6.62
584.993	6.6
585.332	6.59
585.67	6.58
586.008	6.52
586.347	6.52
586.685	6.51
587.024	6.55
587.362	6.52
587.7	6.55
588.038	6.57
588.376	6.56
588.715	6.56
589.053	6.61
589.391	6.69
589.729	6.71
590.067	6.67
590.404	6.7
590.742	6.69
591.08	6.68
591.418	6.71
591.756	6.72
592.093	6.72
592.431	6.73
592.769	6.73
593.106	6.77
593.444	6.77
593.781	6.76
594.119	6.75
594.456	6.78
594.793	6.79
595.131	6.78
595.468	6.76
595.805	6.78
596.143	6.76
596.48	6.73
596.817	6.73
597.154	6.73
597.491	6.73
597.828	6.72
598.165	6.75
598.502	6.74
598.839	6.75
599.176	6.76
599.512	6.78
599.849	6.79
600.186	6.78
600.523	6.81
600.859	6.84
601.196	6.84
601.532	6.82
601.869	6.83
602.205	6.84
602.542	6.87
602.878	6.85
603.215	6.88
603.551	6.89
603.887	6.88
604.223	6.91
604.56	6.92
604.896	6.93
605.232	6.93
605.568	6.96
605.904	6.95
606.24	7
606.576	6.99
606.912	7.03
607.248	7.04
607.583	7.05
607.919	7.05
608.255	7.04
608.591	7.11
608.926	7.09
609.262	7.11
609.597	7.12
609.933	7.13
610.268	7.09
610.604	7.04
610.939	7.01
611.275	7.03
611.61	7.02
611.945	7.05
612.281	7.02
612.616	7
612.951	7
613.286	6.98
613.621	6.98
613.956	6.94
614.291	6.97
614.626	6.96
614.961	6.94
615.296	6.92
615.631	6.86
615.966	6.86
616.3	6.84
616.635	6.86
616.97	6.85
617.304	6.88
617.639	6.92
617.973	6.91
618.308	6.87
618.642	6.91
618.977	6.91
619.311	6.94
619.646	7.04
619.98	7.07
620.314	7.09
620.648	7.07
620.983	7.09
621.317	7.06
621.651	7.04
621.985	7.05
622.319	7.06
622.653	7.06
622.987	7.08
623.321	7.08
623.655	7.06
623.988	7.11
624.322	7.12
624.656	7.11
624.99	7.19
625.323	7.23
625.657	7.24
625.99	7.24
626.324	7.23
626.657	7.2
626.991	7.19
627.324	7.17
627.658	7.23
627.991	7.22
628.324	7.24
628.657	7.26
628.991	7.27
629.324	7.32
629.657	7.37
629.99	7.39
630.323	7.41
630.656	7.41
630.989	7.41
631.322	7.41
631.655	7.43
631.987	7.44
632.32	7.41
632.653	7.4
632.986	7.44
633.318	7.47
633.651	7.42
633.984	7.42
634.316	7.42
634.649	7.4
634.981	7.43
635.313	7.45
635.646	7.46
635.978	7.47
636.31	7.45
636.643	7.44
636.975	7.41
637.307	7.38
637.639	7.38
637.971	7.38
638.303	7.36
638.635	7.33
638.967	7.31
639.299	7.39
639.631	7.39
639.963	7.39
640.295	7.34
640.626	7.4
640.958	7.45
641.29	7.45
641.621	7.46
641.953	7.45
642.285	7.46
642.616	7.44
642.948	7.45
643.279	7.46
643.61	7.49
643.942	7.55
644.273	7.62
644.604	7.65
644.936	7.58
645.267	7.61
645.598	7.62
645.929	7.62
646.26	7.65
646.591	7.68
646.922	7.65
647.253	7.74
647.584	7.71
647.915	7.68
648.245	7.71
648.576	7.76
648.907	7.79
649.238	7.78
649.568	7.83
649.899	7.86
650.229	7.88
650.56	7.82
650.89	7.8
651.221	7.81
651.551	7.78
651.882	7.9
652.212	7.92
652.542	7.98
652.872	7.97
653.203	7.89
653.533	7.91
653.863	7.86
654.193	7.85
654.523	7.87
654.853	7.82
655.183	7.83
655.513	7.79
655.843	7.81
656.172	7.79
656.502	7.83
656.832	7.82
657.162	7.82
657.491	7.84
657.821	7.84
658.15	7.8
658.48	7.78
658.809	7.81
659.139	7.79
659.468	7.81
659.798	7.81
660.127	7.85
660.456	7.84
660.785	7.85
661.115	7.82
661.444	7.81
661.773	7.9
662.102	7.85
662.431	7.93
662.76	7.92
663.089	7.92
663.418	7.91
663.747	7.93
664.076	7.97
664.404	7.95
664.733	8.04
665.062	8.09
665.39	8.14
665.719	8.05
666.048	8.09
666.376	8.06
666.705	8.08
667.033	8.03
667.362	8.07
667.69	8.1
668.018	8.17
668.347	8.22
668.675	8.19
669.003	8.26
669.331	8.22
669.659	8.24
669.987	8.27
670.315	8.22
670.643	8.19
670.971	8.18
671.299	8.26
671.627	8.17
671.955	8.15
672.283	8.2
672.61	8.25
672.938	8.27
673.266	8.36
673.593	8.48
673.921	8.54
674.249	8.54
674.576	8.6
674.904	8.59
675.231	8.53
675.558	8.56
675.886	8.61
676.213	8.57
676.54	8.56
676.867	8.6
677.195	8.6
677.522	8.61
677.849	8.56
678.176	8.56
678.503	8.61
678.83	8.59
679.157	8.53
679.484	8.56
679.81	8.57
680.137	8.5
680.464	8.38
680.791	8.4
681.117	8.37
681.444	8.36
681.771	8.42
682.097	8.47
682.424	8.51
682.75	8.44
683.077	8.49
683.403	8.5
683.729	8.55
684.056	8.56
684.382	8.55
684.708	8.63
685.034	8.67
685.36	8.75
685.686	8.82
686.012	8.84
686.339	8.78
686.664	8.8
686.99	8.8
687.316	8.81
687.642	8.8
687.968	8.74
688.294	8.77
688.619	8.74
688.945	8.73
689.271	8.69
689.596	8.69
689.922	8.73
690.247	8.69
690.573	8.67
690.898	8.69
691.224	8.78
691.549	8.73
691.874	8.63
692.2	8.56
692.525	8.53
692.85	8.61
693.175	8.64
693.5	8.57
693.825	8.61
694.15	8.63
694.475	8.7
694.8	8.79
695.125	8.73
695.45	8.7
695.775	8.78
696.099	8.73
696.424	8.75
696.749	8.63
697.073	8.63
697.398	8.69
697.723	8.68
698.047	8.75
698.372	8.76
698.696	8.82
699.02	8.73
699.345	8.75
699.669	8.77
699.993	8.74
700.318	8.79
700.642	8.82
700.966	8.82
701.29	8.81
701.614	8.77
701.938	8.81
702.262	8.94
702.586	8.89
702.91	8.97
703.234	9.02
703.557	9.16
703.881	9.18
704.205	9.1
704.529	9.08
704.852	8.99
705.176	9
705.499	8.98
705.823	9.15
706.146	9.12
706.47	9.17
706.793	9.23
707.117	9.29
707.44	9.23
707.763	9.39
708.086	9.33
708.409	9.37
708.733	9.44
709.056	9.4
709.379	9.47
709.702	9.36
710.025	9.36
710.348	9.29
710.671	9.27
710.993	9.32
711.316	9.51
711.639	9.58
711.962	9.72
712.284	9.75
712.607	9.75
712.93	9.85
713.252	9.72
713.575	9.69
713.897	9.57
714.22	9.59
714.542	9.45
714.864	9.49
715.187	9.5
715.509	9.5
715.831	9.52
716.153	9.49
716.475	9.64
716.798	9.65
717.12	9.72
717.442	9.92
717.764	9.94
718.085	9.8
718.407	9.71
718.729	9.66
719.051	9.7
719.373	9.66
719.695	9.64
720.016	9.69
720.338	9.61
720.659	9.75
720.981	9.81
721.302	9.89
721.624	9.94
721.945	10.09
722.267	10.16
722.588	10.12
722.909	10.08
723.231	9.97
723.552	10.09
723.873	10.15
724.194	9.96
724.515	10.04
724.836	10.14
725.157	10.15
725.478	9.99
725.799	9.97
726.12	9.99
726.441	10.11
726.762	10.27
727.083	10.48
727.403	10.6
727.724	10.69
728.045	10.69
728.365	10.71
728.686	10.43
729.006	10.39
729.327	10.35
729.647	10.39
729.967	10.53
730.288	10.53
730.608	10.47
730.928	10.58
731.249	10.44
731.569	10.52
731.889	10.71
732.209	10.79
732.529	10.84
732.849	10.86
733.169	10.82
733.489	10.77
733.809	10.71
734.129	10.47
734.448	10.37
734.768	10.35
735.088	10.33
735.408	10.67
735.727	10.64
736.047	10.85
736.366	10.87
736.686	10.88
737.005	10.91
737.325	10.99
737.644	10.94
737.963	11.13
738.283	10.97
738.602	11.04
738.921	11.11
739.24	11.07
739.56	11.11
739.879	11.07
740.198	11.02
740.517	11.01
740.836	11.2
741.155	11.34
741.473	11.5
741.792	11.49
742.111	11.5
742.43	11.54
742.748	11.32
743.067	11.41
743.386	11.35
743.704	11.27
744.023	11.36
744.341	11.37
744.66	11.33
744.978	11.32
745.297	11.2
745.615	11.46
745.933	11.62
746.252	11.85
746.57	11.73
746.888	11.76
747.206	11.99
747.524	12.02
747.842	12.09
748.16	12.13
748.478	12.23
748.796	12
749.114	12.17
749.432	12.1
749.749	12.27
750.067	12.2
750.385	11.9
750.703	11.79
751.02	11.86
751.338	11.78
751.655	11.77
751.973	11.72
752.29	11.52
752.608	11.48
752.925	11.48
753.242	11.62
753.56	11.41
753.877	11.23
754.194	11.09
754.511	10.99
754.828	10.88
755.145	10.84
755.462	10.99
755.779	11
756.096	10.97
756.413	10.93
756.73	11.09
757.047	11.38
757.364	11.43
757.68	11.53
757.997	11.7
758.314	11.84
758.63	11.8
758.947	11.92
759.264	11.92
759.58	11.45
759.896	11.49
760.213	11.9
760.529	12
760.846	12.17
761.162	12.1
761.478	12.1
761.794	12.04
762.11	11.99
762.426	11.78
762.743	12
763.059	11.85
763.375	11.81
763.69	11.92
764.006	11.85
764.322	11.79
764.638	12.02
764.954	11.97
765.27	11.96
765.585	11.88
765.901	11.83
766.216	12.03
766.532	11.99
766.848	11.65
767.163	11.68
767.478	11.72
767.794	11.89
768.109	11.75
768.424	11.84
768.74	12.08
769.055	12.29
769.37	12.37
769.685	12.49
770	12.72
770.315	12.64
770.63	12.99
770.945	12.93
771.26	12.46
771.575	12.56
771.89	12.85
772.205	12.56
772.52	12.64
772.834	12.69
773.149	12.68
773.464	13.17
773.778	13.36
774.093	13.01
774.407	12.85
774.722	12.88
775.036	13.22
775.351	12.81
775.665	12.81
775.979	12.69
776.293	12.88
776.608	12.72
776.922	12.35
777.236	12.32
777.55	12.74
777.864	12.89
778.178	13.11
778.492	12.76
778.806	12.68
779.12	12.67
779.434	12.58
779.747	12.97
780.061	12.76
780.375	12.67
780.689	12.77
781.002	12.88
781.316	13.13
781.629	12.86
781.943	13.22
782.256	13.36
782.57	13.05
782.883	12.95
783.196	13.03
783.51	13.59
783.823	13.44
784.136	13.59
784.449	13.65
784.762	13.45
785.075	13.91
785.388	14.28
785.701	14.34
786.014	14.06
786.327	13.67
786.64	14.25
786.953	14.39
787.266	14.76
787.578	14.43
787.891	14.76
788.204	14.8
788.516	14.65
788.829	14.08
789.141	14.36
789.454	14.22
789.766	14.31
790.079	14.5
790.391	14.38
790.703	14.24
791.016	13.93
791.328	14.07
791.64	13.52
791.952	13.56
792.264	13.37
792.576	13.68
792.888	13.86
793.2	13.59
793.512	13.45
793.824	13.06
794.136	13.15
794.448	13.06
794.76	12.84
795.071	13.16
795.383	13.65
795.695	13.69
796.006	13.61
796.318	13.52
796.629	13.01
796.941	13.31
797.252	12.95
797.564	13.17
797.875	13.06
798.186	13.24
798.497	13.64
798.809	13.62
799.12	13.32
799.431	13.57
799.742	13.51
800.053	13.68
800.364	13.88
800.675	14.24
800.986	13.97
801.297	13.72
801.608	13.58
801.918	13.36
802.229	13.67
802.54	13.76
802.851	13.78
803.161	14.03
803.472	13.88
803.782	14.2
804.093	14.41
804.403	14.76
804.714	14.63
805.024	14.13
805.334	14.86
805.645	15.31
805.955	15.06
806.265	14.98
806.575	14.28
806.885	14.25
807.195	14.43
807.505	14.71
807.815	14.84
808.125	14.64
808.435	14.86
808.745	14.7
809.055	15.08
809.365	15.23
809.674	15.45
809.984	15.35
810.294	15.6
810.603	15.55
810.913	15.76
811.222	16.74
811.532	16.58
811.841	16.71
812.151	17.26
812.46	17.12
812.769	17.56
813.079	17.95
813.388	18.26
813.697	18.26
814.006	17.65
814.315	17.96
814.624	18.27
814.933	18.42
815.242	18.54
815.551	18.71
815.86	19.02
816.169	18.28
816.478	18.1
816.786	16.95
817.095	17.29
817.404	17.57
817.712	17.23
818.021	17.98
818.33	17.21
818.638	16.84
818.947	17.18
819.255	16.99
819.563	16.71
819.872	16.61
820.18	16.31
820.488	16.29
820.796	16.16
821.105	16.03
821.413	15.98
821.721	15.89
822.029	15.76
822.337	15.64
822.645	15.86
822.953	15.98
823.26	16.13
823.568	15.98
823.876	15.77
824.184	15.71
824.491	15.64
824.799	15.81
825.107	15.75
825.414	15.61
825.722	15.65
826.029	15.78
826.337	15.8
826.644	15.85
826.951	15.88
827.259	16.12
827.566	15.94
827.873	15.89
828.18	15.98
828.488	15.8
828.795	15.97
829.102	16.01
829.409	16.09
829.716	15.95
830.023	15.94
830.329	16.04
830.636	16.32
830.943	16.19
831.25	16.05
831.557	16.05
831.863	16.36
832.17	16.12
832.476	16.12
832.783	16.22
833.089	16.24
833.396	16.62
833.702	16.56
834.009	16.89
834.315	16.9
834.621	16.79
834.928	17.35
835.234	16.89
835.54	16.97
835.846	16.54
836.152	17.03
836.458	17.26
836.764	17.55
837.07	17.19
837.376	16.81
837.682	16.86
837.988	17.18
838.293	16.61
838.599	17.08
838.905	17.11
839.211	16.87
839.516	16.91
839.822	16.55
840.127	16.8
840.433	17.62
840.738	17.8
841.044	17.89
841.349	18.37
841.654	19.34
841.959	19.19
842.265	19.91
842.57	20.11
842.875	20.76
843.18	20.68
843.485	20.99
843.79	22.19
844.095	21.85
844.4	22.95
844.705	23.14
845.01	22.4
845.315	22.92
845.619	22.51
845.924	23.19
846.229	23.72
846.533	22.32
846.838	20.99
847.142	21.71
847.447	21.76
847.751	21.05
848.056	19.76
848.36	18.98
848.664	19.3
848.969	18.29
849.273	16.62
849.577	17.13
849.881	17.78
850.185	18.49
850.489	19.22
850.794	17.82
851.097	19.22
851.401	20.91
851.705	19.08
852.009	22.22
852.313	22.32
852.617	21
852.92	22.71
853.224	24.13
853.528	24.31
853.831	25.95
854.135	25.48
854.438	26.19
854.742	26.22
855.045	24.28
855.349	25.13
855.652	26.61
855.955	25.87
856.259	25.74
856.562	25.26
856.865	24.57
857.168	25.59
857.471	24.9
857.774	24.81
858.077	26.64
858.38	25.45
858.683	23.59
858.986	25.42
859.289	24.75
859.592	23.9
859.894	25.84
860.197	25.28
860.5	24.92
860.802	24.8
861.105	25.78
861.407	26.61
861.71	27.09
862.012	24.68
862.315	22.94
862.617	21.45
862.919	21.24
863.222	22.15
863.524	21.93
863.826	22.78
864.128	22.21
864.43	21.38
864.732	22.16
865.034	23.64
865.336	23.62
865.638	22.88
865.94	23.18
866.242	20.72
866.544	18.51
866.846	18.64
867.147	18.16
867.449	18.2
867.751	19.8
868.052	20.23
868.354	21.85
868.655	25.49
868.957	27.03
869.258	27.52
869.56	28.05
869.861	26.68
870.162	26.62
870.463	26.76
870.765	26.79
871.066	26.4
871.367	25.98
871.668	26.77
871.969	26.69
872.27	28.8
872.571	27.99
872.872	29.94
873.173	30.29
873.473	31.61
873.774	33.29
874.075	31.48
874.376	29.8
874.676	31.37
874.977	29.42
875.277	29.9
875.578	30.41
875.878	29.8
876.179	30.7
876.479	30.61
876.78	30.42
877.08	32.09
877.38	30.89
877.68	32.39
877.981	30.55
878.281	32.92
878.581	30.35
