Data from BU26941_Reflection_00004.txt Node
Date: Tue Nov 19 11:03:26 EST 2019
User: vgr7
Spectrometer: USB2G7710
Scans to average: 3
Trigger mode: 4
Integration Time (sec): 2.000000E-2
Electric dark correction enabled: true
Boxcar width: 10
XAxis mode: Wavelengths
Number of Pixels in Spectrum: 2048
>>>>>Begin Spectral Data<<<<<
177.721	60.2
178.105	59.39
178.488	103.71
178.871	259.46
179.254	196.72
179.636	267.2
180.019	247.52
180.402	560
180.785	-11.32
181.168	5100
181.55	-85.28
181.933	-709.86
182.316	396.99
182.698	228.1
183.081	1329.73
183.463	-388.02
183.846	-534.45
184.228	844.9
184.611	-89.9
184.993	-53.73
185.376	-76.3
185.758	-19.16
186.14	15.19
186.522	61.78
186.904	139.85
187.287	103.63
187.669	125.22
188.051	51.87
188.433	-26.74
188.815	-14.46
189.197	-1.55
189.579	-29.8
189.961	-28.9
190.342	-34.74
190.724	-50.13
191.106	-95.42
191.488	-40.1
191.869	9.49
192.251	-8.62
192.633	19.1
193.014	-62.89
193.396	-164.87
193.777	-53.28
194.159	-47.33
194.54	-116.7
194.922	-404.78
195.303	-437.84
195.684	-403.41
196.065	-384.23
196.447	-233.08
196.828	-251.29
197.209	-333.64
197.59	-142.7
197.971	-123.06
198.352	-115.06
198.733	-147.68
199.114	-118.53
199.495	-142.09
199.876	-205.32
200.257	-234.3
200.638	-265.84
201.018	-225.76
201.399	-194.35
201.78	-183.18
202.16	-220.49
202.541	-280.84
202.922	-273.76
203.302	-264.36
203.683	-260.43
204.063	-283.42
204.444	-295.57
204.824	-401.57
205.204	-415.46
205.585	-529.87
205.965	-813.37
206.345	-1057.59
206.725	-468.85
207.106	-415.17
207.486	-480
207.866	-582.63
208.246	-431.43
208.626	-414.8
209.006	-447.38
209.386	-347.05
209.766	-661.22
210.145	-286.2
210.525	-376.12
210.905	-205.17
211.285	-191.12
211.664	-116.42
212.044	-65.99
212.424	-51.55
212.803	-100.27
213.183	-72.53
213.562	-179.1
213.942	-227.59
214.321	-283.85
214.701	-670.07
215.08	-1253.93
215.459	-383.92
215.838	-380.99
216.218	-552.71
216.597	-1051.69
216.976	645.11
217.355	78600
217.734	-462.2
218.113	-1033.66
218.492	-2765.85
218.871	-465.31
219.25	-424.39
219.629	-308.69
220.008	-412.16
220.387	-324.77
220.766	-169.8
221.144	-237.12
221.523	-181.28
221.902	-128.67
222.28	-99.66
222.659	-89.22
223.037	-76.34
223.416	-52.57
223.794	-66.01
224.173	-65.53
224.551	-62.61
224.929	-58.91
225.308	-68.13
225.686	-57.63
226.064	-60.72
226.442	-48.94
226.821	-46.79
227.199	-44.43
227.577	-37.51
227.955	-33.46
228.333	-28.04
228.711	-24.56
229.089	-23.14
229.467	-23.77
229.845	-21.08
230.222	-19.25
230.6	-19.56
230.978	-17.35
231.356	-19.57
231.733	-16.63
232.111	-16.88
232.488	-15.03
232.866	-13.72
233.243	-11.24
233.621	-10.53
233.998	-6.85
234.376	-6.61
234.753	-5.76
235.13	-5.51
235.508	-7.18
235.885	-7.14
236.262	-5.22
236.639	-5.68
237.016	-4.51
237.393	-2.13
237.77	-1.86
238.147	-1.38
238.524	0.2
238.901	0.52
239.278	0.22
239.655	0.35
240.032	0.62
240.409	1.19
240.785	1.57
241.162	2.2
241.539	2.22
241.915	1.88
242.292	2.35
242.668	2.37
243.045	3.02
243.421	3.37
243.798	3.49
244.174	3.54
244.551	3.55
244.927	3.51
245.303	3.45
245.679	3.64
246.056	3.74
246.432	3.73
246.808	3.85
247.184	4.13
247.56	3.94
247.936	4.13
248.312	4.11
248.688	4
249.064	3.73
249.44	3.49
249.815	3.4
250.191	3.08
250.567	3.03
250.943	2.76
251.318	2.46
251.694	2.31
252.069	2.11
252.445	2.04
252.82	2
253.196	1.82
253.571	1.76
253.947	1.64
254.322	1.72
254.697	1.9
255.073	1.64
255.448	2.01
255.823	1.96
256.198	1.76
256.573	1.82
256.948	1.91
257.323	2.3
257.698	2.56
258.073	2.89
258.448	3.02
258.823	3.07
259.198	3.16
259.573	3.12
259.948	3.19
260.322	3.22
260.697	3.27
261.072	3.35
261.446	3.33
261.821	3.38
262.195	3.34
262.57	3.21
262.944	3.32
263.319	3.33
263.693	3.2
264.067	3.25
264.442	3.28
264.816	3.36
265.19	3.4
265.564	3.25
265.938	3.07
266.313	3.02
266.687	2.85
267.061	3.05
267.435	3.26
267.809	3.06
268.183	2.92
268.556	2.86
268.93	2.92
269.304	2.72
269.678	2.71
270.051	2.68
270.425	2.7
270.799	2.68
271.172	2.66
271.546	2.83
271.919	2.84
272.293	3
272.666	2.95
273.04	2.84
273.413	2.85
273.787	2.88
274.16	2.63
274.533	2.73
274.906	2.45
275.279	2.23
275.653	2.43
276.026	2.64
276.399	2.73
276.772	2.69
277.145	2.82
277.518	2.68
277.891	2.7
278.263	2.7
278.636	2.92
279.009	2.97
279.382	2.82
279.755	2.83
280.127	2.77
280.5	2.78
280.872	2.77
281.245	2.85
281.617	2.8
281.99	2.93
282.362	2.93
282.735	3.02
283.107	3.17
283.479	3.15
283.852	2.97
284.224	2.95
284.596	2.95
284.968	2.88
285.34	2.99
285.713	3
286.085	2.96
286.457	2.75
286.829	2.85
287.201	2.78
287.572	2.75
287.944	2.75
288.316	2.79
288.688	2.82
289.06	3.04
289.431	3.11
289.803	3.25
290.175	3.31
290.546	3.34
290.918	3.24
291.289	3.11
291.661	3.22
292.032	3.25
292.403	3.18
292.775	3.26
293.146	3.21
293.517	3.17
293.889	3.13
294.26	3.22
294.631	3.23
295.002	3.35
295.373	3.36
295.744	3.45
296.115	3.49
296.486	3.46
296.857	3.33
297.228	3.3
297.599	3.16
297.97	3.25
298.34	3.34
298.711	3.42
299.082	3.49
299.452	3.43
299.823	3.43
300.194	3.57
300.564	3.57
300.935	3.55
301.305	3.57
301.676	3.56
302.046	3.58
302.416	3.57
302.787	3.67
303.157	3.78
303.527	3.62
303.897	3.57
304.267	3.71
304.637	3.74
305.008	3.88
305.378	3.99
305.748	3.88
306.117	3.7
306.487	3.73
306.857	3.88
307.227	4.01
307.597	4
307.967	3.94
308.336	3.89
308.706	3.94
309.076	4.02
309.445	4.17
309.815	4.17
310.184	4.12
310.554	4.09
310.923	3.98
311.293	4
311.662	4.06
312.031	3.97
312.401	3.96
312.77	3.85
313.139	3.8
313.508	3.91
313.877	3.98
314.246	3.96
314.616	3.91
314.985	3.75
315.353	3.79
315.722	3.83
316.091	3.86
316.46	3.92
316.829	3.77
317.198	3.68
317.567	3.65
317.935	3.67
318.304	3.64
318.672	3.81
319.041	3.78
319.41	3.76
319.778	3.8
320.147	3.75
320.515	3.76
320.883	3.74
321.252	3.53
321.62	3.6
321.988	3.62
322.357	3.41
322.725	3.57
323.093	3.5
323.461	3.44
323.829	3.47
324.197	3.47
324.565	3.53
324.933	3.46
325.301	3.44
325.669	3.38
326.037	3.34
326.405	3.22
326.772	3.29
327.14	3.2
327.508	3.1
327.875	3.04
328.243	3.03
328.61	3.07
328.978	3.16
329.346	3.21
329.713	3.32
330.08	3.58
330.448	3.67
330.815	3.56
331.182	3.53
331.55	3.58
331.917	3.47
332.284	3.52
332.651	3.55
333.018	3.69
333.385	3.67
333.752	3.66
334.119	3.72
334.486	3.77
334.853	3.77
335.22	3.96
335.587	3.92
335.954	4
336.32	3.98
336.687	3.97
337.054	3.92
337.42	3.74
337.787	3.65
338.153	3.52
338.52	3.7
338.886	3.76
339.253	3.71
339.619	3.8
339.986	3.72
340.352	3.79
340.718	3.73
341.084	3.8
341.451	3.86
341.817	3.9
342.183	3.81
342.549	3.86
342.915	3.82
343.281	3.93
343.647	3.88
344.013	3.96
344.379	3.94
344.745	3.97
345.11	3.95
345.476	3.96
345.842	3.92
346.208	3.81
346.573	3.86
346.939	3.84
347.304	3.76
347.67	3.84
348.035	3.85
348.401	3.75
348.766	3.66
349.132	3.66
349.497	3.66
349.862	3.82
350.228	3.89
350.593	3.93
350.958	4.01
351.323	3.98
351.688	4.02
352.053	4.07
352.418	4.09
352.783	4.2
353.148	4.26
353.513	4.26
353.878	4.33
354.243	4.2
354.608	4.25
354.972	4.31
355.337	4.26
355.702	4.19
356.066	4.35
356.431	4.44
356.795	4.42
357.16	4.37
357.524	4.24
357.889	4.12
358.253	4.1
358.618	4.07
358.982	4.1
359.346	4.08
359.71	4.06
360.075	4.04
360.439	4.01
360.803	4.02
361.167	4.01
361.531	4.01
361.895	4.06
362.259	4.07
362.623	4.09
362.987	4.09
363.351	4.12
363.714	4.06
364.078	4.02
364.442	3.95
364.806	3.93
365.169	4
365.533	4.08
365.896	4.1
366.26	4.06
366.623	4.01
366.987	3.92
367.35	3.97
367.714	3.97
368.077	3.89
368.44	3.84
368.803	3.83
369.167	3.73
369.53	3.74
369.893	3.66
370.256	3.62
370.619	3.64
370.982	3.61
371.345	3.62
371.708	3.59
372.071	3.6
372.434	3.6
372.797	3.62
373.159	3.6
373.522	3.52
373.885	3.52
374.247	3.53
374.61	3.61
374.973	3.63
375.335	3.63
375.698	3.61
376.06	3.63
376.423	3.71
376.785	3.76
377.147	3.77
377.51	3.8
377.872	3.77
378.234	3.77
378.596	3.83
378.958	3.82
379.321	3.86
379.683	3.97
380.045	3.91
380.407	3.89
380.769	3.86
381.13	3.82
381.492	3.86
381.854	3.88
382.216	3.83
382.578	3.78
382.939	3.77
383.301	3.83
383.663	3.8
384.024	3.73
384.386	3.74
384.747	3.7
385.109	3.68
385.47	3.73
385.832	3.71
386.193	3.69
386.554	3.64
386.916	3.59
387.277	3.49
387.638	3.55
387.999	3.55
388.36	3.56
388.721	3.57
389.082	3.56
389.443	3.55
389.804	3.55
390.165	3.55
390.526	3.55
390.887	3.54
391.248	3.54
391.609	3.6
391.969	3.63
392.33	3.64
392.691	3.63
393.051	3.6
393.412	3.6
393.772	3.59
394.133	3.61
394.493	3.6
394.854	3.64
395.214	3.63
395.574	3.62
395.935	3.63
396.295	3.64
396.655	3.59
397.015	3.63
397.376	3.66
397.736	3.66
398.096	3.66
398.456	3.65
398.816	3.67
399.176	3.63
399.535	3.62
399.895	3.61
400.255	3.65
400.615	3.66
400.975	3.66
401.334	3.69
401.694	3.69
402.054	3.7
402.413	3.73
402.773	3.72
403.132	3.7
403.492	3.68
403.851	3.7
404.211	3.74
404.57	3.74
404.929	3.68
405.288	3.68
405.648	3.66
406.007	3.66
406.366	3.66
406.725	3.66
407.084	3.67
407.443	3.67
407.802	3.68
408.161	3.67
408.52	3.68
408.879	3.68
409.238	3.67
409.596	3.7
409.955	3.7
410.314	3.71
410.673	3.74
411.031	3.75
411.39	3.74
411.748	3.73
412.107	3.7
412.465	3.75
412.824	3.74
413.182	3.76
413.54	3.76
413.899	3.74
414.257	3.71
414.615	3.66
414.974	3.68
415.332	3.66
415.69	3.7
416.048	3.67
416.406	3.67
416.764	3.66
417.122	3.64
417.48	3.63
417.838	3.62
418.195	3.61
418.553	3.58
418.911	3.57
419.269	3.57
419.626	3.57
419.984	3.55
420.342	3.54
420.699	3.54
421.057	3.53
421.414	3.55
421.772	3.56
422.129	3.57
422.486	3.55
422.844	3.55
423.201	3.54
423.558	3.54
423.915	3.54
424.273	3.55
424.63	3.55
424.987	3.55
425.344	3.54
425.701	3.53
426.058	3.54
426.415	3.53
426.772	3.53
427.128	3.53
427.485	3.54
427.842	3.54
428.199	3.53
428.555	3.51
428.912	3.49
429.269	3.46
429.625	3.44
429.982	3.47
430.338	3.47
430.695	3.44
431.051	3.42
431.407	3.41
431.764	3.39
432.12	3.39
432.476	3.38
432.832	3.4
433.189	3.41
433.545	3.41
433.901	3.42
434.257	3.43
434.613	3.42
434.969	3.42
435.325	3.44
435.681	3.41
436.036	3.42
436.392	3.44
436.748	3.45
437.104	3.45
437.459	3.43
437.815	3.44
438.171	3.44
438.526	3.45
438.882	3.44
439.237	3.44
439.593	3.45
439.948	3.46
440.304	3.45
440.659	3.44
441.014	3.43
441.369	3.43
441.725	3.42
442.08	3.43
442.435	3.43
442.79	3.41
443.145	3.42
443.5	3.44
443.855	3.43
444.21	3.43
444.565	3.43
444.92	3.45
445.275	3.45
445.629	3.43
445.984	3.42
446.339	3.43
446.693	3.43
447.048	3.41
447.403	3.4
447.757	3.4
448.112	3.4
448.466	3.41
448.82	3.41
449.175	3.39
449.529	3.39
449.883	3.36
450.238	3.36
450.592	3.36
450.946	3.35
451.3	3.36
451.654	3.36
452.008	3.35
452.362	3.32
452.716	3.3
453.07	3.31
453.424	3.31
453.778	3.31
454.132	3.3
454.486	3.32
454.839	3.31
455.193	3.32
455.547	3.34
455.9	3.33
456.254	3.34
456.607	3.34
456.961	3.35
457.314	3.35
457.668	3.36
458.021	3.37
458.375	3.35
458.728	3.35
459.081	3.35
459.434	3.35
459.787	3.37
460.141	3.39
460.494	3.41
460.847	3.42
461.2	3.42
461.553	3.44
461.906	3.45
462.259	3.45
462.611	3.45
462.964	3.45
463.317	3.46
463.67	3.47
464.022	3.48
464.375	3.47
464.728	3.48
465.08	3.5
465.433	3.51
465.785	3.53
466.138	3.53
466.49	3.55
466.843	3.56
467.195	3.56
467.547	3.56
467.899	3.54
468.252	3.55
468.604	3.53
468.956	3.54
469.308	3.51
469.66	3.53
470.012	3.53
470.364	3.54
470.716	3.58
471.068	3.56
471.42	3.57
471.772	3.59
472.123	3.6
472.475	3.6
472.827	3.61
473.178	3.61
473.53	3.6
473.882	3.62
474.233	3.62
474.585	3.61
474.936	3.61
475.288	3.63
475.639	3.64
475.99	3.62
476.342	3.64
476.693	3.67
477.044	3.66
477.395	3.68
477.746	3.65
478.097	3.62
478.448	3.63
478.8	3.63
479.15	3.63
479.501	3.62
479.852	3.6
480.203	3.6
480.554	3.61
480.905	3.61
481.255	3.61
481.606	3.62
481.957	3.62
482.307	3.62
482.658	3.61
483.009	3.61
483.359	3.62
483.709	3.62
484.06	3.61
484.41	3.62
484.761	3.62
485.111	3.62
485.461	3.63
485.811	3.63
486.162	3.63
486.512	3.64
486.862	3.65
487.212	3.65
487.562	3.66
487.912	3.64
488.262	3.63
488.612	3.62
488.961	3.62
489.311	3.63
489.661	3.63
490.011	3.64
490.36	3.64
490.71	3.63
491.06	3.63
491.409	3.64
491.759	3.63
492.108	3.63
492.458	3.63
492.807	3.63
493.157	3.64
493.506	3.63
493.855	3.62
494.204	3.63
494.554	3.64
494.903	3.65
495.252	3.68
495.601	3.69
495.95	3.7
496.299	3.7
496.648	3.71
496.997	3.71
497.346	3.72
497.695	3.74
498.043	3.75
498.392	3.76
498.741	3.76
499.09	3.77
499.438	3.79
499.787	3.79
500.135	3.8
500.484	3.8
500.832	3.82
501.181	3.84
501.529	3.84
501.878	3.85
502.226	3.86
502.574	3.88
502.923	3.89
503.271	3.92
503.619	3.95
503.967	3.94
504.315	3.97
504.663	3.98
505.011	3.98
505.359	3.99
505.707	4
506.055	4.02
506.403	4.04
506.751	4.05
507.098	4.09
507.446	4.12
507.794	4.14
508.141	4.16
508.489	4.16
508.837	4.18
509.184	4.2
509.531	4.23
509.879	4.22
510.226	4.25
510.574	4.26
510.921	4.26
511.268	4.28
511.616	4.28
511.963	4.32
512.31	4.32
512.657	4.35
513.004	4.37
513.351	4.38
513.698	4.39
514.045	4.4
514.392	4.4
514.739	4.4
515.086	4.42
515.432	4.44
515.779	4.47
516.126	4.48
516.473	4.5
516.819	4.51
517.166	4.52
517.512	4.51
517.859	4.51
518.205	4.51
518.552	4.53
518.898	4.52
519.245	4.53
519.591	4.55
519.937	4.55
520.283	4.55
520.629	4.55
520.976	4.56
521.322	4.59
521.668	4.58
522.014	4.58
522.36	4.56
522.706	4.56
523.052	4.56
523.398	4.57
523.743	4.56
524.089	4.56
524.435	4.58
524.781	4.61
525.126	4.63
525.472	4.65
525.817	4.66
526.163	4.69
526.509	4.69
526.854	4.71
527.199	4.72
527.545	4.74
527.89	4.75
528.235	4.76
528.581	4.74
528.926	4.73
529.271	4.75
529.616	4.76
529.961	4.77
530.306	4.77
530.651	4.78
530.996	4.79
531.341	4.81
531.686	4.81
532.031	4.81
532.376	4.8
532.721	4.79
533.065	4.79
533.41	4.79
533.755	4.8
534.099	4.79
534.444	4.78
534.788	4.77
535.133	4.77
535.477	4.78
535.822	4.8
536.166	4.82
536.51	4.84
536.855	4.84
537.199	4.85
537.543	4.85
537.887	4.85
538.231	4.85
538.576	4.83
538.92	4.83
539.264	4.84
539.608	4.86
539.951	4.85
540.295	4.85
540.639	4.85
540.983	4.85
541.327	4.86
541.671	4.87
542.014	4.87
542.358	4.87
542.701	4.87
543.045	4.87
543.389	4.88
543.732	4.87
544.075	4.86
544.419	4.87
544.762	4.86
545.105	4.85
545.449	4.87
545.792	4.87
546.135	4.87
546.478	4.87
546.821	4.88
547.165	4.89
547.508	4.9
547.851	4.91
548.194	4.91
548.536	4.88
548.879	4.88
549.222	4.87
549.565	4.88
549.908	4.86
550.25	4.84
550.593	4.83
550.936	4.83
551.278	4.83
551.621	4.82
551.963	4.82
552.306	4.85
552.648	4.84
552.991	4.85
553.333	4.86
553.675	4.88
554.017	4.86
554.36	4.86
554.702	4.86
555.044	4.83
555.386	4.83
555.728	4.82
556.07	4.8
556.412	4.84
556.754	4.81
557.096	4.83
557.438	4.83
557.78	4.82
558.121	4.82
558.463	4.84
558.805	4.81
559.147	4.81
559.488	4.78
559.83	4.78
560.171	4.76
560.513	4.74
560.854	4.69
561.196	4.68
561.537	4.7
561.878	4.71
562.22	4.72
562.561	4.7
562.902	4.71
563.243	4.73
563.584	4.72
563.925	4.75
564.266	4.73
564.607	4.74
564.948	4.73
565.289	4.74
565.63	4.72
565.971	4.77
566.312	4.78
566.653	4.8
566.993	4.8
567.334	4.84
567.675	4.86
568.015	4.89
568.356	4.89
568.696	4.88
569.037	4.87
569.377	4.89
569.718	4.93
570.058	4.96
570.398	4.97
570.739	4.97
571.079	4.97
571.419	4.97
571.759	4.98
572.099	4.98
572.439	4.97
572.779	4.96
573.119	4.98
573.459	4.97
573.799	4.98
574.139	4.96
574.479	4.94
574.819	4.94
575.158	4.96
575.498	4.99
575.838	4.98
576.177	5
576.517	4.98
576.856	4.97
577.196	4.97
577.535	4.95
577.875	4.93
578.214	4.95
578.553	4.92
578.893	4.93
579.232	4.98
579.571	5
579.91	5.03
580.25	5
580.589	5
580.928	4.95
581.267	4.98
581.606	4.94
581.945	4.91
582.283	4.9
582.622	4.89
582.961	4.91
583.3	4.9
583.639	4.92
583.977	4.93
584.316	4.93
584.654	4.93
584.993	4.93
585.332	4.97
585.67	5.01
586.008	5.01
586.347	4.98
586.685	4.96
587.024	4.96
587.362	5
587.7	5.02
588.038	5.05
588.376	5.04
588.715	5.05
589.053	5.07
589.391	5.07
589.729	5.05
590.067	5.03
590.404	5.04
590.742	5.03
591.08	5.02
591.418	5.01
591.756	5.01
592.093	5.06
592.431	5.04
592.769	5.03
593.106	5.02
593.444	5.06
593.781	5.06
594.119	5.03
594.456	5.02
594.793	4.99
595.131	5
595.468	5.03
595.805	5.07
596.143	5.07
596.48	5.07
596.817	5.08
597.154	5.08
597.491	5.09
597.828	5.12
598.165	5.1
598.502	5.08
598.839	5.03
599.176	5.01
599.512	4.99
599.849	4.99
600.186	4.97
600.523	4.95
600.859	4.96
601.196	4.96
601.532	4.94
601.869	4.93
602.205	4.91
602.542	4.9
602.878	4.9
603.215	4.92
603.551	4.93
603.887	4.93
604.223	4.97
604.56	4.97
604.896	5.01
605.232	5.03
605.568	5.08
605.904	5.1
606.24	5.12
606.576	5.13
606.912	5.12
607.248	5.15
607.583	5.16
607.919	5.17
608.255	5.18
608.591	5.24
608.926	5.26
609.262	5.25
609.597	5.25
609.933	5.22
610.268	5.2
610.604	5.21
610.939	5.24
611.275	5.21
611.61	5.18
611.945	5.11
612.281	5.13
612.616	5.1
612.951	5.14
613.286	5.11
613.621	5.08
613.956	5.11
614.291	5.09
614.626	5.07
614.961	5.1
615.296	5.14
615.631	5.09
615.966	5.12
616.3	5.17
616.635	5.18
616.97	5.17
617.304	5.19
617.639	5.18
617.973	5.12
618.308	5.11
618.642	5.16
618.977	5.14
619.311	5.1
619.646	5.12
619.98	5.12
620.314	5.07
620.648	5.1
620.983	5.1
621.317	5.12
621.651	5.12
621.985	5.1
622.319	5.06
622.653	5.08
622.987	5.07
623.321	5.06
623.655	5.07
623.988	5.07
624.322	5.07
624.656	5.09
624.99	5.12
625.323	5.1
625.657	5.07
625.99	5.1
626.324	5.08
626.657	5.03
626.991	4.98
627.324	4.99
627.658	4.96
627.991	4.96
628.324	4.93
628.657	4.93
628.991	4.94
629.324	4.95
629.657	4.9
629.99	4.94
630.323	4.94
630.656	4.9
630.989	4.95
631.322	4.96
631.655	4.94
631.987	4.95
632.32	4.96
632.653	4.94
632.986	4.94
633.318	4.96
633.651	4.98
633.984	5.07
634.316	5.09
634.649	5.14
634.981	5.12
635.313	5.2
635.646	5.22
635.978	5.22
636.31	5.2
636.643	5.24
636.975	5.22
637.307	5.22
637.639	5.21
637.971	5.14
638.303	5.13
638.635	5.08
638.967	5.07
639.299	5.05
639.631	5.1
639.963	5.06
640.295	5.11
640.626	5.14
640.958	5.07
641.29	5.15
641.621	5.15
641.953	5.14
642.285	5.09
642.616	5.11
642.948	5.14
643.279	5.17
643.61	5.19
643.942	5.14
644.273	5.16
644.604	5.17
644.936	5.23
645.267	5.24
645.598	5.32
645.929	5.31
646.26	5.33
646.591	5.31
646.922	5.36
647.253	5.27
647.584	5.3
647.915	5.35
648.245	5.29
648.576	5.31
648.907	5.33
649.238	5.27
649.568	5.22
649.899	5.15
650.229	5.2
650.56	5.2
650.89	5.25
651.221	5.31
651.551	5.34
651.882	5.34
652.212	5.33
652.542	5.4
652.872	5.46
653.203	5.47
653.533	5.49
653.863	5.51
654.193	5.54
654.523	5.44
654.853	5.44
655.183	5.43
655.513	5.49
655.843	5.49
656.172	5.57
656.502	5.54
656.832	5.54
657.162	5.46
657.491	5.45
657.821	5.42
658.15	5.38
658.48	5.41
658.809	5.43
659.139	5.47
659.468	5.38
659.798	5.37
660.127	5.38
660.456	5.37
660.785	5.36
661.115	5.39
661.444	5.45
661.773	5.45
662.102	5.46
662.431	5.41
662.76	5.43
663.089	5.53
663.418	5.54
663.747	5.52
664.076	5.57
664.404	5.59
664.733	5.59
665.062	5.58
665.39	5.58
665.719	5.5
666.048	5.48
666.376	5.55
666.705	5.55
667.033	5.5
667.362	5.41
667.69	5.48
668.018	5.5
668.347	5.48
668.675	5.5
669.003	5.46
669.331	5.49
669.659	5.5
669.987	5.42
670.315	5.45
670.643	5.5
670.971	5.43
671.299	5.46
671.627	5.47
671.955	5.4
672.283	5.32
672.61	5.41
672.938	5.46
673.266	5.35
673.593	5.34
673.921	5.35
674.249	5.4
674.576	5.37
674.904	5.33
675.231	5.4
675.558	5.43
675.886	5.56
676.213	5.45
676.54	5.46
676.867	5.44
677.195	5.38
677.522	5.37
677.849	5.4
678.176	5.4
678.503	5.34
678.83	5.37
679.157	5.39
679.484	5.45
679.81	5.42
680.137	5.48
680.464	5.54
680.791	5.62
681.117	5.67
681.444	5.69
681.771	5.8
682.097	5.74
682.424	5.72
682.75	5.66
683.077	5.7
683.403	5.73
683.729	5.65
684.056	5.68
684.382	5.77
684.708	5.82
685.034	5.8
685.36	5.91
685.686	5.93
686.012	5.98
686.339	5.9
686.664	5.9
686.99	5.81
687.316	5.74
687.642	5.71
687.968	5.72
688.294	5.73
688.619	5.65
688.945	5.75
689.271	5.71
689.596	5.7
689.922	5.65
690.247	5.55
690.573	5.69
690.898	5.75
691.224	5.7
691.549	5.68
691.874	5.71
692.2	5.69
692.525	5.72
692.85	5.7
693.175	5.77
693.5	5.69
693.825	5.79
694.15	5.85
694.475	5.87
694.8	5.84
695.125	5.76
695.45	5.74
695.775	5.62
696.099	5.65
696.424	5.69
696.749	5.71
697.073	5.74
697.398	5.63
697.723	5.66
698.047	5.67
698.372	5.69
698.696	5.66
699.02	5.61
699.345	5.63
699.669	5.64
699.993	5.59
700.318	5.65
700.642	5.75
700.966	5.72
701.29	5.69
701.614	5.67
701.938	5.72
702.262	5.71
702.586	5.8
702.91	5.81
703.234	5.67
703.557	5.75
703.881	5.82
704.205	5.95
704.529	5.91
704.852	5.82
705.176	5.89
705.499	5.82
705.823	5.86
706.146	5.97
706.47	5.92
706.793	5.94
707.117	5.92
707.44	5.7
707.763	5.74
708.086	5.69
708.409	5.69
708.733	5.6
709.056	5.7
709.379	5.61
709.702	5.57
710.025	5.75
710.348	5.83
710.671	5.77
710.993	5.74
711.316	5.75
711.639	5.78
711.962	5.79
712.284	5.86
712.607	5.84
712.93	5.74
713.252	5.74
713.575	5.69
713.897	5.67
714.22	5.71
714.542	5.72
714.864	5.67
715.187	5.66
715.509	5.6
715.831	5.48
716.153	5.54
716.475	5.64
716.798	5.47
717.12	5.35
717.442	5.28
717.764	5.25
718.085	5.38
718.407	5.43
718.729	5.34
719.051	5.39
719.373	5.48
719.695	5.39
720.016	5.51
720.338	5.71
720.659	5.77
720.981	5.77
721.302	5.85
721.624	6.02
721.945	6.08
722.267	6.27
722.588	6.24
722.909	6.28
723.231	6.19
723.552	6.35
723.873	6.37
724.194	6.48
724.515	6.56
724.836	6.37
725.157	6.33
725.478	6.28
725.799	6.11
726.12	6.21
726.441	6.37
726.762	6.27
727.083	6.15
727.403	6.12
727.724	6.22
728.045	6.09
728.365	5.97
728.686	5.99
729.006	5.95
729.327	6.23
729.647	6.19
729.967	6.25
730.288	6.31
730.608	6.21
730.928	6.36
731.249	6.35
731.569	6.35
731.889	6.52
732.209	6.56
732.529	6.68
732.849	6.58
733.169	6.46
733.489	6.46
733.809	6.48
734.129	6.43
734.448	6.44
734.768	6.5
735.088	6.43
735.408	6.43
735.727	6.46
736.047	6.24
736.366	6.21
736.686	6.09
737.005	6.05
737.325	6.11
737.644	6
737.963	5.98
738.283	5.93
738.602	5.85
738.921	5.91
739.24	5.74
739.56	5.83
739.879	5.91
740.198	6.06
740.517	6.16
740.836	6.1
741.155	6
741.473	6.04
741.792	6.23
742.111	6.39
742.43	6.41
742.748	6.65
743.067	6.75
743.386	6.75
743.704	6.66
744.023	6.95
744.341	6.96
744.66	6.88
744.978	7
745.297	7.04
745.615	6.92
745.933	7.26
746.252	7.06
746.57	7.16
746.888	7.12
747.206	6.98
747.524	7.21
747.842	7.15
748.16	7.38
748.478	7.29
748.796	7.19
749.114	7.07
749.432	6.93
749.749	6.93
750.067	6.99
750.385	6.99
750.703	6.76
751.02	6.7
751.338	6.78
751.655	6.66
751.973	6.52
752.29	6.52
752.608	6.34
752.925	6.52
753.242	6.46
753.56	6.01
753.877	6.03
754.194	6.07
754.511	6.12
754.828	5.77
755.145	5.86
755.462	5.73
755.779	5.93
756.096	5.97
756.413	5.91
756.73	6.05
757.047	6.21
757.364	6.32
757.68	6.31
757.997	6.23
758.314	6.32
758.63	6.57
758.947	6.66
759.264	6.79
759.58	6.61
759.896	6.6
760.213	7.2
760.529	7.38
760.846	7.46
761.162	7.42
761.478	7.47
761.794	7.49
762.11	7.66
762.426	7.71
762.743	7.51
763.059	7.54
763.375	7.53
763.69	7.51
764.006	7.34
764.322	7.32
764.638	7.51
764.954	7.62
765.27	7.54
765.585	7.71
765.901	7.5
766.216	7.6
766.532	7.74
766.848	7.44
767.163	7.33
767.478	7.13
767.794	7.3
768.109	7.13
768.424	7.07
768.74	6.98
769.055	7.01
769.37	7.12
769.685	7.13
770	7.15
770.315	7.41
770.63	7.76
770.945	7.84
771.26	7.79
771.575	7.72
771.89	7.6
772.205	7.19
772.52	7.67
772.834	7.5
773.149	7.37
773.464	7.33
773.778	7.52
774.093	7.66
774.407	7.58
774.722	7.55
775.036	7.52
775.351	7.35
775.665	6.99
775.979	6.84
776.293	6.9
776.608	6.96
776.922	6.28
777.236	6.21
777.55	6.54
777.864	6.26
778.178	6.28
778.492	6.48
778.806	6.72
779.12	6.62
779.434	6.86
779.747	6.84
780.061	7.06
780.375	6.98
780.689	6.99
781.002	7.16
781.316	7.39
781.629	7.48
781.943	7.53
782.256	7.41
782.57	7.69
782.883	7.47
783.196	7.11
783.51	7.26
783.823	7.2
784.136	6.74
784.449	6.81
784.762	6.95
785.075	6.82
785.388	6.82
785.701	6.45
786.014	6.13
786.327	6.28
786.64	6.34
786.953	6.41
787.266	6.79
787.578	6.61
787.891	6.97
788.204	7.16
788.516	7.16
788.829	7.56
789.141	7.38
789.454	7.75
789.766	8.16
790.079	8.54
790.391	8.46
790.703	8.31
791.016	8.4
791.328	8.23
791.64	8.55
791.952	8.78
792.264	8.48
792.576	9.03
792.888	8.54
793.2	8.24
793.512	8.08
793.824	7.99
794.136	8.13
794.448	7.85
794.76	7.73
795.071	7.77
795.383	7.51
795.695	7.64
796.006	7.17
796.318	6.94
796.629	6.27
796.941	6.43
797.252	6.4
797.564	6.37
797.875	6.2
798.186	6.08
798.497	6.15
798.809	6.48
799.12	6.08
799.431	6.19
799.742	6.28
800.053	6.06
800.364	6.29
800.675	6.64
800.986	6.68
801.297	6.67
801.608	6.78
801.918	6.74
802.229	6.7
802.54	7.21
802.851	7.53
803.161	7.93
803.472	7.88
803.782	8.29
804.093	8.15
804.403	8.31
804.714	8.18
805.024	8.07
805.334	8.2
805.645	8.57
805.955	9.14
806.265	9.7
806.575	9.99
806.885	9.18
807.195	8.65
807.505	8.6
807.815	8.24
808.125	8.06
808.435	7.93
808.745	8.23
809.055	7.97
809.365	7.46
809.674	8.11
809.984	8.07
810.294	8.41
810.603	8.48
810.913	8.68
811.222	8.13
811.532	8.05
811.841	8.24
812.151	8.16
812.46	8.14
812.769	7.45
813.079	7.45
813.388	7.52
813.697	7.57
814.006	7.73
814.315	8.12
814.624	8.42
814.933	9.04
815.242	8.8
815.551	8.58
815.86	9.03
816.169	8.24
816.478	7.92
816.786	7.33
817.095	7.34
817.404	6.8
817.712	7.4
818.021	7.07
818.33	7.04
818.638	6.97
818.947	6.49
819.255	7.03
819.563	7.15
819.872	7.29
820.18	7.47
820.488	7.77
820.796	7.98
821.105	8.16
821.413	8.3
821.721	8.32
822.029	8.47
822.337	8.43
822.645	8.67
822.953	8.89
823.26	8.93
823.568	9.08
823.876	9.33
824.184	9.33
824.491	9.43
824.799	9.39
825.107	9.36
825.414	9.47
825.722	9.49
826.029	9.61
826.337	9.7
826.644	9.7
826.951	9.65
827.259	9.63
827.566	9.52
827.873	9.4
828.18	9.59
828.488	9.45
828.795	9.47
829.102	9.29
829.409	9.04
829.716	9.06
830.023	8.92
830.329	8.39
830.636	8.14
830.943	7.93
831.25	8.07
831.557	8.25
831.863	8.15
832.17	8.07
832.476	7.91
832.783	7.98
833.089	8.27
833.396	8.15
833.702	8.18
834.009	8.49
834.315	8.56
834.621	8.19
834.928	8.14
835.234	8.16
835.54	8.22
835.846	8.44
836.152	8.39
836.458	8.5
836.764	9.02
837.07	9.58
837.376	9.58
837.682	9.48
837.988	9.26
838.293	9.21
838.599	8.92
838.905	9.05
839.211	8.91
839.516	8.93
839.822	9.5
840.127	9.4
840.433	9.4
840.738	9.98
841.044	9.81
841.349	11.05
841.654	10.74
841.959	10.73
842.265	10.3
842.57	10.25
842.875	9.92
843.18	8.72
843.485	7.71
843.79	8.45
844.095	7.45
844.4	7.45
844.705	7.85
845.01	8.33
845.315	8.07
845.619	6.7
845.924	5.38
846.229	4.33
846.533	4.82
846.838	4.22
847.142	1.88
847.447	2.51
847.751	0.81
848.056	-0
848.36	-0.44
848.664	-0.88
848.969	-1.55
849.273	-0.87
849.577	0.8
849.881	1.6
850.185	0.03
850.489	0.87
850.794	2.27
851.097	2.41
851.401	1.48
851.705	0.92
852.009	3.47
852.313	2.8
852.617	2.7
852.92	1.09
853.224	0.97
853.528	2
853.831	2.34
854.135	3.72
854.438	4.98
854.742	4.85
855.045	5.6
855.349	8.08
855.652	6.78
855.955	4.73
856.259	5.37
856.562	5.63
856.865	5.49
857.168	3.71
857.471	4.26
857.774	5.46
858.077	4.84
858.38	3.05
858.683	5.17
858.986	5.57
859.289	4.94
859.592	5.53
859.894	5.55
860.197	5.16
860.5	4.56
860.802	3.15
861.105	2.46
861.407	2.81
861.71	1.14
862.012	1.3
862.315	3.77
862.617	2.17
862.919	2.07
863.222	4.27
863.524	3.51
863.826	2.71
864.128	4.14
864.43	5.62
864.732	5.15
865.034	4.63
865.336	4.52
865.638	4.95
865.94	4.82
866.242	3.02
866.544	3.01
866.846	3.61
867.147	6.92
867.449	10.67
867.751	8.92
868.052	9.82
868.354	11.94
868.655	12.51
868.957	9.94
869.258	8.94
869.56	7.07
869.861	8.39
870.162	8.57
870.463	7.82
870.765	7.4
871.066	10.17
871.367	9.01
871.668	7.65
871.969	7.91
872.27	6.56
872.571	7.84
872.872	6.84
873.173	7.74
873.473	4.39
873.774	2.15
874.075	3.93
874.376	1.02
874.676	2.55
874.977	2.55
875.277	5.35
875.578	6.14
875.878	7.07
876.179	6.71
876.479	6.52
876.78	5.56
877.08	5.1
877.38	2.44
877.68	2.97
877.981	4.39
878.281	6.1
878.581	6.77
