Data from BU26939_Reflection_00006.txt Node
Date: Tue Nov 19 10:56:44 EST 2019
User: vgr7
Spectrometer: USB2G7710
Scans to average: 3
Trigger mode: 4
Integration Time (sec): 2.000000E-2
Electric dark correction enabled: true
Boxcar width: 10
XAxis mode: Wavelengths
Number of Pixels in Spectrum: 2048
>>>>>Begin Spectral Data<<<<<
177.721	26.49
178.105	25.53
178.488	-5.58
178.871	22.73
179.254	-133.33
179.636	-64.18
180.019	-400
180.402	-88.24
180.785	109.43
181.168	39.49
181.55	-400
181.933	327.27
182.316	-44.07
182.698	-140.74
183.081	-304.76
183.463	-331.03
183.846	-120.93
184.228	-152.14
184.611	-114.29
184.993	-84.93
185.376	-91.32
185.758	-93.01
186.14	-101.41
186.522	-143.68
186.904	-126.15
187.287	-165.77
187.669	-156.16
188.051	-130.68
188.433	-171.35
188.815	-227.36
189.197	-192.65
189.579	-120.89
189.961	-137.04
190.342	-164.71
190.724	-165.17
191.106	-135.82
191.488	-144.78
191.869	-117.6
192.251	-106.63
192.633	-86.53
193.014	-86.97
193.396	-83.68
193.777	-79.71
194.159	-67.71
194.54	-65.33
194.922	-70.32
195.303	-62.7
195.684	-60.38
196.065	-71.94
196.447	-68.29
196.828	-61.81
197.209	-60.33
197.59	-65.22
197.971	-54.4
198.352	-49.82
198.733	-45.48
199.114	-47.77
199.495	-30.07
199.876	-30.87
200.257	-29.49
200.638	-32.59
201.018	-36.47
201.399	-22.02
201.78	-24.85
202.16	-45.16
202.541	-55.6
202.922	-66.24
203.302	-80.7
203.683	-76.51
204.063	-71.52
204.444	-43.97
204.824	-54.09
205.204	-41.73
205.585	-41.19
205.965	-41.08
206.345	-42.49
206.725	-46.25
207.106	-49.52
207.486	-60.54
207.866	-65.12
208.246	-59.12
208.626	-65.15
209.006	-56.59
209.386	-66.67
209.766	-67.04
210.145	-54.8
210.525	-42.51
210.905	-29.43
211.285	-27.05
211.664	-24.9
212.044	-24.52
212.424	-37.97
212.803	-39.7
213.183	-52.49
213.562	-43.32
213.942	-48.27
214.321	-47.3
214.701	-42.49
215.08	-30.87
215.459	-23.27
215.838	-28.98
216.218	-46.85
216.597	-23.05
216.976	-34.15
217.355	-20.17
217.734	-25.94
218.113	-17.69
218.492	-23.69
218.871	-14.63
219.25	-11.81
219.629	-18.94
220.008	-10.42
220.387	15.73
220.766	26.15
221.144	29.04
221.523	-0.68
221.902	6.49
222.28	5.37
222.659	1.76
223.037	-1.31
223.416	-1
223.794	9.21
224.173	16.47
224.551	9.91
224.929	6.63
225.308	5.2
225.686	5.51
226.064	1.55
226.442	2.47
226.821	4.1
227.199	2.08
227.577	4.35
227.955	6.13
228.333	4.01
228.711	1.94
229.089	2.35
229.467	6.13
229.845	7.21
230.222	7.96
230.6	6.39
230.978	4.71
231.356	1.96
231.733	-0.05
232.111	-0.45
232.488	-0.13
232.866	2.96
233.243	3.52
233.621	4.37
233.998	6.02
234.376	4.24
234.753	3.52
235.13	4.87
235.508	3.54
235.885	2.21
236.262	1.95
236.639	2.14
237.016	2.51
237.393	3.78
237.77	3.8
238.147	2.58
238.524	3.27
238.901	3.49
239.278	4.01
239.655	4.56
240.032	4.55
240.409	4.01
240.785	2.74
241.162	2.37
241.539	2.33
241.915	2.3
242.292	2.61
242.668	2.92
243.045	3.04
243.421	3.37
243.798	3.71
244.174	3.81
244.551	3.82
244.927	3.91
245.303	3.41
245.679	3.39
246.056	3.76
246.432	3.96
246.808	4.01
247.184	3.98
247.56	3.89
247.936	3.86
248.312	4.14
248.688	4.48
249.064	4.61
249.44	4.38
249.815	4.44
250.191	4.6
250.567	4.48
250.943	4.36
251.318	4.19
251.694	3.97
252.069	4.06
252.445	4.34
252.82	4.86
253.196	5
253.571	5.25
253.947	5.23
254.322	4.77
254.697	5.01
255.073	5.08
255.448	4.82
255.823	4.82
256.198	4.44
256.573	4.4
256.948	4.26
257.323	4.76
257.698	4.8
258.073	4.61
258.448	4.53
258.823	4.64
259.198	4.72
259.573	4.74
259.948	4.63
260.322	4.41
260.697	4.23
261.072	4.26
261.446	4.13
261.821	3.99
262.195	4.1
262.57	4.01
262.944	4.08
263.319	4.16
263.693	4.15
264.067	4.19
264.442	4.26
264.816	4.34
265.19	4.01
265.564	3.78
265.938	3.83
266.313	3.7
266.687	3.53
267.061	3.49
267.435	3.5
267.809	3.45
268.183	3.5
268.556	3.3
268.93	3.27
269.304	3.43
269.678	3.61
270.051	3.58
270.425	3.55
270.799	3.47
271.172	3.49
271.546	3.54
271.919	3.73
272.293	3.64
272.666	3.69
273.04	3.81
273.413	3.78
273.787	3.83
274.16	3.84
274.533	3.93
274.906	4.12
275.279	4.17
275.653	4.39
276.026	4.45
276.399	4.41
276.772	4.51
277.145	4.5
277.518	4.42
277.891	4.39
278.263	4.58
278.636	4.54
279.009	4.65
279.382	4.57
279.755	4.5
280.127	4.43
280.5	4.26
280.872	4.34
281.245	4.4
281.617	4.33
281.99	4.28
282.362	4.22
282.735	4.12
283.107	4.02
283.479	4.03
283.852	4.03
284.224	4.04
284.596	3.97
284.968	3.77
285.34	3.73
285.713	3.73
286.085	3.57
286.457	3.62
286.829	3.53
287.201	3.51
287.572	3.46
287.944	3.6
288.316	3.71
288.688	3.55
289.06	3.52
289.431	3.59
289.803	3.7
290.175	3.79
290.546	3.77
290.918	3.81
291.289	3.65
291.661	3.69
292.032	3.77
292.403	3.79
292.775	3.95
293.146	4.05
293.517	4.06
293.889	4.06
294.26	4.16
294.631	4.17
295.002	4.24
295.373	4.21
295.744	4.18
296.115	4.21
296.486	4.24
296.857	4.35
297.228	4.28
297.599	4.26
297.97	4.19
298.34	4.16
298.711	4.23
299.082	4.13
299.452	4.04
299.823	4.12
300.194	4.13
300.564	4.04
300.935	4.03
301.305	4.11
301.676	4.1
302.046	4.06
302.416	4.11
302.787	4.17
303.157	4.21
303.527	4.27
303.897	4.14
304.267	4.13
304.637	3.98
305.008	3.97
305.378	3.9
305.748	3.84
306.117	3.85
306.487	3.85
306.857	4.18
307.227	4.23
307.597	4.14
307.967	4.17
308.336	4.11
308.706	4.11
309.076	4.03
309.445	4.17
309.815	4.06
310.184	3.93
310.554	3.93
310.923	3.83
311.293	3.74
311.662	3.83
312.031	3.92
312.401	3.97
312.77	3.96
313.139	4
313.508	4.01
313.877	4.13
314.246	4.03
314.616	3.94
314.985	3.79
315.353	3.8
315.722	3.83
316.091	3.87
316.46	3.84
316.829	3.9
317.198	3.8
317.567	3.88
317.935	4.08
318.304	3.95
318.672	4.07
319.041	4.13
319.41	4.06
319.778	4.03
320.147	4.04
320.515	4.06
320.883	4.06
321.252	4.11
321.62	3.94
321.988	4
322.357	3.92
322.725	4.19
323.093	4.16
323.461	4.12
323.829	4.32
324.197	4.31
324.565	4.24
324.933	4.19
325.301	4.11
325.669	3.97
326.037	4.02
326.405	3.9
326.772	3.94
327.14	3.97
327.508	3.93
327.875	3.89
328.243	3.94
328.61	3.98
328.978	3.97
329.346	3.98
329.713	4.07
330.08	4.01
330.448	3.91
330.815	3.95
331.182	4.01
331.55	3.8
331.917	3.72
332.284	3.78
332.651	3.92
333.018	3.85
333.385	3.93
333.752	3.95
334.119	4.08
334.486	3.92
334.853	3.81
335.22	3.8
335.587	3.81
335.954	3.73
336.32	3.64
336.687	3.76
337.054	3.75
337.42	3.56
337.787	3.63
338.153	3.69
338.52	3.7
338.886	3.68
339.253	3.77
339.619	3.89
339.986	3.78
340.352	3.71
340.718	3.8
341.084	3.75
341.451	3.77
341.817	3.75
342.183	3.81
342.549	3.88
342.915	3.92
343.281	3.97
343.647	3.91
344.013	3.97
344.379	3.93
344.745	3.95
345.11	3.99
345.476	4.04
345.842	3.86
346.208	3.89
346.573	3.8
346.939	3.82
347.304	3.74
347.67	3.88
348.035	3.88
348.401	3.83
348.766	3.75
349.132	3.78
349.497	3.82
349.862	3.87
350.228	3.83
350.593	3.86
350.958	3.94
351.323	4.09
351.688	4.1
352.053	4.03
352.418	4.05
352.783	4.11
353.148	4.08
353.513	4.17
353.878	4.12
354.243	4.08
354.608	4.05
354.972	4.07
355.337	4.03
355.702	3.95
356.066	3.98
356.431	4.1
356.795	4.16
357.16	4.11
357.524	4.07
357.889	4.09
358.253	4.03
358.618	3.97
358.982	3.94
359.346	3.93
359.71	3.95
360.075	3.96
360.439	3.9
360.803	3.96
361.167	3.93
361.531	3.94
361.895	4
362.259	4.03
362.623	4.07
362.987	4.1
363.351	4.16
363.714	4.16
364.078	4.14
364.442	4.1
364.806	4.13
365.169	4.14
365.533	4.14
365.896	4.18
366.26	4.13
366.623	4.04
366.987	4.05
367.35	4.09
367.714	4.08
368.077	4.15
368.44	4.12
368.803	4.11
369.167	4.07
369.53	4.09
369.893	4.08
370.256	4.01
370.619	3.98
370.982	3.98
371.345	4.05
371.708	4.09
372.071	4.04
372.434	4.04
372.797	3.99
373.159	3.98
373.522	3.95
373.885	3.98
374.247	4.04
374.61	4.02
374.973	3.99
375.335	4
375.698	3.96
376.06	3.98
376.423	4.04
376.785	4.11
377.147	4.09
377.51	4.08
377.872	4.08
378.234	4.08
378.596	4.12
378.958	4.04
379.321	4.01
379.683	4.03
380.045	4.04
380.407	4.04
380.769	4
381.13	4.04
381.492	4.04
381.854	4.08
382.216	4.12
382.578	4.16
382.939	4.15
383.301	4.14
383.663	4.06
384.024	4.04
384.386	4.01
384.747	4.02
385.109	4.05
385.47	4.06
385.832	4.11
386.193	4.1
386.554	4.08
386.916	4.08
387.277	4.07
387.638	4.08
387.999	4.08
388.36	4.12
388.721	4.1
389.082	4.14
389.443	4.11
389.804	4.12
390.165	4.13
390.526	4.12
390.887	4.16
391.248	4.16
391.609	4.18
391.969	4.18
392.33	4.17
392.691	4.13
393.051	4.13
393.412	4.11
393.772	4.11
394.133	4.13
394.493	4.11
394.854	4.11
395.214	4.13
395.574	4.15
395.935	4.11
396.295	4.14
396.655	4.11
397.015	4.11
397.376	4.08
397.736	4.06
398.096	4.08
398.456	4.08
398.816	4.09
399.176	4.07
399.535	4.06
399.895	4.06
400.255	4.02
400.615	4.04
400.975	4.04
401.334	4.01
401.694	4.04
402.054	4.07
402.413	4.07
402.773	4.03
403.132	4
403.492	4.07
403.851	4.04
404.211	4.05
404.57	4.07
404.929	4.05
405.288	4.06
405.648	4.03
406.007	4.01
406.366	4.02
406.725	4.03
407.084	4.03
407.443	4.05
407.802	4.08
408.161	4.1
408.52	4.12
408.879	4.16
409.238	4.15
409.596	4.14
409.955	4.16
410.314	4.15
410.673	4.15
411.031	4.14
411.39	4.19
411.748	4.2
412.107	4.17
412.465	4.19
412.824	4.18
413.182	4.17
413.54	4.19
413.899	4.18
414.257	4.16
414.615	4.16
414.974	4.16
415.332	4.16
415.69	4.15
416.048	4.14
416.406	4.09
416.764	4.08
417.122	4.09
417.48	4.09
417.838	4.11
418.195	4.12
418.553	4.12
418.911	4.08
419.269	4.08
419.626	4.08
419.984	4.07
420.342	4.08
420.699	4.09
421.057	4.09
421.414	4.09
421.772	4.11
422.129	4.11
422.486	4.1
422.844	4.11
423.201	4.1
423.558	4.1
423.915	4.12
424.273	4.12
424.63	4.1
424.987	4.1
425.344	4.11
425.701	4.1
426.058	4.09
426.415	4.11
426.772	4.1
427.128	4.1
427.485	4.11
427.842	4.1
428.199	4.1
428.555	4.09
428.912	4.09
429.269	4.06
429.625	4.07
429.982	4.07
430.338	4.08
430.695	4.08
431.051	4.07
431.407	4.08
431.764	4.09
432.12	4.11
432.476	4.12
432.832	4.13
433.189	4.12
433.545	4.11
433.901	4.11
434.257	4.12
434.613	4.1
434.969	4.09
435.325	4.1
435.681	4.09
436.036	4.09
436.392	4.12
436.748	4.14
437.104	4.13
437.459	4.13
437.815	4.12
438.171	4.13
438.526	4.13
438.882	4.14
439.237	4.13
439.593	4.14
439.948	4.12
440.304	4.1
440.659	4.1
441.014	4.1
441.369	4.11
441.725	4.11
442.08	4.12
442.435	4.14
442.79	4.15
443.145	4.15
443.5	4.15
443.855	4.13
444.21	4.12
444.565	4.12
444.92	4.12
445.275	4.11
445.629	4.09
445.984	4.08
446.339	4.06
446.693	4.08
447.048	4.06
447.403	4.07
447.757	4.06
448.112	4.07
448.466	4.08
448.82	4.06
449.175	4.07
449.529	4.09
449.883	4.07
450.238	4.05
450.592	4.06
450.946	4.06
451.3	4.08
451.654	4.07
452.008	4.07
452.362	4.06
452.716	4.07
453.07	4.08
453.424	4.08
453.778	4.1
454.132	4.11
454.486	4.12
454.839	4.13
455.193	4.13
455.547	4.15
455.9	4.14
456.254	4.14
456.607	4.13
456.961	4.13
457.314	4.13
457.668	4.12
458.021	4.12
458.375	4.12
458.728	4.11
459.081	4.13
459.434	4.12
459.787	4.14
460.141	4.12
460.494	4.14
460.847	4.14
461.2	4.13
461.553	4.12
461.906	4.12
462.259	4.11
462.611	4.11
462.964	4.11
463.317	4.13
463.67	4.14
464.022	4.17
464.375	4.17
464.728	4.18
465.08	4.19
465.433	4.19
465.785	4.18
466.138	4.19
466.49	4.16
466.843	4.18
467.195	4.19
467.547	4.2
467.899	4.18
468.252	4.2
468.604	4.2
468.956	4.2
469.308	4.21
469.66	4.23
470.012	4.24
470.364	4.23
470.716	4.23
471.068	4.24
471.42	4.22
471.772	4.23
472.123	4.23
472.475	4.24
472.827	4.25
473.178	4.26
473.53	4.27
473.882	4.3
474.233	4.28
474.585	4.28
474.936	4.28
475.288	4.28
475.639	4.31
475.99	4.3
476.342	4.32
476.693	4.3
477.044	4.29
477.395	4.28
477.746	4.28
478.097	4.28
478.448	4.27
478.8	4.27
479.15	4.25
479.501	4.24
479.852	4.23
480.203	4.24
480.554	4.26
480.905	4.27
481.255	4.27
481.606	4.29
481.957	4.31
482.307	4.32
482.658	4.34
483.009	4.33
483.359	4.34
483.709	4.34
484.06	4.36
484.41	4.36
484.761	4.37
485.111	4.37
485.461	4.37
485.811	4.37
486.162	4.37
486.512	4.38
486.862	4.39
487.212	4.4
487.562	4.39
487.912	4.4
488.262	4.39
488.612	4.38
488.961	4.37
489.311	4.37
489.661	4.37
490.011	4.36
490.36	4.36
490.71	4.36
491.06	4.35
491.409	4.35
491.759	4.34
492.108	4.34
492.458	4.33
492.807	4.33
493.157	4.33
493.506	4.34
493.855	4.36
494.204	4.35
494.554	4.36
494.903	4.36
495.252	4.36
495.601	4.36
495.95	4.38
496.299	4.38
496.648	4.4
496.997	4.41
497.346	4.42
497.695	4.44
498.043	4.46
498.392	4.47
498.741	4.47
499.09	4.49
499.438	4.5
499.787	4.5
500.135	4.5
500.484	4.51
500.832	4.51
501.181	4.52
501.529	4.53
501.878	4.53
502.226	4.53
502.574	4.54
502.923	4.55
503.271	4.56
503.619	4.57
503.967	4.55
504.315	4.54
504.663	4.54
505.011	4.51
505.359	4.47
505.707	4.48
506.055	4.51
506.403	4.52
506.751	4.51
507.098	4.55
507.446	4.57
507.794	4.58
508.141	4.59
508.489	4.58
508.837	4.57
509.184	4.56
509.531	4.58
509.879	4.57
510.226	4.58
510.574	4.59
510.921	4.59
511.268	4.59
511.616	4.61
511.963	4.62
512.31	4.64
512.657	4.65
513.004	4.65
513.351	4.66
513.698	4.67
514.045	4.68
514.392	4.68
514.739	4.69
515.086	4.69
515.432	4.71
515.779	4.74
516.126	4.77
516.473	4.77
516.819	4.77
517.166	4.79
517.512	4.82
517.859	4.84
518.205	4.83
518.552	4.85
518.898	4.85
519.245	4.86
519.591	4.86
519.937	4.86
520.283	4.88
520.629	4.88
520.976	4.86
521.322	4.88
521.668	4.88
522.014	4.89
522.36	4.89
522.706	4.88
523.052	4.88
523.398	4.86
523.743	4.88
524.089	4.9
524.435	4.9
524.781	4.9
525.126	4.89
525.472	4.92
525.817	4.93
526.163	4.93
526.509	4.94
526.854	4.95
527.199	4.97
527.545	4.97
527.89	4.99
528.235	4.98
528.581	4.99
528.926	5
529.271	4.99
529.616	5
529.961	5.01
530.306	5.01
530.651	5.02
530.996	5.02
531.341	5.02
531.686	5.03
532.031	5.04
532.376	5.05
532.721	5.04
533.065	5.05
533.41	5.05
533.755	5.04
534.099	5.05
534.444	5.04
534.788	5.03
535.133	5.02
535.477	5.03
535.822	5.03
536.166	5.03
536.51	5.04
536.855	5.03
537.199	5.01
537.543	5.02
537.887	5.02
538.231	5.02
538.576	5.02
538.92	5
539.264	5
539.608	5.01
539.951	5.01
540.295	4.99
540.639	5.02
540.983	5.02
541.327	5.02
541.671	5.02
542.014	5.03
542.358	5.04
542.701	5.04
543.045	5.03
543.389	5.03
543.732	5.02
544.075	5.04
544.419	5.05
544.762	5.06
545.105	5.08
545.449	5.08
545.792	5.1
546.135	5.11
546.478	5.11
546.821	5.12
547.165	5.15
547.508	5.17
547.851	5.15
548.194	5.16
548.536	5.17
548.879	5.17
549.222	5.16
549.565	5.15
549.908	5.15
550.25	5.14
550.593	5.12
550.936	5.15
551.278	5.16
551.621	5.15
551.963	5.15
552.306	5.18
552.648	5.19
552.991	5.18
553.333	5.16
553.675	5.16
554.017	5.14
554.36	5.1
554.702	5.08
555.044	5.08
555.386	5.08
555.728	5.07
556.07	5.05
556.412	5.07
556.754	5.09
557.096	5.12
557.438	5.14
557.78	5.15
558.121	5.14
558.463	5.13
558.805	5.13
559.147	5.12
559.488	5.06
559.83	5.04
560.171	5.04
560.513	5.05
560.854	5.07
561.196	5.1
561.537	5.13
561.878	5.15
562.22	5.13
562.561	5.14
562.902	5.12
563.243	5.15
563.584	5.13
563.925	5.15
564.266	5.13
564.607	5.13
564.948	5.14
565.289	5.16
565.63	5.14
565.971	5.16
566.312	5.16
566.653	5.18
566.993	5.19
567.334	5.17
567.675	5.19
568.015	5.19
568.356	5.17
568.696	5.13
569.037	5.13
569.377	5.14
569.718	5.16
570.058	5.19
570.398	5.2
570.739	5.21
571.079	5.21
571.419	5.21
571.759	5.24
572.099	5.21
572.439	5.19
572.779	5.2
573.119	5.2
573.459	5.21
573.799	5.21
574.139	5.22
574.479	5.23
574.819	5.22
575.158	5.23
575.498	5.22
575.838	5.27
576.177	5.26
576.517	5.28
576.856	5.24
577.196	5.25
577.535	5.24
577.875	5.25
578.214	5.23
578.553	5.24
578.893	5.25
579.232	5.29
579.571	5.33
579.91	5.31
580.25	5.29
580.589	5.25
580.928	5.26
581.267	5.24
581.606	5.26
581.945	5.23
582.283	5.23
582.622	5.19
582.961	5.18
583.3	5.16
583.639	5.15
583.977	5.17
584.316	5.17
584.654	5.21
584.993	5.2
585.332	5.21
585.67	5.24
586.008	5.23
586.347	5.24
586.685	5.22
587.024	5.24
587.362	5.29
587.7	5.35
588.038	5.36
588.376	5.38
588.715	5.37
589.053	5.42
589.391	5.44
589.729	5.46
590.067	5.46
590.404	5.5
590.742	5.49
591.08	5.49
591.418	5.43
591.756	5.44
592.093	5.42
592.431	5.46
592.769	5.43
593.106	5.44
593.444	5.47
593.781	5.46
594.119	5.45
594.456	5.44
594.793	5.4
595.131	5.38
595.468	5.41
595.805	5.43
596.143	5.41
596.48	5.4
596.817	5.44
597.154	5.47
597.491	5.45
597.828	5.47
598.165	5.47
598.502	5.49
598.839	5.48
599.176	5.5
599.512	5.48
599.849	5.48
600.186	5.48
600.523	5.47
600.859	5.48
601.196	5.49
601.532	5.51
601.869	5.53
602.205	5.56
602.542	5.55
602.878	5.53
603.215	5.52
603.551	5.49
603.887	5.47
604.223	5.43
604.56	5.44
604.896	5.44
605.232	5.44
605.568	5.49
605.904	5.5
606.24	5.5
606.576	5.51
606.912	5.54
607.248	5.53
607.583	5.52
607.919	5.52
608.255	5.54
608.591	5.57
608.926	5.54
609.262	5.52
609.597	5.54
609.933	5.54
610.268	5.61
610.604	5.63
610.939	5.68
611.275	5.73
611.61	5.74
611.945	5.73
612.281	5.73
612.616	5.73
612.951	5.72
613.286	5.72
613.621	5.7
613.956	5.71
614.291	5.71
614.626	5.71
614.961	5.72
615.296	5.68
615.631	5.65
615.966	5.69
616.3	5.69
616.635	5.69
616.97	5.7
617.304	5.67
617.639	5.69
617.973	5.66
618.308	5.64
618.642	5.6
618.977	5.61
619.311	5.65
619.646	5.61
619.98	5.59
620.314	5.58
620.648	5.6
620.983	5.58
621.317	5.57
621.651	5.55
621.985	5.53
622.319	5.54
622.653	5.53
622.987	5.52
623.321	5.52
623.655	5.47
623.988	5.51
624.322	5.46
624.656	5.46
624.99	5.47
625.323	5.48
625.657	5.56
625.99	5.57
626.324	5.52
626.657	5.53
626.991	5.54
627.324	5.55
627.658	5.52
627.991	5.56
628.324	5.57
628.657	5.59
628.991	5.62
629.324	5.62
629.657	5.65
629.99	5.66
630.323	5.64
630.656	5.69
630.989	5.63
631.322	5.67
631.655	5.65
631.987	5.66
632.32	5.62
632.653	5.6
632.986	5.57
633.318	5.59
633.651	5.59
633.984	5.6
634.316	5.65
634.649	5.64
634.981	5.6
635.313	5.58
635.646	5.56
635.978	5.54
636.31	5.56
636.643	5.56
636.975	5.57
637.307	5.62
637.639	5.6
637.971	5.6
638.303	5.58
638.635	5.58
638.967	5.59
639.299	5.61
639.631	5.62
639.963	5.68
640.295	5.74
640.626	5.73
640.958	5.74
641.29	5.71
641.621	5.8
641.953	5.82
642.285	5.88
642.616	5.95
642.948	5.98
643.279	5.99
643.61	6.03
643.942	6.04
644.273	6.01
644.604	6.02
644.936	6.01
645.267	6.03
645.598	6.07
645.929	6
646.26	6.01
646.591	5.99
646.922	6.07
647.253	5.97
647.584	6.03
647.915	6.01
648.245	6.05
648.576	6.03
648.907	6.1
649.238	6.08
649.568	6.1
649.899	6.14
650.229	6.15
650.56	6.1
650.89	6.16
651.221	6.18
651.551	6.23
651.882	6.25
652.212	6.25
652.542	6.23
652.872	6.31
653.203	6.32
653.533	6.41
653.863	6.32
654.193	6.35
654.523	6.33
654.853	6.38
655.183	6.37
655.513	6.35
655.843	6.25
656.172	6.31
656.502	6.25
656.832	6.19
657.162	6.25
657.491	6.23
657.821	6.18
658.15	6.24
658.48	6.28
658.809	6.29
659.139	6.33
659.468	6.32
659.798	6.34
660.127	6.3
660.456	6.22
660.785	6.23
661.115	6.26
661.444	6.27
661.773	6.28
662.102	6.21
662.431	6.29
662.76	6.29
663.089	6.28
663.418	6.28
663.747	6.26
664.076	6.2
664.404	6.18
664.733	6.19
665.062	6.11
665.39	6.05
665.719	6.09
666.048	6.04
666.376	6.08
666.705	5.99
667.033	6.06
667.362	6.04
667.69	6.07
668.018	6.08
668.347	6.05
668.675	5.96
669.003	6.02
669.331	5.99
669.659	6
669.987	5.93
670.315	5.92
670.643	5.94
670.971	5.92
671.299	5.95
671.627	5.99
671.955	6.02
672.283	6.04
672.61	6.04
672.938	6.13
673.266	6.09
673.593	6.12
673.921	6.08
674.249	6.18
674.576	6.15
674.904	6.11
675.231	6.08
675.558	6.2
675.886	6.22
676.213	6.18
676.54	6.2
676.867	6.23
677.195	6.31
677.522	6.31
677.849	6.34
678.176	6.37
678.503	6.3
678.83	6.36
679.157	6.39
679.484	6.36
679.81	6.36
680.137	6.47
680.464	6.51
680.791	6.53
681.117	6.5
681.444	6.55
681.771	6.61
682.097	6.66
682.424	6.61
682.75	6.6
683.077	6.54
683.403	6.58
683.729	6.65
684.056	6.6
684.382	6.61
684.708	6.65
685.034	6.65
685.36	6.67
685.686	6.66
686.012	6.6
686.339	6.51
686.664	6.48
686.99	6.35
687.316	6.38
687.642	6.38
687.968	6.36
688.294	6.29
688.619	6.36
688.945	6.39
689.271	6.41
689.596	6.43
689.922	6.45
690.247	6.37
690.573	6.36
690.898	6.43
691.224	6.49
691.549	6.49
691.874	6.5
692.2	6.54
692.525	6.55
692.85	6.63
693.175	6.73
693.5	6.7
693.825	6.75
694.15	6.71
694.475	6.68
694.8	6.74
695.125	6.69
695.45	6.53
695.775	6.44
696.099	6.49
696.424	6.51
696.749	6.62
697.073	6.64
697.398	6.69
697.723	6.61
698.047	6.58
698.372	6.54
698.696	6.55
699.02	6.58
699.345	6.52
699.669	6.57
699.993	6.53
700.318	6.53
700.642	6.47
700.966	6.56
701.29	6.62
701.614	6.66
701.938	6.72
702.262	6.75
702.586	6.85
702.91	6.92
703.234	6.91
703.557	6.91
703.881	6.95
704.205	6.93
704.529	7.01
704.852	7.05
705.176	7.12
705.499	7.04
705.823	7.14
706.146	7.24
706.47	7.23
706.793	7.34
707.117	7.42
707.44	7.52
707.763	7.42
708.086	7.49
708.409	7.4
708.733	7.4
709.056	7.35
709.379	7.34
709.702	7.32
710.025	7.28
710.348	7.25
710.671	7.31
710.993	7.18
711.316	7.21
711.639	7.07
711.962	7.03
712.284	7.15
712.607	7.1
712.93	7.1
713.252	6.98
713.575	7.05
713.897	6.94
714.22	6.97
714.542	7.01
714.864	6.75
715.187	6.74
715.509	6.84
715.831	6.83
716.153	6.86
716.475	6.82
716.798	6.86
717.12	6.89
717.442	6.73
717.764	6.87
718.085	6.83
718.407	7.01
718.729	7.03
719.051	7.01
719.373	7.09
719.695	7.03
720.016	6.98
720.338	6.95
720.659	7.12
720.981	6.97
721.302	7.05
721.624	7.25
721.945	7.18
722.267	7.11
722.588	7.15
722.909	7.08
723.231	7.17
723.552	7.15
723.873	7
724.194	7.16
724.515	7.11
724.836	7.17
725.157	7
725.478	6.97
725.799	6.82
726.12	6.59
726.441	6.51
726.762	6.75
727.083	6.72
727.403	6.68
727.724	6.74
728.045	6.77
728.365	6.8
728.686	6.92
729.006	7
729.327	7.08
729.647	7.2
729.967	7.07
730.288	7.1
730.608	7.27
730.928	7.26
731.249	7.41
731.569	7.36
731.889	7.36
732.209	7.33
732.529	7.42
732.849	7.49
733.169	7.33
733.489	7.1
733.809	6.96
734.129	6.96
734.448	7.06
734.768	6.96
735.088	6.81
735.408	7.01
735.727	6.89
736.047	6.91
736.366	6.91
736.686	6.99
737.005	7.05
737.325	6.99
737.644	6.95
737.963	6.75
738.283	6.75
738.602	6.99
738.921	7.36
739.24	7.43
739.56	7.53
739.879	7.71
740.198	7.95
740.517	8
740.836	7.97
741.155	7.83
741.473	7.82
741.792	8.07
742.111	7.82
742.43	8.09
742.748	8.28
743.067	8.2
743.386	8.16
743.704	8.16
744.023	8.2
744.341	8.05
744.66	8.11
744.978	7.98
745.297	7.8
745.615	7.35
745.933	7.66
746.252	7.58
746.57	7.65
746.888	7.71
747.206	7.78
747.524	7.74
747.842	7.74
748.16	7.89
748.478	7.94
748.796	7.87
749.114	7.64
749.432	7.39
749.749	7.22
750.067	7.24
750.385	7.03
750.703	7
751.02	7.23
751.338	7.15
751.655	7.32
751.973	7.38
752.29	7.56
752.608	7.15
752.925	7.27
753.242	7.16
753.56	7.02
753.877	6.93
754.194	7.07
754.511	7.22
754.828	6.87
755.145	6.66
755.462	6.77
755.779	6.83
756.096	6.76
756.413	7.14
756.73	7.08
757.047	7.05
757.364	7.17
757.68	7.09
757.997	7.35
758.314	7.36
758.63	7.29
758.947	7.34
759.264	7.48
759.58	7.5
759.896	7.72
760.213	7.95
760.529	7.99
760.846	7.99
761.162	7.9
761.478	8.18
761.794	8.49
762.11	8.34
762.426	8.47
762.743	8.59
763.059	8.43
763.375	8.57
763.69	8.67
764.006	8.61
764.322	8.59
764.638	8.64
764.954	8.84
765.27	8.91
765.585	8.72
765.901	8.69
766.216	8.64
766.532	8.47
766.848	8.3
767.163	8.25
767.478	8.15
767.794	8.04
768.109	7.98
768.424	7.81
768.74	8.01
769.055	8.04
769.37	8.06
769.685	8.03
770	7.89
770.315	8.04
770.63	8.11
770.945	8.31
771.26	8.16
771.575	7.75
771.89	7.64
772.205	7.85
772.52	7.99
772.834	7.87
773.149	7.9
773.464	7.97
773.778	8.13
774.093	8.18
774.407	8.71
774.722	8.52
775.036	8.62
775.351	8.66
775.665	8.45
775.979	8.31
776.293	8.33
776.608	8.45
776.922	8.37
777.236	7.97
777.55	7.67
777.864	7.66
778.178	8
778.492	7.86
778.806	7.98
779.12	7.51
779.434	7.65
779.747	7.89
780.061	7.86
780.375	8.08
780.689	8.11
781.002	7.7
781.316	7.89
781.629	7.74
781.943	7.54
782.256	7.51
782.57	7.45
782.883	7.85
783.196	7.39
783.51	7.04
783.823	7.5
784.136	7.99
784.449	7.66
784.762	7.56
785.075	7.98
785.388	8.07
785.701	8.14
786.014	8.03
786.327	7.93
786.64	8.04
786.953	7.94
787.266	7.94
787.578	8.02
787.891	7.81
788.204	7.64
788.516	7.72
788.829	7.86
789.141	8.59
789.454	8.31
789.766	8.61
790.079	8.69
790.391	8.9
790.703	8.72
791.016	9
791.328	8.93
791.64	8.79
791.952	8.72
792.264	8.75
792.576	9.22
792.888	9.06
793.2	9.06
793.512	8.76
793.824	8.73
794.136	8.94
794.448	9.59
794.76	9.59
795.071	9.56
795.383	9.54
795.695	9.17
796.006	9.4
796.318	9.63
796.629	9.81
796.941	9.45
797.252	9.3
797.564	9.47
797.875	9.24
798.186	9.38
798.497	9.23
798.809	9.73
799.12	9.4
799.431	9.63
799.742	9.82
800.053	10.24
800.364	10.54
800.675	10.77
800.986	10.17
801.297	10.51
801.608	10.74
801.918	11.09
802.229	11.07
802.54	10.96
802.851	10.94
803.161	11.18
803.472	11.1
803.782	11.31
804.093	10.72
804.403	11.16
804.714	11.56
805.024	11.4
805.334	11.16
805.645	11.17
805.955	11.4
806.265	11.39
806.575	11.22
806.885	10.78
807.195	10.52
807.505	11.21
807.815	10.86
808.125	10.75
808.435	10.4
808.745	10.01
809.055	9.6
809.365	9.42
809.674	9.27
809.984	10.04
810.294	9.11
810.603	9.44
810.913	9.25
811.222	8.83
811.532	8.86
811.841	9.5
812.151	9.31
812.46	9.29
812.769	8.77
813.079	8.66
813.388	9.33
813.697	9.14
814.006	8.84
814.315	9.66
814.624	9.53
814.933	9.7
815.242	10.28
815.551	10.88
815.86	11.21
816.169	10.82
816.478	10.1
816.786	10.62
817.095	10.87
817.404	10.81
817.712	11.05
818.021	11.17
818.33	10.28
818.638	10.65
818.947	10.64
819.255	11.05
819.563	10.66
819.872	10.55
820.18	10.77
820.488	10.8
820.796	10.47
821.105	10.78
821.413	10.53
821.721	10.43
822.029	10.39
822.337	10.32
822.645	10.44
822.953	10.46
823.26	10.65
823.568	10.65
823.876	10.71
824.184	10.64
824.491	10.71
824.799	10.85
825.107	10.79
825.414	10.72
825.722	10.58
826.029	10.75
826.337	10.72
826.644	10.68
826.951	10.66
827.259	10.89
827.566	10.76
827.873	10.85
828.18	10.75
828.488	10.62
828.795	10.7
829.102	10.63
829.409	10.56
829.716	10.52
830.023	10.76
830.329	10.55
830.636	10.39
830.943	10.21
831.25	10.39
831.557	10.22
831.863	10.16
832.17	10.31
832.476	10.3
832.783	10.13
833.089	9.83
833.396	10.03
833.702	9.62
834.009	9.42
834.315	9.63
834.621	9.89
834.928	10.23
835.234	10.21
835.54	10.56
835.846	10.48
836.152	10.4
836.458	10.31
836.764	10.49
837.07	10.96
837.376	10.77
837.682	10.08
837.988	10.18
838.293	9.89
838.599	9.87
838.905	9.8
839.211	10.08
839.516	10.61
839.822	10.37
840.127	10.38
840.433	10.57
840.738	10.17
841.044	10.3
841.349	10.33
841.654	9.45
841.959	8.92
842.265	9.21
842.57	8.77
842.875	8.3
843.18	7.96
843.485	7.57
843.79	7.67
844.095	8.17
844.4	8.4
844.705	9.17
845.01	9.18
845.315	9
845.619	9.82
845.924	9
846.229	9.26
846.533	9.17
846.838	8.71
847.142	8.04
847.447	7.63
847.751	7.68
848.056	7.79
848.36	9.27
848.664	9.48
848.969	8.57
849.273	7.2
849.577	8.48
849.881	6.19
850.185	6.53
850.489	7.57
850.794	7.55
851.097	8.55
851.401	8.62
851.705	8.73
852.009	7.8
852.313	6.93
852.617	5.9
852.92	6.58
853.224	7.28
853.528	7.84
853.831	9.75
854.135	8.69
854.438	8.9
854.742	7.07
855.045	5.09
855.349	4.62
855.652	6.24
855.955	6.85
856.259	10.41
856.562	11.09
856.865	9.34
857.168	8.4
857.471	8.01
857.774	7.49
858.077	7.15
858.38	7.1
858.683	8.46
858.986	9.07
859.289	9.35
859.592	10.02
859.894	10.79
860.197	8.44
860.5	8.52
860.802	9.82
861.105	10.22
861.407	12.35
861.71	12.76
862.012	12.69
862.315	12.19
862.617	11.62
862.919	10.05
863.222	10
863.524	11.45
863.826	10.87
864.128	12.01
864.43	12.91
864.732	12.43
865.034	13.25
865.336	12.38
865.638	10.44
865.94	9.58
866.242	9.48
866.544	11.03
866.846	10.07
867.147	11.16
867.449	11.68
867.751	10.92
868.052	12.05
868.354	11.83
868.655	10.44
868.957	10.84
869.258	12.83
869.56	13.85
869.861	12.94
870.162	13.79
870.463	12.72
870.765	13.21
871.066	13.43
871.367	11.42
871.668	11.09
871.969	11.66
872.27	12.02
872.571	12.66
872.872	11.22
873.173	12.77
873.473	11.22
873.774	12.58
874.075	14.32
874.376	15.43
874.676	16.84
874.977	17.56
875.277	16.62
875.578	16.84
875.878	17.07
876.179	17.48
876.479	17.06
876.78	17.89
877.08	17.51
877.38	17.85
877.68	20.79
877.981	21.93
878.281	23.89
878.581	24.03
