Data from BU26939_Reflection_00003.txt Node
Date: Tue Nov 19 10:56:36 EST 2019
User: vgr7
Spectrometer: USB2G7710
Scans to average: 3
Trigger mode: 4
Integration Time (sec): 2.000000E-2
Electric dark correction enabled: true
Boxcar width: 10
XAxis mode: Wavelengths
Number of Pixels in Spectrum: 2048
>>>>>Begin Spectral Data<<<<<
177.721	-80.94
178.105	-91.49
178.488	-182.87
178.871	-95.45
179.254	-144.44
179.636	107.46
180.019	261.29
180.402	64.71
180.785	50.94
181.168	103.18
181.55	766.67
181.933	-293.94
182.316	184.75
182.698	-270.37
183.081	-185.71
183.463	410.34
183.846	193.02
184.228	-88.03
184.611	-116.93
184.993	-53.42
185.376	-31.83
185.758	-36.78
186.14	-46.48
186.522	-4.69
186.904	16.92
187.287	3.9
187.669	26.03
188.051	13.91
188.433	17.36
188.815	12.05
189.197	-12.86
189.579	0.18
189.961	-9.4
190.342	-9.53
190.724	-13.5
191.106	-8.59
191.488	-18.78
191.869	-14.6
192.251	-8.6
192.633	-2.5
193.014	-1.1
193.396	-10.99
193.777	-9.17
194.159	-9.72
194.54	-22.88
194.922	-34.72
195.303	-28.65
195.684	-29.86
196.065	-31.75
196.447	-38.52
196.828	-38.86
197.209	-45.75
197.59	-58.73
197.971	-56.37
198.352	-61.53
198.733	-53.85
199.114	-49.58
199.495	-48.37
199.876	-58.5
200.257	-60.04
200.638	-56.55
201.018	-57.42
201.399	-50.96
201.78	-59.44
202.16	-70.32
202.541	-83.96
202.922	-66.88
203.302	-75.62
203.683	-66.44
204.063	-68.21
204.444	-62.49
204.824	-54.72
205.204	-38.04
205.585	-27.68
205.965	-32.6
206.345	-37.9
206.725	-30.94
207.106	-24.33
207.486	-25.41
207.866	-18.19
208.246	-12.12
208.626	-20.32
209.006	-28.17
209.386	-37.25
209.766	-32.96
210.145	-25.62
210.525	-19.81
210.905	-23.52
211.285	-23.17
211.664	-17.84
212.044	-17.96
212.424	-11.83
212.803	-15.93
213.183	-22.17
213.562	-24.42
213.942	-29.09
214.321	-26.4
214.701	-31.77
215.08	-40.94
215.459	-29.14
215.838	-40.5
216.218	-47.44
216.597	-30.85
216.976	-47.63
217.355	-40.72
217.734	-43.29
218.113	-28.94
218.492	-30.43
218.871	-23.58
219.25	-30.59
219.629	-61.66
220.008	-43.92
220.387	-52.81
220.766	-40.92
221.144	-38.66
221.523	-48.9
221.902	-37.56
222.28	-24.83
222.659	-9.77
223.037	1.42
223.416	-13.43
223.794	-7.11
224.173	0.54
224.551	-1.94
224.929	-0.06
225.308	4.9
225.686	-2.17
226.064	-4.39
226.442	0.25
226.821	-0.68
227.199	-0.12
227.577	0.73
227.955	0.18
228.333	-0.58
228.711	-0.23
229.089	-0.67
229.467	-0.09
229.845	0.62
230.222	0.69
230.6	-1.53
230.978	-2.51
231.356	-1.03
231.733	1.47
232.111	-2.37
232.488	-2.4
232.866	1.63
233.243	1.8
233.621	4.27
233.998	3.86
234.376	2
234.753	0.97
235.13	1.83
235.508	1.45
235.885	0.83
236.262	0.14
236.639	-0.5
237.016	0.58
237.393	2.42
237.77	1.96
238.147	2.08
238.524	1.33
238.901	1.16
239.278	0.84
239.655	0.68
240.032	1.58
240.409	0.96
240.785	0.57
241.162	0.03
241.539	0.02
241.915	0.19
242.292	0.75
242.668	1.48
243.045	1.94
243.421	2.12
243.798	2.38
244.174	2.52
244.551	2.61
244.927	2.4
245.303	2.09
245.679	2.18
246.056	2.1
246.432	2.17
246.808	2.16
247.184	2.32
247.56	1.94
247.936	1.77
248.312	1.9
248.688	1.97
249.064	1.97
249.44	1.68
249.815	1.54
250.191	1.36
250.567	1.35
250.943	1.15
251.318	1.02
251.694	0.59
252.069	0.58
252.445	0.31
252.82	0.39
253.196	0.42
253.571	0.28
253.947	0.33
254.322	0.51
254.697	0.58
255.073	0.48
255.448	0.82
255.823	1.25
256.198	1.04
256.573	1.28
256.948	1.56
257.323	1.93
257.698	2.13
258.073	2.23
258.448	2.38
258.823	2.32
259.198	2.46
259.573	2.51
259.948	2.42
260.322	2.41
260.697	2.32
261.072	2.32
261.446	2.37
261.821	2.22
262.195	2.07
262.57	2.09
262.944	2.11
263.319	2.22
263.693	2.19
264.067	2.28
264.442	2.11
264.816	1.92
265.19	1.7
265.564	1.7
265.938	1.87
266.313	1.57
266.687	1.36
267.061	1.5
267.435	1.76
267.809	2.04
268.183	2.06
268.556	1.99
268.93	1.89
269.304	2.03
269.678	2.25
270.051	2.46
270.425	2.49
270.799	2.35
271.172	2.24
271.546	2.27
271.919	2.3
272.293	2.41
272.666	2.48
273.04	2.64
273.413	2.59
273.787	2.31
274.16	2.4
274.533	2.6
274.906	2.41
275.279	2.38
275.653	2.42
276.026	2.4
276.399	2.37
276.772	2.33
277.145	2.28
277.518	2.04
277.891	2.13
278.263	2.15
278.636	2.29
279.009	2.45
279.382	2.4
279.755	2.39
280.127	2.29
280.5	2.35
280.872	2.39
281.245	2.52
281.617	2.69
281.99	2.7
282.362	2.71
282.735	2.79
283.107	2.71
283.479	2.58
283.852	2.73
284.224	2.95
284.596	2.98
284.968	2.94
285.34	3.01
285.713	3.02
286.085	2.88
286.457	2.96
286.829	2.81
287.201	2.76
287.572	2.87
287.944	3.01
288.316	3.08
288.688	3.07
289.06	2.92
289.431	2.91
289.803	2.88
290.175	2.86
290.546	2.78
290.918	2.7
291.289	2.61
291.661	2.61
292.032	2.46
292.403	2.48
292.775	2.5
293.146	2.47
293.517	2.28
293.889	2.24
294.26	2.22
294.631	2.26
295.002	2.36
295.373	2.34
295.744	2.18
296.115	2.19
296.486	2.02
296.857	2.1
297.228	2.05
297.599	2.06
297.97	2.11
298.34	2.11
298.711	2.18
299.082	2.2
299.452	2.11
299.823	2.17
300.194	2.23
300.564	2.27
300.935	2.34
301.305	2.22
301.676	2.36
302.046	2.36
302.416	2.37
302.787	2.34
303.157	2.28
303.527	2.41
303.897	2.26
304.267	2.42
304.637	2.39
305.008	2.37
305.378	2.38
305.748	2.31
306.117	2.37
306.487	2.28
306.857	2.42
307.227	2.49
307.597	2.44
307.967	2.36
308.336	2.23
308.706	2.31
309.076	2.46
309.445	2.47
309.815	2.45
310.184	2.38
310.554	2.32
310.923	2.28
311.293	2.19
311.662	2.28
312.031	2.28
312.401	2.2
312.77	2.24
313.139	2.16
313.508	2.08
313.877	2.13
314.246	2.18
314.616	2.13
314.985	2.04
315.353	2.09
315.722	2.12
316.091	2.1
316.46	1.95
316.829	1.91
317.198	1.83
317.567	1.8
317.935	1.81
318.304	1.84
318.672	1.9
319.041	1.95
319.41	1.87
319.778	1.89
320.147	2.01
320.515	2.07
320.883	2.07
321.252	2.16
321.62	2.04
321.988	2.12
322.357	2.23
322.725	2.21
323.093	2.17
323.461	2.26
323.829	2.33
324.197	2.34
324.565	2.39
324.933	2.36
325.301	2.25
325.669	2.24
326.037	2.1
326.405	2.12
326.772	2.1
327.14	2.11
327.508	2.1
327.875	2.04
328.243	1.92
328.61	2.04
328.978	1.99
329.346	2.09
329.713	2.04
330.08	2.05
330.448	2.14
330.815	2.16
331.182	2.16
331.55	2.06
331.917	2.01
332.284	1.96
332.651	2.06
333.018	2.11
333.385	2.19
333.752	2.38
334.119	2.35
334.486	2.39
334.853	2.41
335.22	2.37
335.587	2.27
335.954	2.26
336.32	2.1
336.687	2.22
337.054	2.1
337.42	2.18
337.787	2.1
338.153	2.21
338.52	2.2
338.886	2.09
339.253	2.14
339.619	2.15
339.986	2.14
340.352	2.11
340.718	2.16
341.084	2.19
341.451	2.14
341.817	2.16
342.183	2.13
342.549	2.19
342.915	2.25
343.281	2.36
343.647	2.46
344.013	2.52
344.379	2.46
344.745	2.48
345.11	2.39
345.476	2.37
345.842	2.29
346.208	2.3
346.573	2.38
346.939	2.38
347.304	2.51
347.67	2.61
348.035	2.57
348.401	2.56
348.766	2.51
349.132	2.62
349.497	2.62
349.862	2.56
350.228	2.57
350.593	2.58
350.958	2.71
351.323	2.74
351.688	2.76
352.053	2.74
352.418	2.78
352.783	2.85
353.148	2.89
353.513	2.9
353.878	2.82
354.243	2.8
354.608	2.88
354.972	2.73
355.337	2.68
355.702	2.74
356.066	2.82
356.431	2.81
356.795	2.7
357.16	2.68
357.524	2.76
357.889	2.72
358.253	2.67
358.618	2.56
358.982	2.48
359.346	2.53
359.71	2.58
360.075	2.56
360.439	2.52
360.803	2.48
361.167	2.48
361.531	2.55
361.895	2.55
362.259	2.57
362.623	2.65
362.987	2.64
363.351	2.63
363.714	2.59
364.078	2.56
364.442	2.58
364.806	2.61
365.169	2.52
365.533	2.53
365.896	2.6
366.26	2.61
366.623	2.66
366.987	2.66
367.35	2.62
367.714	2.63
368.077	2.63
368.44	2.71
368.803	2.66
369.167	2.58
369.53	2.56
369.893	2.55
370.256	2.51
370.619	2.47
370.982	2.43
371.345	2.46
371.708	2.51
372.071	2.5
372.434	2.43
372.797	2.57
373.159	2.54
373.522	2.5
373.885	2.5
374.247	2.52
374.61	2.52
374.973	2.54
375.335	2.6
375.698	2.64
376.06	2.62
376.423	2.62
376.785	2.67
377.147	2.64
377.51	2.57
377.872	2.62
378.234	2.68
378.596	2.72
378.958	2.68
379.321	2.67
379.683	2.67
380.045	2.72
380.407	2.64
380.769	2.67
381.13	2.66
381.492	2.66
381.854	2.65
382.216	2.66
382.578	2.67
382.939	2.61
383.301	2.61
383.663	2.6
384.024	2.62
384.386	2.62
384.747	2.65
385.109	2.71
385.47	2.73
385.832	2.71
386.193	2.7
386.554	2.68
386.916	2.7
387.277	2.68
387.638	2.7
387.999	2.72
388.36	2.73
388.721	2.72
389.082	2.75
389.443	2.76
389.804	2.77
390.165	2.75
390.526	2.76
390.887	2.78
391.248	2.78
391.609	2.83
391.969	2.88
392.33	2.88
392.691	2.85
393.051	2.84
393.412	2.87
393.772	2.9
394.133	2.93
394.493	2.95
394.854	2.99
395.214	2.98
395.574	2.96
395.935	2.94
396.295	2.94
396.655	2.91
397.015	2.93
397.376	2.91
397.736	2.9
398.096	2.92
398.456	2.89
398.816	2.87
399.176	2.82
399.535	2.8
399.895	2.83
400.255	2.83
400.615	2.83
400.975	2.82
401.334	2.82
401.694	2.84
402.054	2.81
402.413	2.79
402.773	2.8
403.132	2.78
403.492	2.8
403.851	2.82
404.211	2.83
404.57	2.83
404.929	2.82
405.288	2.86
405.648	2.83
406.007	2.85
406.366	2.89
406.725	2.93
407.084	2.91
407.443	2.93
407.802	2.95
408.161	2.97
408.52	2.97
408.879	2.97
409.238	2.95
409.596	2.97
409.955	3
410.314	2.99
410.673	3.03
411.031	3.03
411.39	3.02
411.748	3.04
412.107	3.04
412.465	3.04
412.824	3.01
413.182	3.03
413.54	3.01
413.899	2.99
414.257	2.96
414.615	2.97
414.974	2.93
415.332	2.93
415.69	2.91
416.048	2.91
416.406	2.91
416.764	2.92
417.122	2.91
417.48	2.91
417.838	2.94
418.195	2.94
418.553	2.94
418.911	2.94
419.269	2.93
419.626	2.94
419.984	2.95
420.342	2.97
420.699	2.97
421.057	2.98
421.414	2.98
421.772	3
422.129	2.99
422.486	3
422.844	3.01
423.201	3.01
423.558	3.02
423.915	3.01
424.273	3.02
424.63	3.02
424.987	3.03
425.344	3.02
425.701	3.02
426.058	3.03
426.415	3.03
426.772	3.05
427.128	3.03
427.485	3.03
427.842	3.02
428.199	3.04
428.555	3.04
428.912	3.04
429.269	3.02
429.625	3.03
429.982	3.04
430.338	3.05
430.695	3.04
431.051	3.05
431.407	3.06
431.764	3.05
432.12	3.1
432.476	3.08
432.832	3.09
433.189	3.07
433.545	3.08
433.901	3.06
434.257	3.05
434.613	3.07
434.969	3.09
435.325	3.09
435.681	3.09
436.036	3.1
436.392	3.1
436.748	3.12
437.104	3.14
437.459	3.12
437.815	3.12
438.171	3.13
438.526	3.13
438.882	3.13
439.237	3.13
439.593	3.12
439.948	3.12
440.304	3.1
440.659	3.13
441.014	3.12
441.369	3.14
441.725	3.16
442.08	3.15
442.435	3.14
442.79	3.14
443.145	3.13
443.5	3.13
443.855	3.14
444.21	3.13
444.565	3.13
444.92	3.16
445.275	3.15
445.629	3.16
445.984	3.15
446.339	3.15
446.693	3.16
447.048	3.14
447.403	3.15
447.757	3.15
448.112	3.14
448.466	3.15
448.82	3.15
449.175	3.13
449.529	3.15
449.883	3.16
450.238	3.15
450.592	3.15
450.946	3.14
451.3	3.16
451.654	3.16
452.008	3.15
452.362	3.13
452.716	3.12
453.07	3.1
453.424	3.12
453.778	3.13
454.132	3.14
454.486	3.15
454.839	3.15
455.193	3.15
455.547	3.17
455.9	3.18
456.254	3.2
456.607	3.2
456.961	3.18
457.314	3.17
457.668	3.19
458.021	3.2
458.375	3.22
458.728	3.2
459.081	3.21
459.434	3.21
459.787	3.23
460.141	3.24
460.494	3.25
460.847	3.26
461.2	3.25
461.553	3.24
461.906	3.24
462.259	3.24
462.611	3.25
462.964	3.24
463.317	3.25
463.67	3.24
464.022	3.24
464.375	3.26
464.728	3.26
465.08	3.24
465.433	3.25
465.785	3.24
466.138	3.25
466.49	3.25
466.843	3.28
467.195	3.26
467.547	3.26
467.899	3.26
468.252	3.25
468.604	3.27
468.956	3.29
469.308	3.3
469.66	3.31
470.012	3.31
470.364	3.33
470.716	3.32
471.068	3.34
471.42	3.35
471.772	3.33
472.123	3.35
472.475	3.36
472.827	3.35
473.178	3.37
473.53	3.38
473.882	3.36
474.233	3.36
474.585	3.37
474.936	3.37
475.288	3.37
475.639	3.38
475.99	3.36
476.342	3.35
476.693	3.35
477.044	3.35
477.395	3.34
477.746	3.32
478.097	3.33
478.448	3.33
478.8	3.33
479.15	3.36
479.501	3.35
479.852	3.35
480.203	3.37
480.554	3.36
480.905	3.36
481.255	3.37
481.606	3.38
481.957	3.4
482.307	3.4
482.658	3.4
483.009	3.41
483.359	3.43
483.709	3.44
484.06	3.44
484.41	3.44
484.761	3.45
485.111	3.45
485.461	3.45
485.811	3.45
486.162	3.46
486.512	3.46
486.862	3.47
487.212	3.48
487.562	3.47
487.912	3.46
488.262	3.47
488.612	3.47
488.961	3.48
489.311	3.47
489.661	3.47
490.011	3.47
490.36	3.46
490.71	3.46
491.06	3.45
491.409	3.44
491.759	3.45
492.108	3.45
492.458	3.45
492.807	3.43
493.157	3.43
493.506	3.43
493.855	3.42
494.204	3.41
494.554	3.4
494.903	3.4
495.252	3.4
495.601	3.4
495.95	3.4
496.299	3.38
496.648	3.36
496.997	3.36
497.346	3.38
497.695	3.39
498.043	3.38
498.392	3.4
498.741	3.4
499.09	3.41
499.438	3.42
499.787	3.42
500.135	3.43
500.484	3.43
500.832	3.42
501.181	3.41
501.529	3.44
501.878	3.45
502.226	3.46
502.574	3.47
502.923	3.46
503.271	3.45
503.619	3.46
503.967	3.46
504.315	3.47
504.663	3.43
505.011	3.41
505.359	3.41
505.707	3.42
506.055	3.41
506.403	3.41
506.751	3.4
507.098	3.42
507.446	3.43
507.794	3.44
508.141	3.46
508.489	3.48
508.837	3.46
509.184	3.46
509.531	3.46
509.879	3.46
510.226	3.47
510.574	3.49
510.921	3.51
511.268	3.53
511.616	3.52
511.963	3.53
512.31	3.54
512.657	3.53
513.004	3.52
513.351	3.54
513.698	3.54
514.045	3.56
514.392	3.56
514.739	3.55
515.086	3.56
515.432	3.56
515.779	3.55
516.126	3.57
516.473	3.55
516.819	3.56
517.166	3.56
517.512	3.55
517.859	3.53
518.205	3.51
518.552	3.5
518.898	3.51
519.245	3.52
519.591	3.54
519.937	3.54
520.283	3.57
520.629	3.56
520.976	3.56
521.322	3.56
521.668	3.54
522.014	3.55
522.36	3.54
522.706	3.55
523.052	3.57
523.398	3.57
523.743	3.58
524.089	3.61
524.435	3.62
524.781	3.63
525.126	3.64
525.472	3.64
525.817	3.66
526.163	3.66
526.509	3.67
526.854	3.68
527.199	3.69
527.545	3.69
527.89	3.69
528.235	3.7
528.581	3.7
528.926	3.71
529.271	3.72
529.616	3.73
529.961	3.73
530.306	3.73
530.651	3.73
530.996	3.73
531.341	3.73
531.686	3.73
532.031	3.73
532.376	3.74
532.721	3.75
533.065	3.75
533.41	3.74
533.755	3.74
534.099	3.72
534.444	3.72
534.788	3.7
535.133	3.7
535.477	3.7
535.822	3.7
536.166	3.71
536.51	3.68
536.855	3.67
537.199	3.68
537.543	3.69
537.887	3.69
538.231	3.71
538.576	3.71
538.92	3.72
539.264	3.72
539.608	3.73
539.951	3.72
540.295	3.72
540.639	3.73
540.983	3.73
541.327	3.75
541.671	3.75
542.014	3.77
542.358	3.77
542.701	3.77
543.045	3.78
543.389	3.79
543.732	3.81
544.075	3.82
544.419	3.81
544.762	3.8
545.105	3.79
545.449	3.78
545.792	3.79
546.135	3.8
546.478	3.79
546.821	3.8
547.165	3.81
547.508	3.82
547.851	3.81
548.194	3.8
548.536	3.79
548.879	3.78
549.222	3.78
549.565	3.78
549.908	3.75
550.25	3.75
550.593	3.74
550.936	3.72
551.278	3.72
551.621	3.73
551.963	3.73
552.306	3.75
552.648	3.76
552.991	3.72
553.333	3.7
553.675	3.72
554.017	3.72
554.36	3.73
554.702	3.72
555.044	3.73
555.386	3.75
555.728	3.77
556.07	3.79
556.412	3.78
556.754	3.78
557.096	3.81
557.438	3.82
557.78	3.8
558.121	3.81
558.463	3.8
558.805	3.81
559.147	3.83
559.488	3.82
559.83	3.82
560.171	3.83
560.513	3.84
560.854	3.86
561.196	3.85
561.537	3.86
561.878	3.86
562.22	3.89
562.561	3.89
562.902	3.88
563.243	3.86
563.584	3.85
563.925	3.87
564.266	3.87
564.607	3.86
564.948	3.87
565.289	3.9
565.63	3.9
565.971	3.88
566.312	3.87
566.653	3.87
566.993	3.87
567.334	3.89
567.675	3.89
568.015	3.87
568.356	3.86
568.696	3.85
569.037	3.85
569.377	3.86
569.718	3.84
570.058	3.84
570.398	3.87
570.739	3.89
571.079	3.91
571.419	3.93
571.759	3.94
572.099	3.92
572.439	3.88
572.779	3.89
573.119	3.89
573.459	3.88
573.799	3.88
574.139	3.89
574.479	3.9
574.819	3.91
575.158	3.94
575.498	3.94
575.838	3.94
576.177	3.94
576.517	3.9
576.856	3.91
577.196	3.94
577.535	3.93
577.875	3.93
578.214	3.91
578.553	3.87
578.893	3.86
579.232	3.89
579.571	3.92
579.91	3.92
580.25	3.94
580.589	3.97
580.928	3.98
581.267	3.98
581.606	3.96
581.945	3.97
582.283	3.94
582.622	3.91
582.961	3.94
583.3	3.95
583.639	3.96
583.977	3.98
584.316	3.95
584.654	3.94
584.993	3.92
585.332	3.93
585.67	3.95
586.008	3.96
586.347	3.97
586.685	3.94
587.024	3.96
587.362	3.95
587.7	3.97
588.038	4
588.376	4.02
588.715	4.02
589.053	4
589.391	3.99
589.729	4.01
590.067	4
590.404	4.02
590.742	4.04
591.08	4.06
591.418	4.06
591.756	4.04
592.093	4.07
592.431	4.06
592.769	4.05
593.106	4.05
593.444	4.08
593.781	4.12
594.119	4.11
594.456	4.11
594.793	4.06
595.131	4.05
595.468	4.07
595.805	4.07
596.143	4.07
596.48	4.11
596.817	4.12
597.154	4.14
597.491	4.14
597.828	4.15
598.165	4.07
598.502	4.07
598.839	4.11
599.176	4.12
599.512	4.13
599.849	4.13
600.186	4.14
600.523	4.13
600.859	4.13
601.196	4.17
601.532	4.17
601.869	4.19
602.205	4.18
602.542	4.2
602.878	4.21
603.215	4.21
603.551	4.16
603.887	4.16
604.223	4.15
604.56	4.13
604.896	4.11
605.232	4.16
605.568	4.18
605.904	4.16
606.24	4.15
606.576	4.15
606.912	4.14
607.248	4.13
607.583	4.14
607.919	4.11
608.255	4.1
608.591	4.14
608.926	4.14
609.262	4.11
609.597	4.1
609.933	4.08
610.268	4.08
610.604	4.1
610.939	4.17
611.275	4.19
611.61	4.19
611.945	4.21
612.281	4.2
612.616	4.2
612.951	4.24
613.286	4.22
613.621	4.22
613.956	4.24
614.291	4.25
614.626	4.27
614.961	4.27
615.296	4.22
615.631	4.21
615.966	4.18
616.3	4.26
616.635	4.25
616.97	4.27
617.304	4.27
617.639	4.3
617.973	4.26
618.308	4.25
618.642	4.25
618.977	4.21
619.311	4.25
619.646	4.23
619.98	4.24
620.314	4.25
620.648	4.23
620.983	4.27
621.317	4.32
621.651	4.3
621.985	4.32
622.319	4.34
622.653	4.32
622.987	4.38
623.321	4.35
623.655	4.34
623.988	4.34
624.322	4.36
624.656	4.34
624.99	4.3
625.323	4.31
625.657	4.32
625.99	4.37
626.324	4.34
626.657	4.35
626.991	4.37
627.324	4.34
627.658	4.37
627.991	4.37
628.324	4.33
628.657	4.31
628.991	4.31
629.324	4.28
629.657	4.28
629.99	4.3
630.323	4.28
630.656	4.3
630.989	4.34
631.322	4.33
631.655	4.36
631.987	4.42
632.32	4.41
632.653	4.42
632.986	4.37
633.318	4.41
633.651	4.41
633.984	4.42
634.316	4.44
634.649	4.45
634.981	4.44
635.313	4.46
635.646	4.49
635.978	4.48
636.31	4.57
636.643	4.61
636.975	4.62
637.307	4.65
637.639	4.59
637.971	4.56
638.303	4.55
638.635	4.53
638.967	4.49
639.299	4.46
639.631	4.49
639.963	4.52
640.295	4.55
640.626	4.55
640.958	4.54
641.29	4.6
641.621	4.57
641.953	4.53
642.285	4.57
642.616	4.59
642.948	4.63
643.279	4.58
643.61	4.58
643.942	4.58
644.273	4.58
644.604	4.62
644.936	4.65
645.267	4.62
645.598	4.66
645.929	4.74
646.26	4.72
646.591	4.71
646.922	4.72
647.253	4.6
647.584	4.55
647.915	4.52
648.245	4.46
648.576	4.45
648.907	4.48
649.238	4.42
649.568	4.41
649.899	4.36
650.229	4.41
650.56	4.41
650.89	4.43
651.221	4.49
651.551	4.53
651.882	4.57
652.212	4.63
652.542	4.62
652.872	4.56
653.203	4.62
653.533	4.64
653.863	4.59
654.193	4.69
654.523	4.75
654.853	4.85
655.183	4.86
655.513	4.92
655.843	4.91
656.172	5.01
656.502	4.97
656.832	4.96
657.162	4.93
657.491	4.93
657.821	4.88
658.15	4.84
658.48	4.83
658.809	4.82
659.139	4.78
659.468	4.84
659.798	4.91
660.127	4.9
660.456	4.88
660.785	4.9
661.115	4.95
661.444	4.97
661.773	4.92
662.102	4.94
662.431	4.9
662.76	4.9
663.089	4.85
663.418	4.93
663.747	4.99
664.076	4.99
664.404	4.95
664.733	4.95
665.062	5
665.39	5.04
665.719	5.05
666.048	5.07
666.376	5.04
666.705	4.92
667.033	4.94
667.362	4.93
667.69	5.01
668.018	4.97
668.347	4.91
668.675	4.88
669.003	4.86
669.331	4.96
669.659	4.99
669.987	4.97
670.315	4.92
670.643	4.91
670.971	4.9
671.299	4.93
671.627	4.9
671.955	4.79
672.283	4.69
672.61	4.67
672.938	4.71
673.266	4.63
673.593	4.61
673.921	4.57
674.249	4.6
674.576	4.56
674.904	4.55
675.231	4.63
675.558	4.69
675.886	4.72
676.213	4.67
676.54	4.72
676.867	4.77
677.195	4.82
677.522	4.84
677.849	4.87
678.176	4.89
678.503	4.91
678.83	4.93
679.157	5.03
679.484	5.08
679.81	5.11
680.137	5.22
680.464	5.24
680.791	5.32
681.117	5.38
681.444	5.33
681.771	5.31
682.097	5.31
682.424	5.25
682.75	5.28
683.077	5.31
683.403	5.31
683.729	5.32
684.056	5.33
684.382	5.34
684.708	5.33
685.034	5.38
685.36	5.38
685.686	5.41
686.012	5.35
686.339	5.37
686.664	5.36
686.99	5.26
687.316	5.3
687.642	5.27
687.968	5.26
688.294	5.37
688.619	5.43
688.945	5.44
689.271	5.47
689.596	5.5
689.922	5.44
690.247	5.36
690.573	5.33
690.898	5.35
691.224	5.4
691.549	5.39
691.874	5.35
692.2	5.41
692.525	5.44
692.85	5.49
693.175	5.46
693.5	5.38
693.825	5.43
694.15	5.48
694.475	5.52
694.8	5.51
695.125	5.45
695.45	5.35
695.775	5.35
696.099	5.39
696.424	5.38
696.749	5.39
697.073	5.44
697.398	5.48
697.723	5.51
698.047	5.53
698.372	5.61
698.696	5.58
699.02	5.58
699.345	5.59
699.669	5.53
699.993	5.54
700.318	5.61
700.642	5.65
700.966	5.66
701.29	5.73
701.614	5.65
701.938	5.74
702.262	5.82
702.586	5.9
702.91	5.87
703.234	5.71
703.557	5.71
703.881	5.67
704.205	5.61
704.529	5.62
704.852	5.52
705.176	5.56
705.499	5.66
705.823	5.59
706.146	5.64
706.47	5.74
706.793	5.7
707.117	5.64
707.44	5.54
707.763	5.44
708.086	5.29
708.409	5.49
708.733	5.43
709.056	5.46
709.379	5.25
709.702	5.32
710.025	5.6
710.348	5.68
710.671	5.68
710.993	5.63
711.316	5.6
711.639	5.61
711.962	5.57
712.284	5.44
712.607	5.51
712.93	5.46
713.252	5.38
713.575	5.33
713.897	5.34
714.22	5.3
714.542	5.45
714.864	5.45
715.187	5.42
715.509	5.4
715.831	5.41
716.153	5.6
716.475	5.6
716.798	5.49
717.12	5.39
717.442	5.46
717.764	5.46
718.085	5.4
718.407	5.47
718.729	5.28
719.051	5.48
719.373	5.64
719.695	5.63
720.016	5.76
720.338	5.94
720.659	5.99
720.981	6.07
721.302	6.11
721.624	6.11
721.945	6.06
722.267	6.02
722.588	5.97
722.909	5.83
723.231	5.81
723.552	5.83
723.873	5.96
724.194	5.98
724.515	6.19
724.836	6.19
725.157	6.2
725.478	6.39
725.799	6.29
726.12	6.19
726.441	6.25
726.762	6.23
727.083	6.1
727.403	6.08
727.724	6.11
728.045	6.09
728.365	6.17
728.686	6.16
729.006	6.25
729.327	6.34
729.647	6.49
729.967	6.5
730.288	6.35
730.608	6.42
730.928	6.52
731.249	6.44
731.569	6.5
731.889	6.52
732.209	6.48
732.529	6.33
732.849	6.47
733.169	6.35
733.489	6.2
733.809	6.17
734.129	6.27
734.448	6.31
734.768	6.08
735.088	6.03
735.408	5.86
735.727	5.78
736.047	5.69
736.366	5.64
736.686	5.64
737.005	5.85
737.325	5.64
737.644	5.4
737.963	5.41
738.283	5.53
738.602	5.61
738.921	5.78
739.24	5.87
739.56	5.81
739.879	5.71
740.198	5.95
740.517	6.02
740.836	5.76
741.155	5.8
741.473	6.01
741.792	6.19
742.111	6.35
742.43	6.58
742.748	6.66
743.067	6.64
743.386	6.57
743.704	6.57
744.023	6.78
744.341	6.85
744.66	6.86
744.978	6.97
745.297	6.63
745.615	6.3
745.933	6.41
746.252	6.4
746.57	6.8
746.888	6.66
747.206	6.66
747.524	6.84
747.842	6.63
748.16	6.7
748.478	6.6
748.796	6.87
749.114	6.7
749.432	6.55
749.749	6.51
750.067	6.49
750.385	6.59
750.703	6.56
751.02	6.42
751.338	6.33
751.655	6.05
751.973	6.18
752.29	6.21
752.608	6.14
752.925	6
753.242	5.78
753.56	5.74
753.877	5.73
754.194	5.93
754.511	6.04
754.828	5.9
755.145	5.82
755.462	5.73
755.779	5.8
756.096	5.95
756.413	6.05
756.73	6.19
757.047	5.85
757.364	5.82
757.68	6.04
757.997	6.24
758.314	6.19
758.63	6.34
758.947	6.48
759.264	6.56
759.58	6.43
759.896	6.62
760.213	6.92
760.529	6.97
760.846	6.68
761.162	6.73
761.478	7.01
761.794	7.11
762.11	6.91
762.426	6.82
762.743	6.85
763.059	6.82
763.375	6.82
763.69	7.07
764.006	7.14
764.322	7.18
764.638	7.19
764.954	7.24
765.27	7.19
765.585	7.12
765.901	7.16
766.216	7.31
766.532	7.22
766.848	7.07
767.163	7.09
767.478	7.27
767.794	7.29
768.109	7.13
768.424	7.04
768.74	7.03
769.055	7.24
769.37	7.15
769.685	7.19
770	7.28
770.315	7.18
770.63	7.16
770.945	7.44
771.26	7.36
771.575	7.43
771.89	7.21
772.205	7.36
772.52	7.32
772.834	7.29
773.149	7.31
773.464	7.15
773.778	6.9
774.093	6.83
774.407	6.83
774.722	6.7
775.036	6.94
775.351	7.27
775.665	7.01
775.979	6.95
776.293	6.81
776.608	6.4
776.922	6.15
777.236	6.27
777.55	5.78
777.864	5.66
778.178	5.69
778.492	5.91
778.806	5.86
779.12	5.83
779.434	5.93
779.747	5.9
780.061	6.28
780.375	6.78
780.689	6.96
781.002	7
781.316	7.12
781.629	7.39
781.943	7.22
782.256	7.19
782.57	7.46
782.883	7.94
783.196	8.62
783.51	8.75
783.823	8.6
784.136	8.61
784.449	8.85
784.762	9.1
785.075	9.28
785.388	9.4
785.701	9.51
786.014	9.23
786.327	9.38
786.64	9.14
786.953	8.93
787.266	9.06
787.578	8.96
787.891	9.17
788.204	9.04
788.516	8.76
788.829	9.16
789.141	9.24
789.454	8.96
789.766	8.63
790.079	8.95
790.391	8.71
790.703	9.06
791.016	9.13
791.328	8.91
791.64	9.02
791.952	9.14
792.264	8.58
792.576	9.05
792.888	8.93
793.2	8.96
793.512	9
793.824	8.83
794.136	8.73
794.448	8.53
794.76	8.18
795.071	8.29
795.383	8.08
795.695	7.77
796.006	7.77
796.318	7.75
796.629	7.69
796.941	8.25
797.252	8.09
797.564	7.71
797.875	7.79
798.186	7.85
798.497	7.14
798.809	7.58
799.12	7.72
799.431	7.7
799.742	7.47
800.053	7.35
800.364	7.4
800.675	7.68
800.986	7.83
801.297	8.28
801.608	8.19
801.918	8.52
802.229	8.79
802.54	8.54
802.851	8.5
803.161	8.11
803.472	7.92
803.782	7.86
804.093	7.99
804.403	8.04
804.714	8.05
805.024	8.86
805.334	8.69
805.645	8.57
805.955	8.78
806.265	9.49
806.575	9.66
806.885	9.59
807.195	9.89
807.505	9.91
807.815	9.41
808.125	10.01
808.435	9.99
808.745	9.69
809.055	9.82
809.365	9.59
809.674	10.09
809.984	10.12
810.294	10
810.603	9.41
810.913	9.02
811.222	8.39
811.532	8.63
811.841	9.42
812.151	9.39
812.46	9.26
812.769	8.42
813.079	8.74
813.388	8.65
813.697	7.84
814.006	7.7
814.315	7.61
814.624	7.59
814.933	7.43
815.242	7.68
815.551	8.17
815.86	9.01
816.169	8.36
816.478	8.21
816.786	8.1
817.095	8.73
817.404	8.87
817.712	9.55
818.021	8.74
818.33	7.95
818.638	8.19
818.947	8.09
819.255	8.42
819.563	8.26
819.872	8.35
820.18	8.65
820.488	8.9
820.796	9.23
821.105	9.37
821.413	9.37
821.721	9.33
822.029	9.38
822.337	9.41
822.645	9.51
822.953	9.53
823.26	9.61
823.568	9.72
823.876	9.79
824.184	9.71
824.491	9.8
824.799	9.92
825.107	9.9
825.414	9.83
825.722	9.83
826.029	9.84
826.337	9.95
826.644	10
826.951	9.95
827.259	9.86
827.566	9.76
827.873	9.7
828.18	9.76
828.488	9.7
828.795	9.8
829.102	9.91
829.409	9.84
829.716	9.9
830.023	9.87
830.329	9.9
830.636	9.92
830.943	9.9
831.25	9.92
831.557	9.79
831.863	10
832.17	9.86
832.476	9.93
832.783	9.75
833.089	9.68
833.396	9.67
833.702	9.77
834.009	9.65
834.315	9.86
834.621	9.91
834.928	9.24
835.234	9.07
835.54	8.39
835.846	8.84
836.152	8.89
836.458	8.7
836.764	9.28
837.07	9.13
837.376	8.85
837.682	8.97
837.988	9.17
838.293	9.46
838.599	9.66
838.905	10.06
839.211	10.16
839.516	10.42
839.822	10.89
840.127	10.11
840.433	10.24
840.738	9.63
841.044	9.61
841.349	10.91
841.654	9.7
841.959	11.04
842.265	10.73
842.57	10.79
842.875	10.91
843.18	9.05
843.485	9.34
843.79	9.71
844.095	9.66
844.4	9.48
844.705	9.12
845.01	10.69
845.315	10.76
845.619	11.14
845.924	9.25
846.229	8.49
846.533	9.96
846.838	9.64
847.142	10.49
847.447	10.73
847.751	10.17
848.056	11
848.36	11.92
848.664	10.58
848.969	9.69
849.273	10.25
849.577	10.86
849.881	10.95
850.185	9.85
850.489	8.79
850.794	9.25
851.097	9.8
851.401	7.49
851.705	6.54
852.009	5.87
852.313	6.54
852.617	5.82
852.92	5.08
853.224	6.4
853.528	4.94
853.831	7.32
854.135	7.69
854.438	7.3
854.742	5.89
855.045	6.11
855.349	5.79
855.652	3.98
855.955	4.09
856.259	2.65
856.562	4.95
856.865	5.38
857.168	5.09
857.471	4.52
857.774	4.77
858.077	3.81
858.38	3.61
858.683	4.5
858.986	5.12
859.289	5.4
859.592	5.94
859.894	7.08
860.197	5.82
860.5	7.49
860.802	9.42
861.105	10.29
861.407	9.73
861.71	10.42
862.012	11.33
862.315	10.67
862.617	11.05
862.919	10.3
863.222	11.08
863.524	11.36
863.826	11.13
864.128	11.41
864.43	12.82
864.732	14.42
865.034	15.1
865.336	14.58
865.638	14.97
865.94	13.03
866.242	11.67
866.544	10.59
866.846	8.43
867.147	7.81
867.449	7.81
867.751	10.48
868.052	9.68
868.354	10.35
868.655	11.91
868.957	12.68
869.258	11.86
869.56	11.83
869.861	11.1
870.162	12.16
870.463	11.44
870.765	10.65
871.066	10.74
871.367	9.58
871.668	7.62
871.969	8.52
872.27	9.19
872.571	11.1
872.872	10.21
873.173	9.11
873.473	7.71
873.774	6.8
874.075	6.29
874.376	5.34
874.676	5.04
874.977	4.15
875.277	4.47
875.578	6.43
875.878	5.55
876.179	5.32
876.479	4.45
876.78	4.28
877.08	4.19
877.38	1.99
877.68	2.99
877.981	6.11
878.281	3.62
878.581	3.65
