Data from BU26944_Reflection_00006.txt Node
Date: Tue Nov 19 10:54:38 EST 2019
User: vgr7
Spectrometer: USB2G7710
Scans to average: 3
Trigger mode: 4
Integration Time (sec): 2.000000E-2
Electric dark correction enabled: true
Boxcar width: 10
XAxis mode: Wavelengths
Number of Pixels in Spectrum: 2048
>>>>>Begin Spectral Data<<<<<
177.721	-108.27
178.105	24.78
178.488	44.51
178.871	28.57
179.254	20
179.636	116.6
180.019	35.09
180.402	-275
180.785	-100
181.168	-45.04
181.55	-20.17
181.933	-103.08
182.316	-61.89
182.698	-70.59
183.081	-100.63
183.463	-134.4
183.846	-318.01
184.228	-303.6
184.611	2883.78
184.993	517.14
185.376	761.65
185.758	-1357.83
186.14	-952.63
186.522	502.84
186.904	297.59
187.287	288.38
187.669	284
188.051	243.44
188.433	249.46
188.815	118.08
189.197	90.16
189.579	102.93
189.961	65.65
190.342	93.64
190.724	85.42
191.106	80.62
191.488	87.57
191.869	78.02
192.251	70.75
192.633	108.63
193.014	110.37
193.396	112
193.777	97.15
194.159	90.34
194.54	111.85
194.922	90.5
195.303	92.33
195.684	93.83
196.065	79.65
196.447	90.65
196.828	121.95
197.209	110.62
197.59	106.46
197.971	118.75
198.352	75.84
198.733	49.72
199.114	50.8
199.495	62.09
199.876	60.77
200.257	44.86
200.638	37.3
201.018	36.23
201.399	24.86
201.78	26.18
202.16	16.99
202.541	1.47
202.922	3.24
203.302	-3.97
203.683	-21.58
204.063	-18.61
204.444	-6.37
204.824	-4.51
205.204	2.6
205.585	15.91
205.965	1.54
206.345	8.42
206.725	52.59
207.106	54.51
207.486	65.69
207.866	54.5
208.246	71.31
208.626	48.89
209.006	34.8
209.386	38.03
209.766	14.07
210.145	18.3
210.525	50.66
210.905	61.84
211.285	50.11
211.664	46.97
212.044	55.98
212.424	42.32
212.803	36.42
213.183	37.2
213.562	20
213.942	24.53
214.321	10.79
214.701	-23.7
215.08	-37.81
215.459	-61.23
215.838	-54.34
216.218	-116.88
216.597	-65.4
216.976	-63.39
217.355	-27.84
217.734	-45.52
218.113	-20.07
218.492	-38.1
218.871	-23.64
219.25	-37.43
219.629	-78.97
220.008	-144.01
220.387	-185.71
220.766	-47.58
221.144	-45.18
221.523	-66.44
221.902	-51.81
222.28	-15.59
222.659	12.64
223.037	20.84
223.416	8.35
223.794	15.52
224.173	6.99
224.551	6.72
224.929	8.14
225.308	6.47
225.686	9.78
226.064	3.18
226.442	12.84
226.821	5.72
227.199	8.1
227.577	11.59
227.955	14.48
228.333	16.11
228.711	9.75
229.089	7.62
229.467	9.21
229.845	10.04
230.222	9.06
230.6	5.13
230.978	7.23
231.356	9.56
231.733	6.61
232.111	7.47
232.488	7.07
232.866	9.11
233.243	7.83
233.621	7.11
233.998	5.93
234.376	4.47
234.753	5.57
235.13	5.02
235.508	4.48
235.885	4.37
236.262	3.22
236.639	1.38
237.016	3.41
237.393	4.01
237.77	2.96
238.147	1.96
238.524	2.52
238.901	1.39
239.278	1.64
239.655	1.23
240.032	0.83
240.409	1.31
240.785	0.82
241.162	1.18
241.539	1.62
241.915	2.19
242.292	2.31
242.668	2.4
243.045	2.39
243.421	2.34
243.798	2.59
244.174	2.93
244.551	3.53
244.927	2.94
245.303	2.73
245.679	3.22
246.056	3.44
246.432	3.26
246.808	3.63
247.184	3.8
247.56	3.82
247.936	3.87
248.312	3.85
248.688	3.8
249.064	3.92
249.44	3.71
249.815	3.75
250.191	3.67
250.567	3.78
250.943	3.75
251.318	3.73
251.694	3.54
252.069	3.34
252.445	3.1
252.82	3.65
253.196	3.63
253.571	3.43
253.947	3.63
254.322	3.94
254.697	3.9
255.073	3.45
255.448	3.62
255.823	3.7
256.198	3.58
256.573	3.57
256.948	3.53
257.323	3.69
257.698	3.48
258.073	3.4
258.448	3.29
258.823	3.27
259.198	3.39
259.573	3.25
259.948	3.21
260.322	3.2
260.697	3.01
261.072	3.03
261.446	3
261.821	2.71
262.195	2.51
262.57	2.47
262.944	2.6
263.319	2.77
263.693	2.84
264.067	2.85
264.442	2.88
264.816	2.78
265.19	2.65
265.564	2.54
265.938	2.48
266.313	2.54
266.687	2.52
267.061	2.39
267.435	2.66
267.809	2.56
268.183	2.44
268.556	2.6
268.93	2.83
269.304	2.98
269.678	3.19
270.051	3.4
270.425	3.43
270.799	3.23
271.172	3
271.546	2.95
271.919	2.77
272.293	2.78
272.666	2.9
273.04	2.89
273.413	2.86
273.787	2.87
274.16	2.78
274.533	2.89
274.906	3.03
275.279	2.86
275.653	3.07
276.026	3.23
276.399	3.19
276.772	3.04
277.145	2.91
277.518	2.66
277.891	2.54
278.263	2.54
278.636	2.74
279.009	2.89
279.382	2.87
279.755	3.03
280.127	3.1
280.5	2.94
280.872	3.07
281.245	3.26
281.617	3.32
281.99	3.51
282.362	3.51
282.735	3.49
283.107	3.52
283.479	3.42
283.852	3.52
284.224	3.51
284.596	3.5
284.968	3.51
285.34	3.56
285.713	3.55
286.085	3.61
286.457	3.57
286.829	3.53
287.201	3.49
287.572	3.43
287.944	3.4
288.316	3.63
288.688	3.73
289.06	3.61
289.431	3.61
289.803	3.43
290.175	3.25
290.546	3.17
290.918	3.34
291.289	3.31
291.661	3.16
292.032	3.21
292.403	3.23
292.775	3.29
293.146	3.38
293.517	3.42
293.889	3.31
294.26	3.25
294.631	3.22
295.002	3.32
295.373	3.41
295.744	3.34
296.115	3.2
296.486	3.1
296.857	3.24
297.228	3.19
297.599	3.22
297.97	3.28
298.34	3.27
298.711	3.16
299.082	3.19
299.452	3.22
299.823	3.19
300.194	3.18
300.564	3.1
300.935	3.11
301.305	2.95
301.676	2.92
302.046	2.92
302.416	2.95
302.787	2.91
303.157	2.85
303.527	2.99
303.897	2.91
304.267	2.91
304.637	2.83
305.008	2.78
305.378	2.87
305.748	2.92
306.117	2.93
306.487	3
306.857	3.07
307.227	3.14
307.597	3.03
307.967	3.02
308.336	3.05
308.706	3.09
309.076	3.26
309.445	3.35
309.815	3.37
310.184	3.31
310.554	3.32
310.923	3.26
311.293	3.18
311.662	3.24
312.031	3.27
312.401	3.27
312.77	3.32
313.139	3.25
313.508	3.16
313.877	3.14
314.246	3.05
314.616	3.01
314.985	3.04
315.353	3.08
315.722	3.13
316.091	3.13
316.46	3.07
316.829	3.1
317.198	3.07
317.567	3.13
317.935	3.16
318.304	3.26
318.672	3.24
319.041	3.27
319.41	3.3
319.778	3.15
320.147	3.17
320.515	3.24
320.883	3.24
321.252	3.51
321.62	3.62
321.988	3.66
322.357	3.53
322.725	3.47
323.093	3.48
323.461	3.44
323.829	3.45
324.197	3.54
324.565	3.55
324.933	3.4
325.301	3.27
325.669	3.27
326.037	3.17
326.405	3.3
326.772	3.33
327.14	3.32
327.508	3.37
327.875	3.29
328.243	3.12
328.61	3.14
328.978	2.97
329.346	2.96
329.713	2.92
330.08	3.13
330.448	3.09
330.815	3.13
331.182	3.06
331.55	3.01
331.917	2.84
332.284	2.83
332.651	2.98
333.018	3.07
333.385	3.12
333.752	3.18
334.119	3.1
334.486	3.09
334.853	2.98
335.22	2.96
335.587	3.02
335.954	3.11
336.32	3.13
336.687	3.28
337.054	3.16
337.42	3.24
337.787	3.13
338.153	3.13
338.52	3.08
338.886	3.16
339.253	3.21
339.619	3.19
339.986	3.14
340.352	3.09
340.718	3.04
341.084	2.98
341.451	2.97
341.817	2.96
342.183	2.96
342.549	3.04
342.915	3.09
343.281	3.03
343.647	3.08
344.013	3.06
344.379	2.93
344.745	2.99
345.11	2.9
345.476	2.94
345.842	2.95
346.208	2.99
346.573	2.96
346.939	2.95
347.304	3.1
347.67	3.08
348.035	3.05
348.401	3.09
348.766	3.12
349.132	3.08
349.497	3.09
349.862	3.02
350.228	3.01
350.593	3.05
350.958	3.19
351.323	3.16
351.688	3.16
352.053	3.15
352.418	3.15
352.783	3.2
353.148	3.12
353.513	3.21
353.878	3.2
354.243	3.2
354.608	3.22
354.972	3.18
355.337	3.19
355.702	3.21
356.066	3.2
356.431	3.22
356.795	3.2
357.16	3.21
357.524	3.16
357.889	3.16
358.253	3.16
358.618	3.14
358.982	3.14
359.346	3.15
359.71	3.2
360.075	3.31
360.439	3.32
360.803	3.38
361.167	3.31
361.531	3.33
361.895	3.34
362.259	3.31
362.623	3.28
362.987	3.33
363.351	3.35
363.714	3.4
364.078	3.4
364.442	3.42
364.806	3.47
365.169	3.57
365.533	3.57
365.896	3.62
366.26	3.6
366.623	3.64
366.987	3.64
367.35	3.62
367.714	3.53
368.077	3.59
368.44	3.64
368.803	3.61
369.167	3.53
369.53	3.53
369.893	3.49
370.256	3.42
370.619	3.41
370.982	3.31
371.345	3.29
371.708	3.28
372.071	3.29
372.434	3.22
372.797	3.17
373.159	3.13
373.522	3.1
373.885	3.17
374.247	3.16
374.61	3.17
374.973	3.21
375.335	3.21
375.698	3.11
376.06	3.03
376.423	3.03
376.785	3.1
377.147	3.06
377.51	3.06
377.872	3.15
378.234	3.15
378.596	3.23
378.958	3.21
379.321	3.2
379.683	3.22
380.045	3.19
380.407	3.16
380.769	3.19
381.13	3.16
381.492	3.12
381.854	3.1
382.216	3.12
382.578	3.08
382.939	3.08
383.301	3.11
383.663	3.11
384.024	3.11
384.386	3.11
384.747	3.12
385.109	3.15
385.47	3.12
385.832	3.11
386.193	3.08
386.554	3.06
386.916	3.07
387.277	3.01
387.638	3.03
387.999	3.04
388.36	3.03
388.721	3.02
389.082	3.05
389.443	3.04
389.804	3.03
390.165	3.03
390.526	3.01
390.887	3.05
391.248	3.08
391.609	3.14
391.969	3.1
392.33	3.09
392.691	3.12
393.051	3.1
393.412	3.12
393.772	3.16
394.133	3.19
394.493	3.15
394.854	3.2
395.214	3.2
395.574	3.23
395.935	3.24
396.295	3.28
396.655	3.26
397.015	3.27
397.376	3.27
397.736	3.26
398.096	3.27
398.456	3.23
398.816	3.21
399.176	3.17
399.535	3.22
399.895	3.24
400.255	3.21
400.615	3.25
400.975	3.25
401.334	3.2
401.694	3.18
402.054	3.19
402.413	3.19
402.773	3.2
403.132	3.2
403.492	3.19
403.851	3.16
404.211	3.16
404.57	3.17
404.929	3.16
405.288	3.16
405.648	3.16
406.007	3.16
406.366	3.14
406.725	3.14
407.084	3.11
407.443	3.1
407.802	3.12
408.161	3.11
408.52	3.11
408.879	3.14
409.238	3.14
409.596	3.14
409.955	3.12
410.314	3.13
410.673	3.11
411.031	3.12
411.39	3.13
411.748	3.13
412.107	3.1
412.465	3.07
412.824	3.08
413.182	3.08
413.54	3.09
413.899	3.09
414.257	3.11
414.615	3.11
414.974	3.12
415.332	3.1
415.69	3.11
416.048	3.1
416.406	3.1
416.764	3.1
417.122	3.11
417.48	3.1
417.838	3.08
418.195	3.08
418.553	3.07
418.911	3.07
419.269	3.07
419.626	3.08
419.984	3.1
420.342	3.09
420.699	3.08
421.057	3.08
421.414	3.1
421.772	3.09
422.129	3.09
422.486	3.08
422.844	3.09
423.201	3.08
423.558	3.09
423.915	3.08
424.273	3.09
424.63	3.1
424.987	3.13
425.344	3.12
425.701	3.12
426.058	3.13
426.415	3.12
426.772	3.12
427.128	3.13
427.485	3.13
427.842	3.14
428.199	3.15
428.555	3.16
428.912	3.14
429.269	3.14
429.625	3.14
429.982	3.12
430.338	3.12
430.695	3.11
431.051	3.09
431.407	3.06
431.764	3.06
432.12	3.04
432.476	3.04
432.832	3.05
433.189	3.06
433.545	3.04
433.901	3.03
434.257	3.04
434.613	3.04
434.969	3.03
435.325	3.04
435.681	3.02
436.036	3.02
436.392	3.02
436.748	3.02
437.104	3.02
437.459	3.03
437.815	3.04
438.171	3.04
438.526	3.05
438.882	3.07
439.237	3.07
439.593	3.06
439.948	3.06
440.304	3.05
440.659	3.05
441.014	3.06
441.369	3.06
441.725	3.06
442.08	3.05
442.435	3.06
442.79	3.04
443.145	3.06
443.5	3.05
443.855	3.06
444.21	3.06
444.565	3.06
444.92	3.07
445.275	3.06
445.629	3.06
445.984	3.06
446.339	3.07
446.693	3.06
447.048	3.06
447.403	3.06
447.757	3.06
448.112	3.07
448.466	3.07
448.82	3.06
449.175	3.05
449.529	3.05
449.883	3.05
450.238	3.07
450.592	3.07
450.946	3.07
451.3	3.07
451.654	3.07
452.008	3.07
452.362	3.06
452.716	3.06
453.07	3.07
453.424	3.05
453.778	3.03
454.132	3.04
454.486	3.04
454.839	3.06
455.193	3.07
455.547	3.05
455.9	3.06
456.254	3.06
456.607	3.08
456.961	3.08
457.314	3.07
457.668	3.07
458.021	3.05
458.375	3.06
458.728	3.07
459.081	3.07
459.434	3.06
459.787	3.06
460.141	3.07
460.494	3.06
460.847	3.07
461.2	3.07
461.553	3.1
461.906	3.1
462.259	3.09
462.611	3.09
462.964	3.1
463.317	3.1
463.67	3.12
464.022	3.11
464.375	3.09
464.728	3.09
465.08	3.08
465.433	3.09
465.785	3.09
466.138	3.09
466.49	3.09
466.843	3.08
467.195	3.09
467.547	3.09
467.899	3.1
468.252	3.1
468.604	3.11
468.956	3.08
469.308	3.05
469.66	3.06
470.012	3.07
470.364	3.04
470.716	3.03
471.068	3.05
471.42	3.06
471.772	3.08
472.123	3.07
472.475	3.08
472.827	3.07
473.178	3.08
473.53	3.07
473.882	3.06
474.233	3.07
474.585	3.06
474.936	3.08
475.288	3.07
475.639	3.08
475.99	3.08
476.342	3.08
476.693	3.1
477.044	3.1
477.395	3.09
477.746	3.09
478.097	3.12
478.448	3.1
478.8	3.1
479.15	3.09
479.501	3.11
479.852	3.13
480.203	3.14
480.554	3.14
480.905	3.15
481.255	3.16
481.606	3.17
481.957	3.19
482.307	3.18
482.658	3.18
483.009	3.17
483.359	3.19
483.709	3.2
484.06	3.21
484.41	3.22
484.761	3.22
485.111	3.23
485.461	3.23
485.811	3.23
486.162	3.23
486.512	3.25
486.862	3.25
487.212	3.25
487.562	3.26
487.912	3.26
488.262	3.25
488.612	3.26
488.961	3.25
489.311	3.25
489.661	3.25
490.011	3.25
490.36	3.27
490.71	3.26
491.06	3.26
491.409	3.25
491.759	3.24
492.108	3.24
492.458	3.25
492.807	3.23
493.157	3.24
493.506	3.24
493.855	3.23
494.204	3.24
494.554	3.25
494.903	3.23
495.252	3.23
495.601	3.24
495.95	3.24
496.299	3.26
496.648	3.27
496.997	3.26
497.346	3.27
497.695	3.26
498.043	3.26
498.392	3.24
498.741	3.25
499.09	3.25
499.438	3.24
499.787	3.25
500.135	3.25
500.484	3.25
500.832	3.27
501.181	3.28
501.529	3.28
501.878	3.26
502.226	3.25
502.574	3.25
502.923	3.25
503.271	3.25
503.619	3.24
503.967	3.21
504.315	3.22
504.663	3.2
505.011	3.21
505.359	3.21
505.707	3.23
506.055	3.25
506.403	3.26
506.751	3.26
507.098	3.25
507.446	3.24
507.794	3.26
508.141	3.25
508.489	3.26
508.837	3.25
509.184	3.27
509.531	3.29
509.879	3.28
510.226	3.29
510.574	3.31
510.921	3.32
511.268	3.34
511.616	3.35
511.963	3.37
512.31	3.37
512.657	3.37
513.004	3.37
513.351	3.37
513.698	3.37
514.045	3.38
514.392	3.38
514.739	3.42
515.086	3.43
515.432	3.45
515.779	3.45
516.126	3.47
516.473	3.47
516.819	3.48
517.166	3.52
517.512	3.52
517.859	3.53
518.205	3.52
518.552	3.52
518.898	3.53
519.245	3.52
519.591	3.53
519.937	3.54
520.283	3.56
520.629	3.56
520.976	3.58
521.322	3.6
521.668	3.6
522.014	3.59
522.36	3.57
522.706	3.57
523.052	3.56
523.398	3.55
523.743	3.56
524.089	3.55
524.435	3.54
524.781	3.56
525.126	3.56
525.472	3.57
525.817	3.58
526.163	3.6
526.509	3.61
526.854	3.62
527.199	3.62
527.545	3.63
527.89	3.64
528.235	3.62
528.581	3.62
528.926	3.63
529.271	3.64
529.616	3.64
529.961	3.65
530.306	3.66
530.651	3.67
530.996	3.67
531.341	3.68
531.686	3.69
532.031	3.68
532.376	3.68
532.721	3.68
533.065	3.69
533.41	3.68
533.755	3.68
534.099	3.68
534.444	3.66
534.788	3.65
535.133	3.64
535.477	3.66
535.822	3.65
536.166	3.65
536.51	3.65
536.855	3.66
537.199	3.65
537.543	3.65
537.887	3.65
538.231	3.64
538.576	3.64
538.92	3.64
539.264	3.65
539.608	3.65
539.951	3.65
540.295	3.64
540.639	3.65
540.983	3.66
541.327	3.66
541.671	3.68
542.014	3.7
542.358	3.71
542.701	3.71
543.045	3.74
543.389	3.74
543.732	3.73
544.075	3.74
544.419	3.76
544.762	3.76
545.105	3.77
545.449	3.77
545.792	3.79
546.135	3.79
546.478	3.8
546.821	3.82
547.165	3.82
547.508	3.83
547.851	3.83
548.194	3.81
548.536	3.82
548.879	3.83
549.222	3.83
549.565	3.81
549.908	3.79
550.25	3.77
550.593	3.78
550.936	3.8
551.278	3.78
551.621	3.77
551.963	3.78
552.306	3.79
552.648	3.79
552.991	3.75
553.333	3.76
553.675	3.77
554.017	3.76
554.36	3.75
554.702	3.75
555.044	3.76
555.386	3.77
555.728	3.77
556.07	3.75
556.412	3.74
556.754	3.75
557.096	3.76
557.438	3.77
557.78	3.75
558.121	3.76
558.463	3.74
558.805	3.74
559.147	3.74
559.488	3.73
559.83	3.75
560.171	3.75
560.513	3.75
560.854	3.73
561.196	3.74
561.537	3.76
561.878	3.76
562.22	3.74
562.561	3.74
562.902	3.74
563.243	3.75
563.584	3.76
563.925	3.8
564.266	3.84
564.607	3.84
564.948	3.83
565.289	3.81
565.63	3.83
565.971	3.84
566.312	3.83
566.653	3.85
566.993	3.84
567.334	3.86
567.675	3.86
568.015	3.83
568.356	3.83
568.696	3.82
569.037	3.83
569.377	3.85
569.718	3.82
570.058	3.83
570.398	3.8
570.739	3.8
571.079	3.75
571.419	3.71
571.759	3.7
572.099	3.7
572.439	3.71
572.779	3.73
573.119	3.72
573.459	3.72
573.799	3.68
574.139	3.67
574.479	3.72
574.819	3.71
575.158	3.72
575.498	3.72
575.838	3.74
576.177	3.73
576.517	3.73
576.856	3.74
577.196	3.73
577.535	3.75
577.875	3.72
578.214	3.72
578.553	3.74
578.893	3.76
579.232	3.8
579.571	3.8
579.91	3.78
580.25	3.78
580.589	3.77
580.928	3.79
581.267	3.77
581.606	3.71
581.945	3.71
582.283	3.73
582.622	3.72
582.961	3.72
583.3	3.69
583.639	3.72
583.977	3.77
584.316	3.78
584.654	3.78
584.993	3.8
585.332	3.79
585.67	3.75
586.008	3.74
586.347	3.72
586.685	3.68
587.024	3.68
587.362	3.68
587.7	3.71
588.038	3.69
588.376	3.73
588.715	3.75
589.053	3.76
589.391	3.78
589.729	3.77
590.067	3.78
590.404	3.81
590.742	3.8
591.08	3.81
591.418	3.83
591.756	3.85
592.093	3.88
592.431	3.89
592.769	3.93
593.106	3.9
593.444	3.92
593.781	3.95
594.119	3.96
594.456	3.96
594.793	3.98
595.131	3.99
595.468	3.98
595.805	3.98
596.143	3.97
596.48	3.98
596.817	4
597.154	4.02
597.491	4.01
597.828	3.96
598.165	3.9
598.502	3.89
598.839	3.91
599.176	3.89
599.512	3.87
599.849	3.86
600.186	3.85
600.523	3.85
600.859	3.82
601.196	3.85
601.532	3.86
601.869	3.85
602.205	3.82
602.542	3.82
602.878	3.85
603.215	3.86
603.551	3.86
603.887	3.84
604.223	3.81
604.56	3.8
604.896	3.86
605.232	3.91
605.568	3.91
605.904	3.88
606.24	3.88
606.576	3.92
606.912	3.93
607.248	4
607.583	4.01
607.919	4.06
608.255	4.04
608.591	4.04
608.926	4.02
609.262	4.1
609.597	4.12
609.933	4.06
610.268	4.08
610.604	4.05
610.939	4.1
611.275	4.11
611.61	4.11
611.945	4.05
612.281	4.05
612.616	4.03
612.951	4.08
613.286	4.07
613.621	4.07
613.956	4.1
614.291	4.04
614.626	4.03
614.961	4.05
615.296	4.08
615.631	4.06
615.966	4.06
616.3	4
616.635	4.02
616.97	4.05
617.304	4.03
617.639	4.05
617.973	4.01
618.308	4
618.642	4.01
618.977	4.04
619.311	4.04
619.646	4.05
619.98	4.02
620.314	4.08
620.648	4.09
620.983	4.04
621.317	4.06
621.651	4.06
621.985	4.02
622.319	3.96
622.653	3.95
622.987	3.98
623.321	3.98
623.655	3.96
623.988	4
624.322	3.98
624.656	3.97
624.99	3.97
625.323	3.99
625.657	4.02
625.99	4.02
626.324	4
626.657	4.01
626.991	4.03
627.324	4
627.658	4
627.991	4.01
628.324	4
628.657	4
628.991	4.04
629.324	4.05
629.657	4.07
629.99	4.07
630.323	4.06
630.656	4.05
630.989	4.05
631.322	4.11
631.655	4.12
631.987	4.12
632.32	4.21
632.653	4.21
632.986	4.19
633.318	4.21
633.651	4.2
633.984	4.2
634.316	4.16
634.649	4.17
634.981	4.14
635.313	4.18
635.646	4.23
635.978	4.19
636.31	4.2
636.643	4.23
636.975	4.2
637.307	4.25
637.639	4.25
637.971	4.19
638.303	4.18
638.635	4.2
638.967	4.21
639.299	4.07
639.631	4.05
639.963	4.12
640.295	4.11
640.626	4.07
640.958	4.08
641.29	4.16
641.621	4.12
641.953	4.13
642.285	4.11
642.616	4.06
642.948	4.08
643.279	4.03
643.61	4.03
643.942	4.12
644.273	4.09
644.604	4.15
644.936	4.19
645.267	4.17
645.598	4.09
645.929	4.05
646.26	4.11
646.591	4.16
646.922	4.16
647.253	4.15
647.584	4.23
647.915	4.16
648.245	4.16
648.576	4.14
648.907	4.16
649.238	4.13
649.568	4.09
649.899	4.07
650.229	4.14
650.56	4.1
650.89	4.09
651.221	4.05
651.551	4.02
651.882	4.01
652.212	4.03
652.542	4.08
652.872	4.1
653.203	4.12
653.533	4.11
653.863	4.08
654.193	4.07
654.523	4.04
654.853	4.1
655.183	4.15
655.513	4.25
655.843	4.26
656.172	4.32
656.502	4.24
656.832	4.25
657.162	4.22
657.491	4.26
657.821	4.22
658.15	4.26
658.48	4.28
658.809	4.3
659.139	4.3
659.468	4.32
659.798	4.37
660.127	4.35
660.456	4.34
660.785	4.33
661.115	4.35
661.444	4.34
661.773	4.32
662.102	4.25
662.431	4.22
662.76	4.21
663.089	4.25
663.418	4.37
663.747	4.41
664.076	4.46
664.404	4.49
664.733	4.49
665.062	4.48
665.39	4.47
665.719	4.47
666.048	4.46
666.376	4.46
666.705	4.47
667.033	4.49
667.362	4.46
667.69	4.47
668.018	4.53
668.347	4.57
668.675	4.62
669.003	4.59
669.331	4.6
669.659	4.58
669.987	4.54
670.315	4.57
670.643	4.51
670.971	4.44
671.299	4.43
671.627	4.35
671.955	4.32
672.283	4.29
672.61	4.31
672.938	4.36
673.266	4.3
673.593	4.18
673.921	4.2
674.249	4.19
674.576	4.23
674.904	4.16
675.231	4.14
675.558	4.12
675.886	4.17
676.213	4.12
676.54	4.19
676.867	4.1
677.195	4.15
677.522	4.21
677.849	4.17
678.176	4.2
678.503	4.32
678.83	4.37
679.157	4.35
679.484	4.31
679.81	4.29
680.137	4.38
680.464	4.42
680.791	4.44
681.117	4.48
681.444	4.46
681.771	4.45
682.097	4.46
682.424	4.48
682.75	4.53
683.077	4.52
683.403	4.5
683.729	4.52
684.056	4.45
684.382	4.41
684.708	4.46
685.034	4.5
685.36	4.46
685.686	4.48
686.012	4.51
686.339	4.56
686.664	4.53
686.99	4.45
687.316	4.5
687.642	4.39
687.968	4.4
688.294	4.47
688.619	4.51
688.945	4.57
689.271	4.58
689.596	4.5
689.922	4.64
690.247	4.63
690.573	4.69
690.898	4.8
691.224	4.92
691.549	4.95
691.874	4.91
692.2	4.89
692.525	4.82
692.85	4.82
693.175	4.76
693.5	4.72
693.825	4.82
694.15	4.84
694.475	4.96
694.8	4.93
695.125	4.87
695.45	4.89
695.775	4.83
696.099	4.88
696.424	4.84
696.749	4.82
697.073	4.8
697.398	4.81
697.723	4.72
698.047	4.61
698.372	4.49
698.696	4.46
699.02	4.51
699.345	4.49
699.669	4.54
699.993	4.59
700.318	4.68
700.642	4.69
700.966	4.75
701.29	4.75
701.614	4.78
701.938	4.78
702.262	4.8
702.586	4.85
702.91	4.78
703.234	4.79
703.557	4.75
703.881	4.86
704.205	4.78
704.529	4.73
704.852	4.73
705.176	4.89
705.499	4.84
705.823	4.79
706.146	4.82
706.47	4.86
706.793	4.91
707.117	4.85
707.44	4.82
707.763	4.64
708.086	4.66
708.409	4.62
708.733	4.59
709.056	4.48
709.379	4.49
709.702	4.53
710.025	4.74
710.348	4.7
710.671	4.7
710.993	4.84
711.316	5
711.639	5.13
711.962	5.27
712.284	5.46
712.607	5.46
712.93	5.54
713.252	5.43
713.575	5.42
713.897	5.46
714.22	5.35
714.542	5.52
714.864	5.42
715.187	5.4
715.509	5.46
715.831	5.56
716.153	5.46
716.475	5.46
716.798	5.29
717.12	5.37
717.442	5.32
717.764	5.24
718.085	5.28
718.407	5.29
718.729	5.1
719.051	5
719.373	5.06
719.695	5.03
720.016	4.98
720.338	5.06
720.659	5.05
720.981	5.21
721.302	5.17
721.624	5.21
721.945	5.24
722.267	5.23
722.588	5.32
722.909	5.39
723.231	5.47
723.552	5.53
723.873	5.43
724.194	5.39
724.515	5.44
724.836	5.31
725.157	5.24
725.478	5.45
725.799	5.34
726.12	5.31
726.441	5.24
726.762	5.29
727.083	5.28
727.403	5.3
727.724	5.28
728.045	5.29
728.365	5.28
728.686	5.39
729.006	5.5
729.327	5.37
729.647	5.33
729.967	5.11
730.288	5.05
730.608	5.1
730.928	5.17
731.249	5.17
731.569	5.14
731.889	5.22
732.209	5.14
732.529	5.28
732.849	5.3
733.169	5.32
733.489	5.36
733.809	5.31
734.129	5.32
734.448	5.24
734.768	5.22
735.088	5.31
735.408	5.22
735.727	5.18
736.047	5.24
736.366	5.42
736.686	5.69
737.005	5.96
737.325	6.1
737.644	6.05
737.963	6.05
738.283	6.05
738.602	5.94
738.921	5.92
739.24	5.89
739.56	5.97
739.879	6.15
740.198	6.13
740.517	6.07
740.836	6.12
741.155	6.21
741.473	6.18
741.792	6.02
742.111	6.04
742.43	5.98
742.748	6.01
743.067	5.76
743.386	5.51
743.704	5.53
744.023	5.42
744.341	5.55
744.66	5.62
744.978	5.66
745.297	5.83
745.615	5.63
745.933	5.61
746.252	5.54
746.57	5.46
746.888	5.49
747.206	5.51
747.524	5.44
747.842	5.36
748.16	5.37
748.478	5.52
748.796	5.52
749.114	5.36
749.432	5.4
749.749	5.27
750.067	5.53
750.385	5.35
750.703	5.37
751.02	5.13
751.338	5.17
751.655	5.17
751.973	5.04
752.29	5.12
752.608	4.97
752.925	4.89
753.242	4.92
753.56	4.91
753.877	4.96
754.194	5.04
754.511	5.11
754.828	5.09
755.145	5.03
755.462	5.08
755.779	5.08
756.096	5.13
756.413	5.27
756.73	5.27
757.047	5.34
757.364	5.36
757.68	5.61
757.997	5.67
758.314	5.83
758.63	5.9
758.947	5.86
759.264	5.99
759.58	6.27
759.896	6.21
760.213	6.41
760.529	6.43
760.846	6.54
761.162	6.47
761.478	6.43
761.794	6.56
762.11	6.68
762.426	6.81
762.743	6.83
763.059	6.98
763.375	6.83
763.69	6.94
764.006	6.78
764.322	6.72
764.638	6.8
764.954	6.74
765.27	6.86
765.585	7.01
765.901	6.86
766.216	6.75
766.532	6.5
766.848	6.34
767.163	6.33
767.478	6.21
767.794	6.3
768.109	6.46
768.424	6.4
768.74	6.21
769.055	6.28
769.37	5.82
769.685	5.83
770	5.81
770.315	5.57
770.63	5.68
770.945	5.77
771.26	5.49
771.575	5.37
771.89	5.33
772.205	5.02
772.52	5.43
772.834	5.48
773.149	5.73
773.464	5.96
773.778	6
774.093	6.03
774.407	6.24
774.722	5.91
775.036	5.97
775.351	6.22
775.665	6.1
775.979	6.52
776.293	6.22
776.608	6.02
776.922	5.83
777.236	5.82
777.55	5.62
777.864	5.68
778.178	5.5
778.492	5.11
778.806	5.55
779.12	5.08
779.434	4.84
779.747	5.03
780.061	4.82
780.375	4.73
780.689	4.88
781.002	4.69
781.316	4.79
781.629	4.46
781.943	3.96
782.256	3.72
782.57	3.7
782.883	4.05
783.196	4.37
783.51	4.89
783.823	4.91
784.136	4.9
784.449	4.85
784.762	5.29
785.075	5.65
785.388	5.72
785.701	5.78
786.014	5.74
786.327	5.6
786.64	5.76
786.953	5.74
787.266	5.35
787.578	5.29
787.891	5.48
788.204	5.62
788.516	6.07
788.829	6.15
789.141	6.34
789.454	5.92
789.766	6.23
790.079	5.81
790.391	5.54
790.703	5.73
791.016	5.95
791.328	6.08
791.64	5.86
791.952	5.99
792.264	6.37
792.576	6.71
792.888	6.96
793.2	7.11
793.512	7.07
793.824	6.88
794.136	7.13
794.448	6.89
794.76	7.15
795.071	6.97
795.383	7.02
795.695	6.71
796.006	6.68
796.318	6.2
796.629	6.52
796.941	6.65
797.252	6.76
797.564	6.95
797.875	6.55
798.186	6.46
798.497	5.88
798.809	5.71
799.12	5.76
799.431	5.93
799.742	5.51
800.053	5.67
800.364	6.39
800.675	6.16
800.986	6.57
801.297	6.53
801.608	6.59
801.918	6.38
802.229	6.52
802.54	6.63
802.851	6.64
803.161	6.42
803.472	6.82
803.782	6.87
804.093	6.41
804.403	6.37
804.714	6.53
805.024	6.99
805.334	6.89
805.645	6.73
805.955	6.83
806.265	7.04
806.575	7.46
806.885	7.21
807.195	7.58
807.505	7.91
807.815	7.51
808.125	7.26
808.435	7.7
808.745	8.17
809.055	8.44
809.365	8.66
809.674	8.67
809.984	8.49
810.294	8.02
810.603	7.43
810.913	7.01
811.222	7.35
811.532	7.25
811.841	7.72
812.151	8
812.46	7.34
812.769	7.26
813.079	6.86
813.388	6.75
813.697	5.8
814.006	5.13
814.315	5.81
814.624	6.32
814.933	6.27
815.242	5.77
815.551	5.69
815.86	5.68
816.169	5.09
816.478	5.24
816.786	4.88
817.095	6.17
817.404	7.15
817.712	7.03
818.021	6.7
818.33	6.93
818.638	7.31
818.947	7.33
819.255	7.44
819.563	7.74
819.872	7.82
820.18	8.12
820.488	8.36
820.796	8.21
821.105	8.16
821.413	8.15
821.721	8.18
822.029	8.14
822.337	8.17
822.645	8.31
822.953	8.38
823.26	8.48
823.568	8.27
823.876	8.15
824.184	8.18
824.491	8.24
824.799	8.1
825.107	7.9
825.414	7.99
825.722	7.92
826.029	7.87
826.337	7.76
826.644	7.88
826.951	7.65
827.259	7.76
827.566	7.62
827.873	7.72
828.18	7.74
828.488	7.78
828.795	7.81
829.102	7.67
829.409	7.4
829.716	7.54
830.023	7.8
830.329	8.03
830.636	7.96
830.943	8.14
831.25	8.16
831.557	8.48
831.863	8.32
832.17	8.41
832.476	8.19
832.783	8.81
833.089	8.41
833.396	8.75
833.702	8.63
834.009	9.07
834.315	8.63
834.621	8.7
834.928	8.58
835.234	8.51
835.54	9.02
835.846	9.47
836.152	9.31
836.458	9.22
836.764	9.21
837.07	9.38
837.376	9.19
837.682	8.92
837.988	8.79
838.293	9.5
838.599	9.79
838.905	9.92
839.211	9.31
839.516	9.28
839.822	9.38
840.127	9.73
840.433	9.9
840.738	10.46
841.044	11.13
841.349	11.29
841.654	11.13
841.959	10.53
842.265	10.09
842.57	10.28
842.875	9.93
843.18	9.76
843.485	9.71
843.79	9.65
844.095	11.13
844.4	10.57
844.705	9.53
845.01	10.6
845.315	11.05
845.619	10.95
845.924	10.64
846.229	11.43
846.533	10.53
846.838	9.47
847.142	10.1
847.447	9.44
847.751	9.98
848.056	10.88
848.36	11.35
848.664	10.71
848.969	10.47
849.273	11.21
849.577	10.74
849.881	10.54
850.185	10.92
850.489	10.03
850.794	11.64
851.097	11.6
851.401	8.29
851.705	8.33
852.009	9.57
852.313	9.89
852.617	7.77
852.92	8.37
853.224	7.06
853.528	5.13
853.831	4.67
854.135	4.6
854.438	3.84
854.742	4.13
855.045	4.7
855.349	3.33
855.652	1.87
855.955	1.95
856.259	2.98
856.562	3.54
856.865	3.79
857.168	0.82
857.471	-0.55
857.774	0.75
858.077	-0.67
858.38	-2.28
858.683	-2.37
858.986	-3
859.289	-3.2
859.592	-1.72
859.894	-0.25
860.197	-0.46
860.5	-0.22
860.802	-0.19
861.105	-0.54
861.407	-2.75
861.71	-1.72
862.012	-0.51
862.315	0.77
862.617	1.19
862.919	0.47
863.222	1.42
863.524	1.99
863.826	3.91
864.128	4.97
864.43	6.4
864.732	7.3
865.034	8.95
865.336	10.85
865.638	11.11
865.94	10.9
866.242	9.64
866.544	8.83
866.846	9.29
867.147	11.4
867.449	12.7
867.751	14.8
868.052	14.26
868.354	13.42
868.655	11.52
868.957	9.68
869.258	9.62
869.56	8.89
869.861	9.91
870.162	8.64
870.463	7.84
870.765	7.51
871.066	7.81
871.367	6.71
871.668	7.65
871.969	6.25
872.27	5.62
872.571	6.82
872.872	8.47
873.173	9.22
873.473	6.29
873.774	6.29
874.075	7.64
874.376	7.69
874.676	9.4
874.977	10.25
875.277	11.61
875.578	13.19
875.878	13.01
876.179	13.69
876.479	15.11
876.78	15.24
877.08	15.81
877.38	16.07
877.68	17.47
877.981	15.84
878.281	18.56
878.581	20.85
