Data from BU26945_Reflection_00012.txt Node
Date: Tue Nov 19 10:49:41 EST 2019
User: vgr7
Spectrometer: USB2G7710
Scans to average: 3
Trigger mode: 4
Integration Time (sec): 2.000000E-2
Electric dark correction enabled: true
Boxcar width: 10
XAxis mode: Wavelengths
Number of Pixels in Spectrum: 2048
>>>>>Begin Spectral Data<<<<<
177.721	117.21
178.105	109.87
178.488	179.51
178.871	100
179.254	-32
179.636	-67.7
180.019	5.59
180.402	-110
180.785	-20.32
181.168	-32.8
181.55	-50.59
181.933	-90.01
182.316	-81.88
182.698	-84.7
183.081	-60.67
183.463	-56.53
183.846	-55.32
184.228	-61.3
184.611	-40.87
184.993	-24.72
185.376	-22.09
185.758	-23.64
186.14	-39.63
186.522	-51.01
186.904	-55.04
187.287	-66.27
187.669	-73.09
188.051	-74.82
188.433	-81.25
188.815	-88.81
189.197	-102.05
189.579	-121.01
189.961	-141.89
190.342	-151.72
190.724	-206.43
191.106	-198.73
191.488	-161.62
191.869	-149.37
192.251	-146.53
192.633	-137
193.014	-170.92
193.396	-162.9
193.777	-166.29
194.159	-151.96
194.54	-128.36
194.922	-147.87
195.303	-180.11
195.684	-150.22
196.065	-133.75
196.447	-116.43
196.828	-94.71
197.209	-70.48
197.59	-49.36
197.971	-38.62
198.352	-37.31
198.733	-20.64
199.114	-18.38
199.495	-19.45
199.876	-27.47
200.257	-25.4
200.638	-24.38
201.018	-17.58
201.399	-21.8
201.78	-17.95
202.16	-29.61
202.541	-50.07
202.922	-50.83
203.302	-53
203.683	-40.1
204.063	-36.49
204.444	-47.24
204.824	-58.82
205.204	-62
205.585	-63.83
205.965	-74.21
206.345	-86.34
206.725	-85.13
207.106	-90.46
207.486	-77.11
207.866	-76.6
208.246	-70.25
208.626	-109.59
209.006	-123.84
209.386	-106.57
209.766	-109.54
210.145	-91.56
210.525	-89.8
210.905	-85.83
211.285	-89.92
211.664	-93.39
212.044	-74.8
212.424	-64.57
212.803	-78.66
213.183	-89.83
213.562	-72.77
213.942	-76.16
214.321	-85.13
214.701	-104.11
215.08	-114.29
215.459	-86.36
215.838	-107.38
216.218	-95.24
216.597	-88.9
216.976	-94.19
217.355	-115.14
217.734	-151.46
218.113	-117.96
218.492	-134
218.871	-126.94
219.25	-96.7
219.629	-118.47
220.008	-150.19
220.387	-156.98
220.766	-127.52
221.144	-118.64
221.523	-139.26
221.902	-120.19
222.28	-98.52
222.659	-59.51
223.037	-43.16
223.416	-46.44
223.794	-38.63
224.173	-37.93
224.551	-32.39
224.929	-33.4
225.308	-28.45
225.686	-28.24
226.064	-36.31
226.442	-25.56
226.821	-27.81
227.199	-28.25
227.577	-29.19
227.955	-20.88
228.333	-20.12
228.711	-16.34
229.089	-15.86
229.467	-15.75
229.845	-13.14
230.222	-9.95
230.6	-12.61
230.978	-13.5
231.356	-12.46
231.733	-8.11
232.111	-8.95
232.488	-10.11
232.866	-7.74
233.243	-6.05
233.621	-5.02
233.998	-2.97
234.376	-3.47
234.753	-2.31
235.13	-0.27
235.508	0.94
235.885	-1.11
236.262	-1.51
236.639	-3.45
237.016	-3.72
237.393	-1.88
237.77	-1.33
238.147	-1.15
238.524	-0.31
238.901	0.42
239.278	0.01
239.655	0.75
240.032	0.23
240.409	0.59
240.785	0.16
241.162	-0.45
241.539	-0.04
241.915	0.04
242.292	0.83
242.668	0.78
243.045	1.37
243.421	2.34
243.798	2.37
244.174	2.67
244.551	3.19
244.927	3.52
245.303	3.41
245.679	3.56
246.056	3.6
246.432	3.84
246.808	4.13
247.184	4.23
247.56	3.7
247.936	3.8
248.312	4.14
248.688	4.1
249.064	3.92
249.44	3.66
249.815	3.76
250.191	3.58
250.567	3.72
250.943	3.37
251.318	2.93
251.694	2.98
252.069	3.05
252.445	2.73
252.82	2.73
253.196	2.7
253.571	2.45
253.947	2.24
254.322	1.58
254.697	1.38
255.073	1.31
255.448	1.16
255.823	1.43
256.198	1.38
256.573	1.75
256.948	2.04
257.323	2.36
257.698	2.55
258.073	2.5
258.448	2.68
258.823	2.69
259.198	2.69
259.573	2.55
259.948	2.44
260.322	2.42
260.697	2.57
261.072	2.45
261.446	2.33
261.821	2.22
262.195	2.34
262.57	2.34
262.944	2.39
263.319	2.62
263.693	2.55
264.067	2.43
264.442	2.32
264.816	2.28
265.19	2.14
265.564	1.97
265.938	2.07
266.313	1.95
266.687	1.92
267.061	2.03
267.435	2.31
267.809	2.43
268.183	2.51
268.556	2.22
268.93	2.6
269.304	2.78
269.678	2.93
270.051	3.06
270.425	2.94
270.799	2.83
271.172	3.02
271.546	2.97
271.919	3.07
272.293	3.15
272.666	3.37
273.04	3.43
273.413	3.43
273.787	3.43
274.16	3.48
274.533	3.46
274.906	3.51
275.279	3.4
275.653	3.42
276.026	3.52
276.399	3.71
276.772	3.51
277.145	3.23
277.518	3.05
277.891	2.81
278.263	2.94
278.636	3.1
279.009	2.97
279.382	2.98
279.755	3.1
280.127	3.08
280.5	2.89
280.872	3.06
281.245	3.1
281.617	2.96
281.99	2.83
282.362	3.04
282.735	2.92
283.107	2.94
283.479	2.93
283.852	2.92
284.224	2.95
284.596	3.02
284.968	3.2
285.34	3.27
285.713	3.56
286.085	3.42
286.457	3.51
286.829	3.52
287.201	3.52
287.572	3.49
287.944	3.46
288.316	3.46
288.688	3.37
289.06	3.3
289.431	3.49
289.803	3.58
290.175	3.48
290.546	3.5
290.918	3.46
291.289	3.3
291.661	3.36
292.032	3.19
292.403	3.14
292.775	3.17
293.146	3.42
293.517	3.26
293.889	3.37
294.26	3.15
294.631	3.16
295.002	3.23
295.373	3.23
295.744	3.17
296.115	3.22
296.486	3.19
296.857	3.3
297.228	3.27
297.599	3.24
297.97	3.41
298.34	3.54
298.711	3.66
299.082	3.82
299.452	3.64
299.823	3.66
300.194	3.78
300.564	3.86
300.935	3.71
301.305	3.84
301.676	3.69
302.046	3.94
302.416	3.85
302.787	3.81
303.157	3.78
303.527	3.96
303.897	3.9
304.267	4.02
304.637	4.03
305.008	3.98
305.378	4.18
305.748	3.89
306.117	3.78
306.487	3.86
306.857	3.92
307.227	4.23
307.597	4.36
307.967	4.31
308.336	4.3
308.706	4.25
309.076	4.3
309.445	4.61
309.815	4.57
310.184	4.58
310.554	4.62
310.923	4.65
311.293	4.6
311.662	4.73
312.031	4.74
312.401	4.71
312.77	4.77
313.139	4.74
313.508	4.99
313.877	5.15
314.246	5.06
314.616	5.04
314.985	4.9
315.353	5.01
315.722	5.05
316.091	4.97
316.46	5.01
316.829	4.96
317.198	4.95
317.567	5
317.935	5.25
318.304	5.47
318.672	5.51
319.041	5.44
319.41	5.31
319.778	5.22
320.147	5.25
320.515	5.23
320.883	5.2
321.252	5.26
321.62	5.35
321.988	5.3
322.357	5.33
322.725	5.55
323.093	5.4
323.461	5.45
323.829	5.65
324.197	5.82
324.565	5.67
324.933	5.59
325.301	5.53
325.669	5.47
326.037	5.48
326.405	5.54
326.772	5.63
327.14	5.68
327.508	5.87
327.875	5.85
328.243	5.76
328.61	5.75
328.978	5.57
329.346	5.49
329.713	5.62
330.08	5.64
330.448	5.66
330.815	5.7
331.182	5.52
331.55	5.38
331.917	5.21
332.284	5.49
332.651	5.44
333.018	5.48
333.385	5.55
333.752	5.5
334.119	5.63
334.486	5.74
334.853	5.78
335.22	5.84
335.587	5.85
335.954	5.91
336.32	5.86
336.687	6.09
337.054	5.95
337.42	6.08
337.787	6.1
338.153	6.07
338.52	6.17
338.886	6.37
339.253	6.43
339.619	6.54
339.986	6.44
340.352	6.59
340.718	6.69
341.084	6.71
341.451	6.72
341.817	6.62
342.183	6.57
342.549	6.69
342.915	6.69
343.281	6.66
343.647	6.78
344.013	6.9
344.379	6.85
344.745	7
345.11	6.79
345.476	6.84
345.842	6.93
346.208	6.9
346.573	6.94
346.939	6.91
347.304	6.9
347.67	6.94
348.035	6.87
348.401	6.74
348.766	6.8
349.132	6.85
349.497	6.98
349.862	7.06
350.228	7.04
350.593	7.07
350.958	7.27
351.323	7.31
351.688	7.27
352.053	7.25
352.418	7.22
352.783	7.45
353.148	7.51
353.513	7.4
353.878	7.44
354.243	7.34
354.608	7.45
354.972	7.48
355.337	7.5
355.702	7.54
356.066	7.66
356.431	7.59
356.795	7.58
357.16	7.53
357.524	7.46
357.889	7.49
358.253	7.36
358.618	7.32
358.982	7.26
359.346	7.25
359.71	7.24
360.075	7.26
360.439	7.23
360.803	7.2
361.167	7.25
361.531	7.25
361.895	7.25
362.259	7.26
362.623	7.3
362.987	7.28
363.351	7.27
363.714	7.29
364.078	7.28
364.442	7.26
364.806	7.3
365.169	7.32
365.533	7.32
365.896	7.43
366.26	7.33
366.623	7.36
366.987	7.46
367.35	7.53
367.714	7.51
368.077	7.54
368.44	7.54
368.803	7.55
369.167	7.46
369.53	7.54
369.893	7.51
370.256	7.49
370.619	7.44
370.982	7.39
371.345	7.42
371.708	7.47
372.071	7.37
372.434	7.33
372.797	7.3
373.159	7.18
373.522	7.12
373.885	7.1
374.247	7.11
374.61	7.03
374.973	7
375.335	6.97
375.698	6.89
376.06	6.86
376.423	6.76
376.785	6.81
377.147	6.75
377.51	6.68
377.872	6.66
378.234	6.73
378.596	6.8
378.958	6.7
379.321	6.6
379.683	6.66
380.045	6.62
380.407	6.61
380.769	6.59
381.13	6.51
381.492	6.52
381.854	6.47
382.216	6.45
382.578	6.43
382.939	6.37
383.301	6.37
383.663	6.35
384.024	6.34
384.386	6.33
384.747	6.31
385.109	6.31
385.47	6.32
385.832	6.26
386.193	6.15
386.554	6.15
386.916	6.17
387.277	6.16
387.638	6.15
387.999	6.13
388.36	6.16
388.721	6.19
389.082	6.19
389.443	6.17
389.804	6.18
390.165	6.16
390.526	6.19
390.887	6.15
391.248	6.14
391.609	6.12
391.969	6.08
392.33	6.04
392.691	6.01
393.051	5.97
393.412	5.95
393.772	5.97
394.133	5.99
394.493	5.96
394.854	5.92
395.214	5.89
395.574	5.85
395.935	5.78
396.295	5.78
396.655	5.72
397.015	5.7
397.376	5.65
397.736	5.64
398.096	5.57
398.456	5.57
398.816	5.52
399.176	5.48
399.535	5.44
399.895	5.42
400.255	5.42
400.615	5.37
400.975	5.31
401.334	5.29
401.694	5.23
402.054	5.21
402.413	5.15
402.773	5.15
403.132	5.12
403.492	5.15
403.851	5.12
404.211	5.13
404.57	5.14
404.929	5.11
405.288	5.1
405.648	5.11
406.007	5.09
406.366	5.07
406.725	5.08
407.084	5.07
407.443	5.06
407.802	5.06
408.161	5.08
408.52	5.11
408.879	5.09
409.238	5.09
409.596	5.07
409.955	5.07
410.314	5.06
410.673	5.07
411.031	5.03
411.39	5.01
411.748	5
412.107	4.97
412.465	4.97
412.824	4.93
413.182	4.87
413.54	4.86
413.899	4.87
414.257	4.9
414.615	4.88
414.974	4.88
415.332	4.85
415.69	4.81
416.048	4.79
416.406	4.75
416.764	4.73
417.122	4.73
417.48	4.73
417.838	4.71
418.195	4.68
418.553	4.69
418.911	4.66
419.269	4.67
419.626	4.67
419.984	4.65
420.342	4.65
420.699	4.66
421.057	4.65
421.414	4.63
421.772	4.6
422.129	4.57
422.486	4.55
422.844	4.55
423.201	4.54
423.558	4.51
423.915	4.52
424.273	4.5
424.63	4.49
424.987	4.5
425.344	4.51
425.701	4.51
426.058	4.51
426.415	4.5
426.772	4.47
427.128	4.43
427.485	4.43
427.842	4.4
428.199	4.4
428.555	4.39
428.912	4.38
429.269	4.37
429.625	4.39
429.982	4.4
430.338	4.39
430.695	4.39
431.051	4.39
431.407	4.4
431.764	4.38
432.12	4.4
432.476	4.4
432.832	4.39
433.189	4.38
433.545	4.38
433.901	4.37
434.257	4.37
434.613	4.39
434.969	4.4
435.325	4.41
435.681	4.38
436.036	4.36
436.392	4.36
436.748	4.37
437.104	4.36
437.459	4.34
437.815	4.35
438.171	4.37
438.526	4.37
438.882	4.38
439.237	4.39
439.593	4.37
439.948	4.36
440.304	4.34
440.659	4.35
441.014	4.34
441.369	4.35
441.725	4.36
442.08	4.35
442.435	4.35
442.79	4.35
443.145	4.36
443.5	4.35
443.855	4.35
444.21	4.33
444.565	4.34
444.92	4.34
445.275	4.31
445.629	4.29
445.984	4.29
446.339	4.27
446.693	4.26
447.048	4.25
447.403	4.24
447.757	4.23
448.112	4.23
448.466	4.22
448.82	4.21
449.175	4.2
449.529	4.19
449.883	4.18
450.238	4.17
450.592	4.15
450.946	4.16
451.3	4.15
451.654	4.14
452.008	4.12
452.362	4.11
452.716	4.13
453.07	4.13
453.424	4.12
453.778	4.1
454.132	4.11
454.486	4.11
454.839	4.1
455.193	4.1
455.547	4.08
455.9	4.08
456.254	4.07
456.607	4.08
456.961	4.08
457.314	4.08
457.668	4.1
458.021	4.11
458.375	4.11
458.728	4.13
459.081	4.14
459.434	4.14
459.787	4.14
460.141	4.15
460.494	4.15
460.847	4.16
461.2	4.17
461.553	4.18
461.906	4.2
462.259	4.19
462.611	4.22
462.964	4.24
463.317	4.23
463.67	4.27
464.022	4.27
464.375	4.27
464.728	4.27
465.08	4.27
465.433	4.27
465.785	4.27
466.138	4.28
466.49	4.31
466.843	4.35
467.195	4.38
467.547	4.38
467.899	4.41
468.252	4.42
468.604	4.46
468.956	4.47
469.308	4.48
469.66	4.5
470.012	4.53
470.364	4.55
470.716	4.6
471.068	4.61
471.42	4.63
471.772	4.66
472.123	4.71
472.475	4.73
472.827	4.75
473.178	4.78
473.53	4.76
473.882	4.77
474.233	4.76
474.585	4.77
474.936	4.78
475.288	4.76
475.639	4.77
475.99	4.76
476.342	4.81
476.693	4.8
477.044	4.79
477.395	4.76
477.746	4.74
478.097	4.72
478.448	4.72
478.8	4.71
479.15	4.69
479.501	4.67
479.852	4.64
480.203	4.64
480.554	4.62
480.905	4.6
481.255	4.61
481.606	4.61
481.957	4.61
482.307	4.59
482.658	4.6
483.009	4.59
483.359	4.58
483.709	4.57
484.06	4.57
484.41	4.58
484.761	4.58
485.111	4.58
485.461	4.59
485.811	4.59
486.162	4.58
486.512	4.58
486.862	4.58
487.212	4.59
487.562	4.58
487.912	4.59
488.262	4.6
488.612	4.59
488.961	4.6
489.311	4.59
489.661	4.59
490.011	4.59
490.36	4.6
490.71	4.61
491.06	4.62
491.409	4.62
491.759	4.62
492.108	4.63
492.458	4.64
492.807	4.64
493.157	4.65
493.506	4.66
493.855	4.68
494.204	4.69
494.554	4.72
494.903	4.74
495.252	4.75
495.601	4.78
495.95	4.82
496.299	4.82
496.648	4.89
496.997	4.94
497.346	4.99
497.695	5.03
498.043	5.08
498.392	5.12
498.741	5.17
499.09	5.24
499.438	5.29
499.787	5.34
500.135	5.4
500.484	5.46
500.832	5.53
501.181	5.6
501.529	5.69
501.878	5.79
502.226	5.89
502.574	5.99
502.923	6.08
503.271	6.17
503.619	6.29
503.967	6.36
504.315	6.45
504.663	6.56
505.011	6.69
505.359	6.77
505.707	6.87
506.055	6.97
506.403	7.09
506.751	7.21
507.098	7.34
507.446	7.49
507.794	7.62
508.141	7.74
508.489	7.87
508.837	8.02
509.184	8.12
509.531	8.24
509.879	8.4
510.226	8.52
510.574	8.65
510.921	8.78
511.268	8.94
511.616	9.1
511.963	9.26
512.31	9.4
512.657	9.59
513.004	9.76
513.351	9.94
513.698	10.1
514.045	10.25
514.392	10.42
514.739	10.62
515.086	10.8
515.432	11.01
515.779	11.18
516.126	11.36
516.473	11.53
516.819	11.71
517.166	11.88
517.512	12.07
517.859	12.24
518.205	12.39
518.552	12.58
518.898	12.73
519.245	12.88
519.591	13.03
519.937	13.16
520.283	13.34
520.629	13.53
520.976	13.73
521.322	13.94
521.668	14.14
522.014	14.32
522.36	14.56
522.706	14.79
523.052	15.06
523.398	15.29
523.743	15.56
524.089	15.8
524.435	16.01
524.781	16.26
525.126	16.49
525.472	16.7
525.817	16.89
526.163	17.07
526.509	17.23
526.854	17.39
527.199	17.54
527.545	17.7
527.89	17.85
528.235	17.99
528.581	18.16
528.926	18.31
529.271	18.45
529.616	18.61
529.961	18.76
530.306	18.9
530.651	19.07
530.996	19.24
531.341	19.43
531.686	19.63
532.031	19.8
532.376	19.98
532.721	20.2
533.065	20.39
533.41	20.58
533.755	20.8
534.099	21
534.444	21.25
534.788	21.42
535.133	21.62
535.477	21.83
535.822	22.05
536.166	22.28
536.51	22.54
536.855	22.76
537.199	23.01
537.543	23.23
537.887	23.48
538.231	23.74
538.576	23.99
538.92	24.26
539.264	24.49
539.608	24.7
539.951	24.86
540.295	25.06
540.639	25.28
540.983	25.48
541.327	25.68
541.671	25.85
542.014	26.06
542.358	26.22
542.701	26.4
543.045	26.58
543.389	26.75
543.732	26.93
544.075	27.12
544.419	27.31
544.762	27.52
545.105	27.79
545.449	28.02
545.792	28.22
546.135	28.43
546.478	28.71
546.821	29.01
547.165	29.28
547.508	29.52
547.851	29.74
548.194	29.95
548.536	30.18
548.879	30.41
549.222	30.67
549.565	30.95
549.908	31.17
550.25	31.36
550.593	31.6
550.936	31.81
551.278	32.03
551.621	32.21
551.963	32.45
552.306	32.59
552.648	32.74
552.991	32.94
553.333	33.11
553.675	33.27
554.017	33.38
554.36	33.55
554.702	33.74
555.044	33.96
555.386	34.14
555.728	34.35
556.07	34.55
556.412	34.72
556.754	34.86
557.096	35.1
557.438	35.24
557.78	35.46
558.121	35.63
558.463	35.81
558.805	36.01
559.147	36.17
559.488	36.32
559.83	36.49
560.171	36.67
560.513	36.85
560.854	37.03
561.196	37.19
561.537	37.41
561.878	37.56
562.22	37.64
562.561	37.79
562.902	37.94
563.243	38.11
563.584	38.17
563.925	38.29
564.266	38.44
564.607	38.62
564.948	38.69
565.289	38.86
565.63	39.03
565.971	39.15
566.312	39.31
566.653	39.48
566.993	39.64
567.334	39.78
567.675	39.92
568.015	40.02
568.356	40.16
568.696	40.28
569.037	40.38
569.377	40.53
569.718	40.62
570.058	40.7
570.398	40.77
570.739	41.01
571.079	41.16
571.419	41.2
571.759	41.31
572.099	41.49
572.439	41.6
572.779	41.73
573.119	41.8
573.459	41.9
573.799	41.98
574.139	42.03
574.479	42.1
574.819	42.18
575.158	42.29
575.498	42.36
575.838	42.45
576.177	42.52
576.517	42.63
576.856	42.79
577.196	42.87
577.535	43
577.875	42.95
578.214	43.05
578.553	43.15
578.893	43.26
579.232	43.29
579.571	43.38
579.91	43.39
580.25	43.58
580.589	43.67
580.928	43.69
581.267	43.85
581.606	43.97
581.945	44.02
582.283	44.03
582.622	44.2
582.961	44.25
583.3	44.41
583.639	44.48
583.977	44.57
584.316	44.77
584.654	44.85
584.993	45.01
585.332	45.13
585.67	45.29
586.008	45.34
586.347	45.46
586.685	45.49
587.024	45.57
587.362	45.63
587.7	45.7
588.038	45.79
588.376	45.87
588.715	45.98
589.053	46.06
589.391	46.18
589.729	46.23
590.067	46.28
590.404	46.27
590.742	46.31
591.08	46.3
591.418	46.29
591.756	46.38
592.093	46.47
592.431	46.5
592.769	46.56
593.106	46.65
593.444	46.65
593.781	46.7
594.119	46.81
594.456	46.84
594.793	46.94
595.131	47.03
595.468	47.16
595.805	47.2
596.143	47.34
596.48	47.41
596.817	47.43
597.154	47.56
597.491	47.62
597.828	47.73
598.165	47.84
598.502	47.94
598.839	47.99
599.176	48.07
599.512	48.12
599.849	48.21
600.186	48.26
600.523	48.37
600.859	48.42
601.196	48.47
601.532	48.58
601.869	48.66
602.205	48.7
602.542	48.72
602.878	48.77
603.215	48.77
603.551	48.77
603.887	48.85
604.223	48.88
604.56	48.99
604.896	49
605.232	49.05
605.568	49.04
605.904	49.08
606.24	49.09
606.576	49.11
606.912	49.15
607.248	49.17
607.583	49.21
607.919	49.26
608.255	49.32
608.591	49.38
608.926	49.37
609.262	49.36
609.597	49.32
609.933	49.35
610.268	49.43
610.604	49.52
610.939	49.56
611.275	49.54
611.61	49.61
611.945	49.69
612.281	49.67
612.616	49.72
612.951	49.78
613.286	49.85
613.621	49.93
613.956	50.04
614.291	50.13
614.626	50.2
614.961	50.32
615.296	50.31
615.631	50.18
615.966	50.3
616.3	50.5
616.635	50.6
616.97	50.63
617.304	50.62
617.639	50.73
617.973	50.66
618.308	50.69
618.642	50.63
618.977	50.66
619.311	50.76
619.646	50.85
619.98	50.9
620.314	50.89
620.648	50.77
620.983	50.8
621.317	50.88
621.651	50.92
621.985	50.92
622.319	50.99
622.653	51.1
622.987	51.07
623.321	51.05
623.655	51.03
623.988	51.12
624.322	51.21
624.656	51.16
624.99	51.27
625.323	51.26
625.657	51.37
625.99	51.35
626.324	51.43
626.657	51.48
626.991	51.47
627.324	51.49
627.658	51.68
627.991	51.71
628.324	51.65
628.657	51.69
628.991	51.75
629.324	51.83
629.657	51.9
629.99	51.94
630.323	51.93
630.656	51.99
630.989	51.95
631.322	51.92
631.655	51.92
631.987	51.98
632.32	52.08
632.653	52.05
632.986	52.19
633.318	52.16
633.651	52.17
633.984	52.25
634.316	52.37
634.649	52.36
634.981	52.32
635.313	52.42
635.646	52.44
635.978	52.5
636.31	52.48
636.643	52.42
636.975	52.54
637.307	52.64
637.639	52.66
637.971	52.8
638.303	52.78
638.635	52.89
638.967	52.91
639.299	53.01
639.631	53.03
639.963	53.06
640.295	53.18
640.626	53.15
640.958	53.15
641.29	53.08
641.621	53.17
641.953	53.2
642.285	53.16
642.616	53.11
642.948	53.22
643.279	53.26
643.61	53.47
643.942	53.48
644.273	53.46
644.604	53.46
644.936	53.28
645.267	53.34
645.598	53.34
645.929	53.23
646.26	53.16
646.591	53.3
646.922	53.34
647.253	53.27
647.584	53.31
647.915	53.4
648.245	53.42
648.576	53.4
648.907	53.36
649.238	53.46
649.568	53.5
649.899	53.4
650.229	53.4
650.56	53.36
650.89	53.25
651.221	53.18
651.551	53.29
651.882	53.32
652.212	53.41
652.542	53.47
652.872	53.62
653.203	53.63
653.533	53.47
653.863	53.44
654.193	53.44
654.523	53.5
654.853	53.35
655.183	53.44
655.513	53.55
655.843	53.61
656.172	53.66
656.502	53.73
656.832	53.78
657.162	53.86
657.491	53.85
657.821	53.87
658.15	54
658.48	54.03
658.809	54.09
659.139	54.13
659.468	54.11
659.798	54.1
660.127	54.23
660.456	54.32
660.785	54.39
661.115	54.35
661.444	54.32
661.773	54.36
662.102	54.33
662.431	54.28
662.76	54.25
663.089	54.32
663.418	54.3
663.747	54.3
664.076	54.23
664.404	54.27
664.733	54.29
665.062	54.26
665.39	54.18
665.719	54.28
666.048	54.37
666.376	54.42
666.705	54.36
667.033	54.35
667.362	54.4
667.69	54.37
668.018	54.45
668.347	54.54
668.675	54.56
669.003	54.48
669.331	54.58
669.659	54.7
669.987	54.63
670.315	54.67
670.643	54.7
670.971	54.77
671.299	54.69
671.627	54.8
671.955	54.85
672.283	54.98
672.61	54.9
672.938	54.81
673.266	54.89
673.593	54.94
673.921	54.94
674.249	54.97
674.576	54.86
674.904	54.92
675.231	54.9
675.558	54.94
675.886	55.01
676.213	54.98
676.54	54.95
676.867	54.76
677.195	54.79
677.522	54.87
677.849	54.85
678.176	54.94
678.503	54.96
678.83	55.04
679.157	54.96
679.484	54.98
679.81	55.06
680.137	55.04
680.464	55.17
680.791	55.06
681.117	55.11
681.444	55.29
681.771	55.44
682.097	55.44
682.424	55.6
682.75	55.66
683.077	55.71
683.403	55.78
683.729	55.94
684.056	55.87
684.382	55.75
684.708	55.85
685.034	55.86
685.36	55.83
685.686	55.76
686.012	55.91
686.339	56.01
686.664	55.98
686.99	55.98
687.316	56.04
687.642	56.26
687.968	56.33
688.294	56.35
688.619	56.18
688.945	56.34
689.271	56.22
689.596	56.23
689.922	56.26
690.247	56.1
690.573	56.22
690.898	56.36
691.224	56.46
691.549	56.25
691.874	56.33
692.2	56.38
692.525	56.48
692.85	56.52
693.175	56.53
693.5	56.38
693.825	56.46
694.15	56.54
694.475	56.24
694.8	56.21
695.125	56.07
695.45	56.23
695.775	56.19
696.099	56.33
696.424	56.33
696.749	56.28
697.073	56.46
697.398	56.53
697.723	56.68
698.047	56.79
698.372	56.89
698.696	56.92
699.02	57.03
699.345	56.92
699.669	56.91
699.993	56.85
700.318	56.99
700.642	56.82
700.966	56.62
701.29	56.77
701.614	56.74
701.938	56.79
702.262	56.71
702.586	56.65
702.91	56.69
703.234	56.74
703.557	56.76
703.881	56.7
704.205	56.39
704.529	56.31
704.852	56.31
705.176	56.4
705.499	56.42
705.823	56.32
706.146	56.41
706.47	56.38
706.793	56.42
707.117	56.58
707.44	56.83
707.763	56.79
708.086	56.89
708.409	56.84
708.733	56.98
709.056	56.9
709.379	56.84
709.702	56.75
710.025	56.89
710.348	56.82
710.671	56.82
710.993	57.05
711.316	56.82
711.639	56.86
711.962	56.93
712.284	56.92
712.607	56.9
712.93	56.84
713.252	56.74
713.575	56.65
713.897	56.55
714.22	56.43
714.542	56.63
714.864	56.69
715.187	56.83
715.509	56.65
715.831	56.57
716.153	56.68
716.475	56.73
716.798	56.66
717.12	56.91
717.442	56.93
717.764	57.02
718.085	57.28
718.407	57.16
718.729	57.13
719.051	57.36
719.373	57.32
719.695	57.36
720.016	57.47
720.338	57.91
720.659	58
720.981	58.16
721.302	58.34
721.624	58.53
721.945	58.26
722.267	58.61
722.588	59.01
722.909	59.1
723.231	58.92
723.552	59.13
723.873	59.09
724.194	59.05
724.515	58.81
724.836	58.73
725.157	58.88
725.478	58.92
725.799	58.53
726.12	58.67
726.441	58.78
726.762	58.62
727.083	58.38
727.403	58.06
727.724	57.96
728.045	57.69
728.365	57.58
728.686	57.68
729.006	57.74
729.327	57.67
729.647	57.49
729.967	57.69
730.288	57.45
730.608	57.27
730.928	57.36
731.249	57.54
731.569	57.42
731.889	57.26
732.209	57.2
732.529	57.25
732.849	57.34
733.169	57.37
733.489	57.59
733.809	57.58
734.129	57.71
734.448	57.77
734.768	57.88
735.088	57.94
735.408	58.08
735.727	57.99
736.047	58.15
736.366	58.5
736.686	58.3
737.005	58.46
737.325	58.66
737.644	58.57
737.963	58.5
738.283	58.57
738.602	58.65
738.921	58.51
739.24	58.46
739.56	58.26
739.879	58.2
740.198	58.12
740.517	58.25
740.836	58.3
741.155	58.26
741.473	58.28
741.792	57.67
742.111	57.5
742.43	57.55
742.748	57.43
743.067	57.04
743.386	57.05
743.704	56.96
744.023	56.63
744.341	56.43
744.66	56.28
744.978	56.06
745.297	56.04
745.615	56.07
745.933	56.24
746.252	56.27
746.57	56.14
746.888	56.39
747.206	56.05
747.524	55.84
747.842	55.87
748.16	55.79
748.478	56.65
748.796	57.11
749.114	56.93
749.432	56.67
749.749	56.74
750.067	57.18
750.385	57.01
750.703	57.17
751.02	57.21
751.338	57.4
751.655	57.94
751.973	58.06
752.29	58.22
752.608	57.94
752.925	57.6
753.242	58.35
753.56	58.13
753.877	58.51
754.194	58.72
754.511	58.5
754.828	58.75
755.145	58.28
755.462	57.9
755.779	58.11
756.096	58.02
756.413	58.15
756.73	58.12
757.047	58.5
757.364	58.53
757.68	58.91
757.997	58.78
758.314	58.87
758.63	58.68
758.947	58.2
759.264	58.3
759.58	58.84
759.896	58.2
760.213	58.08
760.529	58.09
760.846	58.43
761.162	58.72
761.478	58.68
761.794	58.55
762.11	58.68
762.426	58.62
762.743	59.04
763.059	59.32
763.375	58.85
763.69	58.7
764.006	58.64
764.322	58.45
764.638	58.78
764.954	58.91
765.27	59.13
765.585	59.72
765.901	59.74
766.216	59.58
766.532	59.76
766.848	60.04
767.163	59.92
767.478	59.71
767.794	59.25
768.109	59.11
768.424	59.27
768.74	59.18
769.055	59.39
769.37	59.13
769.685	58.8
770	59.24
770.315	59.4
770.63	59.54
770.945	59.99
771.26	59.7
771.575	59.4
771.89	59.39
772.205	59.27
772.52	58.93
772.834	58.51
773.149	58.38
773.464	58.17
773.778	58.31
774.093	58.48
774.407	59.12
774.722	58.9
775.036	58.93
775.351	58.86
775.665	58.69
775.979	58.38
776.293	58.3
776.608	58.49
776.922	58.06
777.236	58.2
777.55	57.72
777.864	58.24
778.178	58.34
778.492	57.85
778.806	57.77
779.12	58.18
779.434	58.31
779.747	58.12
780.061	57.71
780.375	57.52
780.689	57.06
781.002	57
781.316	57.24
781.629	57.35
781.943	57.32
782.256	57.14
782.57	57.75
782.883	57.55
783.196	56.93
783.51	56.59
783.823	56.44
784.136	56.61
784.449	55.9
784.762	55.43
785.075	55.4
785.388	55.78
785.701	55.8
786.014	55.96
786.327	55.93
786.64	56.82
786.953	57.24
787.266	57.33
787.578	57.34
787.891	57.35
788.204	57.47
788.516	56.91
788.829	57.46
789.141	57.46
789.454	57.76
789.766	58.39
790.079	58.92
790.391	59.2
790.703	59.31
791.016	59.28
791.328	59.78
791.64	60.15
791.952	59.9
792.264	59.75
792.576	59.74
792.888	59.92
793.2	59.25
793.512	58.99
793.824	58.92
794.136	58.58
794.448	58.14
794.76	58.15
795.071	58.26
795.383	57.06
795.695	57.06
796.006	56.93
796.318	56.4
796.629	56.83
796.941	56.43
797.252	56.57
797.564	56.41
797.875	55.69
798.186	55.7
798.497	54.79
798.809	54.51
799.12	55.31
799.431	55.43
799.742	55.44
800.053	55.17
800.364	55.62
800.675	56.36
800.986	56.87
801.297	56.71
801.608	57.55
801.918	57.47
802.229	57.38
802.54	57.8
802.851	58.12
803.161	58.12
803.472	58.62
803.782	58.51
804.093	58.76
804.403	59.18
804.714	59.45
805.024	60.11
805.334	60.65
805.645	60.03
805.955	60.45
806.265	60.67
806.575	60.62
806.885	60.37
807.195	59.89
807.505	59.04
807.815	58.49
808.125	58.06
808.435	58.44
808.745	57.72
809.055	57.49
809.365	57.75
809.674	57.56
809.984	57.18
810.294	57.1
810.603	57.02
810.913	56.77
811.222	56.23
811.532	55.82
811.841	55.81
812.151	54.43
812.46	54.15
812.769	54.1
813.079	53.67
813.388	53.82
813.697	54.1
814.006	54.58
814.315	55.06
814.624	55.91
814.933	55.73
815.242	55.92
815.551	55.12
815.86	55.26
816.169	55.05
816.478	54.98
816.786	54.71
817.095	55.06
817.404	55.33
817.712	55.25
818.021	56.17
818.33	56.37
818.638	57.5
818.947	57.96
819.255	58.59
819.563	59.34
819.872	59.93
820.18	60.01
820.488	60.1
820.796	60.47
821.105	60.25
821.413	60.53
821.721	60.59
822.029	60.9
822.337	60.53
822.645	60.73
822.953	60.87
823.26	60.98
823.568	60.75
823.876	60.69
824.184	60.63
824.491	60.74
824.799	60.6
825.107	60.72
825.414	60.74
825.722	60.76
826.029	60.62
826.337	60.52
826.644	60.42
826.951	60.63
827.259	60.44
827.566	60.41
827.873	60.59
828.18	60.61
828.488	60.67
828.795	61.21
829.102	61.14
829.409	60.92
829.716	60.75
830.023	60.98
830.329	60.7
830.636	61
830.943	60.48
831.25	60.76
831.557	60.63
831.863	60.24
832.17	59.44
832.476	59.52
832.783	58.92
833.089	58.99
833.396	58.95
833.702	58.38
834.009	58.39
834.315	58.13
834.621	57.84
834.928	57.21
835.234	56.78
835.54	56.5
835.846	56.37
836.152	56.44
836.458	56.22
836.764	56.89
837.07	56.6
837.376	56.54
837.682	56.42
837.988	56.02
838.293	56.75
838.599	57.26
838.905	57.24
839.211	57.63
839.516	57.66
839.822	57.26
840.127	56.98
840.433	56.77
840.738	56.96
841.044	57.96
841.349	58.12
841.654	58.65
841.959	59.66
842.265	59.7
842.57	59.34
842.875	59.95
843.18	60.42
843.485	61.17
843.79	62.2
844.095	62.86
844.4	63.65
844.705	62.47
845.01	62.12
845.315	61.98
845.619	62
845.924	61.06
846.229	60.48
846.533	62.18
846.838	62.77
847.142	62.44
847.447	61.19
847.751	60.77
848.056	61.29
848.36	60.01
848.664	59.88
848.969	60.15
849.273	61.41
849.577	58.62
849.881	58.58
850.185	56.29
850.489	56.35
850.794	55.72
851.097	55.62
851.401	54.71
851.705	53.89
852.009	52.6
852.313	54.75
852.617	54.57
852.92	54.46
853.224	52.18
853.528	51.3
853.831	51.95
854.135	52.61
854.438	51.15
854.742	51.06
855.045	51.44
855.349	50.19
855.652	51.66
855.955	53.96
856.259	53.16
856.562	54.81
856.865	55.63
857.168	54.84
857.471	53.12
857.774	55.25
858.077	55.61
858.38	57.19
858.683	55.93
858.986	56.97
859.289	57.96
859.592	61.17
859.894	59.89
860.197	58.87
860.5	57.89
860.802	55.43
861.105	51.57
861.407	52.17
861.71	53.09
862.012	51.31
862.315	50.46
862.617	49.5
862.919	50.06
863.222	48.43
863.524	50.36
863.826	48.71
864.128	46.27
864.43	47.15
864.732	44.41
865.034	42.42
865.336	41.81
865.638	40.22
865.94	39.62
866.242	40.88
866.544	40.7
866.846	43.68
867.147	45.35
867.449	49.47
867.751	47.84
868.052	48.31
868.354	45.79
868.655	46.04
868.957	47.11
869.258	45.52
869.56	46.95
869.861	45.58
870.162	48.27
870.463	52.89
870.765	53.75
871.066	56.02
871.367	56.06
871.668	54.14
871.969	54.8
872.27	54.22
872.571	53.02
872.872	53.51
873.173	52.23
873.473	53.93
873.774	52.53
874.075	52.96
874.376	54.19
874.676	55.04
874.977	57.27
875.277	57.18
875.578	59.7
875.878	58.47
876.179	59.73
876.479	59.76
876.78	56.03
877.08	55.18
877.38	55.29
877.68	57.75
877.981	61.68
878.281	62.84
878.581	63.49
