Data from BU26945_Reflection_00015.txt Node
Date: Tue Nov 19 10:49:48 EST 2019
User: vgr7
Spectrometer: USB2G7710
Scans to average: 3
Trigger mode: 4
Integration Time (sec): 2.000000E-2
Electric dark correction enabled: true
Boxcar width: 10
XAxis mode: Wavelengths
Number of Pixels in Spectrum: 2048
>>>>>Begin Spectral Data<<<<<
177.721	78.19
178.105	50.66
178.488	-21.91
178.871	109.38
179.254	40
179.636	286.34
180.019	844.76
180.402	-400
180.785	-17.11
181.168	-54.94
181.55	-42.76
181.933	-72.13
182.316	-74.05
182.698	-77.79
183.081	-65.58
183.463	-88.58
183.846	-78.25
184.228	-89.25
184.611	-51.11
184.993	-23.37
185.376	-18.13
185.758	-12.34
186.14	-36.26
186.522	-39.35
186.904	-32
187.287	-33.82
187.669	-30.17
188.051	-27.18
188.433	-39.03
188.815	-44.97
189.197	-34.18
189.579	-47.96
189.961	-56.52
190.342	-56.43
190.724	-61.75
191.106	-57.28
191.488	-36.96
191.869	-40.22
192.251	-37.28
192.633	-42.2
193.014	-56.66
193.396	-62.51
193.777	-71.25
194.159	-41.78
194.54	-35.5
194.922	-59.43
195.303	-80.66
195.684	-49.6
196.065	-39.78
196.447	-41.37
196.828	-25.09
197.209	-30.13
197.59	-3.62
197.971	6.21
198.352	0.28
198.733	-6.97
199.114	-11.21
199.495	-4.93
199.876	-1.29
200.257	-14.55
200.638	-2.63
201.018	-7.19
201.399	8.16
201.78	11.69
202.16	9.33
202.541	10.52
202.922	34.06
203.302	21.05
203.683	20.05
204.063	18.94
204.444	25.37
204.824	30.18
205.204	33.69
205.585	12.69
205.965	7.98
206.345	-1.92
206.725	12.4
207.106	20.13
207.486	16.87
207.866	8.29
208.246	26.57
208.626	0.52
209.006	-6.35
209.386	-36.84
209.766	-50.46
210.145	-39.22
210.525	-35.57
210.905	-51.33
211.285	-29.72
211.664	-31.89
212.044	-26.44
212.424	-32.67
212.803	-40.74
213.183	-46.65
213.562	-19.28
213.942	-31.93
214.321	-30.83
214.701	-39.84
215.08	-50.09
215.459	-41.63
215.838	-62.74
216.218	-56.04
216.597	-27.68
216.976	-35.06
217.355	-31.09
217.734	-28.86
218.113	-26
218.492	-45.58
218.871	-18.45
219.25	-18.02
219.629	-42.8
220.008	-47.89
220.387	-52.83
220.766	-22.51
221.144	-7.69
221.523	-27.82
221.902	-12.68
222.28	-5.93
222.659	13.88
223.037	21.23
223.416	20.48
223.794	27.34
224.173	25.67
224.551	17.2
224.929	11.2
225.308	2.49
225.686	0.04
226.064	-0.86
226.442	7.92
226.821	4.2
227.199	-0.06
227.577	-1.22
227.955	-1.28
228.333	-2.68
228.711	-7.4
229.089	-9.7
229.467	-11.04
229.845	-10.74
230.222	-7.7
230.6	-7.46
230.978	-6.85
231.356	-7.8
231.733	-5.62
232.111	-6.24
232.488	-6.11
232.866	-2.26
233.243	0.23
233.621	0.64
233.998	0.34
234.376	-2.85
234.753	-2.51
235.13	-2.26
235.508	0.56
235.885	-0.91
236.262	-1.89
236.639	-1.83
237.016	-0.3
237.393	1.22
237.77	2.66
238.147	2.01
238.524	1.87
238.901	1.08
239.278	1.33
239.655	1.32
240.032	1.38
240.409	1.41
240.785	1.6
241.162	0.84
241.539	1.05
241.915	1.17
242.292	1.95
242.668	2.35
243.045	2.86
243.421	3.03
243.798	3.63
244.174	4.14
244.551	4.52
244.927	4.36
245.303	4.17
245.679	3.83
246.056	4.04
246.432	4.12
246.808	4.49
247.184	4.56
247.56	4.46
247.936	4.55
248.312	4.75
248.688	4.6
249.064	4.96
249.44	4.87
249.815	4.97
250.191	5.1
250.567	4.96
250.943	5.03
251.318	5.02
251.694	4.97
252.069	4.71
252.445	4.84
252.82	4.91
253.196	4.96
253.571	5.27
253.947	5.44
254.322	5.15
254.697	4.6
255.073	4.61
255.448	4.71
255.823	4.3
256.198	4.12
256.573	4.26
256.948	4.54
257.323	4.65
257.698	4.5
258.073	4.18
258.448	4.06
258.823	3.97
259.198	4.13
259.573	4.03
259.948	4.25
260.322	4.17
260.697	4.28
261.072	4.43
261.446	4.38
261.821	4.25
262.195	4.34
262.57	4.56
262.944	4.43
263.319	4.27
263.693	4.41
264.067	4.45
264.442	4.28
264.816	4.24
265.19	4.13
265.564	4.15
265.938	4.26
266.313	4.44
266.687	4.32
267.061	4.27
267.435	4.32
267.809	4.07
268.183	3.96
268.556	3.77
268.93	3.71
269.304	3.61
269.678	3.76
270.051	3.63
270.425	3.6
270.799	3.62
271.172	3.71
271.546	3.7
271.919	3.68
272.293	3.85
272.666	3.74
273.04	3.88
273.413	4.07
273.787	3.9
274.16	3.78
274.533	3.99
274.906	4.05
275.279	3.96
275.653	4.21
276.026	4.25
276.399	4.26
276.772	4.3
277.145	4.25
277.518	4.06
277.891	4.2
278.263	4.16
278.636	4.36
279.009	4.53
279.382	4.68
279.755	4.78
280.127	4.67
280.5	4.62
280.872	4.57
281.245	4.37
281.617	4.63
281.99	4.61
282.362	4.53
282.735	4.48
283.107	4.74
283.479	4.67
283.852	4.74
284.224	4.78
284.596	4.63
284.968	4.71
285.34	4.77
285.713	4.75
286.085	4.71
286.457	4.79
286.829	4.72
287.201	4.74
287.572	4.76
287.944	4.89
288.316	4.99
288.688	5.18
289.06	5.28
289.431	5.26
289.803	5.35
290.175	5.37
290.546	5.37
290.918	5.35
291.289	5.29
291.661	5.46
292.032	5.49
292.403	5.66
292.775	5.71
293.146	5.91
293.517	6.05
293.889	5.99
294.26	5.92
294.631	6
295.002	6
295.373	6.14
295.744	6.11
296.115	6.13
296.486	6.07
296.857	6.14
297.228	6.21
297.599	6.37
297.97	6.5
298.34	6.57
298.711	6.52
299.082	6.71
299.452	6.64
299.823	6.63
300.194	6.72
300.564	6.81
300.935	6.73
301.305	6.83
301.676	7.13
302.046	7.08
302.416	7.28
302.787	7.5
303.157	7.52
303.527	7.79
303.897	7.98
304.267	8.05
304.637	8.1
305.008	8.29
305.378	8.34
305.748	8.43
306.117	8.49
306.487	8.68
306.857	8.81
307.227	9.05
307.597	9.33
307.967	9.51
308.336	9.59
308.706	9.89
309.076	9.98
309.445	10.16
309.815	10.25
310.184	10.1
310.554	10.14
310.923	10.12
311.293	10.13
311.662	10.1
312.031	10.24
312.401	10.4
312.77	10.3
313.139	10.33
313.508	10.34
313.877	10.43
314.246	10.47
314.616	10.56
314.985	10.49
315.353	10.56
315.722	10.55
316.091	10.6
316.46	10.68
316.829	10.81
317.198	10.65
317.567	10.9
317.935	11.03
318.304	11.36
318.672	11.6
319.041	11.75
319.41	11.92
319.778	11.99
320.147	11.92
320.515	12.19
320.883	12.31
321.252	12.44
321.62	12.48
321.988	12.64
322.357	12.77
322.725	12.93
323.093	12.92
323.461	13.07
323.829	13.36
324.197	13.37
324.565	13.35
324.933	13.47
325.301	13.39
325.669	13.47
326.037	13.29
326.405	13.31
326.772	13.28
327.14	13.28
327.508	13.23
327.875	13.36
328.243	13.37
328.61	13.37
328.978	13.5
329.346	13.64
329.713	13.67
330.08	13.86
330.448	13.91
330.815	14.12
331.182	14.14
331.55	13.98
331.917	14.01
332.284	14.05
332.651	14.26
333.018	14.41
333.385	14.65
333.752	14.69
334.119	14.78
334.486	14.99
334.853	15.1
335.22	15.24
335.587	15.33
335.954	15.26
336.32	15.31
336.687	15.26
337.054	15.37
337.42	15.41
337.787	15.31
338.153	15.41
338.52	15.43
338.886	15.45
339.253	15.52
339.619	15.61
339.986	15.68
340.352	15.6
340.718	15.71
341.084	15.78
341.451	15.91
341.817	15.88
342.183	15.79
342.549	15.92
342.915	16.13
343.281	16.09
343.647	16.18
344.013	16.33
344.379	16.51
344.745	16.42
345.11	16.43
345.476	16.44
345.842	16.44
346.208	16.57
346.573	16.74
346.939	16.79
347.304	16.8
347.67	16.85
348.035	16.83
348.401	16.87
348.766	16.82
349.132	16.91
349.497	16.89
349.862	16.86
350.228	16.74
350.593	16.62
350.958	16.76
351.323	16.77
351.688	16.78
352.053	16.8
352.418	16.98
352.783	17.07
353.148	17.11
353.513	17.15
353.878	17.06
354.243	17
354.608	17.02
354.972	17.03
355.337	16.99
355.702	17.01
356.066	17
356.431	16.93
356.795	16.93
357.16	16.97
357.524	16.97
357.889	17
358.253	17.09
358.618	17.1
358.982	17.14
359.346	17.14
359.71	17.13
360.075	17.08
360.439	16.97
360.803	16.9
361.167	16.86
361.531	16.81
361.895	16.77
362.259	16.82
362.623	16.81
362.987	16.91
363.351	16.92
363.714	16.9
364.078	16.94
364.442	16.83
364.806	16.88
365.169	16.93
365.533	16.95
365.896	16.88
366.26	16.76
366.623	16.73
366.987	16.64
367.35	16.61
367.714	16.58
368.077	16.66
368.44	16.73
368.803	16.64
369.167	16.62
369.53	16.54
369.893	16.52
370.256	16.42
370.619	16.28
370.982	16.09
371.345	16.04
371.708	16
372.071	15.95
372.434	15.79
372.797	15.69
373.159	15.53
373.522	15.46
373.885	15.39
374.247	15.38
374.61	15.32
374.973	15.18
375.335	15.02
375.698	14.9
376.06	14.83
376.423	14.78
376.785	14.68
377.147	14.54
377.51	14.41
377.872	14.38
378.234	14.33
378.596	14.32
378.958	14.19
379.321	14.05
379.683	14.05
380.045	13.97
380.407	13.88
380.769	13.81
381.13	13.66
381.492	13.62
381.854	13.48
382.216	13.41
382.578	13.33
382.939	13.27
383.301	13.15
383.663	13.07
384.024	12.98
384.386	12.93
384.747	12.96
385.109	12.9
385.47	12.84
385.832	12.74
386.193	12.68
386.554	12.67
386.916	12.68
387.277	12.55
387.638	12.52
387.999	12.48
388.36	12.42
388.721	12.37
389.082	12.28
389.443	12.23
389.804	12.16
390.165	12.16
390.526	12.1
390.887	12.05
391.248	11.95
391.609	11.91
391.969	11.82
392.33	11.72
392.691	11.58
393.051	11.49
393.412	11.44
393.772	11.41
394.133	11.29
394.493	11.18
394.854	11.12
395.214	11.01
395.574	10.95
395.935	10.86
396.295	10.78
396.655	10.71
397.015	10.59
397.376	10.54
397.736	10.37
398.096	10.3
398.456	10.24
398.816	10.16
399.176	10.05
399.535	9.98
399.895	9.92
400.255	9.88
400.615	9.8
400.975	9.7
401.334	9.6
401.694	9.61
402.054	9.55
402.413	9.5
402.773	9.47
403.132	9.43
403.492	9.46
403.851	9.41
404.211	9.4
404.57	9.35
404.929	9.28
405.288	9.26
405.648	9.21
406.007	9.17
406.366	9.14
406.725	9.1
407.084	9.06
407.443	9.02
407.802	8.98
408.161	8.94
408.52	8.91
408.879	8.89
409.238	8.82
409.596	8.76
409.955	8.71
410.314	8.7
410.673	8.63
411.031	8.55
411.39	8.52
411.748	8.49
412.107	8.47
412.465	8.46
412.824	8.44
413.182	8.41
413.54	8.4
413.899	8.35
414.257	8.31
414.615	8.3
414.974	8.24
415.332	8.22
415.69	8.15
416.048	8.12
416.406	8.04
416.764	7.98
417.122	7.95
417.48	7.91
417.838	7.84
418.195	7.8
418.553	7.77
418.911	7.71
419.269	7.64
419.626	7.61
419.984	7.54
420.342	7.5
420.699	7.45
421.057	7.39
421.414	7.37
421.772	7.33
422.129	7.27
422.486	7.23
422.844	7.2
423.201	7.18
423.558	7.15
423.915	7.13
424.273	7.11
424.63	7.1
424.987	7.06
425.344	7.04
425.701	6.99
426.058	6.97
426.415	6.96
426.772	6.93
427.128	6.9
427.485	6.89
427.842	6.87
428.199	6.85
428.555	6.84
428.912	6.8
429.269	6.8
429.625	6.77
429.982	6.8
430.338	6.76
430.695	6.74
431.051	6.72
431.407	6.69
431.764	6.67
432.12	6.63
432.476	6.66
432.832	6.65
433.189	6.65
433.545	6.66
433.901	6.66
434.257	6.68
434.613	6.67
434.969	6.68
435.325	6.72
435.681	6.74
436.036	6.74
436.392	6.75
436.748	6.77
437.104	6.8
437.459	6.77
437.815	6.8
438.171	6.8
438.526	6.82
438.882	6.85
439.237	6.83
439.593	6.87
439.948	6.86
440.304	6.85
440.659	6.85
441.014	6.83
441.369	6.84
441.725	6.82
442.08	6.82
442.435	6.81
442.79	6.77
443.145	6.76
443.5	6.74
443.855	6.72
444.21	6.69
444.565	6.67
444.92	6.67
445.275	6.65
445.629	6.64
445.984	6.61
446.339	6.59
446.693	6.58
447.048	6.54
447.403	6.51
447.757	6.49
448.112	6.48
448.466	6.46
448.82	6.42
449.175	6.39
449.529	6.37
449.883	6.35
450.238	6.33
450.592	6.29
450.946	6.28
451.3	6.26
451.654	6.2
452.008	6.16
452.362	6.11
452.716	6.08
453.07	6.05
453.424	6.03
453.778	5.99
454.132	5.99
454.486	6.01
454.839	6.02
455.193	6.02
455.547	6
455.9	5.99
456.254	6
456.607	6
456.961	6
457.314	5.98
457.668	5.97
458.021	6
458.375	6.02
458.728	6.03
459.081	6.07
459.434	6.08
459.787	6.12
460.141	6.14
460.494	6.17
460.847	6.19
461.2	6.22
461.553	6.24
461.906	6.25
462.259	6.25
462.611	6.29
462.964	6.33
463.317	6.37
463.67	6.42
464.022	6.43
464.375	6.46
464.728	6.52
465.08	6.58
465.433	6.62
465.785	6.66
466.138	6.7
466.49	6.75
466.843	6.8
467.195	6.84
467.547	6.9
467.899	6.93
468.252	6.95
468.604	7
468.956	7.05
469.308	7.06
469.66	7.12
470.012	7.12
470.364	7.15
470.716	7.19
471.068	7.23
471.42	7.3
471.772	7.35
472.123	7.39
472.475	7.41
472.827	7.43
473.178	7.45
473.53	7.48
473.882	7.5
474.233	7.51
474.585	7.56
474.936	7.54
475.288	7.56
475.639	7.6
475.99	7.58
476.342	7.6
476.693	7.6
477.044	7.6
477.395	7.62
477.746	7.6
478.097	7.58
478.448	7.54
478.8	7.48
479.15	7.44
479.501	7.39
479.852	7.35
480.203	7.31
480.554	7.26
480.905	7.24
481.255	7.21
481.606	7.18
481.957	7.16
482.307	7.14
482.658	7.11
483.009	7.08
483.359	7.07
483.709	7.05
484.06	7.04
484.41	7.02
484.761	7.01
485.111	7
485.461	7
485.811	6.99
486.162	6.99
486.512	6.99
486.862	7
487.212	6.99
487.562	6.99
487.912	7
488.262	6.99
488.612	7
488.961	7.01
489.311	7.03
489.661	7.03
490.011	7.06
490.36	7.06
490.71	7.08
491.06	7.09
491.409	7.11
491.759	7.15
492.108	7.17
492.458	7.2
492.807	7.23
493.157	7.27
493.506	7.3
493.855	7.35
494.204	7.39
494.554	7.45
494.903	7.5
495.252	7.57
495.601	7.67
495.95	7.74
496.299	7.84
496.648	7.92
496.997	8.02
497.346	8.12
497.695	8.23
498.043	8.33
498.392	8.46
498.741	8.6
499.09	8.73
499.438	8.87
499.787	9
500.135	9.13
500.484	9.29
500.832	9.47
501.181	9.64
501.529	9.81
501.878	10.01
502.226	10.23
502.574	10.44
502.923	10.64
503.271	10.85
503.619	11.09
503.967	11.32
504.315	11.57
504.663	11.81
505.011	12.1
505.359	12.35
505.707	12.59
506.055	12.84
506.403	13.11
506.751	13.39
507.098	13.69
507.446	13.99
507.794	14.27
508.141	14.53
508.489	14.82
508.837	15.09
509.184	15.37
509.531	15.65
509.879	15.95
510.226	16.25
510.574	16.56
510.921	16.81
511.268	17.13
511.616	17.43
511.963	17.78
512.31	18.08
512.657	18.44
513.004	18.8
513.351	19.17
513.698	19.52
514.045	19.87
514.392	20.24
514.739	20.59
515.086	20.95
515.432	21.32
515.779	21.67
516.126	22.04
516.473	22.36
516.819	22.68
517.166	22.99
517.512	23.26
517.859	23.55
518.205	23.85
518.552	24.12
518.898	24.42
519.245	24.67
519.591	24.97
519.937	25.24
520.283	25.53
520.629	25.77
520.976	26.12
521.322	26.45
521.668	26.73
522.014	27.03
522.36	27.36
522.706	27.69
523.052	28.05
523.398	28.39
523.743	28.78
524.089	29.14
524.435	29.53
524.781	29.87
525.126	30.15
525.472	30.46
525.817	30.7
526.163	30.93
526.509	31.13
526.854	31.29
527.199	31.45
527.545	31.63
527.89	31.85
528.235	32.04
528.581	32.23
528.926	32.45
529.271	32.66
529.616	32.84
529.961	33.06
530.306	33.27
530.651	33.49
530.996	33.69
531.341	33.92
531.686	34.09
532.031	34.31
532.376	34.54
532.721	34.8
533.065	35.03
533.41	35.27
533.755	35.54
534.099	35.82
534.444	36.11
534.788	36.37
535.133	36.61
535.477	36.83
535.822	37.07
536.166	37.34
536.51	37.66
536.855	38
537.199	38.28
537.543	38.56
537.887	38.85
538.231	39.15
538.576	39.44
538.92	39.78
539.264	40.04
539.608	40.31
539.951	40.51
540.295	40.77
540.639	41.04
540.983	41.25
541.327	41.47
541.671	41.69
542.014	41.9
542.358	42.1
542.701	42.3
543.045	42.54
543.389	42.69
543.732	42.85
544.075	43.02
544.419	43.22
544.762	43.41
545.105	43.66
545.449	43.92
545.792	44.19
546.135	44.41
546.478	44.69
546.821	44.96
547.165	45.2
547.508	45.47
547.851	45.68
548.194	45.97
548.536	46.19
548.879	46.43
549.222	46.65
549.565	46.9
549.908	47.14
550.25	47.29
550.593	47.54
550.936	47.75
551.278	47.96
551.621	48.17
551.963	48.44
552.306	48.65
552.648	48.75
552.991	48.88
553.333	49.06
553.675	49.23
554.017	49.32
554.36	49.52
554.702	49.71
555.044	49.86
555.386	50.04
555.728	50.24
556.07	50.36
556.412	50.52
556.754	50.66
557.096	50.81
557.438	51.03
557.78	51.26
558.121	51.43
558.463	51.64
558.805	51.73
559.147	51.87
559.488	52
559.83	52.22
560.171	52.36
560.513	52.53
560.854	52.68
561.196	52.82
561.537	52.95
561.878	53.02
562.22	53.17
562.561	53.26
562.902	53.36
563.243	53.47
563.584	53.57
563.925	53.66
564.266	53.82
564.607	53.9
564.948	53.97
565.289	54.07
565.63	54.15
565.971	54.27
566.312	54.32
566.653	54.4
566.993	54.49
567.334	54.62
567.675	54.7
568.015	54.84
568.356	54.97
568.696	55.12
569.037	55.15
569.377	55.19
569.718	55.24
570.058	55.33
570.398	55.46
570.739	55.57
571.079	55.67
571.419	55.68
571.759	55.76
572.099	55.83
572.439	55.96
572.779	56.05
573.119	56.11
573.459	56.26
573.799	56.35
574.139	56.39
574.479	56.44
574.819	56.46
575.158	56.54
575.498	56.56
575.838	56.57
576.177	56.69
576.517	56.78
576.856	56.88
577.196	56.9
577.535	56.93
577.875	56.97
578.214	57.04
578.553	57.08
578.893	57.16
579.232	57.31
579.571	57.38
579.91	57.44
580.25	57.57
580.589	57.57
580.928	57.6
581.267	57.75
581.606	57.86
581.945	57.96
582.283	57.94
582.622	58
582.961	58.09
583.3	58.11
583.639	58.21
583.977	58.28
584.316	58.47
584.654	58.49
584.993	58.55
585.332	58.67
585.67	58.81
586.008	58.9
586.347	58.89
586.685	58.89
587.024	58.94
587.362	59
587.7	59.03
588.038	59.12
588.376	59.15
588.715	59.07
589.053	59.13
589.391	59.24
589.729	59.3
590.067	59.35
590.404	59.43
590.742	59.43
591.08	59.44
591.418	59.37
591.756	59.52
592.093	59.55
592.431	59.5
592.769	59.53
593.106	59.53
593.444	59.57
593.781	59.55
594.119	59.62
594.456	59.6
594.793	59.66
595.131	59.62
595.468	59.64
595.805	59.75
596.143	59.77
596.48	59.8
596.817	59.85
597.154	59.88
597.491	59.91
597.828	59.94
598.165	59.98
598.502	60.14
598.839	60.08
599.176	60.13
599.512	60.19
599.849	60.19
600.186	60.31
600.523	60.29
600.859	60.31
601.196	60.26
601.532	60.36
601.869	60.4
602.205	60.39
602.542	60.38
602.878	60.37
603.215	60.41
603.551	60.42
603.887	60.43
604.223	60.5
604.56	60.5
604.896	60.46
605.232	60.5
605.568	60.36
605.904	60.39
606.24	60.42
606.576	60.42
606.912	60.45
607.248	60.28
607.583	60.27
607.919	60.32
608.255	60.36
608.591	60.31
608.926	60.37
609.262	60.43
609.597	60.49
609.933	60.59
610.268	60.61
610.604	60.57
610.939	60.61
611.275	60.57
611.61	60.59
611.945	60.69
612.281	60.66
612.616	60.76
612.951	60.86
613.286	60.93
613.621	61.08
613.956	61.16
614.291	61.28
614.626	61.41
614.961	61.47
615.296	61.48
615.631	61.55
615.966	61.53
616.3	61.66
616.635	61.72
616.97	61.7
617.304	61.64
617.639	61.83
617.973	61.8
618.308	61.81
618.642	61.88
618.977	61.85
619.311	61.92
619.646	61.87
619.98	61.86
620.314	61.82
620.648	61.71
620.983	61.69
621.317	61.78
621.651	61.83
621.985	61.82
622.319	61.84
622.653	61.88
622.987	61.83
623.321	61.78
623.655	61.77
623.988	61.87
624.322	61.93
624.656	61.82
624.99	61.88
625.323	61.92
625.657	61.87
625.99	61.97
626.324	62
626.657	62.05
626.991	62.04
627.324	62.04
627.658	62.13
627.991	62.16
628.324	62.13
628.657	62.09
628.991	62.18
629.324	62.22
629.657	62.12
629.99	62.13
630.323	62.1
630.656	61.99
630.989	61.96
631.322	61.94
631.655	62.03
631.987	62.03
632.32	62.03
632.653	62.04
632.986	62.05
633.318	62.11
633.651	62.08
633.984	62.11
634.316	62.06
634.649	62.09
634.981	62.06
635.313	62.08
635.646	62.03
635.978	61.96
636.31	62.08
636.643	62.14
636.975	62.2
637.307	62.33
637.639	62.49
637.971	62.48
638.303	62.43
638.635	62.35
638.967	62.4
639.299	62.33
639.631	62.47
639.963	62.41
640.295	62.44
640.626	62.52
640.958	62.57
641.29	62.62
641.621	62.47
641.953	62.43
642.285	62.33
642.616	62.43
642.948	62.46
643.279	62.25
643.61	62.3
643.942	62.27
644.273	62.13
644.604	62.15
644.936	62.02
645.267	62.14
645.598	62.25
645.929	62.23
646.26	62.26
646.591	62.21
646.922	62.17
647.253	62.14
647.584	62.14
647.915	62.13
648.245	62.22
648.576	62.27
648.907	62.31
649.238	62.48
649.568	62.47
649.899	62.51
650.229	62.69
650.56	62.74
650.89	62.78
651.221	62.84
651.551	62.81
651.882	62.85
652.212	62.92
652.542	63.02
652.872	62.95
653.203	63.08
653.533	62.97
653.863	63.02
654.193	62.95
654.523	62.86
654.853	62.86
655.183	62.73
655.513	62.84
655.843	62.9
656.172	62.94
656.502	62.92
656.832	62.83
657.162	62.75
657.491	62.69
657.821	62.72
658.15	62.78
658.48	62.81
658.809	62.85
659.139	62.82
659.468	62.76
659.798	62.78
660.127	62.74
660.456	62.7
660.785	62.71
661.115	62.77
661.444	62.89
661.773	62.93
662.102	63.05
662.431	62.99
662.76	63.01
663.089	63.01
663.418	63.01
663.747	63.05
664.076	63.07
664.404	63.12
664.733	63.05
665.062	62.94
665.39	62.95
665.719	62.94
666.048	63.05
666.376	62.95
666.705	62.94
667.033	63.17
667.362	63.35
667.69	63.39
668.018	63.35
668.347	63.35
668.675	63.21
669.003	63.11
669.331	63.15
669.659	63.29
669.987	63.3
670.315	63.34
670.643	63.33
670.971	63.37
671.299	63.38
671.627	63.45
671.955	63.54
672.283	63.54
672.61	63.57
672.938	63.42
673.266	63.6
673.593	63.64
673.921	63.46
674.249	63.52
674.576	63.44
674.904	63.54
675.231	63.47
675.558	63.52
675.886	63.43
676.213	63.4
676.54	63.25
676.867	63.06
677.195	63.17
677.522	63.23
677.849	63.22
678.176	63.22
678.503	63.19
678.83	63.24
679.157	63.33
679.484	63.3
679.81	63.24
680.137	63.24
680.464	63.31
680.791	63.32
681.117	63.13
681.444	63.3
681.771	63.27
682.097	63.25
682.424	63.32
682.75	63.5
683.077	63.63
683.403	63.59
683.729	63.77
684.056	63.78
684.382	63.76
684.708	63.58
685.034	63.5
685.36	63.59
685.686	63.54
686.012	63.45
686.339	63.45
686.664	63.58
686.99	63.47
687.316	63.5
687.642	63.59
687.968	63.81
688.294	63.81
688.619	63.69
688.945	63.73
689.271	63.73
689.596	63.64
689.922	63.53
690.247	63.58
690.573	63.57
690.898	63.6
691.224	63.64
691.549	63.69
691.874	63.82
692.2	63.75
692.525	63.7
692.85	63.98
693.175	64.08
693.5	63.98
693.825	63.96
694.15	64.03
694.475	63.75
694.8	63.74
695.125	63.67
695.45	63.77
695.775	63.83
696.099	63.75
696.424	63.9
696.749	63.96
697.073	63.81
697.398	63.83
697.723	63.86
698.047	63.92
698.372	63.93
698.696	64.05
699.02	64.02
699.345	63.9
699.669	63.75
699.993	63.77
700.318	63.95
700.642	63.99
700.966	63.91
701.29	64
701.614	63.99
701.938	63.92
702.262	63.92
702.586	63.94
702.91	64.02
703.234	63.85
703.557	63.86
703.881	63.84
704.205	63.68
704.529	63.37
704.852	63.39
705.176	63.48
705.499	63.31
705.823	63.48
706.146	63.76
706.47	63.67
706.793	63.75
707.117	63.64
707.44	63.78
707.763	63.79
708.086	63.97
708.409	63.73
708.733	63.64
709.056	63.81
709.379	63.73
709.702	63.56
710.025	63.6
710.348	63.48
710.671	63.66
710.993	63.9
711.316	64.07
711.639	63.83
711.962	63.94
712.284	63.9
712.607	63.61
712.93	63.49
713.252	63.41
713.575	63.13
713.897	63.07
714.22	62.8
714.542	62.73
714.864	62.72
715.187	62.91
715.509	62.78
715.831	62.68
716.153	62.7
716.475	62.81
716.798	62.84
717.12	62.76
717.442	62.88
717.764	62.79
718.085	62.8
718.407	63.06
718.729	62.99
719.051	63.05
719.373	63.21
719.695	63.24
720.016	63.24
720.338	63.58
720.659	63.76
720.981	64.02
721.302	64.16
721.624	64.01
721.945	63.98
722.267	64.42
722.588	64.61
722.909	64.68
723.231	64.6
723.552	64.76
723.873	65.05
724.194	64.99
724.515	64.85
724.836	64.77
725.157	64.66
725.478	64.75
725.799	64.74
726.12	64.69
726.441	64.49
726.762	64.5
727.083	64.19
727.403	63.96
727.724	63.89
728.045	63.41
728.365	63.43
728.686	63.36
729.006	63.15
729.327	62.71
729.647	62.62
729.967	62.78
730.288	62.65
730.608	62.7
730.928	62.7
731.249	62.67
731.569	62.68
731.889	62.55
732.209	62.61
732.529	62.74
732.849	62.77
733.169	63.09
733.489	63.29
733.809	63.49
734.129	63.4
734.448	63.47
734.768	63.56
735.088	63.65
735.408	63.79
735.727	63.92
736.047	64.33
736.366	64.33
736.686	64.26
737.005	64.33
737.325	64.14
737.644	63.94
737.963	64.01
738.283	64.03
738.602	64.11
738.921	63.84
739.24	63.63
739.56	63.49
739.879	63.49
740.198	63.39
740.517	63.36
740.836	63.56
741.155	63.5
741.473	63.9
741.792	63.72
742.111	63.6
742.43	63.38
742.748	63.4
743.067	63.36
743.386	63.36
743.704	63.56
744.023	63.33
744.341	63.27
744.66	62.88
744.978	63.14
745.297	63.03
745.615	63.18
745.933	63.31
746.252	63.67
746.57	63.49
746.888	63.5
747.206	63.38
747.524	63.42
747.842	63.05
748.16	62.87
748.478	63.08
748.796	63.28
749.114	63.36
749.432	63.22
749.749	63.39
750.067	63.36
750.385	63.04
750.703	63.36
751.02	63.58
751.338	64.18
751.655	64.08
751.973	64.05
752.29	63.85
752.608	63.88
752.925	63.6
753.242	63.86
753.56	63.7
753.877	64.27
754.194	64.24
754.511	64.64
754.828	64.87
755.145	64.86
755.462	64.7
755.779	64.7
756.096	64.84
756.413	64.91
756.73	65.25
757.047	65.24
757.364	65.03
757.68	64.97
757.997	64.75
758.314	65.02
758.63	65.11
758.947	65.13
759.264	64.98
759.58	64.99
759.896	64.57
760.213	64.32
760.529	63.86
760.846	63.69
761.162	63.81
761.478	63.68
761.794	63.73
762.11	63.83
762.426	64.08
762.743	64.16
763.059	64.42
763.375	64.29
763.69	64.29
764.006	64.24
764.322	64.16
764.638	64.34
764.954	64.17
765.27	64.42
765.585	64.8
765.901	64.9
766.216	65.17
766.532	65.42
766.848	65.72
767.163	65.92
767.478	66.14
767.794	66.11
768.109	66.24
768.424	66.33
768.74	66.43
769.055	66.44
769.37	65.88
769.685	65.01
770	64.79
770.315	64.75
770.63	64.98
770.945	65.38
771.26	65.2
771.575	65.13
771.89	65.05
772.205	64.34
772.52	63.97
772.834	63.44
773.149	63.36
773.464	63.11
773.778	63
774.093	63.06
774.407	63.33
774.722	62.93
775.036	62.46
775.351	62.41
775.665	62.36
775.979	62.27
776.293	62.77
776.608	63.44
776.922	63.69
777.236	63.8
777.55	63.62
777.864	64.01
778.178	64.08
778.492	63.66
778.806	63.93
779.12	64.31
779.434	64.59
779.747	64.09
780.061	64.49
780.375	64.75
780.689	64.22
781.002	63.48
781.316	63.17
781.629	63.07
781.943	63.09
782.256	62.78
782.57	63.34
782.883	63.48
783.196	62.77
783.51	63.03
783.823	62.84
784.136	62.42
784.449	62.14
784.762	62.01
785.075	62.11
785.388	62.41
785.701	62.03
786.014	61.62
786.327	61.91
786.64	62.27
786.953	62.18
787.266	61.64
787.578	62.44
787.891	63.11
788.204	63.08
788.516	63.17
788.829	63.68
789.141	63.71
789.454	63.64
789.766	64.33
790.079	63.69
790.391	63.71
790.703	63.92
791.016	64.05
791.328	63.84
791.64	64.23
791.952	63.87
792.264	63.97
792.576	64.78
792.888	65.24
793.2	64.71
793.512	64.04
793.824	64.8
794.136	64.3
794.448	64.1
794.76	64.51
795.071	63.85
795.383	63.18
795.695	63.14
796.006	63.18
796.318	62.17
796.629	62.65
796.941	62.88
797.252	62.92
797.564	62.45
797.875	62.61
798.186	62.31
798.497	62.26
798.809	62.11
799.12	61.53
799.431	61
799.742	60.81
800.053	61.22
800.364	61.65
800.675	61.89
800.986	61.39
801.297	61.07
801.608	61.54
801.918	61.43
802.229	61.16
802.54	61.36
802.851	61.52
803.161	61.35
803.472	61.05
803.782	61.25
804.093	60.96
804.403	60.66
804.714	61.03
805.024	61.45
805.334	61.4
805.645	61.48
805.955	62.02
806.265	62.7
806.575	62.15
806.885	61.09
807.195	60.71
807.505	61.3
807.815	61.66
808.125	61.3
808.435	61.25
808.745	61.18
809.055	60.63
809.365	61.46
809.674	61.43
809.984	61.39
810.294	61.12
810.603	61.28
810.913	61.15
811.222	60.64
811.532	59.96
811.841	60.69
812.151	59.88
812.46	59.2
812.769	58.67
813.079	58.54
813.388	59.75
813.697	60.25
814.006	60.15
814.315	60.15
814.624	60.95
814.933	61.16
815.242	61.08
815.551	61.31
815.86	60.95
816.169	60.39
816.478	61.16
816.786	61.68
817.095	62.33
817.404	62.64
817.712	62.19
818.021	62.59
818.33	62.44
818.638	63.83
818.947	64.52
819.255	64.75
819.563	65.31
819.872	65.27
820.18	65.36
820.488	65.41
820.796	65.2
821.105	64.95
821.413	64.81
821.721	64.82
822.029	64.93
822.337	64.87
822.645	65.02
822.953	65.07
823.26	65.15
823.568	64.97
823.876	65.11
824.184	65.24
824.491	65.48
824.799	65.65
825.107	65.62
825.414	65.53
825.722	65.44
826.029	65.6
826.337	65.68
826.644	65.55
826.951	65.42
827.259	65.56
827.566	65.64
827.873	65.99
828.18	66.57
828.488	66.7
828.795	66.64
829.102	66.91
829.409	66.81
829.716	66.74
830.023	66.94
830.329	66.83
830.636	66.97
830.943	66.63
831.25	66.33
831.557	66.04
831.863	66.39
832.17	66.6
832.476	66.12
832.783	65.71
833.089	65.73
833.396	66.26
833.702	66.85
834.009	66.86
834.315	66.66
834.621	65.76
834.928	65.09
835.234	65.81
835.54	65.43
835.846	65.21
836.152	64.99
836.458	65.15
836.764	64.57
837.07	64.7
837.376	64.85
837.682	65
837.988	65.28
838.293	65.22
838.599	64.76
838.905	64.48
839.211	64.94
839.516	64.75
839.822	64.63
840.127	62.88
840.433	62.53
840.738	62.8
841.044	63.76
841.349	65.19
841.654	65.33
841.959	66.39
842.265	66.18
842.57	66.69
842.875	65.93
843.18	67.11
843.485	67.25
843.79	67.62
844.095	68.55
844.4	68.23
844.705	67.25
845.01	67.61
845.315	68.6
845.619	68.77
845.924	68.76
846.229	69.22
846.533	70.94
846.838	72.1
847.142	73.48
847.447	69.94
847.751	69.92
848.056	69.73
848.36	69.45
848.664	69
848.969	66.32
849.273	68.47
849.577	68.07
849.881	67.53
850.185	65.59
850.489	65.97
850.794	66.41
851.097	66.51
851.401	65.91
851.705	64.73
852.009	65.06
852.313	66.39
852.617	63.19
852.92	63.23
853.224	64.06
853.528	61.97
853.831	65.45
854.135	65.24
854.438	63.89
854.742	63.53
855.045	66.32
855.349	70.33
855.652	69.42
855.955	69.57
856.259	67.34
856.562	68.07
856.865	64.83
857.168	64.57
857.471	65.49
857.774	65.22
858.077	67.26
858.38	64.97
858.683	63.99
858.986	65.37
859.289	66.44
859.592	65.15
859.894	68.41
860.197	68.4
860.5	68.69
860.802	69.38
861.105	68.42
861.407	67.57
861.71	67.02
862.012	67.72
862.315	70.23
862.617	72.3
862.919	69.91
863.222	69.06
863.524	69.4
863.826	68.17
864.128	68.24
864.43	66.46
864.732	66.07
865.034	65.17
865.336	65.41
865.638	63.44
865.94	63.93
866.242	60.21
866.544	59.82
866.846	60.09
867.147	58.33
867.449	58.68
867.751	59.34
868.052	57.67
868.354	56.98
868.655	55.67
868.957	58.45
869.258	59.68
869.56	60.08
869.861	58.42
870.162	56.7
870.463	58.98
870.765	60.59
871.066	60.9
871.367	61.14
871.668	60.06
871.969	60.95
872.27	61.53
872.571	61.77
872.872	61.16
873.173	59.33
873.473	62.62
873.774	62.41
874.075	63.21
874.376	64.68
874.676	63.4
874.977	62.83
875.277	59.05
875.578	59.01
875.878	60.35
876.179	61.37
876.479	63.57
876.78	62.44
877.08	61.29
877.38	62.02
877.68	63.34
877.981	66.29
878.281	67.23
878.581	65.09
