Data from BU26932_Reflection_00013.txt Node
Date: Tue Nov 19 10:44:47 EST 2019
User: vgr7
Spectrometer: USB2G7710
Scans to average: 3
Trigger mode: 4
Integration Time (sec): 2.000000E-2
Electric dark correction enabled: true
Boxcar width: 10
XAxis mode: Wavelengths
Number of Pixels in Spectrum: 2048
>>>>>Begin Spectral Data<<<<<
177.721	77.92
178.105	35.83
178.488	79.27
178.871	254.84
179.254	-6500
179.636	-1502.27
180.019	615.34
180.402	371.43
180.785	-172.73
181.168	-52.99
181.55	-24.42
181.933	-96.72
182.316	127.65
182.698	119.19
183.081	152.48
183.463	115.6
183.846	92.49
184.228	66.7
184.611	40.35
184.993	27.38
185.376	26.64
185.758	15.99
186.14	4.93
186.522	19.02
186.904	14.78
187.287	19.89
187.669	38.96
188.051	33.8
188.433	21.5
188.815	24.3
189.197	17.71
189.579	8
189.961	16.17
190.342	19.04
190.724	8.13
191.106	6.56
191.488	3.8
191.869	15.85
192.251	20.57
192.633	14.64
193.014	16.17
193.396	9.03
193.777	27.95
194.159	22.85
194.54	14.23
194.922	27.17
195.303	20.65
195.684	0.56
196.065	-10.06
196.447	-34.2
196.828	-49.13
197.209	-29.82
197.59	-21.84
197.971	-22.98
198.352	-24.95
198.733	-26.78
199.114	-30.26
199.495	-24.94
199.876	-32.37
200.257	-38.48
200.638	-29.15
201.018	-45.44
201.399	-50.6
201.78	-64.45
202.16	-88.4
202.541	-77.75
202.922	-68.4
203.302	-54.55
203.683	-60.45
204.063	-46.97
204.444	-22.73
204.824	-23.56
205.204	-15.78
205.585	-20.96
205.965	-27.07
206.345	-24.04
206.725	-11.2
207.106	-12.54
207.486	-29.58
207.866	-35.94
208.246	-35.71
208.626	-51.13
209.006	-39.41
209.386	-31.34
209.766	-25.87
210.145	-2.94
210.525	-3.82
210.905	-11.2
211.285	-7.01
211.664	-2.55
212.044	-5.4
212.424	-5.73
212.803	5.86
213.183	7.96
213.562	18.45
213.942	19.76
214.321	9.76
214.701	4.97
215.08	18.26
215.459	37.39
215.838	30.76
216.218	25.56
216.597	26.72
216.976	21.57
217.355	24.11
217.734	17.79
218.113	12.82
218.492	9.47
218.871	7.63
219.25	12.57
219.629	6.49
220.008	6.98
220.387	4
220.766	3.58
221.144	-3.78
221.523	-6.98
221.902	-1.67
222.28	0.68
222.659	8.63
223.037	4.22
223.416	2.84
223.794	9.18
224.173	2.14
224.551	7.84
224.929	7.68
225.308	10.45
225.686	8.81
226.064	1.7
226.442	7.48
226.821	5.92
227.199	0.47
227.577	0.9
227.955	1.08
228.333	2.11
228.711	0.23
229.089	0.08
229.467	0.66
229.845	-4.87
230.222	-1.85
230.6	-6.29
230.978	-5.19
231.356	-6.64
231.733	-5.85
232.111	-1.78
232.488	-3.47
232.866	-0.81
233.243	-2.22
233.621	-0.74
233.998	0.16
234.376	-0.49
234.753	-0.96
235.13	-0.39
235.508	0.72
235.885	-0.1
236.262	-1.44
236.639	-0.3
237.016	1.21
237.393	1.29
237.77	3.37
238.147	2.84
238.524	4.23
238.901	4.19
239.278	3.86
239.655	3.47
240.032	3.52
240.409	4.31
240.785	3.69
241.162	3.92
241.539	3.57
241.915	3.31
242.292	3.5
242.668	3.74
243.045	3.97
243.421	4.15
243.798	4.39
244.174	5.11
244.551	5.19
244.927	4.78
245.303	4.68
245.679	4.81
246.056	4.8
246.432	4.44
246.808	4.62
247.184	4.62
247.56	4.53
247.936	4.65
248.312	4.4
248.688	4.53
249.064	4.35
249.44	4.27
249.815	4.41
250.191	4.28
250.567	4.18
250.943	4.18
251.318	3.95
251.694	3.97
252.069	3.57
252.445	3.15
252.82	3.49
253.196	3.42
253.571	3.21
253.947	3
254.322	3.2
254.697	2.93
255.073	3.07
255.448	3.42
255.823	3.03
256.198	3.17
256.573	3.22
256.948	3.37
257.323	3.64
257.698	3.75
258.073	3.71
258.448	3.98
258.823	4.01
259.198	4.14
259.573	4.1
259.948	4.11
260.322	4.28
260.697	4.24
261.072	4.17
261.446	4.32
261.821	4.42
262.195	4.41
262.57	4.52
262.944	4.58
263.319	4.52
263.693	4.65
264.067	4.58
264.442	4.63
264.816	4.66
265.19	4.7
265.564	4.61
265.938	4.62
266.313	4.51
266.687	4.39
267.061	4.18
267.435	4.19
267.809	4.3
268.183	4.27
268.556	4.34
268.93	4.61
269.304	4.5
269.678	4.72
270.051	4.79
270.425	4.83
270.799	4.67
271.172	4.84
271.546	4.84
271.919	4.77
272.293	4.83
272.666	4.89
273.04	4.81
273.413	4.88
273.787	4.81
274.16	4.74
274.533	4.89
274.906	5.01
275.279	4.99
275.653	5
276.026	4.99
276.399	4.84
276.772	4.85
277.145	4.92
277.518	4.73
277.891	4.74
278.263	4.54
278.636	4.63
279.009	4.47
279.382	4.44
279.755	4.48
280.127	4.35
280.5	4.31
280.872	4.21
281.245	4.08
281.617	4.17
281.99	4.14
282.362	4.19
282.735	4.28
283.107	4.29
283.479	4.24
283.852	4.29
284.224	4.4
284.596	4.37
284.968	4.19
285.34	4.16
285.713	4.19
286.085	4.21
286.457	4.31
286.829	4.31
287.201	4.38
287.572	4.47
287.944	4.55
288.316	4.6
288.688	4.83
289.06	4.91
289.431	5.09
289.803	5.26
290.175	5.17
290.546	5.25
290.918	5.36
291.289	5.27
291.661	5.26
292.032	5.27
292.403	5.14
292.775	5.34
293.146	5.41
293.517	5.33
293.889	5.43
294.26	5.47
294.631	5.53
295.002	5.47
295.373	5.52
295.744	5.48
296.115	5.59
296.486	5.5
296.857	5.59
297.228	5.55
297.599	5.53
297.97	5.59
298.34	5.47
298.711	5.5
299.082	5.62
299.452	5.59
299.823	5.64
300.194	5.76
300.564	5.68
300.935	5.65
301.305	5.78
301.676	5.72
302.046	5.68
302.416	5.59
302.787	5.76
303.157	5.81
303.527	6.13
303.897	6.04
304.267	6.12
304.637	6.16
305.008	6.13
305.378	6.29
305.748	6.51
306.117	6.56
306.487	6.64
306.857	6.76
307.227	7.03
307.597	7.11
307.967	7.31
308.336	7.45
308.706	7.58
309.076	7.74
309.445	7.87
309.815	7.99
310.184	8.3
310.554	8.33
310.923	8.39
311.293	8.21
311.662	8.38
312.031	8.46
312.401	8.5
312.77	8.58
313.139	8.64
313.508	8.66
313.877	8.99
314.246	8.99
314.616	9.12
314.985	9.19
315.353	9.33
315.722	9.45
316.091	9.61
316.46	9.82
316.829	9.93
317.198	10
317.567	10.22
317.935	10.19
318.304	10.34
318.672	10.62
319.041	10.93
319.41	11
319.778	11.02
320.147	11.13
320.515	11.43
320.883	11.37
321.252	11.61
321.62	11.49
321.988	11.73
322.357	11.68
322.725	11.91
323.093	11.78
323.461	11.8
323.829	11.84
324.197	11.97
324.565	11.96
324.933	12.08
325.301	11.99
325.669	12.21
326.037	12.29
326.405	12.23
326.772	12.24
327.14	12.22
327.508	12.28
327.875	12.4
328.243	12.35
328.61	12.58
328.978	12.47
329.346	12.61
329.713	12.81
330.08	13.05
330.448	13.01
330.815	13.42
331.182	13.53
331.55	13.57
331.917	13.46
332.284	13.56
332.651	13.63
333.018	13.7
333.385	13.68
333.752	13.73
334.119	13.76
334.486	13.84
334.853	13.89
335.22	14.06
335.587	14.07
335.954	14.03
336.32	13.9
336.687	13.91
337.054	13.91
337.42	13.72
337.787	13.7
338.153	13.72
338.52	13.63
338.886	13.62
339.253	13.7
339.619	13.83
339.986	13.87
340.352	13.79
340.718	14.05
341.084	14.11
341.451	14.15
341.817	14.17
342.183	14.11
342.549	14.18
342.915	14.3
343.281	14.43
343.647	14.61
344.013	14.72
344.379	14.78
344.745	14.85
345.11	14.95
345.476	15.01
345.842	14.99
346.208	15.02
346.573	14.99
346.939	15
347.304	15.14
347.67	15.03
348.035	15.14
348.401	15.04
348.766	15.03
349.132	15.14
349.497	15.15
349.862	15.17
350.228	15.17
350.593	15.05
350.958	15.05
351.323	15.01
351.688	15.02
352.053	15.03
352.418	15.04
352.783	14.96
353.148	15.01
353.513	15.05
353.878	14.94
354.243	14.93
354.608	15
354.972	14.85
355.337	14.89
355.702	14.84
356.066	14.8
356.431	14.79
356.795	14.73
357.16	14.81
357.524	14.79
357.889	14.72
358.253	14.64
358.618	14.6
358.982	14.63
359.346	14.63
359.71	14.61
360.075	14.63
360.439	14.69
360.803	14.63
361.167	14.55
361.531	14.65
361.895	14.66
362.259	14.62
362.623	14.57
362.987	14.58
363.351	14.56
363.714	14.57
364.078	14.52
364.442	14.45
364.806	14.39
365.169	14.41
365.533	14.46
365.896	14.5
366.26	14.45
366.623	14.38
366.987	14.35
367.35	14.29
367.714	14.21
368.077	14.16
368.44	14.16
368.803	14.18
369.167	14.01
369.53	14
369.893	13.95
370.256	13.86
370.619	13.79
370.982	13.79
371.345	13.66
371.708	13.57
372.071	13.54
372.434	13.41
372.797	13.3
373.159	13.16
373.522	13.04
373.885	13.04
374.247	12.9
374.61	12.8
374.973	12.77
375.335	12.69
375.698	12.56
376.06	12.46
376.423	12.32
376.785	12.3
377.147	12.12
377.51	11.96
377.872	11.91
378.234	11.81
378.596	11.72
378.958	11.62
379.321	11.56
379.683	11.46
380.045	11.4
380.407	11.31
380.769	11.25
381.13	11.2
381.492	11.01
381.854	10.96
382.216	10.92
382.578	10.83
382.939	10.78
383.301	10.76
383.663	10.7
384.024	10.65
384.386	10.62
384.747	10.55
385.109	10.55
385.47	10.51
385.832	10.46
386.193	10.4
386.554	10.38
386.916	10.31
387.277	10.25
387.638	10.18
387.999	10.14
388.36	10.09
388.721	10.02
389.082	9.99
389.443	9.99
389.804	9.92
390.165	9.84
390.526	9.77
390.887	9.65
391.248	9.56
391.609	9.51
391.969	9.38
392.33	9.35
392.691	9.26
393.051	9.18
393.412	9.1
393.772	9.03
394.133	8.93
394.493	8.84
394.854	8.72
395.214	8.65
395.574	8.52
395.935	8.43
396.295	8.38
396.655	8.31
397.015	8.14
397.376	8.04
397.736	7.96
398.096	7.92
398.456	7.84
398.816	7.79
399.176	7.71
399.535	7.65
399.895	7.6
400.255	7.5
400.615	7.42
400.975	7.37
401.334	7.31
401.694	7.25
402.054	7.19
402.413	7.17
402.773	7.1
403.132	7.07
403.492	7.03
403.851	6.95
404.211	6.92
404.57	6.93
404.929	6.88
405.288	6.85
405.648	6.78
406.007	6.76
406.366	6.69
406.725	6.7
407.084	6.68
407.443	6.65
407.802	6.66
408.161	6.65
408.52	6.65
408.879	6.61
409.238	6.6
409.596	6.59
409.955	6.57
410.314	6.58
410.673	6.58
411.031	6.57
411.39	6.55
411.748	6.52
412.107	6.46
412.465	6.46
412.824	6.45
413.182	6.43
413.54	6.41
413.899	6.38
414.257	6.31
414.615	6.27
414.974	6.25
415.332	6.23
415.69	6.18
416.048	6.12
416.406	6.07
416.764	6.02
417.122	5.97
417.48	5.93
417.838	5.88
418.195	5.82
418.553	5.78
418.911	5.72
419.269	5.68
419.626	5.64
419.984	5.6
420.342	5.54
420.699	5.5
421.057	5.47
421.414	5.44
421.772	5.41
422.129	5.38
422.486	5.34
422.844	5.28
423.201	5.25
423.558	5.23
423.915	5.21
424.273	5.19
424.63	5.18
424.987	5.14
425.344	5.1
425.701	5.08
426.058	5.05
426.415	5.02
426.772	5
427.128	4.99
427.485	4.97
427.842	4.97
428.199	4.94
428.555	4.93
428.912	4.92
429.269	4.9
429.625	4.87
429.982	4.87
430.338	4.89
430.695	4.88
431.051	4.85
431.407	4.84
431.764	4.84
432.12	4.81
432.476	4.83
432.832	4.86
433.189	4.87
433.545	4.88
433.901	4.9
434.257	4.91
434.613	4.9
434.969	4.91
435.325	4.9
435.681	4.88
436.036	4.87
436.392	4.88
436.748	4.88
437.104	4.88
437.459	4.87
437.815	4.86
438.171	4.88
438.526	4.9
438.882	4.9
439.237	4.88
439.593	4.91
439.948	4.92
440.304	4.9
440.659	4.9
441.014	4.89
441.369	4.89
441.725	4.88
442.08	4.87
442.435	4.85
442.79	4.85
443.145	4.84
443.5	4.83
443.855	4.81
444.21	4.82
444.565	4.79
444.92	4.78
445.275	4.77
445.629	4.75
445.984	4.72
446.339	4.7
446.693	4.7
447.048	4.65
447.403	4.62
447.757	4.6
448.112	4.56
448.466	4.56
448.82	4.54
449.175	4.53
449.529	4.51
449.883	4.49
450.238	4.47
450.592	4.47
450.946	4.47
451.3	4.45
451.654	4.41
452.008	4.41
452.362	4.39
452.716	4.39
453.07	4.39
453.424	4.37
453.778	4.36
454.132	4.34
454.486	4.35
454.839	4.35
455.193	4.35
455.547	4.39
455.9	4.37
456.254	4.37
456.607	4.36
456.961	4.38
457.314	4.41
457.668	4.42
458.021	4.42
458.375	4.41
458.728	4.42
459.081	4.44
459.434	4.45
459.787	4.46
460.141	4.48
460.494	4.49
460.847	4.52
461.2	4.53
461.553	4.56
461.906	4.59
462.259	4.61
462.611	4.64
462.964	4.66
463.317	4.68
463.67	4.72
464.022	4.75
464.375	4.76
464.728	4.77
465.08	4.79
465.433	4.81
465.785	4.86
466.138	4.9
466.49	4.92
466.843	4.97
467.195	5
467.547	5.01
467.899	5.04
468.252	5.08
468.604	5.12
468.956	5.13
469.308	5.17
469.66	5.19
470.012	5.21
470.364	5.24
470.716	5.27
471.068	5.28
471.42	5.33
471.772	5.35
472.123	5.39
472.475	5.41
472.827	5.45
473.178	5.47
473.53	5.48
473.882	5.49
474.233	5.49
474.585	5.48
474.936	5.5
475.288	5.52
475.639	5.51
475.99	5.5
476.342	5.5
476.693	5.49
477.044	5.49
477.395	5.47
477.746	5.43
478.097	5.42
478.448	5.4
478.8	5.36
479.15	5.34
479.501	5.31
479.852	5.29
480.203	5.27
480.554	5.23
480.905	5.2
481.255	5.18
481.606	5.17
481.957	5.15
482.307	5.12
482.658	5.11
483.009	5.09
483.359	5.09
483.709	5.08
484.06	5.06
484.41	5.05
484.761	5.06
485.111	5.05
485.461	5.05
485.811	5.05
486.162	5.05
486.512	5.05
486.862	5.05
487.212	5.06
487.562	5.05
487.912	5.08
488.262	5.09
488.612	5.1
488.961	5.11
489.311	5.13
489.661	5.16
490.011	5.17
490.36	5.19
490.71	5.2
491.06	5.22
491.409	5.26
491.759	5.29
492.108	5.31
492.458	5.35
492.807	5.38
493.157	5.42
493.506	5.47
493.855	5.52
494.204	5.57
494.554	5.63
494.903	5.69
495.252	5.74
495.601	5.81
495.95	5.86
496.299	5.95
496.648	6.03
496.997	6.11
497.346	6.23
497.695	6.34
498.043	6.46
498.392	6.57
498.741	6.67
499.09	6.79
499.438	6.9
499.787	7.01
500.135	7.16
500.484	7.3
500.832	7.44
501.181	7.61
501.529	7.79
501.878	7.96
502.226	8.15
502.574	8.35
502.923	8.55
503.271	8.79
503.619	9
503.967	9.22
504.315	9.46
504.663	9.68
505.011	9.94
505.359	10.17
505.707	10.41
506.055	10.66
506.403	10.89
506.751	11.16
507.098	11.47
507.446	11.74
507.794	12.03
508.141	12.32
508.489	12.6
508.837	12.87
509.184	13.16
509.531	13.46
509.879	13.72
510.226	14.01
510.574	14.29
510.921	14.57
511.268	14.85
511.616	15.17
511.963	15.48
512.31	15.79
512.657	16.14
513.004	16.46
513.351	16.81
513.698	17.21
514.045	17.58
514.392	17.9
514.739	18.28
515.086	18.62
515.432	18.94
515.779	19.29
516.126	19.65
516.473	19.97
516.819	20.29
517.166	20.62
517.512	20.9
517.859	21.22
518.205	21.48
518.552	21.79
518.898	22.06
519.245	22.31
519.591	22.58
519.937	22.81
520.283	23.1
520.629	23.39
520.976	23.67
521.322	23.96
521.668	24.27
522.014	24.55
522.36	24.87
522.706	25.2
523.052	25.48
523.398	25.81
523.743	26.2
524.089	26.52
524.435	26.88
524.781	27.21
525.126	27.5
525.472	27.82
525.817	28.08
526.163	28.31
526.509	28.55
526.854	28.73
527.199	28.95
527.545	29.13
527.89	29.3
528.235	29.47
528.581	29.66
528.926	29.84
529.271	30.03
529.616	30.21
529.961	30.4
530.306	30.61
530.651	30.78
530.996	30.95
531.341	31.16
531.686	31.34
532.031	31.53
532.376	31.72
532.721	31.91
533.065	32.07
533.41	32.27
533.755	32.45
534.099	32.67
534.444	32.88
534.788	33.05
535.133	33.25
535.477	33.46
535.822	33.66
536.166	33.86
536.51	34.09
536.855	34.32
537.199	34.54
537.543	34.76
537.887	35.02
538.231	35.26
538.576	35.51
538.92	35.75
539.264	35.97
539.608	36.14
539.951	36.31
540.295	36.49
540.639	36.67
540.983	36.83
541.327	37
541.671	37.15
542.014	37.35
542.358	37.51
542.701	37.65
543.045	37.79
543.389	37.93
543.732	38.06
544.075	38.19
544.419	38.35
544.762	38.51
545.105	38.65
545.449	38.79
545.792	38.93
546.135	39.08
546.478	39.29
546.821	39.51
547.165	39.71
547.508	39.89
547.851	40.03
548.194	40.22
548.536	40.4
548.879	40.57
549.222	40.7
549.565	40.83
549.908	40.99
550.25	41.19
550.593	41.37
550.936	41.55
551.278	41.67
551.621	41.83
551.963	42.01
552.306	42.19
552.648	42.36
552.991	42.51
553.333	42.57
553.675	42.59
554.017	42.69
554.36	42.79
554.702	42.94
555.044	43.07
555.386	43.21
555.728	43.29
556.07	43.41
556.412	43.51
556.754	43.66
557.096	43.73
557.438	43.84
557.78	43.99
558.121	44.08
558.463	44.29
558.805	44.4
559.147	44.45
559.488	44.52
559.83	44.56
560.171	44.62
560.513	44.79
560.854	44.89
561.196	44.99
561.537	45.11
561.878	45.2
562.22	45.3
562.561	45.29
562.902	45.42
563.243	45.5
563.584	45.57
563.925	45.63
564.266	45.74
564.607	45.78
564.948	45.78
565.289	45.86
565.63	45.89
565.971	45.91
566.312	45.96
566.653	46
566.993	46.08
567.334	46.18
567.675	46.21
568.015	46.28
568.356	46.3
568.696	46.32
569.037	46.36
569.377	46.41
569.718	46.5
570.058	46.55
570.398	46.59
570.739	46.68
571.079	46.73
571.419	46.8
571.759	46.88
572.099	46.98
572.439	47.05
572.779	47.12
573.119	47.2
573.459	47.26
573.799	47.27
574.139	47.35
574.479	47.36
574.819	47.51
575.158	47.59
575.498	47.67
575.838	47.81
576.177	47.91
576.517	47.98
576.856	48.05
577.196	48.07
577.535	48.2
577.875	48.23
578.214	48.36
578.553	48.39
578.893	48.41
579.232	48.44
579.571	48.51
579.91	48.56
580.25	48.59
580.589	48.68
580.928	48.79
581.267	48.87
581.606	48.94
581.945	48.88
582.283	48.93
582.622	49.01
582.961	48.96
583.3	49
583.639	49.01
583.977	48.99
584.316	49.04
584.654	49
584.993	49.07
585.332	49.07
585.67	49.08
586.008	49.13
586.347	49.16
586.685	49.11
587.024	49.14
587.362	49.15
587.7	49.23
588.038	49.32
588.376	49.35
588.715	49.42
589.053	49.5
589.391	49.52
589.729	49.47
590.067	49.54
590.404	49.56
590.742	49.7
591.08	49.8
591.418	49.77
591.756	49.82
592.093	49.86
592.431	49.85
592.769	49.95
593.106	49.96
593.444	49.95
593.781	50
594.119	49.99
594.456	50.04
594.793	49.99
595.131	49.95
595.468	49.91
595.805	49.93
596.143	49.94
596.48	49.95
596.817	50.1
597.154	50.13
597.491	50.12
597.828	50.08
598.165	50.12
598.502	50.17
598.839	50.18
599.176	50.16
599.512	50.24
599.849	50.21
600.186	50.21
600.523	50.29
600.859	50.4
601.196	50.44
601.532	50.47
601.869	50.45
602.205	50.45
602.542	50.53
602.878	50.55
603.215	50.58
603.551	50.58
603.887	50.52
604.223	50.5
604.56	50.53
604.896	50.51
605.232	50.47
605.568	50.48
605.904	50.5
606.24	50.57
606.576	50.54
606.912	50.57
607.248	50.61
607.583	50.57
607.919	50.52
608.255	50.54
608.591	50.5
608.926	50.6
609.262	50.62
609.597	50.61
609.933	50.6
610.268	50.65
610.604	50.75
610.939	50.75
611.275	50.79
611.61	50.81
611.945	50.81
612.281	50.87
612.616	50.94
612.951	50.94
613.286	50.92
613.621	50.92
613.956	50.98
614.291	50.99
614.626	51
614.961	51.03
615.296	51.07
615.631	51.17
615.966	51.12
616.3	51.22
616.635	51.25
616.97	51.25
617.304	51.13
617.639	51.06
617.973	51.12
618.308	51.12
618.642	51.12
618.977	51.13
619.311	51.14
619.646	51.1
619.98	51.17
620.314	51.18
620.648	51.21
620.983	51.19
621.317	51.29
621.651	51.34
621.985	51.39
622.319	51.44
622.653	51.45
622.987	51.53
623.321	51.5
623.655	51.46
623.988	51.49
624.322	51.61
624.656	51.63
624.99	51.58
625.323	51.57
625.657	51.57
625.99	51.63
626.324	51.6
626.657	51.69
626.991	51.66
627.324	51.65
627.658	51.68
627.991	51.77
628.324	51.71
628.657	51.74
628.991	51.76
629.324	51.79
629.657	51.73
629.99	51.83
630.323	51.86
630.656	51.89
630.989	51.88
631.322	51.86
631.655	51.9
631.987	52
632.32	52.08
632.653	52.18
632.986	52.18
633.318	52.26
633.651	52.26
633.984	52.31
634.316	52.27
634.649	52.23
634.981	52.08
635.313	52.08
635.646	52.09
635.978	52.02
636.31	51.98
636.643	52.03
636.975	51.97
637.307	51.96
637.639	51.96
637.971	51.97
638.303	51.95
638.635	51.89
638.967	51.79
639.299	51.72
639.631	51.58
639.963	51.63
640.295	51.53
640.626	51.57
640.958	51.56
641.29	51.65
641.621	51.71
641.953	51.79
642.285	51.89
642.616	51.81
642.948	51.85
643.279	51.87
643.61	51.86
643.942	51.81
644.273	51.81
644.604	51.88
644.936	51.94
645.267	52.04
645.598	52.16
645.929	52.22
646.26	52.31
646.591	52.37
646.922	52.39
647.253	52.36
647.584	52.16
647.915	52.23
648.245	52.24
648.576	52.18
648.907	52.12
649.238	52.04
649.568	52.07
649.899	52.03
650.229	51.88
650.56	51.83
650.89	51.87
651.221	51.9
651.551	51.9
651.882	51.87
652.212	51.82
652.542	51.64
652.872	51.58
653.203	51.51
653.533	51.52
653.863	51.45
654.193	51.55
654.523	51.52
654.853	51.53
655.183	51.56
655.513	51.65
655.843	51.7
656.172	51.75
656.502	51.84
656.832	51.86
657.162	52.02
657.491	52.09
657.821	52.08
658.15	52.11
658.48	52.01
658.809	52.1
659.139	52.05
659.468	52.17
659.798	52.25
660.127	52.27
660.456	52.35
660.785	52.39
661.115	52.34
661.444	52.46
661.773	52.46
662.102	52.39
662.431	52.34
662.76	52.49
663.089	52.47
663.418	52.41
663.747	52.39
664.076	52.35
664.404	52.35
664.733	52.25
665.062	52.24
665.39	52.28
665.719	52.09
666.048	52.11
666.376	52.1
666.705	52.07
667.033	51.95
667.362	51.85
667.69	51.86
668.018	51.98
668.347	51.94
668.675	51.85
669.003	51.92
669.331	51.92
669.659	51.77
669.987	51.73
670.315	51.71
670.643	51.76
670.971	51.73
671.299	51.78
671.627	51.85
671.955	51.77
672.283	51.82
672.61	51.96
672.938	52.04
673.266	52.11
673.593	52.06
673.921	52.17
674.249	52.21
674.576	52.15
674.904	52
675.231	52.04
675.558	52.19
675.886	52.31
676.213	52.37
676.54	52.45
676.867	52.53
677.195	52.61
677.522	52.59
677.849	52.6
678.176	52.65
678.503	52.67
678.83	52.7
679.157	52.78
679.484	52.77
679.81	52.7
680.137	52.62
680.464	52.73
680.791	52.77
681.117	52.72
681.444	52.82
681.771	52.94
682.097	52.98
682.424	52.95
682.75	52.83
683.077	52.82
683.403	52.85
683.729	52.86
684.056	52.78
684.382	52.79
684.708	52.85
685.034	52.86
685.36	52.81
685.686	52.84
686.012	52.7
686.339	52.77
686.664	52.89
686.99	52.82
687.316	52.83
687.642	52.81
687.968	52.79
688.294	52.72
688.619	52.68
688.945	52.65
689.271	52.67
689.596	52.61
689.922	52.53
690.247	52.46
690.573	52.49
690.898	52.53
691.224	52.53
691.549	52.5
691.874	52.39
692.2	52.41
692.525	52.38
692.85	52.5
693.175	52.29
693.5	52.26
693.825	52.48
694.15	52.57
694.475	52.58
694.8	52.61
695.125	52.56
695.45	52.56
695.775	52.61
696.099	52.57
696.424	52.62
696.749	52.79
697.073	52.76
697.398	52.77
697.723	52.87
698.047	52.83
698.372	52.84
698.696	52.87
699.02	53.03
699.345	52.99
699.669	53.11
699.993	53.13
700.318	53.18
700.642	53.08
700.966	53.03
701.29	52.97
701.614	53.01
701.938	53.1
702.262	53.11
702.586	53.1
702.91	53
703.234	52.98
703.557	52.95
703.881	53.07
704.205	53.08
704.529	53.03
704.852	53.09
705.176	53.19
705.499	53.27
705.823	53.16
706.146	53.16
706.47	52.93
706.793	53.09
707.117	52.95
707.44	52.87
707.763	52.8
708.086	52.77
708.409	52.88
708.733	52.89
709.056	52.89
709.379	52.85
709.702	52.89
710.025	52.92
710.348	52.91
710.671	52.79
710.993	52.84
711.316	52.75
711.639	52.68
711.962	52.65
712.284	52.62
712.607	52.67
712.93	52.95
713.252	52.96
713.575	52.96
713.897	53.08
714.22	52.94
714.542	52.94
714.864	52.97
715.187	52.89
715.509	52.75
715.831	52.79
716.153	52.79
716.475	52.83
716.798	52.82
717.12	52.72
717.442	52.76
717.764	52.6
718.085	52.62
718.407	52.77
718.729	52.64
719.051	52.75
719.373	52.72
719.695	52.35
720.016	52.38
720.338	52.15
720.659	51.95
720.981	51.99
721.302	52.24
721.624	52.38
721.945	52.21
722.267	52.37
722.588	52.34
722.909	52.42
723.231	52.36
723.552	52.53
723.873	52.53
724.194	52.54
724.515	52.54
724.836	52.67
725.157	52.67
725.478	52.66
725.799	52.43
726.12	52.4
726.441	52.66
726.762	52.78
727.083	52.94
727.403	53.08
727.724	53.22
728.045	53.03
728.365	52.94
728.686	53.11
729.006	53.01
729.327	53.07
729.647	53.07
729.967	53.11
730.288	53.02
730.608	53.13
730.928	53.42
731.249	53.46
731.569	53.36
731.889	53.34
732.209	53.51
732.529	53.7
732.849	53.7
733.169	53.49
733.489	53.3
733.809	53.2
734.129	53.27
734.448	53.36
734.768	53.44
735.088	53.33
735.408	53.11
735.727	53.17
736.047	53.07
736.366	53.28
736.686	53.22
737.005	53.19
737.325	52.86
737.644	52.32
737.963	52.39
738.283	52.54
738.602	52.48
738.921	52.51
739.24	52.48
739.56	52.43
739.879	52.59
740.198	52.73
740.517	52.91
740.836	52.78
741.155	52.66
741.473	52.71
741.792	52.73
742.111	53.02
742.43	53.28
742.748	53.14
743.067	52.85
743.386	52.99
743.704	52.92
744.023	52.78
744.341	53.06
744.66	52.86
744.978	52.66
745.297	52.5
745.615	52.17
745.933	52.08
746.252	52.25
746.57	52.37
746.888	52.32
747.206	52.51
747.524	52.5
747.842	52.45
748.16	52.37
748.478	52.39
748.796	52.25
749.114	51.95
749.432	52.29
749.749	51.91
750.067	51.61
750.385	51.83
750.703	52.46
751.02	52.41
751.338	52.51
751.655	52.7
751.973	52.93
752.29	53.1
752.608	53.22
752.925	52.88
753.242	52.76
753.56	52.6
753.877	52.2
754.194	52.5
754.511	52.76
754.828	52.42
755.145	52.74
755.462	52.77
755.779	52.83
756.096	52.55
756.413	53.1
756.73	53.57
757.047	53.22
757.364	53.27
757.68	53.28
757.997	53.35
758.314	53.17
758.63	53.38
758.947	53.46
759.264	53.37
759.58	53.47
759.896	53.61
760.213	53.86
760.529	53.88
760.846	53.34
761.162	53.29
761.478	53.46
761.794	53.22
762.11	52.92
762.426	53.08
762.743	53.19
763.059	53.27
763.375	53.13
763.69	53.18
764.006	53.05
764.322	52.94
764.638	52.89
764.954	53.05
765.27	53.01
765.585	53.06
765.901	53.06
766.216	53.08
766.532	52.77
766.848	52.55
767.163	52.66
767.478	52.72
767.794	52.8
768.109	52.71
768.424	52.85
768.74	53.41
769.055	53.14
769.37	53.1
769.685	52.74
770	52.86
770.315	53.21
770.63	53.25
770.945	53.57
771.26	53.65
771.575	53.54
771.89	53.41
772.205	53.24
772.52	53.67
772.834	53.47
773.149	53.32
773.464	53.61
773.778	53.74
774.093	53.76
774.407	53.83
774.722	53.81
775.036	54.32
775.351	53.85
775.665	53.88
775.979	54.05
776.293	54.34
776.608	54.01
776.922	53.57
777.236	53.62
777.55	53.46
777.864	53.41
778.178	53.09
778.492	52.85
778.806	52.8
779.12	52.26
779.434	52.69
779.747	52.88
780.061	52.79
780.375	52.67
780.689	52.98
781.002	52.56
781.316	53
781.629	52.44
781.943	52.71
782.256	52.83
782.57	52.75
782.883	52.98
783.196	53.03
783.51	52.99
783.823	52.84
784.136	52.75
784.449	52.81
784.762	53.14
785.075	53.41
785.388	53.65
785.701	53.41
786.014	53.05
786.327	53.25
786.64	53.49
786.953	53.6
787.266	53.68
787.578	54.03
787.891	53.62
788.204	53.61
788.516	53.73
788.829	53.46
789.141	53.07
789.454	52.56
789.766	52.59
790.079	52.6
790.391	52.53
790.703	52.57
791.016	52.56
791.328	52.79
791.64	52.83
791.952	52.47
792.264	52.81
792.576	52.96
792.888	52.78
793.2	53.07
793.512	52.75
793.824	52.79
794.136	52.47
794.448	52.71
794.76	52.76
795.071	52.23
795.383	52.53
795.695	52.98
796.006	52.98
796.318	53.49
796.629	53.83
796.941	53.79
797.252	53.46
797.564	53.39
797.875	53.07
798.186	53
798.497	53.44
798.809	52.8
799.12	52.56
799.431	52.58
799.742	52.09
800.053	52.09
800.364	51.68
800.675	51.97
800.986	51.94
801.297	52.15
801.608	52.06
801.918	52.01
802.229	51.62
802.54	51.89
802.851	51.62
803.161	51.65
803.472	51.83
803.782	52.09
804.093	51.83
804.403	52.12
804.714	51.9
805.024	51.35
805.334	52.73
805.645	52.84
805.955	53.36
806.265	53.68
806.575	53.69
806.885	53.84
807.195	53.15
807.505	53.01
807.815	52.05
808.125	52.66
808.435	52.38
808.745	52.96
809.055	53.39
809.365	52.88
809.674	52.53
809.984	52.22
810.294	52.16
810.603	52.59
810.913	52.55
811.222	52.58
811.532	53.16
811.841	52.19
812.151	52.08
812.46	51.89
812.769	51.17
813.079	50.7
813.388	50.54
813.697	50.64
814.006	51.05
814.315	52.03
814.624	51.43
814.933	52.21
815.242	52.27
815.551	51.05
815.86	52.02
816.169	52.46
816.478	52.73
816.786	52.79
817.095	52.1
817.404	51.61
817.712	51.82
818.021	51.17
818.33	51.64
818.638	52.09
818.947	52.27
819.255	52.37
819.563	52.58
819.872	52.83
820.18	53.22
820.488	53.08
820.796	52.89
821.105	53.22
821.413	53.34
821.721	53.27
822.029	53.43
822.337	53.29
822.645	53.35
822.953	53.53
823.26	53.68
823.568	53.8
823.876	53.8
824.184	53.84
824.491	53.89
824.799	53.9
825.107	53.9
825.414	53.85
825.722	54
826.029	54.17
826.337	54.09
826.644	54.14
826.951	54.46
827.259	54.76
827.566	54.86
827.873	54.84
828.18	55.08
828.488	55.32
828.795	55.62
829.102	55.61
829.409	55.27
829.716	55.09
830.023	55.17
830.329	55.41
830.636	55.54
830.943	55.39
831.25	55.23
831.557	55.5
831.863	55.79
832.17	55.45
832.476	55.36
832.783	55.38
833.089	55.22
833.396	54.56
833.702	54.15
834.009	53.58
834.315	53.33
834.621	52.56
834.928	52.56
835.234	52.37
835.54	52.28
835.846	52.63
836.152	53.04
836.458	52.94
836.764	52.95
837.07	52.61
837.376	53.28
837.682	52.98
837.988	53.11
838.293	52.55
838.599	51.94
838.905	52.14
839.211	52.01
839.516	51.99
839.822	52.04
840.127	52.26
840.433	52.67
840.738	52.59
841.044	52.73
841.349	52.8
841.654	51.51
841.959	51.69
842.265	51.45
842.57	51.11
842.875	50.23
843.18	50.25
843.485	49.99
843.79	49.41
844.095	49.44
844.4	47.98
844.705	47.83
845.01	49.34
845.315	48.08
845.619	49.55
845.924	48.32
846.229	49.32
846.533	47.38
846.838	46.52
847.142	46.46
847.447	47.62
847.751	46.57
848.056	48.38
848.36	48.1
848.664	46.63
848.969	46.86
849.273	50.64
849.577	48.5
849.881	49.61
850.185	49.04
850.489	50.43
850.794	51.27
851.097	51.43
851.401	51.66
851.705	50.96
852.009	49.57
852.313	49.53
852.617	48.36
852.92	51.24
853.224	51.04
853.528	51.89
853.831	51.16
854.135	51.8
854.438	51.01
854.742	50.92
855.045	52.57
855.349	50.9
855.652	46.33
855.955	47.84
856.259	45.79
856.562	45.32
856.865	42.96
857.168	42.17
857.471	41.41
857.774	42.68
858.077	43.81
858.38	44.58
858.683	47.22
858.986	44.92
859.289	44.72
859.592	46.08
859.894	45.56
860.197	45.62
860.5	45.8
860.802	46.39
861.105	46.98
861.407	46.42
861.71	47.15
862.012	49.81
862.315	49.1
862.617	49.37
862.919	51.38
863.222	51.02
863.524	51.03
863.826	52.4
864.128	49.81
864.43	50.51
864.732	49.26
865.034	48.43
865.336	50.44
865.638	50.06
865.94	49.91
866.242	49.11
866.544	48.37
866.846	46.08
867.147	49.79
867.449	50.54
867.751	51.94
868.052	51.19
868.354	50.39
868.655	50.84
868.957	51.29
869.258	48.94
869.56	53.06
869.861	54.75
870.162	55.6
870.463	55.94
870.765	54.82
871.066	56.93
871.367	55.26
871.668	54.58
871.969	54.75
872.27	53.04
872.571	52.36
872.872	52.73
873.173	53.57
873.473	48.75
873.774	46.82
874.075	44.75
874.376	43.6
874.676	44.3
874.977	45.54
875.277	47.69
875.578	47.75
875.878	45.21
876.179	43.66
876.479	42.41
876.78	42.9
877.08	43.23
877.38	40.65
877.68	41.96
877.981	43.02
878.281	40.69
878.581	42.26
