Data from BU26850_Reflection_00001.txt Node
Date: Mon Nov 18 16:45:23 EST 2019
User: vgr7
Spectrometer: USB2G7710
Scans to average: 3
Trigger mode: 4
Integration Time (sec): 2.000000E-2
Electric dark correction enabled: true
Boxcar width: 10
XAxis mode: Wavelengths
Number of Pixels in Spectrum: 2048
>>>>>Begin Spectral Data<<<<<
177.721	-77.33
178.105	-90.81
178.488	2.02
178.871	15.19
179.254	94.63
179.636	46.7
180.019	50.42
180.402	80.77
180.785	27.4
181.168	81.42
181.55	412.88
181.933	409.47
182.316	750.7
182.698	556.17
183.081	598.8
183.463	-2588.31
183.846	-488.38
184.228	-587.33
184.611	853.19
184.993	2264.56
185.376	-526.54
185.758	-953.51
186.14	-317.64
186.522	-289.18
186.904	-310.15
187.287	-339.38
187.669	-207.74
188.051	-229.11
188.433	-135.18
188.815	-94.81
189.197	-99.88
189.579	-80.25
189.961	-85.9
190.342	-67.45
190.724	-72.22
191.106	-82.25
191.488	-85.56
191.869	-73.44
192.251	-73.73
192.633	-53.28
193.014	-52.74
193.396	-68.88
193.777	-58.14
194.159	-60.59
194.54	-35.42
194.922	-32.73
195.303	-48.4
195.684	-54.07
196.065	-44.36
196.447	-37.9
196.828	-36.93
197.209	-26.04
197.59	-37.87
197.971	-40.93
198.352	-34.33
198.733	-33.32
199.114	-20.29
199.495	-21.24
199.876	-29.4
200.257	-33.87
200.638	-44.6
201.018	-53.23
201.399	-49.38
201.78	-49.89
202.16	-47.95
202.541	-57.79
202.922	-84.31
203.302	-89.95
203.683	-83.38
204.063	-100.87
204.444	-112.66
204.824	-103.73
205.204	-125.39
205.585	-99.87
205.965	-89.81
206.345	-125.25
206.725	-123.33
207.106	-137.22
207.486	-136.21
207.866	-117.16
208.246	-124.14
208.626	-132.2
209.006	-69.92
209.386	-80.89
209.766	-85.81
210.145	-112.32
210.525	-101.69
210.905	-86.82
211.285	-73.45
211.664	-66.01
212.044	-60.47
212.424	-59.9
212.803	-76.13
213.183	-66.7
213.562	-56.31
213.942	-46.48
214.321	-34.14
214.701	-39.28
215.08	-32.54
215.459	-30.98
215.838	-33.89
216.218	-34.23
216.597	-28.7
216.976	-28.44
217.355	-21.59
217.734	-14.29
218.113	-11.44
218.492	3.85
218.871	1.92
219.25	6.79
219.629	1.38
220.008	6.6
220.387	7.03
220.766	1.19
221.144	-6.37
221.523	-8.11
221.902	-10.28
222.28	-23.53
222.659	-14.78
223.037	-16.63
223.416	-15.68
223.794	-14.65
224.173	-12.93
224.551	-11.08
224.929	-22.57
225.308	-14.84
225.686	-22.92
226.064	-20.05
226.442	-30.41
226.821	-21.94
227.199	-19.55
227.577	-17.51
227.955	-17.86
228.333	-14.77
228.711	-10.23
229.089	-4.37
229.467	-6.34
229.845	-5.15
230.222	-2.49
230.6	-5.86
230.978	-5.9
231.356	-3.63
231.733	-2.3
232.111	0.98
232.488	2.97
232.866	5.38
233.243	3.91
233.621	4.83
233.998	5.68
234.376	6.86
234.753	5.84
235.13	4.79
235.508	4.25
235.885	3.86
236.262	3.18
236.639	2.5
237.016	3.27
237.393	3.61
237.77	4.37
238.147	3.52
238.524	3.64
238.901	3.91
239.278	3.98
239.655	4.37
240.032	3.85
240.409	2.12
240.785	2.27
241.162	2.48
241.539	3.04
241.915	2.8
242.292	2.85
242.668	2.78
243.045	2.85
243.421	2.86
243.798	2.45
244.174	2.27
244.551	2.58
244.927	2.17
245.303	2.25
245.679	2.36
246.056	2.62
246.432	2.74
246.808	2.7
247.184	2.4
247.56	2.23
247.936	2.08
248.312	2.32
248.688	2.08
249.064	2.27
249.44	2.25
249.815	2.42
250.191	2.61
250.567	2.64
250.943	2.65
251.318	3
251.694	2.98
252.069	2.97
252.445	2.94
252.82	2.95
253.196	2.78
253.571	2.51
253.947	2.13
254.322	2.12
254.697	2.03
255.073	2.21
255.448	2.31
255.823	2.36
256.198	2.46
256.573	2.64
256.948	2.55
257.323	2.36
257.698	2.2
258.073	2.22
258.448	2.34
258.823	2.36
259.198	1.99
259.573	1.95
259.948	1.96
260.322	1.87
260.697	2.01
261.072	2.08
261.446	2.05
261.821	2.21
262.195	2.25
262.57	2.28
262.944	2.03
263.319	1.94
263.693	1.92
264.067	1.96
264.442	1.96
264.816	1.74
265.19	1.78
265.564	1.75
265.938	1.59
266.313	1.57
266.687	1.6
267.061	1.73
267.435	1.89
267.809	1.97
268.183	2.06
268.556	1.8
268.93	1.69
269.304	1.83
269.678	1.89
270.051	1.83
270.425	1.91
270.799	2.17
271.172	2.32
271.546	2.43
271.919	2.49
272.293	2.44
272.666	2.66
273.04	2.73
273.413	2.75
273.787	2.75
274.16	2.77
274.533	2.59
274.906	2.58
275.279	2.64
275.653	2.6
276.026	2.44
276.399	2.54
276.772	2.79
277.145	2.69
277.518	2.77
277.891	2.79
278.263	2.57
278.636	2.59
279.009	2.61
279.382	2.68
279.755	2.4
280.127	2.66
280.5	2.55
280.872	2.6
281.245	2.64
281.617	2.87
281.99	2.76
282.362	2.88
282.735	2.71
283.107	2.62
283.479	2.76
283.852	2.88
284.224	2.84
284.596	2.76
284.968	2.72
285.34	2.73
285.713	2.66
286.085	2.8
286.457	2.77
286.829	2.7
287.201	2.66
287.572	2.68
287.944	2.5
288.316	2.47
288.688	2.43
289.06	2.36
289.431	2.21
289.803	2.29
290.175	2.48
290.546	2.7
290.918	2.7
291.289	2.61
291.661	2.62
292.032	2.8
292.403	2.82
292.775	2.87
293.146	2.75
293.517	2.85
293.889	2.8
294.26	2.82
294.631	2.87
295.002	2.92
295.373	2.93
295.744	3.02
296.115	2.94
296.486	2.86
296.857	2.84
297.228	2.74
297.599	2.72
297.97	2.68
298.34	2.55
298.711	2.56
299.082	2.54
299.452	2.54
299.823	2.52
300.194	2.46
300.564	2.45
300.935	2.43
301.305	2.35
301.676	2.34
302.046	2.31
302.416	2.36
302.787	2.25
303.157	2.17
303.527	2.06
303.897	2.28
304.267	2.31
304.637	2.54
305.008	2.69
305.378	2.82
305.748	2.69
306.117	2.7
306.487	2.84
306.857	2.9
307.227	2.98
307.597	3.06
307.967	3.17
308.336	3.16
308.706	3.2
309.076	3.27
309.445	3.31
309.815	3.3
310.184	3.11
310.554	3.17
310.923	3.21
311.293	3.21
311.662	3.07
312.031	3.02
312.401	2.91
312.77	2.9
313.139	2.87
313.508	2.9
313.877	2.9
314.246	2.9
314.616	2.77
314.985	2.72
315.353	2.5
315.722	2.47
316.091	2.42
316.46	2.34
316.829	2.31
317.198	2.35
317.567	2.3
317.935	2.24
318.304	2.13
318.672	2.26
319.041	2.45
319.41	2.46
319.778	2.62
320.147	2.57
320.515	2.51
320.883	2.42
321.252	2.51
321.62	2.62
321.988	2.71
322.357	2.85
322.725	2.72
323.093	2.76
323.461	2.75
323.829	2.84
324.197	2.87
324.565	2.79
324.933	2.67
325.301	2.64
325.669	2.8
326.037	2.76
326.405	2.68
326.772	2.57
327.14	2.66
327.508	2.61
327.875	2.5
328.243	2.67
328.61	2.67
328.978	2.51
329.346	2.56
329.713	2.29
330.08	2.3
330.448	2.23
330.815	2.23
331.182	2.24
331.55	2.2
331.917	2.2
332.284	2.28
332.651	2.44
333.018	2.46
333.385	2.41
333.752	2.46
334.119	2.49
334.486	2.43
334.853	2.42
335.22	2.38
335.587	2.44
335.954	2.29
336.32	2.14
336.687	2.15
337.054	2.09
337.42	2.33
337.787	2.37
338.153	2.38
338.52	2.35
338.886	2.2
339.253	2.21
339.619	2.22
339.986	2.18
340.352	2.16
340.718	2.21
341.084	2.18
341.451	2.23
341.817	2.28
342.183	2.34
342.549	2.28
342.915	2.32
343.281	2.42
343.647	2.39
344.013	2.61
344.379	2.55
344.745	2.53
345.11	2.5
345.476	2.56
345.842	2.65
346.208	2.66
346.573	2.77
346.939	2.94
347.304	2.95
347.67	2.86
348.035	2.89
348.401	2.94
348.766	3
349.132	2.96
349.497	2.88
349.862	2.98
350.228	2.97
350.593	2.9
350.958	2.84
351.323	2.88
351.688	2.76
352.053	2.93
352.418	2.95
352.783	2.86
353.148	2.73
353.513	2.71
353.878	2.74
354.243	2.76
354.608	2.61
354.972	2.63
355.337	2.72
355.702	2.69
356.066	2.69
356.431	2.64
356.795	2.67
357.16	2.69
357.524	2.57
357.889	2.57
358.253	2.62
358.618	2.67
358.982	2.69
359.346	2.62
359.71	2.56
360.075	2.58
360.439	2.59
360.803	2.63
361.167	2.63
361.531	2.61
361.895	2.58
362.259	2.58
362.623	2.58
362.987	2.57
363.351	2.63
363.714	2.6
364.078	2.64
364.442	2.64
364.806	2.61
365.169	2.65
365.533	2.72
365.896	2.7
366.26	2.68
366.623	2.74
366.987	2.81
367.35	2.84
367.714	2.77
368.077	2.79
368.44	2.76
368.803	2.75
369.167	2.72
369.53	2.67
369.893	2.75
370.256	2.77
370.619	2.84
370.982	2.71
371.345	2.71
371.708	2.75
372.071	2.74
372.434	2.76
372.797	2.74
373.159	2.67
373.522	2.7
373.885	2.72
374.247	2.7
374.61	2.72
374.973	2.69
375.335	2.72
375.698	2.72
376.06	2.73
376.423	2.72
376.785	2.81
377.147	2.9
377.51	2.87
377.872	2.87
378.234	2.86
378.596	2.9
378.958	2.93
379.321	2.94
379.683	2.93
380.045	2.94
380.407	2.98
380.769	2.99
381.13	3.02
381.492	3.01
381.854	3.01
382.216	2.94
382.578	2.99
382.939	3
383.301	3
383.663	2.96
384.024	2.99
384.386	2.99
384.747	2.93
385.109	2.94
385.47	2.93
385.832	2.91
386.193	2.94
386.554	2.92
386.916	2.94
387.277	2.93
387.638	2.96
387.999	2.94
388.36	2.98
388.721	2.97
389.082	2.97
389.443	2.93
389.804	2.97
390.165	2.96
390.526	2.95
390.887	2.96
391.248	3.01
391.609	3
391.969	3.02
392.33	3.07
392.691	3.01
393.051	3.01
393.412	3.02
393.772	3.02
394.133	3.02
394.493	3
394.854	3.02
395.214	2.97
395.574	2.99
395.935	2.97
396.295	2.94
396.655	2.96
397.015	2.95
397.376	2.94
397.736	2.93
398.096	2.97
398.456	2.95
398.816	3
399.176	3
399.535	2.97
399.895	2.96
400.255	2.99
400.615	2.99
400.975	3
401.334	3
401.694	3.01
402.054	3.02
402.413	3.02
402.773	3.02
403.132	2.97
403.492	2.98
403.851	3
404.211	2.98
404.57	2.97
404.929	2.98
405.288	2.98
405.648	2.96
406.007	2.98
406.366	2.95
406.725	2.96
407.084	2.97
407.443	2.99
407.802	3.04
408.161	3.07
408.52	3.07
408.879	3.08
409.238	3.08
409.596	3.06
409.955	3.06
410.314	3.1
410.673	3.11
411.031	3.11
411.39	3.11
411.748	3.11
412.107	3.15
412.465	3.14
412.824	3.15
413.182	3.14
413.54	3.15
413.899	3.14
414.257	3.14
414.615	3.14
414.974	3.13
415.332	3.1
415.69	3.07
416.048	3.04
416.406	3.04
416.764	3.03
417.122	3.06
417.48	3.03
417.838	3.04
418.195	3.05
418.553	3.05
418.911	3.05
419.269	3.06
419.626	3.04
419.984	3.05
420.342	3.04
420.699	3.05
421.057	3.04
421.414	3.03
421.772	3.02
422.129	3.03
422.486	3.03
422.844	3.04
423.201	3.03
423.558	3.05
423.915	3.05
424.273	3.05
424.63	3.03
424.987	3.05
425.344	3.04
425.701	3.04
426.058	3.03
426.415	3.03
426.772	3.04
427.128	3.05
427.485	3.06
427.842	3.07
428.199	3.08
428.555	3.09
428.912	3.12
429.269	3.14
429.625	3.13
429.982	3.12
430.338	3.1
430.695	3.11
431.051	3.1
431.407	3.08
431.764	3.08
432.12	3.08
432.476	3.1
432.832	3.09
433.189	3.11
433.545	3.12
433.901	3.12
434.257	3.1
434.613	3.11
434.969	3.13
435.325	3.13
435.681	3.11
436.036	3.11
436.392	3.08
436.748	3.07
437.104	3.06
437.459	3.05
437.815	3.04
438.171	3.07
438.526	3.09
438.882	3.1
439.237	3.12
439.593	3.14
439.948	3.13
440.304	3.14
440.659	3.11
441.014	3.13
441.369	3.12
441.725	3.14
442.08	3.13
442.435	3.13
442.79	3.13
443.145	3.14
443.5	3.15
443.855	3.15
444.21	3.15
444.565	3.18
444.92	3.22
445.275	3.22
445.629	3.21
445.984	3.22
446.339	3.2
446.693	3.17
447.048	3.15
447.403	3.14
447.757	3.13
448.112	3.15
448.466	3.14
448.82	3.13
449.175	3.13
449.529	3.13
449.883	3.11
450.238	3.12
450.592	3.11
450.946	3.11
451.3	3.12
451.654	3.1
452.008	3.09
452.362	3.07
452.716	3.08
453.07	3.09
453.424	3.09
453.778	3.1
454.132	3.1
454.486	3.13
454.839	3.13
455.193	3.13
455.547	3.12
455.9	3.12
456.254	3.15
456.607	3.13
456.961	3.13
457.314	3.14
457.668	3.15
458.021	3.14
458.375	3.12
458.728	3.13
459.081	3.14
459.434	3.12
459.787	3.14
460.141	3.14
460.494	3.12
460.847	3.12
461.2	3.11
461.553	3.12
461.906	3.11
462.259	3.11
462.611	3.14
462.964	3.15
463.317	3.16
463.67	3.15
464.022	3.18
464.375	3.16
464.728	3.17
465.08	3.17
465.433	3.19
465.785	3.2
466.138	3.2
466.49	3.2
466.843	3.21
467.195	3.2
467.547	3.2
467.899	3.21
468.252	3.21
468.604	3.23
468.956	3.23
469.308	3.24
469.66	3.23
470.012	3.24
470.364	3.23
470.716	3.23
471.068	3.22
471.42	3.24
471.772	3.25
472.123	3.25
472.475	3.24
472.827	3.23
473.178	3.22
473.53	3.22
473.882	3.22
474.233	3.24
474.585	3.24
474.936	3.24
475.288	3.25
475.639	3.26
475.99	3.28
476.342	3.27
476.693	3.27
477.044	3.28
477.395	3.28
477.746	3.28
478.097	3.28
478.448	3.27
478.8	3.28
479.15	3.25
479.501	3.27
479.852	3.27
480.203	3.29
480.554	3.29
480.905	3.31
481.255	3.31
481.606	3.31
481.957	3.32
482.307	3.32
482.658	3.3
483.009	3.3
483.359	3.3
483.709	3.3
484.06	3.29
484.41	3.3
484.761	3.29
485.111	3.3
485.461	3.3
485.811	3.31
486.162	3.3
486.512	3.31
486.862	3.3
487.212	3.3
487.562	3.3
487.912	3.29
488.262	3.29
488.612	3.3
488.961	3.29
489.311	3.28
489.661	3.29
490.011	3.3
490.36	3.3
490.71	3.29
491.06	3.3
491.409	3.3
491.759	3.3
492.108	3.3
492.458	3.29
492.807	3.28
493.157	3.27
493.506	3.28
493.855	3.29
494.204	3.28
494.554	3.29
494.903	3.28
495.252	3.27
495.601	3.27
495.95	3.25
496.299	3.26
496.648	3.26
496.997	3.25
497.346	3.25
497.695	3.26
498.043	3.27
498.392	3.26
498.741	3.28
499.09	3.27
499.438	3.28
499.787	3.3
500.135	3.32
500.484	3.31
500.832	3.32
501.181	3.34
501.529	3.35
501.878	3.36
502.226	3.38
502.574	3.4
502.923	3.38
503.271	3.38
503.619	3.38
503.967	3.39
504.315	3.38
504.663	3.36
505.011	3.35
505.359	3.35
505.707	3.36
506.055	3.37
506.403	3.39
506.751	3.4
507.098	3.39
507.446	3.41
507.794	3.41
508.141	3.4
508.489	3.4
508.837	3.38
509.184	3.39
509.531	3.39
509.879	3.41
510.226	3.45
510.574	3.45
510.921	3.46
511.268	3.47
511.616	3.48
511.963	3.5
512.31	3.5
512.657	3.51
513.004	3.51
513.351	3.52
513.698	3.5
514.045	3.5
514.392	3.51
514.739	3.49
515.086	3.5
515.432	3.52
515.779	3.5
516.126	3.51
516.473	3.52
516.819	3.51
517.166	3.49
517.512	3.47
517.859	3.49
518.205	3.49
518.552	3.49
518.898	3.48
519.245	3.48
519.591	3.48
519.937	3.48
520.283	3.49
520.629	3.49
520.976	3.51
521.322	3.53
521.668	3.51
522.014	3.54
522.36	3.54
522.706	3.55
523.052	3.56
523.398	3.56
523.743	3.56
524.089	3.56
524.435	3.58
524.781	3.59
525.126	3.59
525.472	3.59
525.817	3.6
526.163	3.6
526.509	3.61
526.854	3.61
527.199	3.62
527.545	3.62
527.89	3.62
528.235	3.61
528.581	3.6
528.926	3.61
529.271	3.6
529.616	3.61
529.961	3.61
530.306	3.63
530.651	3.63
530.996	3.64
531.341	3.64
531.686	3.64
532.031	3.64
532.376	3.64
532.721	3.65
533.065	3.65
533.41	3.66
533.755	3.67
534.099	3.68
534.444	3.68
534.788	3.69
535.133	3.68
535.477	3.69
535.822	3.7
536.166	3.7
536.51	3.71
536.855	3.72
537.199	3.71
537.543	3.69
537.887	3.7
538.231	3.7
538.576	3.71
538.92	3.71
539.264	3.7
539.608	3.7
539.951	3.69
540.295	3.69
540.639	3.69
540.983	3.69
541.327	3.67
541.671	3.67
542.014	3.68
542.358	3.69
542.701	3.69
543.045	3.67
543.389	3.66
543.732	3.65
544.075	3.66
544.419	3.67
544.762	3.67
545.105	3.67
545.449	3.68
545.792	3.68
546.135	3.67
546.478	3.67
546.821	3.68
547.165	3.69
547.508	3.7
547.851	3.69
548.194	3.68
548.536	3.69
548.879	3.69
549.222	3.68
549.565	3.68
549.908	3.69
550.25	3.72
550.593	3.74
550.936	3.75
551.278	3.72
551.621	3.73
551.963	3.75
552.306	3.73
552.648	3.72
552.991	3.74
553.333	3.74
553.675	3.73
554.017	3.74
554.36	3.75
554.702	3.74
555.044	3.74
555.386	3.73
555.728	3.74
556.07	3.77
556.412	3.77
556.754	3.78
557.096	3.75
557.438	3.78
557.78	3.8
558.121	3.81
558.463	3.81
558.805	3.8
559.147	3.81
559.488	3.82
559.83	3.84
560.171	3.82
560.513	3.81
560.854	3.83
561.196	3.81
561.537	3.8
561.878	3.81
562.22	3.85
562.561	3.87
562.902	3.88
563.243	3.85
563.584	3.86
563.925	3.86
564.266	3.89
564.607	3.87
564.948	3.87
565.289	3.87
565.63	3.87
565.971	3.84
566.312	3.81
566.653	3.81
566.993	3.81
567.334	3.8
567.675	3.82
568.015	3.84
568.356	3.86
568.696	3.88
569.037	3.88
569.377	3.84
569.718	3.85
570.058	3.87
570.398	3.87
570.739	3.87
571.079	3.88
571.419	3.86
571.759	3.86
572.099	3.84
572.439	3.82
572.779	3.81
573.119	3.86
573.459	3.89
573.799	3.91
574.139	3.9
574.479	3.92
574.819	3.92
575.158	3.9
575.498	3.88
575.838	3.88
576.177	3.86
576.517	3.87
576.856	3.86
577.196	3.84
577.535	3.82
577.875	3.82
578.214	3.82
578.553	3.85
578.893	3.84
579.232	3.85
579.571	3.89
579.91	3.91
580.25	3.91
580.589	3.91
580.928	3.89
581.267	3.9
581.606	3.88
581.945	3.86
582.283	3.85
582.622	3.84
582.961	3.81
583.3	3.85
583.639	3.93
583.977	3.96
584.316	3.97
584.654	4
584.993	3.99
585.332	3.98
585.67	3.95
586.008	3.94
586.347	3.94
586.685	3.91
587.024	3.95
587.362	3.9
587.7	3.88
588.038	3.91
588.376	3.92
588.715	3.93
589.053	3.96
589.391	3.98
589.729	4.06
590.067	4.03
590.404	3.99
590.742	3.97
591.08	3.95
591.418	3.92
591.756	3.94
592.093	3.97
592.431	3.95
592.769	3.96
593.106	3.98
593.444	3.95
593.781	3.99
594.119	4
594.456	4
594.793	4.01
595.131	4.03
595.468	4.02
595.805	4.02
596.143	4
596.48	4.02
596.817	4.01
597.154	4.04
597.491	4.07
597.828	4.06
598.165	4.05
598.502	4.05
598.839	4.05
599.176	4.03
599.512	4.04
599.849	4.03
600.186	4.04
600.523	4.07
600.859	4.1
601.196	4.09
601.532	4.09
601.869	4.09
602.205	4.04
602.542	4.05
602.878	4.05
603.215	4.09
603.551	4.06
603.887	4.05
604.223	4.06
604.56	4.08
604.896	4.09
605.232	4.11
605.568	4.12
605.904	4.14
606.24	4.14
606.576	4.15
606.912	4.17
607.248	4.16
607.583	4.14
607.919	4.1
608.255	4.08
608.591	4.1
608.926	4.1
609.262	4.17
609.597	4.16
609.933	4.16
610.268	4.18
610.604	4.2
610.939	4.19
611.275	4.21
611.61	4.17
611.945	4.12
612.281	4.1
612.616	4.08
612.951	4.11
613.286	4.08
613.621	4.11
613.956	4.11
614.291	4.11
614.626	4.17
614.961	4.18
615.296	4.18
615.631	4.17
615.966	4.18
616.3	4.12
616.635	4.1
616.97	4.07
617.304	4.05
617.639	4.07
617.973	4.06
618.308	4.04
618.642	4.08
618.977	4.1
619.311	4.11
619.646	4.15
619.98	4.06
620.314	4.13
620.648	4.13
620.983	4.2
621.317	4.22
621.651	4.23
621.985	4.23
622.319	4.28
622.653	4.28
622.987	4.28
623.321	4.3
623.655	4.33
623.988	4.39
624.322	4.36
624.656	4.32
624.99	4.35
625.323	4.31
625.657	4.3
625.99	4.35
626.324	4.37
626.657	4.37
626.991	4.44
627.324	4.38
627.658	4.35
627.991	4.34
628.324	4.31
628.657	4.29
628.991	4.3
629.324	4.31
629.657	4.33
629.99	4.35
630.323	4.35
630.656	4.32
630.989	4.31
631.322	4.35
631.655	4.36
631.987	4.35
632.32	4.32
632.653	4.3
632.986	4.28
633.318	4.27
633.651	4.34
633.984	4.31
634.316	4.32
634.649	4.3
634.981	4.29
635.313	4.31
635.646	4.32
635.978	4.35
636.31	4.34
636.643	4.29
636.975	4.3
637.307	4.29
637.639	4.32
637.971	4.29
638.303	4.25
638.635	4.24
638.967	4.21
639.299	4.28
639.631	4.31
639.963	4.3
640.295	4.27
640.626	4.16
640.958	4.19
641.29	4.18
641.621	4.19
641.953	4.13
642.285	4.17
642.616	4.14
642.948	4.11
643.279	4.1
643.61	4.12
643.942	4.07
644.273	4.06
644.604	4.08
644.936	4.05
645.267	4.08
645.598	4.15
645.929	4.25
646.26	4.29
646.591	4.28
646.922	4.29
647.253	4.32
647.584	4.34
647.915	4.26
648.245	4.26
648.576	4.27
648.907	4.37
649.238	4.27
649.568	4.26
649.899	4.27
650.229	4.28
650.56	4.34
650.89	4.38
651.221	4.47
651.551	4.46
651.882	4.45
652.212	4.46
652.542	4.4
652.872	4.34
653.203	4.29
653.533	4.33
653.863	4.31
654.193	4.29
654.523	4.29
654.853	4.29
655.183	4.36
655.513	4.36
655.843	4.29
656.172	4.35
656.502	4.4
656.832	4.38
657.162	4.39
657.491	4.34
657.821	4.33
658.15	4.31
658.48	4.32
658.809	4.36
659.139	4.38
659.468	4.46
659.798	4.44
660.127	4.49
660.456	4.5
660.785	4.52
661.115	4.53
661.444	4.5
661.773	4.51
662.102	4.47
662.431	4.59
662.76	4.57
663.089	4.54
663.418	4.44
663.747	4.4
664.076	4.39
664.404	4.44
664.733	4.5
665.062	4.46
665.39	4.47
665.719	4.43
666.048	4.43
666.376	4.32
666.705	4.3
667.033	4.32
667.362	4.33
667.69	4.33
668.018	4.41
668.347	4.53
668.675	4.55
669.003	4.55
669.331	4.5
669.659	4.53
669.987	4.54
670.315	4.68
670.643	4.7
670.971	4.73
671.299	4.77
671.627	4.75
671.955	4.68
672.283	4.7
672.61	4.69
672.938	4.65
673.266	4.78
673.593	4.91
673.921	4.9
674.249	4.85
674.576	4.9
674.904	4.86
675.231	4.82
675.558	4.84
675.886	4.87
676.213	4.85
676.54	4.95
676.867	5.04
677.195	5.02
677.522	5
677.849	5.02
678.176	4.92
678.503	4.89
678.83	4.92
679.157	4.84
679.484	4.98
679.81	5.01
680.137	4.86
680.464	4.85
680.791	4.83
681.117	4.87
681.444	4.85
681.771	4.8
682.097	4.72
682.424	4.71
682.75	4.67
683.077	4.67
683.403	4.57
683.729	4.59
684.056	4.63
684.382	4.7
684.708	4.62
685.034	4.67
685.36	4.63
685.686	4.71
686.012	4.72
686.339	4.65
686.664	4.63
686.99	4.74
687.316	4.71
687.642	4.75
687.968	4.73
688.294	4.69
688.619	4.83
688.945	4.93
689.271	4.95
689.596	4.95
689.922	4.93
690.247	4.97
690.573	4.96
690.898	4.87
691.224	4.85
691.549	4.94
691.874	4.89
692.2	5
692.525	4.91
692.85	4.98
693.175	4.94
693.5	5.03
693.825	4.92
694.15	4.87
694.475	4.82
694.8	4.88
695.125	4.93
695.45	4.78
695.775	4.81
696.099	4.82
696.424	4.95
696.749	4.93
697.073	4.94
697.398	4.94
697.723	4.93
698.047	4.95
698.372	4.99
698.696	4.96
699.02	4.98
699.345	5.06
699.669	5.07
699.993	5.1
700.318	5.06
700.642	5.09
700.966	5.15
701.29	5.15
701.614	5.13
701.938	5.17
702.262	5.34
702.586	5.32
702.91	5.3
703.234	5.21
703.557	5.29
703.881	5.44
704.205	5.39
704.529	5.35
704.852	5.3
705.176	5.19
705.499	5.23
705.823	5.21
706.146	5.25
706.47	5.28
706.793	5.37
707.117	5.28
707.44	5.31
707.763	5.28
708.086	5.26
708.409	5.19
708.733	5.07
709.056	5.02
709.379	5.14
709.702	5.21
710.025	5.18
710.348	5.18
710.671	5.05
710.993	5.11
711.316	5.19
711.639	5.15
711.962	5.18
712.284	5.23
712.607	5.2
712.93	5.2
713.252	5.17
713.575	5.18
713.897	5.28
714.22	5.25
714.542	5.26
714.864	5.25
715.187	5.3
715.509	5.44
715.831	5.42
716.153	5.43
716.475	5.44
716.798	5.51
717.12	5.46
717.442	5.31
717.764	5.23
718.085	5.13
718.407	5.32
718.729	5.24
719.051	5.14
719.373	5.1
719.695	4.97
720.016	5.08
720.338	5.02
720.659	5.01
720.981	4.94
721.302	5.03
721.624	4.98
721.945	4.87
722.267	4.95
722.588	4.83
722.909	4.64
723.231	4.56
723.552	4.43
723.873	4.58
724.194	4.48
724.515	4.52
724.836	4.58
725.157	4.49
725.478	4.54
725.799	4.81
726.12	4.85
726.441	4.95
726.762	4.82
727.083	4.84
727.403	4.81
727.724	5.01
728.045	5.05
728.365	4.98
728.686	5.11
729.006	4.92
729.327	5.01
729.647	5.07
729.967	5.12
730.288	5.25
730.608	5.1
730.928	5.27
731.249	5.32
731.569	5.49
731.889	5.6
732.209	5.68
732.529	5.57
732.849	5.49
733.169	5.57
733.489	5.68
733.809	5.59
734.129	5.64
734.448	5.69
734.768	5.52
735.088	5.86
735.408	5.95
735.727	5.97
736.047	6.02
736.366	6.01
736.686	6
737.005	6
737.325	6.02
737.644	6.19
737.963	6.22
738.283	6.01
738.602	5.98
738.921	5.9
739.24	5.79
739.56	5.85
739.879	5.78
740.198	5.82
740.517	5.97
740.836	5.93
741.155	5.84
741.473	5.98
741.792	5.76
742.111	5.82
742.43	5.89
742.748	5.78
743.067	5.71
743.386	5.58
743.704	5.72
744.023	5.9
744.341	5.75
744.66	5.93
744.978	5.92
745.297	6.06
745.615	6.34
745.933	6.37
746.252	6.25
746.57	6.24
746.888	6.27
747.206	5.97
747.524	6
747.842	6.02
748.16	6.05
748.478	6.2
748.796	6.16
749.114	6.33
749.432	6.41
749.749	6.59
750.067	6.74
750.385	6.45
750.703	6.15
751.02	6.18
751.338	6.05
751.655	6.34
751.973	6
752.29	5.76
752.608	5.81
752.925	6.26
753.242	6.18
753.56	5.85
753.877	6.1
754.194	6.19
754.511	6.19
754.828	6.05
755.145	5.97
755.462	5.58
755.779	5.37
756.096	5.5
756.413	5.48
756.73	5.26
757.047	5.39
757.364	5.51
757.68	5.48
757.997	5.39
758.314	5.18
758.63	5.21
758.947	5.23
759.264	5.15
759.58	4.86
759.896	5.07
760.213	5.25
760.529	5.38
760.846	5.16
761.162	5.07
761.478	5.25
761.794	5.03
762.11	5.31
762.426	5.39
762.743	5.56
763.059	5.49
763.375	5.63
763.69	5.75
764.006	5.78
764.322	5.95
764.638	6.05
764.954	6.16
765.27	6.12
765.585	6.04
765.901	6.05
766.216	6.24
766.532	6.13
766.848	6.2
767.163	6.09
767.478	6.4
767.794	6.39
768.109	6.27
768.424	6.63
768.74	6.74
769.055	6.71
769.37	6.66
769.685	6.77
770	6.95
770.315	6.93
770.63	7.03
770.945	6.47
771.26	6.6
771.575	6.55
771.89	6.72
772.205	7.09
772.52	7.32
772.834	6.92
773.149	6.67
773.464	6.58
773.778	6.65
774.093	6.18
774.407	6.28
774.722	6.3
775.036	6.11
775.351	5.8
775.665	5.89
775.979	5.35
776.293	5.3
776.608	5.29
776.922	5.04
777.236	5.1
777.55	5.61
777.864	5.37
778.178	5.39
778.492	5.65
778.806	5.21
779.12	5.46
779.434	5.93
779.747	6.05
780.061	6.05
780.375	5.97
780.689	6.17
781.002	6.18
781.316	6.56
781.629	6.99
781.943	7.07
782.256	6.65
782.57	6.79
782.883	6.97
783.196	6.62
783.51	6.62
783.823	6.42
784.136	6.61
784.449	6.39
784.762	6.61
785.075	6.37
785.388	6.53
785.701	5.97
786.014	5.83
786.327	6.09
786.64	6.3
786.953	6.62
787.266	6.4
787.578	6.53
787.891	6.64
788.204	6.21
788.516	6.42
788.829	6.71
789.141	7.26
789.454	7.16
789.766	7.76
790.079	7.8
790.391	7.61
790.703	7.4
791.016	7.9
791.328	7.76
791.64	8.27
791.952	8.57
792.264	8.5
792.576	8.58
792.888	8.68
793.2	8.8
793.512	8.45
793.824	8.98
794.136	9.08
794.448	8.24
794.76	8.27
795.071	8.18
795.383	7.89
795.695	7.18
796.006	6.78
796.318	6.11
796.629	6.62
796.941	6.75
797.252	6.98
797.564	6.82
797.875	6.48
798.186	5.67
798.497	5.79
798.809	6.14
799.12	5.66
799.431	5.52
799.742	5.25
800.053	5.74
800.364	5.68
800.675	5.66
800.986	6.06
801.297	5.82
801.608	5.7
801.918	5.83
802.229	6.31
802.54	6.97
802.851	7.25
803.161	7.02
803.472	7.26
803.782	6.74
804.093	6.28
804.403	6.85
804.714	7.45
805.024	6.96
805.334	6.85
805.645	6.84
805.955	7.2
806.265	8.13
806.575	7.94
806.885	7.85
807.195	7.96
807.505	8.26
807.815	8.04
808.125	8.27
808.435	8.93
808.745	8.61
809.055	9
809.365	9.64
809.674	9.36
809.984	9.25
810.294	9.76
810.603	10.18
810.913	9.91
811.222	10.46
811.532	10.81
811.841	11.5
812.151	12.32
812.46	12.24
812.769	10.98
813.079	10.52
813.388	10.49
813.697	10.25
814.006	9.25
814.315	9.86
814.624	9.79
814.933	9.8
815.242	10.02
815.551	9.42
815.86	9.19
816.169	9.49
816.478	9.57
816.786	9.39
817.095	9.66
817.404	9.83
817.712	8.95
818.021	8.94
818.33	8.53
818.638	8.02
818.947	8.23
819.255	8.71
819.563	9.02
819.872	8.52
820.18	8.48
820.488	8.81
820.796	8.88
821.105	8.95
821.413	8.65
821.721	8.74
822.029	8.77
822.337	8.69
822.645	8.68
822.953	8.63
823.26	8.73
823.568	8.52
823.876	8.55
824.184	8.57
824.491	8.6
824.799	8.59
825.107	8.58
825.414	8.56
825.722	8.51
826.029	8.45
826.337	8.64
826.644	8.7
826.951	8.64
827.259	8.58
827.566	8.56
827.873	8.67
828.18	8.48
828.488	8.48
828.795	8.4
829.102	8.47
829.409	8.56
829.716	8.35
830.023	8.35
830.329	8.13
830.636	8.31
830.943	8.2
831.25	8.31
831.557	8.87
831.863	8.73
832.17	8.4
832.476	8.53
832.783	8.66
833.089	8.53
833.396	8.8
833.702	9
834.009	8.77
834.315	8.88
834.621	9.17
834.928	9.02
835.234	8.92
835.54	8.67
835.846	8.74
836.152	8.85
836.458	9.29
836.764	9.7
837.07	9.42
837.376	9.24
837.682	9.08
837.988	8.32
838.293	8.06
838.599	8.1
838.905	7.54
839.211	7.24
839.516	7.37
839.822	7.34
840.127	6.66
840.433	6.85
840.738	7.07
841.044	6.7
841.349	7.01
841.654	7.2
841.959	7.01
842.265	6.32
842.57	6
842.875	5.3
843.18	5.49
843.485	5.75
843.79	5.71
844.095	5.17
844.4	5.96
844.705	6.69
845.01	6.3
845.315	7.37
845.619	7.05
845.924	6.16
846.229	6.05
846.533	7.47
846.838	6.87
847.142	5.31
847.447	5.49
847.751	6.27
848.056	4.9
848.36	5.56
848.664	4.89
848.969	4.8
849.273	5.37
849.577	3.66
849.881	3.26
850.185	4.66
850.489	6.54
850.794	4.08
851.097	4.14
851.401	5.79
851.705	3.58
852.009	3.96
852.313	4.25
852.617	2.82
852.92	1.26
853.224	0.1
853.528	-0.46
853.831	-0.14
854.135	-0.74
854.438	0.19
854.742	1.09
855.045	2.03
855.349	1.16
855.652	0.35
855.955	1.07
856.259	0.03
856.562	-1.25
856.865	-2.88
857.168	-1.72
857.471	-2.91
857.774	-2.15
858.077	1.83
858.38	2.38
858.683	2.62
858.986	3.02
859.289	3.62
859.592	6.3
859.894	8.68
860.197	6.66
860.5	5.42
860.802	7.55
861.105	4.97
861.407	4.79
861.71	8.31
862.012	10.26
862.315	7.78
862.617	8.25
862.919	7.96
863.222	7.34
863.524	8.18
863.826	8.69
864.128	6.66
864.43	5.74
864.732	6.34
865.034	6.32
865.336	5.86
865.638	5.28
865.94	4.38
866.242	3.34
866.544	4.34
866.846	6.88
867.147	5.51
867.449	7.96
867.751	9.7
868.052	10.78
868.354	10.18
868.655	13.91
868.957	15.02
869.258	14.68
869.56	13.33
869.861	13.87
870.162	13.34
870.463	14.1
870.765	11.56
871.066	9.32
871.367	10.8
871.668	9.91
871.969	10.85
872.27	10.1
872.571	10.6
872.872	11.77
873.173	10.1
873.473	9.84
873.774	9.43
874.075	8.02
874.376	4.61
874.676	4.57
874.977	1.54
875.277	0.46
875.578	0.31
875.878	1.53
876.179	1.83
876.479	1.61
876.78	0.59
877.08	2.24
877.38	3.15
877.68	1.88
877.981	3.77
878.281	2.26
878.581	3.28
