Data from BU26943_Reflection_00003.txt Node
Date: Tue Nov 19 11:02:18 EST 2019
User: vgr7
Spectrometer: USB2G7710
Scans to average: 3
Trigger mode: 4
Integration Time (sec): 2.000000E-2
Electric dark correction enabled: true
Boxcar width: 10
XAxis mode: Wavelengths
Number of Pixels in Spectrum: 2048
>>>>>Begin Spectral Data<<<<<
177.721	-28.96
178.105	1.64
178.488	24.85
178.871	17.02
179.254	29.63
179.636	-30.43
180.019	-238.71
180.402	340
180.785	400
181.168	157.69
181.55	-20.69
181.933	753.85
182.316	-610.53
182.698	562.96
183.081	-38.3
183.463	-51.01
183.846	-63.37
184.228	-49.82
184.611	-30.61
184.993	-23.73
185.376	-24.43
185.758	-32.31
186.14	-41.1
186.522	-27
186.904	-33.66
187.287	-37.85
187.669	-28.57
188.051	-30.89
188.433	-25.94
188.815	-28.45
189.197	-23.55
189.579	-17.31
189.961	-19.26
190.342	-16.65
190.724	-18.7
191.106	-16.36
191.488	-1.88
191.869	2.71
192.251	13.86
192.633	18.42
193.014	16.45
193.396	7.1
193.777	13.89
194.159	18.93
194.54	18.9
194.922	26.17
195.303	28.93
195.684	50.81
196.065	59.5
196.447	70.26
196.828	82.91
197.209	75.32
197.59	90.57
197.971	99.11
198.352	73.23
198.733	73.18
199.114	56.5
199.495	46.78
199.876	50.59
200.257	38.28
200.638	42.88
201.018	41.45
201.399	49.46
201.78	53.3
202.16	60.14
202.541	50.2
202.922	41.97
203.302	45.96
203.683	50.29
204.063	47.57
204.444	43.92
204.824	28.4
205.204	25.46
205.585	37.7
205.965	31.94
206.345	40.26
206.725	35.5
207.106	35.93
207.486	40
207.866	40.82
208.246	40.94
208.626	27.13
209.006	32.97
209.386	27.11
209.766	27.07
210.145	26.7
210.525	32.93
210.905	31.91
211.285	25.85
211.664	20.22
212.044	18.89
212.424	12.08
212.803	11.84
213.183	9.69
213.562	6.47
213.942	14.73
214.321	18.08
214.701	25.86
215.08	33.92
215.459	35.25
215.838	36.88
216.218	35.78
216.597	43.57
216.976	33.15
217.355	35.81
217.734	33.9
218.113	35.57
218.492	32.78
218.871	42.69
219.25	54.84
219.629	58.96
220.008	52.69
220.387	55.9
220.766	56.31
221.144	66.61
221.523	69.86
221.902	66.72
222.28	57.56
222.659	47.67
223.037	46.42
223.416	48.38
223.794	42.42
224.173	40.39
224.551	34.85
224.929	36
225.308	31.2
225.686	29.32
226.064	27.41
226.442	29.27
226.821	26.69
227.199	23.31
227.577	23.09
227.955	23.02
228.333	22.12
228.711	21.16
229.089	20.86
229.467	19.08
229.845	16.05
230.222	15.52
230.6	14.89
230.978	13.52
231.356	13.59
231.733	13.16
232.111	12.69
232.488	12.26
232.866	13.18
233.243	15.41
233.621	16.53
233.998	14.53
234.376	11.86
234.753	10.38
235.13	9.36
235.508	7.21
235.885	6.07
236.262	5.26
236.639	4.96
237.016	2.75
237.393	3.78
237.77	4.84
238.147	4.52
238.524	4.29
238.901	3.12
239.278	2.2
239.655	2.87
240.032	2.93
240.409	2.3
240.785	2.39
241.162	2.7
241.539	2.75
241.915	2.86
242.292	3.06
242.668	3.25
243.045	3.83
243.421	4.29
243.798	4.37
244.174	4.73
244.551	4.71
244.927	4.9
245.303	4.7
245.679	4.53
246.056	4.54
246.432	4.7
246.808	4.86
247.184	4.96
247.56	4.87
247.936	4.9
248.312	5.36
248.688	5.33
249.064	5.03
249.44	4.78
249.815	4.83
250.191	4.8
250.567	4.65
250.943	4.51
251.318	4.3
251.694	4.38
252.069	4.25
252.445	4.34
252.82	4.53
253.196	4.57
253.571	4.65
253.947	4.7
254.322	4.65
254.697	4.49
255.073	4.18
255.448	4.05
255.823	4.01
256.198	3.71
256.573	3.39
256.948	3.6
257.323	3.65
257.698	3.78
258.073	3.7
258.448	3.84
258.823	3.79
259.198	3.95
259.573	3.79
259.948	3.88
260.322	3.7
260.697	3.67
261.072	3.57
261.446	3.57
261.821	3.44
262.195	3.37
262.57	3.57
262.944	3.73
263.319	3.6
263.693	3.55
264.067	3.62
264.442	3.83
264.816	3.61
265.19	3.65
265.564	3.6
265.938	3.63
266.313	3.38
266.687	3.34
267.061	3.18
267.435	3.35
267.809	3.09
268.183	3.02
268.556	2.97
268.93	3.15
269.304	3.05
269.678	3.27
270.051	3.33
270.425	3.22
270.799	3.12
271.172	3.4
271.546	3.48
271.919	3.52
272.293	3.46
272.666	3.67
273.04	3.79
273.413	3.66
273.787	3.65
274.16	3.92
274.533	3.94
274.906	3.89
275.279	3.97
275.653	4.07
276.026	4.22
276.399	4.31
276.772	4.26
277.145	4.33
277.518	4.34
277.891	4.35
278.263	4.44
278.636	4.64
279.009	4.63
279.382	4.56
279.755	4.59
280.127	4.45
280.5	4.33
280.872	4.2
281.245	4.28
281.617	4.33
281.99	4.21
282.362	4.31
282.735	4.23
283.107	4
283.479	4.07
283.852	4.02
284.224	4.02
284.596	3.99
284.968	3.99
285.34	3.96
285.713	3.94
286.085	3.85
286.457	3.66
286.829	3.59
287.201	3.63
287.572	3.57
287.944	3.61
288.316	3.65
288.688	3.67
289.06	3.57
289.431	3.53
289.803	3.55
290.175	3.38
290.546	3.47
290.918	3.57
291.289	3.54
291.661	3.61
292.032	3.44
292.403	3.43
292.775	3.43
293.146	3.37
293.517	3.46
293.889	3.42
294.26	3.56
294.631	3.59
295.002	3.49
295.373	3.4
295.744	3.51
296.115	3.51
296.486	3.43
296.857	3.57
297.228	3.52
297.599	3.44
297.97	3.49
298.34	3.59
298.711	3.59
299.082	3.51
299.452	3.54
299.823	3.55
300.194	3.53
300.564	3.47
300.935	3.4
301.305	3.36
301.676	3.41
302.046	3.29
302.416	3.12
302.787	3.26
303.157	3.26
303.527	3.24
303.897	3.2
304.267	3.18
304.637	2.93
305.008	2.95
305.378	3.05
305.748	2.91
306.117	2.92
306.487	2.94
306.857	3.12
307.227	3.27
307.597	3.51
307.967	3.64
308.336	3.66
308.706	3.77
309.076	3.79
309.445	3.87
309.815	3.99
310.184	3.93
310.554	3.86
310.923	3.9
311.293	3.78
311.662	3.8
312.031	3.78
312.401	3.87
312.77	3.92
313.139	3.96
313.508	4.1
313.877	4.02
314.246	3.92
314.616	3.8
314.985	3.57
315.353	3.56
315.722	3.49
316.091	3.47
316.46	3.41
316.829	3.2
317.198	3.09
317.567	3.05
317.935	3.12
318.304	3.24
318.672	3.25
319.041	3.36
319.41	3.3
319.778	3.48
320.147	3.48
320.515	3.5
320.883	3.44
321.252	3.55
321.62	3.43
321.988	3.64
322.357	3.54
322.725	3.57
323.093	3.37
323.461	3.41
323.829	3.32
324.197	3.21
324.565	3.41
324.933	3.38
325.301	3.27
325.669	3.29
326.037	3.17
326.405	3.09
326.772	3.1
327.14	3.01
327.508	2.93
327.875	2.93
328.243	2.8
328.61	2.82
328.978	2.73
329.346	2.91
329.713	2.87
330.08	2.98
330.448	2.97
330.815	2.94
331.182	2.8
331.55	2.9
331.917	2.92
332.284	2.8
332.651	2.8
333.018	2.85
333.385	2.82
333.752	2.75
334.119	2.86
334.486	2.86
334.853	2.93
335.22	2.88
335.587	2.88
335.954	2.99
336.32	2.82
336.687	2.69
337.054	2.58
337.42	2.61
337.787	2.6
338.153	2.68
338.52	2.8
338.886	2.88
339.253	2.9
339.619	3.04
339.986	2.95
340.352	2.95
340.718	2.95
341.084	3.01
341.451	3.06
341.817	3.09
342.183	2.97
342.549	3.06
342.915	3.12
343.281	3.19
343.647	3.14
344.013	3.19
344.379	3.22
344.745	3.31
345.11	3.21
345.476	3.28
345.842	3.25
346.208	3.22
346.573	3.14
346.939	3.17
347.304	3.09
347.67	3.21
348.035	3.27
348.401	3.32
348.766	3.3
349.132	3.44
349.497	3.41
349.862	3.53
350.228	3.48
350.593	3.44
350.958	3.51
351.323	3.54
351.688	3.58
352.053	3.62
352.418	3.55
352.783	3.59
353.148	3.41
353.513	3.41
353.878	3.33
354.243	3.42
354.608	3.35
354.972	3.31
355.337	3.3
355.702	3.3
356.066	3.26
356.431	3.3
356.795	3.2
357.16	3.11
357.524	3.05
357.889	3.06
358.253	3.08
358.618	3.02
358.982	3.04
359.346	3.07
359.71	3.06
360.075	3.05
360.439	3.04
360.803	3.15
361.167	3.13
361.531	3.18
361.895	3.14
362.259	3.2
362.623	3.25
362.987	3.26
363.351	3.26
363.714	3.23
364.078	3.19
364.442	3.15
364.806	3.21
365.169	3.2
365.533	3.19
365.896	3.2
366.26	3.21
366.623	3.19
366.987	3.2
367.35	3.27
367.714	3.29
368.077	3.37
368.44	3.32
368.803	3.3
369.167	3.2
369.53	3.24
369.893	3.16
370.256	3.09
370.619	3.05
370.982	2.95
371.345	3.02
371.708	3.04
372.071	3.16
372.434	3.17
372.797	3.23
373.159	3.2
373.522	3.18
373.885	3.13
374.247	3.12
374.61	3.1
374.973	3
375.335	3.01
375.698	3
376.06	3.06
376.423	3.06
376.785	3.15
377.147	3.09
377.51	3.1
377.872	3.12
378.234	3.19
378.596	3.29
378.958	3.24
379.321	3.26
379.683	3.22
380.045	3.23
380.407	3.21
380.769	3.2
381.13	3.17
381.492	3.18
381.854	3.19
382.216	3.2
382.578	3.29
382.939	3.32
383.301	3.22
383.663	3.16
384.024	3.22
384.386	3.23
384.747	3.24
385.109	3.29
385.47	3.33
385.832	3.28
386.193	3.24
386.554	3.24
386.916	3.27
387.277	3.27
387.638	3.23
387.999	3.25
388.36	3.3
388.721	3.35
389.082	3.39
389.443	3.43
389.804	3.41
390.165	3.43
390.526	3.37
390.887	3.39
391.248	3.43
391.609	3.4
391.969	3.4
392.33	3.41
392.691	3.42
393.051	3.42
393.412	3.44
393.772	3.48
394.133	3.5
394.493	3.47
394.854	3.48
395.214	3.5
395.574	3.47
395.935	3.45
396.295	3.45
396.655	3.46
397.015	3.44
397.376	3.47
397.736	3.43
398.096	3.45
398.456	3.48
398.816	3.43
399.176	3.42
399.535	3.4
399.895	3.38
400.255	3.38
400.615	3.38
400.975	3.36
401.334	3.35
401.694	3.35
402.054	3.34
402.413	3.33
402.773	3.34
403.132	3.37
403.492	3.41
403.851	3.38
404.211	3.32
404.57	3.33
404.929	3.28
405.288	3.28
405.648	3.27
406.007	3.26
406.366	3.3
406.725	3.32
407.084	3.34
407.443	3.35
407.802	3.33
408.161	3.36
408.52	3.37
408.879	3.35
409.238	3.35
409.596	3.35
409.955	3.34
410.314	3.34
410.673	3.3
411.031	3.24
411.39	3.25
411.748	3.3
412.107	3.29
412.465	3.33
412.824	3.32
413.182	3.36
413.54	3.38
413.899	3.38
414.257	3.39
414.615	3.36
414.974	3.37
415.332	3.4
415.69	3.38
416.048	3.38
416.406	3.38
416.764	3.39
417.122	3.4
417.48	3.42
417.838	3.41
418.195	3.43
418.553	3.44
418.911	3.43
419.269	3.44
419.626	3.44
419.984	3.43
420.342	3.44
420.699	3.41
421.057	3.4
421.414	3.39
421.772	3.38
422.129	3.39
422.486	3.4
422.844	3.39
423.201	3.39
423.558	3.38
423.915	3.4
424.273	3.4
424.63	3.4
424.987	3.39
425.344	3.39
425.701	3.38
426.058	3.38
426.415	3.37
426.772	3.35
427.128	3.35
427.485	3.37
427.842	3.36
428.199	3.4
428.555	3.39
428.912	3.4
429.269	3.4
429.625	3.41
429.982	3.44
430.338	3.44
430.695	3.43
431.051	3.46
431.407	3.43
431.764	3.43
432.12	3.43
432.476	3.45
432.832	3.46
433.189	3.47
433.545	3.49
433.901	3.52
434.257	3.53
434.613	3.52
434.969	3.51
435.325	3.51
435.681	3.48
436.036	3.5
436.392	3.5
436.748	3.5
437.104	3.49
437.459	3.46
437.815	3.47
438.171	3.47
438.526	3.45
438.882	3.46
439.237	3.46
439.593	3.45
439.948	3.45
440.304	3.44
440.659	3.43
441.014	3.42
441.369	3.41
441.725	3.42
442.08	3.42
442.435	3.43
442.79	3.42
443.145	3.42
443.5	3.42
443.855	3.4
444.21	3.4
444.565	3.4
444.92	3.41
445.275	3.4
445.629	3.42
445.984	3.42
446.339	3.43
446.693	3.42
447.048	3.42
447.403	3.42
447.757	3.41
448.112	3.41
448.466	3.42
448.82	3.41
449.175	3.4
449.529	3.4
449.883	3.41
450.238	3.41
450.592	3.41
450.946	3.41
451.3	3.43
451.654	3.42
452.008	3.42
452.362	3.42
452.716	3.41
453.07	3.39
453.424	3.4
453.778	3.38
454.132	3.38
454.486	3.4
454.839	3.4
455.193	3.42
455.547	3.43
455.9	3.44
456.254	3.47
456.607	3.47
456.961	3.47
457.314	3.46
457.668	3.47
458.021	3.47
458.375	3.46
458.728	3.46
459.081	3.45
459.434	3.46
459.787	3.47
460.141	3.48
460.494	3.48
460.847	3.47
461.2	3.49
461.553	3.48
461.906	3.48
462.259	3.48
462.611	3.48
462.964	3.48
463.317	3.45
463.67	3.44
464.022	3.44
464.375	3.43
464.728	3.44
465.08	3.45
465.433	3.45
465.785	3.47
466.138	3.46
466.49	3.49
466.843	3.5
467.195	3.49
467.547	3.49
467.899	3.49
468.252	3.49
468.604	3.49
468.956	3.52
469.308	3.51
469.66	3.54
470.012	3.53
470.364	3.56
470.716	3.59
471.068	3.59
471.42	3.59
471.772	3.6
472.123	3.61
472.475	3.62
472.827	3.63
473.178	3.64
473.53	3.64
473.882	3.65
474.233	3.64
474.585	3.65
474.936	3.65
475.288	3.65
475.639	3.66
475.99	3.65
476.342	3.66
476.693	3.69
477.044	3.69
477.395	3.69
477.746	3.66
478.097	3.65
478.448	3.64
478.8	3.65
479.15	3.65
479.501	3.64
479.852	3.63
480.203	3.63
480.554	3.64
480.905	3.65
481.255	3.66
481.606	3.66
481.957	3.67
482.307	3.67
482.658	3.68
483.009	3.67
483.359	3.68
483.709	3.68
484.06	3.68
484.41	3.67
484.761	3.68
485.111	3.68
485.461	3.69
485.811	3.69
486.162	3.68
486.512	3.68
486.862	3.69
487.212	3.69
487.562	3.69
487.912	3.69
488.262	3.68
488.612	3.67
488.961	3.67
489.311	3.66
489.661	3.66
490.011	3.66
490.36	3.66
490.71	3.65
491.06	3.65
491.409	3.65
491.759	3.65
492.108	3.65
492.458	3.65
492.807	3.65
493.157	3.66
493.506	3.66
493.855	3.65
494.204	3.65
494.554	3.67
494.903	3.66
495.252	3.68
495.601	3.69
495.95	3.7
496.299	3.7
496.648	3.73
496.997	3.74
497.346	3.74
497.695	3.73
498.043	3.75
498.392	3.76
498.741	3.77
499.09	3.78
499.438	3.78
499.787	3.78
500.135	3.77
500.484	3.77
500.832	3.77
501.181	3.79
501.529	3.8
501.878	3.8
502.226	3.8
502.574	3.79
502.923	3.79
503.271	3.78
503.619	3.78
503.967	3.79
504.315	3.8
504.663	3.8
505.011	3.79
505.359	3.79
505.707	3.78
506.055	3.78
506.403	3.78
506.751	3.79
507.098	3.8
507.446	3.82
507.794	3.83
508.141	3.84
508.489	3.81
508.837	3.82
509.184	3.83
509.531	3.83
509.879	3.83
510.226	3.84
510.574	3.85
510.921	3.85
511.268	3.85
511.616	3.84
511.963	3.85
512.31	3.87
512.657	3.9
513.004	3.89
513.351	3.88
513.698	3.87
514.045	3.87
514.392	3.86
514.739	3.86
515.086	3.86
515.432	3.86
515.779	3.87
516.126	3.89
516.473	3.88
516.819	3.88
517.166	3.91
517.512	3.9
517.859	3.92
518.205	3.91
518.552	3.91
518.898	3.92
519.245	3.92
519.591	3.92
519.937	3.91
520.283	3.92
520.629	3.93
520.976	3.92
521.322	3.92
521.668	3.9
522.014	3.92
522.36	3.93
522.706	3.92
523.052	3.92
523.398	3.9
523.743	3.89
524.089	3.9
524.435	3.89
524.781	3.9
525.126	3.89
525.472	3.9
525.817	3.92
526.163	3.93
526.509	3.94
526.854	3.95
527.199	3.96
527.545	3.96
527.89	3.98
528.235	3.99
528.581	4
528.926	4
529.271	4
529.616	4.01
529.961	4.02
530.306	4.02
530.651	4.03
530.996	4.04
531.341	4.05
531.686	4.07
532.031	4.07
532.376	4.08
532.721	4.08
533.065	4.06
533.41	4.05
533.755	4.05
534.099	4.04
534.444	4.02
534.788	4.02
535.133	4.02
535.477	4.03
535.822	4.02
536.166	4.04
536.51	4.04
536.855	4.04
537.199	4.04
537.543	4.05
537.887	4.05
538.231	4.05
538.576	4.05
538.92	4.05
539.264	4.05
539.608	4.04
539.951	4.03
540.295	4.04
540.639	4.04
540.983	4.05
541.327	4.08
541.671	4.1
542.014	4.11
542.358	4.1
542.701	4.11
543.045	4.12
543.389	4.11
543.732	4.09
544.075	4.1
544.419	4.1
544.762	4.1
545.105	4.09
545.449	4.1
545.792	4.1
546.135	4.11
546.478	4.1
546.821	4.11
547.165	4.13
547.508	4.13
547.851	4.13
548.194	4.12
548.536	4.1
548.879	4.08
549.222	4.09
549.565	4.1
549.908	4.08
550.25	4.08
550.593	4.09
550.936	4.15
551.278	4.15
551.621	4.13
551.963	4.16
552.306	4.18
552.648	4.17
552.991	4.13
553.333	4.13
553.675	4.14
554.017	4.13
554.36	4.15
554.702	4.12
555.044	4.13
555.386	4.11
555.728	4.1
556.07	4.09
556.412	4.1
556.754	4.12
557.096	4.11
557.438	4.11
557.78	4.1
558.121	4.08
558.463	4.06
558.805	4.08
559.147	4.07
559.488	4.04
559.83	4.04
560.171	4.07
560.513	4.08
560.854	4.08
561.196	4.1
561.537	4.08
561.878	4.11
562.22	4.12
562.561	4.12
562.902	4.11
563.243	4.13
563.584	4.1
563.925	4.11
564.266	4.1
564.607	4.12
564.948	4.13
565.289	4.14
565.63	4.16
565.971	4.17
566.312	4.15
566.653	4.18
566.993	4.15
567.334	4.13
567.675	4.11
568.015	4.09
568.356	4.07
568.696	4.09
569.037	4.08
569.377	4.07
569.718	4.09
570.058	4.12
570.398	4.11
570.739	4.1
571.079	4.06
571.419	4.06
571.759	4.04
572.099	4.04
572.439	4.03
572.779	4.01
573.119	3.99
573.459	4.01
573.799	4
574.139	3.99
574.479	4.03
574.819	4.05
575.158	4.06
575.498	4.09
575.838	4.07
576.177	4.06
576.517	4.06
576.856	4.04
577.196	4.03
577.535	4.06
577.875	4.06
578.214	4.1
578.553	4.1
578.893	4.11
579.232	4.08
579.571	4.09
579.91	4.08
580.25	4.11
580.589	4.12
580.928	4.09
581.267	4.12
581.606	4.1
581.945	4.09
582.283	4.12
582.622	4.06
582.961	4.08
583.3	4.13
583.639	4.16
583.977	4.19
584.316	4.2
584.654	4.18
584.993	4.21
585.332	4.22
585.67	4.26
586.008	4.23
586.347	4.26
586.685	4.25
587.024	4.27
587.362	4.25
587.7	4.23
588.038	4.29
588.376	4.3
588.715	4.28
589.053	4.32
589.391	4.3
589.729	4.35
590.067	4.35
590.404	4.31
590.742	4.29
591.08	4.3
591.418	4.31
591.756	4.32
592.093	4.3
592.431	4.24
592.769	4.27
593.106	4.3
593.444	4.34
593.781	4.38
594.119	4.36
594.456	4.36
594.793	4.38
595.131	4.36
595.468	4.4
595.805	4.43
596.143	4.43
596.48	4.42
596.817	4.4
597.154	4.41
597.491	4.44
597.828	4.47
598.165	4.43
598.502	4.4
598.839	4.41
599.176	4.44
599.512	4.44
599.849	4.41
600.186	4.41
600.523	4.4
600.859	4.38
601.196	4.41
601.532	4.41
601.869	4.42
602.205	4.39
602.542	4.32
602.878	4.32
603.215	4.32
603.551	4.36
603.887	4.36
604.223	4.36
604.56	4.34
604.896	4.32
605.232	4.34
605.568	4.35
605.904	4.3
606.24	4.31
606.576	4.33
606.912	4.33
607.248	4.39
607.583	4.36
607.919	4.37
608.255	4.38
608.591	4.39
608.926	4.36
609.262	4.37
609.597	4.39
609.933	4.4
610.268	4.4
610.604	4.39
610.939	4.41
611.275	4.39
611.61	4.38
611.945	4.38
612.281	4.39
612.616	4.4
612.951	4.46
613.286	4.43
613.621	4.44
613.956	4.48
614.291	4.41
614.626	4.42
614.961	4.45
615.296	4.44
615.631	4.49
615.966	4.51
616.3	4.56
616.635	4.59
616.97	4.58
617.304	4.59
617.639	4.62
617.973	4.6
618.308	4.59
618.642	4.63
618.977	4.58
619.311	4.58
619.646	4.59
619.98	4.58
620.314	4.59
620.648	4.58
620.983	4.53
621.317	4.5
621.651	4.47
621.985	4.4
622.319	4.38
622.653	4.32
622.987	4.33
623.321	4.34
623.655	4.38
623.988	4.41
624.322	4.36
624.656	4.34
624.99	4.35
625.323	4.36
625.657	4.35
625.99	4.41
626.324	4.44
626.657	4.39
626.991	4.41
627.324	4.41
627.658	4.41
627.991	4.46
628.324	4.5
628.657	4.56
628.991	4.59
629.324	4.62
629.657	4.62
629.99	4.62
630.323	4.63
630.656	4.57
630.989	4.49
631.322	4.51
631.655	4.51
631.987	4.52
632.32	4.57
632.653	4.58
632.986	4.56
633.318	4.55
633.651	4.56
633.984	4.56
634.316	4.55
634.649	4.54
634.981	4.52
635.313	4.54
635.646	4.49
635.978	4.46
636.31	4.44
636.643	4.45
636.975	4.41
637.307	4.4
637.639	4.38
637.971	4.4
638.303	4.39
638.635	4.38
638.967	4.39
639.299	4.41
639.631	4.39
639.963	4.38
640.295	4.44
640.626	4.49
640.958	4.52
641.29	4.55
641.621	4.55
641.953	4.54
642.285	4.54
642.616	4.59
642.948	4.63
643.279	4.64
643.61	4.67
643.942	4.76
644.273	4.73
644.604	4.75
644.936	4.75
645.267	4.78
645.598	4.82
645.929	4.81
646.26	4.77
646.591	4.81
646.922	4.84
647.253	4.75
647.584	4.72
647.915	4.64
648.245	4.61
648.576	4.63
648.907	4.63
649.238	4.59
649.568	4.53
649.899	4.55
650.229	4.54
650.56	4.48
650.89	4.43
651.221	4.46
651.551	4.56
651.882	4.58
652.212	4.58
652.542	4.55
652.872	4.6
653.203	4.62
653.533	4.61
653.863	4.62
654.193	4.62
654.523	4.6
654.853	4.67
655.183	4.75
655.513	4.79
655.843	4.81
656.172	4.87
656.502	4.84
656.832	4.85
657.162	4.83
657.491	4.93
657.821	4.93
658.15	4.92
658.48	4.86
658.809	4.87
659.139	4.86
659.468	4.9
659.798	4.88
660.127	4.82
660.456	4.86
660.785	4.88
661.115	4.92
661.444	4.95
661.773	4.97
662.102	4.91
662.431	4.93
662.76	4.95
663.089	5
663.418	5.04
663.747	5.02
664.076	5.02
664.404	5.01
664.733	4.98
665.062	5.02
665.39	5
665.719	4.97
666.048	4.97
666.376	4.93
666.705	4.9
667.033	4.91
667.362	4.83
667.69	4.88
668.018	4.88
668.347	4.82
668.675	4.8
669.003	4.75
669.331	4.65
669.659	4.67
669.987	4.6
670.315	4.63
670.643	4.62
670.971	4.7
671.299	4.65
671.627	4.68
671.955	4.62
672.283	4.62
672.61	4.71
672.938	4.75
673.266	4.7
673.593	4.65
673.921	4.65
674.249	4.62
674.576	4.55
674.904	4.53
675.231	4.58
675.558	4.65
675.886	4.73
676.213	4.77
676.54	4.77
676.867	4.76
677.195	4.78
677.522	4.79
677.849	4.8
678.176	4.84
678.503	4.85
678.83	4.87
679.157	4.89
679.484	4.85
679.81	4.84
680.137	4.87
680.464	4.94
680.791	4.93
681.117	5
681.444	5.03
681.771	5.08
682.097	5.11
682.424	5.03
682.75	5
683.077	5.09
683.403	5.08
683.729	5.09
684.056	5.05
684.382	5.16
684.708	5.15
685.034	5.17
685.36	5.17
685.686	5.2
686.012	5.2
686.339	5.15
686.664	5.15
686.99	5.09
687.316	5.06
687.642	5.2
687.968	5.24
688.294	5.23
688.619	5.25
688.945	5.21
689.271	5.13
689.596	5.11
689.922	5.03
690.247	4.93
690.573	4.97
690.898	5.05
691.224	5.05
691.549	5
691.874	4.94
692.2	4.94
692.525	4.82
692.85	4.84
693.175	4.99
693.5	5.03
693.825	5.13
694.15	5.21
694.475	5.08
694.8	4.99
695.125	4.97
695.45	4.91
695.775	5.01
696.099	5.14
696.424	5.23
696.749	5.34
697.073	5.39
697.398	5.39
697.723	5.31
698.047	5.27
698.372	5.32
698.696	5.37
699.02	5.44
699.345	5.56
699.669	5.52
699.993	5.53
700.318	5.57
700.642	5.46
700.966	5.43
701.29	5.55
701.614	5.6
701.938	5.63
702.262	5.67
702.586	5.68
702.91	5.72
703.234	5.72
703.557	5.58
703.881	5.67
704.205	5.69
704.529	5.74
704.852	5.63
705.176	5.61
705.499	5.61
705.823	5.63
706.146	5.62
706.47	5.68
706.793	5.62
707.117	5.65
707.44	5.8
707.763	5.89
708.086	5.7
708.409	5.69
708.733	5.61
709.056	5.67
709.379	5.67
709.702	5.63
710.025	5.67
710.348	5.67
710.671	5.63
710.993	5.63
711.316	5.52
711.639	5.54
711.962	5.65
712.284	5.66
712.607	5.59
712.93	5.56
713.252	5.6
713.575	5.66
713.897	5.57
714.22	5.53
714.542	5.51
714.864	5.56
715.187	5.54
715.509	5.72
715.831	5.69
716.153	5.6
716.475	5.58
716.798	5.59
717.12	5.71
717.442	5.67
717.764	5.71
718.085	5.97
718.407	5.98
718.729	5.92
719.051	5.91
719.373	5.95
719.695	6.03
720.016	5.94
720.338	6.09
720.659	6.19
720.981	6.19
721.302	6.2
721.624	6.25
721.945	6.34
722.267	6.3
722.588	6.23
722.909	6.19
723.231	6.17
723.552	6.11
723.873	6.01
724.194	5.99
724.515	5.95
724.836	5.72
725.157	5.78
725.478	5.76
725.799	5.73
726.12	5.7
726.441	5.74
726.762	5.79
727.083	5.61
727.403	5.55
727.724	5.67
728.045	5.64
728.365	5.59
728.686	5.55
729.006	5.44
729.327	5.6
729.647	5.69
729.967	5.73
730.288	5.89
730.608	5.92
730.928	6.09
731.249	6.16
731.569	6.28
731.889	6.32
732.209	6.38
732.529	6.33
732.849	6.4
733.169	6.36
733.489	6.41
733.809	6.5
734.129	6.46
734.448	6.38
734.768	6.4
735.088	6.49
735.408	6.46
735.727	6.6
736.047	6.54
736.366	6.43
736.686	6.42
737.005	6.22
737.325	6.3
737.644	6.03
737.963	6.06
738.283	6.02
738.602	5.96
738.921	6.02
739.24	6.09
739.56	6.12
739.879	6.14
740.198	6.04
740.517	6.03
740.836	6.2
741.155	6.13
741.473	6.33
741.792	6.36
742.111	6.45
742.43	6.38
742.748	6.35
743.067	6.42
743.386	6.33
743.704	6.52
744.023	6.55
744.341	6.74
744.66	6.49
744.978	6.45
745.297	6.51
745.615	6.39
745.933	6.36
746.252	6.16
746.57	6.13
746.888	6.13
747.206	5.93
747.524	5.73
747.842	5.9
748.16	5.68
748.478	5.62
748.796	5.68
749.114	5.59
749.432	5.81
749.749	5.99
750.067	5.93
750.385	5.93
750.703	5.8
751.02	5.94
751.338	5.79
751.655	5.76
751.973	5.67
752.29	5.46
752.608	5.52
752.925	5.59
753.242	5.7
753.56	5.58
753.877	5.59
754.194	5.55
754.511	5.49
754.828	5.56
755.145	5.39
755.462	5.45
755.779	5.62
756.096	5.39
756.413	5.4
756.73	5.48
757.047	5.22
757.364	5.23
757.68	5.02
757.997	5.49
758.314	5.62
758.63	5.71
758.947	5.88
759.264	5.96
759.58	6.16
759.896	5.94
760.213	6.26
760.529	6.4
760.846	6.49
761.162	6.4
761.478	6.15
761.794	6.33
762.11	6.28
762.426	6.22
762.743	6.47
763.059	6.3
763.375	6.51
763.69	6.7
764.006	6.76
764.322	6.84
764.638	6.94
764.954	7.03
765.27	7.05
765.585	7
765.901	7
766.216	6.71
766.532	6.81
766.848	6.58
767.163	6.64
767.478	6.69
767.794	6.92
768.109	7.07
768.424	6.95
768.74	6.91
769.055	7.06
769.37	6.8
769.685	7.02
770	6.79
770.315	6.73
770.63	6.83
770.945	6.87
771.26	6.54
771.575	6.57
771.89	6.49
772.205	6.29
772.52	6.32
772.834	6.57
773.149	6.47
773.464	6.6
773.778	6.41
774.093	6.12
774.407	6.01
774.722	5.74
775.036	6.03
775.351	6.31
775.665	6.42
775.979	6.47
776.293	6.64
776.608	6.73
776.922	6.82
777.236	6.58
777.55	6.54
777.864	6.34
778.178	6.3
778.492	6.38
778.806	6.79
779.12	6.98
779.434	7.13
779.747	7.53
780.061	7.61
780.375	7.93
780.689	7.98
781.002	8.05
781.316	8.65
781.629	8.68
781.943	8.38
782.256	8.01
782.57	7.99
782.883	7.86
783.196	7.99
783.51	8.18
783.823	8.9
784.136	8.8
784.449	8.98
784.762	9.03
785.075	9.18
785.388	9.15
785.701	8.83
786.014	8.68
786.327	8.16
786.64	8.55
786.953	8.64
787.266	9.12
787.578	9.25
787.891	9.05
788.204	8.93
788.516	9.16
788.829	8.89
789.141	8.88
789.454	8.89
789.766	8.82
790.079	8.38
790.391	7.99
790.703	8.3
791.016	8.3
791.328	8.14
791.64	7.86
791.952	7.96
792.264	8.04
792.576	7.97
792.888	8.35
793.2	8.12
793.512	7.82
793.824	7.58
794.136	7.04
794.448	7.26
794.76	7.2
795.071	7.24
795.383	7.52
795.695	7.45
796.006	7.48
796.318	7.3
796.629	7.62
796.941	7.44
797.252	7.23
797.564	7.55
797.875	7.42
798.186	7.56
798.497	7.63
798.809	7.17
799.12	7.05
799.431	6.92
799.742	7.4
800.053	7.19
800.364	7.41
800.675	7.56
800.986	7.32
801.297	7.58
801.608	7.09
801.918	7.08
802.229	7.27
802.54	7.03
802.851	7.27
803.161	6.83
803.472	6.77
803.782	6.93
804.093	6.41
804.403	6.7
804.714	6.88
805.024	6.74
805.334	6.79
805.645	7.3
805.955	7.62
806.265	7.25
806.575	7.46
806.885	7.39
807.195	7.68
807.505	7.91
807.815	7.69
808.125	7.66
808.435	7.65
808.745	8.25
809.055	8.82
809.365	8.96
809.674	9.14
809.984	8.9
810.294	8.71
810.603	8.61
810.913	7.98
811.222	8.27
811.532	8.24
811.841	9.07
812.151	9.25
812.46	8.76
812.769	8.34
813.079	8.53
813.388	8.22
813.697	7.89
814.006	8.12
814.315	8.02
814.624	8.24
814.933	8.35
815.242	7.35
815.551	7.09
815.86	7.12
816.169	7.09
816.478	7.39
816.786	7.71
817.095	8.44
817.404	9.04
817.712	8.53
818.021	8.69
818.33	8.8
818.638	8.79
818.947	8.78
819.255	8.75
819.563	8.59
819.872	8.7
820.18	8.76
820.488	8.77
820.796	8.88
821.105	8.86
821.413	8.87
821.721	8.96
822.029	9.02
822.337	9
822.645	8.94
822.953	9.06
823.26	9.07
823.568	9.09
823.876	9.02
824.184	9.11
824.491	9
824.799	8.94
825.107	8.88
825.414	8.9
825.722	8.9
826.029	9
826.337	9.02
826.644	9.2
826.951	9.2
827.259	9.25
827.566	9.2
827.873	9.3
828.18	9.4
828.488	9.31
828.795	9.27
829.102	9.39
829.409	9.31
829.716	9.28
830.023	9.31
830.329	9.33
830.636	9.2
830.943	9.43
831.25	9.55
831.557	9.63
831.863	9.73
832.17	9.92
832.476	9.72
832.783	10.09
833.089	9.67
833.396	9.29
833.702	9.13
834.009	9.53
834.315	9.34
834.621	8.78
834.928	8.75
835.234	9.03
835.54	8.98
835.846	9.02
836.152	9.05
836.458	9.12
836.764	9.59
837.07	9.85
837.376	9.86
837.682	9.04
837.988	9.2
838.293	9.11
838.599	8.98
838.905	8.91
839.211	8.36
839.516	8.74
839.822	9.55
840.127	9.63
840.433	9.6
840.738	9.72
841.044	10.24
841.349	10.22
841.654	9.94
841.959	10.5
842.265	10.53
842.57	10.26
842.875	9.6
843.18	8.36
843.485	7.99
843.79	7.77
844.095	8.25
844.4	8.47
844.705	9.1
845.01	9.75
845.315	10.74
845.619	11.23
845.924	10.53
846.229	10.09
846.533	10.11
846.838	10
847.142	10.03
847.447	11.76
847.751	13.7
848.056	14.06
848.36	13.71
848.664	13.77
848.969	14.6
849.273	15.89
849.577	17.23
849.881	16.63
850.185	15.5
850.489	16.8
850.794	15.45
851.097	15.35
851.401	13.13
851.705	11.28
852.009	11.6
852.313	11.84
852.617	11.88
852.92	12.98
853.224	13.37
853.528	13.1
853.831	13.88
854.135	13.39
854.438	13.75
854.742	12.49
855.045	12.36
855.349	10.27
855.652	8.77
855.955	8.62
856.259	9.92
856.562	12.07
856.865	12.33
857.168	12.25
857.471	13.32
857.774	14.63
858.077	15.14
858.38	16.18
858.683	17.29
858.986	16.85
859.289	16.93
859.592	18.37
859.894	18.19
860.197	15.99
860.5	15.42
860.802	14.56
861.105	17.04
861.407	18.46
861.71	19.29
862.012	19.98
862.315	19.68
862.617	18.83
862.919	18.83
863.222	19.57
863.524	20.08
863.826	17.67
864.128	16.43
864.43	18.33
864.732	16.84
865.034	17.86
865.336	16.82
865.638	15.78
865.94	13.7
866.242	14.35
866.544	14.7
866.846	14.14
867.147	14.86
867.449	13.7
867.751	11.15
868.052	11.19
868.354	11.87
868.655	10.97
868.957	12.01
869.258	10.96
869.56	10.74
869.861	10.36
870.162	10.32
870.463	12.37
870.765	10.97
871.066	11.67
871.367	9.21
871.668	10.93
871.969	9.95
872.27	9.86
872.571	9.36
872.872	9.01
873.173	9.69
873.473	8.93
873.774	9.17
874.075	10.56
874.376	10.57
874.676	9.97
874.977	12.15
875.277	12.12
875.578	13.46
875.878	12.32
876.179	12.66
876.479	13.67
876.78	13.3
877.08	13.53
877.38	12.5
877.68	13.65
877.981	13.19
878.281	15.45
878.581	16.71
