Data from BU26850_Reflection_00010.txt Node
Date: Mon Nov 18 16:45:42 EST 2019
User: vgr7
Spectrometer: USB2G7710
Scans to average: 3
Trigger mode: 4
Integration Time (sec): 2.000000E-2
Electric dark correction enabled: true
Boxcar width: 10
XAxis mode: Wavelengths
Number of Pixels in Spectrum: 2048
>>>>>Begin Spectral Data<<<<<
177.721	-18.22
178.105	18.73
178.488	38.85
178.871	26.49
179.254	32.02
179.636	-141.12
180.019	-59
180.402	57.69
180.785	51.6
181.168	147.99
181.55	308.59
181.933	361.05
182.316	770.42
182.698	482.83
183.081	442.17
183.463	-1900
183.846	-316.46
184.228	-201.89
184.611	448.94
184.993	758.23
185.376	-396.31
185.758	-314.72
186.14	-133.79
186.522	-103.11
186.904	-114.96
187.287	-113.39
187.669	-38.45
188.051	-28.09
188.433	-37.68
188.815	-31.68
189.197	-15.92
189.579	-24.68
189.961	-34.89
190.342	-50.52
190.724	-41.63
191.106	-57.11
191.488	-63.53
191.869	-61.13
192.251	-86.01
192.633	-65.32
193.014	-63.55
193.396	-56.08
193.777	-58.4
194.159	-56.06
194.54	-49.99
194.922	-44.27
195.303	-42.05
195.684	-41.96
196.065	-38.01
196.447	-30.21
196.828	-35.09
197.209	-31.61
197.59	-37.04
197.971	-23.17
198.352	-14.97
198.733	-20.69
199.114	-23.14
199.495	-18.65
199.876	-19.13
200.257	-10.42
200.638	-2.48
201.018	-8.64
201.399	-10.92
201.78	-14.93
202.16	-21.37
202.541	-24.04
202.922	-41.28
203.302	-56.04
203.683	-55.07
204.063	-71.63
204.444	-78.28
204.824	-63.8
205.204	-88.68
205.585	-78.11
205.965	-66.72
206.345	-85.11
206.725	-103.09
207.106	-105.14
207.486	-115.49
207.866	-123.39
208.246	-131.14
208.626	-161.83
209.006	-114.4
209.386	-158.32
209.766	-156.44
210.145	-172.69
210.525	-123.7
210.905	-112.23
211.285	-81.78
211.664	-91.25
212.044	-69.71
212.424	-69.65
212.803	-87.97
213.183	-61.61
213.562	-46.49
213.942	-44.59
214.321	-35.45
214.701	-40.65
215.08	-49.73
215.459	-56.26
215.838	-42.65
216.218	-38.62
216.597	-29.81
216.976	-19.76
217.355	-7.59
217.734	-1.79
218.113	-10.77
218.492	-20.01
218.871	-15.06
219.25	-18.1
219.629	-20.49
220.008	-36.26
220.387	-37.26
220.766	-34.22
221.144	-53.92
221.523	-76.53
221.902	-94.8
222.28	-90.57
222.659	-81.79
223.037	-72.2
223.416	-63.58
223.794	-52.27
224.173	-57.02
224.551	-55.3
224.929	-64.67
225.308	-58.5
225.686	-57.33
226.064	-47.53
226.442	-35.98
226.821	-24.17
227.199	-24
227.577	-19.89
227.955	-11.12
228.333	-11.95
228.711	-8.05
229.089	-4.43
229.467	-3.18
229.845	-2.79
230.222	0.64
230.6	3.58
230.978	5.18
231.356	6.87
231.733	5.89
232.111	7.05
232.488	6
232.866	6.83
233.243	8.63
233.621	7.77
233.998	10.3
234.376	9.54
234.753	9.1
235.13	10.8
235.508	10.91
235.885	8.03
236.262	7.87
236.639	7.97
237.016	8.38
237.393	9.35
237.77	9.97
238.147	8.97
238.524	7.48
238.901	6.39
239.278	6.93
239.655	7.59
240.032	7.06
240.409	6.38
240.785	6.34
241.162	6.59
241.539	7.58
241.915	6.8
242.292	5.91
242.668	5.8
243.045	6.27
243.421	5.86
243.798	6.02
244.174	6.16
244.551	5.71
244.927	5.41
245.303	5.76
245.679	5.41
246.056	5.69
246.432	5.87
246.808	6.08
247.184	5.77
247.56	5.44
247.936	5.51
248.312	5.6
248.688	5.7
249.064	5.5
249.44	5.12
249.815	5.1
250.191	5.49
250.567	5.25
250.943	5.06
251.318	5.32
251.694	5.33
252.069	5.11
252.445	5.42
252.82	5.44
253.196	5.02
253.571	5.17
253.947	4.86
254.322	5.15
254.697	4.89
255.073	5.07
255.448	4.9
255.823	5.01
256.198	5.23
256.573	5.24
256.948	5.25
257.323	5.43
257.698	5.5
258.073	5.5
258.448	5.5
258.823	5.47
259.198	5.29
259.573	5.29
259.948	5.31
260.322	5.27
260.697	5.22
261.072	5.13
261.446	5.14
261.821	4.97
262.195	4.9
262.57	4.82
262.944	4.69
263.319	4.81
263.693	4.78
264.067	4.68
264.442	4.76
264.816	4.6
265.19	4.5
265.564	4.6
265.938	4.37
266.313	4.31
266.687	4.1
267.061	4.18
267.435	4.2
267.809	4.2
268.183	4.28
268.556	4.33
268.93	4.57
269.304	4.55
269.678	4.64
270.051	4.61
270.425	4.77
270.799	4.7
271.172	4.65
271.546	4.5
271.919	4.51
272.293	4.26
272.666	4.47
273.04	4.44
273.413	4.2
273.787	4.44
274.16	4.47
274.533	4.55
274.906	4.42
275.279	4.32
275.653	4.29
276.026	4.27
276.399	4.37
276.772	4.28
277.145	4.26
277.518	4.24
277.891	4.16
278.263	3.99
278.636	4.19
279.009	4.41
279.382	4.42
279.755	4.47
280.127	4.51
280.5	4.48
280.872	4.41
281.245	4.5
281.617	4.52
281.99	4.64
282.362	4.7
282.735	4.74
283.107	4.73
283.479	4.71
283.852	4.71
284.224	4.69
284.596	4.71
284.968	4.7
285.34	4.89
285.713	4.88
286.085	4.92
286.457	4.85
286.829	4.84
287.201	5.05
287.572	5.08
287.944	5.13
288.316	5.11
288.688	5.22
289.06	5.23
289.431	5.17
289.803	5.23
290.175	5.26
290.546	5.46
290.918	5.6
291.289	5.8
291.661	5.86
292.032	5.95
292.403	6.08
292.775	6.28
293.146	6.16
293.517	6.3
293.889	6.51
294.26	6.65
294.631	6.64
295.002	6.48
295.373	6.45
295.744	6.62
296.115	6.72
296.486	6.72
296.857	6.79
297.228	6.98
297.599	6.99
297.97	7.07
298.34	7.13
298.711	7.2
299.082	7.21
299.452	7.19
299.823	7.4
300.194	7.33
300.564	7.28
300.935	7.43
301.305	7.44
301.676	7.53
302.046	7.58
302.416	7.79
302.787	8.08
303.157	8.18
303.527	8.17
303.897	8.29
304.267	8.36
304.637	8.6
305.008	8.55
305.378	8.59
305.748	8.68
306.117	8.75
306.487	8.9
306.857	8.91
307.227	9.08
307.597	9.02
307.967	9.22
308.336	9.36
308.706	9.41
309.076	9.62
309.445	9.58
309.815	9.61
310.184	9.58
310.554	9.53
310.923	9.63
311.293	9.68
311.662	9.77
312.031	10.03
312.401	10.08
312.77	10.33
313.139	10.54
313.508	10.54
313.877	10.48
314.246	10.58
314.616	10.64
314.985	10.68
315.353	10.8
315.722	10.87
316.091	10.99
316.46	11.11
316.829	11.04
317.198	11.14
317.567	11.22
317.935	11.31
318.304	11.51
318.672	11.55
319.041	11.73
319.41	11.79
319.778	11.73
320.147	11.74
320.515	11.67
320.883	11.72
321.252	11.91
321.62	12.11
321.988	12.12
322.357	12.24
322.725	12.42
323.093	12.64
323.461	12.73
323.829	12.74
324.197	12.9
324.565	13.08
324.933	13.09
325.301	13.32
325.669	13.49
326.037	13.51
326.405	13.56
326.772	13.62
327.14	13.65
327.508	13.71
327.875	13.8
328.243	13.88
328.61	13.89
328.978	13.86
329.346	13.94
329.713	13.97
330.08	14.14
330.448	14.08
330.815	13.98
331.182	14.01
331.55	14.13
331.917	14.13
332.284	14.17
332.651	14.38
333.018	14.32
333.385	14.37
333.752	14.48
334.119	14.64
334.486	14.63
334.853	14.8
335.22	14.85
335.587	14.89
335.954	14.95
336.32	14.98
336.687	15.1
337.054	15.14
337.42	15.25
337.787	15.28
338.153	15.4
338.52	15.54
338.886	15.48
339.253	15.37
339.619	15.43
339.986	15.33
340.352	15.28
340.718	15.28
341.084	15.18
341.451	15.28
341.817	15.41
342.183	15.5
342.549	15.42
342.915	15.5
343.281	15.49
343.647	15.5
344.013	15.58
344.379	15.52
344.745	15.6
345.11	15.66
345.476	15.8
345.842	15.86
346.208	15.78
346.573	16.05
346.939	16.23
347.304	16.14
347.67	16.27
348.035	16.43
348.401	16.48
348.766	16.57
349.132	16.55
349.497	16.5
349.862	16.56
350.228	16.59
350.593	16.61
350.958	16.64
351.323	16.76
351.688	16.84
352.053	16.92
352.418	16.89
352.783	16.94
353.148	16.8
353.513	16.77
353.878	16.87
354.243	16.82
354.608	16.89
354.972	16.97
355.337	17.03
355.702	16.97
356.066	17.05
356.431	17.02
356.795	17
357.16	17
357.524	16.96
357.889	16.95
358.253	17.01
358.618	17.07
358.982	16.96
359.346	16.9
359.71	16.9
360.075	16.96
360.439	16.88
360.803	16.9
361.167	16.79
361.531	16.76
361.895	16.67
362.259	16.56
362.623	16.57
362.987	16.53
363.351	16.53
363.714	16.49
364.078	16.46
364.442	16.42
364.806	16.35
365.169	16.38
365.533	16.38
365.896	16.21
366.26	16.22
366.623	16.2
366.987	16.19
367.35	16.19
367.714	16.12
368.077	16.05
368.44	15.96
368.803	16.04
369.167	15.97
369.53	15.93
369.893	15.95
370.256	15.93
370.619	15.9
370.982	15.81
371.345	15.74
371.708	15.72
372.071	15.71
372.434	15.59
372.797	15.48
373.159	15.45
373.522	15.51
373.885	15.34
374.247	15.31
374.61	15.26
374.973	15.15
375.335	15.07
375.698	15.02
376.06	14.91
376.423	14.82
376.785	14.75
377.147	14.63
377.51	14.48
377.872	14.38
378.234	14.32
378.596	14.23
378.958	14.15
379.321	14.07
379.683	13.99
380.045	13.94
380.407	13.87
380.769	13.73
381.13	13.54
381.492	13.48
381.854	13.4
382.216	13.28
382.578	13.15
382.939	13.05
383.301	12.98
383.663	12.96
384.024	12.92
384.386	12.88
384.747	12.85
385.109	12.83
385.47	12.76
385.832	12.65
386.193	12.61
386.554	12.54
386.916	12.41
387.277	12.35
387.638	12.33
387.999	12.21
388.36	12.17
388.721	12.16
389.082	12.09
389.443	12.02
389.804	11.96
390.165	11.88
390.526	11.85
390.887	11.78
391.248	11.73
391.609	11.64
391.969	11.57
392.33	11.49
392.691	11.37
393.051	11.29
393.412	11.25
393.772	11.19
394.133	11.13
394.493	11.09
394.854	10.98
395.214	10.89
395.574	10.88
395.935	10.79
396.295	10.74
396.655	10.66
397.015	10.57
397.376	10.49
397.736	10.42
398.096	10.28
398.456	10.2
398.816	10.1
399.176	9.99
399.535	9.9
399.895	9.84
400.255	9.79
400.615	9.76
400.975	9.65
401.334	9.57
401.694	9.5
402.054	9.44
402.413	9.37
402.773	9.31
403.132	9.25
403.492	9.15
403.851	9.05
404.211	9
404.57	8.92
404.929	8.89
405.288	8.87
405.648	8.86
406.007	8.83
406.366	8.82
406.725	8.85
407.084	8.8
407.443	8.79
407.802	8.79
408.161	8.69
408.52	8.64
408.879	8.58
409.238	8.56
409.596	8.55
409.955	8.54
410.314	8.51
410.673	8.43
411.031	8.42
411.39	8.39
411.748	8.39
412.107	8.38
412.465	8.32
412.824	8.3
413.182	8.25
413.54	8.22
413.899	8.19
414.257	8.13
414.615	8.1
414.974	8.04
415.332	7.97
415.69	7.96
416.048	7.93
416.406	7.92
416.764	7.86
417.122	7.84
417.48	7.77
417.838	7.73
418.195	7.72
418.553	7.69
418.911	7.67
419.269	7.61
419.626	7.57
419.984	7.52
420.342	7.48
420.699	7.43
421.057	7.4
421.414	7.35
421.772	7.3
422.129	7.27
422.486	7.25
422.844	7.22
423.201	7.19
423.558	7.15
423.915	7.13
424.273	7.12
424.63	7.06
424.987	7.04
425.344	7.02
425.701	6.99
426.058	6.96
426.415	6.93
426.772	6.93
427.128	6.9
427.485	6.89
427.842	6.85
428.199	6.82
428.555	6.8
428.912	6.78
429.269	6.76
429.625	6.73
429.982	6.67
430.338	6.62
430.695	6.6
431.051	6.58
431.407	6.53
431.764	6.52
432.12	6.52
432.476	6.49
432.832	6.47
433.189	6.44
433.545	6.45
433.901	6.44
434.257	6.42
434.613	6.41
434.969	6.41
435.325	6.44
435.681	6.46
436.036	6.46
436.392	6.46
436.748	6.47
437.104	6.47
437.459	6.48
437.815	6.53
438.171	6.52
438.526	6.53
438.882	6.55
439.237	6.54
439.593	6.55
439.948	6.55
440.304	6.55
440.659	6.54
441.014	6.55
441.369	6.52
441.725	6.5
442.08	6.49
442.435	6.49
442.79	6.46
443.145	6.44
443.5	6.42
443.855	6.4
444.21	6.39
444.565	6.4
444.92	6.4
445.275	6.37
445.629	6.35
445.984	6.33
446.339	6.32
446.693	6.29
447.048	6.26
447.403	6.24
447.757	6.23
448.112	6.22
448.466	6.2
448.82	6.19
449.175	6.19
449.529	6.16
449.883	6.13
450.238	6.11
450.592	6.1
450.946	6.06
451.3	6.03
451.654	6.01
452.008	5.97
452.362	5.94
452.716	5.93
453.07	5.89
453.424	5.88
453.778	5.85
454.132	5.85
454.486	5.83
454.839	5.82
455.193	5.8
455.547	5.78
455.9	5.78
456.254	5.79
456.607	5.8
456.961	5.81
457.314	5.81
457.668	5.82
458.021	5.82
458.375	5.84
458.728	5.86
459.081	5.86
459.434	5.87
459.787	5.86
460.141	5.86
460.494	5.9
460.847	5.91
461.2	5.92
461.553	5.94
461.906	5.97
462.259	5.98
462.611	6.03
462.964	6.07
463.317	6.1
463.67	6.1
464.022	6.11
464.375	6.13
464.728	6.18
465.08	6.22
465.433	6.28
465.785	6.32
466.138	6.34
466.49	6.35
466.843	6.39
467.195	6.43
467.547	6.46
467.899	6.48
468.252	6.51
468.604	6.54
468.956	6.55
469.308	6.6
469.66	6.65
470.012	6.67
470.364	6.7
470.716	6.71
471.068	6.75
471.42	6.79
471.772	6.82
472.123	6.83
472.475	6.86
472.827	6.87
473.178	6.9
473.53	6.93
473.882	6.97
474.233	6.98
474.585	6.98
474.936	7
475.288	7.01
475.639	7.04
475.99	7.05
476.342	7.06
476.693	7.05
477.044	7.05
477.395	7.02
477.746	7.02
478.097	7
478.448	6.99
478.8	6.97
479.15	6.94
479.501	6.9
479.852	6.89
480.203	6.89
480.554	6.87
480.905	6.85
481.255	6.85
481.606	6.84
481.957	6.85
482.307	6.84
482.658	6.82
483.009	6.79
483.359	6.78
483.709	6.77
484.06	6.76
484.41	6.76
484.761	6.76
485.111	6.75
485.461	6.75
485.811	6.73
486.162	6.72
486.512	6.72
486.862	6.73
487.212	6.72
487.562	6.72
487.912	6.72
488.262	6.71
488.612	6.7
488.961	6.68
489.311	6.68
489.661	6.68
490.011	6.69
490.36	6.71
490.71	6.73
491.06	6.75
491.409	6.76
491.759	6.75
492.108	6.77
492.458	6.78
492.807	6.81
493.157	6.85
493.506	6.9
493.855	6.95
494.204	6.99
494.554	7.03
494.903	7.05
495.252	7.1
495.601	7.16
495.95	7.25
496.299	7.32
496.648	7.38
496.997	7.46
497.346	7.57
497.695	7.66
498.043	7.73
498.392	7.81
498.741	7.92
499.09	8.01
499.438	8.12
499.787	8.23
500.135	8.35
500.484	8.46
500.832	8.6
501.181	8.74
501.529	8.88
501.878	9.04
502.226	9.23
502.574	9.4
502.923	9.57
503.271	9.75
503.619	9.96
503.967	10.14
504.315	10.32
504.663	10.5
505.011	10.68
505.359	10.89
505.707	11.13
506.055	11.34
506.403	11.56
506.751	11.8
507.098	12.02
507.446	12.26
507.794	12.49
508.141	12.71
508.489	12.92
508.837	13.15
509.184	13.38
509.531	13.6
509.879	13.85
510.226	14.13
510.574	14.36
510.921	14.6
511.268	14.87
511.616	15.14
511.963	15.39
512.31	15.64
512.657	15.94
513.004	16.21
513.351	16.49
513.698	16.81
514.045	17.12
514.392	17.44
514.739	17.74
515.086	18.05
515.432	18.37
515.779	18.67
516.126	18.96
516.473	19.24
516.819	19.53
517.166	19.8
517.512	20.02
517.859	20.25
518.205	20.51
518.552	20.74
518.898	20.96
519.245	21.19
519.591	21.44
519.937	21.63
520.283	21.87
520.629	22.13
520.976	22.38
521.322	22.61
521.668	22.87
522.014	23.15
522.36	23.45
522.706	23.73
523.052	24.05
523.398	24.4
523.743	24.76
524.089	25.05
524.435	25.35
524.781	25.71
525.126	25.98
525.472	26.21
525.817	26.46
526.163	26.68
526.509	26.89
526.854	27.07
527.199	27.26
527.545	27.43
527.89	27.62
528.235	27.78
528.581	27.95
528.926	28.12
529.271	28.29
529.616	28.46
529.961	28.61
530.306	28.77
530.651	28.94
530.996	29.11
531.341	29.34
531.686	29.51
532.031	29.67
532.376	29.89
532.721	30.13
533.065	30.34
533.41	30.56
533.755	30.78
534.099	31.01
534.444	31.24
534.788	31.48
535.133	31.65
535.477	31.91
535.822	32.15
536.166	32.39
536.51	32.63
536.855	32.89
537.199	33.18
537.543	33.5
537.887	33.79
538.231	34.06
538.576	34.34
538.92	34.67
539.264	34.97
539.608	35.2
539.951	35.41
540.295	35.6
540.639	35.79
540.983	35.98
541.327	36.22
541.671	36.41
542.014	36.61
542.358	36.83
542.701	36.99
543.045	37.2
543.389	37.42
543.732	37.64
544.075	37.83
544.419	38.03
544.762	38.23
545.105	38.4
545.449	38.66
545.792	38.89
546.135	39.11
546.478	39.32
546.821	39.6
547.165	39.87
547.508	40.14
547.851	40.4
548.194	40.68
548.536	40.88
548.879	41.18
549.222	41.43
549.565	41.71
549.908	42.03
550.25	42.25
550.593	42.48
550.936	42.74
551.278	43
551.621	43.27
551.963	43.49
552.306	43.79
552.648	44
552.991	44.24
553.333	44.48
553.675	44.74
554.017	44.94
554.36	45.12
554.702	45.37
555.044	45.6
555.386	45.8
555.728	46.07
556.07	46.34
556.412	46.57
556.754	46.73
557.096	46.93
557.438	47.15
557.78	47.43
558.121	47.68
558.463	47.89
558.805	48.1
559.147	48.33
559.488	48.49
559.83	48.69
560.171	48.9
560.513	49.06
560.854	49.2
561.196	49.35
561.537	49.52
561.878	49.72
562.22	49.89
562.561	50.15
562.902	50.29
563.243	50.41
563.584	50.56
563.925	50.72
564.266	50.83
564.607	50.97
564.948	51.1
565.289	51.21
565.63	51.36
565.971	51.52
566.312	51.67
566.653	51.82
566.993	52.04
567.334	52.11
567.675	52.21
568.015	52.4
568.356	52.53
568.696	52.7
569.037	52.75
569.377	52.9
569.718	52.94
570.058	53.04
570.398	53.12
570.739	53.19
571.079	53.29
571.419	53.42
571.759	53.56
572.099	53.63
572.439	53.74
572.779	53.85
573.119	53.93
573.459	53.98
573.799	54.01
574.139	54.09
574.479	54.25
574.819	54.35
575.158	54.42
575.498	54.52
575.838	54.6
576.177	54.73
576.517	54.85
576.856	54.96
577.196	55.09
577.535	55.2
577.875	55.34
578.214	55.49
578.553	55.52
578.893	55.57
579.232	55.68
579.571	55.82
579.91	55.94
580.25	56.08
580.589	56.21
580.928	56.36
581.267	56.39
581.606	56.4
581.945	56.41
582.283	56.46
582.622	56.59
582.961	56.61
583.3	56.69
583.639	56.75
583.977	56.83
584.316	56.89
584.654	56.93
584.993	57.04
585.332	57.08
585.67	57.19
586.008	57.27
586.347	57.28
586.685	57.32
587.024	57.29
587.362	57.35
587.7	57.39
588.038	57.47
588.376	57.52
588.715	57.63
589.053	57.85
589.391	57.88
589.729	57.89
590.067	57.97
590.404	58.01
590.742	58.04
591.08	58.07
591.418	58.05
591.756	58.16
592.093	58.14
592.431	58.24
592.769	58.34
593.106	58.33
593.444	58.42
593.781	58.52
594.119	58.65
594.456	58.6
594.793	58.58
595.131	58.52
595.468	58.54
595.805	58.53
596.143	58.48
596.48	58.58
596.817	58.58
597.154	58.63
597.491	58.66
597.828	58.69
598.165	58.67
598.502	58.76
598.839	58.74
599.176	58.79
599.512	58.74
599.849	58.72
600.186	58.77
600.523	58.76
600.859	58.7
601.196	58.73
601.532	58.84
601.869	58.97
602.205	59.09
602.542	59.07
602.878	59.11
603.215	59.11
603.551	59.07
603.887	59.13
604.223	59.17
604.56	59.25
604.896	59.27
605.232	59.32
605.568	59.38
605.904	59.38
606.24	59.38
606.576	59.47
606.912	59.53
607.248	59.61
607.583	59.68
607.919	59.72
608.255	59.71
608.591	59.69
608.926	59.73
609.262	59.72
609.597	59.84
609.933	59.89
610.268	60
610.604	60.04
610.939	60.03
611.275	59.98
611.61	59.99
611.945	60.03
612.281	60.11
612.616	60.13
612.951	60.26
613.286	60.28
613.621	60.28
613.956	60.26
614.291	60.28
614.626	60.34
614.961	60.42
615.296	60.36
615.631	60.45
615.966	60.47
616.3	60.44
616.635	60.44
616.97	60.47
617.304	60.38
617.639	60.46
617.973	60.5
618.308	60.54
618.642	60.51
618.977	60.52
619.311	60.53
619.646	60.49
619.98	60.5
620.314	60.54
620.648	60.6
620.983	60.6
621.317	60.66
621.651	60.73
621.985	60.8
622.319	60.94
622.653	60.87
622.987	60.86
623.321	60.97
623.655	60.95
623.988	60.95
624.322	61.03
624.656	61.06
624.99	61.07
625.323	61.16
625.657	61.13
625.99	61.18
626.324	61.14
626.657	61.21
626.991	61.13
627.324	61.17
627.658	61.18
627.991	61.19
628.324	61.15
628.657	61.05
628.991	60.97
629.324	61.04
629.657	61.05
629.99	61.1
630.323	61.07
630.656	61.1
630.989	61.06
631.322	61.02
631.655	60.98
631.987	61.05
632.32	61.08
632.653	61.15
632.986	61.19
633.318	61.28
633.651	61.29
633.984	61.4
634.316	61.43
634.649	61.47
634.981	61.57
635.313	61.6
635.646	61.68
635.978	61.84
636.31	61.71
636.643	61.77
636.975	61.86
637.307	61.83
637.639	61.86
637.971	61.94
638.303	62.02
638.635	62.01
638.967	61.84
639.299	61.75
639.631	61.68
639.963	61.66
640.295	61.64
640.626	61.58
640.958	61.57
641.29	61.57
641.621	61.55
641.953	61.49
642.285	61.52
642.616	61.51
642.948	61.45
643.279	61.39
643.61	61.42
643.942	61.3
644.273	61.29
644.604	61.34
644.936	61.32
645.267	61.23
645.598	61.22
645.929	61.3
646.26	61.27
646.591	61.43
646.922	61.39
647.253	61.4
647.584	61.37
647.915	61.29
648.245	61.21
648.576	61.06
648.907	61.1
649.238	61.06
649.568	61
649.899	60.94
650.229	61.04
650.56	60.96
650.89	60.94
651.221	61.15
651.551	61.05
651.882	61.1
652.212	61.25
652.542	61.31
652.872	61.41
653.203	61.42
653.533	61.36
653.863	61.34
654.193	61.29
654.523	61.37
654.853	61.48
655.183	61.58
655.513	61.6
655.843	61.62
656.172	61.79
656.502	61.89
656.832	61.97
657.162	62
657.491	62.12
657.821	62.11
658.15	62.19
658.48	62.2
658.809	62.08
659.139	61.85
659.468	61.83
659.798	61.8
660.127	61.88
660.456	62.06
660.785	62.13
661.115	62.07
661.444	62.05
661.773	61.92
662.102	61.94
662.431	62.14
662.76	62.15
663.089	61.99
663.418	61.95
663.747	62.02
664.076	62.05
664.404	61.94
664.733	62.05
665.062	61.82
665.39	61.83
665.719	61.96
666.048	62.19
666.376	62.17
666.705	62.12
667.033	62.12
667.362	62.03
667.69	62.06
668.018	62.15
668.347	62.39
668.675	62.72
669.003	62.68
669.331	62.62
669.659	62.57
669.987	62.65
670.315	62.59
670.643	62.46
670.971	62.39
671.299	62.38
671.627	62.32
671.955	62.36
672.283	62.36
672.61	62.35
672.938	62.31
673.266	62.44
673.593	62.46
673.921	62.37
674.249	62.38
674.576	62.49
674.904	62.51
675.231	62.29
675.558	61.99
675.886	62.02
676.213	62.1
676.54	62.16
676.867	62.11
677.195	62.18
677.522	62.25
677.849	62.39
678.176	62.46
678.503	62.5
678.83	62.45
679.157	62.5
679.484	62.43
679.81	62.54
680.137	62.43
680.464	62.46
680.791	62.34
681.117	62.35
681.444	62.31
681.771	62.26
682.097	62.21
682.424	62.28
682.75	62.31
683.077	62.21
683.403	62.17
683.729	62.27
684.056	62.31
684.382	62.33
684.708	62.31
685.034	62.35
685.36	62.29
685.686	62.3
686.012	62.28
686.339	62.3
686.664	62.36
686.99	62.32
687.316	62.3
687.642	62.62
687.968	62.57
688.294	62.6
688.619	62.71
688.945	62.76
689.271	62.62
689.596	62.47
689.922	62.48
690.247	62.45
690.573	62.42
690.898	62.47
691.224	62.39
691.549	62.13
691.874	62.08
692.2	62.25
692.525	62.43
692.85	62.58
693.175	62.6
693.5	62.55
693.825	62.54
694.15	62.56
694.475	62.47
694.8	62.45
695.125	62.31
695.45	62.18
695.775	62.38
696.099	62.52
696.424	62.59
696.749	62.53
697.073	62.54
697.398	62.35
697.723	62.31
698.047	62.2
698.372	62.4
698.696	62.28
699.02	62.38
699.345	62.25
699.669	62.18
699.993	62.18
700.318	62.08
700.642	62.23
700.966	62.25
701.29	62.19
701.614	62.24
701.938	62.23
702.262	62.26
702.586	62.15
702.91	62.1
703.234	62.15
703.557	62.16
703.881	62.23
704.205	62.41
704.529	62.29
704.852	62.45
705.176	62.41
705.499	62.69
705.823	62.44
706.146	62.5
706.47	62.57
706.793	62.67
707.117	62.84
707.44	62.75
707.763	62.71
708.086	62.72
708.409	62.72
708.733	62.84
709.056	62.83
709.379	62.79
709.702	63
710.025	63.02
710.348	63.11
710.671	63.03
710.993	63.02
711.316	63.11
711.639	63.03
711.962	63.1
712.284	62.98
712.607	63.07
712.93	63.06
713.252	63.04
713.575	62.97
713.897	62.69
714.22	62.82
714.542	62.85
714.864	62.93
715.187	62.86
715.509	62.68
715.831	62.68
716.153	62.66
716.475	62.68
716.798	62.66
717.12	62.68
717.442	62.77
717.764	62.67
718.085	62.61
718.407	62.66
718.729	62.49
719.051	62.35
719.373	62.34
719.695	62.36
720.016	62.38
720.338	62.42
720.659	62.54
720.981	62.38
721.302	62.39
721.624	62.21
721.945	61.98
722.267	62.09
722.588	61.89
722.909	61.78
723.231	61.45
723.552	61.33
723.873	61.21
724.194	61.44
724.515	61.48
724.836	61.4
725.157	61.91
725.478	62.01
725.799	62.15
726.12	62.2
726.441	62.24
726.762	62.08
727.083	62.01
727.403	62.34
727.724	62.43
728.045	62.4
728.365	62.43
728.686	62.71
729.006	62.92
729.327	63.31
729.647	63.51
729.967	63.49
730.288	63.67
730.608	63.81
730.928	63.48
731.249	63.55
731.569	63.62
731.889	63.4
732.209	63.38
732.529	63.5
732.849	63.49
733.169	63.49
733.489	63.64
733.809	63.7
734.129	63.54
734.448	63.5
734.768	63.56
735.088	63.63
735.408	63.52
735.727	63.57
736.047	63.5
736.366	63.29
736.686	63.5
737.005	63.32
737.325	63.18
737.644	63.14
737.963	62.96
738.283	63.09
738.602	62.71
738.921	62.7
739.24	62.61
739.56	62.44
739.879	62.36
740.198	62.32
740.517	62.41
740.836	62.42
741.155	62.36
741.473	62.41
741.792	62.29
742.111	62.38
742.43	61.86
742.748	61.95
743.067	62.04
743.386	61.97
743.704	62.08
744.023	62.24
744.341	62.35
744.66	62.62
744.978	62.42
745.297	62.54
745.615	62.52
745.933	62.77
746.252	62.81
746.57	63.13
746.888	63.17
747.206	62.89
747.524	62.8
747.842	62.65
748.16	62.72
748.478	63.07
748.796	63.02
749.114	63.32
749.432	63.06
749.749	63.35
750.067	63.43
750.385	63.34
750.703	63.31
751.02	63.67
751.338	63.65
751.655	63.69
751.973	63.77
752.29	63.83
752.608	63.42
752.925	63.46
753.242	63.19
753.56	62.97
753.877	63.22
754.194	63.35
754.511	63.35
754.828	63.39
755.145	63.26
755.462	63.17
755.779	63.25
756.096	63.34
756.413	63.21
756.73	63.23
757.047	63.29
757.364	63.32
757.68	62.96
757.997	62.95
758.314	62.9
758.63	62.82
758.947	62.82
759.264	62.87
759.58	63.01
759.896	63.17
760.213	63.36
760.529	63.31
760.846	63.45
761.162	63.36
761.478	62.95
761.794	62.72
762.11	62.34
762.426	62.25
762.743	62.49
763.059	62.33
763.375	62.19
763.69	62.33
764.006	62.21
764.322	62.29
764.638	62.52
764.954	62.47
765.27	62.55
765.585	62.79
765.901	62.9
766.216	62.98
766.532	62.65
766.848	62.65
767.163	62.62
767.478	62.3
767.794	62.55
768.109	62.77
768.424	63.14
768.74	63.85
769.055	63.95
769.37	63.67
769.685	63.87
770	64.2
770.315	63.98
770.63	64.16
770.945	64.12
771.26	63.92
771.575	63.96
771.89	64.08
772.205	63.57
772.52	63.57
772.834	63.47
773.149	63.98
773.464	64.33
773.778	64.47
774.093	64.41
774.407	64.56
774.722	64.66
775.036	64.2
775.351	63.86
775.665	64.01
775.979	64.08
776.293	64.14
776.608	63.77
776.922	63.59
777.236	63.25
777.55	63.49
777.864	63.06
778.178	63.56
778.492	63.4
778.806	63.6
779.12	63.8
779.434	63.91
779.747	63.44
780.061	63.08
780.375	63.04
780.689	62.97
781.002	62.68
781.316	62.77
781.629	63.37
781.943	63.13
782.256	63.02
782.57	63.11
782.883	62.96
783.196	63.29
783.51	63.73
783.823	63.53
784.136	63.31
784.449	63.41
784.762	63.18
785.075	62.64
785.388	62.51
785.701	61.69
786.014	61.35
786.327	61.64
786.64	61.67
786.953	62.13
787.266	62.84
787.578	62.75
787.891	62.39
788.204	62.3
788.516	62.67
788.829	62.46
789.141	62.47
789.454	62.11
789.766	62.08
790.079	61.89
790.391	62.5
790.703	62.88
791.016	63.47
791.328	63.34
791.64	63.48
791.952	63.46
792.264	63.68
792.576	63.95
792.888	64.15
793.2	63.76
793.512	63.1
793.824	62.51
794.136	63.11
794.448	63.15
794.76	62.63
795.071	62.68
795.383	62.8
795.695	62.3
796.006	62.73
796.318	62.92
796.629	63.03
796.941	62.78
797.252	62.8
797.564	62.54
797.875	62.51
798.186	62.81
798.497	62.93
798.809	63.27
799.12	62.8
799.431	61.97
799.742	62.24
800.053	62.67
800.364	63.06
800.675	63.32
800.986	63.35
801.297	63.58
801.608	63.31
801.918	63.51
802.229	64.34
802.54	64.83
802.851	64.33
803.161	64.09
803.472	63.76
803.782	63.07
804.093	63.45
804.403	64.08
804.714	64.28
805.024	64.36
805.334	63.96
805.645	64.23
805.955	65.21
806.265	65.26
806.575	65.02
806.885	65.2
807.195	63.91
807.505	63.95
807.815	64.21
808.125	64.52
808.435	64.57
808.745	64.38
809.055	63.31
809.365	63.57
809.674	63.58
809.984	64.19
810.294	64.7
810.603	64.32
810.913	63.99
811.222	64.08
811.532	64.33
811.841	64.74
812.151	64.87
812.46	64.94
812.769	64.29
813.079	64.84
813.388	64.6
813.697	65.83
814.006	65.36
814.315	65.62
814.624	66.33
814.933	65.89
815.242	65.61
815.551	65.69
815.86	65.11
816.169	65.53
816.478	65.56
816.786	65.65
817.095	65.13
817.404	64.83
817.712	64.83
818.021	64.65
818.33	64.82
818.638	64.7
818.947	64.51
819.255	64.58
819.563	64.32
819.872	63.91
820.18	63.52
820.488	63.9
820.796	63.86
821.105	63.76
821.413	63.69
821.721	63.41
822.029	63.63
822.337	63.8
822.645	63.76
822.953	63.74
823.26	63.68
823.568	63.54
823.876	63.76
824.184	63.67
824.491	63.6
824.799	63.77
825.107	63.79
825.414	63.84
825.722	64.02
826.029	63.83
826.337	64.02
826.644	64.02
826.951	64.01
827.259	63.74
827.566	63.62
827.873	63.58
828.18	64.14
828.488	64.09
828.795	64.17
829.102	64.21
829.409	64.32
829.716	64.12
830.023	64.54
830.329	63.78
830.636	63.73
830.943	63.66
831.25	63.42
831.557	63.34
831.863	63.41
832.17	63.13
832.476	63.52
832.783	63.5
833.089	63.64
833.396	63.35
833.702	63.55
834.009	63.7
834.315	63.85
834.621	62.97
834.928	62.86
835.234	62.59
835.54	62.52
835.846	62.72
836.152	62.72
836.458	62.69
836.764	63.38
837.07	63.78
837.376	64.38
837.682	63.83
837.988	63.47
838.293	62.65
838.599	62.37
838.905	61.47
839.211	61.53
839.516	60.82
839.822	61.77
840.127	62.08
840.433	61.91
840.738	62.04
841.044	62.47
841.349	62.77
841.654	63.19
841.959	63.99
842.265	63.48
842.57	64.38
842.875	63.87
843.18	63.86
843.485	63.54
843.79	63
844.095	62.96
844.4	64.28
844.705	64.92
845.01	63.48
845.315	65.03
845.619	63.86
845.924	65.03
846.229	63.98
846.533	64.16
846.838	63.12
847.142	62.38
847.447	62.32
847.751	62.22
848.056	61.61
848.36	60.92
848.664	60.68
848.969	59.43
849.273	58.65
849.577	57.55
849.881	57.79
850.185	57.17
850.489	59.46
850.794	57.92
851.097	58.29
851.401	60.03
851.705	59.63
852.009	59.75
852.313	61.3
852.617	58.77
852.92	59.26
853.224	59.28
853.528	61.35
853.831	61.62
854.135	61.5
854.438	63.04
854.742	61.94
855.045	63.44
855.349	63.14
855.652	64.42
855.955	65.11
856.259	62.52
856.562	64.26
856.865	64.08
857.168	65.07
857.471	66.61
857.774	70.51
858.077	69.9
858.38	71.3
858.683	70.38
858.986	71.57
859.289	69.76
859.592	71.3
859.894	71.72
860.197	70.56
860.5	72.16
860.802	70.72
861.105	71.37
861.407	71.54
861.71	72.76
862.012	72.39
862.315	73.27
862.617	75.53
862.919	73.74
863.222	71
863.524	70.66
863.826	68.05
864.128	66.85
864.43	69.23
864.732	66.93
865.034	67.42
865.336	71.64
865.638	72.23
865.94	68.3
866.242	65.51
866.544	64.56
866.846	61.84
867.147	60.8
867.449	59.39
867.751	56.68
868.052	58.27
868.354	59.92
868.655	60.67
868.957	61.88
869.258	60.12
869.56	63.25
869.861	62.77
870.162	61.73
870.463	58.69
870.765	56.89
871.066	56.96
871.367	54.66
871.668	51.04
871.969	48.92
872.27	52.46
872.571	56.17
872.872	59.75
873.173	57.98
873.473	58.22
873.774	60.06
874.075	60.63
874.376	58.57
874.676	57.52
874.977	57.31
875.277	56.84
875.578	59.25
875.878	57.22
876.179	57.45
876.479	59.17
876.78	60.59
877.08	60.69
877.38	61.86
877.68	62.54
877.981	64.43
878.281	67.53
878.581	65.94
