Data from BU26848_Reflection_00007.txt Node
Date: Mon Nov 18 16:25:39 EST 2019
User: vgr7
Spectrometer: USB2G7710
Scans to average: 3
Trigger mode: 4
Integration Time (sec): 2.000000E-2
Electric dark correction enabled: true
Boxcar width: 10
XAxis mode: Wavelengths
Number of Pixels in Spectrum: 2048
>>>>>Begin Spectral Data<<<<<
177.721	-104.58
178.105	-453.19
178.488	376.17
178.871	131.25
179.254	289.35
179.636	10.71
180.019	41.58
180.402	316.67
180.785	-411.63
181.168	113.3
181.55	538.36
181.933	75.6
182.316	83.9
182.698	47.79
183.081	48.21
183.463	26.58
183.846	59.5
184.228	109.6
184.611	153.22
184.993	180.62
185.376	-724.9
185.758	-599.09
186.14	-1564.12
186.522	1104.15
186.904	1297.86
187.287	659.37
187.669	-715.64
188.051	1062.41
188.433	-169.98
188.815	-43.26
189.197	-16.68
189.579	-15.53
189.961	-21.07
190.342	-26.52
190.724	-21.67
191.106	-18.55
191.488	-16.67
191.869	-8.05
192.251	-36.81
192.633	-48.47
193.014	-69.9
193.396	-145
193.777	-125.17
194.159	-123.06
194.54	-51.81
194.922	-46.43
195.303	-39.32
195.684	-65.44
196.065	-75.18
196.447	-82.65
196.828	-115.42
197.209	-182.12
197.59	-234.98
197.971	-419.21
198.352	-154.48
198.733	-309.53
199.114	-161.96
199.495	-113.59
199.876	-100.71
200.257	-83.17
200.638	-69.47
201.018	-57.2
201.399	-29.8
201.78	-44.19
202.16	-61.5
202.541	-106.47
202.922	-167.33
203.302	-129.16
203.683	-186.92
204.063	-219.95
204.444	-249.26
204.824	-187.04
205.204	-125.33
205.585	-113.32
205.965	-110.75
206.345	-189.26
206.725	-172.52
207.106	-317.01
207.486	-996.36
207.866	-331.8
208.246	-561.51
208.626	-459.34
209.006	-489.93
209.386	-1121.92
209.766	-934.32
210.145	-388.84
210.525	-221.87
210.905	-115.63
211.285	-158.31
211.664	-127.8
212.044	-79.2
212.424	-76.07
212.803	-102.51
213.183	-95.51
213.562	-77.23
213.942	-64.77
214.321	-49.25
214.701	-44.22
215.08	-42.43
215.459	-24.7
215.838	-33.28
216.218	-34.44
216.597	-21.52
216.976	-20.92
217.355	-20.76
217.734	-8.97
218.113	-14.04
218.492	-13.19
218.871	-16.04
219.25	-17.02
219.629	-12.17
220.008	-23.66
220.387	-32.56
220.766	-22.9
221.144	-34.9
221.523	-45.33
221.902	-52.27
222.28	-51.1
222.659	-35.17
223.037	-34.67
223.416	-37.78
223.794	-41.85
224.173	-49.38
224.551	-43.08
224.929	-38.61
225.308	-26.61
225.686	-27.56
226.064	-22.61
226.442	-21.64
226.821	-17.86
227.199	-13.56
227.577	-14.5
227.955	-11.96
228.333	-8.43
228.711	-5.46
229.089	2.35
229.467	3.4
229.845	6.51
230.222	6.32
230.6	4.62
230.978	4.19
231.356	4.87
231.733	6.36
232.111	9.06
232.488	8.25
232.866	6.24
233.243	5.15
233.621	3.61
233.998	4.6
234.376	3.63
234.753	3.15
235.13	2.28
235.508	4.93
235.885	4.29
236.262	3.11
236.639	2.2
237.016	0.43
237.393	-0.18
237.77	0.55
238.147	1.7
238.524	1.05
238.901	1.99
239.278	2.56
239.655	3.09
240.032	3.21
240.409	2.84
240.785	3.46
241.162	4.16
241.539	4.51
241.915	4.88
242.292	4.59
242.668	4.58
243.045	4.98
243.421	4.39
243.798	4.66
244.174	4.51
244.551	4.44
244.927	4.24
245.303	4.56
245.679	4.25
246.056	4.1
246.432	4.23
246.808	4.11
247.184	3.78
247.56	3.66
247.936	3.65
248.312	3.87
248.688	3.89
249.064	3.75
249.44	3.58
249.815	3.42
250.191	3.59
250.567	3.61
250.943	3.51
251.318	3.75
251.694	3.88
252.069	3.98
252.445	4.04
252.82	4.21
253.196	4.02
253.571	4.37
253.947	4.34
254.322	4.54
254.697	4.43
255.073	4.15
255.448	3.92
255.823	3.64
256.198	3.41
256.573	3.54
256.948	3.77
257.323	3.91
257.698	3.79
258.073	3.72
258.448	3.75
258.823	3.78
259.198	3.54
259.573	3.39
259.948	3.54
260.322	3.61
260.697	3.34
261.072	3.27
261.446	3.23
261.821	3.23
262.195	3.2
262.57	3.26
262.944	3.27
263.319	3.49
263.693	3.45
264.067	3.51
264.442	3.49
264.816	3.23
265.19	3.25
265.564	3.36
265.938	3.33
266.313	3.16
266.687	3.15
267.061	3.3
267.435	3.15
267.809	3.15
268.183	3.18
268.556	3.23
268.93	3.29
269.304	3.32
269.678	3.29
270.051	3.31
270.425	3.37
270.799	3.58
271.172	3.63
271.546	3.62
271.919	3.5
272.293	3.44
272.666	3.54
273.04	3.65
273.413	3.52
273.787	3.59
274.16	3.71
274.533	3.64
274.906	3.65
275.279	3.78
275.653	3.65
276.026	3.48
276.399	3.42
276.772	3.45
277.145	3.31
277.518	3.4
277.891	3.36
278.263	3.23
278.636	3.12
279.009	2.89
279.382	3.16
279.755	3.25
280.127	3.41
280.5	3.39
280.872	3.24
281.245	3.32
281.617	3.2
281.99	3.32
282.362	3.38
282.735	3.29
283.107	3.25
283.479	3.29
283.852	3.38
284.224	3.6
284.596	3.68
284.968	3.72
285.34	3.77
285.713	3.82
286.085	3.94
286.457	4.04
286.829	4.02
287.201	3.92
287.572	3.96
287.944	3.75
288.316	3.82
288.688	3.78
289.06	3.8
289.431	3.79
289.803	3.74
290.175	3.79
290.546	3.87
290.918	3.79
291.289	3.65
291.661	3.62
292.032	3.69
292.403	3.76
292.775	3.86
293.146	3.76
293.517	3.69
293.889	3.56
294.26	3.56
294.631	3.71
295.002	3.67
295.373	3.59
295.744	3.7
296.115	3.61
296.486	3.62
296.857	3.55
297.228	3.69
297.599	3.58
297.97	3.77
298.34	3.87
298.711	4
299.082	4.27
299.452	4.31
299.823	4.38
300.194	4.3
300.564	4.19
300.935	4.2
301.305	4.24
301.676	4.41
302.046	4.5
302.416	4.5
302.787	4.59
303.157	4.7
303.527	4.65
303.897	4.64
304.267	4.7
304.637	4.72
305.008	4.87
305.378	5.12
305.748	4.85
306.117	4.75
306.487	4.91
306.857	4.84
307.227	4.96
307.597	4.75
307.967	4.95
308.336	4.99
308.706	5.11
309.076	5.12
309.445	5.09
309.815	4.97
310.184	5
310.554	5.17
310.923	5.2
311.293	5.32
311.662	5.38
312.031	5.47
312.401	5.61
312.77	5.58
313.139	5.66
313.508	5.71
313.877	5.85
314.246	5.83
314.616	5.87
314.985	5.84
315.353	6.06
315.722	5.92
316.091	6.12
316.46	6.17
316.829	6.38
317.198	6.5
317.567	6.57
317.935	6.64
318.304	6.53
318.672	6.54
319.041	6.7
319.41	6.79
319.778	6.81
320.147	6.85
320.515	6.87
320.883	6.82
321.252	6.88
321.62	6.98
321.988	6.97
322.357	7.04
322.725	7.11
323.093	7.14
323.461	7.3
323.829	7.27
324.197	7.35
324.565	7.22
324.933	7.23
325.301	7.23
325.669	7.29
326.037	7.26
326.405	7.34
326.772	7.29
327.14	7.35
327.508	7.38
327.875	7.24
328.243	7.27
328.61	7.28
328.978	7.44
329.346	7.37
329.713	7.42
330.08	7.36
330.448	7.37
330.815	7.28
331.182	7.26
331.55	7.28
331.917	7.29
332.284	7.49
332.651	7.54
333.018	7.61
333.385	7.54
333.752	7.72
334.119	7.76
334.486	7.78
334.853	7.69
335.22	7.74
335.587	7.9
335.954	7.97
336.32	7.96
336.687	7.97
337.054	8.05
337.42	8.05
337.787	8.11
338.153	8.05
338.52	8.13
338.886	8.13
339.253	8.15
339.619	8.25
339.986	8.16
340.352	8.2
340.718	8.18
341.084	8.3
341.451	8.27
341.817	8.33
342.183	8.27
342.549	8.35
342.915	8.45
343.281	8.47
343.647	8.46
344.013	8.45
344.379	8.3
344.745	8.25
345.11	8.3
345.476	8.37
345.842	8.45
346.208	8.54
346.573	8.63
346.939	8.69
347.304	8.54
347.67	8.54
348.035	8.58
348.401	8.63
348.766	8.58
349.132	8.59
349.497	8.5
349.862	8.66
350.228	8.82
350.593	8.71
350.958	8.7
351.323	8.71
351.688	8.83
352.053	9.07
352.418	8.99
352.783	8.98
353.148	8.93
353.513	8.88
353.878	8.84
354.243	8.84
354.608	8.82
354.972	8.83
355.337	8.94
355.702	8.93
356.066	8.97
356.431	9
356.795	8.99
357.16	8.87
357.524	8.81
357.889	8.62
358.253	8.66
358.618	8.68
358.982	8.61
359.346	8.51
359.71	8.4
360.075	8.45
360.439	8.45
360.803	8.4
361.167	8.44
361.531	8.43
361.895	8.3
362.259	8.34
362.623	8.33
362.987	8.24
363.351	8.19
363.714	8.21
364.078	8.07
364.442	8.03
364.806	8.14
365.169	8.12
365.533	8.13
365.896	8.08
366.26	7.99
366.623	8
366.987	7.97
367.35	7.96
367.714	7.98
368.077	7.93
368.44	7.89
368.803	7.83
369.167	7.76
369.53	7.77
369.893	7.73
370.256	7.77
370.619	7.71
370.982	7.71
371.345	7.56
371.708	7.66
372.071	7.64
372.434	7.55
372.797	7.58
373.159	7.54
373.522	7.51
373.885	7.51
374.247	7.5
374.61	7.49
374.973	7.34
375.335	7.28
375.698	7.21
376.06	7.15
376.423	7.11
376.785	7.05
377.147	6.98
377.51	6.92
377.872	6.81
378.234	6.81
378.596	6.78
378.958	6.73
379.321	6.69
379.683	6.64
380.045	6.61
380.407	6.47
380.769	6.38
381.13	6.34
381.492	6.3
381.854	6.23
382.216	6.2
382.578	6.25
382.939	6.18
383.301	6.11
383.663	6.09
384.024	6.04
384.386	6.04
384.747	6.03
385.109	5.93
385.47	5.86
385.832	5.77
386.193	5.69
386.554	5.71
386.916	5.7
387.277	5.71
387.638	5.68
387.999	5.66
388.36	5.66
388.721	5.63
389.082	5.58
389.443	5.54
389.804	5.51
390.165	5.46
390.526	5.44
390.887	5.45
391.248	5.5
391.609	5.49
391.969	5.43
392.33	5.38
392.691	5.38
393.051	5.37
393.412	5.37
393.772	5.33
394.133	5.3
394.493	5.21
394.854	5.13
395.214	5.09
395.574	5.07
395.935	5.08
396.295	5.02
396.655	4.98
397.015	4.92
397.376	4.87
397.736	4.83
398.096	4.78
398.456	4.75
398.816	4.63
399.176	4.58
399.535	4.56
399.895	4.54
400.255	4.51
400.615	4.47
400.975	4.46
401.334	4.44
401.694	4.41
402.054	4.39
402.413	4.36
402.773	4.34
403.132	4.3
403.492	4.26
403.851	4.27
404.211	4.27
404.57	4.27
404.929	4.25
405.288	4.24
405.648	4.2
406.007	4.14
406.366	4.13
406.725	4.14
407.084	4.13
407.443	4.11
407.802	4.1
408.161	4.09
408.52	4.06
408.879	4.06
409.238	4.04
409.596	4.03
409.955	4.01
410.314	4
410.673	3.98
411.031	3.93
411.39	3.87
411.748	3.84
412.107	3.85
412.465	3.84
412.824	3.83
413.182	3.82
413.54	3.86
413.899	3.87
414.257	3.83
414.615	3.82
414.974	3.79
415.332	3.78
415.69	3.77
416.048	3.73
416.406	3.73
416.764	3.7
417.122	3.71
417.48	3.7
417.838	3.68
418.195	3.68
418.553	3.69
418.911	3.68
419.269	3.66
419.626	3.63
419.984	3.59
420.342	3.58
420.699	3.57
421.057	3.55
421.414	3.54
421.772	3.53
422.129	3.52
422.486	3.51
422.844	3.49
423.201	3.48
423.558	3.48
423.915	3.47
424.273	3.46
424.63	3.43
424.987	3.44
425.344	3.44
425.701	3.42
426.058	3.39
426.415	3.39
426.772	3.38
427.128	3.39
427.485	3.4
427.842	3.38
428.199	3.37
428.555	3.38
428.912	3.37
429.269	3.38
429.625	3.36
429.982	3.38
430.338	3.37
430.695	3.36
431.051	3.35
431.407	3.34
431.764	3.34
432.12	3.34
432.476	3.33
432.832	3.32
433.189	3.32
433.545	3.33
433.901	3.33
434.257	3.33
434.613	3.33
434.969	3.34
435.325	3.36
435.681	3.38
436.036	3.36
436.392	3.36
436.748	3.34
437.104	3.34
437.459	3.32
437.815	3.34
438.171	3.35
438.526	3.37
438.882	3.37
439.237	3.37
439.593	3.35
439.948	3.33
440.304	3.32
440.659	3.33
441.014	3.32
441.369	3.31
441.725	3.31
442.08	3.3
442.435	3.3
442.79	3.28
443.145	3.26
443.5	3.25
443.855	3.24
444.21	3.23
444.565	3.23
444.92	3.26
445.275	3.23
445.629	3.22
445.984	3.19
446.339	3.17
446.693	3.16
447.048	3.18
447.403	3.16
447.757	3.15
448.112	3.14
448.466	3.15
448.82	3.15
449.175	3.12
449.529	3.11
449.883	3.1
450.238	3.1
450.592	3.1
450.946	3.09
451.3	3.07
451.654	3.08
452.008	3.07
452.362	3.04
452.716	3.03
453.07	3.02
453.424	3.02
453.778	3.03
454.132	3.03
454.486	3.02
454.839	3.02
455.193	3.02
455.547	3.03
455.9	3.05
456.254	3.05
456.607	3.06
456.961	3.06
457.314	3.05
457.668	3.03
458.021	3.04
458.375	3.06
458.728	3.05
459.081	3.05
459.434	3.05
459.787	3.07
460.141	3.07
460.494	3.07
460.847	3.08
461.2	3.06
461.553	3.06
461.906	3.07
462.259	3.08
462.611	3.09
462.964	3.1
463.317	3.07
463.67	3.08
464.022	3.09
464.375	3.1
464.728	3.12
465.08	3.16
465.433	3.15
465.785	3.16
466.138	3.18
466.49	3.21
466.843	3.22
467.195	3.24
467.547	3.27
467.899	3.29
468.252	3.29
468.604	3.35
468.956	3.37
469.308	3.37
469.66	3.39
470.012	3.4
470.364	3.41
470.716	3.45
471.068	3.45
471.42	3.47
471.772	3.51
472.123	3.52
472.475	3.53
472.827	3.54
473.178	3.55
473.53	3.54
473.882	3.53
474.233	3.52
474.585	3.52
474.936	3.5
475.288	3.51
475.639	3.52
475.99	3.5
476.342	3.49
476.693	3.51
477.044	3.51
477.395	3.5
477.746	3.48
478.097	3.45
478.448	3.46
478.8	3.45
479.15	3.4
479.501	3.39
479.852	3.37
480.203	3.36
480.554	3.35
480.905	3.37
481.255	3.36
481.606	3.38
481.957	3.37
482.307	3.38
482.658	3.36
483.009	3.36
483.359	3.35
483.709	3.35
484.06	3.34
484.41	3.34
484.761	3.35
485.111	3.35
485.461	3.35
485.811	3.34
486.162	3.35
486.512	3.36
486.862	3.36
487.212	3.36
487.562	3.38
487.912	3.38
488.262	3.37
488.612	3.37
488.961	3.36
489.311	3.36
489.661	3.36
490.011	3.37
490.36	3.38
490.71	3.39
491.06	3.4
491.409	3.41
491.759	3.4
492.108	3.4
492.458	3.41
492.807	3.42
493.157	3.45
493.506	3.47
493.855	3.48
494.204	3.5
494.554	3.52
494.903	3.52
495.252	3.54
495.601	3.59
495.95	3.63
496.299	3.63
496.648	3.66
496.997	3.69
497.346	3.73
497.695	3.77
498.043	3.81
498.392	3.84
498.741	3.89
499.09	3.93
499.438	3.99
499.787	4.05
500.135	4.13
500.484	4.19
500.832	4.24
501.181	4.3
501.529	4.36
501.878	4.44
502.226	4.55
502.574	4.63
502.923	4.71
503.271	4.82
503.619	4.96
503.967	5.07
504.315	5.2
504.663	5.32
505.011	5.46
505.359	5.61
505.707	5.78
506.055	5.92
506.403	6.08
506.751	6.21
507.098	6.38
507.446	6.55
507.794	6.73
508.141	6.9
508.489	7.09
508.837	7.3
509.184	7.49
509.531	7.67
509.879	7.88
510.226	8.07
510.574	8.25
510.921	8.45
511.268	8.66
511.616	8.87
511.963	9.1
512.31	9.33
512.657	9.57
513.004	9.82
513.351	10.11
513.698	10.4
514.045	10.7
514.392	11
514.739	11.28
515.086	11.56
515.432	11.85
515.779	12.14
516.126	12.43
516.473	12.72
516.819	12.98
517.166	13.26
517.512	13.54
517.859	13.8
518.205	14.04
518.552	14.3
518.898	14.55
519.245	14.76
519.591	15
519.937	15.24
520.283	15.51
520.629	15.77
520.976	16.07
521.322	16.38
521.668	16.67
522.014	16.97
522.36	17.29
522.706	17.61
523.052	17.96
523.398	18.31
523.743	18.67
524.089	19.02
524.435	19.35
524.781	19.68
525.126	20.02
525.472	20.33
525.817	20.62
526.163	20.86
526.509	21.1
526.854	21.33
527.199	21.55
527.545	21.74
527.89	21.95
528.235	22.12
528.581	22.33
528.926	22.53
529.271	22.75
529.616	22.94
529.961	23.13
530.306	23.34
530.651	23.56
530.996	23.79
531.341	24.04
531.686	24.29
532.031	24.54
532.376	24.8
532.721	25.04
533.065	25.28
533.41	25.54
533.755	25.83
534.099	26.09
534.444	26.35
534.788	26.62
535.133	26.85
535.477	27.13
535.822	27.39
536.166	27.68
536.51	27.98
536.855	28.34
537.199	28.67
537.543	29.01
537.887	29.33
538.231	29.67
538.576	29.99
538.92	30.29
539.264	30.6
539.608	30.87
539.951	31.17
540.295	31.41
540.639	31.67
540.983	31.91
541.327	32.16
541.671	32.38
542.014	32.61
542.358	32.86
542.701	33.08
543.045	33.27
543.389	33.48
543.732	33.71
544.075	33.88
544.419	34.09
544.762	34.31
545.105	34.55
545.449	34.78
545.792	35.03
546.135	35.34
546.478	35.59
546.821	35.85
547.165	36.1
547.508	36.4
547.851	36.69
548.194	36.95
548.536	37.19
548.879	37.48
549.222	37.74
549.565	37.98
549.908	38.32
550.25	38.63
550.593	38.85
550.936	39.12
551.278	39.42
551.621	39.72
551.963	40.01
552.306	40.29
552.648	40.55
552.991	40.78
553.333	41.02
553.675	41.29
554.017	41.49
554.36	41.7
554.702	41.95
555.044	42.13
555.386	42.31
555.728	42.56
556.07	42.76
556.412	42.96
556.754	43.18
557.096	43.29
557.438	43.52
557.78	43.77
558.121	43.93
558.463	44.11
558.805	44.31
559.147	44.48
559.488	44.67
559.83	44.83
560.171	45.07
560.513	45.15
560.854	45.23
561.196	45.46
561.537	45.63
561.878	45.78
562.22	45.93
562.561	46.13
562.902	46.32
563.243	46.52
563.584	46.64
563.925	46.75
564.266	46.95
564.607	47.07
564.948	47.25
565.289	47.41
565.63	47.58
565.971	47.71
566.312	47.88
566.653	47.94
566.993	48.11
567.334	48.16
567.675	48.29
568.015	48.43
568.356	48.54
568.696	48.61
569.037	48.73
569.377	48.8
569.718	48.89
570.058	48.93
570.398	49.01
570.739	49.09
571.079	49.24
571.419	49.31
571.759	49.41
572.099	49.46
572.439	49.51
572.779	49.61
573.119	49.67
573.459	49.71
573.799	49.9
574.139	49.9
574.479	50.01
574.819	50.14
575.158	50.26
575.498	50.31
575.838	50.43
576.177	50.5
576.517	50.66
576.856	50.76
577.196	50.9
577.535	51.01
577.875	51.18
578.214	51.22
578.553	51.34
578.893	51.41
579.232	51.59
579.571	51.8
579.91	51.9
580.25	52.05
580.589	52.18
580.928	52.23
581.267	52.39
581.606	52.49
581.945	52.59
582.283	52.65
582.622	52.73
582.961	52.83
583.3	52.93
583.639	53.05
583.977	53.2
584.316	53.21
584.654	53.33
584.993	53.43
585.332	53.53
585.67	53.61
586.008	53.76
586.347	53.72
586.685	53.74
587.024	53.7
587.362	53.71
587.7	53.76
588.038	53.86
588.376	53.95
588.715	54
589.053	54.04
589.391	54.08
589.729	54.12
590.067	54.21
590.404	54.26
590.742	54.35
591.08	54.38
591.418	54.47
591.756	54.47
592.093	54.52
592.431	54.55
592.769	54.61
593.106	54.59
593.444	54.66
593.781	54.75
594.119	54.84
594.456	54.9
594.793	54.91
595.131	54.92
595.468	54.95
595.805	54.96
596.143	55
596.48	55.07
596.817	55.1
597.154	55.16
597.491	55.2
597.828	55.24
598.165	55.29
598.502	55.25
598.839	55.31
599.176	55.41
599.512	55.46
599.849	55.49
600.186	55.61
600.523	55.7
600.859	55.7
601.196	55.8
601.532	55.8
601.869	55.94
602.205	55.97
602.542	55.99
602.878	56.04
603.215	56.1
603.551	56.14
603.887	56.2
604.223	56.18
604.56	56.26
604.896	56.22
605.232	56.29
605.568	56.45
605.904	56.55
606.24	56.58
606.576	56.65
606.912	56.67
607.248	56.62
607.583	56.67
607.919	56.77
608.255	56.83
608.591	56.94
608.926	56.96
609.262	57.11
609.597	57.25
609.933	57.31
610.268	57.36
610.604	57.41
610.939	57.49
611.275	57.52
611.61	57.47
611.945	57.61
612.281	57.6
612.616	57.64
612.951	57.56
613.286	57.63
613.621	57.67
613.956	57.83
614.291	57.91
614.626	57.93
614.961	57.88
615.296	57.87
615.631	57.87
615.966	57.87
616.3	57.84
616.635	57.87
616.97	57.9
617.304	57.95
617.639	57.96
617.973	57.98
618.308	58.04
618.642	58.21
618.977	58.22
619.311	58.32
619.646	58.34
619.98	58.43
620.314	58.38
620.648	58.42
620.983	58.39
621.317	58.55
621.651	58.57
621.985	58.66
622.319	58.6
622.653	58.64
622.987	58.64
623.321	58.67
623.655	58.51
623.988	58.6
624.322	58.56
624.656	58.61
624.99	58.69
625.323	58.74
625.657	58.66
625.99	58.68
626.324	58.69
626.657	58.7
626.991	58.65
627.324	58.58
627.658	58.57
627.991	58.58
628.324	58.53
628.657	58.53
628.991	58.59
629.324	58.75
629.657	58.76
629.99	58.79
630.323	58.76
630.656	58.87
630.989	58.85
631.322	58.89
631.655	58.93
631.987	58.94
632.32	58.97
632.653	59.14
632.986	59.08
633.318	59.06
633.651	59.06
633.984	59.22
634.316	59.3
634.649	59.32
634.981	59.34
635.313	59.39
635.646	59.37
635.978	59.36
636.31	59.41
636.643	59.54
636.975	59.58
637.307	59.6
637.639	59.58
637.971	59.49
638.303	59.54
638.635	59.53
638.967	59.57
639.299	59.51
639.631	59.39
639.963	59.48
640.295	59.48
640.626	59.53
640.958	59.49
641.29	59.65
641.621	59.79
641.953	59.83
642.285	59.62
642.616	59.68
642.948	59.75
643.279	59.75
643.61	59.75
643.942	59.97
644.273	59.98
644.604	59.99
644.936	60.1
645.267	60.19
645.598	60.17
645.929	60.06
646.26	60.07
646.591	60.15
646.922	60.15
647.253	60.25
647.584	60.2
647.915	60.15
648.245	60.19
648.576	60.14
648.907	60.1
649.238	60.41
649.568	60.48
649.899	60.39
650.229	60.32
650.56	60.26
650.89	60.19
651.221	60.2
651.551	60.29
651.882	60.3
652.212	60.22
652.542	60.28
652.872	60.41
653.203	60.35
653.533	60.27
653.863	60.32
654.193	60.16
654.523	60.29
654.853	60.41
655.183	60.35
655.513	60.42
655.843	60.47
656.172	60.48
656.502	60.49
656.832	60.55
657.162	60.51
657.491	60.61
657.821	60.6
658.15	60.64
658.48	60.66
658.809	60.65
659.139	60.62
659.468	60.56
659.798	60.51
660.127	60.74
660.456	60.86
660.785	60.81
661.115	60.95
661.444	60.93
661.773	60.92
662.102	60.91
662.431	60.96
662.76	60.96
663.089	61.01
663.418	61.05
663.747	61.04
664.076	61.16
664.404	61.12
664.733	61.14
665.062	61.07
665.39	61.07
665.719	61.13
666.048	61.34
666.376	61.44
666.705	61.57
667.033	61.52
667.362	61.38
667.69	61.5
668.018	61.37
668.347	61.36
668.675	61.29
669.003	61.27
669.331	61.2
669.659	61.2
669.987	61.17
670.315	61.16
670.643	61.21
670.971	61.15
671.299	61.16
671.627	61.26
671.955	61.41
672.283	61.41
672.61	61.49
672.938	61.4
673.266	61.59
673.593	61.58
673.921	61.47
674.249	61.63
674.576	61.57
674.904	61.64
675.231	61.47
675.558	61.48
675.886	61.53
676.213	61.46
676.54	61.52
676.867	61.6
677.195	61.67
677.522	61.66
677.849	61.73
678.176	61.73
678.503	61.67
678.83	61.61
679.157	61.55
679.484	61.48
679.81	61.57
680.137	61.36
680.464	61.24
680.791	61.31
681.117	61.25
681.444	61.25
681.771	61.45
682.097	61.58
682.424	61.62
682.75	61.57
683.077	61.62
683.403	61.6
683.729	61.54
684.056	61.44
684.382	61.28
684.708	61.2
685.034	61.12
685.36	61.07
685.686	61.18
686.012	61.32
686.339	61.35
686.664	61.23
686.99	61.25
687.316	61.28
687.642	61.22
687.968	61.11
688.294	61.23
688.619	61.02
688.945	60.88
689.271	60.95
689.596	61.01
689.922	61.07
690.247	61.11
690.573	61.08
690.898	61.1
691.224	61.31
691.549	61.55
691.874	61.65
692.2	61.62
692.525	61.65
692.85	61.62
693.175	61.64
693.5	61.67
693.825	61.79
694.15	61.88
694.475	61.97
694.8	62.2
695.125	62.04
695.45	62
695.775	62.14
696.099	62.11
696.424	61.94
696.749	61.95
697.073	61.84
697.398	61.89
697.723	61.98
698.047	62.02
698.372	61.88
698.696	61.89
699.02	61.87
699.345	61.58
699.669	61.6
699.993	61.61
700.318	61.66
700.642	61.54
700.966	61.42
701.29	61.33
701.614	61.19
701.938	61.37
702.262	61.49
702.586	61.52
702.91	61.46
703.234	61.53
703.557	61.48
703.881	61.6
704.205	61.65
704.529	61.54
704.852	61.38
705.176	61.45
705.499	61.54
705.823	61.36
706.146	61.7
706.47	61.68
706.793	61.75
707.117	61.53
707.44	61.66
707.763	61.87
708.086	61.94
708.409	62.14
708.733	61.92
709.056	61.88
709.379	62.05
709.702	62.13
710.025	62.32
710.348	62.33
710.671	62.27
710.993	62.24
711.316	62.25
711.639	62.48
711.962	62.39
712.284	62.27
712.607	62.51
712.93	62.44
713.252	62.42
713.575	62.36
713.897	62.61
714.22	62.51
714.542	62.48
714.864	62.42
715.187	62.28
715.509	62.34
715.831	62.23
716.153	62.22
716.475	62.25
716.798	62.15
717.12	62.14
717.442	62.14
717.764	61.95
718.085	61.88
718.407	61.58
718.729	61.76
719.051	61.78
719.373	61.74
719.695	61.74
720.016	61.78
720.338	61.69
720.659	61.74
720.981	61.8
721.302	61.72
721.624	61.76
721.945	61.91
722.267	62.01
722.588	61.98
722.909	61.89
723.231	61.72
723.552	61.65
723.873	61.73
724.194	61.97
724.515	62.06
724.836	62.24
725.157	62.47
725.478	62.32
725.799	62.53
726.12	62.53
726.441	62.55
726.762	62.53
727.083	62.64
727.403	62.55
727.724	62.68
728.045	62.81
728.365	62.91
728.686	62.71
729.006	62.25
729.327	62.29
729.647	62.08
729.967	62.24
730.288	62.55
730.608	62.43
730.928	62.17
731.249	62.18
731.569	62.02
731.889	61.86
732.209	61.75
732.529	61.5
732.849	61.55
733.169	61.7
733.489	61.75
733.809	61.68
734.129	61.61
734.448	61.58
734.768	61.55
735.088	61.41
735.408	61.47
735.727	61.89
736.047	61.98
736.366	62.13
736.686	61.94
737.005	61.68
737.325	61.84
737.644	61.95
737.963	62.14
738.283	62.31
738.602	62.6
738.921	62.79
739.24	62.84
739.56	62.94
739.879	62.66
740.198	62.46
740.517	62.43
740.836	62.37
741.155	62.51
741.473	62.58
741.792	62.61
742.111	62.72
742.43	62.71
742.748	62.86
743.067	62.66
743.386	63.01
743.704	62.93
744.023	62.96
744.341	63.08
744.66	62.89
744.978	62.78
745.297	62.75
745.615	62.52
745.933	62.78
746.252	62.52
746.57	62.77
746.888	62.91
747.206	63.09
747.524	63.15
747.842	62.76
748.16	62.73
748.478	62.78
748.796	62.69
749.114	62.65
749.432	62.55
749.749	62.66
750.067	62.58
750.385	62.75
750.703	62.47
751.02	62.18
751.338	62.09
751.655	62.28
751.973	62.14
752.29	61.76
752.608	61.26
752.925	61.25
753.242	61.31
753.56	61.16
753.877	61.11
754.194	61.19
754.511	61.42
754.828	61.36
755.145	61.37
755.462	61.44
755.779	61.43
756.096	61.07
756.413	61.27
756.73	61.24
757.047	61.14
757.364	61.18
757.68	61.58
757.997	61.71
758.314	61.54
758.63	61.63
758.947	62.32
759.264	62.66
759.58	62.89
759.896	62.74
760.213	63.01
760.529	62.84
760.846	62.92
761.162	62.62
761.478	62.73
761.794	62.71
762.11	62.59
762.426	62.51
762.743	62.84
763.059	63.01
763.375	62.95
763.69	62.98
764.006	63.03
764.322	62.78
764.638	62.82
764.954	62.92
765.27	62.97
765.585	62.89
765.901	63.02
766.216	62.83
766.532	62.83
766.848	62.68
767.163	62.78
767.478	62.6
767.794	62.57
768.109	62.37
768.424	62.28
768.74	62.07
769.055	62.08
769.37	62.05
769.685	61.69
770	61.56
770.315	61.48
770.63	61.48
770.945	61.67
771.26	61.38
771.575	61.06
771.89	60.88
772.205	60.85
772.52	60.47
772.834	60.63
773.149	60.67
773.464	60.56
773.778	60.62
774.093	60.6
774.407	60.78
774.722	61.2
775.036	61.37
775.351	61.48
775.665	61.75
775.979	61.89
776.293	61.74
776.608	61.84
776.922	61.91
777.236	62
777.55	61.85
777.864	61.86
778.178	62.09
778.492	61.93
778.806	62.05
779.12	61.93
779.434	62.1
779.747	62.29
780.061	62.36
780.375	62.31
780.689	62.03
781.002	62.2
781.316	61.62
781.629	61.83
781.943	62.28
782.256	62.07
782.57	61.93
782.883	62.31
783.196	62.29
783.51	61.71
783.823	61.68
784.136	61.42
784.449	62.01
784.762	61.88
785.075	62.47
785.388	62.52
785.701	63.36
786.014	63.38
786.327	63.25
786.64	63.08
786.953	62.59
787.266	62.75
787.578	62.8
787.891	62.99
788.204	62.48
788.516	62.05
788.829	62.18
789.141	62.29
789.454	62.11
789.766	62.14
790.079	62.56
790.391	62.31
790.703	62.61
791.016	62.11
791.328	62.21
791.64	61.88
791.952	61.27
792.264	60.37
792.576	60.39
792.888	60.13
793.2	60.23
793.512	60.38
793.824	60.25
794.136	60.49
794.448	60.45
794.76	60.6
795.071	60.62
795.383	60.98
795.695	60.74
796.006	61
796.318	61.5
796.629	61.65
796.941	62.24
797.252	62.72
797.564	63.31
797.875	63.22
798.186	63.28
798.497	64.01
798.809	63.99
799.12	63.87
799.431	64.45
799.742	64.46
800.053	64.79
800.364	65.34
800.675	65.04
800.986	64.93
801.297	64.91
801.608	65.03
801.918	64.78
802.229	65
802.54	64.74
802.851	64.2
803.161	63.86
803.472	63.74
803.782	63.55
804.093	63.05
804.403	63.42
804.714	63.09
805.024	63.29
805.334	63.48
805.645	63.23
805.955	62.56
806.265	62.94
806.575	63.33
806.885	62.98
807.195	63.51
807.505	63.29
807.815	63.4
808.125	63.79
808.435	63.18
808.745	63.37
809.055	63.76
809.365	64.17
809.674	64.84
809.984	64.03
810.294	63.57
810.603	64.09
810.913	63.55
811.222	63.67
811.532	62.95
811.841	62.96
812.151	62.8
812.46	62.51
812.769	62.35
813.079	62.55
813.388	62.46
813.697	61.97
814.006	62.27
814.315	62.42
814.624	62.21
814.933	62.61
815.242	61.79
815.551	61.78
815.86	61.26
816.169	61.37
816.478	62.55
816.786	63.04
817.095	63.14
817.404	63.19
817.712	63.31
818.021	63.55
818.33	63.28
818.638	63.97
818.947	64.9
819.255	65.01
819.563	64.4
819.872	64.15
820.18	64.18
820.488	64.06
820.796	63.9
821.105	63.77
821.413	63.59
821.721	63.88
822.029	64.03
822.337	63.93
822.645	64.01
822.953	64.02
823.26	63.82
823.568	63.67
823.876	63.91
824.184	64.13
824.491	64.08
824.799	64.42
825.107	64.42
825.414	64.3
825.722	64.09
826.029	64.11
826.337	64.31
826.644	64.18
826.951	64.22
827.259	64.01
827.566	64.02
827.873	64.36
828.18	64.56
828.488	64.14
828.795	64.19
829.102	64.24
829.409	63.87
829.716	63.72
830.023	63.76
830.329	63.35
830.636	62.92
830.943	63.06
831.25	62.66
831.557	61.95
831.863	62.17
832.17	62.06
832.476	62.38
832.783	62.36
833.089	62.59
833.396	62.95
833.702	64.12
834.009	64.51
834.315	64.26
834.621	63.55
834.928	64.15
835.234	64.61
835.54	63.95
835.846	64.85
836.152	65.29
836.458	64.86
836.764	64.83
837.07	65.04
837.376	65.02
837.682	64.49
837.988	65.32
838.293	64.96
838.599	65.55
838.905	64.6
839.211	64.58
839.516	64.23
839.822	63.72
840.127	63.28
840.433	62.36
840.738	62.29
841.044	62.75
841.349	62.96
841.654	62.71
841.959	63.29
842.265	61.66
842.57	62.15
842.875	63.05
843.18	63.36
843.485	63.46
843.79	62.42
844.095	63.32
844.4	63.5
844.705	63.36
845.01	62.72
845.315	64.87
845.619	64.55
845.924	65.18
846.229	64.31
846.533	65.1
846.838	65.06
847.142	65.17
847.447	64.75
847.751	63.55
848.056	63.96
848.36	63.27
848.664	63.48
848.969	65
849.273	63.67
849.577	64.92
849.881	64.37
850.185	67.77
850.489	68.89
850.794	66.94
851.097	67.37
851.401	69.22
851.705	66.52
852.009	66.43
852.313	66.27
852.617	65.6
852.92	64.17
853.224	65.15
853.528	65.02
853.831	65.42
854.135	66.93
854.438	67.2
854.742	68.27
855.045	67.52
855.349	66.24
855.652	68.07
855.955	67.08
856.259	67.16
856.562	64.56
856.865	64.37
857.168	65.95
857.471	64.36
857.774	63.49
858.077	63.27
858.38	63.8
858.683	65.61
858.986	67.11
859.289	69.1
859.592	67.73
859.894	66.43
860.197	67.4
860.5	66.95
860.802	67.91
861.105	67.31
861.407	69.05
861.71	68.31
862.012	66.85
862.315	65.65
862.617	65.02
862.919	64.81
863.222	67.22
863.524	66.85
863.826	67.59
864.128	69.35
864.43	69.68
864.732	70.02
865.034	68.6
865.336	71.93
865.638	68.04
865.94	68.54
866.242	70.1
866.544	68.14
866.846	66.69
867.147	62.84
867.449	61.58
867.751	59.48
868.052	58.01
868.354	59.44
868.655	60.52
868.957	62.62
869.258	63.22
869.56	60.53
869.861	59.26
870.162	58.2
870.463	57.2
870.765	57.66
871.066	57.41
871.367	56.55
871.668	54.13
871.969	55.45
872.27	56.76
872.571	55.67
872.872	55.93
873.173	56.07
873.473	54.98
873.774	55.84
874.075	56.4
874.376	57.64
874.676	58.4
874.977	56.98
875.277	53.43
875.578	52.5
875.878	51.66
876.179	52.36
876.479	52.68
876.78	51.11
877.08	51.14
877.38	49.8
877.68	50.71
877.981	50.54
878.281	50.01
878.581	48.95
