Data from BU26842_Reflection_00008.txt Node
Date: Mon Nov 18 16:38:40 EST 2019
User: vgr7
Spectrometer: USB2G7710
Scans to average: 3
Trigger mode: 4
Integration Time (sec): 2.000000E-2
Electric dark correction enabled: true
Boxcar width: 10
XAxis mode: Wavelengths
Number of Pixels in Spectrum: 2048
>>>>>Begin Spectral Data<<<<<
177.721	-204.74
178.105	-143.79
178.488	-120.55
178.871	-77.79
179.254	-52.28
179.636	-251.5
180.019	-172.08
180.402	109.3
180.785	-98.22
181.168	-71.21
181.55	-66.38
181.933	580
182.316	-1182.76
182.698	-1387.6
183.081	-638.46
183.463	-131.55
183.846	-160.19
184.228	-124.43
184.611	-142.82
184.993	-130.9
185.376	-209.11
185.758	-417.03
186.14	928.45
186.522	833.12
186.904	1501.02
187.287	12513.79
187.669	-309.21
188.051	-302.08
188.433	-200.94
188.815	-201.17
189.197	-270.92
189.579	-220.17
189.961	-234.06
190.342	-216.78
190.724	-184.42
191.106	-187.69
191.488	-172.25
191.869	-128.85
192.251	-137.61
192.633	-154.57
193.014	-147.85
193.396	-178.4
193.777	-141.42
194.159	-115.51
194.54	-104.43
194.922	-92.93
195.303	-90.44
195.684	-89.1
196.065	-76.5
196.447	-84.12
196.828	-80.92
197.209	-79.71
197.59	-86.42
197.971	-72.87
198.352	-60.91
198.733	-103.22
199.114	-79.7
199.495	-92.65
199.876	-102.59
200.257	-86.27
200.638	-76.84
201.018	-94.82
201.399	-83.25
201.78	-82.07
202.16	-125.36
202.541	-165.15
202.922	-252.58
203.302	-338.14
203.683	-346.03
204.063	-373.81
204.444	-318.05
204.824	-228.19
205.204	-167.88
205.585	-129.55
205.965	-108.08
206.345	-145.57
206.725	-148.53
207.106	-215.5
207.486	-268.04
207.866	-328.29
208.246	-284.39
208.626	-234.06
209.006	-167.12
209.386	-210.92
209.766	-236.02
210.145	-173.81
210.525	-118.56
210.905	-79.95
211.285	-58.13
211.664	-59.19
212.044	-63.13
212.424	-79.1
212.803	-84.84
213.183	-92.79
213.562	-92.37
213.942	-91.53
214.321	-80.06
214.701	-61.04
215.08	-65.8
215.459	-61.03
215.838	-64.45
216.218	-71.46
216.597	-46.84
216.976	-47.41
217.355	-40.44
217.734	-36.34
218.113	-32.48
218.492	-44.58
218.871	-58.31
219.25	-53.11
219.629	-61.56
220.008	-69.52
220.387	-67.59
220.766	-73.82
221.144	-71.9
221.523	-87.75
221.902	-90.26
222.28	-103.33
222.659	-96.37
223.037	-86.18
223.416	-94.32
223.794	-72.23
224.173	-65.96
224.551	-67.04
224.929	-59.86
225.308	-50.91
225.686	-45.69
226.064	-40.15
226.442	-38.32
226.821	-31.05
227.199	-32.34
227.577	-31.29
227.955	-25.77
228.333	-20.02
228.711	-14.27
229.089	-13.73
229.467	-12.67
229.845	-12.93
230.222	-9.08
230.6	-9.85
230.978	-8.43
231.356	-5.4
231.733	-7.85
232.111	-4.89
232.488	-2.6
232.866	-4.35
233.243	-4.55
233.621	-4.74
233.998	-4.1
234.376	-2.49
234.753	-3.38
235.13	-2.72
235.508	-0.67
235.885	-0.86
236.262	-2.63
236.639	-4.56
237.016	-3.04
237.393	-0.29
237.77	-0.65
238.147	-0.28
238.524	-0.44
238.901	0.66
239.278	1.15
239.655	2.23
240.032	1.53
240.409	0.62
240.785	1.46
241.162	1.59
241.539	1.86
241.915	2.25
242.292	1.77
242.668	2.35
243.045	2.83
243.421	2.8
243.798	2.86
244.174	2.99
244.551	3
244.927	2.82
245.303	3.03
245.679	3.2
246.056	3.23
246.432	3.41
246.808	3.41
247.184	3.09
247.56	2.97
247.936	2.92
248.312	3.13
248.688	2.92
249.064	3.1
249.44	3.02
249.815	2.88
250.191	3.08
250.567	3.06
250.943	2.88
251.318	2.92
251.694	2.83
252.069	2.66
252.445	2.93
252.82	2.83
253.196	2.21
253.571	1.92
253.947	1.98
254.322	2.11
254.697	1.7
255.073	1.86
255.448	1.76
255.823	1.87
256.198	1.75
256.573	2.01
256.948	2.1
257.323	2.37
257.698	2.45
258.073	2.43
258.448	2.48
258.823	2.55
259.198	2.49
259.573	2.54
259.948	2.68
260.322	2.59
260.697	2.45
261.072	2.61
261.446	2.69
261.821	2.58
262.195	2.57
262.57	2.62
262.944	2.42
263.319	2.52
263.693	2.43
264.067	2.54
264.442	2.59
264.816	2.45
265.19	2.15
265.564	2.21
265.938	2.14
266.313	1.99
266.687	1.85
267.061	1.79
267.435	1.9
267.809	1.81
268.183	1.72
268.556	1.95
268.93	1.96
269.304	1.99
269.678	2.11
270.051	2.08
270.425	2.03
270.799	2.18
271.172	2.15
271.546	2.16
271.919	2.15
272.293	2.17
272.666	2.21
273.04	2.42
273.413	2.27
273.787	2.13
274.16	2.07
274.533	2.2
274.906	2.24
275.279	2.05
275.653	2.1
276.026	2.08
276.399	2.12
276.772	2.11
277.145	2.02
277.518	2.09
277.891	2.06
278.263	2.09
278.636	2.13
279.009	2.26
279.382	2.46
279.755	2.46
280.127	2.49
280.5	2.43
280.872	2.41
281.245	2.44
281.617	2.81
281.99	3.02
282.362	2.97
282.735	2.8
283.107	2.89
283.479	2.93
283.852	3.11
284.224	2.94
284.596	3.01
284.968	3.15
285.34	3.19
285.713	3.12
286.085	3.26
286.457	3.36
286.829	3.31
287.201	3.36
287.572	3.24
287.944	3.08
288.316	3.17
288.688	3.23
289.06	3.3
289.431	3.25
289.803	3.19
290.175	3.29
290.546	3.49
290.918	3.44
291.289	3.48
291.661	3.47
292.032	3.67
292.403	3.67
292.775	3.64
293.146	3.55
293.517	3.68
293.889	3.69
294.26	3.63
294.631	3.69
295.002	3.58
295.373	3.7
295.744	3.83
296.115	3.87
296.486	3.76
296.857	3.73
297.228	3.75
297.599	3.7
297.97	3.66
298.34	3.68
298.711	3.92
299.082	3.86
299.452	3.85
299.823	3.97
300.194	4.01
300.564	3.99
300.935	4.04
301.305	4.11
301.676	4.05
302.046	4.28
302.416	4.36
302.787	4.49
303.157	4.59
303.527	4.68
303.897	4.66
304.267	4.84
304.637	4.98
305.008	4.97
305.378	5.22
305.748	5.34
306.117	5.3
306.487	5.18
306.857	5.35
307.227	5.42
307.597	5.35
307.967	5.36
308.336	5.55
308.706	5.57
309.076	5.56
309.445	5.58
309.815	5.41
310.184	5.32
310.554	5.42
310.923	5.42
311.293	5.37
311.662	5.47
312.031	5.37
312.401	5.22
312.77	5.23
313.139	5.21
313.508	5.3
313.877	5.29
314.246	5.29
314.616	5.27
314.985	5.25
315.353	5.18
315.722	5.3
316.091	5.21
316.46	5.2
316.829	5.23
317.198	5.31
317.567	5.36
317.935	5.47
318.304	5.34
318.672	5.37
319.041	5.48
319.41	5.41
319.778	5.45
320.147	5.64
320.515	5.66
320.883	5.6
321.252	5.74
321.62	6.07
321.988	6.21
322.357	6.18
322.725	6.16
323.093	6.32
323.461	6.31
323.829	6.51
324.197	6.49
324.565	6.53
324.933	6.67
325.301	6.79
325.669	6.82
326.037	6.88
326.405	6.91
326.772	6.93
327.14	7.12
327.508	7.3
327.875	7.32
328.243	7.5
328.61	7.59
328.978	7.46
329.346	7.33
329.713	7.28
330.08	7.4
330.448	7.37
330.815	7.24
331.182	7.25
331.55	7.21
331.917	7.31
332.284	7.5
332.651	7.44
333.018	7.36
333.385	7.44
333.752	7.51
334.119	7.63
334.486	7.55
334.853	7.53
335.22	7.55
335.587	7.58
335.954	7.45
336.32	7.52
336.687	7.54
337.054	7.63
337.42	7.68
337.787	7.67
338.153	7.88
338.52	8.14
338.886	8.03
339.253	7.98
339.619	8.02
339.986	7.89
340.352	7.85
340.718	7.93
341.084	7.93
341.451	7.94
341.817	7.9
342.183	7.97
342.549	7.89
342.915	7.85
343.281	7.9
343.647	7.95
344.013	7.88
344.379	7.83
344.745	7.89
345.11	7.83
345.476	7.9
345.842	7.87
346.208	7.83
346.573	7.94
346.939	8.08
347.304	8.06
347.67	8.04
348.035	8.11
348.401	8.08
348.766	8.09
349.132	8.04
349.497	7.99
349.862	8
350.228	8.06
350.593	7.95
350.958	7.88
351.323	7.98
351.688	8.03
352.053	8.12
352.418	8.12
352.783	8.25
353.148	8.2
353.513	8.16
353.878	8.08
354.243	8.08
354.608	8
354.972	8.1
355.337	8.1
355.702	8.19
356.066	8.27
356.431	8.16
356.795	8.23
357.16	8.26
357.524	8.22
357.889	8.16
358.253	8.22
358.618	8.27
358.982	8.17
359.346	8.09
359.71	8
360.075	7.97
360.439	7.84
360.803	7.79
361.167	7.71
361.531	7.71
361.895	7.69
362.259	7.65
362.623	7.65
362.987	7.65
363.351	7.64
363.714	7.58
364.078	7.59
364.442	7.43
364.806	7.34
365.169	7.33
365.533	7.31
365.896	7.3
366.26	7.22
366.623	7.14
366.987	7.16
367.35	7.19
367.714	7.1
368.077	7.13
368.44	7.13
368.803	7.21
369.167	7.16
369.53	7.01
369.893	7.06
370.256	6.98
370.619	6.85
370.982	6.73
371.345	6.59
371.708	6.53
372.071	6.57
372.434	6.57
372.797	6.51
373.159	6.44
373.522	6.39
373.885	6.41
374.247	6.4
374.61	6.3
374.973	6.21
375.335	6.19
375.698	6.11
376.06	6.03
376.423	5.92
376.785	5.87
377.147	5.89
377.51	5.74
377.872	5.71
378.234	5.77
378.596	5.7
378.958	5.71
379.321	5.7
379.683	5.65
380.045	5.58
380.407	5.53
380.769	5.52
381.13	5.49
381.492	5.39
381.854	5.35
382.216	5.32
382.578	5.28
382.939	5.22
383.301	5.18
383.663	5.13
384.024	5.14
384.386	5.12
384.747	5.09
385.109	5.11
385.47	5.05
385.832	4.98
386.193	4.95
386.554	4.92
386.916	4.87
387.277	4.85
387.638	4.88
387.999	4.84
388.36	4.79
388.721	4.74
389.082	4.72
389.443	4.69
389.804	4.66
390.165	4.62
390.526	4.59
390.887	4.59
391.248	4.62
391.609	4.55
391.969	4.56
392.33	4.5
392.691	4.45
393.051	4.4
393.412	4.37
393.772	4.31
394.133	4.27
394.493	4.25
394.854	4.22
395.214	4.18
395.574	4.17
395.935	4.15
396.295	4.18
396.655	4.12
397.015	4.13
397.376	4.15
397.736	4.11
398.096	4.09
398.456	4.08
398.816	4.05
399.176	3.98
399.535	3.96
399.895	3.94
400.255	3.93
400.615	3.91
400.975	3.89
401.334	3.87
401.694	3.88
402.054	3.82
402.413	3.78
402.773	3.73
403.132	3.7
403.492	3.68
403.851	3.6
404.211	3.61
404.57	3.59
404.929	3.58
405.288	3.57
405.648	3.56
406.007	3.53
406.366	3.51
406.725	3.54
407.084	3.52
407.443	3.54
407.802	3.53
408.161	3.53
408.52	3.53
408.879	3.53
409.238	3.52
409.596	3.56
409.955	3.56
410.314	3.58
410.673	3.59
411.031	3.59
411.39	3.57
411.748	3.54
412.107	3.53
412.465	3.47
412.824	3.48
413.182	3.46
413.54	3.43
413.899	3.44
414.257	3.41
414.615	3.38
414.974	3.35
415.332	3.32
415.69	3.3
416.048	3.26
416.406	3.26
416.764	3.24
417.122	3.24
417.48	3.23
417.838	3.22
418.195	3.2
418.553	3.19
418.911	3.19
419.269	3.2
419.626	3.17
419.984	3.18
420.342	3.17
420.699	3.16
421.057	3.17
421.414	3.14
421.772	3.14
422.129	3.13
422.486	3.13
422.844	3.14
423.201	3.12
423.558	3.12
423.915	3.11
424.273	3.12
424.63	3.1
424.987	3.11
425.344	3.07
425.701	3.08
426.058	3.06
426.415	3.07
426.772	3.05
427.128	3.03
427.485	3.02
427.842	3
428.199	3
428.555	2.98
428.912	3.02
429.269	3.03
429.625	3.04
429.982	3.03
430.338	3.01
430.695	3.03
431.051	3.02
431.407	3.01
431.764	2.99
432.12	2.97
432.476	2.97
432.832	2.99
433.189	2.99
433.545	2.99
433.901	2.99
434.257	3
434.613	3.03
434.969	3.04
435.325	3.06
435.681	3.07
436.036	3.08
436.392	3.05
436.748	3.06
437.104	3.03
437.459	3.03
437.815	3.04
438.171	3.05
438.526	3.07
438.882	3.09
439.237	3.1
439.593	3.12
439.948	3.11
440.304	3.11
440.659	3.11
441.014	3.11
441.369	3.12
441.725	3.12
442.08	3.1
442.435	3.09
442.79	3.07
443.145	3.07
443.5	3.06
443.855	3.05
444.21	3.03
444.565	3.06
444.92	3.08
445.275	3.06
445.629	3.05
445.984	3.05
446.339	3.03
446.693	3.02
447.048	3.01
447.403	3
447.757	2.99
448.112	2.99
448.466	2.98
448.82	2.97
449.175	2.96
449.529	2.95
449.883	2.95
450.238	2.93
450.592	2.92
450.946	2.89
451.3	2.9
451.654	2.89
452.008	2.87
452.362	2.83
452.716	2.84
453.07	2.82
453.424	2.82
453.778	2.81
454.132	2.81
454.486	2.8
454.839	2.79
455.193	2.77
455.547	2.77
455.9	2.77
456.254	2.77
456.607	2.79
456.961	2.84
457.314	2.83
457.668	2.87
458.021	2.89
458.375	2.89
458.728	2.88
459.081	2.88
459.434	2.87
459.787	2.89
460.141	2.88
460.494	2.88
460.847	2.89
461.2	2.9
461.553	2.92
461.906	2.94
462.259	2.95
462.611	2.98
462.964	2.98
463.317	2.99
463.67	2.99
464.022	2.98
464.375	2.96
464.728	2.97
465.08	2.95
465.433	2.92
465.785	2.94
466.138	2.95
466.49	2.96
466.843	2.98
467.195	3.01
467.547	3.02
467.899	3.03
468.252	3.02
468.604	3.03
468.956	3.01
469.308	3.01
469.66	3.02
470.012	3.01
470.364	3.04
470.716	3.03
471.068	3.05
471.42	3.07
471.772	3.09
472.123	3.1
472.475	3.13
472.827	3.14
473.178	3.15
473.53	3.14
473.882	3.16
474.233	3.18
474.585	3.14
474.936	3.15
475.288	3.14
475.639	3.14
475.99	3.12
476.342	3.13
476.693	3.12
477.044	3.12
477.395	3.11
477.746	3.09
478.097	3.07
478.448	3.06
478.8	3.05
479.15	3.03
479.501	3.02
479.852	3.01
480.203	3.02
480.554	3.02
480.905	3.02
481.255	3.01
481.606	3.01
481.957	3.02
482.307	3.02
482.658	3.03
483.009	3.04
483.359	3.05
483.709	3.05
484.06	3.07
484.41	3.07
484.761	3.08
485.111	3.08
485.461	3.09
485.811	3.1
486.162	3.1
486.512	3.11
486.862	3.12
487.212	3.12
487.562	3.13
487.912	3.13
488.262	3.14
488.612	3.14
488.961	3.15
489.311	3.16
489.661	3.17
490.011	3.17
490.36	3.17
490.71	3.17
491.06	3.18
491.409	3.18
491.759	3.18
492.108	3.19
492.458	3.2
492.807	3.2
493.157	3.2
493.506	3.21
493.855	3.23
494.204	3.22
494.554	3.24
494.903	3.25
495.252	3.27
495.601	3.31
495.95	3.35
496.299	3.36
496.648	3.38
496.997	3.41
497.346	3.47
497.695	3.53
498.043	3.57
498.392	3.59
498.741	3.64
499.09	3.67
499.438	3.7
499.787	3.74
500.135	3.79
500.484	3.86
500.832	3.91
501.181	3.96
501.529	4.02
501.878	4.08
502.226	4.14
502.574	4.19
502.923	4.25
503.271	4.3
503.619	4.39
503.967	4.44
504.315	4.49
504.663	4.58
505.011	4.64
505.359	4.73
505.707	4.82
506.055	4.89
506.403	4.99
506.751	5.09
507.098	5.2
507.446	5.32
507.794	5.41
508.141	5.51
508.489	5.61
508.837	5.75
509.184	5.87
509.531	5.99
509.879	6.14
510.226	6.26
510.574	6.39
510.921	6.5
511.268	6.63
511.616	6.74
511.963	6.85
512.31	6.97
512.657	7.11
513.004	7.26
513.351	7.44
513.698	7.59
514.045	7.72
514.392	7.89
514.739	8.06
515.086	8.22
515.432	8.37
515.779	8.5
516.126	8.64
516.473	8.78
516.819	8.89
517.166	9
517.512	9.12
517.859	9.24
518.205	9.37
518.552	9.5
518.898	9.64
519.245	9.75
519.591	9.88
519.937	10
520.283	10.09
520.629	10.22
520.976	10.37
521.322	10.51
521.668	10.61
522.014	10.75
522.36	10.93
522.706	11.1
523.052	11.3
523.398	11.47
523.743	11.67
524.089	11.88
524.435	12.07
524.781	12.23
525.126	12.4
525.472	12.53
525.817	12.68
526.163	12.82
526.509	12.95
526.854	13.05
527.199	13.15
527.545	13.27
527.89	13.37
528.235	13.48
528.581	13.62
528.926	13.74
529.271	13.86
529.616	13.97
529.961	14.08
530.306	14.21
530.651	14.34
530.996	14.48
531.341	14.62
531.686	14.78
532.031	14.93
532.376	15.09
532.721	15.27
533.065	15.43
533.41	15.6
533.755	15.77
534.099	15.98
534.444	16.19
534.788	16.38
535.133	16.61
535.477	16.8
535.822	17.01
536.166	17.23
536.51	17.46
536.855	17.72
537.199	17.97
537.543	18.26
537.887	18.54
538.231	18.83
538.576	19.11
538.92	19.36
539.264	19.64
539.608	19.9
539.951	20.12
540.295	20.34
540.639	20.59
540.983	20.84
541.327	21.08
541.671	21.29
542.014	21.53
542.358	21.74
542.701	21.95
543.045	22.15
543.389	22.41
543.732	22.64
544.075	22.89
544.419	23.11
544.762	23.35
545.105	23.6
545.449	23.84
545.792	24.09
546.135	24.35
546.478	24.63
546.821	24.95
547.165	25.26
547.508	25.61
547.851	25.89
548.194	26.13
548.536	26.42
548.879	26.72
549.222	27.01
549.565	27.28
549.908	27.62
550.25	27.93
550.593	28.19
550.936	28.47
551.278	28.71
551.621	29.04
551.963	29.3
552.306	29.57
552.648	29.87
552.991	30.2
553.333	30.45
553.675	30.7
554.017	30.97
554.36	31.22
554.702	31.45
555.044	31.73
555.386	32.03
555.728	32.27
556.07	32.51
556.412	32.76
556.754	33.03
557.096	33.32
557.438	33.57
557.78	33.82
558.121	34.09
558.463	34.34
558.805	34.58
559.147	34.81
559.488	35.02
559.83	35.25
560.171	35.39
560.513	35.68
560.854	35.85
561.196	36.03
561.537	36.26
561.878	36.47
562.22	36.65
562.561	36.82
562.902	36.97
563.243	37.19
563.584	37.33
563.925	37.51
564.266	37.65
564.607	37.83
564.948	37.98
565.289	38.18
565.63	38.34
565.971	38.45
566.312	38.62
566.653	38.86
566.993	38.98
567.334	39.19
567.675	39.32
568.015	39.53
568.356	39.73
568.696	39.88
569.037	40
569.377	40.16
569.718	40.3
570.058	40.45
570.398	40.57
570.739	40.75
571.079	40.84
571.419	40.96
571.759	41.06
572.099	41.14
572.439	41.22
572.779	41.36
573.119	41.45
573.459	41.58
573.799	41.67
574.139	41.78
574.479	41.84
574.819	41.92
575.158	41.99
575.498	42.02
575.838	42.14
576.177	42.22
576.517	42.31
576.856	42.41
577.196	42.58
577.535	42.65
577.875	42.76
578.214	42.92
578.553	43.06
578.893	43.17
579.232	43.3
579.571	43.42
579.91	43.47
580.25	43.59
580.589	43.65
580.928	43.66
581.267	43.76
581.606	43.88
581.945	43.97
582.283	44.09
582.622	44.12
582.961	44.16
583.3	44.3
583.639	44.48
583.977	44.63
584.316	44.66
584.654	44.75
584.993	44.77
585.332	44.83
585.67	44.84
586.008	44.89
586.347	45.01
586.685	45.07
587.024	45.14
587.362	45.21
587.7	45.29
588.038	45.38
588.376	45.44
588.715	45.49
589.053	45.6
589.391	45.62
589.729	45.69
590.067	45.79
590.404	45.85
590.742	45.84
591.08	45.77
591.418	45.81
591.756	45.86
592.093	45.95
592.431	46.02
592.769	46.08
593.106	46.12
593.444	46.09
593.781	46.17
594.119	46.25
594.456	46.34
594.793	46.4
595.131	46.41
595.468	46.45
595.805	46.44
596.143	46.48
596.48	46.55
596.817	46.59
597.154	46.57
597.491	46.56
597.828	46.55
598.165	46.72
598.502	46.81
598.839	46.83
599.176	46.85
599.512	46.79
599.849	46.87
600.186	46.94
600.523	47.06
600.859	47.05
601.196	47.09
601.532	47.13
601.869	47.12
602.205	47.13
602.542	47.12
602.878	47.17
603.215	47.2
603.551	47.28
603.887	47.36
604.223	47.38
604.56	47.48
604.896	47.55
605.232	47.56
605.568	47.55
605.904	47.62
606.24	47.69
606.576	47.78
606.912	47.81
607.248	47.83
607.583	47.85
607.919	47.96
608.255	47.91
608.591	47.94
608.926	48
609.262	48.12
609.597	48.16
609.933	48.24
610.268	48.26
610.604	48.28
610.939	48.28
611.275	48.35
611.61	48.29
611.945	48.35
612.281	48.34
612.616	48.31
612.951	48.37
613.286	48.36
613.621	48.36
613.956	48.31
614.291	48.29
614.626	48.3
614.961	48.25
615.296	48.36
615.631	48.32
615.966	48.31
616.3	48.22
616.635	48.26
616.97	48.26
617.304	48.24
617.639	48.16
617.973	48.24
618.308	48.26
618.642	48.24
618.977	48.2
619.311	48.2
619.646	48.3
619.98	48.25
620.314	48.28
620.648	48.31
620.983	48.37
621.317	48.52
621.651	48.54
621.985	48.58
622.319	48.58
622.653	48.62
622.987	48.71
623.321	48.87
623.655	48.92
623.988	48.96
624.322	48.99
624.656	49.09
624.99	49.05
625.323	49.13
625.657	49.22
625.99	49.23
626.324	49.26
626.657	49.22
626.991	49.29
627.324	49.24
627.658	49.27
627.991	49.29
628.324	49.27
628.657	49.28
628.991	49.27
629.324	49.33
629.657	49.34
629.99	49.36
630.323	49.33
630.656	49.32
630.989	49.32
631.322	49.34
631.655	49.37
631.987	49.36
632.32	49.26
632.653	49.22
632.986	49.29
633.318	49.28
633.651	49.33
633.984	49.29
634.316	49.3
634.649	49.37
634.981	49.28
635.313	49.25
635.646	49.27
635.978	49.33
636.31	49.37
636.643	49.31
636.975	49.31
637.307	49.26
637.639	49.25
637.971	49.21
638.303	49.28
638.635	49.27
638.967	49.33
639.299	49.38
639.631	49.38
639.963	49.32
640.295	49.33
640.626	49.3
640.958	49.34
641.29	49.4
641.621	49.35
641.953	49.47
642.285	49.48
642.616	49.51
642.948	49.47
643.279	49.32
643.61	49.42
643.942	49.41
644.273	49.4
644.604	49.45
644.936	49.56
645.267	49.52
645.598	49.39
645.929	49.28
646.26	49.31
646.591	49.37
646.922	49.38
647.253	49.38
647.584	49.39
647.915	49.42
648.245	49.46
648.576	49.5
648.907	49.53
649.238	49.55
649.568	49.47
649.899	49.51
650.229	49.57
650.56	49.57
650.89	49.54
651.221	49.57
651.551	49.51
651.882	49.44
652.212	49.46
652.542	49.54
652.872	49.64
653.203	49.58
653.533	49.59
653.863	49.62
654.193	49.59
654.523	49.63
654.853	49.64
655.183	49.55
655.513	49.55
655.843	49.55
656.172	49.65
656.502	49.83
656.832	49.87
657.162	49.98
657.491	50
657.821	50.16
658.15	50.16
658.48	50.1
658.809	50.06
659.139	50.13
659.468	50.11
659.798	50.04
660.127	50.14
660.456	50.03
660.785	50.01
661.115	50.06
661.444	50.03
661.773	49.97
662.102	50.06
662.431	49.97
662.76	49.95
663.089	49.77
663.418	49.62
663.747	49.46
664.076	49.32
664.404	49.23
664.733	49.13
665.062	49.24
665.39	49.34
665.719	49.43
666.048	49.37
666.376	49.44
666.705	49.5
667.033	49.45
667.362	49.52
667.69	49.57
668.018	49.65
668.347	49.77
668.675	49.84
669.003	49.81
669.331	49.9
669.659	49.8
669.987	49.88
670.315	49.86
670.643	50
670.971	49.99
671.299	50.2
671.627	50.14
671.955	50.08
672.283	50.21
672.61	50.3
672.938	50.24
673.266	50.22
673.593	50.23
673.921	50.2
674.249	50.35
674.576	50.25
674.904	50.08
675.231	49.94
675.558	49.99
675.886	50.01
676.213	49.9
676.54	50.13
676.867	50.04
677.195	50.01
677.522	50
677.849	50.13
678.176	50.01
678.503	49.99
678.83	49.99
679.157	49.84
679.484	49.7
679.81	49.73
680.137	49.75
680.464	49.76
680.791	49.78
681.117	49.63
681.444	49.69
681.771	49.76
682.097	49.74
682.424	49.71
682.75	49.69
683.077	49.89
683.403	49.75
683.729	49.87
684.056	50.05
684.382	50.07
684.708	50.16
685.034	50.12
685.36	50.06
685.686	50.05
686.012	50.06
686.339	50.14
686.664	50.19
686.99	50.13
687.316	50.04
687.642	50.04
687.968	50.03
688.294	50.07
688.619	50.17
688.945	50.26
689.271	50.26
689.596	50.18
689.922	50.14
690.247	50.12
690.573	50.13
690.898	49.93
691.224	49.82
691.549	49.68
691.874	49.67
692.2	49.73
692.525	49.81
692.85	49.86
693.175	49.7
693.5	49.75
693.825	49.84
694.15	49.97
694.475	49.99
694.8	50.08
695.125	50.08
695.45	50.05
695.775	50.09
696.099	50.02
696.424	50.23
696.749	50.22
697.073	50.31
697.398	50.31
697.723	50.3
698.047	50.44
698.372	50.4
698.696	50.54
699.02	50.6
699.345	50.5
699.669	50.5
699.993	50.48
700.318	50.41
700.642	50.44
700.966	50.42
701.29	50.42
701.614	50.45
701.938	50.49
702.262	50.37
702.586	50.35
702.91	50.35
703.234	50.2
703.557	50.17
703.881	49.98
704.205	49.94
704.529	50.02
704.852	49.92
705.176	50.01
705.499	49.74
705.823	49.54
706.146	49.6
706.47	49.6
706.793	49.56
707.117	49.6
707.44	49.57
707.763	49.54
708.086	49.47
708.409	49.59
708.733	49.53
709.056	49.68
709.379	49.7
709.702	49.79
710.025	49.76
710.348	49.57
710.671	49.64
710.993	49.45
711.316	49.62
711.639	49.6
711.962	49.65
712.284	49.81
712.607	49.91
712.93	49.72
713.252	49.68
713.575	49.89
713.897	49.6
714.22	49.6
714.542	49.71
714.864	49.69
715.187	49.64
715.509	49.69
715.831	49.57
716.153	49.68
716.475	49.71
716.798	49.66
717.12	49.82
717.442	49.89
717.764	50
718.085	49.71
718.407	49.76
718.729	49.65
719.051	49.47
719.373	49.37
719.695	49.62
720.016	49.65
720.338	49.55
720.659	49.85
720.981	49.67
721.302	49.41
721.624	49.59
721.945	49.55
722.267	49.41
722.588	49.26
722.909	49.17
723.231	49.23
723.552	49.46
723.873	49.53
724.194	49.45
724.515	49.78
724.836	49.94
725.157	49.88
725.478	49.7
725.799	49.99
726.12	49.99
726.441	50.03
726.762	50.04
727.083	50.09
727.403	49.97
727.724	50.18
728.045	50.32
728.365	50.08
728.686	50
729.006	50.18
729.327	50.42
729.647	50.52
729.967	50.3
730.288	50.14
730.608	50.1
730.928	50.09
731.249	49.76
731.569	49.95
731.889	50.16
732.209	50.31
732.529	50.04
732.849	50.12
733.169	50.05
733.489	50.02
733.809	49.98
734.129	49.91
734.448	49.77
734.768	49.77
735.088	50.02
735.408	50.12
735.727	49.91
736.047	49.9
736.366	49.71
736.686	49.71
737.005	50.05
737.325	50.07
737.644	49.98
737.963	49.99
738.283	49.6
738.602	49.22
738.921	49.15
739.24	49.41
739.56	49.48
739.879	49.41
740.198	49.33
740.517	49.51
740.836	49.71
741.155	49.78
741.473	49.87
741.792	49.77
742.111	49.5
742.43	49.7
742.748	49.98
743.067	50.22
743.386	50.11
743.704	49.81
744.023	49.84
744.341	49.79
744.66	50.05
744.978	50.19
745.297	50.43
745.615	50.73
745.933	50.38
746.252	50.27
746.57	50.14
746.888	50.15
747.206	49.95
747.524	49.8
747.842	49.91
748.16	49.82
748.478	49.61
748.796	49.79
749.114	49.98
749.432	49.35
749.749	49.01
750.067	49.16
750.385	48.98
750.703	49.11
751.02	49.48
751.338	49.4
751.655	49.61
751.973	49.43
752.29	48.93
752.608	49.21
752.925	49.12
753.242	49.32
753.56	49.16
753.877	49.55
754.194	49.84
754.511	49.59
754.828	49.55
755.145	49.77
755.462	49.36
755.779	49.3
756.096	49.29
756.413	49.5
756.73	49.79
757.047	49.76
757.364	49.56
757.68	49.48
757.997	49.17
758.314	49.4
758.63	49.26
758.947	49.67
759.264	49.55
759.58	49.8
759.896	49.81
760.213	50.02
760.529	49.64
760.846	49.43
761.162	49.61
761.478	49.51
761.794	49.28
762.11	49.61
762.426	49.55
762.743	49.63
763.059	49.43
763.375	49.26
763.69	49.25
764.006	49.33
764.322	49.22
764.638	49.31
764.954	48.99
765.27	49.21
765.585	48.86
765.901	48.92
766.216	48.78
766.532	48.6
766.848	48.65
767.163	48.74
767.478	48.91
767.794	48.87
768.109	48.99
768.424	49.13
768.74	49.31
769.055	49.36
769.37	49.56
769.685	49.81
770	49.88
770.315	50.02
770.63	49.88
770.945	49.87
771.26	50.02
771.575	50.01
771.89	49.78
772.205	50.42
772.52	50.5
772.834	50.75
773.149	50.82
773.464	50.81
773.778	50.7
774.093	50.34
774.407	50.26
774.722	50.24
775.036	50.45
775.351	49.86
775.665	49.18
775.979	49
776.293	49.02
776.608	48.75
776.922	48.53
777.236	48.39
777.55	48.24
777.864	48.09
778.178	48.45
778.492	48.97
778.806	48.7
779.12	48.57
779.434	48.39
779.747	48.3
780.061	48.26
780.375	48.15
780.689	48.34
781.002	48.41
781.316	48.35
781.629	48.62
781.943	49.03
782.256	49.45
782.57	49.84
782.883	49.41
783.196	49.6
783.51	49.97
783.823	50.5
784.136	50.62
784.449	50.61
784.762	50.09
785.075	49.73
785.388	49.82
785.701	49.71
786.014	49.6
786.327	50.05
786.64	50.26
786.953	50.49
787.266	50.4
787.578	50.15
787.891	49.95
788.204	49.5
788.516	49.36
788.829	49.39
789.141	49.13
789.454	49.6
789.766	49.71
790.079	49.75
790.391	49.27
790.703	48.97
791.016	48.89
791.328	48.71
791.64	48.87
791.952	48.7
792.264	48.79
792.576	48.06
792.888	47.94
793.2	47.96
793.512	48.33
793.824	48.33
794.136	48.26
794.448	48.51
794.76	48.15
795.071	48.3
795.383	47.9
795.695	47.91
796.006	47.8
796.318	47.67
796.629	46.9
796.941	47.16
797.252	47.22
797.564	47.12
797.875	47.44
798.186	47.05
798.497	47.59
798.809	47.33
799.12	47.9
799.431	47.6
799.742	47.44
800.053	47.16
800.364	47.3
800.675	47.28
800.986	47.55
801.297	47.54
801.608	47.42
801.918	47.79
802.229	47.87
802.54	48.06
802.851	48.58
803.161	49.11
803.472	48.71
803.782	49.4
804.093	49.86
804.403	49.45
804.714	49.31
805.024	48.56
805.334	48.83
805.645	49.22
805.955	49.16
806.265	48.99
806.575	48.73
806.885	48.7
807.195	49.22
807.505	48.99
807.815	49.29
808.125	49.93
808.435	50.07
808.745	50.01
809.055	50.14
809.365	48.99
809.674	48.95
809.984	49.09
810.294	49.23
810.603	49.44
810.913	49.83
811.222	50.45
811.532	50.19
811.841	49.8
812.151	49.88
812.46	49.63
812.769	49.35
813.079	48.61
813.388	48.43
813.697	48.33
814.006	47.62
814.315	47.83
814.624	46.31
814.933	46.13
815.242	45.38
815.551	44.55
815.86	45.39
816.169	45.59
816.478	45.39
816.786	45.44
817.095	45.25
817.404	45.95
817.712	45.53
818.021	46.42
818.33	46.8
818.638	46.99
818.947	47.64
819.255	48.37
819.563	49.15
819.872	49.48
820.18	49.42
820.488	49.57
820.796	49.6
821.105	49.95
821.413	50.08
821.721	50.25
822.029	50.17
822.337	50.33
822.645	50.54
822.953	50.65
823.26	50.76
823.568	50.69
823.876	50.47
824.184	50.43
824.491	50.28
824.799	50.37
825.107	50.23
825.414	50.35
825.722	50.35
826.029	50.42
826.337	50.21
826.644	50.32
826.951	50.4
827.259	50.51
827.566	50.35
827.873	50.14
828.18	50.4
828.488	50.68
828.795	50.39
829.102	50.07
829.409	49.81
829.716	49.16
830.023	49.09
830.329	49.05
830.636	49.54
830.943	49.83
831.25	49.37
831.557	49.7
831.863	49.07
832.17	48.75
832.476	49
832.783	49.14
833.089	48.84
833.396	48.88
833.702	48.97
834.009	49.39
834.315	49.85
834.621	49.45
834.928	49.55
835.234	49.37
835.54	49.15
835.846	49.52
836.152	49.82
836.458	50.09
836.764	50.3
837.07	49.8
837.376	49.22
837.682	50.03
837.988	49.71
838.293	49.99
838.599	50.31
838.905	49.26
839.211	49.43
839.516	49.97
839.822	50.04
840.127	50.03
840.433	49.21
840.738	48.09
841.044	47.47
841.349	46.51
841.654	47.04
841.959	47.23
842.265	47.02
842.57	46.92
842.875	46.62
843.18	46.23
843.485	45.62
843.79	46.37
844.095	45.39
844.4	44.84
844.705	44.77
845.01	45.08
845.315	43.86
845.619	44.32
845.924	42.46
846.229	41.75
846.533	40.08
846.838	39.68
847.142	40.89
847.447	39.69
847.751	39.14
848.056	38.24
848.36	38.77
848.664	37.75
848.969	37.74
849.273	37.14
849.577	37.38
849.881	38.35
850.185	37.75
850.489	37.87
850.794	38.65
851.097	38.7
851.401	38.43
851.705	40.55
852.009	39.6
852.313	40.01
852.617	39.75
852.92	40.75
853.224	40.58
853.528	42.01
853.831	43.95
854.135	44.7
854.438	43.27
854.742	41.21
855.045	41.62
855.349	41.27
855.652	41.25
855.955	41.31
856.259	41.71
856.562	41.78
856.865	41.37
857.168	39.51
857.471	39.29
857.774	38.97
858.077	39.55
858.38	39.04
858.683	38.45
858.986	40.76
859.289	41.68
859.592	42.15
859.894	39.22
860.197	37.7
860.5	37.09
860.802	38.92
861.105	41.98
861.407	42.69
861.71	45.05
862.012	45.38
862.315	45.09
862.617	42.47
862.919	42.61
863.222	41.21
863.524	42.73
863.826	42.42
864.128	40.86
864.43	41.9
864.732	43.11
865.034	44.84
865.336	44.45
865.638	39.81
865.94	39.82
866.242	41.04
866.544	42.11
866.846	43.72
867.147	44.88
867.449	43.19
867.751	42.94
868.052	41.4
868.354	42.31
868.655	42.96
868.957	44.54
869.258	44.14
869.56	45.81
869.861	46.73
870.162	45.77
870.463	45.42
870.765	43.74
871.066	41.08
871.367	39.78
871.668	35.78
871.969	36.66
872.27	36.27
872.571	36.02
872.872	38.05
873.173	38.08
873.473	37.2
873.774	34.82
874.075	33.78
874.376	35.38
874.676	34.65
874.977	32.44
875.277	33.95
875.578	34.41
875.878	34.15
876.179	34.21
876.479	35.21
876.78	35.39
877.08	34.71
877.38	35.69
877.68	37.05
877.981	39.37
878.281	42.5
878.581	44.72
