Data from BU26845_Reflection_00011.txt Node
Date: Mon Nov 18 16:28:11 EST 2019
User: vgr7
Spectrometer: USB2G7710
Scans to average: 3
Trigger mode: 4
Integration Time (sec): 2.000000E-2
Electric dark correction enabled: true
Boxcar width: 10
XAxis mode: Wavelengths
Number of Pixels in Spectrum: 2048
>>>>>Begin Spectral Data<<<<<
177.721	-79.03
178.105	-23.84
178.488	-46.79
178.871	-98.88
179.254	-35.86
179.636	197.35
180.019	-95.15
180.402	56
180.785	638.46
181.168	-681.25
181.55	-691.04
181.933	155.15
182.316	232.02
182.698	280.99
183.081	215.21
183.463	391.74
183.846	273.86
184.228	219.02
184.611	173.86
184.993	606.43
185.376	476.98
185.758	-397.69
186.14	-343.61
186.522	-182.34
186.904	-108.25
187.287	-106.22
187.669	-63
188.051	-50.24
188.433	-45.31
188.815	-29.33
189.197	-31.79
189.579	-24.18
189.961	-3.98
190.342	-7.2
190.724	-4.96
191.106	-11.34
191.488	-11.43
191.869	-0.95
192.251	3.58
192.633	2.01
193.014	6.3
193.396	6.36
193.777	9.87
194.159	11.77
194.54	2.91
194.922	10.62
195.303	1.15
195.684	4.26
196.065	0.81
196.447	8.79
196.828	6.35
197.209	11.55
197.59	9.09
197.971	-2.56
198.352	12.9
198.733	14.74
199.114	17.88
199.495	31.49
199.876	22.34
200.257	14.15
200.638	8.86
201.018	3.07
201.399	8.21
201.78	5.3
202.16	10.43
202.541	3.21
202.922	-6.08
203.302	-4.45
203.683	-28.45
204.063	-43.33
204.444	-50.76
204.824	-61.61
205.204	-51.38
205.585	-42.76
205.965	-35.37
206.345	-42.45
206.725	-44.87
207.106	-44.95
207.486	-60.42
207.866	-52.72
208.246	-58.73
208.626	-41.81
209.006	-26.67
209.386	-48.14
209.766	-40.93
210.145	-24.91
210.525	-10.49
210.905	-0.33
211.285	3.63
211.664	9.64
212.044	5.56
212.424	3.02
212.803	7.95
213.183	1.34
213.562	6.64
213.942	11.95
214.321	20.09
214.701	28.95
215.08	18.64
215.459	27.17
215.838	31.69
216.218	34.02
216.597	50.23
216.976	40.64
217.355	53.01
217.734	52.94
218.113	45.08
218.492	41.28
218.871	38.33
219.25	39.07
219.629	33.42
220.008	39.13
220.387	32.51
220.766	29.83
221.144	20.16
221.523	9.45
221.902	5.63
222.28	-11.15
222.659	-16.79
223.037	-7.22
223.416	-12.14
223.794	-23.67
224.173	-21.69
224.551	-31.55
224.929	-29.98
225.308	-26.91
225.686	-22.94
226.064	-20.8
226.442	-18.66
226.821	-19.29
227.199	-22.24
227.577	-18.89
227.955	-22.15
228.333	-16.65
228.711	-11.58
229.089	-3.34
229.467	-4.31
229.845	-4.32
230.222	-3.76
230.6	-4.33
230.978	-4.36
231.356	-3.88
231.733	-2.12
232.111	-1.07
232.488	0.41
232.866	1.67
233.243	1.19
233.621	-0.75
233.998	-0.55
234.376	-2.11
234.753	-2.43
235.13	-0.67
235.508	1.99
235.885	2.66
236.262	1.2
236.639	0.55
237.016	0.1
237.393	2.23
237.77	2.27
238.147	3.02
238.524	3.7
238.901	3.22
239.278	3.06
239.655	3.69
240.032	3.72
240.409	3.09
240.785	3.17
241.162	3.51
241.539	4.01
241.915	3.69
242.292	3.58
242.668	3.5
243.045	3.11
243.421	2.92
243.798	2.91
244.174	3.03
244.551	2.97
244.927	2.61
245.303	2.55
245.679	2.68
246.056	2.69
246.432	2.54
246.808	2.73
247.184	2.79
247.56	2.64
247.936	2.49
248.312	2.66
248.688	2.66
249.064	2.52
249.44	2.58
249.815	2.44
250.191	2.67
250.567	2.79
250.943	2.89
251.318	2.85
251.694	3.13
252.069	3.14
252.445	3.14
252.82	3.19
253.196	2.82
253.571	2.66
253.947	2.66
254.322	2.82
254.697	2.65
255.073	2.22
255.448	2.03
255.823	2.19
256.198	2.29
256.573	2.25
256.948	2.33
257.323	2.26
257.698	2.35
258.073	2.21
258.448	2.28
258.823	2.17
259.198	2.13
259.573	2
259.948	1.97
260.322	1.92
260.697	2
261.072	1.98
261.446	2.08
261.821	2.03
262.195	2
262.57	1.94
262.944	1.97
263.319	2.16
263.693	1.99
264.067	1.88
264.442	1.94
264.816	1.82
265.19	1.68
265.564	1.7
265.938	1.71
266.313	1.56
266.687	1.66
267.061	1.55
267.435	1.73
267.809	1.73
268.183	1.77
268.556	1.54
268.93	1.74
269.304	1.51
269.678	1.68
270.051	1.66
270.425	1.73
270.799	1.8
271.172	1.54
271.546	1.59
271.919	1.52
272.293	1.56
272.666	1.67
273.04	1.74
273.413	1.73
273.787	1.81
274.16	1.74
274.533	1.7
274.906	1.84
275.279	1.87
275.653	1.83
276.026	1.79
276.399	1.85
276.772	1.92
277.145	2.02
277.518	1.99
277.891	1.96
278.263	1.91
278.636	1.97
279.009	2
279.382	2.04
279.755	2.06
280.127	2.11
280.5	2.22
280.872	2.17
281.245	2.08
281.617	2.24
281.99	2.39
282.362	2.61
282.735	2.51
283.107	2.3
283.479	2.25
283.852	2.37
284.224	2.5
284.596	2.41
284.968	2.54
285.34	2.54
285.713	2.63
286.085	2.71
286.457	2.75
286.829	2.84
287.201	2.96
287.572	2.93
287.944	2.9
288.316	2.8
288.688	2.9
289.06	2.94
289.431	2.79
289.803	2.82
290.175	2.63
290.546	2.78
290.918	2.93
291.289	3.04
291.661	3.05
292.032	3
292.403	3.08
292.775	3.09
293.146	3.07
293.517	2.98
293.889	2.92
294.26	3.01
294.631	3.03
295.002	2.95
295.373	3
295.744	3
296.115	3.1
296.486	2.97
296.857	3.04
297.228	3.04
297.599	3.09
297.97	3.32
298.34	3.25
298.711	3.22
299.082	3.28
299.452	3.38
299.823	3.54
300.194	3.58
300.564	3.49
300.935	3.46
301.305	3.54
301.676	3.68
302.046	3.78
302.416	3.93
302.787	3.98
303.157	4.11
303.527	4.15
303.897	4.11
304.267	4.38
304.637	4.46
305.008	4.61
305.378	4.7
305.748	4.63
306.117	4.7
306.487	4.73
306.857	4.63
307.227	4.51
307.597	4.47
307.967	4.55
308.336	4.54
308.706	4.63
309.076	4.75
309.445	4.9
309.815	4.73
310.184	4.67
310.554	4.73
310.923	4.78
311.293	4.75
311.662	4.72
312.031	4.69
312.401	4.72
312.77	4.74
313.139	4.8
313.508	4.83
313.877	4.89
314.246	4.95
314.616	5.02
314.985	5.05
315.353	4.94
315.722	5.03
316.091	5.13
316.46	5.08
316.829	5.01
317.198	4.96
317.567	4.98
317.935	4.95
318.304	5.07
318.672	5.02
319.041	5.2
319.41	5.39
319.778	5.5
320.147	5.51
320.515	5.52
320.883	5.44
321.252	5.46
321.62	5.53
321.988	5.64
322.357	5.81
322.725	5.99
323.093	6.28
323.461	6.2
323.829	6.3
324.197	6.52
324.565	6.76
324.933	6.83
325.301	6.89
325.669	7
326.037	6.95
326.405	7.01
326.772	6.95
327.14	7
327.508	6.96
327.875	6.9
328.243	6.98
328.61	6.92
328.978	6.94
329.346	6.94
329.713	6.76
330.08	6.79
330.448	6.7
330.815	6.61
331.182	6.67
331.55	6.66
331.917	6.66
332.284	6.61
332.651	6.49
333.018	6.67
333.385	6.57
333.752	6.75
334.119	6.93
334.486	6.97
334.853	6.91
335.22	7.01
335.587	7.22
335.954	7.08
336.32	7.23
336.687	7.34
337.054	7.46
337.42	7.73
337.787	7.79
338.153	7.86
338.52	7.94
338.886	7.89
339.253	7.88
339.619	7.85
339.986	7.88
340.352	7.99
340.718	7.95
341.084	8.12
341.451	8.03
341.817	8.03
342.183	8.1
342.549	8.13
342.915	8.14
343.281	8.15
343.647	8.23
344.013	8.19
344.379	8.09
344.745	8.04
345.11	7.92
345.476	7.93
345.842	7.99
346.208	8.02
346.573	8.1
346.939	8.25
347.304	8.34
347.67	8.28
348.035	8.18
348.401	8.22
348.766	8.24
349.132	8.23
349.497	8.25
349.862	8.21
350.228	8.26
350.593	8.21
350.958	8.18
351.323	8.29
351.688	8.3
352.053	8.44
352.418	8.47
352.783	8.58
353.148	8.59
353.513	8.59
353.878	8.56
354.243	8.51
354.608	8.5
354.972	8.4
355.337	8.51
355.702	8.67
356.066	8.69
356.431	8.66
356.795	8.65
357.16	8.52
357.524	8.54
357.889	8.52
358.253	8.52
358.618	8.56
358.982	8.46
359.346	8.4
359.71	8.3
360.075	8.25
360.439	8.19
360.803	8.15
361.167	8.16
361.531	8.14
361.895	8.14
362.259	8.06
362.623	8.08
362.987	7.97
363.351	7.88
363.714	7.86
364.078	7.84
364.442	7.82
364.806	7.78
365.169	7.67
365.533	7.67
365.896	7.67
366.26	7.58
366.623	7.52
366.987	7.57
367.35	7.54
367.714	7.58
368.077	7.56
368.44	7.49
368.803	7.39
369.167	7.3
369.53	7.21
369.893	7.19
370.256	7.16
370.619	7.13
370.982	7.03
371.345	6.95
371.708	6.91
372.071	6.87
372.434	6.89
372.797	7.02
373.159	6.92
373.522	6.86
373.885	6.8
374.247	6.85
374.61	6.82
374.973	6.73
375.335	6.62
375.698	6.55
376.06	6.45
376.423	6.42
376.785	6.43
377.147	6.42
377.51	6.37
377.872	6.32
378.234	6.3
378.596	6.27
378.958	6.26
379.321	6.18
379.683	6.12
380.045	6.07
380.407	5.9
380.769	5.85
381.13	5.78
381.492	5.74
381.854	5.65
382.216	5.55
382.578	5.55
382.939	5.46
383.301	5.44
383.663	5.43
384.024	5.37
384.386	5.34
384.747	5.3
385.109	5.21
385.47	5.13
385.832	5.06
386.193	5.05
386.554	4.96
386.916	4.94
387.277	4.94
387.638	4.92
387.999	4.87
388.36	4.89
388.721	4.87
389.082	4.86
389.443	4.77
389.804	4.76
390.165	4.71
390.526	4.68
390.887	4.66
391.248	4.66
391.609	4.65
391.969	4.63
392.33	4.62
392.691	4.61
393.051	4.59
393.412	4.58
393.772	4.53
394.133	4.5
394.493	4.49
394.854	4.44
395.214	4.4
395.574	4.39
395.935	4.32
396.295	4.29
396.655	4.26
397.015	4.25
397.376	4.19
397.736	4.17
398.096	4.17
398.456	4.12
398.816	4.04
399.176	3.99
399.535	3.93
399.895	3.9
400.255	3.88
400.615	3.83
400.975	3.82
401.334	3.82
401.694	3.8
402.054	3.77
402.413	3.78
402.773	3.71
403.132	3.69
403.492	3.67
403.851	3.66
404.211	3.61
404.57	3.58
404.929	3.61
405.288	3.58
405.648	3.56
406.007	3.57
406.366	3.58
406.725	3.59
407.084	3.6
407.443	3.6
407.802	3.61
408.161	3.59
408.52	3.56
408.879	3.55
409.238	3.57
409.596	3.54
409.955	3.5
410.314	3.5
410.673	3.48
411.031	3.49
411.39	3.46
411.748	3.5
412.107	3.5
412.465	3.45
412.824	3.47
413.182	3.44
413.54	3.4
413.899	3.38
414.257	3.34
414.615	3.3
414.974	3.29
415.332	3.25
415.69	3.27
416.048	3.25
416.406	3.23
416.764	3.19
417.122	3.19
417.48	3.17
417.838	3.16
418.195	3.15
418.553	3.11
418.911	3.1
419.269	3.07
419.626	3.06
419.984	3.04
420.342	3.03
420.699	3.02
421.057	3
421.414	2.98
421.772	2.97
422.129	2.97
422.486	2.94
422.844	2.93
423.201	2.91
423.558	2.91
423.915	2.9
424.273	2.89
424.63	2.86
424.987	2.86
425.344	2.85
425.701	2.83
426.058	2.84
426.415	2.83
426.772	2.82
427.128	2.81
427.485	2.82
427.842	2.81
428.199	2.81
428.555	2.83
428.912	2.83
429.269	2.83
429.625	2.8
429.982	2.8
430.338	2.79
430.695	2.8
431.051	2.78
431.407	2.76
431.764	2.78
432.12	2.77
432.476	2.77
432.832	2.77
433.189	2.79
433.545	2.77
433.901	2.76
434.257	2.76
434.613	2.78
434.969	2.78
435.325	2.76
435.681	2.77
436.036	2.77
436.392	2.78
436.748	2.78
437.104	2.79
437.459	2.78
437.815	2.78
438.171	2.79
438.526	2.81
438.882	2.81
439.237	2.81
439.593	2.82
439.948	2.81
440.304	2.81
440.659	2.81
441.014	2.83
441.369	2.82
441.725	2.82
442.08	2.82
442.435	2.79
442.79	2.79
443.145	2.78
443.5	2.78
443.855	2.75
444.21	2.74
444.565	2.75
444.92	2.74
445.275	2.73
445.629	2.73
445.984	2.72
446.339	2.7
446.693	2.68
447.048	2.67
447.403	2.65
447.757	2.64
448.112	2.62
448.466	2.6
448.82	2.6
449.175	2.59
449.529	2.58
449.883	2.58
450.238	2.57
450.592	2.58
450.946	2.57
451.3	2.59
451.654	2.58
452.008	2.57
452.362	2.57
452.716	2.57
453.07	2.56
453.424	2.54
453.778	2.55
454.132	2.58
454.486	2.58
454.839	2.58
455.193	2.57
455.547	2.57
455.9	2.57
456.254	2.58
456.607	2.59
456.961	2.6
457.314	2.59
457.668	2.59
458.021	2.56
458.375	2.56
458.728	2.57
459.081	2.56
459.434	2.55
459.787	2.55
460.141	2.55
460.494	2.54
460.847	2.58
461.2	2.59
461.553	2.59
461.906	2.6
462.259	2.62
462.611	2.64
462.964	2.65
463.317	2.66
463.67	2.66
464.022	2.65
464.375	2.66
464.728	2.7
465.08	2.72
465.433	2.73
465.785	2.74
466.138	2.75
466.49	2.76
466.843	2.8
467.195	2.81
467.547	2.84
467.899	2.85
468.252	2.85
468.604	2.87
468.956	2.87
469.308	2.88
469.66	2.88
470.012	2.9
470.364	2.91
470.716	2.92
471.068	2.95
471.42	2.97
471.772	2.97
472.123	2.97
472.475	2.97
472.827	3
473.178	3.03
473.53	3
473.882	3
474.233	3
474.585	3
474.936	3
475.288	2.99
475.639	2.98
475.99	2.96
476.342	2.93
476.693	2.94
477.044	2.93
477.395	2.93
477.746	2.92
478.097	2.92
478.448	2.91
478.8	2.89
479.15	2.87
479.501	2.85
479.852	2.85
480.203	2.84
480.554	2.84
480.905	2.85
481.255	2.85
481.606	2.85
481.957	2.84
482.307	2.83
482.658	2.83
483.009	2.83
483.359	2.83
483.709	2.84
484.06	2.83
484.41	2.83
484.761	2.83
485.111	2.84
485.461	2.84
485.811	2.83
486.162	2.84
486.512	2.86
486.862	2.86
487.212	2.86
487.562	2.88
487.912	2.87
488.262	2.87
488.612	2.87
488.961	2.87
489.311	2.89
489.661	2.9
490.011	2.91
490.36	2.92
490.71	2.94
491.06	2.95
491.409	2.97
491.759	3
492.108	3.01
492.458	3.02
492.807	3.03
493.157	3.07
493.506	3.09
493.855	3.1
494.204	3.12
494.554	3.16
494.903	3.18
495.252	3.2
495.601	3.27
495.95	3.33
496.299	3.37
496.648	3.4
496.997	3.46
497.346	3.51
497.695	3.57
498.043	3.62
498.392	3.67
498.741	3.73
499.09	3.79
499.438	3.87
499.787	3.93
500.135	4.03
500.484	4.11
500.832	4.2
501.181	4.29
501.529	4.37
501.878	4.46
502.226	4.57
502.574	4.68
502.923	4.78
503.271	4.88
503.619	5
503.967	5.14
504.315	5.25
504.663	5.4
505.011	5.56
505.359	5.72
505.707	5.88
506.055	6.05
506.403	6.24
506.751	6.42
507.098	6.6
507.446	6.8
507.794	6.97
508.141	7.16
508.489	7.35
508.837	7.6
509.184	7.81
509.531	8.03
509.879	8.26
510.226	8.49
510.574	8.72
510.921	8.98
511.268	9.23
511.616	9.5
511.963	9.77
512.31	10.04
512.657	10.34
513.004	10.64
513.351	10.96
513.698	11.26
514.045	11.6
514.392	11.92
514.739	12.27
515.086	12.63
515.432	12.99
515.779	13.37
516.126	13.7
516.473	14.06
516.819	14.4
517.166	14.75
517.512	15.04
517.859	15.35
518.205	15.64
518.552	15.96
518.898	16.27
519.245	16.56
519.591	16.85
519.937	17.12
520.283	17.42
520.629	17.72
520.976	18.05
521.322	18.4
521.668	18.77
522.014	19.13
522.36	19.5
522.706	19.89
523.052	20.27
523.398	20.66
523.743	21.07
524.089	21.48
524.435	21.86
524.781	22.25
525.126	22.61
525.472	22.94
525.817	23.24
526.163	23.53
526.509	23.82
526.854	24.08
527.199	24.31
527.545	24.54
527.89	24.76
528.235	24.97
528.581	25.18
528.926	25.39
529.271	25.62
529.616	25.85
529.961	26.04
530.306	26.29
530.651	26.52
530.996	26.77
531.341	27
531.686	27.22
532.031	27.46
532.376	27.67
532.721	27.93
533.065	28.16
533.41	28.4
533.755	28.61
534.099	28.86
534.444	29.09
534.788	29.32
535.133	29.56
535.477	29.8
535.822	30.06
536.166	30.34
536.51	30.61
536.855	30.9
537.199	31.21
537.543	31.5
537.887	31.79
538.231	32.06
538.576	32.37
538.92	32.66
539.264	32.95
539.608	33.23
539.951	33.44
540.295	33.67
540.639	33.89
540.983	34.08
541.327	34.26
541.671	34.45
542.014	34.65
542.358	34.84
542.701	35.02
543.045	35.19
543.389	35.33
543.732	35.45
544.075	35.61
544.419	35.78
544.762	35.92
545.105	36.1
545.449	36.27
545.792	36.44
546.135	36.65
546.478	36.84
546.821	37.05
547.165	37.25
547.508	37.48
547.851	37.65
548.194	37.87
548.536	38.12
548.879	38.36
549.222	38.57
549.565	38.76
549.908	39.01
550.25	39.22
550.593	39.48
550.936	39.69
551.278	39.84
551.621	40.03
551.963	40.21
552.306	40.45
552.648	40.64
552.991	40.84
553.333	41.07
553.675	41.26
554.017	41.38
554.36	41.53
554.702	41.69
555.044	41.88
555.386	42.05
555.728	42.2
556.07	42.4
556.412	42.54
556.754	42.69
557.096	42.82
557.438	42.93
557.78	43.04
558.121	43.19
558.463	43.42
558.805	43.56
559.147	43.75
559.488	43.84
559.83	44
560.171	44.11
560.513	44.17
560.854	44.26
561.196	44.45
561.537	44.58
561.878	44.67
562.22	44.79
562.561	44.93
562.902	45.03
563.243	45.13
563.584	45.19
563.925	45.33
564.266	45.38
564.607	45.53
564.948	45.65
565.289	45.75
565.63	45.83
565.971	45.9
566.312	45.97
566.653	46.1
566.993	46.13
567.334	46.22
567.675	46.34
568.015	46.42
568.356	46.54
568.696	46.64
569.037	46.71
569.377	46.82
569.718	46.87
570.058	46.97
570.398	47.04
570.739	47.19
571.079	47.25
571.419	47.38
571.759	47.49
572.099	47.59
572.439	47.71
572.779	47.79
573.119	47.88
573.459	47.94
573.799	48.01
574.139	48.19
574.479	48.29
574.819	48.29
575.158	48.35
575.498	48.4
575.838	48.53
576.177	48.63
576.517	48.71
576.856	48.76
577.196	48.9
577.535	48.98
577.875	49.06
578.214	49.18
578.553	49.22
578.893	49.27
579.232	49.37
579.571	49.42
579.91	49.52
580.25	49.69
580.589	49.84
580.928	49.92
581.267	49.93
581.606	50
581.945	50.17
582.283	50.3
582.622	50.39
582.961	50.5
583.3	50.59
583.639	50.62
583.977	50.75
584.316	50.82
584.654	50.88
584.993	51.04
585.332	51.08
585.67	51.27
586.008	51.29
586.347	51.26
586.685	51.29
587.024	51.36
587.362	51.37
587.7	51.43
588.038	51.51
588.376	51.57
588.715	51.63
589.053	51.68
589.391	51.69
589.729	51.69
590.067	51.65
590.404	51.72
590.742	51.82
591.08	51.87
591.418	51.9
591.756	51.9
592.093	51.87
592.431	51.88
592.769	51.83
593.106	51.89
593.444	51.95
593.781	52.05
594.119	52.14
594.456	52.16
594.793	52.15
595.131	52.21
595.468	52.32
595.805	52.37
596.143	52.39
596.48	52.5
596.817	52.52
597.154	52.6
597.491	52.61
597.828	52.56
598.165	52.62
598.502	52.65
598.839	52.71
599.176	52.75
599.512	52.84
599.849	52.93
600.186	53.03
600.523	53.13
600.859	53.12
601.196	53.13
601.532	53.24
601.869	53.27
602.205	53.26
602.542	53.27
602.878	53.3
603.215	53.4
603.551	53.32
603.887	53.46
604.223	53.49
604.56	53.49
604.896	53.58
605.232	53.59
605.568	53.61
605.904	53.64
606.24	53.72
606.576	53.75
606.912	53.75
607.248	53.73
607.583	53.75
607.919	53.83
608.255	53.86
608.591	53.79
608.926	53.79
609.262	53.87
609.597	53.87
609.933	53.89
610.268	53.92
610.604	54.05
610.939	54.01
611.275	54.02
611.61	54.12
611.945	54.14
612.281	54.2
612.616	54.17
612.951	54.28
613.286	54.29
613.621	54.31
613.956	54.39
614.291	54.49
614.626	54.57
614.961	54.61
615.296	54.52
615.631	54.61
615.966	54.73
616.3	54.73
616.635	54.8
616.97	54.78
617.304	54.74
617.639	54.65
617.973	54.61
618.308	54.68
618.642	54.8
618.977	54.83
619.311	54.82
619.646	54.88
619.98	54.93
620.314	54.99
620.648	55.03
620.983	55.06
621.317	55.01
621.651	54.96
621.985	54.89
622.319	55
622.653	54.99
622.987	55.13
623.321	55.17
623.655	55.18
623.988	55.25
624.322	55.32
624.656	55.41
624.99	55.48
625.323	55.51
625.657	55.39
625.99	55.34
626.324	55.33
626.657	55.32
626.991	55.3
627.324	55.27
627.658	55.36
627.991	55.35
628.324	55.48
628.657	55.52
628.991	55.58
629.324	55.6
629.657	55.61
629.99	55.53
630.323	55.47
630.656	55.51
630.989	55.55
631.322	55.58
631.655	55.54
631.987	55.52
632.32	55.39
632.653	55.39
632.986	55.47
633.318	55.54
633.651	55.72
633.984	55.77
634.316	55.81
634.649	55.79
634.981	55.81
635.313	55.75
635.646	55.79
635.978	55.8
636.31	55.88
636.643	56
636.975	56.02
637.307	56.1
637.639	56.07
637.971	56.13
638.303	56.1
638.635	56.2
638.967	56.27
639.299	56.51
639.631	56.55
639.963	56.57
640.295	56.63
640.626	56.47
640.958	56.46
641.29	56.47
641.621	56.45
641.953	56.43
642.285	56.51
642.616	56.57
642.948	56.67
643.279	56.71
643.61	56.57
643.942	56.54
644.273	56.54
644.604	56.54
644.936	56.48
645.267	56.46
645.598	56.43
645.929	56.43
646.26	56.27
646.591	56.36
646.922	56.34
647.253	56.26
647.584	56.35
647.915	56.31
648.245	56.26
648.576	56.33
648.907	56.34
649.238	56.3
649.568	56.35
649.899	56.34
650.229	56.27
650.56	56.44
650.89	56.5
651.221	56.51
651.551	56.66
651.882	56.65
652.212	56.71
652.542	56.68
652.872	56.7
653.203	56.67
653.533	56.65
653.863	56.71
654.193	56.69
654.523	56.64
654.853	56.56
655.183	56.69
655.513	56.61
655.843	56.68
656.172	56.76
656.502	56.6
656.832	56.57
657.162	56.59
657.491	56.54
657.821	56.54
658.15	56.52
658.48	56.52
658.809	56.53
659.139	56.53
659.468	56.6
659.798	56.62
660.127	56.61
660.456	56.56
660.785	56.61
661.115	56.68
661.444	56.72
661.773	56.91
662.102	56.83
662.431	56.95
662.76	56.91
663.089	56.78
663.418	56.8
663.747	56.9
664.076	56.9
664.404	56.9
664.733	56.94
665.062	56.94
665.39	56.8
665.719	56.78
666.048	56.83
666.376	56.76
666.705	56.86
667.033	56.96
667.362	57.05
667.69	57.01
668.018	56.98
668.347	57
668.675	56.88
669.003	56.95
669.331	56.88
669.659	57.09
669.987	57.09
670.315	57.06
670.643	56.95
670.971	56.9
671.299	56.97
671.627	56.89
671.955	56.86
672.283	56.92
672.61	57.01
672.938	56.93
673.266	57
673.593	56.91
673.921	56.8
674.249	56.84
674.576	56.85
674.904	56.94
675.231	56.87
675.558	56.98
675.886	56.94
676.213	56.97
676.54	56.71
676.867	56.82
677.195	56.9
677.522	57.04
677.849	57.15
678.176	57.08
678.503	57.21
678.83	57.27
679.157	57.22
679.484	57.16
679.81	57.23
680.137	57.26
680.464	57.32
680.791	57.41
681.117	57.33
681.444	57.31
681.771	57.29
682.097	57.42
682.424	57.44
682.75	57.5
683.077	57.47
683.403	57.58
683.729	57.51
684.056	57.41
684.382	57.3
684.708	57.2
685.034	57.25
685.36	57.26
685.686	57.3
686.012	57.37
686.339	57.33
686.664	57.2
686.99	57.19
687.316	57.2
687.642	57.4
687.968	57.42
688.294	57.39
688.619	57.34
688.945	57.25
689.271	57.19
689.596	57.14
689.922	57.19
690.247	57.12
690.573	57.21
690.898	57.27
691.224	57.27
691.549	57.54
691.874	57.59
692.2	57.47
692.525	57.38
692.85	57.43
693.175	57.61
693.5	57.57
693.825	57.67
694.15	57.57
694.475	57.37
694.8	57.33
695.125	57.42
695.45	57.35
695.775	57.39
696.099	57.44
696.424	57.4
696.749	57.32
697.073	57.31
697.398	57.3
697.723	57.41
698.047	57.39
698.372	57.1
698.696	56.94
699.02	56.85
699.345	56.96
699.669	56.99
699.993	56.95
700.318	57.03
700.642	56.87
700.966	56.9
701.29	56.83
701.614	56.9
701.938	56.95
702.262	57.03
702.586	57.03
702.91	57.03
703.234	57.14
703.557	57.27
703.881	57.41
704.205	57.37
704.529	57.21
704.852	57.39
705.176	57.6
705.499	57.74
705.823	57.91
706.146	57.88
706.47	57.8
706.793	57.8
707.117	57.9
707.44	58
707.763	58.05
708.086	58.13
708.409	58.14
708.733	58.26
709.056	58.32
709.379	58.43
709.702	58.32
710.025	58.22
710.348	58.09
710.671	58.04
710.993	58.1
711.316	58.24
711.639	58.12
711.962	57.98
712.284	57.91
712.607	57.83
712.93	58
713.252	58.16
713.575	58.14
713.897	58.14
714.22	58.11
714.542	57.95
714.864	58
715.187	57.92
715.509	57.79
715.831	57.67
716.153	57.59
716.475	57.77
716.798	57.65
717.12	57.6
717.442	57.61
717.764	57.55
718.085	57.56
718.407	57.61
718.729	57.7
719.051	57.64
719.373	57.64
719.695	57.48
720.016	57.28
720.338	57.1
720.659	57.01
720.981	56.95
721.302	57
721.624	56.96
721.945	56.97
722.267	56.86
722.588	56.92
722.909	56.88
723.231	56.59
723.552	56.78
723.873	56.8
724.194	56.63
724.515	56.62
724.836	56.69
725.157	56.65
725.478	56.76
725.799	56.91
726.12	56.87
726.441	56.83
726.762	56.74
727.083	56.92
727.403	56.89
727.724	57.04
728.045	57.03
728.365	57.25
728.686	57.18
729.006	57.25
729.327	57.32
729.647	57.27
729.967	57.35
730.288	57.46
730.608	57.59
730.928	57.8
731.249	57.78
731.569	57.85
731.889	58.03
732.209	58.08
732.529	58.01
732.849	58.17
733.169	58.12
733.489	58.49
733.809	58.31
734.129	58.3
734.448	58.27
734.768	58.34
735.088	58.24
735.408	58.47
735.727	58.37
736.047	58.34
736.366	58.05
736.686	58.05
737.005	57.85
737.325	57.74
737.644	57.61
737.963	57.8
738.283	57.62
738.602	57.38
738.921	57.19
739.24	57.29
739.56	57.21
739.879	57.1
740.198	56.81
740.517	56.89
740.836	57.06
741.155	57.06
741.473	56.88
741.792	56.73
742.111	56.61
742.43	57.03
742.748	56.94
743.067	57.37
743.386	57.47
743.704	57.59
744.023	57.55
744.341	57.5
744.66	57.54
744.978	57.62
745.297	57.8
745.615	58.07
745.933	58.1
746.252	57.97
746.57	58.06
746.888	57.87
747.206	57.92
747.524	57.64
747.842	57.76
748.16	58.06
748.478	58.32
748.796	58.43
749.114	58.05
749.432	57.77
749.749	58.14
750.067	58.01
750.385	58.04
750.703	58.44
751.02	58.54
751.338	58.34
751.655	58.22
751.973	58.16
752.29	57.84
752.608	57.85
752.925	58.3
753.242	58.18
753.56	58.4
753.877	58.44
754.194	58.87
754.511	58.66
754.828	58.56
755.145	58.3
755.462	58.01
755.779	58.27
756.096	58.71
756.413	58.39
756.73	58.16
757.047	58.14
757.364	58.08
757.68	58.12
757.997	57.97
758.314	57.88
758.63	57.61
758.947	57.83
759.264	57.84
759.58	57.16
759.896	57.49
760.213	57.71
760.529	57.72
760.846	57.39
761.162	57.53
761.478	57.49
761.794	57.47
762.11	57.8
762.426	57.66
762.743	57.74
763.059	57.62
763.375	57.77
763.69	57.7
764.006	57.57
764.322	57.4
764.638	57.51
764.954	57.59
765.27	57.62
765.585	57.68
765.901	57.74
766.216	58.15
766.532	57.99
766.848	57.82
767.163	57.99
767.478	58.06
767.794	58.04
768.109	58.11
768.424	58.1
768.74	57.65
769.055	57.42
769.37	57.18
769.685	57.12
770	57.33
770.315	57.02
770.63	57.09
770.945	57.17
771.26	57.43
771.575	57.57
771.89	57.69
772.205	57.44
772.52	57.43
772.834	57.2
773.149	57.07
773.464	56.9
773.778	56.44
774.093	56.48
774.407	56.63
774.722	56.68
775.036	57.08
775.351	57.34
775.665	57.37
775.979	57.75
776.293	57.63
776.608	57.74
776.922	57.83
777.236	57.55
777.55	57.85
777.864	57.58
778.178	57.08
778.492	57.28
778.806	56.85
779.12	56.79
779.434	57.09
779.747	57.33
780.061	57.54
780.375	58.06
780.689	57.95
781.002	57.87
781.316	57.89
781.629	57.79
781.943	57.87
782.256	57.79
782.57	57.17
782.883	57.53
783.196	57.46
783.51	57.6
783.823	57.56
784.136	57
784.449	56.64
784.762	56.75
785.075	56.75
785.388	57.25
785.701	57.46
786.014	56.83
786.327	56.72
786.64	56.69
786.953	56.21
787.266	55.9
787.578	55.65
787.891	55.98
788.204	55.57
788.516	55.42
788.829	55.75
789.141	56.32
789.454	55.83
789.766	56.02
790.079	55.81
790.391	56.14
790.703	56.54
791.016	56.81
791.328	56.95
791.64	57.2
791.952	57.67
792.264	57.43
792.576	57.59
792.888	58.07
793.2	58
793.512	57.98
793.824	58.29
794.136	58.57
794.448	58.4
794.76	58.51
795.071	58.44
795.383	58.38
795.695	57.96
796.006	58.11
796.318	57.3
796.629	57.74
796.941	57.86
797.252	57.74
797.564	57.13
797.875	57.58
798.186	56.91
798.497	56.97
798.809	56.86
799.12	57.08
799.431	56.92
799.742	56.98
800.053	57.17
800.364	57.11
800.675	56.3
800.986	56.02
801.297	56.3
801.608	56.31
801.918	56.31
802.229	56.64
802.54	56.37
802.851	56.68
803.161	56.94
803.472	56.46
803.782	56.52
804.093	57.54
804.403	57.79
804.714	57.98
805.024	57.5
805.334	58.18
805.645	58.21
805.955	58.64
806.265	58.4
806.575	58.68
806.885	58.69
807.195	60.11
807.505	59.78
807.815	59.17
808.125	59.19
808.435	59.66
808.745	59.82
809.055	60.64
809.365	61.22
809.674	61.53
809.984	61.76
810.294	61.88
810.603	61.9
810.913	61.05
811.222	61.19
811.532	60.92
811.841	60.55
812.151	60.94
812.46	59.85
812.769	60.09
813.079	59.41
813.388	59.71
813.697	59.23
814.006	59.01
814.315	59.47
814.624	60.09
814.933	59.66
815.242	60
815.551	60.18
815.86	59.58
816.169	58.18
816.478	57.54
816.786	57.94
817.095	58.06
817.404	58.12
817.712	58.03
818.021	58.62
818.33	58.04
818.638	57.86
818.947	58.37
819.255	58.86
819.563	59.25
819.872	58.87
820.18	59.03
820.488	59.29
820.796	59.61
821.105	60.1
821.413	60.16
821.721	59.72
822.029	59.61
822.337	59.75
822.645	59.86
822.953	59.8
823.26	59.6
823.568	59.33
823.876	59.46
824.184	59.44
824.491	59.29
824.799	59.41
825.107	59.47
825.414	59.62
825.722	59.6
826.029	59.59
826.337	59.74
826.644	59.59
826.951	59.48
827.259	59.33
827.566	58.9
827.873	58.78
828.18	58.9
828.488	58.87
828.795	58.68
829.102	58.8
829.409	59.23
829.716	59.35
830.023	59.78
830.329	59.62
830.636	60.05
830.943	59.97
831.25	59.83
831.557	59.28
831.863	58.91
832.17	58.7
832.476	58.96
832.783	58.95
833.089	59.1
833.396	59.69
833.702	59.75
834.009	59.77
834.315	59.64
834.621	60.03
834.928	59.78
835.234	59.75
835.54	59.7
835.846	59.62
836.152	59.54
836.458	59.35
836.764	58.95
837.07	58.44
837.376	58.69
837.682	58.9
837.988	59.51
838.293	59.5
838.599	59.33
838.905	58.48
839.211	59.13
839.516	58.88
839.822	58.11
840.127	57.44
840.433	56.83
840.738	56.42
841.044	55.25
841.349	55.97
841.654	56.55
841.959	56.35
842.265	55.94
842.57	55.93
842.875	55.3
843.18	55.98
843.485	56.01
843.79	55.88
844.095	55.62
844.4	55.53
844.705	54.78
845.01	54.68
845.315	55.26
845.619	54.16
845.924	53.32
846.229	54.02
846.533	56.23
846.838	56.84
847.142	57.43
847.447	57.43
847.751	56.3
848.056	54.93
848.36	53.61
848.664	53.06
848.969	53.75
849.273	55.08
849.577	55.39
849.881	55.16
850.185	55.9
850.489	55.79
850.794	54.22
851.097	54.55
851.401	54.85
851.705	54.51
852.009	54.8
852.313	54.98
852.617	53.96
852.92	52.12
853.224	49.41
853.528	49.08
853.831	49.02
854.135	50.78
854.438	51.51
854.742	52.11
855.045	52.39
855.349	51.36
855.652	49.13
855.955	50.44
856.259	49.76
856.562	49.43
856.865	47.48
857.168	47.4
857.471	48.31
857.774	48.75
858.077	48.25
858.38	49.44
858.683	50.97
858.986	52.64
859.289	52.64
859.592	58.22
859.894	58.4
860.197	58.16
860.5	54.71
860.802	53.11
861.105	54.91
861.407	56.03
861.71	56.32
862.012	57.75
862.315	55.9
862.617	56.53
862.919	56.97
863.222	60.4
863.524	63.67
863.826	62.95
864.128	62
864.43	62.08
864.732	59.52
865.034	60.83
865.336	59.48
865.638	59.79
865.94	55.92
866.242	57.38
866.544	59.45
866.846	61.67
867.147	63
867.449	62.48
867.751	60.08
868.052	61.14
868.354	59.54
868.655	60.99
868.957	61.02
869.258	59.04
869.56	57.19
869.861	54.44
870.162	53.37
870.463	52.78
870.765	52.82
871.066	52.61
871.367	50.34
871.668	48.81
871.969	46.95
872.27	45.75
872.571	44.29
872.872	43.25
873.173	42.28
873.473	40.82
873.774	40.56
874.075	42.25
874.376	40.75
874.676	44.71
874.977	42.73
875.277	41.52
875.578	43.13
875.878	43.79
876.179	44.76
876.479	45.53
876.78	46.46
877.08	46.73
877.38	47.18
877.68	46.94
877.981	49.15
878.281	50.36
878.581	52.89
