Data from BU26844_Reflection_00009.txt Node
Date: Mon Nov 18 16:36:19 EST 2019
User: vgr7
Spectrometer: USB2G7710
Scans to average: 3
Trigger mode: 4
Integration Time (sec): 2.000000E-2
Electric dark correction enabled: true
Boxcar width: 10
XAxis mode: Wavelengths
Number of Pixels in Spectrum: 2048
>>>>>Begin Spectral Data<<<<<
177.721	-450.46
178.105	-6900
178.488	-134.53
178.871	-4400
179.254	-11.59
179.636	1318.75
180.019	-53.35
180.402	97.22
180.785	20.18
181.168	58.9
181.55	109.05
181.933	137.11
182.316	157.73
182.698	205.71
183.081	151.28
183.463	214.71
183.846	188.58
184.228	168.83
184.611	277.05
184.993	843.36
185.376	7554.55
185.758	-449.22
186.14	-418.22
186.522	-470.34
186.904	-1325.74
187.287	1521.69
187.669	-380.57
188.051	-448.26
188.433	-260.1
188.815	-159.97
189.197	-162.68
189.579	-105.13
189.961	-105.84
190.342	-97.75
190.724	-42.01
191.106	-42.97
191.488	-36.11
191.869	-28.56
192.251	-32.5
192.633	-29.85
193.014	-21.85
193.396	-29.47
193.777	-36.53
194.159	-19.57
194.54	-20.32
194.922	-16.47
195.303	-10.67
195.684	-8.83
196.065	-5.45
196.447	-11.94
196.828	-21.53
197.209	3.04
197.59	-9.68
197.971	-28.99
198.352	-24.54
198.733	-34.56
199.114	-22.19
199.495	-25.53
199.876	-25.47
200.257	-25.26
200.638	-16.39
201.018	-24.54
201.399	-23.93
201.78	-2.67
202.16	-29.71
202.541	-47.1
202.922	-65.8
203.302	-84.97
203.683	-75.33
204.063	-205.63
204.444	-365.86
204.824	-263.64
205.204	-224.64
205.585	-253.41
205.965	-124.66
206.345	-172.11
206.725	-265.43
207.106	-335.64
207.486	-469.04
207.866	-734.44
208.246	-566.67
208.626	-984.11
209.006	-226.44
209.386	-260.49
209.766	-342.16
210.145	-194.03
210.525	-248.79
210.905	-186.66
211.285	-132.26
211.664	-116.09
212.044	-87.85
212.424	-54.28
212.803	-50.04
213.183	-64.19
213.562	-79.71
213.942	-69.85
214.321	-49.85
214.701	-41.87
215.08	-51.23
215.459	-44.46
215.838	-45.27
216.218	-53.4
216.597	-45.07
216.976	-45.44
217.355	-52.43
217.734	-35.23
218.113	-38.54
218.492	-31.08
218.871	-47.04
219.25	-49.7
219.629	-47.2
220.008	-49.42
220.387	-57.15
220.766	-59.41
221.144	-67.38
221.523	-67.17
221.902	-63.13
222.28	-66.99
222.659	-51.78
223.037	-50.21
223.416	-56.84
223.794	-54.58
224.173	-55.21
224.551	-50.8
224.929	-46.15
225.308	-27.59
225.686	-33.56
226.064	-21.84
226.442	-21.14
226.821	-11.99
227.199	-8.93
227.577	-8.98
227.955	-7.81
228.333	-3.21
228.711	-1.64
229.089	3.57
229.467	3.83
229.845	3.67
230.222	3.07
230.6	1.8
230.978	1.06
231.356	2.76
231.733	2.23
232.111	4.52
232.488	5.96
232.866	5.77
233.243	4.49
233.621	4.01
233.998	1.58
234.376	2.81
234.753	2.22
235.13	0.61
235.508	0.06
235.885	-0.3
236.262	-2.71
236.639	-3.74
237.016	-4.11
237.393	-2.62
237.77	-2.5
238.147	-0.65
238.524	0.18
238.901	1.59
239.278	1.21
239.655	0.94
240.032	0.21
240.409	0.18
240.785	0.02
241.162	0.8
241.539	1.57
241.915	2.62
242.292	2.27
242.668	2.35
243.045	2.4
243.421	2.76
243.798	2.78
244.174	2.89
244.551	3
244.927	2.91
245.303	2.98
245.679	3.12
246.056	2.79
246.432	2.79
246.808	2.63
247.184	2.34
247.56	2.38
247.936	2.38
248.312	2.36
248.688	2.64
249.064	2.49
249.44	2.44
249.815	2.33
250.191	2.45
250.567	2.3
250.943	2.17
251.318	2.24
251.694	2.34
252.069	2.14
252.445	2.16
252.82	2.09
253.196	1.97
253.571	1.86
253.947	1.83
254.322	1.73
254.697	1.9
255.073	2.12
255.448	2.24
255.823	2.3
256.198	2.31
256.573	2.08
256.948	2.11
257.323	2.43
257.698	2.33
258.073	2.24
258.448	2.47
258.823	2.45
259.198	2.18
259.573	2.15
259.948	2.31
260.322	2.39
260.697	2.46
261.072	2.46
261.446	2.41
261.821	2.37
262.195	2.47
262.57	2.35
262.944	2.37
263.319	2.3
263.693	2.33
264.067	2.47
264.442	2.62
264.816	2.55
265.19	2.27
265.564	2.24
265.938	2.29
266.313	2.11
266.687	2.29
267.061	2.4
267.435	2.39
267.809	2.32
268.183	2.22
268.556	2.11
268.93	2.11
269.304	2.15
269.678	2.43
270.051	2.31
270.425	2.45
270.799	2.44
271.172	2.49
271.546	2.46
271.919	2.29
272.293	2.21
272.666	2.4
273.04	2.54
273.413	2.55
273.787	2.48
274.16	2.49
274.533	2.42
274.906	2.39
275.279	2.24
275.653	2.14
276.026	2.14
276.399	2.23
276.772	2.26
277.145	2.16
277.518	2.06
277.891	1.98
278.263	1.99
278.636	2.07
279.009	2.1
279.382	2.27
279.755	2.17
280.127	2.23
280.5	2.18
280.872	2.06
281.245	1.94
281.617	2.16
281.99	2.34
282.362	2.37
282.735	2.48
283.107	2.49
283.479	2.54
283.852	2.59
284.224	2.51
284.596	2.53
284.968	2.62
285.34	2.75
285.713	2.94
286.085	2.87
286.457	2.88
286.829	2.94
287.201	2.76
287.572	2.81
287.944	2.69
288.316	2.6
288.688	2.61
289.06	2.71
289.431	2.65
289.803	2.61
290.175	2.59
290.546	2.82
290.918	2.94
291.289	3.01
291.661	3.05
292.032	3.23
292.403	3.24
292.775	3.38
293.146	3.24
293.517	3.11
293.889	3.11
294.26	3.2
294.631	3.18
295.002	3.18
295.373	3.26
295.744	3.48
296.115	3.58
296.486	3.55
296.857	3.63
297.228	3.74
297.599	3.64
297.97	3.6
298.34	3.39
298.711	3.43
299.082	3.37
299.452	3.32
299.823	3.26
300.194	3.33
300.564	3.22
300.935	3.25
301.305	3.27
301.676	3.36
302.046	3.29
302.416	3.37
302.787	3.53
303.157	3.61
303.527	3.54
303.897	3.61
304.267	3.79
304.637	3.85
305.008	3.76
305.378	3.99
305.748	4.13
306.117	4.27
306.487	4.26
306.857	4.47
307.227	4.61
307.597	4.77
307.967	4.75
308.336	4.96
308.706	4.99
309.076	4.99
309.445	5.02
309.815	5.01
310.184	5.01
310.554	5.07
310.923	5.06
311.293	5.13
311.662	4.97
312.031	4.89
312.401	4.83
312.77	5.04
313.139	5.04
313.508	5.1
313.877	5.13
314.246	5.25
314.616	5.11
314.985	5.05
315.353	5.01
315.722	5.1
316.091	4.9
316.46	5.07
316.829	5.23
317.198	5.3
317.567	5.25
317.935	5.25
318.304	5.31
318.672	5.34
319.041	5.42
319.41	5.59
319.778	5.92
320.147	5.89
320.515	5.66
320.883	5.63
321.252	5.74
321.62	5.72
321.988	5.73
322.357	5.95
322.725	6.14
323.093	6.18
323.461	6.12
323.829	6.28
324.197	6.3
324.565	6.4
324.933	6.58
325.301	6.73
325.669	6.85
326.037	6.89
326.405	7.04
326.772	7.08
327.14	7.06
327.508	7
327.875	7.12
328.243	7.25
328.61	7.22
328.978	7.29
329.346	7.26
329.713	7.31
330.08	7.38
330.448	7.38
330.815	7.34
331.182	7.49
331.55	7.53
331.917	7.52
332.284	7.64
332.651	7.64
333.018	7.78
333.385	7.8
333.752	7.94
334.119	7.81
334.486	7.76
334.853	7.88
335.22	7.96
335.587	8.14
335.954	8.23
336.32	8.36
336.687	8.32
337.054	8.43
337.42	8.63
337.787	8.73
338.153	8.8
338.52	8.95
338.886	8.96
339.253	8.93
339.619	8.97
339.986	8.91
340.352	8.89
340.718	8.85
341.084	8.86
341.451	8.92
341.817	9.06
342.183	9.11
342.549	9.23
342.915	9.27
343.281	9.23
343.647	9.25
344.013	9.27
344.379	9.3
344.745	9.27
345.11	9.13
345.476	9.13
345.842	9.11
346.208	9.07
346.573	9.06
346.939	9.28
347.304	9.19
347.67	9.2
348.035	9.12
348.401	9.15
348.766	9.17
349.132	9.09
349.497	9.04
349.862	9.1
350.228	9.09
350.593	9.09
350.958	9.12
351.323	9.11
351.688	9.08
352.053	9.21
352.418	9.26
352.783	9.32
353.148	9.33
353.513	9.38
353.878	9.44
354.243	9.56
354.608	9.38
354.972	9.44
355.337	9.55
355.702	9.64
356.066	9.66
356.431	9.68
356.795	9.69
357.16	9.73
357.524	9.65
357.889	9.51
358.253	9.51
358.618	9.5
358.982	9.44
359.346	9.44
359.71	9.43
360.075	9.46
360.439	9.48
360.803	9.51
361.167	9.45
361.531	9.4
361.895	9.31
362.259	9.4
362.623	9.36
362.987	9.31
363.351	9.33
363.714	9.31
364.078	9.32
364.442	9.32
364.806	9.31
365.169	9.41
365.533	9.44
365.896	9.37
366.26	9.3
366.623	9.34
366.987	9.28
367.35	9.21
367.714	9.18
368.077	9.08
368.44	8.98
368.803	8.97
369.167	8.94
369.53	8.87
369.893	8.83
370.256	8.84
370.619	8.81
370.982	8.7
371.345	8.68
371.708	8.6
372.071	8.53
372.434	8.43
372.797	8.26
373.159	8.2
373.522	8.19
373.885	8.17
374.247	8.15
374.61	8.16
374.973	8.04
375.335	7.92
375.698	7.89
376.06	7.82
376.423	7.74
376.785	7.71
377.147	7.69
377.51	7.63
377.872	7.61
378.234	7.56
378.596	7.54
378.958	7.43
379.321	7.4
379.683	7.4
380.045	7.41
380.407	7.37
380.769	7.33
381.13	7.23
381.492	7.16
381.854	7.04
382.216	6.95
382.578	6.99
382.939	6.92
383.301	6.92
383.663	6.88
384.024	6.87
384.386	6.8
384.747	6.8
385.109	6.76
385.47	6.72
385.832	6.6
386.193	6.55
386.554	6.51
386.916	6.41
387.277	6.33
387.638	6.24
387.999	6.23
388.36	6.2
388.721	6.19
389.082	6.16
389.443	6.1
389.804	6.05
390.165	5.96
390.526	5.96
390.887	5.94
391.248	5.91
391.609	5.87
391.969	5.87
392.33	5.81
392.691	5.76
393.051	5.68
393.412	5.66
393.772	5.59
394.133	5.54
394.493	5.55
394.854	5.51
395.214	5.47
395.574	5.4
395.935	5.37
396.295	5.38
396.655	5.33
397.015	5.3
397.376	5.29
397.736	5.23
398.096	5.21
398.456	5.14
398.816	5.08
399.176	4.99
399.535	4.88
399.895	4.85
400.255	4.81
400.615	4.78
400.975	4.78
401.334	4.77
401.694	4.76
402.054	4.69
402.413	4.67
402.773	4.6
403.132	4.59
403.492	4.54
403.851	4.44
404.211	4.42
404.57	4.42
404.929	4.41
405.288	4.41
405.648	4.36
406.007	4.33
406.366	4.3
406.725	4.32
407.084	4.34
407.443	4.31
407.802	4.29
408.161	4.26
408.52	4.24
408.879	4.2
409.238	4.19
409.596	4.18
409.955	4.17
410.314	4.2
410.673	4.18
411.031	4.18
411.39	4.2
411.748	4.19
412.107	4.16
412.465	4.12
412.824	4.14
413.182	4.14
413.54	4.13
413.899	4.15
414.257	4.17
414.615	4.16
414.974	4.14
415.332	4.1
415.69	4.09
416.048	4.06
416.406	4.07
416.764	4.05
417.122	4.03
417.48	3.99
417.838	3.98
418.195	3.96
418.553	3.94
418.911	3.92
419.269	3.89
419.626	3.87
419.984	3.86
420.342	3.82
420.699	3.8
421.057	3.78
421.414	3.74
421.772	3.71
422.129	3.69
422.486	3.67
422.844	3.67
423.201	3.66
423.558	3.64
423.915	3.6
424.273	3.59
424.63	3.57
424.987	3.59
425.344	3.56
425.701	3.55
426.058	3.54
426.415	3.52
426.772	3.49
427.128	3.49
427.485	3.48
427.842	3.47
428.199	3.46
428.555	3.44
428.912	3.49
429.269	3.47
429.625	3.45
429.982	3.45
430.338	3.45
430.695	3.46
431.051	3.44
431.407	3.45
431.764	3.43
432.12	3.44
432.476	3.43
432.832	3.43
433.189	3.43
433.545	3.4
433.901	3.41
434.257	3.42
434.613	3.44
434.969	3.44
435.325	3.44
435.681	3.46
436.036	3.46
436.392	3.45
436.748	3.46
437.104	3.46
437.459	3.46
437.815	3.46
438.171	3.47
438.526	3.5
438.882	3.52
439.237	3.53
439.593	3.53
439.948	3.52
440.304	3.52
440.659	3.55
441.014	3.57
441.369	3.56
441.725	3.56
442.08	3.56
442.435	3.56
442.79	3.56
443.145	3.55
443.5	3.56
443.855	3.55
444.21	3.53
444.565	3.52
444.92	3.53
445.275	3.51
445.629	3.49
445.984	3.47
446.339	3.45
446.693	3.45
447.048	3.44
447.403	3.43
447.757	3.42
448.112	3.4
448.466	3.38
448.82	3.38
449.175	3.38
449.529	3.37
449.883	3.36
450.238	3.36
450.592	3.36
450.946	3.33
451.3	3.32
451.654	3.32
452.008	3.33
452.362	3.33
452.716	3.34
453.07	3.35
453.424	3.34
453.778	3.33
454.132	3.3
454.486	3.29
454.839	3.29
455.193	3.27
455.547	3.27
455.9	3.28
456.254	3.28
456.607	3.25
456.961	3.25
457.314	3.26
457.668	3.26
458.021	3.25
458.375	3.28
458.728	3.29
459.081	3.32
459.434	3.32
459.787	3.32
460.141	3.31
460.494	3.31
460.847	3.33
461.2	3.34
461.553	3.37
461.906	3.4
462.259	3.42
462.611	3.46
462.964	3.49
463.317	3.5
463.67	3.52
464.022	3.56
464.375	3.58
464.728	3.59
465.08	3.61
465.433	3.63
465.785	3.64
466.138	3.64
466.49	3.64
466.843	3.65
467.195	3.68
467.547	3.71
467.899	3.72
468.252	3.74
468.604	3.76
468.956	3.76
469.308	3.77
469.66	3.78
470.012	3.78
470.364	3.79
470.716	3.81
471.068	3.82
471.42	3.84
471.772	3.86
472.123	3.88
472.475	3.88
472.827	3.9
473.178	3.91
473.53	3.92
473.882	3.93
474.233	3.93
474.585	3.91
474.936	3.9
475.288	3.91
475.639	3.91
475.99	3.91
476.342	3.91
476.693	3.92
477.044	3.92
477.395	3.9
477.746	3.88
478.097	3.86
478.448	3.85
478.8	3.84
479.15	3.8
479.501	3.79
479.852	3.79
480.203	3.78
480.554	3.77
480.905	3.76
481.255	3.75
481.606	3.72
481.957	3.73
482.307	3.73
482.658	3.73
483.009	3.73
483.359	3.73
483.709	3.73
484.06	3.73
484.41	3.73
484.761	3.73
485.111	3.73
485.461	3.74
485.811	3.74
486.162	3.73
486.512	3.74
486.862	3.74
487.212	3.73
487.562	3.74
487.912	3.75
488.262	3.75
488.612	3.76
488.961	3.78
489.311	3.78
489.661	3.78
490.011	3.79
490.36	3.78
490.71	3.78
491.06	3.78
491.409	3.79
491.759	3.8
492.108	3.82
492.458	3.83
492.807	3.84
493.157	3.87
493.506	3.9
493.855	3.92
494.204	3.94
494.554	3.97
494.903	3.96
495.252	3.99
495.601	4.04
495.95	4.08
496.299	4.11
496.648	4.15
496.997	4.19
497.346	4.24
497.695	4.31
498.043	4.37
498.392	4.43
498.741	4.48
499.09	4.53
499.438	4.62
499.787	4.72
500.135	4.8
500.484	4.87
500.832	4.97
501.181	5.07
501.529	5.17
501.878	5.31
502.226	5.48
502.574	5.61
502.923	5.74
503.271	5.89
503.619	6.06
503.967	6.23
504.315	6.39
504.663	6.55
505.011	6.76
505.359	6.96
505.707	7.18
506.055	7.4
506.403	7.62
506.751	7.81
507.098	8.02
507.446	8.26
507.794	8.49
508.141	8.72
508.489	8.95
508.837	9.2
509.184	9.43
509.531	9.68
509.879	9.95
510.226	10.24
510.574	10.5
510.921	10.78
511.268	11.05
511.616	11.35
511.963	11.68
512.31	11.96
512.657	12.31
513.004	12.64
513.351	13
513.698	13.4
514.045	13.75
514.392	14.11
514.739	14.5
515.086	14.89
515.432	15.28
515.779	15.62
516.126	15.98
516.473	16.39
516.819	16.75
517.166	17.07
517.512	17.4
517.859	17.72
518.205	18.03
518.552	18.33
518.898	18.62
519.245	18.9
519.591	19.19
519.937	19.44
520.283	19.75
520.629	20.05
520.976	20.34
521.322	20.68
521.668	21.03
522.014	21.38
522.36	21.72
522.706	22.06
523.052	22.45
523.398	22.84
523.743	23.19
524.089	23.55
524.435	23.95
524.781	24.29
525.126	24.62
525.472	24.92
525.817	25.19
526.163	25.43
526.509	25.68
526.854	25.9
527.199	26.11
527.545	26.3
527.89	26.5
528.235	26.69
528.581	26.88
528.926	27.07
529.271	27.24
529.616	27.41
529.961	27.61
530.306	27.82
530.651	27.98
530.996	28.2
531.341	28.38
531.686	28.57
532.031	28.77
532.376	28.94
532.721	29.14
533.065	29.37
533.41	29.62
533.755	29.82
534.099	30.07
534.444	30.3
534.788	30.54
535.133	30.73
535.477	30.93
535.822	31.15
536.166	31.41
536.51	31.65
536.855	31.92
537.199	32.2
537.543	32.47
537.887	32.79
538.231	33.04
538.576	33.34
538.92	33.57
539.264	33.8
539.608	34.05
539.951	34.24
540.295	34.44
540.639	34.59
540.983	34.77
541.327	34.92
541.671	35.08
542.014	35.23
542.358	35.43
542.701	35.61
543.045	35.75
543.389	35.91
543.732	36.06
544.075	36.2
544.419	36.31
544.762	36.44
545.105	36.6
545.449	36.75
545.792	36.91
546.135	37.11
546.478	37.33
546.821	37.53
547.165	37.75
547.508	37.95
547.851	38.16
548.194	38.31
548.536	38.48
548.879	38.67
549.222	38.81
549.565	38.95
549.908	39.13
550.25	39.33
550.593	39.46
550.936	39.59
551.278	39.78
551.621	39.97
551.963	40.13
552.306	40.28
552.648	40.44
552.991	40.58
553.333	40.68
553.675	40.83
554.017	40.99
554.36	41.11
554.702	41.24
555.044	41.39
555.386	41.58
555.728	41.73
556.07	41.87
556.412	42.03
556.754	42.13
557.096	42.19
557.438	42.29
557.78	42.46
558.121	42.67
558.463	42.84
558.805	42.98
559.147	43.12
559.488	43.21
559.83	43.31
560.171	43.41
560.513	43.56
560.854	43.62
561.196	43.63
561.537	43.71
561.878	43.79
562.22	43.87
562.561	43.93
562.902	44.02
563.243	44.12
563.584	44.2
563.925	44.3
564.266	44.4
564.607	44.49
564.948	44.56
565.289	44.61
565.63	44.66
565.971	44.74
566.312	44.79
566.653	44.89
566.993	44.98
567.334	45.06
567.675	45.16
568.015	45.23
568.356	45.38
568.696	45.45
569.037	45.52
569.377	45.59
569.718	45.61
570.058	45.66
570.398	45.68
570.739	45.72
571.079	45.81
571.419	45.89
571.759	45.95
572.099	45.97
572.439	46.04
572.779	46.11
573.119	46.19
573.459	46.25
573.799	46.33
574.139	46.36
574.479	46.41
574.819	46.45
575.158	46.52
575.498	46.62
575.838	46.71
576.177	46.78
576.517	46.89
576.856	47.04
577.196	47.13
577.535	47.25
577.875	47.34
578.214	47.37
578.553	47.45
578.893	47.56
579.232	47.67
579.571	47.8
579.91	47.87
580.25	47.94
580.589	48.03
580.928	48.1
581.267	48.17
581.606	48.23
581.945	48.27
582.283	48.26
582.622	48.26
582.961	48.29
583.3	48.28
583.639	48.31
583.977	48.34
584.316	48.42
584.654	48.48
584.993	48.58
585.332	48.66
585.67	48.7
586.008	48.69
586.347	48.78
586.685	48.77
587.024	48.82
587.362	48.86
587.7	48.91
588.038	48.94
588.376	48.96
588.715	49.03
589.053	49.11
589.391	49.21
589.729	49.33
590.067	49.39
590.404	49.41
590.742	49.42
591.08	49.49
591.418	49.45
591.756	49.48
592.093	49.51
592.431	49.58
592.769	49.61
593.106	49.69
593.444	49.68
593.781	49.74
594.119	49.8
594.456	49.83
594.793	49.84
595.131	49.84
595.468	49.89
595.805	49.92
596.143	49.9
596.48	49.96
596.817	49.92
597.154	49.96
597.491	50.09
597.828	50.13
598.165	50.14
598.502	50.28
598.839	50.35
599.176	50.34
599.512	50.36
599.849	50.42
600.186	50.46
600.523	50.48
600.859	50.49
601.196	50.5
601.532	50.55
601.869	50.63
602.205	50.74
602.542	50.77
602.878	50.8
603.215	50.84
603.551	50.83
603.887	50.84
604.223	50.86
604.56	50.85
604.896	50.94
605.232	51
605.568	51.01
605.904	51.07
606.24	51.16
606.576	51.15
606.912	51.14
607.248	51.22
607.583	51.33
607.919	51.4
608.255	51.42
608.591	51.44
608.926	51.48
609.262	51.48
609.597	51.59
609.933	51.59
610.268	51.64
610.604	51.72
610.939	51.76
611.275	51.85
611.61	51.9
611.945	51.86
612.281	51.83
612.616	51.85
612.951	51.8
613.286	51.85
613.621	51.93
613.956	51.94
614.291	51.93
614.626	51.9
614.961	51.88
615.296	52.01
615.631	52.04
615.966	52.03
616.3	52.01
616.635	52.02
616.97	52.1
617.304	52.11
617.639	52.18
617.973	52.22
618.308	52.13
618.642	52.1
618.977	52.11
619.311	52.25
619.646	52.26
619.98	52.34
620.314	52.34
620.648	52.33
620.983	52.47
621.317	52.48
621.651	52.53
621.985	52.6
622.319	52.62
622.653	52.64
622.987	52.69
623.321	52.71
623.655	52.73
623.988	52.76
624.322	52.75
624.656	52.7
624.99	52.73
625.323	52.78
625.657	52.87
625.99	52.97
626.324	52.87
626.657	52.89
626.991	52.87
627.324	52.86
627.658	52.89
627.991	52.85
628.324	52.79
628.657	52.87
628.991	52.9
629.324	52.94
629.657	53
629.99	53.06
630.323	53.15
630.656	53.19
630.989	53.21
631.322	53.28
631.655	53.37
631.987	53.44
632.32	53.57
632.653	53.58
632.986	53.54
633.318	53.65
633.651	53.64
633.984	53.69
634.316	53.69
634.649	53.8
634.981	53.94
635.313	54.01
635.646	53.93
635.978	53.93
636.31	53.89
636.643	53.92
636.975	53.9
637.307	53.85
637.639	53.85
637.971	53.88
638.303	53.96
638.635	53.89
638.967	53.89
639.299	53.82
639.631	53.77
639.963	53.79
640.295	53.8
640.626	53.94
640.958	53.97
641.29	54.02
641.621	53.95
641.953	53.96
642.285	54.01
642.616	54.11
642.948	54.11
643.279	54.22
643.61	54.27
643.942	54.28
644.273	54.4
644.604	54.3
644.936	54.32
645.267	54.31
645.598	54.39
645.929	54.46
646.26	54.49
646.591	54.54
646.922	54.54
647.253	54.57
647.584	54.5
647.915	54.57
648.245	54.62
648.576	54.64
648.907	54.53
649.238	54.6
649.568	54.56
649.899	54.65
650.229	54.54
650.56	54.5
650.89	54.49
651.221	54.56
651.551	54.66
651.882	54.6
652.212	54.67
652.542	54.58
652.872	54.52
653.203	54.45
653.533	54.61
653.863	54.72
654.193	54.76
654.523	54.71
654.853	54.71
655.183	54.72
655.513	54.7
655.843	54.69
656.172	54.68
656.502	54.66
656.832	54.57
657.162	54.69
657.491	54.61
657.821	54.69
658.15	54.6
658.48	54.6
658.809	54.62
659.139	54.57
659.468	54.59
659.798	54.63
660.127	54.68
660.456	54.56
660.785	54.53
661.115	54.5
661.444	54.65
661.773	54.61
662.102	54.55
662.431	54.6
662.76	54.72
663.089	54.76
663.418	55.04
663.747	55.07
664.076	54.97
664.404	55.07
664.733	55.08
665.062	55.15
665.39	55.25
665.719	55.28
666.048	55.35
666.376	55.41
666.705	55.44
667.033	55.37
667.362	55.47
667.69	55.48
668.018	55.45
668.347	55.37
668.675	55.42
669.003	55.51
669.331	55.51
669.659	55.45
669.987	55.42
670.315	55.18
670.643	55.27
670.971	55.27
671.299	55.35
671.627	55.33
671.955	55.34
672.283	55.32
672.61	55.32
672.938	55.21
673.266	55.28
673.593	55.2
673.921	55.37
674.249	55.25
674.576	55.31
674.904	55.31
675.231	55.31
675.558	55.34
675.886	55.35
676.213	55.39
676.54	55.52
676.867	55.6
677.195	55.64
677.522	55.65
677.849	55.73
678.176	55.8
678.503	55.87
678.83	55.87
679.157	55.91
679.484	55.94
679.81	56.07
680.137	56.08
680.464	56.16
680.791	56.06
681.117	56.19
681.444	56.07
681.771	56.05
682.097	56.19
682.424	56.24
682.75	56.3
683.077	56.35
683.403	56.34
683.729	56.3
684.056	56.28
684.382	56.23
684.708	56.12
685.034	56.04
685.36	55.98
685.686	55.95
686.012	55.91
686.339	55.95
686.664	55.79
686.99	55.85
687.316	55.7
687.642	55.83
687.968	55.68
688.294	55.92
688.619	56.04
688.945	55.93
689.271	55.77
689.596	55.69
689.922	55.58
690.247	55.56
690.573	55.46
690.898	55.46
691.224	55.49
691.549	55.74
691.874	55.67
692.2	55.71
692.525	55.72
692.85	55.62
693.175	55.67
693.5	55.78
693.825	55.65
694.15	55.73
694.475	55.79
694.8	55.94
695.125	55.68
695.45	55.81
695.775	55.85
696.099	55.96
696.424	56.01
696.749	56.07
697.073	55.92
697.398	55.99
697.723	55.91
698.047	55.84
698.372	55.7
698.696	55.75
699.02	55.77
699.345	55.8
699.669	55.94
699.993	55.85
700.318	55.9
700.642	55.96
700.966	55.99
701.29	55.98
701.614	55.98
701.938	56.07
702.262	55.92
702.586	55.86
702.91	55.77
703.234	55.78
703.557	55.97
703.881	56.2
704.205	56.13
704.529	56.21
704.852	56.37
705.176	56.4
705.499	56.22
705.823	56.22
706.146	56.28
706.47	56.12
706.793	56.08
707.117	56.09
707.44	56.12
707.763	56.12
708.086	55.97
708.409	55.95
708.733	55.99
709.056	56.01
709.379	56.22
709.702	56.3
710.025	56.2
710.348	55.97
710.671	55.96
710.993	56.15
711.316	56.19
711.639	56.31
711.962	56.41
712.284	56.55
712.607	56.49
712.93	56.51
713.252	56.75
713.575	56.97
713.897	56.9
714.22	56.96
714.542	56.85
714.864	56.91
715.187	56.82
715.509	56.97
715.831	57.17
716.153	57.02
716.475	57.14
716.798	57.22
717.12	57.39
717.442	57.35
717.764	57.22
718.085	57.22
718.407	57.29
718.729	57.32
719.051	57.49
719.373	57.46
719.695	57.33
720.016	57.16
720.338	56.91
720.659	57
720.981	57.14
721.302	57.44
721.624	57.32
721.945	57.48
722.267	57.32
722.588	56.99
722.909	57.1
723.231	56.86
723.552	56.87
723.873	56.56
724.194	56.75
724.515	56.69
724.836	56.81
725.157	56.68
725.478	56.37
725.799	56.23
726.12	56.19
726.441	56.21
726.762	56.25
727.083	56.52
727.403	56.43
727.724	56.16
728.045	55.97
728.365	56.18
728.686	55.97
729.006	55.96
729.327	55.95
729.647	55.83
729.967	56.11
730.288	56.17
730.608	56.3
730.928	56.14
731.249	56.19
731.569	56.03
731.889	56.02
732.209	56.29
732.529	56.25
732.849	56.59
733.169	56.48
733.489	56.55
733.809	56.16
734.129	56.14
734.448	56.31
734.768	56.31
735.088	56.39
735.408	56.56
735.727	56.68
736.047	56.87
736.366	57.17
736.686	57.23
737.005	56.98
737.325	57.2
737.644	57.17
737.963	57.3
738.283	57.5
738.602	57.51
738.921	57.52
739.24	57.66
739.56	57.24
739.879	57.4
740.198	57.31
740.517	57.51
740.836	57.62
741.155	57.33
741.473	57.55
741.792	57.26
742.111	56.96
742.43	56.64
742.748	56.44
743.067	56.28
743.386	56.29
743.704	56.34
744.023	56.32
744.341	56.45
744.66	56.6
744.978	56.26
745.297	56.02
745.615	55.93
745.933	56.11
746.252	56.43
746.57	56.38
746.888	56.23
747.206	56.16
747.524	56.06
747.842	56.26
748.16	56.55
748.478	56.49
748.796	56.81
749.114	56.86
749.432	56.93
749.749	57.07
750.067	56.61
750.385	56.68
750.703	56.37
751.02	56.09
751.338	55.95
751.655	56
751.973	56.41
752.29	56.64
752.608	56.42
752.925	55.96
753.242	56.08
753.56	56.21
753.877	56.38
754.194	56.51
754.511	56.54
754.828	55.86
755.145	55.91
755.462	55.88
755.779	56.14
756.096	56.04
756.413	55.45
756.73	55.69
757.047	55.76
757.364	55.82
757.68	56.52
757.997	56.72
758.314	57.16
758.63	57.24
758.947	56.92
759.264	56.93
759.58	57.27
759.896	57.45
760.213	57.49
760.529	57.5
760.846	57.49
761.162	57.42
761.478	57.51
761.794	57.51
762.11	57.57
762.426	57.79
762.743	57.83
763.059	58.15
763.375	58.2
763.69	58.19
764.006	58.43
764.322	57.99
764.638	57.9
764.954	57.79
765.27	57.67
765.585	57.82
765.901	57.83
766.216	57.7
766.532	57.61
766.848	57.65
767.163	57.83
767.478	57.73
767.794	57.7
768.109	57.69
768.424	57.63
768.74	57.66
769.055	57.48
769.37	57.75
769.685	57.59
770	58.11
770.315	58.34
770.63	58.29
770.945	58.53
771.26	58.24
771.575	58.42
771.89	58.14
772.205	57.81
772.52	57.8
772.834	58.01
773.149	57.82
773.464	57.78
773.778	57.57
774.093	57.64
774.407	57.84
774.722	58.33
775.036	58.47
775.351	58.97
775.665	59.11
775.979	59
776.293	58.94
776.608	57.74
776.922	57.77
777.236	57.49
777.55	57.56
777.864	57.86
778.178	57.81
778.492	58.53
778.806	58.78
779.12	58.84
779.434	58.96
779.747	59.2
780.061	59.06
780.375	59.25
780.689	59.31
781.002	59.63
781.316	59.51
781.629	59.89
781.943	58.96
782.256	58.27
782.57	58.19
782.883	58.19
783.196	58.53
783.51	57.83
783.823	57.77
784.136	57.26
784.449	57.22
784.762	57.31
785.075	56.85
785.388	56.95
785.701	56.72
786.014	56.48
786.327	56.31
786.64	56.07
786.953	56.16
787.266	55.97
787.578	55.41
787.891	55.33
788.204	55.21
788.516	55.15
788.829	55.61
789.141	55.99
789.454	56.25
789.766	56.33
790.079	56.67
790.391	56.61
790.703	56.89
791.016	56.83
791.328	56.76
791.64	56.52
791.952	56.07
792.264	56.2
792.576	56.17
792.888	56.13
793.2	56.4
793.512	56.33
793.824	56.79
794.136	57.04
794.448	56.94
794.76	56.47
795.071	56.65
795.383	56.54
795.695	55.65
796.006	55.43
796.318	55.29
796.629	55.28
796.941	55.66
797.252	55.7
797.564	55.84
797.875	56.28
798.186	56.08
798.497	56.54
798.809	55.85
799.12	55.87
799.431	56.16
799.742	56.37
800.053	56.04
800.364	55.72
800.675	55.75
800.986	55.36
801.297	56.27
801.608	56.27
801.918	56.25
802.229	56.71
802.54	56.62
802.851	56.74
803.161	57.07
803.472	56.82
803.782	56.42
804.093	56.38
804.403	55.96
804.714	56.53
805.024	56.1
805.334	56.91
805.645	57.49
805.955	57.36
806.265	57.42
806.575	57.43
806.885	57.86
807.195	58.17
807.505	58.21
807.815	57.38
808.125	57.68
808.435	58.04
808.745	57.05
809.055	57.44
809.365	58.02
809.674	57.36
809.984	57.27
810.294	57.84
810.603	58.09
810.913	58.01
811.222	57.63
811.532	58.02
811.841	57.67
812.151	57.62
812.46	57.1
812.769	56.25
813.079	56.97
813.388	56.22
813.697	55.83
814.006	56.11
814.315	55.9
814.624	56.02
814.933	55.54
815.242	55.9
815.551	55.22
815.86	54.6
816.169	55.37
816.478	55.34
816.786	54.74
817.095	54.35
817.404	53.47
817.712	53.65
818.021	54.75
818.33	55.52
818.638	55.71
818.947	56.65
819.255	57.18
819.563	57.08
819.872	57.64
820.18	57.92
820.488	57.95
820.796	58.21
821.105	58.46
821.413	58.55
821.721	58.75
822.029	58.99
822.337	58.93
822.645	59
822.953	59.2
823.26	59.3
823.568	59.44
823.876	59.65
824.184	59.55
824.491	59.26
824.799	59.11
825.107	59.16
825.414	59.1
825.722	59.1
826.029	59.18
826.337	59.05
826.644	59.01
826.951	59.06
827.259	59.11
827.566	58.89
827.873	58.98
828.18	58.93
828.488	58.61
828.795	58.79
829.102	58.48
829.409	58.2
829.716	57.79
830.023	57.45
830.329	57.19
830.636	57.45
830.943	57.56
831.25	57.55
831.557	57.57
831.863	57.29
832.17	57.48
832.476	57.5
832.783	57.55
833.089	57.25
833.396	57.35
833.702	57.17
834.009	57.1
834.315	56.83
834.621	56.78
834.928	57.72
835.234	57.37
835.54	57.16
835.846	57.45
836.152	58.14
836.458	58.24
836.764	58.4
837.07	57.98
837.376	57.65
837.682	57.3
837.988	56.68
838.293	56.48
838.599	56.11
838.905	55.51
839.211	54.83
839.516	54.27
839.822	54.49
840.127	54.75
840.433	54.33
840.738	54.55
841.044	55.11
841.349	53.99
841.654	54.04
841.959	54.23
842.265	53.56
842.57	53.86
842.875	54.16
843.18	54.35
843.485	55.15
843.79	55.3
844.095	56.38
844.4	55.65
844.705	55.17
845.01	54.86
845.315	54.41
845.619	55.2
845.924	55.7
846.229	54.59
846.533	54.24
846.838	54.94
847.142	54.54
847.447	53.56
847.751	53.45
848.056	53.88
848.36	53.96
848.664	53.73
848.969	53.59
849.273	52.43
849.577	52.67
849.881	50.89
850.185	51.57
850.489	50.53
850.794	51.66
851.097	51.17
851.401	53.15
851.705	54.18
852.009	54.06
852.313	53.53
852.617	53.38
852.92	54
853.224	52.88
853.528	52.77
853.831	52.75
854.135	52.67
854.438	52.14
854.742	53.59
855.045	52.13
855.349	49.56
855.652	48.91
855.955	47.8
856.259	48.38
856.562	45.17
856.865	44.07
857.168	44.67
857.471	45.7
857.774	44.83
858.077	44.95
858.38	45.13
858.683	44.96
858.986	45.28
859.289	43.22
859.592	44.46
859.894	46.29
860.197	47.73
860.5	48.67
860.802	49.07
861.105	48.21
861.407	49.06
861.71	51.91
862.012	52.25
862.315	50.27
862.617	49.92
862.919	52.82
863.222	53.43
863.524	53.41
863.826	53.92
864.128	50.04
864.43	47.95
864.732	50.43
865.034	50.61
865.336	50.18
865.638	50.79
865.94	50.25
866.242	49.57
866.544	47.26
866.846	46.57
867.147	46.99
867.449	45.66
867.751	45.53
868.052	45.81
868.354	44.84
868.655	47.27
868.957	48.76
869.258	48.7
869.56	50
869.861	47.57
870.162	50.68
870.463	53.7
870.765	53.97
871.066	51.09
871.367	51.94
871.668	49.4
871.969	48.33
872.27	46.58
872.571	45.42
872.872	47.05
873.173	45.75
873.473	44.46
873.774	44.85
874.075	47.17
874.376	44.93
874.676	49.14
874.977	46.23
875.277	45.42
875.578	45.32
875.878	44.34
876.179	45.91
876.479	42.72
876.78	41.85
877.08	43.44
877.38	42.7
877.68	42.81
877.981	46.28
878.281	47.63
878.581	51.08
