Data from BU26847_Reflection_00007.txt Node
Date: Mon Nov 18 16:40:55 EST 2019
User: vgr7
Spectrometer: USB2G7710
Scans to average: 3
Trigger mode: 4
Integration Time (sec): 2.000000E-2
Electric dark correction enabled: true
Boxcar width: 10
XAxis mode: Wavelengths
Number of Pixels in Spectrum: 2048
>>>>>Begin Spectral Data<<<<<
177.721	65.52
178.105	133.9
178.488	394.12
178.871	-116.22
179.254	-202.33
179.636	82.88
180.019	6.4
180.402	76.32
180.785	1539.02
181.168	1568.75
181.55	5100
181.933	256.36
182.316	204
182.698	251.7
183.081	176.64
183.463	408.06
183.846	309.44
184.228	540.41
184.611	1718.18
184.993	27766.67
185.376	603.55
185.758	-27566.67
186.14	2030.23
186.522	2248.94
186.904	-1405.49
187.287	-1885.07
187.669	-290.3
188.051	-543.12
188.433	-384.76
188.815	-201.71
189.197	-202.71
189.579	-156.64
189.961	-182.5
190.342	-185.5
190.724	-122.84
191.106	-109.43
191.488	-121.84
191.869	-85.1
192.251	-127.66
192.633	-156.54
193.014	-195.77
193.396	-164.37
193.777	-137.61
194.159	-150.31
194.54	-130.04
194.922	-86.71
195.303	-100.54
195.684	-109.08
196.065	-89.68
196.447	-89.11
196.828	-121.6
197.209	-147.67
197.59	-117.8
197.971	-204.92
198.352	-79.96
198.733	-101.63
199.114	-110.92
199.495	-68.24
199.876	-123.26
200.257	-83.83
200.638	-79.56
201.018	-67.38
201.399	-50.2
201.78	-58.62
202.16	-55.32
202.541	-102.8
202.922	-1267.35
203.302	-2141.38
203.683	526.75
204.063	323.97
204.444	430.96
204.824	506.59
205.204	548.89
205.585	593.78
205.965	495.92
206.345	344.22
206.725	291.75
207.106	331.85
207.486	269.88
207.866	246.57
208.246	418.33
208.626	952.76
209.006	415.25
209.386	447.69
209.766	879.01
210.145	881.42
210.525	1370.27
210.905	-1014.65
211.285	-748.65
211.664	-315.14
212.044	-239.76
212.424	-198.01
212.803	-231.59
213.183	-165.23
213.562	-125.42
213.942	-91.99
214.321	-85.4
214.701	-87.6
215.08	-120.87
215.459	-90.21
215.838	-95.38
216.218	-151.6
216.597	-93.92
216.976	-93.26
217.355	-61.72
217.734	-86.95
218.113	-81.1
218.492	-77.7
218.871	-70.58
219.25	-74.8
219.629	-66.22
220.008	-77.93
220.387	-70.15
220.766	-56.47
221.144	-71.02
221.523	-84.19
221.902	-89.19
222.28	-116.86
222.659	-72.66
223.037	-70.59
223.416	-66.53
223.794	-63.77
224.173	-41.96
224.551	-51.08
224.929	-49.81
225.308	-38.53
225.686	-29.54
226.064	-28.24
226.442	-25.66
226.821	-23.77
227.199	-22.31
227.577	-25.03
227.955	-22.34
228.333	-21.94
228.711	-17.25
229.089	-12.55
229.467	-13.08
229.845	-15.37
230.222	-10.45
230.6	-13.68
230.978	-12.03
231.356	-10.73
231.733	-9.55
232.111	-9.05
232.488	-5.51
232.866	-4.75
233.243	-6.89
233.621	-5.99
233.998	-4.74
234.376	-5.81
234.753	-4.5
235.13	-4.15
235.508	-1.9
235.885	-0.83
236.262	-1.52
236.639	-2.74
237.016	-2.59
237.393	-0.79
237.77	0.12
238.147	0.75
238.524	1.31
238.901	1.7
239.278	1.91
239.655	2.84
240.032	3.45
240.409	2.07
240.785	2.35
241.162	3.39
241.539	3.39
241.915	3.56
242.292	3.79
242.668	3.17
243.045	3.38
243.421	3
243.798	2.8
244.174	3.12
244.551	3.43
244.927	3.47
245.303	3.76
245.679	4.2
246.056	4.22
246.432	4.08
246.808	3.94
247.184	3.71
247.56	3.62
247.936	3.45
248.312	3.76
248.688	3.85
249.064	3.67
249.44	3.62
249.815	3.65
250.191	3.74
250.567	3.93
250.943	3.81
251.318	3.99
251.694	4.13
252.069	4.12
252.445	3.86
252.82	3.79
253.196	3.62
253.571	3.19
253.947	2.98
254.322	3.53
254.697	3.37
255.073	3.38
255.448	3.36
255.823	3.31
256.198	3.44
256.573	3.44
256.948	3.82
257.323	3.92
257.698	3.89
258.073	3.86
258.448	4.06
258.823	4.12
259.198	4.03
259.573	3.99
259.948	4
260.322	4.08
260.697	4.06
261.072	4.07
261.446	4
261.821	4.04
262.195	3.97
262.57	4.23
262.944	4.24
263.319	4.23
263.693	4.2
264.067	4.18
264.442	4.28
264.816	4.04
265.19	4.01
265.564	4.1
265.938	4.03
266.313	3.81
266.687	3.81
267.061	3.97
267.435	3.95
267.809	3.98
268.183	4.02
268.556	4.01
268.93	3.94
269.304	4.04
269.678	4.05
270.051	4.06
270.425	3.96
270.799	3.99
271.172	3.95
271.546	3.88
271.919	3.86
272.293	3.64
272.666	3.69
273.04	3.76
273.413	3.72
273.787	3.73
274.16	3.86
274.533	3.77
274.906	3.62
275.279	3.6
275.653	3.49
276.026	3.65
276.399	3.49
276.772	3.54
277.145	3.5
277.518	3.47
277.891	3.31
278.263	3.29
278.636	3.34
279.009	3.28
279.382	3.54
279.755	3.37
280.127	3.74
280.5	3.88
280.872	3.86
281.245	3.83
281.617	3.95
281.99	3.94
282.362	3.96
282.735	3.85
283.107	3.87
283.479	3.99
283.852	3.77
284.224	3.92
284.596	3.92
284.968	3.97
285.34	4.05
285.713	4.09
286.085	4.04
286.457	4.24
286.829	4.33
287.201	4.27
287.572	4.29
287.944	4.07
288.316	3.98
288.688	3.91
289.06	3.85
289.431	3.83
289.803	3.84
290.175	4.01
290.546	4.28
290.918	4.29
291.289	4.16
291.661	4.26
292.032	4.4
292.403	4.38
292.775	4.64
293.146	4.67
293.517	4.67
293.889	4.77
294.26	4.55
294.631	4.56
295.002	4.7
295.373	4.76
295.744	4.86
296.115	4.9
296.486	4.91
296.857	4.91
297.228	5.01
297.599	5.05
297.97	4.96
298.34	5
298.711	5.08
299.082	5.22
299.452	5.22
299.823	5.22
300.194	5.34
300.564	5.16
300.935	5.21
301.305	5.31
301.676	5.42
302.046	5.59
302.416	5.81
302.787	5.7
303.157	5.88
303.527	5.99
303.897	6.02
304.267	6.18
304.637	6.49
305.008	6.47
305.378	6.71
305.748	6.81
306.117	6.71
306.487	6.79
306.857	6.82
307.227	6.9
307.597	6.98
307.967	7.05
308.336	7.12
308.706	7.14
309.076	7.18
309.445	7.13
309.815	7.1
310.184	7.01
310.554	7.16
310.923	7.24
311.293	7.24
311.662	7.3
312.031	7.41
312.401	7.31
312.77	7.24
313.139	7.18
313.508	7.4
313.877	7.6
314.246	7.67
314.616	7.89
314.985	8.18
315.353	8.16
315.722	8.22
316.091	8.35
316.46	8.41
316.829	8.46
317.198	8.73
317.567	8.86
317.935	8.9
318.304	9.11
318.672	8.93
319.041	9.25
319.41	9.33
319.778	9.38
320.147	9.5
320.515	9.61
320.883	9.58
321.252	9.54
321.62	9.53
321.988	9.61
322.357	9.48
322.725	9.35
323.093	9.42
323.461	9.53
323.829	9.59
324.197	9.68
324.565	9.72
324.933	9.67
325.301	9.7
325.669	9.82
326.037	9.76
326.405	10.02
326.772	9.93
327.14	10.12
327.508	10.25
327.875	10.33
328.243	10.5
328.61	10.6
328.978	10.64
329.346	10.68
329.713	10.64
330.08	10.62
330.448	10.52
330.815	10.57
331.182	10.49
331.55	10.64
331.917	10.75
332.284	10.93
332.651	10.97
333.018	11.03
333.385	11.03
333.752	11.16
334.119	11.31
334.486	11.29
334.853	11.24
335.22	11.09
335.587	11.15
335.954	11.21
336.32	11.24
336.687	11.36
337.054	11.36
337.42	11.46
337.787	11.65
338.153	11.77
338.52	11.81
338.886	11.77
339.253	11.78
339.619	11.76
339.986	11.76
340.352	11.81
340.718	11.87
341.084	11.91
341.451	11.92
341.817	11.89
342.183	11.9
342.549	11.99
342.915	12.08
343.281	11.97
343.647	11.94
344.013	11.92
344.379	11.87
344.745	12.02
345.11	12.04
345.476	12.07
345.842	12.14
346.208	12.15
346.573	12.3
346.939	12.3
347.304	12.3
347.67	12.28
348.035	12.33
348.401	12.42
348.766	12.51
349.132	12.46
349.497	12.32
349.862	12.39
350.228	12.38
350.593	12.36
350.958	12.43
351.323	12.48
351.688	12.55
352.053	12.57
352.418	12.51
352.783	12.48
353.148	12.48
353.513	12.54
353.878	12.53
354.243	12.62
354.608	12.52
354.972	12.52
355.337	12.55
355.702	12.55
356.066	12.51
356.431	12.53
356.795	12.56
357.16	12.68
357.524	12.62
357.889	12.5
358.253	12.55
358.618	12.64
358.982	12.61
359.346	12.57
359.71	12.57
360.075	12.5
360.439	12.52
360.803	12.51
361.167	12.45
361.531	12.4
361.895	12.3
362.259	12.27
362.623	12.25
362.987	12.15
363.351	12.12
363.714	12.11
364.078	11.98
364.442	11.88
364.806	11.77
365.169	11.72
365.533	11.81
365.896	11.72
366.26	11.63
366.623	11.65
366.987	11.62
367.35	11.57
367.714	11.62
368.077	11.6
368.44	11.49
368.803	11.54
369.167	11.58
369.53	11.51
369.893	11.52
370.256	11.52
370.619	11.52
370.982	11.44
371.345	11.4
371.708	11.37
372.071	11.31
372.434	11.28
372.797	11.29
373.159	11.12
373.522	11.06
373.885	11.02
374.247	10.89
374.61	10.85
374.973	10.75
375.335	10.66
375.698	10.59
376.06	10.57
376.423	10.42
376.785	10.33
377.147	10.32
377.51	10.24
377.872	10.18
378.234	10.16
378.596	10.11
378.958	10.01
379.321	9.95
379.683	9.97
380.045	9.89
380.407	9.84
380.769	9.81
381.13	9.77
381.492	9.71
381.854	9.66
382.216	9.65
382.578	9.66
382.939	9.55
383.301	9.49
383.663	9.43
384.024	9.41
384.386	9.42
384.747	9.37
385.109	9.35
385.47	9.27
385.832	9.22
386.193	9.19
386.554	9.16
386.916	9.12
387.277	9.04
387.638	9.03
387.999	8.98
388.36	8.97
388.721	8.9
389.082	8.85
389.443	8.83
389.804	8.72
390.165	8.66
390.526	8.68
390.887	8.58
391.248	8.57
391.609	8.5
391.969	8.43
392.33	8.37
392.691	8.31
393.051	8.28
393.412	8.22
393.772	8.18
394.133	8.14
394.493	8.11
394.854	8.08
395.214	8.07
395.574	8.02
395.935	7.96
396.295	7.92
396.655	7.9
397.015	7.85
397.376	7.8
397.736	7.75
398.096	7.68
398.456	7.66
398.816	7.6
399.176	7.53
399.535	7.47
399.895	7.41
400.255	7.38
400.615	7.41
400.975	7.36
401.334	7.34
401.694	7.3
402.054	7.23
402.413	7.18
402.773	7.11
403.132	7.05
403.492	7.01
403.851	6.97
404.211	6.89
404.57	6.82
404.929	6.84
405.288	6.79
405.648	6.74
406.007	6.74
406.366	6.7
406.725	6.72
407.084	6.69
407.443	6.68
407.802	6.65
408.161	6.57
408.52	6.51
408.879	6.48
409.238	6.47
409.596	6.45
409.955	6.41
410.314	6.41
410.673	6.35
411.031	6.35
411.39	6.34
411.748	6.37
412.107	6.39
412.465	6.32
412.824	6.3
413.182	6.29
413.54	6.26
413.899	6.28
414.257	6.25
414.615	6.24
414.974	6.21
415.332	6.21
415.69	6.18
416.048	6.18
416.406	6.16
416.764	6.14
417.122	6.14
417.48	6.13
417.838	6.09
418.195	6.08
418.553	6.04
418.911	6.02
419.269	6
419.626	5.95
419.984	5.93
420.342	5.9
420.699	5.88
421.057	5.87
421.414	5.81
421.772	5.79
422.129	5.77
422.486	5.75
422.844	5.72
423.201	5.69
423.558	5.68
423.915	5.65
424.273	5.63
424.63	5.6
424.987	5.6
425.344	5.58
425.701	5.57
426.058	5.56
426.415	5.52
426.772	5.5
427.128	5.5
427.485	5.5
427.842	5.5
428.199	5.49
428.555	5.47
428.912	5.47
429.269	5.46
429.625	5.45
429.982	5.43
430.338	5.41
430.695	5.43
431.051	5.39
431.407	5.38
431.764	5.39
432.12	5.36
432.476	5.35
432.832	5.34
433.189	5.36
433.545	5.36
433.901	5.37
434.257	5.35
434.613	5.36
434.969	5.36
435.325	5.37
435.681	5.39
436.036	5.38
436.392	5.39
436.748	5.39
437.104	5.35
437.459	5.35
437.815	5.38
438.171	5.35
438.526	5.37
438.882	5.37
439.237	5.36
439.593	5.35
439.948	5.34
440.304	5.34
440.659	5.32
441.014	5.34
441.369	5.34
441.725	5.34
442.08	5.33
442.435	5.32
442.79	5.29
443.145	5.28
443.5	5.28
443.855	5.26
444.21	5.25
444.565	5.26
444.92	5.26
445.275	5.26
445.629	5.26
445.984	5.26
446.339	5.24
446.693	5.21
447.048	5.2
447.403	5.19
447.757	5.19
448.112	5.18
448.466	5.17
448.82	5.17
449.175	5.16
449.529	5.16
449.883	5.13
450.238	5.14
450.592	5.13
450.946	5.11
451.3	5.11
451.654	5.1
452.008	5.1
452.362	5.09
452.716	5.07
453.07	5.04
453.424	5.02
453.778	5.04
454.132	5.06
454.486	5.06
454.839	5.04
455.193	5.02
455.547	5.02
455.9	5
456.254	5.02
456.607	5.01
456.961	4.99
457.314	5
457.668	5.01
458.021	5
458.375	5.01
458.728	5
459.081	5.02
459.434	5.02
459.787	5.02
460.141	5.02
460.494	5.05
460.847	5.07
461.2	5.06
461.553	5.07
461.906	5.08
462.259	5.11
462.611	5.13
462.964	5.15
463.317	5.18
463.67	5.15
464.022	5.17
464.375	5.2
464.728	5.19
465.08	5.22
465.433	5.24
465.785	5.26
466.138	5.28
466.49	5.29
466.843	5.31
467.195	5.32
467.547	5.34
467.899	5.32
468.252	5.31
468.604	5.34
468.956	5.35
469.308	5.37
469.66	5.4
470.012	5.43
470.364	5.42
470.716	5.42
471.068	5.47
471.42	5.47
471.772	5.5
472.123	5.53
472.475	5.53
472.827	5.53
473.178	5.55
473.53	5.53
473.882	5.55
474.233	5.53
474.585	5.53
474.936	5.55
475.288	5.59
475.639	5.63
475.99	5.62
476.342	5.64
476.693	5.64
477.044	5.64
477.395	5.64
477.746	5.64
478.097	5.62
478.448	5.62
478.8	5.65
479.15	5.61
479.501	5.6
479.852	5.6
480.203	5.61
480.554	5.61
480.905	5.63
481.255	5.64
481.606	5.64
481.957	5.65
482.307	5.63
482.658	5.63
483.009	5.63
483.359	5.63
483.709	5.63
484.06	5.62
484.41	5.62
484.761	5.61
485.111	5.61
485.461	5.63
485.811	5.62
486.162	5.61
486.512	5.61
486.862	5.61
487.212	5.61
487.562	5.6
487.912	5.59
488.262	5.59
488.612	5.58
488.961	5.58
489.311	5.59
489.661	5.6
490.011	5.6
490.36	5.6
490.71	5.6
491.06	5.6
491.409	5.6
491.759	5.6
492.108	5.61
492.458	5.62
492.807	5.61
493.157	5.62
493.506	5.64
493.855	5.67
494.204	5.7
494.554	5.73
494.903	5.76
495.252	5.79
495.601	5.82
495.95	5.87
496.299	5.92
496.648	5.94
496.997	5.98
497.346	6.01
497.695	6.05
498.043	6.09
498.392	6.12
498.741	6.17
499.09	6.23
499.438	6.31
499.787	6.39
500.135	6.46
500.484	6.54
500.832	6.61
501.181	6.7
501.529	6.74
501.878	6.8
502.226	6.88
502.574	6.95
502.923	7.04
503.271	7.09
503.619	7.18
503.967	7.27
504.315	7.35
504.663	7.46
505.011	7.54
505.359	7.63
505.707	7.74
506.055	7.83
506.403	7.93
506.751	7.98
507.098	8.03
507.446	8.14
507.794	8.22
508.141	8.32
508.489	8.43
508.837	8.57
509.184	8.69
509.531	8.79
509.879	8.89
510.226	9
510.574	9.13
510.921	9.24
511.268	9.36
511.616	9.47
511.963	9.59
512.31	9.72
512.657	9.85
513.004	9.98
513.351	10.13
513.698	10.28
514.045	10.45
514.392	10.62
514.739	10.77
515.086	10.92
515.432	11.07
515.779	11.21
516.126	11.34
516.473	11.49
516.819	11.63
517.166	11.8
517.512	11.91
517.859	12.04
518.205	12.14
518.552	12.27
518.898	12.4
519.245	12.49
519.591	12.63
519.937	12.76
520.283	12.9
520.629	13.06
520.976	13.19
521.322	13.36
521.668	13.54
522.014	13.69
522.36	13.86
522.706	14.03
523.052	14.22
523.398	14.42
523.743	14.62
524.089	14.85
524.435	15.02
524.781	15.23
525.126	15.41
525.472	15.58
525.817	15.7
526.163	15.83
526.509	15.99
526.854	16.11
527.199	16.24
527.545	16.35
527.89	16.46
528.235	16.56
528.581	16.66
528.926	16.77
529.271	16.9
529.616	17.01
529.961	17.13
530.306	17.23
530.651	17.34
530.996	17.46
531.341	17.56
531.686	17.69
532.031	17.8
532.376	17.92
532.721	18.06
533.065	18.21
533.41	18.37
533.755	18.5
534.099	18.64
534.444	18.8
534.788	18.95
535.133	19.11
535.477	19.28
535.822	19.44
536.166	19.61
536.51	19.77
536.855	19.97
537.199	20.17
537.543	20.38
537.887	20.59
538.231	20.81
538.576	21.03
538.92	21.22
539.264	21.42
539.608	21.6
539.951	21.79
540.295	21.98
540.639	22.15
540.983	22.33
541.327	22.5
541.671	22.62
542.014	22.78
542.358	22.94
542.701	23.08
543.045	23.25
543.389	23.43
543.732	23.62
544.075	23.78
544.419	23.94
544.762	24.12
545.105	24.31
545.449	24.51
545.792	24.71
546.135	24.95
546.478	25.2
546.821	25.47
547.165	25.69
547.508	25.92
547.851	26.17
548.194	26.43
548.536	26.71
548.879	27.02
549.222	27.3
549.565	27.56
549.908	27.84
550.25	28.1
550.593	28.36
550.936	28.65
551.278	28.92
551.621	29.21
551.963	29.51
552.306	29.78
552.648	30.04
552.991	30.42
553.333	30.67
553.675	30.92
554.017	31.16
554.36	31.43
554.702	31.73
555.044	31.99
555.386	32.25
555.728	32.53
556.07	32.83
556.412	33.11
556.754	33.38
557.096	33.7
557.438	34.03
557.78	34.31
558.121	34.52
558.463	34.84
558.805	35.19
559.147	35.49
559.488	35.81
559.83	36.11
560.171	36.3
560.513	36.61
560.854	36.93
561.196	37.19
561.537	37.51
561.878	37.77
562.22	38.03
562.561	38.26
562.902	38.52
563.243	38.73
563.584	38.97
563.925	39.24
564.266	39.45
564.607	39.65
564.948	39.89
565.289	40.14
565.63	40.42
565.971	40.64
566.312	40.84
566.653	41.03
566.993	41.31
567.334	41.55
567.675	41.76
568.015	41.98
568.356	42.19
568.696	42.45
569.037	42.66
569.377	42.89
569.718	43.11
570.058	43.31
570.398	43.54
570.739	43.8
571.079	44
571.419	44.23
571.759	44.48
572.099	44.69
572.439	44.92
572.779	45.17
573.119	45.35
573.459	45.56
573.799	45.78
574.139	45.94
574.479	46.09
574.819	46.26
575.158	46.38
575.498	46.62
575.838	46.77
576.177	46.97
576.517	47.18
576.856	47.39
577.196	47.63
577.535	47.83
577.875	48
578.214	48.19
578.553	48.41
578.893	48.66
579.232	48.86
579.571	49.1
579.91	49.18
580.25	49.41
580.589	49.56
580.928	49.74
581.267	49.88
581.606	50.06
581.945	50.24
582.283	50.54
582.622	50.69
582.961	50.85
583.3	51
583.639	51.19
583.977	51.38
584.316	51.48
584.654	51.64
584.993	51.81
585.332	51.97
585.67	52.1
586.008	52.2
586.347	52.39
586.685	52.53
587.024	52.71
587.362	52.82
587.7	52.96
588.038	53.06
588.376	53.26
588.715	53.43
589.053	53.56
589.391	53.55
589.729	53.7
590.067	53.89
590.404	54.03
590.742	54.13
591.08	54.23
591.418	54.33
591.756	54.46
592.093	54.5
592.431	54.66
592.769	54.74
593.106	54.84
593.444	54.89
593.781	54.91
594.119	54.95
594.456	55.05
594.793	55.14
595.131	55.21
595.468	55.24
595.805	55.33
596.143	55.51
596.48	55.69
596.817	55.76
597.154	55.81
597.491	55.9
597.828	55.98
598.165	56.01
598.502	56.12
598.839	56.13
599.176	56.27
599.512	56.31
599.849	56.41
600.186	56.5
600.523	56.61
600.859	56.74
601.196	56.94
601.532	56.98
601.869	57.09
602.205	57.2
602.542	57.24
602.878	57.31
603.215	57.29
603.551	57.36
603.887	57.39
604.223	57.41
604.56	57.51
604.896	57.54
605.232	57.64
605.568	57.71
605.904	57.83
606.24	57.88
606.576	57.92
606.912	58
607.248	58.1
607.583	58.22
607.919	58.22
608.255	58.17
608.591	58.27
608.926	58.31
609.262	58.41
609.597	58.53
609.933	58.53
610.268	58.55
610.604	58.57
610.939	58.65
611.275	58.65
611.61	58.6
611.945	58.7
612.281	58.73
612.616	58.75
612.951	58.8
613.286	58.85
613.621	58.91
613.956	58.98
614.291	58.91
614.626	58.9
614.961	59.07
615.296	59.18
615.631	59.31
615.966	59.39
616.3	59.43
616.635	59.45
616.97	59.64
617.304	59.79
617.639	59.79
617.973	59.77
618.308	59.87
618.642	60.05
618.977	60
619.311	60.09
619.646	60.06
619.98	60.14
620.314	60.29
620.648	60.34
620.983	60.31
621.317	60.34
621.651	60.28
621.985	60.3
622.319	60.23
622.653	60.15
622.987	60.22
623.321	60.28
623.655	60.26
623.988	60.21
624.322	60.21
624.656	60.29
624.99	60.34
625.323	60.4
625.657	60.36
625.99	60.5
626.324	60.46
626.657	60.55
626.991	60.56
627.324	60.45
627.658	60.51
627.991	60.55
628.324	60.57
628.657	60.66
628.991	60.63
629.324	60.69
629.657	60.71
629.99	60.67
630.323	60.63
630.656	60.63
630.989	60.72
631.322	60.83
631.655	60.92
631.987	60.88
632.32	60.86
632.653	60.84
632.986	60.75
633.318	60.71
633.651	60.64
633.984	60.6
634.316	60.63
634.649	60.65
634.981	60.65
635.313	60.66
635.646	60.69
635.978	60.75
636.31	60.83
636.643	61
636.975	61.12
637.307	61.17
637.639	61.26
637.971	61.26
638.303	61.14
638.635	61.17
638.967	61.26
639.299	61.27
639.631	61.34
639.963	61.48
640.295	61.65
640.626	61.73
640.958	61.7
641.29	61.77
641.621	61.74
641.953	61.84
642.285	61.87
642.616	61.84
642.948	61.85
643.279	61.76
643.61	61.71
643.942	61.69
644.273	61.63
644.604	61.68
644.936	61.7
645.267	61.75
645.598	61.59
645.929	61.65
646.26	61.78
646.591	61.79
646.922	61.71
647.253	61.85
647.584	61.87
647.915	61.89
648.245	61.9
648.576	61.99
648.907	62
649.238	62.08
649.568	62.15
649.899	62.1
650.229	62.03
650.56	62.04
650.89	61.96
651.221	62.04
651.551	62.02
651.882	62.03
652.212	61.93
652.542	61.96
652.872	62
653.203	61.93
653.533	61.95
653.863	62.08
654.193	62
654.523	61.95
654.853	62.02
655.183	62.07
655.513	62.1
655.843	62.08
656.172	62.13
656.502	62.23
656.832	62.21
657.162	62.42
657.491	62.42
657.821	62.46
658.15	62.41
658.48	62.44
658.809	62.38
659.139	62.47
659.468	62.59
659.798	62.56
660.127	62.59
660.456	62.73
660.785	62.6
661.115	62.66
661.444	62.74
661.773	62.83
662.102	62.77
662.431	62.68
662.76	62.78
663.089	62.74
663.418	62.64
663.747	62.69
664.076	62.6
664.404	62.69
664.733	62.78
665.062	62.76
665.39	62.86
665.719	62.94
666.048	62.96
666.376	62.82
666.705	62.79
667.033	62.77
667.362	62.69
667.69	62.64
668.018	62.51
668.347	62.43
668.675	62.38
669.003	62.59
669.331	62.69
669.659	62.65
669.987	62.59
670.315	62.58
670.643	62.69
670.971	62.66
671.299	62.54
671.627	62.41
671.955	62.44
672.283	62.34
672.61	62.32
672.938	62.38
673.266	62.45
673.593	62.54
673.921	62.53
674.249	62.5
674.576	62.7
674.904	62.72
675.231	62.87
675.558	62.85
675.886	62.73
676.213	62.67
676.54	62.62
676.867	62.79
677.195	62.79
677.522	62.81
677.849	63.04
678.176	63.24
678.503	63.3
678.83	63.32
679.157	63.42
679.484	63.42
679.81	63.33
680.137	63.33
680.464	63.39
680.791	63.31
681.117	63.37
681.444	63.25
681.771	63.21
682.097	63.25
682.424	63.32
682.75	63.31
683.077	63.27
683.403	63.3
683.729	63.08
684.056	63.11
684.382	63.12
684.708	62.92
685.034	62.84
685.36	62.88
685.686	62.84
686.012	62.7
686.339	62.73
686.664	62.81
686.99	62.91
687.316	62.85
687.642	63.05
687.968	62.9
688.294	63.09
688.619	63.1
688.945	63.14
689.271	63.12
689.596	63.03
689.922	63.17
690.247	63.13
690.573	63.33
690.898	63.34
691.224	63.26
691.549	63.36
691.874	63.16
692.2	63.04
692.525	62.96
692.85	62.96
693.175	63.04
693.5	63.06
693.825	62.95
694.15	63.04
694.475	62.98
694.8	63.19
695.125	63.01
695.45	62.96
695.775	62.96
696.099	63.03
696.424	63.03
696.749	63.08
697.073	63.08
697.398	63.14
697.723	63.21
698.047	63.19
698.372	63.12
698.696	63.26
699.02	63.26
699.345	63.35
699.669	63.4
699.993	63.44
700.318	63.42
700.642	63.51
700.966	63.45
701.29	63.54
701.614	63.35
701.938	63.45
702.262	63.5
702.586	63.46
702.91	63.38
703.234	63.42
703.557	63.39
703.881	63.22
704.205	63.19
704.529	63.07
704.852	63.13
705.176	63.21
705.499	63.06
705.823	63.2
706.146	63.29
706.47	63.24
706.793	63.15
707.117	63.27
707.44	63.22
707.763	63.31
708.086	63.09
708.409	63.1
708.733	62.87
709.056	62.92
709.379	62.93
709.702	62.98
710.025	62.98
710.348	62.76
710.671	63.03
710.993	63.07
711.316	63.12
711.639	63.15
711.962	63.08
712.284	63.25
712.607	63.27
712.93	63.46
713.252	63.5
713.575	63.43
713.897	63.38
714.22	63.36
714.542	63.26
714.864	63.25
715.187	63.45
715.509	63.77
715.831	63.9
716.153	63.73
716.475	63.88
716.798	63.87
717.12	64
717.442	63.95
717.764	63.81
718.085	63.85
718.407	63.6
718.729	63.84
719.051	63.5
719.373	63.28
719.695	63.05
720.016	63.08
720.338	63.17
720.659	63.31
720.981	63.32
721.302	63.15
721.624	63.17
721.945	63.08
722.267	62.99
722.588	62.92
722.909	63.18
723.231	63.06
723.552	63.25
723.873	63.2
724.194	63.17
724.515	63.3
724.836	63.19
725.157	63.17
725.478	63.15
725.799	63.37
726.12	63.47
726.441	63.55
726.762	63.56
727.083	63.47
727.403	63.34
727.724	63.29
728.045	63.39
728.365	63.26
728.686	63.14
729.006	63
729.327	62.98
729.647	62.79
729.967	62.74
730.288	62.73
730.608	62.56
730.928	62.53
731.249	62.34
731.569	62.5
731.889	62.84
732.209	62.83
732.529	62.87
732.849	62.9
733.169	62.9
733.489	62.84
733.809	62.85
734.129	62.89
734.448	62.72
734.768	62.88
735.088	62.93
735.408	62.88
735.727	62.77
736.047	62.57
736.366	62.74
736.686	62.82
737.005	62.82
737.325	63.13
737.644	63.28
737.963	63.54
738.283	63.52
738.602	63.32
738.921	63.18
739.24	63.34
739.56	63.28
739.879	63.11
740.198	62.85
740.517	62.9
740.836	62.76
741.155	63.13
741.473	63
741.792	63.24
742.111	63.53
742.43	63.85
742.748	64.1
743.067	64.17
743.386	63.69
743.704	63.48
744.023	63.48
744.341	63.28
744.66	63.57
744.978	63.29
745.297	63.32
745.615	63.42
745.933	63.51
746.252	63.67
746.57	63.74
746.888	63.89
747.206	63.97
747.524	63.87
747.842	63.8
748.16	63.99
748.478	63.69
748.796	63.6
749.114	63.68
749.432	63.62
749.749	63.44
750.067	63.89
750.385	63.94
750.703	64.05
751.02	64.49
751.338	64.4
751.655	64.28
751.973	64.45
752.29	64.68
752.608	64.38
752.925	64.12
753.242	64.45
753.56	64.44
753.877	64.18
754.194	64.29
754.511	64.16
754.828	64.21
755.145	64.49
755.462	64.2
755.779	64.2
756.096	64.16
756.413	64.29
756.73	63.93
757.047	64.05
757.364	63.8
757.68	63.53
757.997	63.35
758.314	63.84
758.63	63.7
758.947	63.41
759.264	63.17
759.58	63.15
759.896	63.03
760.213	63.31
760.529	63.27
760.846	63.24
761.162	63.52
761.478	63.54
761.794	63.4
762.11	63.53
762.426	63.23
762.743	63.26
763.059	63.06
763.375	63.14
763.69	63.05
764.006	63.24
764.322	63.43
764.638	63.47
764.954	63.2
765.27	63.2
765.585	63.3
765.901	63.73
766.216	63.94
766.532	64.07
766.848	64.17
767.163	64.5
767.478	64.53
767.794	64.37
768.109	64.16
768.424	64.29
768.74	64.43
769.055	64.62
769.37	64.68
769.685	64.64
770	64.9
770.315	64.81
770.63	64.59
770.945	64.3
771.26	64.22
771.575	64.65
771.89	64.79
772.205	64.46
772.52	64.23
772.834	64.06
773.149	63.28
773.464	63.02
773.778	62.67
774.093	62.81
774.407	62.85
774.722	62.6
775.036	62.75
775.351	62.92
775.665	63.14
775.979	63.26
776.293	63.47
776.608	63.58
776.922	63.92
777.236	64.05
777.55	63.88
777.864	64.09
778.178	64.14
778.492	64.06
778.806	64.01
779.12	64.26
779.434	64.17
779.747	64.52
780.061	64.5
780.375	64.22
780.689	64.64
781.002	64.7
781.316	64.8
781.629	65.02
781.943	64.72
782.256	64.28
782.57	64.37
782.883	64.55
783.196	64.38
783.51	64.36
783.823	64.36
784.136	64.96
784.449	64.75
784.762	64.76
785.075	64.77
785.388	64.8
785.701	64.73
786.014	65.2
786.327	65.41
786.64	65.4
786.953	65.61
787.266	64.95
787.578	64.96
787.891	65.28
788.204	64.46
788.516	64.74
788.829	64.82
789.141	64.97
789.454	64.68
789.766	64.23
790.079	64.57
790.391	64.47
790.703	63.76
791.016	63.78
791.328	63.32
791.64	63.3
791.952	63.45
792.264	63.05
792.576	62.42
792.888	62.15
793.2	62.64
793.512	63.1
793.824	63.29
794.136	63.55
794.448	63.7
794.76	63.99
795.071	63.45
795.383	63.16
795.695	62.74
796.006	62.34
796.318	62.74
796.629	62.26
796.941	62.38
797.252	63.11
797.564	63.19
797.875	63.48
798.186	63.16
798.497	63.61
798.809	63.38
799.12	63.88
799.431	64.05
799.742	63.54
800.053	63.19
800.364	63.22
800.675	62.85
800.986	62.39
801.297	62.26
801.608	62.43
801.918	63.14
802.229	63.77
802.54	63.89
802.851	64.02
803.161	64.02
803.472	64.02
803.782	63.76
804.093	63.28
804.403	63.14
804.714	63.74
805.024	63.27
805.334	63.67
805.645	63.58
805.955	63.63
806.265	63.67
806.575	63.17
806.885	63.08
807.195	62.89
807.505	62.23
807.815	62.21
808.125	62.98
808.435	63.3
808.745	62.56
809.055	63.38
809.365	63.03
809.674	63.06
809.984	62.55
810.294	62.38
810.603	62.64
810.913	63.25
811.222	62.79
811.532	63.69
811.841	64.55
812.151	64.86
812.46	64.69
812.769	64.41
813.079	65.19
813.388	64.89
813.697	64.92
814.006	65.17
814.315	65.89
814.624	65.5
814.933	64.98
815.242	64.48
815.551	63.92
815.86	64.38
816.169	64.51
816.478	65.28
816.786	66.2
817.095	66.6
817.404	65.53
817.712	65.91
818.021	65.42
818.33	64.95
818.638	65.42
818.947	65.77
819.255	66.49
819.563	66.29
819.872	66.42
820.18	66.71
820.488	66.9
820.796	66.46
821.105	66.51
821.413	66.28
821.721	66.39
822.029	66.44
822.337	66.58
822.645	66.67
822.953	66.54
823.26	66.31
823.568	66.26
823.876	66.49
824.184	66.56
824.491	66.72
824.799	66.57
825.107	66.38
825.414	66.26
825.722	65.94
826.029	65.98
826.337	66.01
826.644	65.89
826.951	65.87
827.259	65.83
827.566	65.6
827.873	65.5
828.18	65.43
828.488	65.26
828.795	64.89
829.102	64.62
829.409	64.21
829.716	63.91
830.023	63.61
830.329	63.12
830.636	63.06
830.943	62.22
831.25	62.31
831.557	62.27
831.863	62.6
832.17	62.5
832.476	62.15
832.783	61.69
833.089	60.98
833.396	61.17
833.702	61.43
834.009	61.99
834.315	62.23
834.621	62.13
834.928	62.63
835.234	62.32
835.54	61.91
835.846	62.47
836.152	62.76
836.458	63.22
836.764	63.56
837.07	63
837.376	62.89
837.682	62.18
837.988	61.17
838.293	61.01
838.599	61.1
838.905	60.95
839.211	60.76
839.516	61.16
839.822	60.42
840.127	60.29
840.433	59.7
840.738	60.09
841.044	61.15
841.349	60.69
841.654	62.12
841.959	63.24
842.265	62.51
842.57	61.85
842.875	61.73
843.18	61.37
843.485	62.3
843.79	63.55
844.095	65.63
844.4	67.85
844.705	67.34
845.01	67.87
845.315	67.1
845.619	68
845.924	67.86
846.229	67.22
846.533	65.69
846.838	63.72
847.142	63.09
847.447	61.83
847.751	60.92
848.056	59.76
848.36	59.22
848.664	59.8
848.969	60.3
849.273	58.08
849.577	58.32
849.881	58.09
850.185	59.24
850.489	58.01
850.794	57.83
851.097	58.09
851.401	58.25
851.705	60.13
852.009	60.29
852.313	62.43
852.617	65.58
852.92	69.05
853.224	70.88
853.528	69.85
853.831	68.8
854.135	70.03
854.438	70.61
854.742	69.56
855.045	70.46
855.349	72.54
855.652	75.92
855.955	74.5
856.259	74.79
856.562	72.83
856.865	73.26
857.168	72.02
857.471	70.23
857.774	73.09
858.077	73.18
858.38	72.48
858.683	70.17
858.986	68.9
859.289	66.67
859.592	64.39
859.894	65.7
860.197	65.04
860.5	64.5
860.802	63.27
861.105	63.55
861.407	62.85
861.71	61.84
862.012	61.24
862.315	61.32
862.617	58.18
862.919	56.73
863.222	56.8
863.524	57.19
863.826	58.06
864.128	55.1
864.43	54.67
864.732	53.67
865.034	54.24
865.336	51.94
865.638	51.02
865.94	51.44
866.242	51.7
866.544	52.22
866.846	53.58
867.147	53.6
867.449	52.1
867.751	52.42
868.052	53.79
868.354	52.62
868.655	53.52
868.957	54.25
869.258	53.88
869.56	52.94
869.861	50.2
870.162	50.5
870.463	49.31
870.765	51.11
871.066	55.03
871.367	56.67
871.668	57.81
871.969	58.7
872.27	56.69
872.571	57.59
872.872	60.01
873.173	58.91
873.473	58.81
873.774	60.95
874.075	63.33
874.376	60.46
874.676	61.62
874.977	61.73
875.277	61.6
875.578	66.21
875.878	66.31
876.179	69.41
876.479	69.77
876.78	71.39
877.08	70.04
877.38	67.9
877.68	66.37
877.981	67.7
878.281	68.52
878.581	75.61
