Data from BU26851_Reflection_00013.txt Node
Date: Mon Nov 18 16:48:32 EST 2019
User: vgr7
Spectrometer: USB2G7710
Scans to average: 3
Trigger mode: 4
Integration Time (sec): 2.000000E-2
Electric dark correction enabled: true
Boxcar width: 10
XAxis mode: Wavelengths
Number of Pixels in Spectrum: 2048
>>>>>Begin Spectral Data<<<<<
177.721	132.46
178.105	-62.16
178.488	973.42
178.871	38.02
179.254	49.15
179.636	60.08
180.019	-1069.49
180.402	125
180.785	23.53
181.168	290.3
181.55	918.18
181.933	199.47
182.316	247.74
182.698	183.4
183.081	265.35
183.463	-1786.6
183.846	-791.37
184.228	-9093.55
184.611	1590.32
184.993	5438.98
185.376	516.55
185.758	783.3
186.14	1568.62
186.522	1305.79
186.904	-8900
187.287	1980.38
187.669	-1976.92
188.051	1710.84
188.433	-2809.77
188.815	-296.94
189.197	-260.53
189.579	-183.25
189.961	-139.26
190.342	-74.65
190.724	-68.74
191.106	-142.08
191.488	-373.68
191.869	338.94
192.251	-138.75
192.633	372.73
193.014	265.35
193.396	-15.25
193.777	-108.46
194.159	-93.22
194.54	-19.44
194.922	161.22
195.303	147.02
195.684	-115.47
196.065	246.58
196.447	320.45
196.828	-24.65
197.209	149.72
197.59	-831.03
197.971	235.48
198.352	-144.3
198.733	15.77
199.114	22.87
199.495	-29.39
199.876	-12.3
200.257	-21.19
200.638	-26.58
201.018	-39.1
201.399	19.14
201.78	11.38
202.16	16.7
202.541	14.78
202.922	-10.61
203.302	-53.63
203.683	-35.96
204.063	-130.77
204.444	-164.17
204.824	-103.45
205.204	-67.85
205.585	-72.5
205.965	-73.73
206.345	-151.52
206.725	-413.25
207.106	-840.83
207.486	676.35
207.866	570.38
208.246	121.96
208.626	119.26
209.006	661.29
209.386	1024.32
209.766	2873.58
210.145	221.72
210.525	79.02
210.905	25.21
211.285	126.55
211.664	64.09
212.044	101.79
212.424	104.44
212.803	75.23
213.183	40.16
213.562	15.91
213.942	39.74
214.321	47.22
214.701	39.9
215.08	32.91
215.459	37.62
215.838	48.41
216.218	48.58
216.597	50.48
216.976	49.69
217.355	43.34
217.734	35.17
218.113	21.89
218.492	3.43
218.871	15.95
219.25	13.58
219.629	9.55
220.008	0.25
220.387	0.71
220.766	1.92
221.144	6.13
221.523	20.27
221.902	-1.84
222.28	-8.53
222.659	2.65
223.037	-0.4
223.416	-12.78
223.794	-13.61
224.173	-15.45
224.551	-15.37
224.929	-6.64
225.308	-2.52
225.686	4.93
226.064	3.94
226.442	2.77
226.821	-1.04
227.199	-7.07
227.577	-8.25
227.955	-9.47
228.333	-10.75
228.711	-5.47
229.089	-0.54
229.467	-2.68
229.845	-2.73
230.222	-3.64
230.6	-3.22
230.978	-1.71
231.356	2.32
231.733	2.12
232.111	0.8
232.488	3.75
232.866	3.61
233.243	5.85
233.621	3.88
233.998	4.71
234.376	2.92
234.753	4.11
235.13	7.04
235.508	8.03
235.885	8.81
236.262	8.71
236.639	6.76
237.016	5.56
237.393	8.44
237.77	8.6
238.147	9.23
238.524	8.05
238.901	7.59
239.278	6.57
239.655	6.66
240.032	6.61
240.409	5.57
240.785	5.23
241.162	4.28
241.539	4.62
241.915	4.91
242.292	5.04
242.668	4.76
243.045	4.65
243.421	4.57
243.798	4.04
244.174	3.82
244.551	3.72
244.927	3.62
245.303	3.44
245.679	3.54
246.056	3.51
246.432	3.48
246.808	3.47
247.184	3.29
247.56	3.06
247.936	3.1
248.312	3.05
248.688	3.02
249.064	3.09
249.44	3
249.815	2.79
250.191	2.88
250.567	2.73
250.943	2.49
251.318	2.4
251.694	2.47
252.069	2.43
252.445	2.66
252.82	2.64
253.196	2.41
253.571	2.21
253.947	1.75
254.322	2.03
254.697	2.09
255.073	2.47
255.448	2.61
255.823	2.58
256.198	2.81
256.573	2.74
256.948	2.94
257.323	2.97
257.698	3.01
258.073	3.12
258.448	3.19
258.823	3.06
259.198	2.94
259.573	2.99
259.948	3.01
260.322	3.04
260.697	2.98
261.072	2.97
261.446	2.96
261.821	3
262.195	2.95
262.57	2.82
262.944	2.86
263.319	2.88
263.693	2.89
264.067	2.82
264.442	3.01
264.816	2.8
265.19	2.73
265.564	2.71
265.938	2.43
266.313	2.44
266.687	2.53
267.061	2.82
267.435	2.75
267.809	2.89
268.183	2.68
268.556	2.71
268.93	2.78
269.304	2.7
269.678	2.78
270.051	2.75
270.425	2.97
270.799	2.76
271.172	2.62
271.546	2.59
271.919	2.57
272.293	2.47
272.666	2.63
273.04	2.69
273.413	2.6
273.787	2.77
274.16	2.6
274.533	2.84
274.906	2.74
275.279	2.63
275.653	2.48
276.026	2.5
276.399	2.46
276.772	2.46
277.145	2.48
277.518	2.45
277.891	2.37
278.263	2.27
278.636	2.34
279.009	2.55
279.382	2.79
279.755	2.9
280.127	2.97
280.5	2.88
280.872	2.83
281.245	3.02
281.617	3.04
281.99	3.13
282.362	2.98
282.735	2.85
283.107	3.1
283.479	3.22
283.852	3.1
284.224	3.16
284.596	3.15
284.968	3.2
285.34	3.3
285.713	3.35
286.085	3.34
286.457	3.37
286.829	3.4
287.201	3.38
287.572	3.24
287.944	3.15
288.316	3.3
288.688	3.35
289.06	3.2
289.431	3.18
289.803	3.15
290.175	3.18
290.546	3.43
290.918	3.36
291.289	3.38
291.661	3.58
292.032	3.7
292.403	3.65
292.775	3.74
293.146	3.76
293.517	3.81
293.889	3.95
294.26	3.98
294.631	3.89
295.002	3.82
295.373	3.99
295.744	4.08
296.115	4.08
296.486	4.03
296.857	4.18
297.228	4.3
297.599	4.42
297.97	4.47
298.34	4.29
298.711	4.32
299.082	4.31
299.452	4.32
299.823	4.5
300.194	4.63
300.564	4.6
300.935	4.59
301.305	4.7
301.676	4.73
302.046	4.7
302.416	4.76
302.787	4.81
303.157	4.77
303.527	4.79
303.897	4.9
304.267	5.06
304.637	5
305.008	5.06
305.378	5.23
305.748	5.27
306.117	5.45
306.487	5.58
306.857	5.73
307.227	5.97
307.597	5.78
307.967	5.69
308.336	5.81
308.706	5.94
309.076	5.99
309.445	6.05
309.815	6.17
310.184	6.21
310.554	6.27
310.923	6.48
311.293	6.52
311.662	6.45
312.031	6.29
312.401	6.35
312.77	6.4
313.139	6.43
313.508	6.52
313.877	6.52
314.246	6.57
314.616	6.6
314.985	6.48
315.353	6.46
315.722	6.6
316.091	6.59
316.46	6.52
316.829	6.71
317.198	6.78
317.567	6.81
317.935	6.85
318.304	6.93
318.672	6.86
319.041	7.03
319.41	7.19
319.778	7.47
320.147	7.56
320.515	7.57
320.883	7.34
321.252	7.38
321.62	7.52
321.988	7.58
322.357	7.53
322.725	7.63
323.093	7.84
323.461	7.92
323.829	8.21
324.197	8.31
324.565	8.2
324.933	8.28
325.301	8.29
325.669	8.44
326.037	8.42
326.405	8.54
326.772	8.64
327.14	8.62
327.508	8.71
327.875	8.79
328.243	8.79
328.61	8.95
328.978	9.15
329.346	9.18
329.713	9.05
330.08	9.06
330.448	9.11
330.815	9.02
331.182	9.05
331.55	8.96
331.917	9.07
332.284	9.2
332.651	9.06
333.018	9.13
333.385	9.2
333.752	9.21
334.119	9.32
334.486	9.16
334.853	9.17
335.22	9.22
335.587	9.21
335.954	9.25
336.32	9.37
336.687	9.34
337.054	9.47
337.42	9.6
337.787	9.69
338.153	9.7
338.52	9.81
338.886	9.85
339.253	9.86
339.619	9.9
339.986	9.83
340.352	9.97
340.718	10.04
341.084	10.03
341.451	10.15
341.817	10.24
342.183	10.37
342.549	10.36
342.915	10.48
343.281	10.51
343.647	10.47
344.013	10.47
344.379	10.43
344.745	10.39
345.11	10.47
345.476	10.47
345.842	10.51
346.208	10.43
346.573	10.44
346.939	10.54
347.304	10.46
347.67	10.4
348.035	10.49
348.401	10.52
348.766	10.59
349.132	10.53
349.497	10.4
349.862	10.5
350.228	10.59
350.593	10.5
350.958	10.56
351.323	10.7
351.688	10.72
352.053	10.73
352.418	10.79
352.783	10.71
353.148	10.73
353.513	10.72
353.878	10.82
354.243	10.88
354.608	10.78
354.972	10.87
355.337	10.89
355.702	10.78
356.066	10.81
356.431	10.68
356.795	10.71
357.16	10.65
357.524	10.57
357.889	10.53
358.253	10.56
358.618	10.53
358.982	10.51
359.346	10.41
359.71	10.37
360.075	10.27
360.439	10.35
360.803	10.26
361.167	10.29
361.531	10.27
361.895	10.2
362.259	10.23
362.623	10.17
362.987	10.2
363.351	10.22
363.714	10.13
364.078	10.1
364.442	10.07
364.806	10.06
365.169	10.06
365.533	10.04
365.896	9.95
366.26	9.9
366.623	9.86
366.987	9.95
367.35	9.97
367.714	9.98
368.077	9.88
368.44	9.9
368.803	9.78
369.167	9.69
369.53	9.64
369.893	9.61
370.256	9.63
370.619	9.56
370.982	9.53
371.345	9.5
371.708	9.45
372.071	9.36
372.434	9.31
372.797	9.17
373.159	9.09
373.522	9.16
373.885	9.13
374.247	9.08
374.61	8.93
374.973	8.82
375.335	8.78
375.698	8.76
376.06	8.68
376.423	8.58
376.785	8.61
377.147	8.56
377.51	8.47
377.872	8.38
378.234	8.32
378.596	8.32
378.958	8.28
379.321	8.23
379.683	8.23
380.045	8.16
380.407	8.12
380.769	8.08
381.13	7.9
381.492	7.79
381.854	7.7
382.216	7.73
382.578	7.68
382.939	7.54
383.301	7.48
383.663	7.46
384.024	7.49
384.386	7.46
384.747	7.45
385.109	7.47
385.47	7.41
385.832	7.36
386.193	7.27
386.554	7.19
386.916	7.19
387.277	7.18
387.638	7.19
387.999	7.16
388.36	7.11
388.721	7.1
389.082	7.1
389.443	7.06
389.804	7.04
390.165	7
390.526	7.04
390.887	6.98
391.248	6.96
391.609	6.93
391.969	6.86
392.33	6.81
392.691	6.71
393.051	6.65
393.412	6.62
393.772	6.57
394.133	6.58
394.493	6.52
394.854	6.43
395.214	6.39
395.574	6.36
395.935	6.31
396.295	6.28
396.655	6.25
397.015	6.18
397.376	6.07
397.736	6.02
398.096	5.95
398.456	5.94
398.816	5.89
399.176	5.81
399.535	5.73
399.895	5.67
400.255	5.64
400.615	5.61
400.975	5.56
401.334	5.5
401.694	5.44
402.054	5.42
402.413	5.41
402.773	5.35
403.132	5.31
403.492	5.29
403.851	5.29
404.211	5.24
404.57	5.24
404.929	5.26
405.288	5.26
405.648	5.25
406.007	5.22
406.366	5.18
406.725	5.19
407.084	5.19
407.443	5.17
407.802	5.18
408.161	5.19
408.52	5.14
408.879	5.15
409.238	5.13
409.596	5.12
409.955	5.1
410.314	5.09
410.673	5.05
411.031	5.03
411.39	4.98
411.748	4.97
412.107	4.94
412.465	4.91
412.824	4.86
413.182	4.79
413.54	4.79
413.899	4.79
414.257	4.78
414.615	4.75
414.974	4.73
415.332	4.67
415.69	4.62
416.048	4.61
416.406	4.57
416.764	4.54
417.122	4.51
417.48	4.47
417.838	4.46
418.195	4.47
418.553	4.46
418.911	4.45
419.269	4.43
419.626	4.42
419.984	4.39
420.342	4.39
420.699	4.39
421.057	4.36
421.414	4.34
421.772	4.3
422.129	4.29
422.486	4.28
422.844	4.27
423.201	4.24
423.558	4.23
423.915	4.22
424.273	4.2
424.63	4.18
424.987	4.15
425.344	4.14
425.701	4.11
426.058	4.08
426.415	4.05
426.772	4.04
427.128	4.02
427.485	4
427.842	3.97
428.199	3.97
428.555	3.95
428.912	3.94
429.269	3.95
429.625	3.94
429.982	3.92
430.338	3.89
430.695	3.91
431.051	3.88
431.407	3.88
431.764	3.87
432.12	3.86
432.476	3.87
432.832	3.86
433.189	3.86
433.545	3.86
433.901	3.86
434.257	3.88
434.613	3.89
434.969	3.89
435.325	3.87
435.681	3.88
436.036	3.88
436.392	3.87
436.748	3.85
437.104	3.86
437.459	3.86
437.815	3.87
438.171	3.87
438.526	3.87
438.882	3.88
439.237	3.9
439.593	3.91
439.948	3.9
440.304	3.91
440.659	3.89
441.014	3.9
441.369	3.9
441.725	3.89
442.08	3.89
442.435	3.89
442.79	3.91
443.145	3.89
443.5	3.86
443.855	3.86
444.21	3.86
444.565	3.84
444.92	3.84
445.275	3.83
445.629	3.84
445.984	3.82
446.339	3.79
446.693	3.77
447.048	3.77
447.403	3.77
447.757	3.77
448.112	3.76
448.466	3.74
448.82	3.73
449.175	3.71
449.529	3.69
449.883	3.66
450.238	3.64
450.592	3.63
450.946	3.63
451.3	3.61
451.654	3.6
452.008	3.61
452.362	3.58
452.716	3.59
453.07	3.57
453.424	3.59
453.778	3.6
454.132	3.59
454.486	3.57
454.839	3.57
455.193	3.56
455.547	3.57
455.9	3.57
456.254	3.58
456.607	3.59
456.961	3.6
457.314	3.59
457.668	3.6
458.021	3.6
458.375	3.62
458.728	3.62
459.081	3.65
459.434	3.63
459.787	3.64
460.141	3.64
460.494	3.63
460.847	3.63
461.2	3.62
461.553	3.64
461.906	3.64
462.259	3.66
462.611	3.66
462.964	3.68
463.317	3.69
463.67	3.68
464.022	3.67
464.375	3.65
464.728	3.69
465.08	3.7
465.433	3.74
465.785	3.74
466.138	3.77
466.49	3.78
466.843	3.79
467.195	3.81
467.547	3.83
467.899	3.84
468.252	3.86
468.604	3.9
468.956	3.91
469.308	3.93
469.66	3.92
470.012	3.95
470.364	3.95
470.716	3.96
471.068	3.99
471.42	4
471.772	4.03
472.123	4.05
472.475	4.06
472.827	4.05
473.178	4.07
473.53	4.06
473.882	4.05
474.233	4.07
474.585	4.05
474.936	4.06
475.288	4.06
475.639	4.08
475.99	4.07
476.342	4.07
476.693	4.09
477.044	4.1
477.395	4.08
477.746	4.07
478.097	4.06
478.448	4.08
478.8	4.09
479.15	4.08
479.501	4.06
479.852	4.06
480.203	4.07
480.554	4.06
480.905	4.06
481.255	4.06
481.606	4.06
481.957	4.06
482.307	4.06
482.658	4.07
483.009	4.06
483.359	4.07
483.709	4.06
484.06	4.04
484.41	4.05
484.761	4.05
485.111	4.06
485.461	4.06
485.811	4.05
486.162	4.05
486.512	4.05
486.862	4.05
487.212	4.04
487.562	4.04
487.912	4.04
488.262	4.04
488.612	4.05
488.961	4.04
489.311	4.05
489.661	4.05
490.011	4.05
490.36	4.05
490.71	4.05
491.06	4.06
491.409	4.08
491.759	4.07
492.108	4.08
492.458	4.09
492.807	4.1
493.157	4.1
493.506	4.11
493.855	4.13
494.204	4.16
494.554	4.19
494.903	4.22
495.252	4.24
495.601	4.27
495.95	4.3
496.299	4.35
496.648	4.37
496.997	4.43
497.346	4.46
497.695	4.51
498.043	4.53
498.392	4.56
498.741	4.6
499.09	4.63
499.438	4.7
499.787	4.76
500.135	4.82
500.484	4.88
500.832	4.94
501.181	5
501.529	5.05
501.878	5.12
502.226	5.16
502.574	5.22
502.923	5.26
503.271	5.33
503.619	5.41
503.967	5.49
504.315	5.56
504.663	5.66
505.011	5.73
505.359	5.84
505.707	5.93
506.055	6.02
506.403	6.12
506.751	6.17
507.098	6.24
507.446	6.32
507.794	6.4
508.141	6.51
508.489	6.6
508.837	6.72
509.184	6.8
509.531	6.89
509.879	6.99
510.226	7.13
510.574	7.22
510.921	7.31
511.268	7.39
511.616	7.51
511.963	7.61
512.31	7.73
512.657	7.84
513.004	7.96
513.351	8.09
513.698	8.22
514.045	8.35
514.392	8.49
514.739	8.63
515.086	8.74
515.432	8.86
515.779	8.98
516.126	9.1
516.473	9.23
516.819	9.36
517.166	9.47
517.512	9.57
517.859	9.71
518.205	9.81
518.552	9.94
518.898	10.03
519.245	10.12
519.591	10.22
519.937	10.32
520.283	10.43
520.629	10.55
520.976	10.68
521.322	10.8
521.668	10.94
522.014	11.08
522.36	11.26
522.706	11.42
523.052	11.6
523.398	11.78
523.743	11.95
524.089	12.1
524.435	12.27
524.781	12.44
525.126	12.57
525.472	12.72
525.817	12.85
526.163	12.94
526.509	13.06
526.854	13.17
527.199	13.29
527.545	13.37
527.89	13.47
528.235	13.56
528.581	13.68
528.926	13.78
529.271	13.89
529.616	13.98
529.961	14.09
530.306	14.19
530.651	14.28
530.996	14.39
531.341	14.52
531.686	14.63
532.031	14.77
532.376	14.93
532.721	15.09
533.065	15.21
533.41	15.4
533.755	15.53
534.099	15.68
534.444	15.83
534.788	15.99
535.133	16.14
535.477	16.29
535.822	16.44
536.166	16.62
536.51	16.82
536.855	17.01
537.199	17.19
537.543	17.38
537.887	17.61
538.231	17.84
538.576	18.07
538.92	18.29
539.264	18.48
539.608	18.65
539.951	18.81
540.295	19
540.639	19.16
540.983	19.35
541.327	19.52
541.671	19.7
542.014	19.86
542.358	20.03
542.701	20.21
543.045	20.37
543.389	20.52
543.732	20.66
544.075	20.86
544.419	21.04
544.762	21.24
545.105	21.43
545.449	21.63
545.792	21.83
546.135	22.06
546.478	22.31
546.821	22.54
547.165	22.79
547.508	23.03
547.851	23.27
548.194	23.48
548.536	23.74
548.879	24.01
549.222	24.27
549.565	24.55
549.908	24.83
550.25	25.11
550.593	25.39
550.936	25.66
551.278	25.91
551.621	26.17
551.963	26.44
552.306	26.68
552.648	26.95
552.991	27.22
553.333	27.42
553.675	27.66
554.017	27.9
554.36	28.16
554.702	28.41
555.044	28.66
555.386	28.89
555.728	29.12
556.07	29.34
556.412	29.59
556.754	29.81
557.096	30.05
557.438	30.34
557.78	30.61
558.121	30.91
558.463	31.19
558.805	31.51
559.147	31.76
559.488	32.01
559.83	32.26
560.171	32.47
560.513	32.75
560.854	32.93
561.196	33.21
561.537	33.43
561.878	33.64
562.22	33.93
562.561	34.23
562.902	34.47
563.243	34.72
563.584	34.92
563.925	35.18
564.266	35.34
564.607	35.54
564.948	35.73
565.289	35.94
565.63	36.14
565.971	36.33
566.312	36.53
566.653	36.69
566.993	36.87
567.334	37.08
567.675	37.24
568.015	37.46
568.356	37.61
568.696	37.81
569.037	38.05
569.377	38.17
569.718	38.33
570.058	38.52
570.398	38.66
570.739	38.85
571.079	38.97
571.419	39.19
571.759	39.38
572.099	39.59
572.439	39.75
572.779	39.87
573.119	40
573.459	40.13
573.799	40.26
574.139	40.41
574.479	40.58
574.819	40.76
575.158	40.9
575.498	41.06
575.838	41.2
576.177	41.26
576.517	41.44
576.856	41.58
577.196	41.68
577.535	41.81
577.875	41.96
578.214	42.1
578.553	42.24
578.893	42.37
579.232	42.51
579.571	42.64
579.91	42.79
580.25	42.95
580.589	43.09
580.928	43.32
581.267	43.48
581.606	43.63
581.945	43.7
582.283	43.8
582.622	43.97
582.961	44.1
583.3	44.26
583.639	44.38
583.977	44.47
584.316	44.57
584.654	44.77
584.993	44.93
585.332	45.08
585.67	45.17
586.008	45.21
586.347	45.28
586.685	45.36
587.024	45.53
587.362	45.57
587.7	45.58
588.038	45.68
588.376	45.78
588.715	45.83
589.053	45.96
589.391	46.07
589.729	46.13
590.067	46.16
590.404	46.35
590.742	46.45
591.08	46.63
591.418	46.75
591.756	46.87
592.093	46.93
592.431	46.99
592.769	47.18
593.106	47.28
593.444	47.32
593.781	47.44
594.119	47.48
594.456	47.59
594.793	47.74
595.131	47.81
595.468	47.86
595.805	47.9
596.143	48.01
596.48	48.04
596.817	48.14
597.154	48.26
597.491	48.24
597.828	48.27
598.165	48.26
598.502	48.32
598.839	48.3
599.176	48.34
599.512	48.39
599.849	48.37
600.186	48.48
600.523	48.59
600.859	48.69
601.196	48.79
601.532	48.78
601.869	48.83
602.205	48.9
602.542	49
602.878	49.05
603.215	49
603.551	49.07
603.887	49.08
604.223	49.14
604.56	49.27
604.896	49.25
605.232	49.38
605.568	49.42
605.904	49.51
606.24	49.61
606.576	49.67
606.912	49.76
607.248	49.84
607.583	49.87
607.919	49.93
608.255	49.93
608.591	50.06
608.926	50.15
609.262	50.22
609.597	50.24
609.933	50.36
610.268	50.49
610.604	50.51
610.939	50.59
611.275	50.64
611.61	50.64
611.945	50.82
612.281	50.83
612.616	50.89
612.951	50.91
613.286	50.98
613.621	51.07
613.956	51.1
614.291	50.96
614.626	50.99
614.961	50.97
615.296	51.03
615.631	51.06
615.966	51.07
616.3	51.09
616.635	51.14
616.97	51.17
617.304	51.23
617.639	51.35
617.973	51.31
618.308	51.33
618.642	51.3
618.977	51.31
619.311	51.29
619.646	51.41
619.98	51.43
620.314	51.44
620.648	51.41
620.983	51.42
621.317	51.54
621.651	51.62
621.985	51.74
622.319	51.76
622.653	51.86
622.987	51.9
623.321	51.96
623.655	51.99
623.988	51.97
624.322	51.92
624.656	51.87
624.99	51.92
625.323	51.92
625.657	51.93
625.99	51.88
626.324	51.94
626.657	51.92
626.991	52
627.324	51.99
627.658	52.03
627.991	52.13
628.324	52.19
628.657	52.16
628.991	52.1
629.324	52.12
629.657	52.08
629.99	52.14
630.323	52.04
630.656	51.97
630.989	51.97
631.322	52.04
631.655	52.15
631.987	52.19
632.32	52.13
632.653	52.2
632.986	52.33
633.318	52.31
633.651	52.39
633.984	52.39
634.316	52.42
634.649	52.51
634.981	52.49
635.313	52.56
635.646	52.63
635.978	52.61
636.31	52.64
636.643	52.58
636.975	52.55
637.307	52.65
637.639	52.73
637.971	52.74
638.303	52.82
638.635	52.81
638.967	52.79
639.299	52.97
639.631	52.89
639.963	52.84
640.295	52.84
640.626	52.79
640.958	52.72
641.29	52.77
641.621	52.72
641.953	52.67
642.285	52.59
642.616	52.61
642.948	52.75
643.279	52.74
643.61	52.78
643.942	52.81
644.273	52.92
644.604	52.95
644.936	53.11
645.267	53.06
645.598	53.01
645.929	53.02
646.26	53
646.591	53.09
646.922	53.1
647.253	53.18
647.584	53.17
647.915	53.17
648.245	53.24
648.576	53.28
648.907	53.43
649.238	53.51
649.568	53.6
649.899	53.57
650.229	53.69
650.56	53.73
650.89	53.76
651.221	53.66
651.551	53.61
651.882	53.56
652.212	53.59
652.542	53.7
652.872	53.72
653.203	53.67
653.533	53.59
653.863	53.53
654.193	53.54
654.523	53.55
654.853	53.6
655.183	53.61
655.513	53.58
655.843	53.62
656.172	53.61
656.502	53.63
656.832	53.65
657.162	53.66
657.491	53.74
657.821	53.66
658.15	53.78
658.48	53.88
658.809	53.87
659.139	53.99
659.468	54.07
659.798	54.12
660.127	54.21
660.456	54.33
660.785	54.44
661.115	54.43
661.444	54.44
661.773	54.56
662.102	54.49
662.431	54.55
662.76	54.46
663.089	54.49
663.418	54.43
663.747	54.43
664.076	54.42
664.404	54.37
664.733	54.59
665.062	54.58
665.39	54.55
665.719	54.57
666.048	54.46
666.376	54.33
666.705	54.39
667.033	54.43
667.362	54.44
667.69	54.46
668.018	54.48
668.347	54.55
668.675	54.51
669.003	54.59
669.331	54.62
669.659	54.66
669.987	54.67
670.315	54.77
670.643	54.87
670.971	54.85
671.299	55.01
671.627	54.87
671.955	54.76
672.283	54.71
672.61	54.7
672.938	54.62
673.266	54.64
673.593	54.66
673.921	54.69
674.249	54.8
674.576	54.77
674.904	54.69
675.231	54.76
675.558	54.74
675.886	54.75
676.213	54.7
676.54	54.76
676.867	54.89
677.195	54.91
677.522	54.88
677.849	54.86
678.176	54.83
678.503	55.03
678.83	55.08
679.157	55.09
679.484	55.08
679.81	55.16
680.137	55.11
680.464	55.12
680.791	55.06
681.117	54.94
681.444	54.91
681.771	54.99
682.097	54.9
682.424	54.93
682.75	54.95
683.077	55.02
683.403	54.92
683.729	54.74
684.056	54.68
684.382	54.62
684.708	54.73
685.034	54.75
685.36	54.5
685.686	54.42
686.012	54.65
686.339	54.76
686.664	54.72
686.99	54.9
687.316	54.79
687.642	54.87
687.968	54.95
688.294	55.06
688.619	55.13
688.945	55.12
689.271	55.18
689.596	55.08
689.922	55.12
690.247	55.21
690.573	55.31
690.898	55.39
691.224	55.37
691.549	55.38
691.874	55.29
692.2	55.6
692.525	55.92
692.85	55.67
693.175	55.68
693.5	55.63
693.825	55.59
694.15	55.57
694.475	55.55
694.8	55.67
695.125	55.84
695.45	55.72
695.775	55.76
696.099	55.61
696.424	55.71
696.749	55.66
697.073	55.69
697.398	55.78
697.723	55.81
698.047	55.89
698.372	55.94
698.696	56
699.02	55.93
699.345	55.87
699.669	55.96
699.993	55.91
700.318	56.11
700.642	56.01
700.966	56.09
701.29	56.01
701.614	55.84
701.938	55.83
702.262	56.01
702.586	56.14
702.91	56.34
703.234	56.45
703.557	56.63
703.881	56.62
704.205	56.57
704.529	56.4
704.852	56.47
705.176	56.52
705.499	56.4
705.823	56.22
706.146	56.08
706.47	56.04
706.793	56
707.117	55.9
707.44	56.06
707.763	56.11
708.086	56.07
708.409	56.09
708.733	55.93
709.056	55.94
709.379	56.05
709.702	55.88
710.025	55.65
710.348	55.58
710.671	55.68
710.993	55.7
711.316	55.86
711.639	55.93
711.962	55.7
712.284	55.75
712.607	56.07
712.93	56.2
713.252	56.21
713.575	56.36
713.897	56.3
714.22	56.49
714.542	56.41
714.864	56.56
715.187	56.54
715.509	56.38
715.831	56.48
716.153	56.16
716.475	56.09
716.798	56.2
717.12	56.14
717.442	56.08
717.764	55.93
718.085	55.92
718.407	55.62
718.729	55.92
719.051	55.97
719.373	55.68
719.695	55.47
720.016	55.39
720.338	55.29
720.659	55.5
720.981	55.21
721.302	55.16
721.624	55.18
721.945	55.47
722.267	55.7
722.588	55.44
722.909	55.61
723.231	55.76
723.552	55.79
723.873	55.67
724.194	55.66
724.515	55.74
724.836	55.57
725.157	55.96
725.478	55.69
725.799	55.74
726.12	55.9
726.441	56.27
726.762	56.52
727.083	56.26
727.403	56.23
727.724	56.1
728.045	56.26
728.365	56.17
728.686	56.12
729.006	56.22
729.327	56.18
729.647	56.23
729.967	56.46
730.288	56.33
730.608	56.45
730.928	56.49
731.249	56.33
731.569	56.54
731.889	56.5
732.209	56.65
732.529	56.77
732.849	56.76
733.169	56.61
733.489	56.27
733.809	56.55
734.129	56.53
734.448	56.8
734.768	56.85
735.088	57.02
735.408	57.05
735.727	57.01
736.047	56.99
736.366	56.96
736.686	56.87
737.005	57.08
737.325	56.86
737.644	56.8
737.963	56.87
738.283	56.95
738.602	56.9
738.921	56.79
739.24	56.78
739.56	56.81
739.879	56.81
740.198	57
740.517	56.79
740.836	56.72
741.155	56.6
741.473	56.7
741.792	56.58
742.111	56.51
742.43	56.47
742.748	56.72
743.067	56.74
743.386	56.58
743.704	56.63
744.023	57.04
744.341	57.28
744.66	57.62
744.978	57.42
745.297	57.3
745.615	57.43
745.933	56.93
746.252	56.9
746.57	56.59
746.888	56.72
747.206	56.82
747.524	56.97
747.842	57.28
748.16	57.05
748.478	57.18
748.796	57.05
749.114	57.04
749.432	57.03
749.749	57.13
750.067	56.99
750.385	57.03
750.703	56.82
751.02	56.47
751.338	56.3
751.655	56.44
751.973	56.41
752.29	56.37
752.608	56.72
752.925	56.76
753.242	57.27
753.56	57.23
753.877	57.18
754.194	56.93
754.511	56.66
754.828	56.74
755.145	56.63
755.462	56.66
755.779	56.58
756.096	56.68
756.413	57.01
756.73	57.36
757.047	57.31
757.364	57.3
757.68	57.65
757.997	57.54
758.314	57.52
758.63	57.35
758.947	57.08
759.264	57.05
759.58	56.97
759.896	56.79
760.213	57
760.529	57.04
760.846	56.86
761.162	56.84
761.478	57.08
761.794	56.93
762.11	57.06
762.426	57.3
762.743	57.19
763.059	57
763.375	56.99
763.69	56.87
764.006	57.07
764.322	56.82
764.638	56.9
764.954	56.88
765.27	57.07
765.585	57.2
765.901	57.14
766.216	57.05
766.532	57.03
766.848	56.97
767.163	57.19
767.478	57.46
767.794	57.34
768.109	57.19
768.424	57.26
768.74	57.2
769.055	56.79
769.37	56.72
769.685	56.8
770	56.82
770.315	56.65
770.63	56.55
770.945	56.79
771.26	56.75
771.575	56.72
771.89	56.91
772.205	56.78
772.52	57.05
772.834	57.52
773.149	57.48
773.464	57.23
773.778	56.74
774.093	57.03
774.407	57.26
774.722	57.16
775.036	57.46
775.351	57.63
775.665	57.94
775.979	58.2
776.293	57.82
776.608	58.14
776.922	58.71
777.236	58.52
777.55	58.21
777.864	58.5
778.178	58.41
778.492	58.39
778.806	58.9
779.12	58.8
779.434	58.25
779.747	58.15
780.061	58.69
780.375	58.93
780.689	58.85
781.002	58.66
781.316	59.13
781.629	58.82
781.943	58.62
782.256	58.8
782.57	58.7
782.883	58.53
783.196	57.52
783.51	57.26
783.823	57.5
784.136	58.1
784.449	58.16
784.762	58.02
785.075	58.07
785.388	57.83
785.701	58.22
786.014	58.5
786.327	58.87
786.64	58.24
786.953	58.45
787.266	58.03
787.578	58.24
787.891	58.33
788.204	58.14
788.516	58.8
788.829	58.62
789.141	59.15
789.454	59.58
789.766	60.44
790.079	60.57
790.391	60.43
790.703	60
791.016	59.52
791.328	60.27
791.64	59.83
791.952	59.96
792.264	59.54
792.576	59.24
792.888	58.84
793.2	59.02
793.512	58.74
793.824	58.94
794.136	58.65
794.448	58.4
794.76	58.13
795.071	57.37
795.383	57.51
795.695	56.98
796.006	56.88
796.318	56.66
796.629	56.75
796.941	56.57
797.252	56.76
797.564	57.47
797.875	57.34
798.186	57
798.497	56.68
798.809	56.5
799.12	56.93
799.431	57.44
799.742	57.8
800.053	58.04
800.364	57.92
800.675	57.96
800.986	57.46
801.297	57.48
801.608	57.58
801.918	57.3
802.229	57.45
802.54	57.42
802.851	57.42
803.161	57.18
803.472	57.28
803.782	57.14
804.093	56.67
804.403	56.24
804.714	56.7
805.024	56.41
805.334	56.4
805.645	56.62
805.955	56.37
806.265	56.35
806.575	56.24
806.885	56.67
807.195	57.42
807.505	57.82
807.815	58.36
808.125	58.16
808.435	58.3
808.745	58.09
809.055	57.65
809.365	57.32
809.674	56.88
809.984	57.06
810.294	56.78
810.603	57.61
810.913	57.56
811.222	57.9
811.532	58.68
811.841	58.93
812.151	58.88
812.46	58.41
812.769	58.05
813.079	58.63
813.388	58.69
813.697	58.21
814.006	56.93
814.315	57.39
814.624	57.13
814.933	57.15
815.242	57.34
815.551	57.61
815.86	58.26
816.169	58.68
816.478	58.57
816.786	58.72
817.095	57.97
817.404	58.12
817.712	57.87
818.021	57.27
818.33	56.82
818.638	56.82
818.947	57.46
819.255	57.61
819.563	57.77
819.872	57.93
820.18	57.65
820.488	58.16
820.796	58.05
821.105	58.48
821.413	58.36
821.721	58.29
822.029	58.28
822.337	58.23
822.645	58.25
822.953	58.29
823.26	58.27
823.568	58.21
823.876	58.27
824.184	58.3
824.491	58.43
824.799	58.42
825.107	58.46
825.414	58.4
825.722	58.31
826.029	58.07
826.337	58
826.644	58.2
826.951	58.21
827.259	58.14
827.566	57.8
827.873	57.99
828.18	58.02
828.488	58.15
828.795	57.97
829.102	58.17
829.409	58.14
829.716	58.26
830.023	58.53
830.329	58.34
830.636	58.38
830.943	57.97
831.25	58
831.557	57.89
831.863	57.75
832.17	57.66
832.476	58
832.783	58.47
833.089	58.09
833.396	58.47
833.702	59.09
834.009	59.25
834.315	59.11
834.621	58.97
834.928	59.03
835.234	59.65
835.54	58.77
835.846	59.08
836.152	58.97
836.458	58.76
836.764	58.81
837.07	59.05
837.376	59.45
837.682	60.04
837.988	60.18
838.293	59.45
838.599	60.15
838.905	59.68
839.211	57.65
839.516	57.65
839.822	57.19
840.127	56.1
840.433	56.48
840.738	56.14
841.044	56.15
841.349	55.53
841.654	55.01
841.959	55.33
842.265	55.24
842.57	55.31
842.875	55.58
843.18	55.43
843.485	54.58
843.79	53.97
844.095	53.66
844.4	53.36
844.705	53.86
845.01	53.38
845.315	53.86
845.619	56.33
845.924	55.95
846.229	55.87
846.533	55.75
846.838	55.26
847.142	55.93
847.447	55.73
847.751	56.96
848.056	55.86
848.36	59.14
848.664	59.41
848.969	57.86
849.273	56.8
849.577	57
849.881	58.25
850.185	59.79
850.489	59.96
850.794	60.2
851.097	60.65
851.401	59.28
851.705	61.04
852.009	59.17
852.313	61.3
852.617	61.19
852.92	62.13
853.224	61.03
853.528	58.98
853.831	57.64
854.135	57.43
854.438	57.55
854.742	53.93
855.045	52.28
855.349	53.3
855.652	51.68
855.955	50.58
856.259	47.74
856.562	48.63
856.865	48.55
857.168	49
857.471	50.92
857.774	51.65
858.077	50.54
858.38	53.27
858.683	52.23
858.986	51.8
859.289	51.84
859.592	53.59
859.894	55.06
860.197	58.87
860.5	57
860.802	57.16
861.105	57.48
861.407	57.17
861.71	57.24
862.012	60.59
862.315	62.29
862.617	64.19
862.919	63.17
863.222	62.72
863.524	62.01
863.826	62.35
864.128	64.68
864.43	63.68
864.732	63.42
865.034	64.07
865.336	63.64
865.638	62.66
865.94	61.45
866.242	59.47
866.544	54.91
866.846	55.15
867.147	55.68
867.449	56.49
867.751	58.7
868.052	59.74
868.354	58.72
868.655	58.74
868.957	58.45
869.258	57.06
869.56	57.48
869.861	55.68
870.162	52.9
870.463	51.53
870.765	53.7
871.066	50.36
871.367	50.3
871.668	52.33
871.969	53.08
872.27	53.28
872.571	54.23
872.872	57.45
873.173	58.71
873.473	57.88
873.774	58.07
874.075	56.83
874.376	57.13
874.676	56.1
874.977	54.94
875.277	57.58
875.578	59.65
875.878	58.89
876.179	60.89
876.479	63.7
876.78	63.39
877.08	61.13
877.38	63.96
877.68	63.95
877.981	62.92
878.281	62.6
878.581	63.23
