Data from BU26849_Reflection_00013.txt Node
Date: Mon Nov 18 16:43:29 EST 2019
User: vgr7
Spectrometer: USB2G7710
Scans to average: 3
Trigger mode: 4
Integration Time (sec): 2.000000E-2
Electric dark correction enabled: true
Boxcar width: 10
XAxis mode: Wavelengths
Number of Pixels in Spectrum: 2048
>>>>>Begin Spectral Data<<<<<
177.721	-1.57
178.105	19.47
178.488	13.81
178.871	30.32
179.254	31.89
179.636	18.46
180.019	6.72
180.402	12.9
180.785	-56.03
181.168	-487.38
181.55	-393.56
181.933	29.23
182.316	58.96
182.698	61.03
183.081	73.99
183.463	86.51
183.846	72.46
184.228	81.3
184.611	107.03
184.993	172.93
185.376	117.66
185.758	41.79
186.14	57.84
186.522	98.69
186.904	94.64
187.287	62.76
187.669	308.21
188.051	-789.76
188.433	-165.87
188.815	-65.86
189.197	-132.18
189.579	-123.4
189.961	-56.87
190.342	-44.21
190.724	-10.99
191.106	-14.62
191.488	-10.26
191.869	1.21
192.251	-0.97
192.633	-6.03
193.014	11.9
193.396	-17.12
193.777	-6.26
194.159	-2.99
194.54	1.72
194.922	13.42
195.303	5.44
195.684	25.09
196.065	38.13
196.447	31.61
196.828	17.49
197.209	29.59
197.59	34.79
197.971	30.01
198.352	40.22
198.733	24.74
199.114	23.2
199.495	25.64
199.876	8.98
200.257	-2.06
200.638	5.65
201.018	-3.47
201.399	4.85
201.78	-4.82
202.16	-14.87
202.541	-30.6
202.922	-39.43
203.302	-53.71
203.683	-76.93
204.063	-106.19
204.444	-100.89
204.824	-87.4
205.204	-61.74
205.585	-64.24
205.965	-60.2
206.345	-71.83
206.725	-83.43
207.106	-117.8
207.486	-133.15
207.866	-124.49
208.246	-126.19
208.626	-156.27
209.006	-148.88
209.386	-198.89
209.766	-185.91
210.145	-119.33
210.525	-94.91
210.905	-73.77
211.285	-48.98
211.664	-34.03
212.044	-6.96
212.424	-2.25
212.803	-16.45
213.183	-41.67
213.562	-10.11
213.942	-18.12
214.321	-20.21
214.701	-37.84
215.08	-20.9
215.459	7.47
215.838	-1.85
216.218	-20.98
216.597	-2.2
216.976	-2.14
217.355	0.1
217.734	-4.28
218.113	-3.57
218.492	-1.29
218.871	-14.91
219.25	-19.8
219.629	-30.94
220.008	-44.17
220.387	-43.42
220.766	-30.13
221.144	-32.53
221.523	-49.44
221.902	-58.54
222.28	-75
222.659	-49.92
223.037	-47.36
223.416	-46.2
223.794	-44.41
224.173	-31.4
224.551	-38.91
224.929	-38.04
225.308	-32.01
225.686	-24.68
226.064	-24.38
226.442	-23.84
226.821	-17.99
227.199	-14.08
227.577	-14.85
227.955	-14.04
228.333	-13.75
228.711	-12.56
229.089	-7.74
229.467	-6.01
229.845	-4.58
230.222	0.25
230.6	-1.54
230.978	-2.52
231.356	-3.43
231.733	-1.5
232.111	-0.55
232.488	1.41
232.866	1.71
233.243	2.62
233.621	2.03
233.998	4.61
234.376	6.56
234.753	4.74
235.13	4.12
235.508	8.5
235.885	8.98
236.262	8.12
236.639	8.03
237.016	5.83
237.393	8.2
237.77	10.1
238.147	9.4
238.524	8.84
238.901	8.55
239.278	8.73
239.655	7.89
240.032	7.98
240.409	6.98
240.785	6.66
241.162	6.14
241.539	5.65
241.915	4.96
242.292	3.9
242.668	4.66
243.045	4.64
243.421	3.87
243.798	3.66
244.174	3.47
244.551	3.55
244.927	3.5
245.303	3.31
245.679	3.03
246.056	3.1
246.432	3.06
246.808	2.9
247.184	2.6
247.56	2.4
247.936	2.32
248.312	2.66
248.688	2.92
249.064	2.8
249.44	2.96
249.815	3.11
250.191	3.43
250.567	3.23
250.943	3.34
251.318	3.56
251.694	3.81
252.069	3.93
252.445	4.13
252.82	4.22
253.196	4.3
253.571	4.1
253.947	4.05
254.322	4.37
254.697	4.34
255.073	4.51
255.448	4.62
255.823	4.09
256.198	3.73
256.573	3.64
256.948	3.84
257.323	3.69
257.698	3.38
258.073	3.21
258.448	3.36
258.823	3.38
259.198	3.4
259.573	3.31
259.948	3.33
260.322	3.27
260.697	3.23
261.072	3.15
261.446	3.2
261.821	3
262.195	2.93
262.57	3.02
262.944	2.96
263.319	2.83
263.693	3.12
264.067	3.39
264.442	3.36
264.816	3.37
265.19	3.44
265.564	3.57
265.938	3.4
266.313	3.15
266.687	3
267.061	2.94
267.435	3.07
267.809	3
268.183	2.95
268.556	2.86
268.93	2.77
269.304	2.66
269.678	2.87
270.051	2.75
270.425	2.7
270.799	2.74
271.172	2.79
271.546	2.6
271.919	2.44
272.293	2.29
272.666	2.34
273.04	2.26
273.413	2.17
273.787	2.41
274.16	2.42
274.533	2.35
274.906	2.27
275.279	2.08
275.653	2.11
276.026	2.07
276.399	2.26
276.772	2.33
277.145	2.41
277.518	2.45
277.891	2.7
278.263	2.73
278.636	2.69
279.009	2.8
279.382	3.03
279.755	2.9
280.127	3.16
280.5	2.94
280.872	3.19
281.245	3.16
281.617	3.16
281.99	3.31
282.362	3.39
282.735	3.38
283.107	3.46
283.479	3.4
283.852	3.51
284.224	3.54
284.596	3.57
284.968	3.57
285.34	3.49
285.713	3.38
286.085	3.45
286.457	3.49
286.829	3.46
287.201	3.26
287.572	3.26
287.944	3.12
288.316	3.21
288.688	3.06
289.06	3.17
289.431	3.11
289.803	3.15
290.175	3.22
290.546	3.41
290.918	3.46
291.289	3.55
291.661	3.55
292.032	3.57
292.403	3.61
292.775	3.64
293.146	3.65
293.517	3.67
293.889	3.77
294.26	3.73
294.631	3.74
295.002	3.77
295.373	3.82
295.744	3.93
296.115	3.95
296.486	3.85
296.857	3.88
297.228	4.06
297.599	3.98
297.97	4.04
298.34	3.97
298.711	4.06
299.082	4.05
299.452	4.01
299.823	3.84
300.194	3.87
300.564	3.85
300.935	3.92
301.305	3.85
301.676	3.8
302.046	3.93
302.416	4.04
302.787	4.24
303.157	4.34
303.527	4.26
303.897	4.42
304.267	4.65
304.637	4.75
305.008	4.66
305.378	4.88
305.748	4.85
306.117	4.9
306.487	4.96
306.857	5.04
307.227	5.11
307.597	5.38
307.967	5.55
308.336	5.68
308.706	5.69
309.076	5.86
309.445	5.93
309.815	5.9
310.184	5.79
310.554	5.79
310.923	5.77
311.293	5.97
311.662	5.98
312.031	6.15
312.401	6.17
312.77	6.21
313.139	6.25
313.508	6.26
313.877	6.31
314.246	6.33
314.616	6.28
314.985	6.17
315.353	6.25
315.722	6.19
316.091	6.25
316.46	6.43
316.829	6.5
317.198	6.61
317.567	6.68
317.935	6.88
318.304	7.01
318.672	7.01
319.041	6.88
319.41	6.9
319.778	6.71
320.147	6.8
320.515	6.86
320.883	6.85
321.252	7.01
321.62	6.98
321.988	7.01
322.357	7.13
322.725	7.35
323.093	7.43
323.461	7.55
323.829	7.77
324.197	7.76
324.565	7.73
324.933	7.76
325.301	7.92
325.669	8.02
326.037	8.15
326.405	8.26
326.772	8.5
327.14	8.57
327.508	8.73
327.875	8.68
328.243	8.74
328.61	8.72
328.978	8.7
329.346	8.89
329.713	8.79
330.08	9.07
330.448	8.97
330.815	8.91
331.182	8.87
331.55	8.76
331.917	8.8
332.284	8.87
332.651	8.88
333.018	8.84
333.385	8.76
333.752	8.72
334.119	8.84
334.486	8.83
334.853	8.86
335.22	8.89
335.587	9.07
335.954	9.24
336.32	9.25
336.687	9.34
337.054	9.37
337.42	9.5
337.787	9.4
338.153	9.57
338.52	9.64
338.886	9.65
339.253	9.62
339.619	9.7
339.986	9.71
340.352	9.73
340.718	9.7
341.084	9.76
341.451	9.79
341.817	9.89
342.183	9.81
342.549	9.87
342.915	9.93
343.281	9.81
343.647	9.74
344.013	9.79
344.379	9.69
344.745	9.68
345.11	9.77
345.476	9.7
345.842	9.72
346.208	9.77
346.573	9.84
346.939	9.89
347.304	9.86
347.67	9.86
348.035	9.84
348.401	9.99
348.766	10.05
349.132	10.06
349.497	9.9
349.862	10.03
350.228	9.98
350.593	9.9
350.958	10.02
351.323	10.09
351.688	10.14
352.053	10.21
352.418	10.2
352.783	10.1
353.148	10.12
353.513	10.07
353.878	10.11
354.243	10.19
354.608	10.21
354.972	10.14
355.337	10.17
355.702	10.22
356.066	10.13
356.431	10.06
356.795	10.16
357.16	10.19
357.524	10.07
357.889	10.03
358.253	10.07
358.618	10.03
358.982	9.9
359.346	9.79
359.71	9.72
360.075	9.81
360.439	9.8
360.803	9.74
361.167	9.76
361.531	9.59
361.895	9.5
362.259	9.51
362.623	9.63
362.987	9.62
363.351	9.55
363.714	9.53
364.078	9.5
364.442	9.37
364.806	9.32
365.169	9.28
365.533	9.31
365.896	9.27
366.26	9.26
366.623	9.31
366.987	9.35
367.35	9.31
367.714	9.23
368.077	9.18
368.44	9.22
368.803	9.1
369.167	9.09
369.53	9.01
369.893	8.94
370.256	8.79
370.619	8.73
370.982	8.66
371.345	8.6
371.708	8.53
372.071	8.48
372.434	8.44
372.797	8.39
373.159	8.21
373.522	8.14
373.885	8.12
374.247	8.03
374.61	7.93
374.973	7.87
375.335	7.73
375.698	7.62
376.06	7.54
376.423	7.59
376.785	7.6
377.147	7.59
377.51	7.5
377.872	7.5
378.234	7.38
378.596	7.33
378.958	7.23
379.321	7.18
379.683	7.15
380.045	7.05
380.407	7.04
380.769	7.02
381.13	6.98
381.492	6.85
381.854	6.74
382.216	6.68
382.578	6.65
382.939	6.57
383.301	6.56
383.663	6.52
384.024	6.37
384.386	6.33
384.747	6.32
385.109	6.26
385.47	6.15
385.832	6.15
386.193	6.15
386.554	6.08
386.916	6.01
387.277	5.97
387.638	5.99
387.999	5.91
388.36	5.9
388.721	5.82
389.082	5.8
389.443	5.71
389.804	5.68
390.165	5.65
390.526	5.64
390.887	5.64
391.248	5.6
391.609	5.57
391.969	5.5
392.33	5.42
392.691	5.38
393.051	5.34
393.412	5.29
393.772	5.23
394.133	5.24
394.493	5.21
394.854	5.13
395.214	5.06
395.574	5.02
395.935	4.93
396.295	4.91
396.655	4.84
397.015	4.82
397.376	4.79
397.736	4.71
398.096	4.69
398.456	4.62
398.816	4.59
399.176	4.54
399.535	4.48
399.895	4.41
400.255	4.39
400.615	4.36
400.975	4.34
401.334	4.28
401.694	4.25
402.054	4.21
402.413	4.21
402.773	4.14
403.132	4.14
403.492	4.13
403.851	4.12
404.211	4.12
404.57	4.11
404.929	4.1
405.288	4.09
405.648	4.03
406.007	3.99
406.366	3.94
406.725	3.93
407.084	3.93
407.443	3.93
407.802	3.91
408.161	3.88
408.52	3.84
408.879	3.84
409.238	3.83
409.596	3.84
409.955	3.82
410.314	3.84
410.673	3.8
411.031	3.8
411.39	3.76
411.748	3.74
412.107	3.73
412.465	3.67
412.824	3.67
413.182	3.66
413.54	3.64
413.899	3.65
414.257	3.63
414.615	3.62
414.974	3.61
415.332	3.56
415.69	3.55
416.048	3.51
416.406	3.49
416.764	3.48
417.122	3.44
417.48	3.41
417.838	3.4
418.195	3.39
418.553	3.36
418.911	3.35
419.269	3.34
419.626	3.34
419.984	3.33
420.342	3.31
420.699	3.3
421.057	3.3
421.414	3.26
421.772	3.26
422.129	3.25
422.486	3.23
422.844	3.22
423.201	3.21
423.558	3.21
423.915	3.19
424.273	3.17
424.63	3.16
424.987	3.15
425.344	3.14
425.701	3.12
426.058	3.11
426.415	3.11
426.772	3.1
427.128	3.07
427.485	3.05
427.842	3.03
428.199	3.03
428.555	3.02
428.912	3.02
429.269	3.01
429.625	3
429.982	2.99
430.338	2.99
430.695	2.97
431.051	2.95
431.407	2.95
431.764	2.95
432.12	2.94
432.476	2.93
432.832	2.93
433.189	2.93
433.545	2.92
433.901	2.91
434.257	2.9
434.613	2.92
434.969	2.93
435.325	2.94
435.681	2.95
436.036	2.94
436.392	2.93
436.748	2.91
437.104	2.9
437.459	2.89
437.815	2.91
438.171	2.92
438.526	2.94
438.882	2.95
439.237	2.95
439.593	2.97
439.948	2.98
440.304	2.99
440.659	3
441.014	3
441.369	2.99
441.725	2.98
442.08	2.97
442.435	2.98
442.79	2.96
443.145	2.95
443.5	2.95
443.855	2.96
444.21	2.97
444.565	2.98
444.92	2.99
445.275	2.97
445.629	2.97
445.984	2.96
446.339	2.95
446.693	2.92
447.048	2.9
447.403	2.9
447.757	2.88
448.112	2.87
448.466	2.85
448.82	2.86
449.175	2.86
449.529	2.86
449.883	2.82
450.238	2.8
450.592	2.8
450.946	2.8
451.3	2.77
451.654	2.77
452.008	2.76
452.362	2.73
452.716	2.73
453.07	2.74
453.424	2.74
453.778	2.73
454.132	2.72
454.486	2.71
454.839	2.67
455.193	2.65
455.547	2.66
455.9	2.66
456.254	2.65
456.607	2.65
456.961	2.66
457.314	2.67
457.668	2.69
458.021	2.69
458.375	2.68
458.728	2.7
459.081	2.69
459.434	2.69
459.787	2.7
460.141	2.7
460.494	2.69
460.847	2.69
461.2	2.7
461.553	2.72
461.906	2.75
462.259	2.78
462.611	2.81
462.964	2.81
463.317	2.84
463.67	2.85
464.022	2.86
464.375	2.84
464.728	2.85
465.08	2.86
465.433	2.87
465.785	2.9
466.138	2.89
466.49	2.93
466.843	2.94
467.195	2.94
467.547	2.95
467.899	2.97
468.252	2.97
468.604	2.98
468.956	3
469.308	3.01
469.66	3.02
470.012	3.02
470.364	3.01
470.716	3.02
471.068	3.02
471.42	3.03
471.772	3.08
472.123	3.08
472.475	3.08
472.827	3.09
473.178	3.09
473.53	3.1
473.882	3.09
474.233	3.1
474.585	3.11
474.936	3.12
475.288	3.11
475.639	3.12
475.99	3.12
476.342	3.11
476.693	3.11
477.044	3.11
477.395	3.09
477.746	3.09
478.097	3.08
478.448	3.09
478.8	3.08
479.15	3.04
479.501	3.05
479.852	3.05
480.203	3.05
480.554	3.06
480.905	3.05
481.255	3.05
481.606	3.05
481.957	3.04
482.307	3.05
482.658	3.06
483.009	3.05
483.359	3.05
483.709	3.05
484.06	3.04
484.41	3.03
484.761	3.04
485.111	3.04
485.461	3.04
485.811	3.03
486.162	3.03
486.512	3.04
486.862	3.04
487.212	3.05
487.562	3.05
487.912	3.05
488.262	3.05
488.612	3.05
488.961	3.05
489.311	3.05
489.661	3.05
490.011	3.04
490.36	3.06
490.71	3.06
491.06	3.06
491.409	3.07
491.759	3.08
492.108	3.08
492.458	3.09
492.807	3.1
493.157	3.12
493.506	3.14
493.855	3.15
494.204	3.17
494.554	3.18
494.903	3.18
495.252	3.18
495.601	3.22
495.95	3.26
496.299	3.29
496.648	3.3
496.997	3.32
497.346	3.35
497.695	3.37
498.043	3.41
498.392	3.44
498.741	3.48
499.09	3.51
499.438	3.57
499.787	3.61
500.135	3.65
500.484	3.71
500.832	3.75
501.181	3.8
501.529	3.81
501.878	3.87
502.226	3.93
502.574	4
502.923	4.05
503.271	4.08
503.619	4.16
503.967	4.27
504.315	4.34
504.663	4.42
505.011	4.48
505.359	4.58
505.707	4.66
506.055	4.75
506.403	4.85
506.751	4.94
507.098	5.03
507.446	5.13
507.794	5.22
508.141	5.34
508.489	5.45
508.837	5.58
509.184	5.69
509.531	5.79
509.879	5.92
510.226	6.04
510.574	6.16
510.921	6.26
511.268	6.36
511.616	6.48
511.963	6.6
512.31	6.77
512.657	6.89
513.004	7.06
513.351	7.19
513.698	7.35
514.045	7.51
514.392	7.68
514.739	7.82
515.086	8.01
515.432	8.18
515.779	8.34
516.126	8.51
516.473	8.67
516.819	8.85
517.166	8.99
517.512	9.15
517.859	9.29
518.205	9.45
518.552	9.6
518.898	9.72
519.245	9.88
519.591	10
519.937	10.12
520.283	10.28
520.629	10.46
520.976	10.64
521.322	10.82
521.668	10.99
522.014	11.22
522.36	11.38
522.706	11.56
523.052	11.77
523.398	11.99
523.743	12.21
524.089	12.43
524.435	12.65
524.781	12.87
525.126	13.07
525.472	13.24
525.817	13.4
526.163	13.56
526.509	13.7
526.854	13.85
527.199	13.98
527.545	14.1
527.89	14.22
528.235	14.36
528.581	14.49
528.926	14.62
529.271	14.76
529.616	14.9
529.961	15.04
530.306	15.18
530.651	15.33
530.996	15.49
531.341	15.63
531.686	15.79
532.031	15.94
532.376	16.11
532.721	16.3
533.065	16.49
533.41	16.69
533.755	16.88
534.099	17.07
534.444	17.27
534.788	17.47
535.133	17.65
535.477	17.83
535.822	18.02
536.166	18.25
536.51	18.46
536.855	18.68
537.199	18.94
537.543	19.19
537.887	19.44
538.231	19.68
538.576	19.95
538.92	20.21
539.264	20.47
539.608	20.7
539.951	20.92
540.295	21.12
540.639	21.32
540.983	21.53
541.327	21.73
541.671	21.93
542.014	22.13
542.358	22.35
542.701	22.56
543.045	22.76
543.389	22.98
543.732	23.2
544.075	23.42
544.419	23.64
544.762	23.86
545.105	24.1
545.449	24.36
545.792	24.61
546.135	24.88
546.478	25.15
546.821	25.46
547.165	25.77
547.508	26.06
547.851	26.39
548.194	26.67
548.536	27
548.879	27.33
549.222	27.65
549.565	27.98
549.908	28.25
550.25	28.53
550.593	28.81
550.936	29.08
551.278	29.37
551.621	29.69
551.963	30
552.306	30.26
552.648	30.55
552.991	30.82
553.333	31.09
553.675	31.33
554.017	31.54
554.36	31.75
554.702	32.01
555.044	32.21
555.386	32.45
555.728	32.67
556.07	32.9
556.412	33.1
556.754	33.28
557.096	33.55
557.438	33.84
557.78	34.05
558.121	34.31
558.463	34.53
558.805	34.78
559.147	35.04
559.488	35.29
559.83	35.54
560.171	35.79
560.513	36.02
560.854	36.22
561.196	36.45
561.537	36.63
561.878	36.84
562.22	37.04
562.561	37.23
562.902	37.45
563.243	37.62
563.584	37.84
563.925	38.06
564.266	38.31
564.607	38.47
564.948	38.69
565.289	38.9
565.63	39.16
565.971	39.29
566.312	39.42
566.653	39.58
566.993	39.68
567.334	39.84
567.675	40.03
568.015	40.26
568.356	40.38
568.696	40.59
569.037	40.81
569.377	41.04
569.718	41.2
570.058	41.31
570.398	41.46
570.739	41.6
571.079	41.79
571.419	41.88
571.759	42.03
572.099	42.15
572.439	42.28
572.779	42.32
573.119	42.47
573.459	42.59
573.799	42.66
574.139	42.79
574.479	42.9
574.819	42.97
575.158	43.01
575.498	43.18
575.838	43.32
576.177	43.34
576.517	43.44
576.856	43.56
577.196	43.73
577.535	43.84
577.875	43.97
578.214	44.03
578.553	44.14
578.893	44.21
579.232	44.33
579.571	44.36
579.91	44.49
580.25	44.61
580.589	44.76
580.928	44.96
581.267	45.11
581.606	45.23
581.945	45.37
582.283	45.46
582.622	45.61
582.961	45.72
583.3	45.88
583.639	45.89
583.977	45.99
584.316	46.06
584.654	46.22
584.993	46.32
585.332	46.42
585.67	46.52
586.008	46.68
586.347	46.73
586.685	46.87
587.024	47
587.362	47.03
587.7	47.11
588.038	47.22
588.376	47.27
588.715	47.32
589.053	47.35
589.391	47.45
589.729	47.53
590.067	47.56
590.404	47.63
590.742	47.69
591.08	47.75
591.418	47.81
591.756	47.83
592.093	47.84
592.431	47.83
592.769	47.86
593.106	47.96
593.444	48.03
593.781	48.02
594.119	48.02
594.456	48.01
594.793	48.06
595.131	48.02
595.468	48.1
595.805	48.11
596.143	48.16
596.48	48.21
596.817	48.17
597.154	48.19
597.491	48.25
597.828	48.29
598.165	48.4
598.502	48.48
598.839	48.51
599.176	48.51
599.512	48.54
599.849	48.64
600.186	48.57
600.523	48.61
600.859	48.68
601.196	48.75
601.532	48.76
601.869	48.81
602.205	48.82
602.542	48.84
602.878	48.93
603.215	49.04
603.551	49.09
603.887	49.14
604.223	49.16
604.56	49.18
604.896	49.19
605.232	49.22
605.568	49.22
605.904	49.18
606.24	49.33
606.576	49.38
606.912	49.38
607.248	49.42
607.583	49.41
607.919	49.47
608.255	49.51
608.591	49.64
608.926	49.62
609.262	49.74
609.597	49.81
609.933	49.88
610.268	49.89
610.604	49.86
610.939	49.92
611.275	50.02
611.61	50.09
611.945	50.12
612.281	50.09
612.616	50.13
612.951	50.26
613.286	50.26
613.621	50.36
613.956	50.39
614.291	50.43
614.626	50.5
614.961	50.57
615.296	50.57
615.631	50.58
615.966	50.63
616.3	50.63
616.635	50.63
616.97	50.59
617.304	50.56
617.639	50.64
617.973	50.61
618.308	50.61
618.642	50.59
618.977	50.66
619.311	50.74
619.646	50.74
619.98	50.79
620.314	50.78
620.648	50.74
620.983	50.8
621.317	50.82
621.651	50.94
621.985	50.84
622.319	50.84
622.653	50.88
622.987	50.95
623.321	50.99
623.655	50.98
623.988	50.97
624.322	51
624.656	51.01
624.99	51.06
625.323	50.99
625.657	50.94
625.99	51.02
626.324	50.97
626.657	51.05
626.991	50.96
627.324	51.02
627.658	51.1
627.991	51.08
628.324	51.18
628.657	51.2
628.991	51.39
629.324	51.43
629.657	51.5
629.99	51.51
630.323	51.49
630.656	51.58
630.989	51.64
631.322	51.72
631.655	51.73
631.987	51.75
632.32	51.86
632.653	51.96
632.986	51.89
633.318	51.95
633.651	51.94
633.984	52
634.316	51.91
634.649	51.93
634.981	52.03
635.313	52
635.646	51.99
635.978	51.92
636.31	51.91
636.643	51.86
636.975	51.85
637.307	51.9
637.639	51.87
637.971	51.92
638.303	51.8
638.635	51.79
638.967	51.85
639.299	51.94
639.631	51.88
639.963	52
640.295	51.97
640.626	51.92
640.958	51.98
641.29	51.94
641.621	51.88
641.953	51.79
642.285	51.74
642.616	51.62
642.948	51.59
643.279	51.65
643.61	51.64
643.942	51.64
644.273	51.76
644.604	51.71
644.936	51.77
645.267	51.81
645.598	51.86
645.929	51.83
646.26	51.74
646.591	51.83
646.922	51.76
647.253	51.87
647.584	51.94
647.915	51.88
648.245	52.04
648.576	52.08
648.907	52.2
649.238	52.16
649.568	52.23
649.899	52.28
650.229	52.28
650.56	52.34
650.89	52.38
651.221	52.25
651.551	52.39
651.882	52.34
652.212	52.3
652.542	52.3
652.872	52.33
653.203	52.25
653.533	52.21
653.863	52.24
654.193	52.25
654.523	52.16
654.853	52.26
655.183	52.34
655.513	52.29
655.843	52.28
656.172	52.41
656.502	52.57
656.832	52.64
657.162	52.66
657.491	52.6
657.821	52.65
658.15	52.69
658.48	52.61
658.809	52.5
659.139	52.55
659.468	52.57
659.798	52.64
660.127	52.82
660.456	52.92
660.785	52.86
661.115	52.73
661.444	52.77
661.773	52.88
662.102	52.78
662.431	52.89
662.76	52.86
663.089	52.78
663.418	52.64
663.747	52.54
664.076	52.47
664.404	52.61
664.733	52.66
665.062	52.65
665.39	52.68
665.719	52.74
666.048	52.92
666.376	52.87
666.705	52.72
667.033	52.59
667.362	52.44
667.69	52.54
668.018	52.54
668.347	52.61
668.675	52.53
669.003	52.64
669.331	52.69
669.659	52.66
669.987	52.72
670.315	52.66
670.643	52.63
670.971	52.71
671.299	52.69
671.627	52.56
671.955	52.59
672.283	52.53
672.61	52.66
672.938	52.48
673.266	52.51
673.593	52.65
673.921	52.73
674.249	52.79
674.576	52.76
674.904	52.89
675.231	52.76
675.558	52.78
675.886	52.64
676.213	52.65
676.54	52.66
676.867	52.64
677.195	52.75
677.522	52.82
677.849	52.91
678.176	52.74
678.503	52.68
678.83	52.7
679.157	52.7
679.484	52.67
679.81	52.76
680.137	52.71
680.464	52.69
680.791	52.66
681.117	52.65
681.444	52.67
681.771	52.59
682.097	52.77
682.424	52.73
682.75	52.83
683.077	52.79
683.403	52.86
683.729	52.85
684.056	52.81
684.382	52.82
684.708	52.75
685.034	52.9
685.36	52.95
685.686	52.81
686.012	52.83
686.339	52.88
686.664	52.88
686.99	53.04
687.316	52.93
687.642	52.89
687.968	52.92
688.294	52.97
688.619	53.14
688.945	52.97
689.271	52.93
689.596	52.92
689.922	52.94
690.247	52.87
690.573	52.99
690.898	53.06
691.224	52.91
691.549	52.88
691.874	52.89
692.2	53.01
692.525	53.18
692.85	53.38
693.175	53.28
693.5	53.26
693.825	53.14
694.15	53.19
694.475	53.06
694.8	53.11
695.125	52.91
695.45	52.76
695.775	52.89
696.099	52.93
696.424	52.84
696.749	52.85
697.073	53.03
697.398	52.9
697.723	52.78
698.047	52.84
698.372	52.94
698.696	53.05
699.02	52.95
699.345	52.93
699.669	52.92
699.993	52.86
700.318	52.92
700.642	53
700.966	53
701.29	53.25
701.614	53.16
701.938	53.21
702.262	53.38
702.586	53.29
702.91	53.34
703.234	53.53
703.557	53.4
703.881	53.3
704.205	53.35
704.529	53.38
704.852	53.47
705.176	53.4
705.499	53.23
705.823	53.47
706.146	53.51
706.47	53.41
706.793	53.52
707.117	53.46
707.44	53.37
707.763	53.39
708.086	53.28
708.409	53.49
708.733	53.59
709.056	53.46
709.379	53.61
709.702	53.63
710.025	53.37
710.348	53.5
710.671	53.36
710.993	53.5
711.316	53.53
711.639	53.65
711.962	53.62
712.284	53.66
712.607	53.56
712.93	53.52
713.252	53.43
713.575	53.45
713.897	53.42
714.22	53.5
714.542	53.49
714.864	53.54
715.187	53.42
715.509	53.48
715.831	53.41
716.153	53.49
716.475	53.37
716.798	53.74
717.12	53.8
717.442	53.92
717.764	53.91
718.085	54.1
718.407	53.93
718.729	54.05
719.051	53.96
719.373	53.84
719.695	53.83
720.016	53.74
720.338	53.82
720.659	53.77
720.981	53.74
721.302	53.61
721.624	53.4
721.945	53.3
722.267	53.38
722.588	53.39
722.909	53.25
723.231	53.4
723.552	53.17
723.873	53.06
724.194	53.2
724.515	52.94
724.836	52.84
725.157	52.9
725.478	52.97
725.799	52.97
726.12	53.11
726.441	53.26
726.762	53.5
727.083	53.38
727.403	53.48
727.724	53.49
728.045	53.9
728.365	53.97
728.686	54.2
729.006	54.1
729.327	54.37
729.647	54.23
729.967	54.15
730.288	54.14
730.608	54.28
730.928	53.91
731.249	54.1
731.569	54.11
731.889	54.23
732.209	54.1
732.529	54.31
732.849	54.49
733.169	54.36
733.489	54.42
733.809	54.4
734.129	54.44
734.448	54.22
734.768	54.21
735.088	54.22
735.408	54.14
735.727	54.3
736.047	54.31
736.366	54.31
736.686	54.27
737.005	54.31
737.325	54.26
737.644	54.58
737.963	54.64
738.283	54.51
738.602	54.44
738.921	54.29
739.24	54.16
739.56	54.02
739.879	53.93
740.198	53.96
740.517	54.04
740.836	54.11
741.155	54.44
741.473	54.39
741.792	54.51
742.111	54.65
742.43	54.46
742.748	54.23
743.067	54.27
743.386	54.38
743.704	54.45
744.023	54.33
744.341	54.41
744.66	54.12
744.978	53.89
745.297	53.83
745.615	53.94
745.933	53.76
746.252	53.83
746.57	53.95
746.888	53.84
747.206	53.7
747.524	53.57
747.842	53.49
748.16	53.48
748.478	53.54
748.796	53.65
749.114	54.04
749.432	53.9
749.749	54.06
750.067	53.73
750.385	53.67
750.703	53.77
751.02	53.49
751.338	54.12
751.655	54.49
751.973	54.45
752.29	54.5
752.608	54.59
752.925	54.72
753.242	54.92
753.56	54.64
753.877	55
754.194	54.88
754.511	54.95
754.828	54.67
755.145	54.82
755.462	54.64
755.779	54.3
756.096	54.62
756.413	54.83
756.73	55.02
757.047	54.92
757.364	54.76
757.68	54.79
757.997	54.31
758.314	54.33
758.63	54.6
758.947	54.64
759.264	54.76
759.58	54.46
759.896	54.53
760.213	54.96
760.529	54.75
760.846	54.66
761.162	54.71
761.478	54.72
761.794	54.6
762.11	54.33
762.426	54.6
762.743	54.61
763.059	54.48
763.375	54.61
763.69	54.67
764.006	54.72
764.322	54.81
764.638	54.9
764.954	54.79
765.27	54.52
765.585	54.51
765.901	54.68
766.216	54.66
766.532	54.55
766.848	54.52
767.163	54.45
767.478	54.52
767.794	54.4
768.109	54.55
768.424	54.53
768.74	54.69
769.055	54.45
769.37	54.59
769.685	54.5
770	54.44
770.315	54.34
770.63	54.22
770.945	54.17
771.26	53.8
771.575	54.01
771.89	54.06
772.205	53.74
772.52	53.49
772.834	53.53
773.149	53.52
773.464	53.31
773.778	53.4
774.093	53.59
774.407	54.11
774.722	53.99
775.036	53.81
775.351	53.73
775.665	53.91
775.979	53.35
776.293	53.54
776.608	53.6
776.922	53.73
777.236	53.89
777.55	54.02
777.864	54.11
778.178	53.96
778.492	54.13
778.806	54.18
779.12	54.7
779.434	54.7
779.747	54.3
780.061	53.95
780.375	54.21
780.689	53.9
781.002	53.28
781.316	53
781.629	53.29
781.943	53.65
782.256	53.19
782.57	53.48
782.883	53.64
783.196	53.64
783.51	53.68
783.823	53.36
784.136	53.43
784.449	53.78
784.762	53.44
785.075	53.25
785.388	53.28
785.701	52.32
786.014	52.28
786.327	52.55
786.64	52.93
786.953	52.74
787.266	53.12
787.578	53.22
787.891	53.75
788.204	53.18
788.516	53.02
788.829	53.26
789.141	53.28
789.454	52.81
789.766	53.04
790.079	52.89
790.391	53.25
790.703	53.19
791.016	52.79
791.328	53.36
791.64	52.81
791.952	53.19
792.264	53.3
792.576	53.47
792.888	53.4
793.2	53.65
793.512	53.61
793.824	53.38
794.136	53.27
794.448	52.99
794.76	53.35
795.071	53.1
795.383	53.1
795.695	52.77
796.006	53.03
796.318	52.84
796.629	53.33
796.941	53.32
797.252	53.37
797.564	54.08
797.875	53.67
798.186	54.4
798.497	54.33
798.809	54.72
799.12	54.65
799.431	54.59
799.742	54.22
800.053	54.48
800.364	54.1
800.675	54.61
800.986	55.11
801.297	55.05
801.608	55.41
801.918	55.26
802.229	56.02
802.54	55.44
802.851	55.29
803.161	54.87
803.472	54.61
803.782	54.48
804.093	54.3
804.403	54.91
804.714	55.33
805.024	54.95
805.334	54.58
805.645	54.75
805.955	55.08
806.265	55.1
806.575	54.16
806.885	54.61
807.195	54.06
807.505	53.39
807.815	53.13
808.125	53.06
808.435	53.36
808.745	52.67
809.055	52.94
809.365	53.18
809.674	53.34
809.984	54.01
810.294	53.98
810.603	54.27
810.913	53.87
811.222	53.69
811.532	54.31
811.841	54.64
812.151	54.07
812.46	53.69
812.769	53.88
813.079	54.55
813.388	54.75
813.697	54.79
814.006	54.58
814.315	54.75
814.624	54.75
814.933	54.79
815.242	55.34
815.551	55.89
815.86	54.85
816.169	55.22
816.478	55.37
816.786	54.95
817.095	54.96
817.404	55.42
817.712	54.92
818.021	55.17
818.33	55.43
818.638	56.03
818.947	56.02
819.255	55.3
819.563	55.16
819.872	54.98
820.18	54.87
820.488	55.05
820.796	55.17
821.105	55.24
821.413	55.03
821.721	54.81
822.029	54.7
822.337	54.9
822.645	54.76
822.953	54.61
823.26	54.8
823.568	54.5
823.876	54.45
824.184	54.43
824.491	54.5
824.799	54.41
825.107	54.21
825.414	54.33
825.722	54.57
826.029	54.71
826.337	54.7
826.644	54.85
826.951	54.76
827.259	54.59
827.566	54.45
827.873	54.53
828.18	54.55
828.488	54.67
828.795	54.69
829.102	54.72
829.409	54.69
829.716	54.47
830.023	54.84
830.329	55.05
830.636	55.48
830.943	55.14
831.25	54.83
831.557	54.61
831.863	54.58
832.17	54.69
832.476	54.34
832.783	54.67
833.089	54.23
833.396	54.4
833.702	54.78
834.009	54.92
834.315	54.93
834.621	55.2
834.928	54.6
835.234	54.76
835.54	54.67
835.846	54.67
836.152	54.89
836.458	54.56
836.764	53.85
837.07	53.23
837.376	53.06
837.682	53.64
837.988	54.24
838.293	53.9
838.599	53.01
838.905	52.95
839.211	51.8
839.516	52.03
839.822	51.88
840.127	51.62
840.433	50.89
840.738	50.64
841.044	50.52
841.349	50.95
841.654	50.76
841.959	50.66
842.265	50.57
842.57	50.57
842.875	51.21
843.18	52.78
843.485	53.38
843.79	53.42
844.095	53.45
844.4	53.95
844.705	51.86
845.01	52.14
845.315	52.53
845.619	53.44
845.924	54.68
846.229	56.04
846.533	56.37
846.838	57.22
847.142	57.98
847.447	57.61
847.751	57.59
848.056	56.1
848.36	56.49
848.664	55.69
848.969	55.47
849.273	54.9
849.577	51.95
849.881	52.07
850.185	51.88
850.489	52.01
850.794	51.08
851.097	54.83
851.401	56.79
851.705	56.34
852.009	57.48
852.313	55.95
852.617	52.45
852.92	50.86
853.224	52.42
853.528	52.14
853.831	51.14
854.135	52.93
854.438	55.52
854.742	55.08
855.045	57.31
855.349	57.7
855.652	57.15
855.955	60.47
856.259	61.24
856.562	60.62
856.865	57.96
857.168	56.49
857.471	56.76
857.774	57.39
858.077	56.28
858.38	56.9
858.683	55.79
858.986	56.73
859.289	58.76
859.592	57.59
859.894	57.19
860.197	58.59
860.5	57.16
860.802	54.92
861.105	54.46
861.407	53.85
861.71	53.82
862.012	54.31
862.315	51.44
862.617	50.67
862.919	51.16
863.222	53.98
863.524	55.8
863.826	54.13
864.128	53.43
864.43	55.01
864.732	53.43
865.034	52.58
865.336	53.24
865.638	51.31
865.94	49.62
866.242	49.83
866.544	50.67
866.846	52.15
867.147	54.54
867.449	55.68
867.751	57.75
868.052	56.15
868.354	54.94
868.655	56.66
868.957	55.62
869.258	57.18
869.56	56.12
869.861	55.42
870.162	55.75
870.463	52.57
870.765	51.77
871.066	53.55
871.367	56.45
871.668	58
871.969	59.69
872.27	59.14
872.571	57.12
872.872	54.81
873.173	52.52
873.473	51.56
873.774	51.45
874.075	48.91
874.376	51.5
874.676	52
874.977	51.48
875.277	50.86
875.578	52.44
875.878	51.83
876.179	52.37
876.479	52.75
876.78	54.87
877.08	56.11
877.38	54.19
877.68	52.62
877.981	50.63
878.281	49.9
878.581	52.93
