Data from BU26845_Reflection_00001.txt Node
Date: Mon Nov 18 16:27:48 EST 2019
User: vgr7
Spectrometer: USB2G7710
Scans to average: 3
Trigger mode: 4
Integration Time (sec): 2.000000E-2
Electric dark correction enabled: true
Boxcar width: 10
XAxis mode: Wavelengths
Number of Pixels in Spectrum: 2048
>>>>>Begin Spectral Data<<<<<
177.721	-45.49
178.105	-36.22
178.488	-64.17
178.871	-46.84
179.254	42.09
179.636	334.51
180.019	73.71
180.402	172
180.785	-81.82
181.168	-759.38
181.55	-1034.33
181.933	126.58
182.316	250.2
182.698	279.98
183.081	197.7
183.463	248.4
183.846	230.69
184.228	211.23
184.611	128.22
184.993	326.22
185.376	95.49
185.758	56.86
186.14	63.48
186.522	41.39
186.904	-8.37
187.287	-23.66
187.669	19.67
188.051	2.16
188.433	11.35
188.815	20.85
189.197	19.8
189.579	19.46
189.961	11.84
190.342	12.56
190.724	13.16
191.106	2.74
191.488	-5.23
191.869	-0.04
192.251	-7.46
192.633	-3.53
193.014	-7.48
193.396	-14.43
193.777	-28.65
194.159	-33.78
194.54	-31.43
194.922	-18.31
195.303	-24.3
195.684	-37.16
196.065	-25.93
196.447	-31.15
196.828	-44.85
197.209	-30.43
197.59	-41.32
197.971	-41.05
198.352	-22.78
198.733	-35.55
199.114	-24.88
199.495	-25.35
199.876	-27.92
200.257	-18.54
200.638	-35.97
201.018	-35.37
201.399	-41.21
201.78	-25.8
202.16	-34.86
202.541	-41.55
202.922	-61.44
203.302	-49.99
203.683	-56.59
204.063	-82.35
204.444	-76.56
204.824	-83.27
205.204	-88.01
205.585	-74.67
205.965	-69.48
206.345	-91.85
206.725	-81.32
207.106	-103.89
207.486	-87.2
207.866	-77.18
208.246	-78.74
208.626	-49.85
209.006	-30.67
209.386	-26.29
209.766	-40.65
210.145	-34.74
210.525	-22.32
210.905	-9.48
211.285	-6.77
211.664	-4.65
212.044	6.98
212.424	10.51
212.803	12.7
213.183	11.91
213.562	14.51
213.942	13.9
214.321	10.66
214.701	10.83
215.08	13.36
215.459	20.94
215.838	21.53
216.218	18.63
216.597	22.88
216.976	21.64
217.355	10.83
217.734	18.94
218.113	25.63
218.492	14.76
218.871	3.54
219.25	-1.26
219.629	0.97
220.008	-6.69
220.387	-6.12
220.766	-10.33
221.144	-10.59
221.523	-18.29
221.902	-15.92
222.28	-15.34
222.659	1.05
223.037	22.49
223.416	9.53
223.794	7.82
224.173	10.1
224.551	10.91
224.929	2.06
225.308	5.14
225.686	3.26
226.064	-0.93
226.442	4.55
226.821	9.26
227.199	6.67
227.577	1.98
227.955	3.71
228.333	2.99
228.711	1.79
229.089	3.77
229.467	4.54
229.845	2.09
230.222	4.01
230.6	3.38
230.978	0.2
231.356	2.65
231.733	3.2
232.111	4.4
232.488	4.74
232.866	5.45
233.243	7.36
233.621	6.74
233.998	7.29
234.376	5.82
234.753	6.08
235.13	7.97
235.508	9.69
235.885	9.99
236.262	8.04
236.639	8.66
237.016	7.72
237.393	7.92
237.77	8.22
238.147	7.05
238.524	5.55
238.901	5.64
239.278	5.12
239.655	5.72
240.032	5.28
240.409	5.02
240.785	4.94
241.162	4.69
241.539	4.62
241.915	4.51
242.292	4.52
242.668	4.41
243.045	4.22
243.421	3.92
243.798	3.51
244.174	3.7
244.551	3.94
244.927	3.76
245.303	3.6
245.679	3.56
246.056	3.7
246.432	3.85
246.808	4.04
247.184	4.11
247.56	3.79
247.936	3.83
248.312	3.66
248.688	3.89
249.064	3.89
249.44	3.77
249.815	3.82
250.191	3.84
250.567	3.83
250.943	3.65
251.318	3.67
251.694	3.79
252.069	3.85
252.445	3.73
252.82	3.94
253.196	4.1
253.571	4.01
253.947	4.13
254.322	4.15
254.697	3.97
255.073	3.83
255.448	3.49
255.823	3.26
256.198	3.27
256.573	2.81
256.948	2.78
257.323	2.88
257.698	2.68
258.073	2.74
258.448	2.49
258.823	2.62
259.198	2.62
259.573	2.57
259.948	2.61
260.322	2.55
260.697	2.47
261.072	2.4
261.446	2.65
261.821	2.56
262.195	2.64
262.57	2.49
262.944	2.41
263.319	2.53
263.693	2.68
264.067	2.7
264.442	2.95
264.816	3.07
265.19	3.09
265.564	3.42
265.938	3.46
266.313	3.72
266.687	3.67
267.061	3.84
267.435	3.94
267.809	3.85
268.183	3.9
268.556	3.87
268.93	3.78
269.304	3.55
269.678	3.47
270.051	3.36
270.425	3.35
270.799	3.37
271.172	3.38
271.546	3.38
271.919	3.22
272.293	3.1
272.666	2.95
273.04	2.93
273.413	2.75
273.787	2.71
274.16	2.6
274.533	2.59
274.906	2.5
275.279	2.55
275.653	2.54
276.026	2.43
276.399	2.27
276.772	2.53
277.145	2.44
277.518	2.53
277.891	2.37
278.263	2.47
278.636	2.34
279.009	2.45
279.382	2.46
279.755	2.62
280.127	2.7
280.5	2.83
280.872	2.99
281.245	2.88
281.617	2.89
281.99	3.07
282.362	3.12
282.735	3.07
283.107	3
283.479	3.16
283.852	3.22
284.224	3.45
284.596	3.28
284.968	3.38
285.34	3.44
285.713	3.59
286.085	3.53
286.457	3.78
286.829	3.61
287.201	3.53
287.572	3.51
287.944	3.23
288.316	3.22
288.688	3.15
289.06	3.34
289.431	3.41
289.803	3.26
290.175	3.27
290.546	3.31
290.918	3.2
291.289	3.19
291.661	3.14
292.032	3.06
292.403	3.1
292.775	3.01
293.146	2.98
293.517	2.96
293.889	3.01
294.26	2.84
294.631	2.91
295.002	2.93
295.373	2.86
295.744	2.95
296.115	2.75
296.486	2.59
296.857	2.52
297.228	2.52
297.599	2.54
297.97	2.5
298.34	2.45
298.711	2.52
299.082	2.46
299.452	2.44
299.823	2.44
300.194	2.36
300.564	2.41
300.935	2.37
301.305	2.26
301.676	2.29
302.046	2.24
302.416	2.34
302.787	2.29
303.157	2.42
303.527	2.54
303.897	2.71
304.267	2.9
304.637	2.83
305.008	2.65
305.378	2.74
305.748	2.78
306.117	2.79
306.487	2.77
306.857	2.75
307.227	2.8
307.597	2.77
307.967	2.92
308.336	2.83
308.706	2.77
309.076	2.86
309.445	2.78
309.815	2.82
310.184	2.76
310.554	2.78
310.923	2.71
311.293	2.65
311.662	2.57
312.031	2.5
312.401	2.63
312.77	2.79
313.139	2.79
313.508	2.84
313.877	2.9
314.246	2.83
314.616	2.79
314.985	2.84
315.353	2.75
315.722	2.85
316.091	2.91
316.46	2.88
316.829	2.93
317.198	2.97
317.567	3.02
317.935	2.96
318.304	2.85
318.672	3.01
319.041	3.14
319.41	3.22
319.778	3.19
320.147	3.03
320.515	2.87
320.883	2.71
321.252	2.56
321.62	2.57
321.988	2.67
322.357	2.67
322.725	2.62
323.093	2.92
323.461	2.71
323.829	2.7
324.197	2.75
324.565	2.74
324.933	2.77
325.301	2.68
325.669	2.76
326.037	2.89
326.405	2.83
326.772	2.85
327.14	2.85
327.508	2.83
327.875	2.7
328.243	2.81
328.61	2.89
328.978	2.91
329.346	2.92
329.713	2.82
330.08	2.85
330.448	2.76
330.815	2.61
331.182	2.51
331.55	2.48
331.917	2.45
332.284	2.5
332.651	2.47
333.018	2.67
333.385	2.6
333.752	2.61
334.119	2.67
334.486	2.52
334.853	2.53
335.22	2.53
335.587	2.69
335.954	2.7
336.32	2.68
336.687	2.74
337.054	2.67
337.42	2.74
337.787	2.87
338.153	2.94
338.52	2.97
338.886	2.98
339.253	3.01
339.619	3.11
339.986	3.06
340.352	3.07
340.718	3.07
341.084	3.13
341.451	3.08
341.817	2.98
342.183	3.06
342.549	3.03
342.915	3.15
343.281	3.19
343.647	3.13
344.013	3.25
344.379	3.18
344.745	3.18
345.11	3.17
345.476	3.1
345.842	3.05
346.208	3.02
346.573	3.11
346.939	3.22
347.304	3.12
347.67	3.03
348.035	2.96
348.401	2.83
348.766	2.88
349.132	2.91
349.497	2.9
349.862	2.93
350.228	2.91
350.593	2.78
350.958	2.76
351.323	2.77
351.688	2.74
352.053	2.83
352.418	2.88
352.783	2.97
353.148	2.9
353.513	2.91
353.878	2.93
354.243	2.93
354.608	2.82
354.972	2.87
355.337	2.98
355.702	3.07
356.066	3.05
356.431	2.94
356.795	2.95
357.16	2.98
357.524	2.86
357.889	2.85
358.253	2.86
358.618	2.86
358.982	2.85
359.346	2.77
359.71	2.71
360.075	2.75
360.439	2.76
360.803	2.8
361.167	2.84
361.531	2.85
361.895	2.77
362.259	2.71
362.623	2.74
362.987	2.69
363.351	2.63
363.714	2.66
364.078	2.67
364.442	2.63
364.806	2.6
365.169	2.71
365.533	2.75
365.896	2.74
366.26	2.74
366.623	2.72
366.987	2.75
367.35	2.84
367.714	2.78
368.077	2.71
368.44	2.69
368.803	2.7
369.167	2.69
369.53	2.7
369.893	2.83
370.256	2.73
370.619	2.7
370.982	2.74
371.345	2.71
371.708	2.72
372.071	2.74
372.434	2.74
372.797	2.65
373.159	2.57
373.522	2.63
373.885	2.65
374.247	2.66
374.61	2.7
374.973	2.6
375.335	2.59
375.698	2.62
376.06	2.6
376.423	2.58
376.785	2.58
377.147	2.63
377.51	2.61
377.872	2.72
378.234	2.75
378.596	2.77
378.958	2.8
379.321	2.81
379.683	2.82
380.045	2.83
380.407	2.85
380.769	2.86
381.13	2.8
381.492	2.77
381.854	2.77
382.216	2.71
382.578	2.73
382.939	2.77
383.301	2.74
383.663	2.73
384.024	2.71
384.386	2.72
384.747	2.74
385.109	2.77
385.47	2.68
385.832	2.68
386.193	2.67
386.554	2.66
386.916	2.6
387.277	2.62
387.638	2.64
387.999	2.65
388.36	2.7
388.721	2.76
389.082	2.75
389.443	2.74
389.804	2.76
390.165	2.75
390.526	2.73
390.887	2.74
391.248	2.78
391.609	2.79
391.969	2.76
392.33	2.73
392.691	2.71
393.051	2.71
393.412	2.73
393.772	2.75
394.133	2.72
394.493	2.82
394.854	2.82
395.214	2.82
395.574	2.81
395.935	2.8
396.295	2.78
396.655	2.78
397.015	2.81
397.376	2.82
397.736	2.79
398.096	2.79
398.456	2.81
398.816	2.82
399.176	2.81
399.535	2.8
399.895	2.81
400.255	2.83
400.615	2.87
400.975	2.87
401.334	2.85
401.694	2.88
402.054	2.82
402.413	2.79
402.773	2.8
403.132	2.79
403.492	2.8
403.851	2.79
404.211	2.79
404.57	2.75
404.929	2.73
405.288	2.77
405.648	2.76
406.007	2.78
406.366	2.75
406.725	2.79
407.084	2.8
407.443	2.78
407.802	2.78
408.161	2.76
408.52	2.76
408.879	2.75
409.238	2.78
409.596	2.78
409.955	2.77
410.314	2.77
410.673	2.76
411.031	2.74
411.39	2.75
411.748	2.77
412.107	2.8
412.465	2.82
412.824	2.8
413.182	2.83
413.54	2.83
413.899	2.83
414.257	2.82
414.615	2.84
414.974	2.86
415.332	2.85
415.69	2.85
416.048	2.83
416.406	2.84
416.764	2.83
417.122	2.86
417.48	2.84
417.838	2.85
418.195	2.87
418.553	2.87
418.911	2.87
419.269	2.87
419.626	2.87
419.984	2.87
420.342	2.88
420.699	2.87
421.057	2.87
421.414	2.86
421.772	2.87
422.129	2.86
422.486	2.87
422.844	2.88
423.201	2.88
423.558	2.88
423.915	2.89
424.273	2.89
424.63	2.88
424.987	2.89
425.344	2.89
425.701	2.89
426.058	2.92
426.415	2.93
426.772	2.91
427.128	2.92
427.485	2.91
427.842	2.9
428.199	2.92
428.555	2.94
428.912	2.97
429.269	2.97
429.625	2.98
429.982	2.98
430.338	2.98
430.695	3.01
431.051	3.02
431.407	3.02
431.764	3.03
432.12	3.02
432.476	3.01
432.832	3
433.189	3
433.545	2.98
433.901	2.98
434.257	3
434.613	3.02
434.969	3.02
435.325	3.03
435.681	3.03
436.036	3.01
436.392	2.97
436.748	2.98
437.104	2.95
437.459	2.94
437.815	2.93
438.171	2.92
438.526	2.92
438.882	2.92
439.237	2.92
439.593	2.94
439.948	2.96
440.304	2.96
440.659	2.97
441.014	2.97
441.369	2.96
441.725	2.95
442.08	2.93
442.435	2.95
442.79	2.93
443.145	2.93
443.5	2.94
443.855	2.95
444.21	2.96
444.565	2.97
444.92	2.99
445.275	2.98
445.629	2.99
445.984	2.99
446.339	3
446.693	2.98
447.048	2.96
447.403	2.95
447.757	2.95
448.112	2.95
448.466	2.96
448.82	2.97
449.175	2.99
449.529	3
449.883	2.99
450.238	2.99
450.592	3.01
450.946	2.99
451.3	2.99
451.654	3
452.008	2.99
452.362	2.98
452.716	2.98
453.07	2.98
453.424	2.99
453.778	2.98
454.132	2.98
454.486	3
454.839	3.01
455.193	2.99
455.547	2.99
455.9	2.98
456.254	2.99
456.607	2.98
456.961	2.98
457.314	2.99
457.668	2.99
458.021	2.97
458.375	2.98
458.728	2.98
459.081	2.97
459.434	2.97
459.787	2.96
460.141	2.97
460.494	2.98
460.847	2.98
461.2	2.97
461.553	2.99
461.906	2.98
462.259	3
462.611	3.01
462.964	3
463.317	3
463.67	3
464.022	2.99
464.375	2.98
464.728	2.98
465.08	2.99
465.433	2.99
465.785	2.99
466.138	2.99
466.49	2.99
466.843	3
467.195	3.01
467.547	3.01
467.899	3
468.252	2.99
468.604	3.01
468.956	3
469.308	3.01
469.66	2.99
470.012	3
470.364	3.01
470.716	3.02
471.068	3.01
471.42	3.04
471.772	3.05
472.123	3.05
472.475	3.04
472.827	3.06
473.178	3.08
473.53	3.08
473.882	3.08
474.233	3.09
474.585	3.08
474.936	3.09
475.288	3.08
475.639	3.08
475.99	3.09
476.342	3.08
476.693	3.09
477.044	3.11
477.395	3.09
477.746	3.07
478.097	3.06
478.448	3.07
478.8	3.06
479.15	3.04
479.501	3.04
479.852	3.04
480.203	3.04
480.554	3.03
480.905	3.03
481.255	3.04
481.606	3.05
481.957	3.05
482.307	3.05
482.658	3.06
483.009	3.06
483.359	3.06
483.709	3.07
484.06	3.06
484.41	3.06
484.761	3.07
485.111	3.07
485.461	3.08
485.811	3.07
486.162	3.08
486.512	3.1
486.862	3.11
487.212	3.11
487.562	3.11
487.912	3.12
488.262	3.11
488.612	3.11
488.961	3.11
489.311	3.11
489.661	3.11
490.011	3.11
490.36	3.11
490.71	3.11
491.06	3.12
491.409	3.12
491.759	3.11
492.108	3.11
492.458	3.11
492.807	3.11
493.157	3.12
493.506	3.11
493.855	3.1
494.204	3.1
494.554	3.11
494.903	3.11
495.252	3.1
495.601	3.11
495.95	3.12
496.299	3.12
496.648	3.12
496.997	3.12
497.346	3.14
497.695	3.15
498.043	3.16
498.392	3.15
498.741	3.18
499.09	3.17
499.438	3.2
499.787	3.21
500.135	3.22
500.484	3.22
500.832	3.22
501.181	3.21
501.529	3.21
501.878	3.2
502.226	3.22
502.574	3.23
502.923	3.21
503.271	3.21
503.619	3.23
503.967	3.22
504.315	3.23
504.663	3.21
505.011	3.21
505.359	3.21
505.707	3.22
506.055	3.21
506.403	3.24
506.751	3.23
507.098	3.23
507.446	3.23
507.794	3.24
508.141	3.25
508.489	3.25
508.837	3.25
509.184	3.25
509.531	3.26
509.879	3.27
510.226	3.3
510.574	3.32
510.921	3.32
511.268	3.33
511.616	3.32
511.963	3.35
512.31	3.36
512.657	3.37
513.004	3.35
513.351	3.36
513.698	3.36
514.045	3.35
514.392	3.35
514.739	3.34
515.086	3.35
515.432	3.34
515.779	3.34
516.126	3.37
516.473	3.38
516.819	3.37
517.166	3.39
517.512	3.37
517.859	3.37
518.205	3.36
518.552	3.37
518.898	3.39
519.245	3.37
519.591	3.37
519.937	3.36
520.283	3.37
520.629	3.37
520.976	3.36
521.322	3.37
521.668	3.37
522.014	3.38
522.36	3.39
522.706	3.39
523.052	3.4
523.398	3.38
523.743	3.37
524.089	3.36
524.435	3.36
524.781	3.38
525.126	3.38
525.472	3.39
525.817	3.39
526.163	3.38
526.509	3.39
526.854	3.38
527.199	3.39
527.545	3.39
527.89	3.39
528.235	3.39
528.581	3.39
528.926	3.4
529.271	3.41
529.616	3.41
529.961	3.4
530.306	3.41
530.651	3.42
530.996	3.43
531.341	3.44
531.686	3.44
532.031	3.44
532.376	3.44
532.721	3.45
533.065	3.43
533.41	3.44
533.755	3.45
534.099	3.46
534.444	3.46
534.788	3.47
535.133	3.47
535.477	3.48
535.822	3.48
536.166	3.48
536.51	3.48
536.855	3.48
537.199	3.49
537.543	3.47
537.887	3.46
538.231	3.47
538.576	3.47
538.92	3.46
539.264	3.45
539.608	3.46
539.951	3.45
540.295	3.45
540.639	3.45
540.983	3.44
541.327	3.45
541.671	3.46
542.014	3.45
542.358	3.46
542.701	3.47
543.045	3.47
543.389	3.47
543.732	3.48
544.075	3.49
544.419	3.49
544.762	3.5
545.105	3.51
545.449	3.52
545.792	3.52
546.135	3.53
546.478	3.54
546.821	3.54
547.165	3.55
547.508	3.57
547.851	3.57
548.194	3.58
548.536	3.57
548.879	3.57
549.222	3.57
549.565	3.57
549.908	3.57
550.25	3.56
550.593	3.56
550.936	3.53
551.278	3.54
551.621	3.54
551.963	3.54
552.306	3.52
552.648	3.51
552.991	3.54
553.333	3.53
553.675	3.54
554.017	3.56
554.36	3.56
554.702	3.57
555.044	3.57
555.386	3.56
555.728	3.57
556.07	3.57
556.412	3.61
556.754	3.61
557.096	3.6
557.438	3.63
557.78	3.63
558.121	3.67
558.463	3.68
558.805	3.67
559.147	3.67
559.488	3.68
559.83	3.7
560.171	3.68
560.513	3.7
560.854	3.69
561.196	3.67
561.537	3.66
561.878	3.64
562.22	3.64
562.561	3.66
562.902	3.69
563.243	3.68
563.584	3.65
563.925	3.67
564.266	3.65
564.607	3.62
564.948	3.63
565.289	3.61
565.63	3.62
565.971	3.62
566.312	3.62
566.653	3.63
566.993	3.62
567.334	3.61
567.675	3.62
568.015	3.63
568.356	3.62
568.696	3.64
569.037	3.65
569.377	3.68
569.718	3.67
570.058	3.65
570.398	3.65
570.739	3.63
571.079	3.61
571.419	3.63
571.759	3.63
572.099	3.63
572.439	3.62
572.779	3.61
573.119	3.64
573.459	3.66
573.799	3.66
574.139	3.65
574.479	3.67
574.819	3.67
575.158	3.65
575.498	3.63
575.838	3.62
576.177	3.62
576.517	3.61
576.856	3.63
577.196	3.62
577.535	3.64
577.875	3.68
578.214	3.68
578.553	3.69
578.893	3.74
579.232	3.72
579.571	3.73
579.91	3.75
580.25	3.72
580.589	3.67
580.928	3.66
581.267	3.67
581.606	3.64
581.945	3.65
582.283	3.68
582.622	3.7
582.961	3.72
583.3	3.69
583.639	3.69
583.977	3.7
584.316	3.7
584.654	3.68
584.993	3.67
585.332	3.7
585.67	3.72
586.008	3.68
586.347	3.68
586.685	3.66
587.024	3.67
587.362	3.69
587.7	3.73
588.038	3.77
588.376	3.73
588.715	3.72
589.053	3.73
589.391	3.74
589.729	3.74
590.067	3.72
590.404	3.78
590.742	3.78
591.08	3.72
591.418	3.74
591.756	3.77
592.093	3.76
592.431	3.74
592.769	3.73
593.106	3.77
593.444	3.79
593.781	3.81
594.119	3.81
594.456	3.8
594.793	3.82
595.131	3.81
595.468	3.85
595.805	3.88
596.143	3.85
596.48	3.83
596.817	3.83
597.154	3.84
597.491	3.83
597.828	3.82
598.165	3.85
598.502	3.8
598.839	3.79
599.176	3.79
599.512	3.8
599.849	3.79
600.186	3.78
600.523	3.79
600.859	3.83
601.196	3.84
601.532	3.84
601.869	3.81
602.205	3.81
602.542	3.83
602.878	3.83
603.215	3.83
603.551	3.86
603.887	3.86
604.223	3.84
604.56	3.88
604.896	3.86
605.232	3.89
605.568	3.93
605.904	3.94
606.24	3.95
606.576	3.96
606.912	3.96
607.248	3.94
607.583	3.94
607.919	3.92
608.255	3.91
608.591	3.9
608.926	3.92
609.262	3.9
609.597	3.86
609.933	3.85
610.268	3.87
610.604	3.88
610.939	3.86
611.275	3.9
611.61	3.86
611.945	3.88
612.281	3.89
612.616	3.88
612.951	3.88
613.286	3.87
613.621	3.86
613.956	3.86
614.291	3.87
614.626	3.85
614.961	3.81
615.296	3.79
615.631	3.82
615.966	3.83
616.3	3.89
616.635	3.94
616.97	3.9
617.304	3.9
617.639	3.87
617.973	3.93
618.308	3.9
618.642	3.95
618.977	3.93
619.311	3.9
619.646	3.89
619.98	3.84
620.314	3.89
620.648	3.94
620.983	3.94
621.317	3.95
621.651	3.98
621.985	3.99
622.319	3.99
622.653	3.97
622.987	3.99
623.321	3.93
623.655	3.95
623.988	4.02
624.322	4.04
624.656	4.09
624.99	4.09
625.323	4.12
625.657	4.08
625.99	4.1
626.324	4.11
626.657	4.13
626.991	4.16
627.324	4.14
627.658	4.11
627.991	4.13
628.324	4.12
628.657	4.08
628.991	4.09
629.324	4.12
629.657	4.13
629.99	4.14
630.323	4.13
630.656	4.14
630.989	4.13
631.322	4.11
631.655	4.07
631.987	4.04
632.32	4.02
632.653	4
632.986	4.03
633.318	4.06
633.651	4.05
633.984	4.02
634.316	4.04
634.649	4.03
634.981	4.05
635.313	4.05
635.646	4.06
635.978	4.07
636.31	4.07
636.643	4.07
636.975	4
637.307	4.06
637.639	4.01
637.971	3.97
638.303	3.92
638.635	3.9
638.967	3.91
639.299	3.92
639.631	3.93
639.963	3.89
640.295	3.84
640.626	3.86
640.958	3.94
641.29	3.94
641.621	3.98
641.953	3.97
642.285	3.98
642.616	4.04
642.948	4.04
643.279	4.05
643.61	4.03
643.942	4.11
644.273	4.05
644.604	4.1
644.936	4.12
645.267	4.2
645.598	4.22
645.929	4.27
646.26	4.29
646.591	4.34
646.922	4.38
647.253	4.43
647.584	4.43
647.915	4.36
648.245	4.39
648.576	4.36
648.907	4.39
649.238	4.39
649.568	4.36
649.899	4.36
650.229	4.39
650.56	4.38
650.89	4.32
651.221	4.36
651.551	4.31
651.882	4.31
652.212	4.29
652.542	4.27
652.872	4.26
653.203	4.2
653.533	4.16
653.863	4.12
654.193	4.13
654.523	4.11
654.853	4.15
655.183	4.13
655.513	4.15
655.843	4.13
656.172	4.2
656.502	4.22
656.832	4.23
657.162	4.25
657.491	4.22
657.821	4.25
658.15	4.27
658.48	4.25
658.809	4.28
659.139	4.29
659.468	4.33
659.798	4.32
660.127	4.43
660.456	4.46
660.785	4.49
661.115	4.48
661.444	4.45
661.773	4.44
662.102	4.43
662.431	4.42
662.76	4.42
663.089	4.36
663.418	4.35
663.747	4.4
664.076	4.34
664.404	4.36
664.733	4.39
665.062	4.42
665.39	4.47
665.719	4.4
666.048	4.44
666.376	4.44
666.705	4.4
667.033	4.29
667.362	4.3
667.69	4.31
668.018	4.24
668.347	4.27
668.675	4.27
669.003	4.28
669.331	4.34
669.659	4.32
669.987	4.37
670.315	4.37
670.643	4.28
670.971	4.3
671.299	4.37
671.627	4.38
671.955	4.35
672.283	4.36
672.61	4.34
672.938	4.29
673.266	4.29
673.593	4.39
673.921	4.45
674.249	4.38
674.576	4.28
674.904	4.37
675.231	4.4
675.558	4.37
675.886	4.38
676.213	4.4
676.54	4.5
676.867	4.51
677.195	4.51
677.522	4.56
677.849	4.65
678.176	4.58
678.503	4.53
678.83	4.51
679.157	4.48
679.484	4.5
679.81	4.51
680.137	4.42
680.464	4.36
680.791	4.33
681.117	4.34
681.444	4.45
681.771	4.39
682.097	4.38
682.424	4.44
682.75	4.4
683.077	4.34
683.403	4.21
683.729	4.14
684.056	4.17
684.382	4.1
684.708	3.99
685.034	3.98
685.36	4.02
685.686	4.02
686.012	4.07
686.339	4.21
686.664	4.23
686.99	4.41
687.316	4.35
687.642	4.5
687.968	4.52
688.294	4.54
688.619	4.66
688.945	4.66
689.271	4.64
689.596	4.66
689.922	4.68
690.247	4.78
690.573	4.86
690.898	4.81
691.224	4.87
691.549	5.04
691.874	5.1
692.2	5.17
692.525	5.26
692.85	5.18
693.175	5.18
693.5	5.12
693.825	5.01
694.15	5.05
694.475	4.9
694.8	4.85
695.125	4.82
695.45	4.66
695.775	4.7
696.099	4.75
696.424	4.69
696.749	4.66
697.073	4.69
697.398	4.73
697.723	4.8
698.047	4.81
698.372	4.71
698.696	4.78
699.02	4.75
699.345	4.7
699.669	4.8
699.993	4.71
700.318	4.73
700.642	4.65
700.966	4.6
701.29	4.66
701.614	4.65
701.938	4.69
702.262	4.84
702.586	4.84
702.91	4.8
703.234	4.92
703.557	4.98
703.881	4.84
704.205	4.78
704.529	4.75
704.852	4.87
705.176	4.84
705.499	4.9
705.823	4.9
706.146	4.89
706.47	4.81
706.793	4.94
707.117	4.94
707.44	5.14
707.763	5.22
708.086	5.14
708.409	5.28
708.733	5.08
709.056	5.07
709.379	5.1
709.702	5.01
710.025	4.99
710.348	4.95
710.671	4.99
710.993	5.04
711.316	5.14
711.639	5.06
711.962	5.13
712.284	4.95
712.607	4.88
712.93	4.95
713.252	4.97
713.575	4.82
713.897	4.84
714.22	4.68
714.542	4.69
714.864	4.62
715.187	4.61
715.509	4.71
715.831	4.73
716.153	4.7
716.475	4.85
716.798	4.94
717.12	4.97
717.442	5.01
717.764	4.94
718.085	4.8
718.407	4.79
718.729	4.84
719.051	5.01
719.373	4.96
719.695	4.99
720.016	5.16
720.338	5.32
720.659	5.4
720.981	5.62
721.302	5.68
721.624	5.79
721.945	5.81
722.267	5.87
722.588	5.73
722.909	5.7
723.231	5.67
723.552	5.5
723.873	5.56
724.194	5.56
724.515	5.78
724.836	5.71
725.157	5.7
725.478	5.53
725.799	5.47
726.12	5.66
726.441	5.83
726.762	5.74
727.083	5.77
727.403	5.77
727.724	5.71
728.045	5.73
728.365	5.77
728.686	5.77
729.006	5.76
729.327	5.66
729.647	5.81
729.967	5.82
730.288	5.91
730.608	5.84
730.928	5.79
731.249	5.66
731.569	5.95
731.889	5.89
732.209	5.96
732.529	5.82
732.849	5.81
733.169	5.59
733.489	5.69
733.809	5.69
734.129	5.62
734.448	5.6
734.768	5.45
735.088	5.51
735.408	5.43
735.727	5.51
736.047	5.64
736.366	5.5
736.686	5.55
737.005	5.51
737.325	5.62
737.644	5.81
737.963	5.68
738.283	5.48
738.602	5.49
738.921	5.59
739.24	5.67
739.56	5.54
739.879	5.55
740.198	5.36
740.517	5.36
740.836	5.42
741.155	5.4
741.473	5.68
741.792	5.83
742.111	6.05
742.43	5.98
742.748	6
743.067	6.06
743.386	5.98
743.704	6.08
744.023	5.84
744.341	5.63
744.66	5.95
744.978	5.96
745.297	5.87
745.615	5.76
745.933	5.92
746.252	5.97
746.57	5.92
746.888	5.78
747.206	5.57
747.524	5.57
747.842	5.61
748.16	5.75
748.478	5.73
748.796	5.42
749.114	5.59
749.432	5.46
749.749	5.46
750.067	5.34
750.385	5.38
750.703	5.56
751.02	5.72
751.338	5.48
751.655	5.69
751.973	6.09
752.29	6.07
752.608	5.85
752.925	5.86
753.242	5.78
753.56	5.86
753.877	6.06
754.194	5.96
754.511	6.16
754.828	5.84
755.145	5.61
755.462	5.96
755.779	5.93
756.096	6.2
756.413	6.43
756.73	6.51
757.047	6.63
757.364	6.63
757.68	6.74
757.997	6.79
758.314	6.51
758.63	6.16
758.947	6.09
759.264	6.14
759.58	6.12
759.896	6.28
760.213	6.55
760.529	6.36
760.846	6.42
761.162	6.33
761.478	6.49
761.794	6.37
762.11	6.36
762.426	6.33
762.743	6.27
763.059	5.99
763.375	6.08
763.69	6.01
764.006	6.17
764.322	6.18
764.638	6.15
764.954	6.35
765.27	6.44
765.585	6.55
765.901	6.56
766.216	6.64
766.532	6.82
766.848	6.48
767.163	6.6
767.478	6.77
767.794	6.98
768.109	6.79
768.424	6.98
768.74	6.69
769.055	6.58
769.37	6.8
769.685	7.07
770	7.01
770.315	6.85
770.63	6.89
770.945	7.04
771.26	7.22
771.575	6.93
771.89	6.82
772.205	6.75
772.52	6.72
772.834	6.55
773.149	6.31
773.464	6.72
773.778	7.09
774.093	6.89
774.407	6.79
774.722	6.69
775.036	6.8
775.351	7.2
775.665	7.43
775.979	7.19
776.293	7.27
776.608	7.02
776.922	7.15
777.236	6.89
777.55	6.39
777.864	6.11
778.178	6.71
778.492	7.31
778.806	7.14
779.12	7.65
779.434	8.12
779.747	8.12
780.061	8.14
780.375	7.68
780.689	7.82
781.002	7.48
781.316	7.79
781.629	7.93
781.943	8.03
782.256	7.96
782.57	8.05
782.883	7.91
783.196	8.28
783.51	7.83
783.823	8
784.136	8.35
784.449	8.45
784.762	7.77
785.075	6.98
785.388	7.27
785.701	6.83
786.014	6.51
786.327	6.78
786.64	6.82
786.953	6.9
787.266	6.72
787.578	7.11
787.891	7.24
788.204	7.11
788.516	7.07
788.829	7.22
789.141	7.38
789.454	7.45
789.766	7.8
790.079	8.12
790.391	7.78
790.703	7.65
791.016	8.25
791.328	8.38
791.64	8.68
791.952	8.87
792.264	8.69
792.576	8.75
792.888	8.35
793.2	8.47
793.512	8.91
793.824	8.93
794.136	8.29
794.448	8.5
794.76	8.06
795.071	8
795.383	7.52
795.695	7.09
796.006	6.82
796.318	6.33
796.629	6.46
796.941	6.7
797.252	7.05
797.564	6.46
797.875	6.79
798.186	6.95
798.497	7.23
798.809	7.39
799.12	7.35
799.431	7.59
799.742	7.19
800.053	7.16
800.364	7.54
800.675	7.62
800.986	6.78
801.297	7.36
801.608	7.01
801.918	7.35
802.229	7.66
802.54	7.79
802.851	7.83
803.161	7.98
803.472	7.91
803.782	8.25
804.093	8.86
804.403	8.71
804.714	8.78
805.024	8.45
805.334	8.7
805.645	8.65
805.955	8.99
806.265	9.52
806.575	9.38
806.885	9.16
807.195	9.54
807.505	10.3
807.815	10.14
808.125	10.82
808.435	11.22
808.745	10.97
809.055	11.18
809.365	11.55
809.674	11.89
809.984	11.35
810.294	10.2
810.603	9.93
810.913	10.06
811.222	10.09
811.532	10.12
811.841	10.28
812.151	11.17
812.46	10.94
812.769	10.67
813.079	10.81
813.388	11.08
813.697	11.12
814.006	11.3
814.315	11.15
814.624	10.54
814.933	10.63
815.242	10.76
815.551	10.82
815.86	10.6
816.169	10.17
816.478	10.75
816.786	10.62
817.095	10.45
817.404	10.01
817.712	9.8
818.021	9.61
818.33	9
818.638	8.51
818.947	8.83
819.255	8.92
819.563	8.76
819.872	8.49
820.18	8.42
820.488	8.13
820.796	8.28
821.105	8.35
821.413	8.19
821.721	8.23
822.029	8.13
822.337	8.04
822.645	8.19
822.953	8.15
823.26	8.4
823.568	8.41
823.876	8.59
824.184	8.66
824.491	8.71
824.799	8.79
825.107	8.78
825.414	8.79
825.722	8.75
826.029	8.75
826.337	8.78
826.644	8.87
826.951	8.86
827.259	8.82
827.566	8.85
827.873	8.91
828.18	9.08
828.488	9.18
828.795	9.47
829.102	9.51
829.409	9.66
829.716	9.53
830.023	9.49
830.329	9.56
830.636	9.67
830.943	9.65
831.25	9.6
831.557	9.39
831.863	9.21
832.17	9.18
832.476	9
832.783	9.02
833.089	8.73
833.396	9.08
833.702	9.48
834.009	9.78
834.315	9.74
834.621	9.81
834.928	9.83
835.234	9.53
835.54	9.44
835.846	9.62
836.152	9.63
836.458	9.99
836.764	9.32
837.07	9.04
837.376	8.79
837.682	9.31
837.988	9.74
838.293	9.92
838.599	10.14
838.905	10.04
839.211	10
839.516	10.91
839.822	11.07
840.127	10.83
840.433	10.07
840.738	9.84
841.044	9.76
841.349	10.17
841.654	10.67
841.959	10.27
842.265	9.79
842.57	10.76
842.875	10.2
843.18	10.36
843.485	10.38
843.79	10.79
844.095	9.43
844.4	10.69
844.705	9.74
845.01	8.79
845.315	8.55
845.619	8.23
845.924	8.21
846.229	8.58
846.533	7.64
846.838	7.64
847.142	7.54
847.447	7.34
847.751	7.6
848.056	6.19
848.36	6.83
848.664	6.26
848.969	4.61
849.273	3.56
849.577	3.74
849.881	4.76
850.185	4.48
850.489	5.54
850.794	3.51
851.097	5.08
851.401	7.44
851.705	7.95
852.009	10.35
852.313	9.35
852.617	8.23
852.92	10.1
853.224	11.82
853.528	13.21
853.831	10.75
854.135	9.13
854.438	10.34
854.742	9.33
855.045	11.41
855.349	11.64
855.652	13.44
855.955	15.42
856.259	15.21
856.562	16.86
856.865	17.17
857.168	16.57
857.471	15.63
857.774	14.33
858.077	16.35
858.38	16.36
858.683	17.04
858.986	16.93
859.289	17.25
859.592	17.56
859.894	17.13
860.197	19.4
860.5	19.67
860.802	19.38
861.105	21.14
861.407	18.78
861.71	18.8
862.012	17.78
862.315	15.24
862.617	14.88
862.919	13.6
863.222	14.67
863.524	14.31
863.826	14.22
864.128	14.36
864.43	13.19
864.732	11.78
865.034	9.81
865.336	8.4
865.638	6.52
865.94	4.3
866.242	4.53
866.544	1.87
866.846	1.6
867.147	2.68
867.449	1.92
867.751	4.18
868.052	4.9
868.354	3.93
868.655	5.56
868.957	4.82
869.258	5.59
869.56	4.2
869.861	4.96
870.162	4.59
870.463	6.43
870.765	5.83
871.066	6.63
871.367	7.27
871.668	8.96
871.969	10.99
872.27	10.68
872.571	9.32
872.872	12.71
873.173	12.44
873.473	11.24
873.774	9.68
874.075	8.65
874.376	8.39
874.676	12.17
874.977	11.95
875.277	12.91
875.578	12.41
875.878	12.43
876.179	12.93
876.479	13.41
876.78	11.72
877.08	12.57
877.38	11.71
877.68	12.36
877.981	12.54
878.281	10.03
878.581	12.37
