Data from BU26938_Reflection_00004.txt Node
Date: Tue Nov 19 10:42:13 EST 2019
User: vgr7
Spectrometer: USB2G7710
Scans to average: 3
Trigger mode: 4
Integration Time (sec): 2.000000E-2
Electric dark correction enabled: true
Boxcar width: 10
XAxis mode: Wavelengths
Number of Pixels in Spectrum: 2048
>>>>>Begin Spectral Data<<<<<
177.721	440.47
178.105	-3015.38
178.488	1746.62
178.871	11650
179.254	409.68
179.636	313.07
180.019	120.48
180.402	-76.19
180.785	447.37
181.168	-163.36
181.55	-445.45
181.933	-214.14
182.316	-250.65
182.698	390.32
183.081	-139.54
183.463	228.83
183.846	985.25
184.228	783.54
184.611	1286.05
184.993	417.65
185.376	4814.29
185.758	-79.81
186.14	-47.54
186.522	-62.69
186.904	-165.12
187.287	-95.33
187.669	-120.14
188.051	-159.58
188.433	-401.29
188.815	-386.28
189.197	-230.37
189.579	-286.89
189.961	-668.47
190.342	-146.72
190.724	-299.55
191.106	-360.92
191.488	-152.16
191.869	-69.9
192.251	-49.39
192.633	-70.29
193.014	-57.03
193.396	-47.14
193.777	-46.46
194.159	-56.71
194.54	-29.24
194.922	-40.91
195.303	-43.77
195.684	-44.98
196.065	-46.34
196.447	-29.05
196.828	-33.39
197.209	-25.34
197.59	-18.32
197.971	-7.32
198.352	-10.64
198.733	-8.78
199.114	-4.48
199.495	-4.92
199.876	-2.29
200.257	-9.22
200.638	-18.77
201.018	-19.5
201.399	-9.67
201.78	-4.34
202.16	5.54
202.541	-22.45
202.922	-25.41
203.302	-35.86
203.683	-49.61
204.063	-40.72
204.444	-40.45
204.824	-34.06
205.204	-56.81
205.585	-46.63
205.965	-93.55
206.345	-49.16
206.725	-46.51
207.106	-36.99
207.486	-53.35
207.866	-74.24
208.246	-71.01
208.626	-86.75
209.006	-109.51
209.386	-125.62
209.766	-108.84
210.145	-117.21
210.525	-249.37
210.905	-150.65
211.285	-28.07
211.664	15.58
212.044	22.97
212.424	-11.87
212.803	-61.86
213.183	-41.4
213.562	-50.71
213.942	-34.48
214.321	-72.39
214.701	-99.63
215.08	-134.75
215.459	-60.04
215.838	-40.94
216.218	-33.27
216.597	-16.37
216.976	-39.58
217.355	-43.85
217.734	-57.56
218.113	-37.74
218.492	-37.71
218.871	-21.56
219.25	-30.82
219.629	-60.11
220.008	-40.4
220.387	-45.02
220.766	-17.23
221.144	-35.93
221.523	-38.34
221.902	-43.47
222.28	-32.96
222.659	-14.83
223.037	-3.89
223.416	-11.68
223.794	-18.67
224.173	-30.67
224.551	-31.73
224.929	-31.26
225.308	-36.48
225.686	-34.1
226.064	-37.42
226.442	-24.21
226.821	-24.59
227.199	-23.72
227.577	-10.58
227.955	-7.46
228.333	-6.18
228.711	-8.88
229.089	-5.97
229.467	-2.7
229.845	-0.43
230.222	5.4
230.6	5.89
230.978	3.61
231.356	4.34
231.733	7.48
232.111	8.49
232.488	9.69
232.866	13.34
233.243	15.11
233.621	13.5
233.998	13.65
234.376	12.56
234.753	11.61
235.13	11.91
235.508	8.96
235.885	7.8
236.262	7.49
236.639	9.15
237.016	7.21
237.393	6.32
237.77	6.29
238.147	5.38
238.524	5.41
238.901	6.01
239.278	5.27
239.655	5.39
240.032	4.97
240.409	4.26
240.785	3.12
241.162	3.44
241.539	3.77
241.915	3.81
242.292	4.06
242.668	4.57
243.045	4.74
243.421	4.47
243.798	4.55
244.174	4.71
244.551	4.41
244.927	4.76
245.303	4.32
245.679	4.34
246.056	4.02
246.432	3.97
246.808	3.65
247.184	3.58
247.56	3.23
247.936	3.37
248.312	3.79
248.688	3.85
249.064	3.8
249.44	3.46
249.815	3.57
250.191	3.3
250.567	3.23
250.943	3.22
251.318	3.19
251.694	3
252.069	2.85
252.445	2.81
252.82	3.04
253.196	3.49
253.571	3.39
253.947	3.64
254.322	3.47
254.697	3.94
255.073	3.92
255.448	4.11
255.823	3.92
256.198	3.34
256.573	3.48
256.948	3.49
257.323	3.84
257.698	3.64
258.073	3.77
258.448	3.78
258.823	3.69
259.198	3.72
259.573	3.59
259.948	3.75
260.322	3.69
260.697	3.43
261.072	3.31
261.446	3.25
261.821	3.23
262.195	3.31
262.57	3.25
262.944	3.28
263.319	3.33
263.693	3.49
264.067	3.63
264.442	3.69
264.816	3.61
265.19	3.51
265.564	3.58
265.938	3.66
266.313	3.58
266.687	3.44
267.061	3.46
267.435	3.63
267.809	3.38
268.183	3.44
268.556	3.46
268.93	3.58
269.304	3.81
269.678	3.94
270.051	4.03
270.425	3.9
270.799	3.77
271.172	3.65
271.546	3.67
271.919	3.72
272.293	3.74
272.666	3.78
273.04	3.93
273.413	3.89
273.787	3.72
274.16	3.64
274.533	3.74
274.906	3.85
275.279	3.8
275.653	3.91
276.026	3.98
276.399	4.22
276.772	4.23
277.145	4.05
277.518	3.83
277.891	3.67
278.263	3.6
278.636	3.83
279.009	3.78
279.382	3.66
279.755	3.59
280.127	3.71
280.5	3.81
280.872	3.71
281.245	3.8
281.617	3.84
281.99	3.88
282.362	3.84
282.735	3.65
283.107	3.64
283.479	3.61
283.852	3.59
284.224	3.51
284.596	3.43
284.968	3.39
285.34	3.42
285.713	3.51
286.085	3.52
286.457	3.38
286.829	3.53
287.201	3.45
287.572	3.39
287.944	3.38
288.316	3.24
288.688	3.25
289.06	3.25
289.431	3.4
289.803	3.42
290.175	3.47
290.546	3.53
290.918	3.66
291.289	3.64
291.661	3.66
292.032	3.6
292.403	3.62
292.775	3.72
293.146	3.77
293.517	3.77
293.889	3.85
294.26	3.93
294.631	3.82
295.002	3.97
295.373	4.18
295.744	3.97
296.115	3.96
296.486	4.02
296.857	4.05
297.228	3.87
297.599	3.89
297.97	4.08
298.34	4.16
298.711	4.01
299.082	4.04
299.452	3.93
299.823	3.9
300.194	3.9
300.564	3.77
300.935	3.72
301.305	3.66
301.676	3.6
302.046	3.61
302.416	3.58
302.787	3.42
303.157	3.25
303.527	3.36
303.897	3.5
304.267	3.31
304.637	3.18
305.008	3.19
305.378	3.15
305.748	2.94
306.117	2.83
306.487	2.81
306.857	2.89
307.227	3.14
307.597	3.26
307.967	3.13
308.336	3.23
308.706	3.2
309.076	3.28
309.445	3.37
309.815	3.31
310.184	3.26
310.554	3.31
310.923	3.24
311.293	3.22
311.662	3.18
312.031	3.21
312.401	3.15
312.77	3.17
313.139	3.22
313.508	3.09
313.877	2.99
314.246	3.03
314.616	3.01
314.985	2.89
315.353	2.75
315.722	2.83
316.091	2.8
316.46	2.66
316.829	2.75
317.198	2.75
317.567	2.9
317.935	3.04
318.304	3.14
318.672	3.27
319.041	3.28
319.41	3.27
319.778	3.24
320.147	3.3
320.515	3.35
320.883	3.25
321.252	3.36
321.62	3.44
321.988	3.57
322.357	3.46
322.725	3.35
323.093	3.41
323.461	3.47
323.829	3.52
324.197	3.67
324.565	3.47
324.933	3.31
325.301	3.19
325.669	3.14
326.037	3.18
326.405	3.12
326.772	3.11
327.14	3.05
327.508	3.07
327.875	3.14
328.243	3.1
328.61	3.11
328.978	2.95
329.346	2.87
329.713	2.8
330.08	2.88
330.448	2.97
330.815	2.8
331.182	2.67
331.55	2.53
331.917	2.54
332.284	2.53
332.651	2.69
333.018	2.67
333.385	2.6
333.752	2.51
334.119	2.58
334.486	2.42
334.853	2.53
335.22	2.61
335.587	2.49
335.954	2.48
336.32	2.47
336.687	2.67
337.054	2.7
337.42	2.69
337.787	2.65
338.153	2.73
338.52	2.97
338.886	2.99
339.253	3.02
339.619	3.01
339.986	2.91
340.352	2.89
340.718	2.91
341.084	2.96
341.451	2.98
341.817	2.92
342.183	2.99
342.549	2.9
342.915	2.82
343.281	2.85
343.647	2.91
344.013	2.94
344.379	2.95
344.745	2.95
345.11	2.95
345.476	2.89
345.842	2.72
346.208	2.68
346.573	2.8
346.939	2.89
347.304	2.89
347.67	2.95
348.035	2.91
348.401	2.96
348.766	2.97
349.132	2.96
349.497	3.01
349.862	2.97
350.228	3
350.593	2.94
350.958	3
351.323	2.96
351.688	2.94
352.053	2.86
352.418	2.98
352.783	2.9
353.148	2.94
353.513	2.98
353.878	2.91
354.243	2.78
354.608	2.79
354.972	2.74
355.337	2.8
355.702	2.75
356.066	2.78
356.431	2.78
356.795	2.79
357.16	2.71
357.524	2.8
357.889	2.77
358.253	2.85
358.618	2.86
358.982	2.84
359.346	2.86
359.71	2.86
360.075	2.86
360.439	2.93
360.803	2.93
361.167	2.9
361.531	2.96
361.895	3.05
362.259	2.99
362.623	2.98
362.987	2.92
363.351	2.96
363.714	2.91
364.078	2.93
364.442	2.92
364.806	2.97
365.169	2.96
365.533	2.98
365.896	3
366.26	2.95
366.623	3
366.987	2.98
367.35	3.06
367.714	2.92
368.077	2.94
368.44	2.96
368.803	3.05
369.167	2.98
369.53	2.94
369.893	2.96
370.256	2.98
370.619	3.02
370.982	2.98
371.345	2.95
371.708	2.91
372.071	2.88
372.434	2.83
372.797	2.82
373.159	2.87
373.522	2.85
373.885	2.88
374.247	2.88
374.61	2.91
374.973	2.86
375.335	2.93
375.698	2.86
376.06	2.87
376.423	2.83
376.785	2.83
377.147	2.82
377.51	2.85
377.872	2.83
378.234	2.88
378.596	2.91
378.958	2.94
379.321	2.95
379.683	3.05
380.045	3.1
380.407	3.09
380.769	3.01
381.13	3.03
381.492	3.03
381.854	3.03
382.216	3.01
382.578	3.01
382.939	3.05
383.301	3.07
383.663	3.04
384.024	3.04
384.386	3.06
384.747	3.02
385.109	3.05
385.47	3.07
385.832	3.04
386.193	3.04
386.554	3
386.916	3.03
387.277	3.01
387.638	3
387.999	3.02
388.36	3.05
388.721	3.07
389.082	3.08
389.443	3.09
389.804	3.1
390.165	3.11
390.526	3.1
390.887	3.12
391.248	3.13
391.609	3.12
391.969	3.15
392.33	3.16
392.691	3.11
393.051	3.08
393.412	3.07
393.772	3.06
394.133	3.07
394.493	3.01
394.854	3.02
395.214	3.02
395.574	3
395.935	2.98
396.295	2.94
396.655	2.91
397.015	2.88
397.376	2.88
397.736	2.85
398.096	2.85
398.456	2.81
398.816	2.78
399.176	2.78
399.535	2.74
399.895	2.75
400.255	2.77
400.615	2.78
400.975	2.81
401.334	2.82
401.694	2.81
402.054	2.86
402.413	2.82
402.773	2.84
403.132	2.84
403.492	2.84
403.851	2.85
404.211	2.86
404.57	2.87
404.929	2.86
405.288	2.89
405.648	2.87
406.007	2.9
406.366	2.93
406.725	2.93
407.084	2.92
407.443	2.91
407.802	2.9
408.161	2.92
408.52	2.9
408.879	2.92
409.238	2.96
409.596	2.95
409.955	2.95
410.314	2.95
410.673	2.99
411.031	2.95
411.39	2.97
411.748	2.99
412.107	2.98
412.465	2.94
412.824	2.94
413.182	2.93
413.54	2.93
413.899	2.92
414.257	2.93
414.615	2.95
414.974	2.97
415.332	2.96
415.69	2.93
416.048	2.94
416.406	2.91
416.764	2.88
417.122	2.86
417.48	2.87
417.838	2.85
418.195	2.85
418.553	2.87
418.911	2.86
419.269	2.85
419.626	2.85
419.984	2.87
420.342	2.85
420.699	2.85
421.057	2.84
421.414	2.85
421.772	2.85
422.129	2.85
422.486	2.86
422.844	2.86
423.201	2.87
423.558	2.86
423.915	2.87
424.273	2.88
424.63	2.89
424.987	2.9
425.344	2.89
425.701	2.9
426.058	2.89
426.415	2.89
426.772	2.89
427.128	2.9
427.485	2.92
427.842	2.93
428.199	2.94
428.555	2.93
428.912	2.92
429.269	2.92
429.625	2.93
429.982	2.91
430.338	2.93
430.695	2.9
431.051	2.91
431.407	2.9
431.764	2.89
432.12	2.88
432.476	2.87
432.832	2.88
433.189	2.87
433.545	2.86
433.901	2.86
434.257	2.85
434.613	2.85
434.969	2.83
435.325	2.84
435.681	2.82
436.036	2.84
436.392	2.85
436.748	2.87
437.104	2.86
437.459	2.86
437.815	2.84
438.171	2.85
438.526	2.86
438.882	2.89
439.237	2.9
439.593	2.91
439.948	2.91
440.304	2.92
440.659	2.92
441.014	2.93
441.369	2.96
441.725	2.97
442.08	2.96
442.435	2.96
442.79	2.94
443.145	2.96
443.5	2.94
443.855	2.92
444.21	2.92
444.565	2.92
444.92	2.93
445.275	2.94
445.629	2.95
445.984	2.93
446.339	2.93
446.693	2.93
447.048	2.92
447.403	2.91
447.757	2.92
448.112	2.92
448.466	2.92
448.82	2.89
449.175	2.89
449.529	2.89
449.883	2.89
450.238	2.9
450.592	2.9
450.946	2.9
451.3	2.92
451.654	2.92
452.008	2.93
452.362	2.92
452.716	2.94
453.07	2.94
453.424	2.94
453.778	2.94
454.132	2.94
454.486	2.96
454.839	2.95
455.193	2.95
455.547	2.95
455.9	2.97
456.254	3
456.607	2.99
456.961	2.99
457.314	2.99
457.668	3
458.021	3
458.375	3
458.728	3
459.081	2.99
459.434	2.98
459.787	2.97
460.141	2.95
460.494	2.95
460.847	2.96
461.2	2.96
461.553	2.95
461.906	2.95
462.259	2.96
462.611	2.94
462.964	2.94
463.317	2.92
463.67	2.91
464.022	2.89
464.375	2.89
464.728	2.9
465.08	2.89
465.433	2.9
465.785	2.91
466.138	2.91
466.49	2.91
466.843	2.92
467.195	2.95
467.547	2.95
467.899	2.96
468.252	2.98
468.604	2.98
468.956	2.99
469.308	2.99
469.66	3
470.012	3.01
470.364	3.01
470.716	3.03
471.068	3.02
471.42	3.07
471.772	3.08
472.123	3.09
472.475	3.1
472.827	3.1
473.178	3.1
473.53	3.1
473.882	3.11
474.233	3.12
474.585	3.11
474.936	3.11
475.288	3.11
475.639	3.09
475.99	3.07
476.342	3.1
476.693	3.08
477.044	3.05
477.395	3.04
477.746	3.04
478.097	3.05
478.448	3.07
478.8	3.06
479.15	3.06
479.501	3.05
479.852	3.04
480.203	3.04
480.554	3.05
480.905	3.05
481.255	3.05
481.606	3.05
481.957	3.06
482.307	3.06
482.658	3.05
483.009	3.05
483.359	3.06
483.709	3.06
484.06	3.07
484.41	3.08
484.761	3.08
485.111	3.08
485.461	3.08
485.811	3.07
486.162	3.07
486.512	3.07
486.862	3.07
487.212	3.08
487.562	3.07
487.912	3.07
488.262	3.07
488.612	3.06
488.961	3.06
489.311	3.05
489.661	3.05
490.011	3.05
490.36	3.06
490.71	3.05
491.06	3.05
491.409	3.03
491.759	3.03
492.108	3.04
492.458	3.04
492.807	3.02
493.157	3.03
493.506	3.03
493.855	3.05
494.204	3.04
494.554	3.03
494.903	3.04
495.252	3.03
495.601	3.04
495.95	3.05
496.299	3.06
496.648	3.06
496.997	3.05
497.346	3.07
497.695	3.08
498.043	3.09
498.392	3.11
498.741	3.14
499.09	3.14
499.438	3.14
499.787	3.15
500.135	3.14
500.484	3.13
500.832	3.12
501.181	3.11
501.529	3.13
501.878	3.15
502.226	3.17
502.574	3.17
502.923	3.17
503.271	3.17
503.619	3.18
503.967	3.18
504.315	3.21
504.663	3.19
505.011	3.2
505.359	3.17
505.707	3.16
506.055	3.15
506.403	3.17
506.751	3.15
507.098	3.17
507.446	3.18
507.794	3.18
508.141	3.2
508.489	3.21
508.837	3.19
509.184	3.18
509.531	3.18
509.879	3.17
510.226	3.17
510.574	3.18
510.921	3.16
511.268	3.16
511.616	3.16
511.963	3.17
512.31	3.16
512.657	3.18
513.004	3.16
513.351	3.16
513.698	3.15
514.045	3.17
514.392	3.15
514.739	3.17
515.086	3.17
515.432	3.17
515.779	3.17
516.126	3.2
516.473	3.2
516.819	3.22
517.166	3.23
517.512	3.25
517.859	3.26
518.205	3.25
518.552	3.26
518.898	3.27
519.245	3.27
519.591	3.28
519.937	3.28
520.283	3.29
520.629	3.29
520.976	3.3
521.322	3.29
521.668	3.29
522.014	3.3
522.36	3.31
522.706	3.29
523.052	3.29
523.398	3.28
523.743	3.28
524.089	3.28
524.435	3.28
524.781	3.29
525.126	3.29
525.472	3.32
525.817	3.33
526.163	3.32
526.509	3.32
526.854	3.33
527.199	3.34
527.545	3.35
527.89	3.36
528.235	3.35
528.581	3.35
528.926	3.36
529.271	3.36
529.616	3.37
529.961	3.37
530.306	3.38
530.651	3.38
530.996	3.38
531.341	3.39
531.686	3.39
532.031	3.37
532.376	3.36
532.721	3.36
533.065	3.34
533.41	3.36
533.755	3.35
534.099	3.34
534.444	3.34
534.788	3.34
535.133	3.34
535.477	3.35
535.822	3.35
536.166	3.34
536.51	3.35
536.855	3.33
537.199	3.33
537.543	3.33
537.887	3.34
538.231	3.33
538.576	3.34
538.92	3.34
539.264	3.34
539.608	3.35
539.951	3.36
540.295	3.38
540.639	3.38
540.983	3.39
541.327	3.39
541.671	3.39
542.014	3.4
542.358	3.39
542.701	3.39
543.045	3.4
543.389	3.4
543.732	3.4
544.075	3.4
544.419	3.4
544.762	3.4
545.105	3.41
545.449	3.43
545.792	3.43
546.135	3.45
546.478	3.46
546.821	3.47
547.165	3.46
547.508	3.44
547.851	3.43
548.194	3.4
548.536	3.4
548.879	3.4
549.222	3.36
549.565	3.37
549.908	3.37
550.25	3.37
550.593	3.35
550.936	3.35
551.278	3.38
551.621	3.39
551.963	3.4
552.306	3.37
552.648	3.37
552.991	3.35
553.333	3.34
553.675	3.35
554.017	3.32
554.36	3.33
554.702	3.33
555.044	3.34
555.386	3.36
555.728	3.36
556.07	3.38
556.412	3.42
556.754	3.4
557.096	3.41
557.438	3.41
557.78	3.42
558.121	3.46
558.463	3.43
558.805	3.43
559.147	3.41
559.488	3.42
559.83	3.44
560.171	3.45
560.513	3.46
560.854	3.43
561.196	3.47
561.537	3.48
561.878	3.5
562.22	3.53
562.561	3.53
562.902	3.54
563.243	3.53
563.584	3.53
563.925	3.57
564.266	3.58
564.607	3.56
564.948	3.54
565.289	3.52
565.63	3.54
565.971	3.55
566.312	3.54
566.653	3.54
566.993	3.5
567.334	3.49
567.675	3.48
568.015	3.48
568.356	3.47
568.696	3.44
569.037	3.43
569.377	3.4
569.718	3.39
570.058	3.39
570.398	3.37
570.739	3.37
571.079	3.33
571.419	3.29
571.759	3.3
572.099	3.31
572.439	3.31
572.779	3.29
573.119	3.29
573.459	3.3
573.799	3.3
574.139	3.3
574.479	3.32
574.819	3.32
575.158	3.34
575.498	3.35
575.838	3.35
576.177	3.35
576.517	3.36
576.856	3.38
577.196	3.37
577.535	3.39
577.875	3.37
578.214	3.37
578.553	3.39
578.893	3.42
579.232	3.42
579.571	3.44
579.91	3.44
580.25	3.43
580.589	3.44
580.928	3.45
581.267	3.45
581.606	3.44
581.945	3.45
582.283	3.44
582.622	3.4
582.961	3.41
583.3	3.39
583.639	3.41
583.977	3.41
584.316	3.42
584.654	3.44
584.993	3.45
585.332	3.44
585.67	3.45
586.008	3.42
586.347	3.44
586.685	3.4
587.024	3.41
587.362	3.38
587.7	3.38
588.038	3.4
588.376	3.44
588.715	3.38
589.053	3.37
589.391	3.4
589.729	3.41
590.067	3.39
590.404	3.42
590.742	3.4
591.08	3.41
591.418	3.42
591.756	3.39
592.093	3.41
592.431	3.44
592.769	3.43
593.106	3.47
593.444	3.43
593.781	3.46
594.119	3.48
594.456	3.47
594.793	3.47
595.131	3.45
595.468	3.42
595.805	3.47
596.143	3.52
596.48	3.5
596.817	3.51
597.154	3.53
597.491	3.53
597.828	3.53
598.165	3.54
598.502	3.53
598.839	3.56
599.176	3.57
599.512	3.56
599.849	3.58
600.186	3.55
600.523	3.59
600.859	3.6
601.196	3.58
601.532	3.59
601.869	3.59
602.205	3.61
602.542	3.61
602.878	3.65
603.215	3.62
603.551	3.61
603.887	3.62
604.223	3.6
604.56	3.58
604.896	3.61
605.232	3.6
605.568	3.59
605.904	3.55
606.24	3.54
606.576	3.55
606.912	3.52
607.248	3.53
607.583	3.51
607.919	3.49
608.255	3.53
608.591	3.55
608.926	3.53
609.262	3.5
609.597	3.51
609.933	3.47
610.268	3.46
610.604	3.46
610.939	3.47
611.275	3.49
611.61	3.49
611.945	3.45
612.281	3.5
612.616	3.53
612.951	3.57
613.286	3.54
613.621	3.56
613.956	3.59
614.291	3.55
614.626	3.55
614.961	3.56
615.296	3.56
615.631	3.6
615.966	3.62
616.3	3.68
616.635	3.65
616.97	3.66
617.304	3.67
617.639	3.72
617.973	3.65
618.308	3.64
618.642	3.64
618.977	3.64
619.311	3.59
619.646	3.58
619.98	3.56
620.314	3.59
620.648	3.58
620.983	3.55
621.317	3.57
621.651	3.6
621.985	3.64
622.319	3.59
622.653	3.52
622.987	3.52
623.321	3.51
623.655	3.53
623.988	3.54
624.322	3.55
624.656	3.57
624.99	3.62
625.323	3.62
625.657	3.65
625.99	3.69
626.324	3.65
626.657	3.62
626.991	3.64
627.324	3.64
627.658	3.66
627.991	3.7
628.324	3.68
628.657	3.62
628.991	3.61
629.324	3.63
629.657	3.64
629.99	3.64
630.323	3.61
630.656	3.57
630.989	3.58
631.322	3.53
631.655	3.5
631.987	3.52
632.32	3.55
632.653	3.52
632.986	3.49
633.318	3.52
633.651	3.59
633.984	3.59
634.316	3.57
634.649	3.54
634.981	3.56
635.313	3.64
635.646	3.7
635.978	3.69
636.31	3.71
636.643	3.71
636.975	3.72
637.307	3.75
637.639	3.8
637.971	3.77
638.303	3.81
638.635	3.8
638.967	3.81
639.299	3.8
639.631	3.82
639.963	3.84
640.295	3.89
640.626	3.84
640.958	3.81
641.29	3.82
641.621	3.81
641.953	3.69
642.285	3.63
642.616	3.59
642.948	3.6
643.279	3.55
643.61	3.56
643.942	3.56
644.273	3.53
644.604	3.53
644.936	3.57
645.267	3.55
645.598	3.55
645.929	3.47
646.26	3.45
646.591	3.45
646.922	3.48
647.253	3.41
647.584	3.4
647.915	3.41
648.245	3.37
648.576	3.41
648.907	3.48
649.238	3.48
649.568	3.49
649.899	3.49
650.229	3.56
650.56	3.57
650.89	3.61
651.221	3.62
651.551	3.64
651.882	3.62
652.212	3.65
652.542	3.66
652.872	3.72
653.203	3.76
653.533	3.75
653.863	3.67
654.193	3.76
654.523	3.78
654.853	3.79
655.183	3.84
655.513	3.87
655.843	3.87
656.172	3.96
656.502	3.92
656.832	3.96
657.162	3.95
657.491	4
657.821	3.94
658.15	3.89
658.48	3.9
658.809	3.91
659.139	3.91
659.468	3.95
659.798	3.95
660.127	3.92
660.456	3.92
660.785	3.94
661.115	3.9
661.444	3.94
661.773	3.98
662.102	3.95
662.431	3.94
662.76	3.96
663.089	3.93
663.418	3.98
663.747	3.9
664.076	3.92
664.404	3.92
664.733	3.94
665.062	4
665.39	3.99
665.719	3.96
666.048	3.88
666.376	3.82
666.705	3.78
667.033	3.8
667.362	3.78
667.69	3.81
668.018	3.86
668.347	3.78
668.675	3.73
669.003	3.76
669.331	3.75
669.659	3.73
669.987	3.66
670.315	3.61
670.643	3.62
670.971	3.57
671.299	3.57
671.627	3.55
671.955	3.48
672.283	3.48
672.61	3.46
672.938	3.52
673.266	3.54
673.593	3.6
673.921	3.65
674.249	3.68
674.576	3.65
674.904	3.6
675.231	3.68
675.558	3.76
675.886	3.73
676.213	3.72
676.54	3.75
676.867	3.79
677.195	3.89
677.522	3.91
677.849	3.97
678.176	4.03
678.503	4.06
678.83	4.1
679.157	4.14
679.484	4.22
679.81	4.23
680.137	4.2
680.464	4.13
680.791	4.04
681.117	4.06
681.444	4.04
681.771	4.05
682.097	4.08
682.424	3.98
682.75	4.01
683.077	4.01
683.403	4.02
683.729	4.07
684.056	3.96
684.382	4
684.708	3.93
685.034	3.88
685.36	3.89
685.686	3.89
686.012	3.83
686.339	3.75
686.664	3.78
686.99	3.81
687.316	3.84
687.642	3.91
687.968	4
688.294	4.01
688.619	4.05
688.945	4.04
689.271	4.16
689.596	4.14
689.922	4.16
690.247	4.08
690.573	4.1
690.898	4.21
691.224	4.14
691.549	4.14
691.874	4.11
692.2	4.13
692.525	4.22
692.85	4.34
693.175	4.4
693.5	4.33
693.825	4.37
694.15	4.33
694.475	4.3
694.8	4.12
695.125	4.23
695.45	4.27
695.775	4.21
696.099	4.13
696.424	4.19
696.749	4.22
697.073	4.14
697.398	4.12
697.723	4.09
698.047	4.24
698.372	4.26
698.696	4.22
699.02	4.24
699.345	4.14
699.669	4.06
699.993	4.03
700.318	4.02
700.642	3.89
700.966	3.89
701.29	3.94
701.614	4.03
701.938	3.95
702.262	3.82
702.586	3.8
702.91	3.85
703.234	3.83
703.557	3.76
703.881	3.99
704.205	3.98
704.529	3.94
704.852	3.78
705.176	3.78
705.499	3.88
705.823	3.84
706.146	3.86
706.47	3.96
706.793	4.03
707.117	4.15
707.44	4.36
707.763	4.48
708.086	4.44
708.409	4.51
708.733	4.51
709.056	4.63
709.379	4.77
709.702	4.84
710.025	4.78
710.348	4.82
710.671	4.75
710.993	4.68
711.316	4.83
711.639	4.93
711.962	4.98
712.284	4.89
712.607	4.87
712.93	4.99
713.252	4.82
713.575	4.68
713.897	4.7
714.22	4.61
714.542	4.58
714.864	4.52
715.187	4.31
715.509	4.43
715.831	4.36
716.153	4.37
716.475	4.29
716.798	4.36
717.12	4.48
717.442	4.41
717.764	4.37
718.085	4.29
718.407	4.24
718.729	4.05
719.051	4.26
719.373	4.33
719.695	4.31
720.016	4.47
720.338	4.57
720.659	4.57
720.981	4.63
721.302	4.89
721.624	4.84
721.945	4.85
722.267	4.86
722.588	4.97
722.909	4.89
723.231	4.95
723.552	4.9
723.873	4.65
724.194	4.7
724.515	4.85
724.836	4.81
725.157	4.7
725.478	4.85
725.799	4.65
726.12	4.59
726.441	4.55
726.762	4.41
727.083	4.49
727.403	4.49
727.724	4.52
728.045	4.24
728.365	4.32
728.686	4.42
729.006	4.34
729.327	4.24
729.647	4.2
729.967	4.15
730.288	4.27
730.608	4.42
730.928	4.39
731.249	4.44
731.569	4.39
731.889	4.51
732.209	4.44
732.529	4.46
732.849	4.43
733.169	4.41
733.489	4.47
733.809	4.54
734.129	4.56
734.448	4.63
734.768	4.7
735.088	4.79
735.408	4.8
735.727	4.85
736.047	5.05
736.366	5.06
736.686	5.03
737.005	5
737.325	4.94
737.644	5.03
737.963	5.12
738.283	5.28
738.602	5.22
738.921	5.34
739.24	5.28
739.56	5.36
739.879	5.42
740.198	5.53
740.517	5.45
740.836	5.37
741.155	5.24
741.473	5.14
741.792	5.07
742.111	5.17
742.43	5.16
742.748	5
743.067	5.13
743.386	5.1
743.704	5.1
744.023	5.08
744.341	5.08
744.66	4.95
744.978	4.78
745.297	4.67
745.615	4.53
745.933	4.81
746.252	4.82
746.57	4.8
746.888	4.95
747.206	5.01
747.524	4.91
747.842	4.76
748.16	5.04
748.478	5.15
748.796	5.03
749.114	4.85
749.432	5.01
749.749	4.95
750.067	4.98
750.385	4.93
750.703	5
751.02	4.94
751.338	4.77
751.655	4.8
751.973	5.01
752.29	5.17
752.608	4.97
752.925	4.91
753.242	4.86
753.56	4.45
753.877	4.33
754.194	4.57
754.511	4.74
754.828	4.39
755.145	4.11
755.462	4.08
755.779	4.02
756.096	3.58
756.413	3.7
756.73	3.72
757.047	3.61
757.364	3.54
757.68	3.67
757.997	4
758.314	4.15
758.63	4.3
758.947	4.22
759.264	4.3
759.58	4.5
759.896	4.91
760.213	5.23
760.529	5.29
760.846	5.35
761.162	5.24
761.478	5.38
761.794	5.76
762.11	5.8
762.426	5.9
762.743	6.29
763.059	6.16
763.375	6.28
763.69	6.29
764.006	6.4
764.322	6.49
764.638	6.53
764.954	6.63
765.27	6.41
765.585	6.55
765.901	6.38
766.216	6.28
766.532	6.01
766.848	5.99
767.163	6.02
767.478	5.85
767.794	6.05
768.109	6.1
768.424	5.88
768.74	5.83
769.055	6.1
769.37	5.73
769.685	5.64
770	5.56
770.315	5.69
770.63	5.77
770.945	5.64
771.26	5.4
771.575	5.17
771.89	5.3
772.205	5.16
772.52	5.41
772.834	5.49
773.149	5.47
773.464	5.6
773.778	5.21
774.093	5.17
774.407	5.31
774.722	5.35
775.036	5.2
775.351	5.27
775.665	4.87
775.979	5.22
776.293	5.55
776.608	5.39
776.922	5.38
777.236	5.07
777.55	4.9
777.864	4.58
778.178	4.24
778.492	4.4
778.806	4.43
779.12	4.61
779.434	4.58
779.747	4.77
780.061	4.62
780.375	5.22
780.689	5.42
781.002	4.85
781.316	4.7
781.629	4.94
781.943	4.9
782.256	4.9
782.57	5.09
782.883	4.75
783.196	4.95
783.51	4.82
783.823	5.14
784.136	4.87
784.449	5.29
784.762	5.73
785.075	5.75
785.388	5.71
785.701	5.15
786.014	4.74
786.327	4.72
786.64	4.47
786.953	4.15
787.266	4.45
787.578	4.92
787.891	4.88
788.204	4.76
788.516	5.14
788.829	5.51
789.141	5.57
789.454	5.64
789.766	6.11
790.079	6.1
790.391	5.88
790.703	6.32
791.016	6.26
791.328	6.14
791.64	5.9
791.952	6.1
792.264	6.48
792.576	6.96
792.888	6.87
793.2	7.05
793.512	6.96
793.824	6.64
794.136	6.71
794.448	7.28
794.76	7.48
795.071	7.1
795.383	6.9
795.695	6.71
796.006	6.57
796.318	5.77
796.629	6.18
796.941	5.97
797.252	5.76
797.564	5.82
797.875	5.72
798.186	5.93
798.497	5.66
798.809	5.45
799.12	5.19
799.431	5.3
799.742	5.38
800.053	5.58
800.364	5.49
800.675	5.29
800.986	5.25
801.297	5.09
801.608	5.61
801.918	5.68
802.229	5.49
802.54	5.81
802.851	6.34
803.161	6.03
803.472	6.84
803.782	7.45
804.093	7.63
804.403	8.05
804.714	8.17
805.024	8.39
805.334	8.66
805.645	9.06
805.955	9.22
806.265	9.05
806.575	9.14
806.885	9.61
807.195	9.99
807.505	9.11
807.815	9.76
808.125	9.16
808.435	9.06
808.745	9.22
809.055	9.55
809.365	9.46
809.674	9.64
809.984	9.43
810.294	9.03
810.603	8.3
810.913	7.82
811.222	7.68
811.532	7.01
811.841	7.24
812.151	7.11
812.46	6.75
812.769	6.63
813.079	6.22
813.388	5.62
813.697	4.87
814.006	5.48
814.315	4.92
814.624	5.43
814.933	5.39
815.242	4.79
815.551	4.77
815.86	5.16
816.169	5.28
816.478	4.8
816.786	4.79
817.095	5.51
817.404	5.54
817.712	5.59
818.021	6.3
818.33	5.88
818.638	5.87
818.947	5.84
819.255	6.25
819.563	6.71
819.872	6.53
820.18	6.9
820.488	7.02
820.796	6.93
821.105	7.03
821.413	6.91
821.721	6.98
822.029	6.98
822.337	7.01
822.645	6.99
822.953	7.09
823.26	7.07
823.568	7.1
823.876	7.09
824.184	7
824.491	6.98
824.799	6.99
825.107	6.94
825.414	6.88
825.722	6.82
826.029	6.69
826.337	6.76
826.644	6.75
826.951	6.61
827.259	6.83
827.566	6.7
827.873	6.84
828.18	6.73
828.488	6.63
828.795	6.45
829.102	6.33
829.409	6.16
829.716	6
830.023	5.94
830.329	6.04
830.636	6.21
830.943	5.99
831.25	6.3
831.557	6.06
831.863	6.31
832.17	6.49
832.476	6.67
832.783	7.23
833.089	7.26
833.396	7.3
833.702	6.87
834.009	7.26
834.315	7.1
834.621	7.65
834.928	7.11
835.234	7.1
835.54	7.02
835.846	6.97
836.152	7.22
836.458	7.25
836.764	7.69
837.07	7.86
837.376	8.01
837.682	7.39
837.988	7.59
838.293	7.63
838.599	7.89
838.905	7.94
839.211	7.68
839.516	7.51
839.822	7.82
840.127	7.75
840.433	7.7
840.738	7.97
841.044	7.11
841.349	7.03
841.654	6.28
841.959	6.16
842.265	6.73
842.57	6.84
842.875	7.24
843.18	5.14
843.485	5.28
843.79	4.92
844.095	6.28
844.4	6.96
844.705	7.03
845.01	6.92
845.315	6.01
845.619	6.38
845.924	5.86
846.229	6.57
846.533	6.64
846.838	4.57
847.142	3.86
847.447	4.7
847.751	6.88
848.056	8.07
848.36	9.31
848.664	8.74
848.969	8.41
849.273	6.35
849.577	8.15
849.881	7.73
850.185	7.56
850.489	5.85
850.794	5.3
851.097	5.86
851.401	5.29
851.705	6.35
852.009	5.97
852.313	5.32
852.617	4.05
852.92	4.38
853.224	5.4
853.528	5.78
853.831	8.11
854.135	7.5
854.438	6.76
854.742	6.94
855.045	5.25
855.349	4.27
855.652	6.05
855.955	6.44
856.259	5.88
856.562	6.5
856.865	7.81
857.168	8.13
857.471	7.19
857.774	7.23
858.077	6.54
858.38	7.43
858.683	8.31
858.986	9.05
859.289	8.31
859.592	8.07
859.894	7.77
860.197	6.08
860.5	8
860.802	7.81
861.105	6.68
861.407	9.43
861.71	10.4
862.012	9.44
862.315	9.87
862.617	9.32
862.919	10.36
863.222	9.22
863.524	8.47
863.826	8.73
864.128	7.71
864.43	9.45
864.732	7.31
865.034	7.11
865.336	6.86
865.638	7.87
865.94	6.98
866.242	5.8
866.544	6.56
866.846	4.88
867.147	6.51
867.449	8.25
867.751	8.39
868.052	7.39
868.354	7.85
868.655	8.1
868.957	7.5
869.258	4.81
869.56	6.51
869.861	5.71
870.162	5.12
870.463	5.41
870.765	5.45
871.066	5.65
871.367	6.18
871.668	5.03
871.969	6.23
872.27	8.69
872.571	11.08
872.872	9.03
873.173	8.19
873.473	7.72
873.774	5.22
874.075	4.18
874.376	5.38
874.676	6.81
874.977	6.03
875.277	8.51
875.578	11.01
875.878	10.36
876.179	12.59
876.479	13.68
876.78	13.7
877.08	12.64
877.38	12.77
877.68	13.11
877.981	13.77
878.281	11.72
878.581	9.61
