Data from BU26845_Reflection_00012.txt Node
Date: Mon Nov 18 16:28:14 EST 2019
User: vgr7
Spectrometer: USB2G7710
Scans to average: 3
Trigger mode: 4
Integration Time (sec): 2.000000E-2
Electric dark correction enabled: true
Boxcar width: 10
XAxis mode: Wavelengths
Number of Pixels in Spectrum: 2048
>>>>>Begin Spectral Data<<<<<
177.721	-105.95
178.105	-33.13
178.488	-88.14
178.871	-43.12
179.254	10.91
179.636	11.5
180.019	-61.78
180.402	136
180.785	869.23
181.168	-1337.5
181.55	-914.93
181.933	129.24
182.316	125.3
182.698	168.76
183.081	151.61
183.463	204.55
183.846	39.32
184.228	-24.58
184.611	-47.72
184.993	-49.1
185.376	-112.19
185.758	-32.51
186.14	-69.71
186.522	-25.8
186.904	-29.4
187.287	-27.36
187.669	-15.57
188.051	-12.24
188.433	-10.81
188.815	-2.63
189.197	-9.01
189.579	-5.48
189.961	0.17
190.342	-8.6
190.724	2.68
191.106	-3.93
191.488	-6.67
191.869	-16.23
192.251	-25.55
192.633	-33.26
193.014	-29.47
193.396	-37.81
193.777	-31.52
194.159	-30.4
194.54	-27.94
194.922	-21.29
195.303	-20.41
195.684	-27.53
196.065	-22.48
196.447	-22.98
196.828	-27.72
197.209	-26.82
197.59	-32.04
197.971	-43.27
198.352	-30.76
198.733	-32.53
199.114	-24.48
199.495	-11.95
199.876	-5.79
200.257	-0.4
200.638	10.74
201.018	4.73
201.399	7.61
201.78	17.29
202.16	9.82
202.541	12.35
202.922	-11.81
203.302	-24.9
203.683	-34.3
204.063	-48.25
204.444	-55.42
204.824	-48.62
205.204	-23.18
205.585	-27.65
205.965	-34.29
206.345	-30.54
206.725	-54.98
207.106	-72.67
207.486	-91.71
207.866	-78.21
208.246	-83.25
208.626	-70.08
209.006	-69.68
209.386	-67.59
209.766	-96.92
210.145	-77.42
210.525	-60.42
210.905	-42.29
211.285	-34.64
211.664	-12.7
212.044	-2.33
212.424	-1.24
212.803	-7.42
213.183	-9.59
213.562	-3.49
213.942	15.1
214.321	17.91
214.701	20.77
215.08	23.62
215.459	29.45
215.838	30.28
216.218	38.4
216.597	47.68
216.976	48.21
217.355	36.17
217.734	33.34
218.113	35.27
218.492	30.71
218.871	19.96
219.25	7.39
219.629	-4.2
220.008	-1.68
220.387	0.22
220.766	7.1
221.144	8.8
221.523	-2.01
221.902	-14.47
222.28	-20.43
222.659	-8.52
223.037	-10.17
223.416	-3.93
223.794	-15.54
224.173	-26.76
224.551	-21.45
224.929	-13.61
225.308	-1.01
225.686	-0.26
226.064	-1.31
226.442	-4.74
226.821	3.44
227.199	8.22
227.577	7.94
227.955	5.43
228.333	4.62
228.711	4.3
229.089	6.77
229.467	4.64
229.845	2.18
230.222	3.56
230.6	2.47
230.978	3.14
231.356	3.62
231.733	5.81
232.111	8.5
232.488	7.93
232.866	5.89
233.243	3.89
233.621	4.25
233.998	4.33
234.376	4.47
234.753	2.41
235.13	0.87
235.508	1.59
235.885	1.21
236.262	0.98
236.639	-0.37
237.016	-1.96
237.393	0.36
237.77	2.1
238.147	2.27
238.524	2
238.901	2.93
239.278	2.88
239.655	2.83
240.032	1.75
240.409	1.79
240.785	2.29
241.162	2.52
241.539	2.77
241.915	2.66
242.292	2.54
242.668	2.86
243.045	3.24
243.421	3.18
243.798	3.36
244.174	3.56
244.551	3.61
244.927	3.8
245.303	3.81
245.679	3.54
246.056	3.4
246.432	3.47
246.808	3.08
247.184	2.91
247.56	2.94
247.936	3.18
248.312	3.19
248.688	3.12
249.064	3.36
249.44	3.14
249.815	3.44
250.191	3.57
250.567	3.49
250.943	3.22
251.318	3.26
251.694	3.12
252.069	3.1
252.445	3.37
252.82	3.28
253.196	3.36
253.571	3.38
253.947	3.43
254.322	3.78
254.697	3.87
255.073	3.76
255.448	3.34
255.823	2.86
256.198	2.61
256.573	2.55
256.948	2.3
257.323	2.45
257.698	2.25
258.073	2.17
258.448	2.36
258.823	2.6
259.198	2.61
259.573	2.66
259.948	2.59
260.322	2.73
260.697	2.74
261.072	2.56
261.446	2.51
261.821	2.47
262.195	2.18
262.57	2.12
262.944	2.16
263.319	2.26
263.693	2.34
264.067	2.49
264.442	2.48
264.816	2.51
265.19	2.42
265.564	2.28
265.938	2.32
266.313	2.13
266.687	1.97
267.061	2.01
267.435	2.13
267.809	1.99
268.183	1.82
268.556	1.77
268.93	1.85
269.304	2.12
269.678	2.28
270.051	2.39
270.425	2.52
270.799	2.6
271.172	2.67
271.546	2.7
271.919	2.62
272.293	2.68
272.666	2.64
273.04	2.78
273.413	2.77
273.787	2.82
274.16	2.9
274.533	2.82
274.906	2.77
275.279	2.66
275.653	2.78
276.026	2.64
276.399	2.66
276.772	2.79
277.145	2.59
277.518	2.38
277.891	2.26
278.263	2.16
278.636	2.15
279.009	2.16
279.382	2.28
279.755	2.19
280.127	2.4
280.5	2.63
280.872	2.56
281.245	2.81
281.617	2.8
281.99	2.83
282.362	2.96
282.735	3.01
283.107	3.05
283.479	3.01
283.852	3.18
284.224	3.12
284.596	2.88
284.968	2.99
285.34	3.09
285.713	3.12
286.085	3.22
286.457	3.25
286.829	3.27
287.201	3.34
287.572	3.39
287.944	3.3
288.316	3.2
288.688	3.15
289.06	3.02
289.431	3.02
289.803	2.97
290.175	2.99
290.546	3
290.918	2.92
291.289	2.97
291.661	2.98
292.032	3.1
292.403	3.23
292.775	3.36
293.146	3.32
293.517	3.38
293.889	3.38
294.26	3.36
294.631	3.4
295.002	3.28
295.373	3.32
295.744	3.23
296.115	3.31
296.486	3.31
296.857	3.46
297.228	3.56
297.599	3.59
297.97	3.52
298.34	3.59
298.711	3.7
299.082	3.6
299.452	3.55
299.823	3.59
300.194	3.73
300.564	3.58
300.935	3.73
301.305	3.73
301.676	3.74
302.046	3.73
302.416	3.69
302.787	3.76
303.157	3.84
303.527	3.93
303.897	3.98
304.267	4.17
304.637	4.06
305.008	4.01
305.378	4.13
305.748	4.23
306.117	4.18
306.487	4.22
306.857	4.46
307.227	4.58
307.597	4.56
307.967	4.48
308.336	4.53
308.706	4.49
309.076	4.69
309.445	4.75
309.815	4.79
310.184	4.84
310.554	5.05
310.923	4.96
311.293	4.98
311.662	5.02
312.031	5.01
312.401	5.05
312.77	5.09
313.139	5.04
313.508	5.12
313.877	5.12
314.246	5.15
314.616	5.16
314.985	5.18
315.353	5.12
315.722	5.29
316.091	5.34
316.46	5.38
316.829	5.41
317.198	5.41
317.567	5.49
317.935	5.47
318.304	5.32
318.672	5.55
319.041	5.71
319.41	5.78
319.778	5.79
320.147	5.94
320.515	6.06
320.883	6.22
321.252	6.39
321.62	6.56
321.988	6.64
322.357	6.76
322.725	6.68
323.093	6.98
323.461	6.93
323.829	7.05
324.197	7.08
324.565	7.04
324.933	7.2
325.301	7.25
325.669	7.3
326.037	7.33
326.405	7.28
326.772	7.18
327.14	7.28
327.508	7.31
327.875	7.27
328.243	7.36
328.61	7.34
328.978	7.31
329.346	7.32
329.713	7.21
330.08	7.21
330.448	7.25
330.815	7.08
331.182	7.24
331.55	7.22
331.917	7.32
332.284	7.31
332.651	7.2
333.018	7.33
333.385	7.26
333.752	7.46
334.119	7.52
334.486	7.56
334.853	7.49
335.22	7.6
335.587	7.71
335.954	7.73
336.32	7.79
336.687	7.75
337.054	7.69
337.42	7.75
337.787	7.7
338.153	7.75
338.52	7.88
338.886	7.85
339.253	7.88
339.619	7.95
339.986	8.01
340.352	8.07
340.718	7.99
341.084	8.16
341.451	8.16
341.817	8.27
342.183	8.36
342.549	8.37
342.915	8.42
343.281	8.43
343.647	8.34
344.013	8.32
344.379	8.3
344.745	8.44
345.11	8.55
345.476	8.56
345.842	8.54
346.208	8.54
346.573	8.44
346.939	8.5
347.304	8.45
347.67	8.41
348.035	8.41
348.401	8.52
348.766	8.55
349.132	8.52
349.497	8.46
349.862	8.48
350.228	8.51
350.593	8.35
350.958	8.35
351.323	8.35
351.688	8.37
352.053	8.46
352.418	8.43
352.783	8.35
353.148	8.37
353.513	8.4
353.878	8.38
354.243	8.53
354.608	8.53
354.972	8.52
355.337	8.56
355.702	8.63
356.066	8.62
356.431	8.58
356.795	8.6
357.16	8.58
357.524	8.57
357.889	8.51
358.253	8.61
358.618	8.69
358.982	8.67
359.346	8.64
359.71	8.59
360.075	8.59
360.439	8.59
360.803	8.61
361.167	8.57
361.531	8.58
361.895	8.47
362.259	8.4
362.623	8.42
362.987	8.4
363.351	8.39
363.714	8.35
364.078	8.34
364.442	8.27
364.806	8.25
365.169	8.24
365.533	8.25
365.896	8.16
366.26	8.02
366.623	8.05
366.987	8.06
367.35	8.06
367.714	8.02
368.077	7.96
368.44	7.87
368.803	7.82
369.167	7.65
369.53	7.66
369.893	7.65
370.256	7.57
370.619	7.47
370.982	7.29
371.345	7.25
371.708	7.2
372.071	7.15
372.434	7.08
372.797	7.04
373.159	6.96
373.522	6.98
373.885	6.92
374.247	6.85
374.61	6.76
374.973	6.73
375.335	6.64
375.698	6.61
376.06	6.56
376.423	6.51
376.785	6.53
377.147	6.51
377.51	6.46
377.872	6.42
378.234	6.44
378.596	6.5
378.958	6.43
379.321	6.35
379.683	6.33
380.045	6.31
380.407	6.22
380.769	6.2
381.13	6.13
381.492	6.1
381.854	6.04
382.216	5.97
382.578	5.91
382.939	5.86
383.301	5.8
383.663	5.77
384.024	5.75
384.386	5.73
384.747	5.65
385.109	5.6
385.47	5.54
385.832	5.47
386.193	5.44
386.554	5.44
386.916	5.42
387.277	5.31
387.638	5.25
387.999	5.22
388.36	5.2
388.721	5.23
389.082	5.17
389.443	5.12
389.804	5.12
390.165	5.03
390.526	5.02
390.887	4.97
391.248	4.98
391.609	4.96
391.969	4.91
392.33	4.87
392.691	4.84
393.051	4.78
393.412	4.73
393.772	4.66
394.133	4.6
394.493	4.53
394.854	4.54
395.214	4.51
395.574	4.49
395.935	4.43
396.295	4.34
396.655	4.29
397.015	4.23
397.376	4.17
397.736	4.12
398.096	4.07
398.456	4.05
398.816	3.96
399.176	3.89
399.535	3.84
399.895	3.8
400.255	3.79
400.615	3.81
400.975	3.76
401.334	3.72
401.694	3.71
402.054	3.7
402.413	3.66
402.773	3.64
403.132	3.57
403.492	3.54
403.851	3.5
404.211	3.52
404.57	3.5
404.929	3.49
405.288	3.52
405.648	3.49
406.007	3.48
406.366	3.46
406.725	3.49
407.084	3.51
407.443	3.49
407.802	3.46
408.161	3.44
408.52	3.43
408.879	3.41
409.238	3.37
409.596	3.36
409.955	3.35
410.314	3.34
410.673	3.31
411.031	3.32
411.39	3.32
411.748	3.33
412.107	3.33
412.465	3.31
412.824	3.28
413.182	3.26
413.54	3.23
413.899	3.27
414.257	3.21
414.615	3.18
414.974	3.19
415.332	3.16
415.69	3.14
416.048	3.16
416.406	3.16
416.764	3.15
417.122	3.16
417.48	3.12
417.838	3.1
418.195	3.09
418.553	3.08
418.911	3.06
419.269	3.03
419.626	3
419.984	2.98
420.342	2.98
420.699	2.97
421.057	2.97
421.414	2.94
421.772	2.93
422.129	2.92
422.486	2.9
422.844	2.9
423.201	2.88
423.558	2.86
423.915	2.84
424.273	2.83
424.63	2.82
424.987	2.81
425.344	2.82
425.701	2.82
426.058	2.8
426.415	2.81
426.772	2.81
427.128	2.81
427.485	2.81
427.842	2.81
428.199	2.81
428.555	2.8
428.912	2.81
429.269	2.82
429.625	2.83
429.982	2.79
430.338	2.78
430.695	2.79
431.051	2.8
431.407	2.79
431.764	2.78
432.12	2.77
432.476	2.8
432.832	2.8
433.189	2.79
433.545	2.78
433.901	2.77
434.257	2.75
434.613	2.78
434.969	2.78
435.325	2.77
435.681	2.78
436.036	2.78
436.392	2.78
436.748	2.78
437.104	2.78
437.459	2.81
437.815	2.82
438.171	2.83
438.526	2.83
438.882	2.84
439.237	2.86
439.593	2.87
439.948	2.85
440.304	2.85
440.659	2.86
441.014	2.88
441.369	2.87
441.725	2.86
442.08	2.83
442.435	2.82
442.79	2.83
443.145	2.81
443.5	2.81
443.855	2.79
444.21	2.78
444.565	2.77
444.92	2.77
445.275	2.76
445.629	2.73
445.984	2.74
446.339	2.72
446.693	2.68
447.048	2.66
447.403	2.66
447.757	2.64
448.112	2.62
448.466	2.6
448.82	2.62
449.175	2.62
449.529	2.62
449.883	2.62
450.238	2.59
450.592	2.59
450.946	2.58
451.3	2.57
451.654	2.56
452.008	2.57
452.362	2.55
452.716	2.55
453.07	2.57
453.424	2.54
453.778	2.54
454.132	2.54
454.486	2.54
454.839	2.55
455.193	2.54
455.547	2.54
455.9	2.55
456.254	2.56
456.607	2.57
456.961	2.58
457.314	2.58
457.668	2.6
458.021	2.58
458.375	2.61
458.728	2.62
459.081	2.62
459.434	2.6
459.787	2.6
460.141	2.59
460.494	2.6
460.847	2.63
461.2	2.64
461.553	2.68
461.906	2.69
462.259	2.7
462.611	2.73
462.964	2.75
463.317	2.75
463.67	2.73
464.022	2.74
464.375	2.74
464.728	2.75
465.08	2.79
465.433	2.8
465.785	2.8
466.138	2.81
466.49	2.82
466.843	2.87
467.195	2.89
467.547	2.94
467.899	2.93
468.252	2.92
468.604	2.93
468.956	2.92
469.308	2.93
469.66	2.92
470.012	2.95
470.364	2.95
470.716	2.96
471.068	3.01
471.42	3.03
471.772	3.05
472.123	3.07
472.475	3.06
472.827	3.07
473.178	3.07
473.53	3.08
473.882	3.08
474.233	3.08
474.585	3.07
474.936	3.06
475.288	3.07
475.639	3.08
475.99	3.07
476.342	3.08
476.693	3.06
477.044	3.06
477.395	3.02
477.746	3.03
478.097	3.01
478.448	2.97
478.8	2.93
479.15	2.91
479.501	2.88
479.852	2.87
480.203	2.86
480.554	2.85
480.905	2.83
481.255	2.83
481.606	2.82
481.957	2.82
482.307	2.81
482.658	2.81
483.009	2.81
483.359	2.8
483.709	2.8
484.06	2.8
484.41	2.8
484.761	2.8
485.111	2.81
485.461	2.81
485.811	2.82
486.162	2.83
486.512	2.83
486.862	2.85
487.212	2.85
487.562	2.86
487.912	2.87
488.262	2.88
488.612	2.89
488.961	2.88
489.311	2.89
489.661	2.91
490.011	2.92
490.36	2.92
490.71	2.94
491.06	2.95
491.409	2.97
491.759	2.98
492.108	3
492.458	3.01
492.807	3.02
493.157	3.05
493.506	3.07
493.855	3.09
494.204	3.11
494.554	3.14
494.903	3.14
495.252	3.18
495.601	3.23
495.95	3.28
496.299	3.31
496.648	3.36
496.997	3.39
497.346	3.45
497.695	3.53
498.043	3.57
498.392	3.62
498.741	3.67
499.09	3.72
499.438	3.79
499.787	3.86
500.135	3.96
500.484	4.02
500.832	4.12
501.181	4.22
501.529	4.3
501.878	4.41
502.226	4.53
502.574	4.64
502.923	4.74
503.271	4.85
503.619	4.98
503.967	5.13
504.315	5.27
504.663	5.39
505.011	5.51
505.359	5.66
505.707	5.85
506.055	6.01
506.403	6.2
506.751	6.38
507.098	6.52
507.446	6.7
507.794	6.88
508.141	7.07
508.489	7.25
508.837	7.45
509.184	7.65
509.531	7.87
509.879	8.1
510.226	8.33
510.574	8.56
510.921	8.83
511.268	9.04
511.616	9.3
511.963	9.57
512.31	9.86
512.657	10.14
513.004	10.45
513.351	10.79
513.698	11.1
514.045	11.43
514.392	11.8
514.739	12.15
515.086	12.5
515.432	12.85
515.779	13.19
516.126	13.58
516.473	13.91
516.819	14.21
517.166	14.53
517.512	14.84
517.859	15.15
518.205	15.44
518.552	15.76
518.898	16.06
519.245	16.35
519.591	16.65
519.937	16.95
520.283	17.23
520.629	17.52
520.976	17.86
521.322	18.2
521.668	18.55
522.014	18.91
522.36	19.31
522.706	19.72
523.052	20.14
523.398	20.53
523.743	20.98
524.089	21.42
524.435	21.84
524.781	22.21
525.126	22.54
525.472	22.85
525.817	23.14
526.163	23.4
526.509	23.65
526.854	23.86
527.199	24.1
527.545	24.33
527.89	24.55
528.235	24.76
528.581	24.99
528.926	25.2
529.271	25.41
529.616	25.6
529.961	25.8
530.306	26.02
530.651	26.25
530.996	26.46
531.341	26.68
531.686	26.88
532.031	27.11
532.376	27.37
532.721	27.61
533.065	27.84
533.41	28.1
533.755	28.33
534.099	28.6
534.444	28.85
534.788	29.08
535.133	29.33
535.477	29.58
535.822	29.8
536.166	30.06
536.51	30.36
536.855	30.68
537.199	30.97
537.543	31.26
537.887	31.55
538.231	31.88
538.576	32.18
538.92	32.47
539.264	32.74
539.608	33
539.951	33.23
540.295	33.49
540.639	33.7
540.983	33.91
541.327	34.12
541.671	34.29
542.014	34.45
542.358	34.62
542.701	34.77
543.045	34.97
543.389	35.14
543.732	35.29
544.075	35.43
544.419	35.61
544.762	35.75
545.105	35.93
545.449	36.06
545.792	36.26
546.135	36.45
546.478	36.66
546.821	36.85
547.165	37.07
547.508	37.28
547.851	37.51
548.194	37.72
548.536	37.96
548.879	38.2
549.222	38.43
549.565	38.67
549.908	38.94
550.25	39.16
550.593	39.43
550.936	39.64
551.278	39.85
551.621	40.05
551.963	40.26
552.306	40.45
552.648	40.68
552.991	40.85
553.333	41.09
553.675	41.28
554.017	41.44
554.36	41.6
554.702	41.72
555.044	41.9
555.386	42.09
555.728	42.23
556.07	42.35
556.412	42.57
556.754	42.71
557.096	42.85
557.438	42.94
557.78	43.01
558.121	43.15
558.463	43.33
558.805	43.52
559.147	43.68
559.488	43.8
559.83	43.97
560.171	44.13
560.513	44.22
560.854	44.38
561.196	44.52
561.537	44.62
561.878	44.7
562.22	44.84
562.561	44.97
562.902	45.06
563.243	45.16
563.584	45.23
563.925	45.32
564.266	45.4
564.607	45.59
564.948	45.71
565.289	45.79
565.63	45.91
565.971	45.96
566.312	46.09
566.653	46.22
566.993	46.27
567.334	46.34
567.675	46.4
568.015	46.5
568.356	46.6
568.696	46.73
569.037	46.88
569.377	46.98
569.718	47.09
570.058	47.19
570.398	47.29
570.739	47.44
571.079	47.57
571.419	47.68
571.759	47.74
572.099	47.81
572.439	47.97
572.779	48.07
573.119	48.19
573.459	48.18
573.799	48.26
574.139	48.33
574.479	48.44
574.819	48.53
575.158	48.58
575.498	48.67
575.838	48.81
576.177	48.84
576.517	48.9
576.856	48.92
577.196	49.08
577.535	49.2
577.875	49.29
578.214	49.41
578.553	49.48
578.893	49.53
579.232	49.7
579.571	49.72
579.91	49.75
580.25	49.79
580.589	49.92
580.928	49.98
581.267	50.05
581.606	50.16
581.945	50.28
582.283	50.37
582.622	50.47
582.961	50.51
583.3	50.64
583.639	50.72
583.977	50.8
584.316	50.86
584.654	50.93
584.993	51.01
585.332	50.98
585.67	51.12
586.008	51.12
586.347	51.03
586.685	51.11
587.024	51.23
587.362	51.37
587.7	51.44
588.038	51.53
588.376	51.62
588.715	51.64
589.053	51.69
589.391	51.76
589.729	51.8
590.067	51.83
590.404	51.9
590.742	51.99
591.08	52.04
591.418	52.1
591.756	52.09
592.093	52.13
592.431	52.24
592.769	52.21
593.106	52.3
593.444	52.39
593.781	52.47
594.119	52.48
594.456	52.44
594.793	52.5
595.131	52.54
595.468	52.6
595.805	52.62
596.143	52.66
596.48	52.65
596.817	52.66
597.154	52.74
597.491	52.71
597.828	52.68
598.165	52.76
598.502	52.81
598.839	52.83
599.176	52.82
599.512	52.83
599.849	52.82
600.186	52.87
600.523	53.03
600.859	53.03
601.196	53.05
601.532	53.11
601.869	53.13
602.205	53.14
602.542	53.14
602.878	53.17
603.215	53.22
603.551	53.23
603.887	53.25
604.223	53.29
604.56	53.34
604.896	53.4
605.232	53.41
605.568	53.42
605.904	53.48
606.24	53.58
606.576	53.64
606.912	53.7
607.248	53.73
607.583	53.74
607.919	53.75
608.255	53.82
608.591	53.87
608.926	53.87
609.262	53.97
609.597	53.98
609.933	54.04
610.268	54.07
610.604	54.27
610.939	54.36
611.275	54.31
611.61	54.3
611.945	54.35
612.281	54.46
612.616	54.49
612.951	54.6
613.286	54.56
613.621	54.57
613.956	54.76
614.291	54.84
614.626	54.81
614.961	54.91
615.296	54.88
615.631	54.9
615.966	54.91
616.3	54.88
616.635	54.96
616.97	54.94
617.304	54.89
617.639	54.81
617.973	54.78
618.308	54.89
618.642	55
618.977	55
619.311	54.92
619.646	54.95
619.98	54.99
620.314	55.13
620.648	55.2
620.983	55.17
621.317	55.09
621.651	55.11
621.985	55.08
622.319	55.17
622.653	55.2
622.987	55.38
623.321	55.39
623.655	55.48
623.988	55.55
624.322	55.58
624.656	55.57
624.99	55.48
625.323	55.52
625.657	55.5
625.99	55.47
626.324	55.49
626.657	55.56
626.991	55.54
627.324	55.53
627.658	55.54
627.991	55.54
628.324	55.73
628.657	55.75
628.991	55.77
629.324	55.78
629.657	55.84
629.99	55.86
630.323	55.83
630.656	55.81
630.989	55.85
631.322	55.98
631.655	55.99
631.987	56.03
632.32	55.92
632.653	55.89
632.986	55.92
633.318	55.96
633.651	56.07
633.984	56.06
634.316	56.11
634.649	56.08
634.981	56.06
635.313	55.95
635.646	56.01
635.978	56.08
636.31	56.15
636.643	56.15
636.975	56.16
637.307	56.2
637.639	56.21
637.971	56.2
638.303	56.13
638.635	56.24
638.967	56.35
639.299	56.52
639.631	56.6
639.963	56.58
640.295	56.63
640.626	56.48
640.958	56.54
641.29	56.63
641.621	56.61
641.953	56.71
642.285	56.8
642.616	56.84
642.948	56.92
643.279	56.88
643.61	56.87
643.942	56.75
644.273	56.84
644.604	56.83
644.936	56.85
645.267	56.98
645.598	56.96
645.929	57.05
646.26	56.91
646.591	56.94
646.922	57.03
647.253	56.97
647.584	56.89
647.915	56.96
648.245	56.91
648.576	57.05
648.907	57.05
649.238	57.07
649.568	57.12
649.899	57.06
650.229	57.09
650.56	57.18
650.89	57.29
651.221	57.31
651.551	57.33
651.882	57.31
652.212	57.15
652.542	57.08
652.872	57.05
653.203	57.1
653.533	57.07
653.863	57.16
654.193	57.16
654.523	57.25
654.853	57.05
655.183	57.02
655.513	56.95
655.843	57.02
656.172	56.99
656.502	56.84
656.832	56.81
657.162	56.78
657.491	56.79
657.821	56.77
658.15	56.72
658.48	56.79
658.809	56.92
659.139	56.89
659.468	56.91
659.798	56.85
660.127	56.9
660.456	57
660.785	56.97
661.115	57.09
661.444	57.14
661.773	57.24
662.102	57.17
662.431	57.24
662.76	57.21
663.089	57.15
663.418	57.24
663.747	57.34
664.076	57.35
664.404	57.31
664.733	57.32
665.062	57.34
665.39	57.19
665.719	57.07
666.048	57.2
666.376	57.26
666.705	57.51
667.033	57.49
667.362	57.4
667.69	57.4
668.018	57.26
668.347	57.2
668.675	57.24
669.003	57.24
669.331	57.19
669.659	57.3
669.987	57.46
670.315	57.43
670.643	57.46
670.971	57.4
671.299	57.45
671.627	57.49
671.955	57.55
672.283	57.72
672.61	57.85
672.938	57.77
673.266	57.73
673.593	57.63
673.921	57.56
674.249	57.64
674.576	57.67
674.904	57.68
675.231	57.63
675.558	57.78
675.886	57.82
676.213	57.78
676.54	57.71
676.867	57.69
677.195	57.78
677.522	57.73
677.849	57.85
678.176	57.78
678.503	57.82
678.83	57.82
679.157	57.74
679.484	57.5
679.81	57.63
680.137	57.76
680.464	57.69
680.791	57.77
681.117	57.63
681.444	57.61
681.771	57.65
682.097	57.81
682.424	57.77
682.75	57.76
683.077	57.76
683.403	57.69
683.729	57.59
684.056	57.57
684.382	57.57
684.708	57.59
685.034	57.67
685.36	57.65
685.686	57.69
686.012	57.76
686.339	57.84
686.664	57.82
686.99	57.72
687.316	57.66
687.642	57.75
687.968	57.95
688.294	57.89
688.619	57.92
688.945	57.72
689.271	57.69
689.596	57.73
689.922	57.8
690.247	57.99
690.573	58.07
690.898	58.2
691.224	58.14
691.549	58.24
691.874	58.17
692.2	58.22
692.525	58.25
692.85	58.14
693.175	58.36
693.5	58.34
693.825	58.32
694.15	58.33
694.475	58.2
694.8	58.04
695.125	58.01
695.45	58.01
695.775	58.23
696.099	58.19
696.424	58.19
696.749	58.13
697.073	57.91
697.398	57.96
697.723	57.95
698.047	57.98
698.372	57.85
698.696	57.8
699.02	57.69
699.345	57.66
699.669	57.82
699.993	57.72
700.318	57.66
700.642	57.69
700.966	57.69
701.29	57.61
701.614	57.68
701.938	57.83
702.262	57.89
702.586	57.94
702.91	57.77
703.234	57.92
703.557	57.88
703.881	57.95
704.205	57.88
704.529	57.6
704.852	57.86
705.176	57.92
705.499	58.1
705.823	58.2
706.146	58.23
706.47	58.12
706.793	58.12
707.117	58.36
707.44	58.2
707.763	58.11
708.086	58.26
708.409	58.25
708.733	58.28
709.056	58.18
709.379	57.99
709.702	58.16
710.025	57.96
710.348	58.21
710.671	58.32
710.993	58.36
711.316	58.54
711.639	58.4
711.962	58.17
712.284	58.08
712.607	57.94
712.93	57.99
713.252	57.92
713.575	57.96
713.897	57.84
714.22	58
714.542	58.19
714.864	58.25
715.187	58.33
715.509	58.25
715.831	58.34
716.153	58.46
716.475	58.52
716.798	58.62
717.12	58.54
717.442	58.43
717.764	58.19
718.085	58.16
718.407	57.98
718.729	58.15
719.051	58.21
719.373	58.21
719.695	58.15
720.016	58.24
720.338	58.27
720.659	58.26
720.981	58.2
721.302	58.16
721.624	58.08
721.945	58.07
722.267	58
722.588	57.95
722.909	57.91
723.231	57.87
723.552	57.7
723.873	57.7
724.194	57.74
724.515	57.82
724.836	57.84
725.157	57.94
725.478	58.17
725.799	58.11
726.12	58.17
726.441	58.3
726.762	58.3
727.083	58.24
727.403	58.21
727.724	58.31
728.045	58.24
728.365	58.22
728.686	58.2
729.006	58.3
729.327	58.33
729.647	58.24
729.967	58.23
730.288	58.34
730.608	58.35
730.928	58.26
731.249	58.34
731.569	58.29
731.889	58.04
732.209	58.02
732.529	57.96
732.849	58.13
733.169	58.14
733.489	58.26
733.809	58.1
734.129	58.07
734.448	58.03
734.768	58.15
735.088	58.35
735.408	58.34
735.727	58.46
736.047	58.11
736.366	57.86
736.686	57.85
737.005	57.78
737.325	57.76
737.644	57.83
737.963	57.93
738.283	58.02
738.602	58.28
738.921	58.16
739.24	58.39
739.56	58.38
739.879	58.26
740.198	58
740.517	58
740.836	58.1
741.155	58.09
741.473	58.14
741.792	57.98
742.111	58.14
742.43	57.81
742.748	58.26
743.067	58.33
743.386	58.26
743.704	58.17
744.023	58
744.341	58.07
744.66	58.07
744.978	58.12
745.297	58.12
745.615	58.46
745.933	58.23
746.252	58.07
746.57	57.89
746.888	58.2
747.206	58.29
747.524	58.17
747.842	58.33
748.16	58.46
748.478	58.43
748.796	58.46
749.114	58.38
749.432	57.9
749.749	58.46
750.067	58.47
750.385	58.55
750.703	58.86
751.02	58.99
751.338	58.92
751.655	58.82
751.973	59.01
752.29	58.74
752.608	58.79
752.925	59.01
753.242	59.29
753.56	59.01
753.877	59.2
754.194	59.53
754.511	59.25
754.828	58.77
755.145	58.7
755.462	58.53
755.779	58.76
756.096	59.21
756.413	59.11
756.73	59.01
757.047	59.22
757.364	59.12
757.68	58.87
757.997	58.96
758.314	58.92
758.63	58.8
758.947	58.72
759.264	58.6
759.58	57.96
759.896	58.22
760.213	58.44
760.529	58.57
760.846	58.35
761.162	58.41
761.478	58.36
761.794	58.22
762.11	58.22
762.426	58.29
762.743	58.27
763.059	58.02
763.375	57.91
763.69	57.92
764.006	57.71
764.322	57.69
764.638	57.52
764.954	57.72
765.27	57.6
765.585	57.66
765.901	57.81
766.216	58.33
766.532	58.02
766.848	57.9
767.163	57.86
767.478	57.92
767.794	58.02
768.109	58.33
768.424	58.44
768.74	58.23
769.055	58.05
769.37	58.05
769.685	58.2
770	58.44
770.315	58.28
770.63	58.72
770.945	58.83
771.26	58.99
771.575	59.02
771.89	59.09
772.205	58.91
772.52	58.73
772.834	58.49
773.149	58.43
773.464	58.38
773.778	58.15
774.093	57.96
774.407	58.06
774.722	58.14
775.036	58.46
775.351	58.83
775.665	58.9
775.979	58.72
776.293	58.82
776.608	59.12
776.922	59.21
777.236	58.88
777.55	59.01
777.864	59.02
778.178	59
778.492	59.27
778.806	59.26
779.12	59.89
779.434	59.78
779.747	59.94
780.061	59.67
780.375	59.69
780.689	59.53
781.002	59.39
781.316	58.95
781.629	58.73
781.943	59.25
782.256	59.27
782.57	59.37
782.883	58.65
783.196	58.67
783.51	58.51
783.823	58.79
784.136	58.6
784.449	58.92
784.762	58.68
785.075	58.23
785.388	58.32
785.701	57.72
786.014	57.82
786.327	58.03
786.64	58.46
786.953	58.25
787.266	58.15
787.578	58.24
787.891	58.85
788.204	58.99
788.516	58.35
788.829	58.69
789.141	58.92
789.454	59.37
789.766	59.06
790.079	58.74
790.391	58.49
790.703	58.73
791.016	58.62
791.328	58.67
791.64	59.11
791.952	59.89
792.264	59.82
792.576	59.38
792.888	58.75
793.2	58.51
793.512	58.41
793.824	58.91
794.136	58.97
794.448	58.99
794.76	58.68
795.071	59.1
795.383	58.56
795.695	58.48
796.006	58.75
796.318	58.88
796.629	59.43
796.941	59.64
797.252	59.37
797.564	58.99
797.875	58.85
798.186	58.66
798.497	58.37
798.809	58.18
799.12	58.37
799.431	58.69
799.742	58.76
800.053	59.04
800.364	58.71
800.675	58.45
800.986	57.92
801.297	58.19
801.608	57.25
801.918	57.47
802.229	57.76
802.54	57.71
802.851	57.72
803.161	57.52
803.472	57.56
803.782	58.12
804.093	58.32
804.403	58.57
804.714	58.41
805.024	57.97
805.334	58.57
805.645	58.74
805.955	58.81
806.265	59.16
806.575	59.27
806.885	59.27
807.195	59.28
807.505	59.71
807.815	59.57
808.125	59.94
808.435	59.44
808.745	59.25
809.055	59.13
809.365	59
809.674	59.53
809.984	60.12
810.294	59.86
810.603	60.12
810.913	60.4
811.222	60.75
811.532	60.31
811.841	60.42
812.151	61.24
812.46	61.16
812.769	60.38
813.079	61.13
813.388	61.12
813.697	61.71
814.006	61.37
814.315	61.73
814.624	61.74
814.933	62.22
815.242	62.17
815.551	63.2
815.86	62.97
816.169	62.47
816.478	61.85
816.786	61.98
817.095	62.31
817.404	61.66
817.712	61.6
818.021	61.87
818.33	61.44
818.638	61.02
818.947	61.38
819.255	61.63
819.563	60.67
819.872	60.95
820.18	60.43
820.488	60.16
820.796	60.32
821.105	60.52
821.413	60.52
821.721	60.43
822.029	60.08
822.337	60.25
822.645	60.18
822.953	60.09
823.26	60.04
823.568	59.66
823.876	59.58
824.184	59.45
824.491	59.48
824.799	59.43
825.107	59.32
825.414	59.22
825.722	59.19
826.029	59.5
826.337	59.28
826.644	59.51
826.951	59.61
827.259	59.37
827.566	59.18
827.873	59.14
828.18	59.19
828.488	59.09
828.795	58.99
829.102	58.98
829.409	59
829.716	58.63
830.023	58.86
830.329	58.97
830.636	59.22
830.943	59.32
831.25	59.1
831.557	59
831.863	58.41
832.17	58.31
832.476	58.16
832.783	58.39
833.089	58.33
833.396	58.43
833.702	58.54
834.009	58.85
834.315	58.96
834.621	59.05
834.928	59.08
835.234	58.73
835.54	58.38
835.846	58.54
836.152	59.19
836.458	59.63
836.764	59.62
837.07	59.71
837.376	59.31
837.682	59.88
837.988	60.36
838.293	61.94
838.599	62.48
838.905	62.12
839.211	62.6
839.516	62.09
839.822	62.04
840.127	62.11
840.433	62.02
840.738	61.96
841.044	61.35
841.349	62.53
841.654	63.61
841.959	64.66
842.265	64.35
842.57	63.81
842.875	63.35
843.18	62.93
843.485	62.34
843.79	62.2
844.095	62.08
844.4	62.09
844.705	59.31
845.01	57.39
845.315	58.36
845.619	57.35
845.924	58.9
846.229	59.89
846.533	61.1
846.838	60.5
847.142	59.89
847.447	61.12
847.751	58.93
848.056	58.67
848.36	59
848.664	59.59
848.969	61.23
849.273	59.5
849.577	60.34
849.881	61.69
850.185	62.13
850.489	62.65
850.794	61.48
851.097	63.12
851.401	64.14
851.705	63.44
852.009	63.65
852.313	60.97
852.617	58.63
852.92	56.85
853.224	58.1
853.528	59.95
853.831	58.66
854.135	61.61
854.438	60.74
854.742	59.16
855.045	57.68
855.349	54.57
855.652	55.8
855.955	54.5
856.259	52.58
856.562	53.2
856.865	51.84
857.168	51.34
857.471	51.35
857.774	52.37
858.077	52.75
858.38	52.46
858.683	53.25
858.986	54.45
859.289	53.35
859.592	53.98
859.894	52.51
860.197	55.16
860.5	51.43
860.802	50.81
861.105	52
861.407	53.55
861.71	54.63
862.012	53.12
862.315	53.53
862.617	55.62
862.919	55.54
863.222	56.06
863.524	57.93
863.826	58.23
864.128	57.88
864.43	56.07
864.732	55.98
865.034	55.08
865.336	53.85
865.638	53.53
865.94	48.97
866.242	48.63
866.544	45.6
866.846	46.2
867.147	47.07
867.449	45.2
867.751	44.71
868.052	45.56
868.354	48.36
868.655	51.19
868.957	51.45
869.258	50.15
869.56	51.74
869.861	50.61
870.162	50.23
870.463	50.59
870.765	52.56
871.066	53.22
871.367	54.53
871.668	55.28
871.969	58.19
872.27	57.97
872.571	57.36
872.872	57.72
873.173	56.76
873.473	57.24
873.774	57.1
874.075	55.22
874.376	56.31
874.676	54.81
874.977	52.19
875.277	51.51
875.578	52.58
875.878	50.97
876.179	51.26
876.479	51.12
876.78	50.75
877.08	49.19
877.38	48.3
877.68	46.76
877.981	47.21
878.281	43.76
878.581	47.9
