Data from BU26842_Reflection_00007.txt Node
Date: Mon Nov 18 16:38:38 EST 2019
User: vgr7
Spectrometer: USB2G7710
Scans to average: 3
Trigger mode: 4
Integration Time (sec): 2.000000E-2
Electric dark correction enabled: true
Boxcar width: 10
XAxis mode: Wavelengths
Number of Pixels in Spectrum: 2048
>>>>>Begin Spectral Data<<<<<
177.721	-34.16
178.105	9.71
178.488	83.13
178.871	48.79
179.254	53.59
179.636	8.72
180.019	47.49
180.402	123.26
180.785	82.21
181.168	-19.25
181.55	-69.84
181.933	696.36
182.316	-1900
182.698	-2693.39
183.081	-995.38
183.463	-165.4
183.846	-245.19
184.228	-188.72
184.611	-196.77
184.993	-169.96
185.376	-244.07
185.758	-613.43
186.14	1539.33
186.522	1399.04
186.904	2333.5
187.287	17755.17
187.669	-406.64
188.051	-322.9
188.433	-207.21
188.815	-207.23
189.197	-268.63
189.579	-189.8
189.961	-182.33
190.342	-168.28
190.724	-149.56
191.106	-144.91
191.488	-152.16
191.869	-112.22
192.251	-111.79
192.633	-116.17
193.014	-110.15
193.396	-130.19
193.777	-87.11
194.159	-68.79
194.54	-66.05
194.922	-59.18
195.303	-59.81
195.684	-61.2
196.065	-35.12
196.447	-38.18
196.828	-45.61
197.209	-39.63
197.59	-35.81
197.971	-28.69
198.352	-24.16
198.733	-54.64
199.114	-31.43
199.495	-20.34
199.876	-35.06
200.257	-35.57
200.638	-21.5
201.018	-44.57
201.399	-25.79
201.78	-21.38
202.16	-19
202.541	-41.57
202.922	-35.92
203.302	-78.64
203.683	-90.14
204.063	-183.03
204.444	-168.08
204.824	-124.76
205.204	-85.84
205.585	-81.87
205.965	-83.57
206.345	-105.61
206.725	-89.8
207.106	-185.71
207.486	-248.9
207.866	-282.02
208.246	-250.61
208.626	-229.68
209.006	-167.79
209.386	-234.9
209.766	-293.93
210.145	-237.56
210.525	-199.02
210.905	-163.52
211.285	-114.67
211.664	-98.51
212.044	-94.44
212.424	-94.25
212.803	-90.04
213.183	-101.51
213.562	-97.05
213.942	-90.63
214.321	-81.64
214.701	-73.72
215.08	-61.08
215.459	-57.3
215.838	-53.69
216.218	-50.99
216.597	-40.72
216.976	-32.81
217.355	-36.59
217.734	-23.55
218.113	-13.16
218.492	-16.41
218.871	-12.98
219.25	-12.36
219.629	-2.24
220.008	-0.71
220.387	-8.28
220.766	-0.27
221.144	-19.66
221.523	-24.78
221.902	-19.17
222.28	-17.1
222.659	-15.95
223.037	-9.38
223.416	-17.36
223.794	-17.61
224.173	-14.21
224.551	-10.05
224.929	-6.57
225.308	4.71
225.686	2.47
226.064	0.62
226.442	-3.28
226.821	-3.51
227.199	-5
227.577	-8.37
227.955	-11.27
228.333	-9.59
228.711	-8.43
229.089	-1
229.467	-4.3
229.845	-6.46
230.222	-4.73
230.6	-4.65
230.978	-2.49
231.356	-0.97
231.733	-1.1
232.111	-0.71
232.488	1.67
232.866	0.58
233.243	0.86
233.621	0.36
233.998	0.92
234.376	1.27
234.753	3.69
235.13	3.94
235.508	4.17
235.885	4.05
236.262	4.77
236.639	4.42
237.016	2.15
237.393	4.99
237.77	6.08
238.147	5.17
238.524	5.6
238.901	5.53
239.278	5.58
239.655	5.75
240.032	5.84
240.409	5.16
240.785	5.15
241.162	4.76
241.539	4.85
241.915	4.75
242.292	4.98
242.668	4.54
243.045	4.61
243.421	4.37
243.798	4.48
244.174	4.27
244.551	4.22
244.927	4.43
245.303	4.42
245.679	4.32
246.056	4.33
246.432	4.32
246.808	4.13
247.184	3.73
247.56	3.87
247.936	3.93
248.312	4.04
248.688	4.07
249.064	4.04
249.44	4.05
249.815	4.06
250.191	4.17
250.567	4.04
250.943	4.02
251.318	4.34
251.694	4.42
252.069	4.48
252.445	4.43
252.82	4.2
253.196	4.2
253.571	4.29
253.947	4.49
254.322	4.4
254.697	4.3
255.073	4.61
255.448	4.61
255.823	4.21
256.198	4.19
256.573	3.96
256.948	3.98
257.323	4.07
257.698	3.91
258.073	3.77
258.448	3.69
258.823	3.65
259.198	3.3
259.573	3.16
259.948	3.04
260.322	3.1
260.697	3.16
261.072	3.02
261.446	2.99
261.821	2.87
262.195	3.03
262.57	3.07
262.944	3.13
263.319	3.07
263.693	3.19
264.067	3.09
264.442	3.29
264.816	3.19
265.19	3.17
265.564	3.21
265.938	3.19
266.313	3.44
266.687	3.25
267.061	3.73
267.435	3.71
267.809	3.76
268.183	3.75
268.556	3.86
268.93	3.84
269.304	3.99
269.678	4.06
270.051	3.93
270.425	3.94
270.799	3.8
271.172	3.73
271.546	3.48
271.919	3.51
272.293	3.27
272.666	3.35
273.04	3.23
273.413	3.15
273.787	3.28
274.16	3.11
274.533	3.18
274.906	3.03
275.279	3.02
275.653	2.99
276.026	2.82
276.399	2.71
276.772	2.75
277.145	2.57
277.518	2.56
277.891	2.56
278.263	2.54
278.636	2.6
279.009	2.69
279.382	2.81
279.755	2.75
280.127	2.99
280.5	2.83
280.872	3.03
281.245	2.99
281.617	2.92
281.99	2.99
282.362	3.15
282.735	2.94
283.107	3.01
283.479	3.02
283.852	3.12
284.224	3.22
284.596	3.22
284.968	3.22
285.34	3.18
285.713	3.14
286.085	3.19
286.457	3.32
286.829	3.29
287.201	3.36
287.572	3.33
287.944	3.2
288.316	3.38
288.688	3.37
289.06	3.45
289.431	3.51
289.803	3.58
290.175	3.57
290.546	3.78
290.918	3.85
291.289	3.94
291.661	3.99
292.032	4.01
292.403	4.05
292.775	4.23
293.146	4.33
293.517	4.36
293.889	4.35
294.26	4.38
294.631	4.33
295.002	4.17
295.373	4.24
295.744	4.45
296.115	4.26
296.486	4.1
296.857	4.19
297.228	4.27
297.599	4.27
297.97	4.2
298.34	4.19
298.711	4.29
299.082	4.33
299.452	4.41
299.823	4.39
300.194	4.44
300.564	4.33
300.935	4.3
301.305	4.29
301.676	4.26
302.046	4.2
302.416	4.38
302.787	4.52
303.157	4.53
303.527	4.45
303.897	4.67
304.267	4.89
304.637	4.89
305.008	4.75
305.378	4.86
305.748	4.91
306.117	4.83
306.487	4.63
306.857	4.58
307.227	4.64
307.597	4.56
307.967	4.69
308.336	4.74
308.706	4.67
309.076	4.75
309.445	4.83
309.815	4.85
310.184	4.97
310.554	5.07
310.923	5.1
311.293	5.15
311.662	5.05
312.031	5.06
312.401	5.03
312.77	5.07
313.139	5.14
313.508	5.17
313.877	5.26
314.246	5.38
314.616	5.47
314.985	5.45
315.353	5.58
315.722	5.65
316.091	5.65
316.46	5.78
316.829	5.91
317.198	5.93
317.567	5.98
317.935	5.8
318.304	5.7
318.672	5.73
319.041	5.81
319.41	6.05
319.778	6.03
320.147	6.1
320.515	6.27
320.883	6.22
321.252	6.26
321.62	6.27
321.988	6.34
322.357	6.18
322.725	6.33
323.093	6.49
323.461	6.32
323.829	6.51
324.197	6.73
324.565	6.78
324.933	6.91
325.301	7.02
325.669	7.08
326.037	7.24
326.405	7.27
326.772	7.23
327.14	7.27
327.508	7.46
327.875	7.61
328.243	7.76
328.61	7.71
328.978	7.77
329.346	7.96
329.713	7.97
330.08	8.24
330.448	8.17
330.815	7.96
331.182	7.99
331.55	8.1
331.917	8.06
332.284	8.02
332.651	7.96
333.018	8.02
333.385	8.14
333.752	8.24
334.119	8.27
334.486	8.23
334.853	8.18
335.22	8.02
335.587	7.88
335.954	7.78
336.32	7.77
336.687	7.75
337.054	7.66
337.42	7.65
337.787	7.57
338.153	7.58
338.52	7.7
338.886	7.76
339.253	7.62
339.619	7.57
339.986	7.66
340.352	7.8
340.718	7.74
341.084	7.71
341.451	7.72
341.817	7.72
342.183	7.77
342.549	7.77
342.915	7.86
343.281	8.01
343.647	7.88
344.013	7.94
344.379	7.94
344.745	8
345.11	8.07
345.476	8.13
345.842	8.15
346.208	8.19
346.573	8.26
346.939	8.37
347.304	8.41
347.67	8.26
348.035	8.17
348.401	8.13
348.766	8.14
349.132	8.02
349.497	8
349.862	8.16
350.228	8.18
350.593	8.15
350.958	8.07
351.323	8.18
351.688	8.24
352.053	8.34
352.418	8.34
352.783	8.31
353.148	8.29
353.513	8.25
353.878	8.19
354.243	8.16
354.608	8.11
354.972	8.12
355.337	8.2
355.702	8.26
356.066	8.29
356.431	8.22
356.795	8.3
357.16	8.43
357.524	8.29
357.889	8.25
358.253	8.24
358.618	8.27
358.982	8.18
359.346	8.11
359.71	8.03
360.075	7.97
360.439	8.04
360.803	8.05
361.167	8.06
361.531	8.04
361.895	8.02
362.259	7.95
362.623	7.9
362.987	7.88
363.351	7.8
363.714	7.78
364.078	7.74
364.442	7.6
364.806	7.51
365.169	7.6
365.533	7.53
365.896	7.5
366.26	7.47
366.623	7.52
366.987	7.49
367.35	7.47
367.714	7.39
368.077	7.23
368.44	7.18
368.803	7.15
369.167	7.13
369.53	7.04
369.893	7.04
370.256	6.99
370.619	6.89
370.982	6.82
371.345	6.73
371.708	6.68
372.071	6.71
372.434	6.64
372.797	6.51
373.159	6.54
373.522	6.49
373.885	6.42
374.247	6.36
374.61	6.3
374.973	6.22
375.335	6.23
375.698	6.26
376.06	6.1
376.423	6.01
376.785	5.99
377.147	5.99
377.51	5.95
377.872	5.92
378.234	5.86
378.596	5.8
378.958	5.79
379.321	5.79
379.683	5.72
380.045	5.64
380.407	5.62
380.769	5.54
381.13	5.47
381.492	5.41
381.854	5.34
382.216	5.27
382.578	5.26
382.939	5.18
383.301	5.11
383.663	5.13
384.024	5.12
384.386	5.1
384.747	5.04
385.109	5.01
385.47	4.94
385.832	4.98
386.193	5.01
386.554	4.98
386.916	4.95
387.277	4.95
387.638	4.97
387.999	4.89
388.36	4.87
388.721	4.87
389.082	4.81
389.443	4.75
389.804	4.76
390.165	4.72
390.526	4.73
390.887	4.69
391.248	4.71
391.609	4.63
391.969	4.59
392.33	4.59
392.691	4.54
393.051	4.55
393.412	4.52
393.772	4.43
394.133	4.43
394.493	4.4
394.854	4.36
395.214	4.33
395.574	4.34
395.935	4.27
396.295	4.28
396.655	4.28
397.015	4.3
397.376	4.26
397.736	4.27
398.096	4.24
398.456	4.23
398.816	4.18
399.176	4.18
399.535	4.14
399.895	4.08
400.255	4.08
400.615	4.06
400.975	4.04
401.334	4.05
401.694	4
402.054	3.98
402.413	3.96
402.773	3.91
403.132	3.85
403.492	3.86
403.851	3.81
404.211	3.79
404.57	3.76
404.929	3.77
405.288	3.74
405.648	3.69
406.007	3.67
406.366	3.64
406.725	3.64
407.084	3.64
407.443	3.67
407.802	3.71
408.161	3.68
408.52	3.66
408.879	3.66
409.238	3.67
409.596	3.64
409.955	3.63
410.314	3.65
410.673	3.65
411.031	3.67
411.39	3.67
411.748	3.67
412.107	3.68
412.465	3.63
412.824	3.63
413.182	3.64
413.54	3.65
413.899	3.64
414.257	3.64
414.615	3.62
414.974	3.57
415.332	3.5
415.69	3.46
416.048	3.43
416.406	3.44
416.764	3.41
417.122	3.42
417.48	3.39
417.838	3.37
418.195	3.37
418.553	3.35
418.911	3.33
419.269	3.31
419.626	3.29
419.984	3.29
420.342	3.27
420.699	3.27
421.057	3.25
421.414	3.24
421.772	3.22
422.129	3.21
422.486	3.21
422.844	3.2
423.201	3.2
423.558	3.18
423.915	3.16
424.273	3.15
424.63	3.12
424.987	3.12
425.344	3.12
425.701	3.11
426.058	3.11
426.415	3.1
426.772	3.1
427.128	3.08
427.485	3.06
427.842	3.07
428.199	3.07
428.555	3.06
428.912	3.07
429.269	3.1
429.625	3.09
429.982	3.06
430.338	3.05
430.695	3.05
431.051	3.08
431.407	3.08
431.764	3.09
432.12	3.1
432.476	3.09
432.832	3.08
433.189	3.08
433.545	3.08
433.901	3.08
434.257	3.08
434.613	3.09
434.969	3.09
435.325	3.1
435.681	3.09
436.036	3.08
436.392	3.08
436.748	3.06
437.104	3.06
437.459	3.08
437.815	3.09
438.171	3.1
438.526	3.1
438.882	3.11
439.237	3.1
439.593	3.11
439.948	3.11
440.304	3.1
440.659	3.11
441.014	3.12
441.369	3.09
441.725	3.09
442.08	3.09
442.435	3.09
442.79	3.08
443.145	3.08
443.5	3.08
443.855	3.07
444.21	3.07
444.565	3.07
444.92	3.07
445.275	3.07
445.629	3.06
445.984	3.06
446.339	3.04
446.693	3.03
447.048	3.01
447.403	3.01
447.757	3
448.112	2.97
448.466	2.95
448.82	2.97
449.175	2.97
449.529	2.98
449.883	2.97
450.238	2.94
450.592	2.94
450.946	2.93
451.3	2.92
451.654	2.91
452.008	2.89
452.362	2.87
452.716	2.87
453.07	2.85
453.424	2.85
453.778	2.83
454.132	2.83
454.486	2.83
454.839	2.85
455.193	2.88
455.547	2.89
455.9	2.89
456.254	2.88
456.607	2.87
456.961	2.87
457.314	2.88
457.668	2.91
458.021	2.89
458.375	2.9
458.728	2.91
459.081	2.91
459.434	2.92
459.787	2.93
460.141	2.92
460.494	2.93
460.847	2.96
461.2	2.97
461.553	2.98
461.906	2.99
462.259	2.99
462.611	3.01
462.964	3.02
463.317	3.03
463.67	3.03
464.022	3.06
464.375	3.04
464.728	3.06
465.08	3.06
465.433	3.09
465.785	3.11
466.138	3.11
466.49	3.12
466.843	3.15
467.195	3.17
467.547	3.21
467.899	3.2
468.252	3.15
468.604	3.17
468.956	3.18
469.308	3.2
469.66	3.19
470.012	3.18
470.364	3.21
470.716	3.22
471.068	3.25
471.42	3.25
471.772	3.27
472.123	3.26
472.475	3.25
472.827	3.25
473.178	3.24
473.53	3.24
473.882	3.23
474.233	3.21
474.585	3.19
474.936	3.17
475.288	3.17
475.639	3.19
475.99	3.19
476.342	3.2
476.693	3.19
477.044	3.2
477.395	3.19
477.746	3.16
478.097	3.13
478.448	3.11
478.8	3.1
479.15	3.08
479.501	3.09
479.852	3.09
480.203	3.1
480.554	3.1
480.905	3.11
481.255	3.12
481.606	3.13
481.957	3.12
482.307	3.13
482.658	3.14
483.009	3.14
483.359	3.13
483.709	3.13
484.06	3.12
484.41	3.12
484.761	3.12
485.111	3.12
485.461	3.14
485.811	3.14
486.162	3.13
486.512	3.15
486.862	3.15
487.212	3.15
487.562	3.16
487.912	3.16
488.262	3.16
488.612	3.17
488.961	3.16
489.311	3.18
489.661	3.18
490.011	3.18
490.36	3.18
490.71	3.18
491.06	3.19
491.409	3.21
491.759	3.21
492.108	3.21
492.458	3.22
492.807	3.22
493.157	3.24
493.506	3.28
493.855	3.29
494.204	3.32
494.554	3.34
494.903	3.34
495.252	3.36
495.601	3.38
495.95	3.41
496.299	3.42
496.648	3.43
496.997	3.46
497.346	3.5
497.695	3.54
498.043	3.57
498.392	3.59
498.741	3.61
499.09	3.65
499.438	3.71
499.787	3.75
500.135	3.79
500.484	3.84
500.832	3.88
501.181	3.94
501.529	3.99
501.878	4.04
502.226	4.11
502.574	4.18
502.923	4.25
503.271	4.31
503.619	4.42
503.967	4.52
504.315	4.57
504.663	4.65
505.011	4.72
505.359	4.84
505.707	4.95
506.055	5.03
506.403	5.12
506.751	5.22
507.098	5.32
507.446	5.42
507.794	5.49
508.141	5.6
508.489	5.7
508.837	5.77
509.184	5.87
509.531	5.97
509.879	6.08
510.226	6.17
510.574	6.29
510.921	6.39
511.268	6.52
511.616	6.65
511.963	6.78
512.31	6.91
512.657	7.04
513.004	7.16
513.351	7.31
513.698	7.46
514.045	7.61
514.392	7.75
514.739	7.88
515.086	8.04
515.432	8.18
515.779	8.31
516.126	8.47
516.473	8.6
516.819	8.72
517.166	8.84
517.512	8.97
517.859	9.08
518.205	9.19
518.552	9.29
518.898	9.38
519.245	9.48
519.591	9.56
519.937	9.66
520.283	9.79
520.629	9.9
520.976	10.02
521.322	10.13
521.668	10.28
522.014	10.44
522.36	10.58
522.706	10.74
523.052	10.92
523.398	11.09
523.743	11.26
524.089	11.45
524.435	11.62
524.781	11.82
525.126	11.99
525.472	12.16
525.817	12.31
526.163	12.44
526.509	12.56
526.854	12.67
527.199	12.8
527.545	12.91
527.89	13.01
528.235	13.12
528.581	13.23
528.926	13.33
529.271	13.45
529.616	13.57
529.961	13.69
530.306	13.8
530.651	13.93
530.996	14.09
531.341	14.23
531.686	14.39
532.031	14.53
532.376	14.68
532.721	14.83
533.065	14.98
533.41	15.15
533.755	15.34
534.099	15.53
534.444	15.7
534.788	15.87
535.133	16.06
535.477	16.27
535.822	16.49
536.166	16.73
536.51	16.93
536.855	17.16
537.199	17.44
537.543	17.71
537.887	17.96
538.231	18.24
538.576	18.51
538.92	18.75
539.264	19.02
539.608	19.27
539.951	19.48
540.295	19.7
540.639	19.91
540.983	20.13
541.327	20.33
541.671	20.56
542.014	20.77
542.358	20.98
542.701	21.17
543.045	21.37
543.389	21.58
543.732	21.82
544.075	22.08
544.419	22.29
544.762	22.54
545.105	22.77
545.449	23.01
545.792	23.26
546.135	23.53
546.478	23.79
546.821	24.09
547.165	24.41
547.508	24.73
547.851	25.08
548.194	25.35
548.536	25.69
548.879	26.01
549.222	26.34
549.565	26.68
549.908	26.97
550.25	27.26
550.593	27.55
550.936	27.81
551.278	28.06
551.621	28.33
551.963	28.62
552.306	28.94
552.648	29.17
552.991	29.42
553.333	29.72
553.675	29.99
554.017	30.19
554.36	30.41
554.702	30.66
555.044	30.88
555.386	31.21
555.728	31.38
556.07	31.64
556.412	31.87
556.754	32.1
557.096	32.41
557.438	32.69
557.78	32.93
558.121	33.23
558.463	33.46
558.805	33.71
559.147	33.85
559.488	34.02
559.83	34.27
560.171	34.47
560.513	34.67
560.854	34.87
561.196	35.12
561.537	35.34
561.878	35.5
562.22	35.67
562.561	35.81
562.902	36
563.243	36.17
563.584	36.31
563.925	36.48
564.266	36.65
564.607	36.76
564.948	36.9
565.289	37.05
565.63	37.23
565.971	37.36
566.312	37.54
566.653	37.73
566.993	37.9
567.334	38.11
567.675	38.29
568.015	38.43
568.356	38.52
568.696	38.63
569.037	38.79
569.377	38.95
569.718	39.1
570.058	39.24
570.398	39.35
570.739	39.51
571.079	39.61
571.419	39.73
571.759	39.89
572.099	40
572.439	40.14
572.779	40.22
573.119	40.38
573.459	40.56
573.799	40.64
574.139	40.72
574.479	40.76
574.819	40.86
575.158	40.94
575.498	41.07
575.838	41.15
576.177	41.21
576.517	41.26
576.856	41.35
577.196	41.45
577.535	41.61
577.875	41.64
578.214	41.8
578.553	41.88
578.893	41.98
579.232	42.14
579.571	42.16
579.91	42.24
580.25	42.35
580.589	42.38
580.928	42.48
581.267	42.54
581.606	42.69
581.945	42.74
582.283	42.85
582.622	42.88
582.961	43.04
583.3	43.19
583.639	43.37
583.977	43.53
584.316	43.65
584.654	43.62
584.993	43.8
585.332	43.81
585.67	43.89
586.008	43.89
586.347	43.96
586.685	44.08
587.024	44.17
587.362	44.13
587.7	44.17
588.038	44.31
588.376	44.31
588.715	44.34
589.053	44.43
589.391	44.5
589.729	44.59
590.067	44.6
590.404	44.64
590.742	44.69
591.08	44.66
591.418	44.69
591.756	44.84
592.093	44.88
592.431	44.97
592.769	44.97
593.106	45.07
593.444	45.02
593.781	45.05
594.119	45.1
594.456	45.19
594.793	45.27
595.131	45.28
595.468	45.36
595.805	45.41
596.143	45.46
596.48	45.51
596.817	45.54
597.154	45.58
597.491	45.61
597.828	45.61
598.165	45.68
598.502	45.73
598.839	45.74
599.176	45.76
599.512	45.76
599.849	45.84
600.186	45.82
600.523	45.89
600.859	45.89
601.196	45.96
601.532	46.01
601.869	46.05
602.205	46.06
602.542	46.16
602.878	46.2
603.215	46.19
603.551	46.29
603.887	46.37
604.223	46.4
604.56	46.45
604.896	46.49
605.232	46.52
605.568	46.54
605.904	46.55
606.24	46.63
606.576	46.67
606.912	46.7
607.248	46.82
607.583	46.91
607.919	46.99
608.255	46.97
608.591	46.97
608.926	46.96
609.262	47.04
609.597	47.07
609.933	47.03
610.268	47.08
610.604	47.04
610.939	47.05
611.275	47.1
611.61	47.12
611.945	47.18
612.281	47.19
612.616	47.19
612.951	47.33
613.286	47.31
613.621	47.36
613.956	47.41
614.291	47.34
614.626	47.34
614.961	47.39
615.296	47.41
615.631	47.45
615.966	47.52
616.3	47.4
616.635	47.36
616.97	47.4
617.304	47.26
617.639	47.28
617.973	47.26
618.308	47.3
618.642	47.25
618.977	47.15
619.311	47.15
619.646	47.23
619.98	47.19
620.314	47.22
620.648	47.21
620.983	47.2
621.317	47.32
621.651	47.33
621.985	47.36
622.319	47.34
622.653	47.42
622.987	47.49
623.321	47.6
623.655	47.64
623.988	47.74
624.322	47.85
624.656	47.92
624.99	47.93
625.323	48
625.657	48.04
625.99	48.12
626.324	48.18
626.657	48.14
626.991	48.13
627.324	47.98
627.658	48
627.991	48
628.324	48
628.657	48.07
628.991	48.08
629.324	48.21
629.657	48.21
629.99	48.19
630.323	48.22
630.656	48.25
630.989	48.22
631.322	48.18
631.655	48.12
631.987	48.2
632.32	48.11
632.653	48.06
632.986	48.1
633.318	48.07
633.651	48.13
633.984	48.14
634.316	48.22
634.649	48.25
634.981	48.23
635.313	48.18
635.646	48.11
635.978	48.09
636.31	48.07
636.643	48
636.975	47.93
637.307	47.86
637.639	47.83
637.971	47.89
638.303	47.99
638.635	48.02
638.967	47.95
639.299	48.03
639.631	48.13
639.963	48.07
640.295	48.12
640.626	48.1
640.958	48.12
641.29	48.23
641.621	48.2
641.953	48.28
642.285	48.35
642.616	48.44
642.948	48.47
643.279	48.43
643.61	48.48
643.942	48.62
644.273	48.61
644.604	48.69
644.936	48.71
645.267	48.75
645.598	48.77
645.929	48.8
646.26	48.8
646.591	48.88
646.922	48.87
647.253	48.8
647.584	48.81
647.915	48.72
648.245	48.77
648.576	48.8
648.907	48.84
649.238	48.76
649.568	48.69
649.899	48.66
650.229	48.68
650.56	48.67
650.89	48.65
651.221	48.7
651.551	48.67
651.882	48.69
652.212	48.66
652.542	48.6
652.872	48.58
653.203	48.6
653.533	48.59
653.863	48.65
654.193	48.66
654.523	48.68
654.853	48.76
655.183	48.67
655.513	48.68
655.843	48.59
656.172	48.74
656.502	48.9
656.832	49
657.162	49.1
657.491	49.01
657.821	49.08
658.15	49.13
658.48	49.17
658.809	49.02
659.139	49.09
659.468	49.16
659.798	49.18
660.127	49.2
660.456	49.11
660.785	49.18
661.115	49.24
661.444	49.27
661.773	49.32
662.102	49.38
662.431	49.25
662.76	49.21
663.089	49.15
663.418	48.99
663.747	48.83
664.076	48.72
664.404	48.76
664.733	48.64
665.062	48.67
665.39	48.65
665.719	48.86
666.048	48.7
666.376	48.83
666.705	48.88
667.033	48.93
667.362	48.97
667.69	48.9
668.018	48.74
668.347	48.72
668.675	48.66
669.003	48.72
669.331	48.83
669.659	48.96
669.987	49.03
670.315	49.04
670.643	49.11
670.971	49.19
671.299	49.32
671.627	49.42
671.955	49.32
672.283	49.32
672.61	49.3
672.938	49.43
673.266	49.29
673.593	49.24
673.921	49.2
674.249	49.23
674.576	49.22
674.904	49.48
675.231	49.58
675.558	49.62
675.886	49.61
676.213	49.5
676.54	49.58
676.867	49.64
677.195	49.62
677.522	49.75
677.849	49.61
678.176	49.57
678.503	49.52
678.83	49.7
679.157	49.65
679.484	49.66
679.81	49.64
680.137	49.58
680.464	49.63
680.791	49.61
681.117	49.58
681.444	49.54
681.771	49.53
682.097	49.41
682.424	49.32
682.75	49.24
683.077	49.44
683.403	49.38
683.729	49.32
684.056	49.44
684.382	49.38
684.708	49.44
685.034	49.45
685.36	49.4
685.686	49.36
686.012	49.41
686.339	49.47
686.664	49.57
686.99	49.62
687.316	49.61
687.642	49.64
687.968	49.69
688.294	49.85
688.619	49.83
688.945	49.85
689.271	50.01
689.596	50.05
689.922	50.02
690.247	50
690.573	49.9
690.898	49.83
691.224	49.68
691.549	49.71
691.874	49.66
692.2	49.63
692.525	49.62
692.85	49.74
693.175	49.57
693.5	49.63
693.825	49.69
694.15	49.72
694.475	49.69
694.8	49.68
695.125	49.66
695.45	49.57
695.775	49.68
696.099	49.73
696.424	49.75
696.749	49.74
697.073	49.73
697.398	49.72
697.723	49.67
698.047	49.82
698.372	49.82
698.696	49.88
699.02	49.86
699.345	49.77
699.669	49.6
699.993	49.61
700.318	49.4
700.642	49.46
700.966	49.46
701.29	49.42
701.614	49.46
701.938	49.32
702.262	49.37
702.586	49.16
702.91	48.93
703.234	48.93
703.557	48.79
703.881	48.77
704.205	48.86
704.529	48.92
704.852	48.84
705.176	48.79
705.499	48.76
705.823	48.82
706.146	48.86
706.47	48.95
706.793	48.92
707.117	48.94
707.44	48.67
707.763	48.7
708.086	48.77
708.409	48.92
708.733	49.03
709.056	49.1
709.379	49.3
709.702	49.35
710.025	49.21
710.348	49.2
710.671	49.26
710.993	49.24
711.316	49.25
711.639	49.19
711.962	49.14
712.284	49.17
712.607	49.16
712.93	49.15
713.252	49.16
713.575	49.37
713.897	49.42
714.22	49.59
714.542	49.52
714.864	49.37
715.187	49.28
715.509	49.22
715.831	49.13
716.153	48.84
716.475	48.99
716.798	49.21
717.12	49.31
717.442	49.47
717.764	49.44
718.085	49.36
718.407	49.25
718.729	49.5
719.051	49.43
719.373	49.32
719.695	49.31
720.016	49.39
720.338	49.24
720.659	49.2
720.981	49.13
721.302	49.2
721.624	49.39
721.945	49.39
722.267	49.42
722.588	49.47
722.909	49.72
723.231	49.63
723.552	49.4
723.873	49.24
724.194	48.93
724.515	48.85
724.836	48.87
725.157	49.26
725.478	48.93
725.799	49.02
726.12	48.92
726.441	48.74
726.762	48.71
727.083	48.87
727.403	48.93
727.724	48.91
728.045	48.8
728.365	48.76
728.686	48.67
729.006	48.71
729.327	48.82
729.647	48.87
729.967	48.81
730.288	49.01
730.608	49.15
730.928	49.17
731.249	49.17
731.569	49.37
731.889	49.17
732.209	49.34
732.529	49.36
732.849	49.48
733.169	49.75
733.489	49.72
733.809	49.53
734.129	49.51
734.448	49.41
734.768	49.32
735.088	49.43
735.408	49.32
735.727	49.48
736.047	49.48
736.366	49.25
736.686	49.39
737.005	49.54
737.325	49.49
737.644	49.34
737.963	49.31
738.283	48.99
738.602	49.16
738.921	49.06
739.24	49.13
739.56	49.38
739.879	49.4
740.198	49.43
740.517	49.28
740.836	49.45
741.155	49.55
741.473	49.79
741.792	49.65
742.111	49.81
742.43	49.77
742.748	49.73
743.067	50.33
743.386	50.18
743.704	50.22
744.023	50.38
744.341	50.55
744.66	50.86
744.978	51.11
745.297	51.13
745.615	51.48
745.933	51.09
746.252	51.11
746.57	50.92
746.888	50.8
747.206	50.78
747.524	50.65
747.842	50.42
748.16	50.4
748.478	50.54
748.796	50.26
749.114	50.15
749.432	50.11
749.749	49.52
750.067	49.46
750.385	49.09
750.703	49.14
751.02	49.07
751.338	49.08
751.655	48.86
751.973	48.73
752.29	48.39
752.608	48.73
752.925	48.39
753.242	48.22
753.56	48.29
753.877	48.65
754.194	48.61
754.511	49.28
754.828	49.22
755.145	49.07
755.462	49.14
755.779	49.37
756.096	48.86
756.413	49.14
756.73	49.41
757.047	49.4
757.364	49.46
757.68	49.61
757.997	49.37
758.314	49.67
758.63	49.55
758.947	49.91
759.264	49.59
759.58	49.79
759.896	49.91
760.213	50.05
760.529	49.8
760.846	49.8
761.162	49.46
761.478	49.34
761.794	49.55
762.11	49.64
762.426	49.52
762.743	49.85
763.059	49.59
763.375	49.42
763.69	49.47
764.006	49.38
764.322	49.44
764.638	49.46
764.954	49.48
765.27	49.52
765.585	49.36
765.901	49.71
766.216	49.65
766.532	49.6
766.848	49.39
767.163	49.36
767.478	49.47
767.794	49.53
768.109	49.56
768.424	49.37
768.74	49.19
769.055	49.33
769.37	49.32
769.685	49.41
770	49.77
770.315	49.81
770.63	49.88
770.945	49.76
771.26	49.85
771.575	49.4
771.89	49.07
772.205	49.26
772.52	49.13
772.834	49.12
773.149	49.33
773.464	49.36
773.778	49.45
774.093	49.63
774.407	49.85
774.722	49.73
775.036	49.85
775.351	50.3
775.665	49.99
775.979	49.69
776.293	49.88
776.608	49.49
776.922	48.88
777.236	48.45
777.55	48.56
777.864	48.34
778.178	48.64
778.492	48.86
778.806	48.72
779.12	48.39
779.434	48.61
779.747	48.32
780.061	48.15
780.375	48
780.689	47.74
781.002	47.07
781.316	47.38
781.629	47.15
781.943	46.64
782.256	46.3
782.57	46.06
782.883	46.03
783.196	46.03
783.51	46.26
783.823	46.97
784.136	47.16
784.449	47.44
784.762	47.64
785.075	48.22
785.388	48.01
785.701	47.83
786.014	47.94
786.327	48.32
786.64	48.75
786.953	49.52
787.266	49.4
787.578	49.87
787.891	49.86
788.204	49.91
788.516	50.33
788.829	50.28
789.141	50.74
789.454	50.88
789.766	51.07
790.079	51.3
790.391	50.54
790.703	50.17
791.016	50.06
791.328	49.98
791.64	49.48
791.952	49.43
792.264	50.13
792.576	49.41
792.888	49.09
793.2	48.56
793.512	48.23
793.824	48.4
794.136	48.87
794.448	48.75
794.76	48.64
795.071	48.29
795.383	48.65
795.695	48.63
796.006	48.91
796.318	48.68
796.629	48.85
796.941	49.7
797.252	49.9
797.564	50.28
797.875	50.61
798.186	50.66
798.497	50.58
798.809	49.85
799.12	49.91
799.431	50.39
799.742	50.92
800.053	50.45
800.364	50.83
800.675	50.58
800.986	50.75
801.297	50.44
801.608	51.06
801.918	50.62
802.229	50.66
802.54	50.64
802.851	50.53
803.161	50.18
803.472	49.84
803.782	49.77
804.093	49.31
804.403	48.81
804.714	49.49
805.024	49.66
805.334	49.74
805.645	49.9
805.955	49.69
806.265	49.22
806.575	49.06
806.885	48.54
807.195	48.36
807.505	48.27
807.815	48.37
808.125	47.89
808.435	48.76
808.745	49.36
809.055	48.81
809.365	48.66
809.674	48.83
809.984	49.07
810.294	49.16
810.603	49.64
810.913	50.03
811.222	49.43
811.532	49.72
811.841	50.18
812.151	50.77
812.46	50.24
812.769	50.78
813.079	50.74
813.388	50.47
813.697	50.56
814.006	50.21
814.315	50.2
814.624	50.43
814.933	50.09
815.242	49.66
815.551	49.63
815.86	49.39
816.169	49.63
816.478	48.84
816.786	48.52
817.095	48.37
817.404	47.99
817.712	48.32
818.021	48.3
818.33	47.75
818.638	48.07
818.947	48.42
819.255	48.58
819.563	49.2
819.872	49.53
820.18	49.6
820.488	49.8
820.796	50.19
821.105	50.16
821.413	50.01
821.721	50.09
822.029	50.02
822.337	50.27
822.645	50.11
822.953	50.19
823.26	50.26
823.568	50.18
823.876	50.07
824.184	49.81
824.491	49.66
824.799	50.02
825.107	50.03
825.414	50.05
825.722	49.94
826.029	49.99
826.337	49.84
826.644	49.84
826.951	49.76
827.259	49.7
827.566	49.41
827.873	49.34
828.18	49.27
828.488	49.32
828.795	49.09
829.102	49.33
829.409	49.33
829.716	49.13
830.023	49.11
830.329	49.29
830.636	49.81
830.943	50.15
831.25	49.79
831.557	49.38
831.863	49.22
832.17	49.5
832.476	49.4
832.783	49.44
833.089	49.42
833.396	49.59
833.702	49.57
834.009	50.37
834.315	50.55
834.621	50.46
834.928	51.06
835.234	51.4
835.54	51.37
835.846	51.36
836.152	51.52
836.458	51.45
836.764	51.52
837.07	51.31
837.376	51.21
837.682	51.36
837.988	51.76
838.293	51.97
838.599	51.57
838.905	50.94
839.211	50.59
839.516	50.42
839.822	49.71
840.127	49.87
840.433	49.74
840.738	50.28
841.044	49.77
841.349	48.98
841.654	48.22
841.959	47.28
842.265	46.99
842.57	46.72
842.875	47.21
843.18	47.48
843.485	48
843.79	48.06
844.095	47.65
844.4	47.3
844.705	46.71
845.01	47.84
845.315	47.92
845.619	48.63
845.924	49.01
846.229	51.04
846.533	49.44
846.838	48.91
847.142	47.98
847.447	48.67
847.751	47.75
848.056	47.88
848.36	48.69
848.664	49.86
848.969	50.69
849.273	49.75
849.577	49.09
849.881	47.33
850.185	46.75
850.489	46.62
850.794	46.63
851.097	49.05
851.401	47.92
851.705	49.13
852.009	50.57
852.313	49.6
852.617	47.82
852.92	50.85
853.224	48.37
853.528	47.92
853.831	46.14
854.135	47.27
854.438	48.1
854.742	46.34
855.045	43.26
855.349	43.74
855.652	44.96
855.955	46.29
856.259	46.54
856.562	49.29
856.865	49.5
857.168	50.08
857.471	48.53
857.774	47.47
858.077	47.97
858.38	45.37
858.683	45.33
858.986	44.68
859.289	43.44
859.592	46.15
859.894	47.47
860.197	48.8
860.5	48.28
860.802	47.06
861.105	49.06
861.407	51.15
861.71	50.96
862.012	51.67
862.315	49.78
862.617	48.73
862.919	47.69
863.222	47.74
863.524	46.91
863.826	46.96
864.128	47.35
864.43	46.32
864.732	49.17
865.034	48.29
865.336	48.39
865.638	48.95
865.94	46.89
866.242	46.2
866.544	46.88
866.846	45.75
867.147	48.02
867.449	47.16
867.751	47.52
868.052	46.69
868.354	45.09
868.655	47.36
868.957	48.97
869.258	48.38
869.56	48.73
869.861	50.8
870.162	50.01
870.463	51.44
870.765	49.51
871.066	47.29
871.367	49.14
871.668	50.67
871.969	50.51
872.27	51.85
872.571	53.31
872.872	54.06
873.173	53.87
873.473	52.33
873.774	51.31
874.075	54.16
874.376	54.6
874.676	52.12
874.977	51.32
875.277	50.17
875.578	51.18
875.878	50.49
876.179	48.51
876.479	49.77
876.78	49.61
877.08	52.34
877.38	54.08
877.68	53.55
877.981	53.18
878.281	51.54
878.581	51.63
