Data from BU26946_Reflection_00003.txt Node
Date: Tue Nov 19 10:51:53 EST 2019
User: vgr7
Spectrometer: USB2G7710
Scans to average: 3
Trigger mode: 4
Integration Time (sec): 2.000000E-2
Electric dark correction enabled: true
Boxcar width: 10
XAxis mode: Wavelengths
Number of Pixels in Spectrum: 2048
>>>>>Begin Spectral Data<<<<<
177.721	-140.36
178.105	-548.65
178.488	-290.09
178.871	-231.58
179.254	14.29
179.636	100
180.019	727.91
180.402	135.71
180.785	-1284.62
181.168	-29.19
181.55	65.32
181.933	71.36
182.316	83
182.698	65.45
183.081	179.3
183.463	-1511.94
183.846	957.14
184.228	551.51
184.611	1295.8
184.993	678.18
185.376	4312.77
185.758	-614.8
186.14	-583.08
186.522	-308.87
186.904	-205.81
187.287	-182.89
187.669	-109.57
188.051	-245.94
188.433	-225.81
188.815	-205.93
189.197	-163.49
189.579	-106.34
189.961	-94.73
190.342	-73.39
190.724	-57.19
191.106	-58.38
191.488	-41.44
191.869	-20.63
192.251	-29.62
192.633	-25.56
193.014	-22.52
193.396	-28.77
193.777	-32.19
194.159	-36.78
194.54	-40.88
194.922	-44.58
195.303	-39
195.684	-64.69
196.065	-44.44
196.447	-33.03
196.828	-16.54
197.209	2.15
197.59	-0.75
197.971	-11.26
198.352	-11.02
198.733	-43.47
199.114	-44.44
199.495	-27.58
199.876	-28.04
200.257	-25.81
200.638	-16.77
201.018	-27.82
201.399	-9.43
201.78	4.91
202.16	3.47
202.541	9.15
202.922	9.34
203.302	-15.16
203.683	-23.47
204.063	-10.72
204.444	-8.64
204.824	-20
205.204	-31.96
205.585	-25.27
205.965	-21.16
206.345	-30.26
206.725	-22.05
207.106	-13.12
207.486	-12.27
207.866	-6.14
208.246	5.54
208.626	1.6
209.006	3.16
209.386	3.3
209.766	1.93
210.145	2.35
210.525	3.28
210.905	-1.36
211.285	-0.5
211.664	7.19
212.044	4.38
212.424	-1.11
212.803	-2.25
213.183	-6.54
213.562	1.46
213.942	8.37
214.321	13.21
214.701	7.08
215.08	6.94
215.459	8.85
215.838	0.58
216.218	-3.45
216.597	-2.86
216.976	-20.44
217.355	-9.37
217.734	-0.6
218.113	14.09
218.492	11.6
218.871	24.76
219.25	48.24
219.629	45.14
220.008	65.23
220.387	60.93
220.766	58.77
221.144	97.48
221.523	70.96
221.902	41.75
222.28	47.14
222.659	70.91
223.037	68
223.416	54.87
223.794	44.47
224.173	41.59
224.551	31.49
224.929	24.26
225.308	7.55
225.686	-1.95
226.064	-8.75
226.442	-2.23
226.821	-6.19
227.199	-9.78
227.577	-8.64
227.955	-8.31
228.333	-9.7
228.711	-8.85
229.089	-9.75
229.467	-10.1
229.845	-7.27
230.222	-8.7
230.6	-10.86
230.978	-11.82
231.356	-8.87
231.733	-6.93
232.111	-6.93
232.488	-6.38
232.866	-3.19
233.243	-2.95
233.621	-2.64
233.998	-1.62
234.376	-0.62
234.753	-0.03
235.13	0.65
235.508	0.01
235.885	-0.74
236.262	-1.52
236.639	-2.68
237.016	-2.75
237.393	-1.68
237.77	-2.04
238.147	-1.24
238.524	-0.33
238.901	0.09
239.278	-0.06
239.655	-0.07
240.032	0.34
240.409	0.56
240.785	0.64
241.162	1.22
241.539	1.91
241.915	2.06
242.292	1.57
242.668	1.86
243.045	2.66
243.421	2.9
243.798	3.16
244.174	3.19
244.551	3.44
244.927	3.61
245.303	3.33
245.679	3.37
246.056	3.47
246.432	3.26
246.808	3.27
247.184	3.43
247.56	3.36
247.936	3.39
248.312	3.48
248.688	3.26
249.064	3.35
249.44	3.25
249.815	3.11
250.191	3.19
250.567	3.28
250.943	3.09
251.318	3.37
251.694	3.1
252.069	3.44
252.445	3.62
252.82	3.58
253.196	3.78
253.571	4.18
253.947	3.99
254.322	4.31
254.697	4.19
255.073	3.83
255.448	3.69
255.823	3.45
256.198	3.18
256.573	3.37
256.948	3.41
257.323	3.47
257.698	3.74
258.073	3.67
258.448	3.41
258.823	3.18
259.198	3.16
259.573	3.33
259.948	3.25
260.322	2.93
260.697	2.91
261.072	2.96
261.446	2.9
261.821	2.87
262.195	2.79
262.57	2.84
262.944	2.86
263.319	2.97
263.693	2.94
264.067	3.24
264.442	3.3
264.816	3.01
265.19	2.83
265.564	2.5
265.938	2.47
266.313	2.56
266.687	2.77
267.061	2.76
267.435	2.68
267.809	2.64
268.183	2.82
268.556	2.59
268.93	2.63
269.304	2.45
269.678	2.62
270.051	2.6
270.425	2.66
270.799	2.71
271.172	2.6
271.546	2.77
271.919	2.59
272.293	2.43
272.666	2.69
273.04	2.72
273.413	2.85
273.787	2.92
274.16	2.75
274.533	2.74
274.906	2.58
275.279	2.63
275.653	2.68
276.026	2.83
276.399	2.94
276.772	3.05
277.145	3.18
277.518	2.96
277.891	2.95
278.263	3.04
278.636	3.01
279.009	3.23
279.382	3.08
279.755	3.11
280.127	3.14
280.5	3.04
280.872	3.06
281.245	3.04
281.617	2.89
281.99	3.12
282.362	2.94
282.735	2.84
283.107	2.68
283.479	2.65
283.852	2.55
284.224	2.59
284.596	2.5
284.968	2.44
285.34	2.56
285.713	2.57
286.085	2.38
286.457	2.35
286.829	2.19
287.201	2.23
287.572	2.36
287.944	2.47
288.316	2.56
288.688	2.68
289.06	2.61
289.431	2.73
289.803	2.59
290.175	2.74
290.546	2.84
290.918	2.99
291.289	2.97
291.661	3.06
292.032	3.07
292.403	3.06
292.775	3.1
293.146	3.15
293.517	3.03
293.889	3.08
294.26	3.17
294.631	3.28
295.002	3.29
295.373	3.27
295.744	3.26
296.115	3.19
296.486	3.19
296.857	3.27
297.228	3.2
297.599	3.17
297.97	3.2
298.34	3.27
298.711	3.3
299.082	3.31
299.452	3.26
299.823	3.17
300.194	3.12
300.564	3.01
300.935	3.04
301.305	3.16
301.676	3.2
302.046	3.21
302.416	3.15
302.787	3.24
303.157	3.12
303.527	3.14
303.897	3.21
304.267	3.08
304.637	3.11
305.008	3.07
305.378	3.22
305.748	3.14
306.117	3.15
306.487	3.13
306.857	3.23
307.227	3.35
307.597	3.39
307.967	3.39
308.336	3.44
308.706	3.32
309.076	3.43
309.445	3.39
309.815	3.3
310.184	3.35
310.554	3.36
310.923	3.36
311.293	3.3
311.662	3.26
312.031	3.36
312.401	3.25
312.77	3.36
313.139	3.34
313.508	3.39
313.877	3.28
314.246	3.21
314.616	3.13
314.985	3.02
315.353	3.14
315.722	3.28
316.091	3.42
316.46	3.4
316.829	3.33
317.198	3.34
317.567	3.59
317.935	3.65
318.304	3.6
318.672	3.61
319.041	3.57
319.41	3.65
319.778	3.66
320.147	3.75
320.515	3.77
320.883	3.81
321.252	3.7
321.62	3.84
321.988	3.88
322.357	3.92
322.725	4.01
323.093	3.88
323.461	3.86
323.829	3.76
324.197	3.84
324.565	3.86
324.933	3.9
325.301	3.65
325.669	3.61
326.037	3.53
326.405	3.53
326.772	3.7
327.14	3.56
327.508	3.49
327.875	3.48
328.243	3.36
328.61	3.31
328.978	3.38
329.346	3.29
329.713	3.34
330.08	3.36
330.448	3.33
330.815	3.44
331.182	3.39
331.55	3.39
331.917	3.34
332.284	3.25
332.651	3.35
333.018	3.33
333.385	3.34
333.752	3.43
334.119	3.5
334.486	3.41
334.853	3.38
335.22	3.29
335.587	3.29
335.954	3.31
336.32	3.23
336.687	3.25
337.054	3.28
337.42	3.25
337.787	3.24
338.153	3.11
338.52	3.19
338.886	3.22
339.253	3.15
339.619	3.24
339.986	3.19
340.352	3.13
340.718	3.31
341.084	3.26
341.451	3.24
341.817	3.19
342.183	3.14
342.549	3.19
342.915	3.24
343.281	3.31
343.647	3.35
344.013	3.35
344.379	3.38
344.745	3.36
345.11	3.41
345.476	3.43
345.842	3.48
346.208	3.37
346.573	3.35
346.939	3.42
347.304	3.39
347.67	3.44
348.035	3.38
348.401	3.35
348.766	3.37
349.132	3.39
349.497	3.42
349.862	3.37
350.228	3.5
350.593	3.51
350.958	3.55
351.323	3.56
351.688	3.58
352.053	3.49
352.418	3.46
352.783	3.39
353.148	3.29
353.513	3.27
353.878	3.3
354.243	3.3
354.608	3.34
354.972	3.31
355.337	3.32
355.702	3.36
356.066	3.34
356.431	3.32
356.795	3.27
357.16	3.24
357.524	3.26
357.889	3.15
358.253	3.2
358.618	3.12
358.982	3.02
359.346	3.04
359.71	3.09
360.075	3.1
360.439	3.14
360.803	3.24
361.167	3.26
361.531	3.25
361.895	3.23
362.259	3.19
362.623	3.18
362.987	3.18
363.351	3.1
363.714	3.08
364.078	3.11
364.442	3.11
364.806	3.19
365.169	3.22
365.533	3.27
365.896	3.24
366.26	3.29
366.623	3.41
366.987	3.49
367.35	3.52
367.714	3.55
368.077	3.49
368.44	3.52
368.803	3.52
369.167	3.46
369.53	3.46
369.893	3.47
370.256	3.48
370.619	3.49
370.982	3.5
371.345	3.5
371.708	3.52
372.071	3.54
372.434	3.47
372.797	3.51
373.159	3.45
373.522	3.38
373.885	3.37
374.247	3.36
374.61	3.39
374.973	3.36
375.335	3.41
375.698	3.44
376.06	3.36
376.423	3.38
376.785	3.41
377.147	3.4
377.51	3.37
377.872	3.35
378.234	3.38
378.596	3.43
378.958	3.48
379.321	3.5
379.683	3.54
380.045	3.56
380.407	3.57
380.769	3.55
381.13	3.57
381.492	3.55
381.854	3.54
382.216	3.48
382.578	3.53
382.939	3.51
383.301	3.5
383.663	3.51
384.024	3.48
384.386	3.48
384.747	3.5
385.109	3.51
385.47	3.57
385.832	3.53
386.193	3.54
386.554	3.53
386.916	3.53
387.277	3.46
387.638	3.45
387.999	3.45
388.36	3.48
388.721	3.5
389.082	3.51
389.443	3.51
389.804	3.54
390.165	3.48
390.526	3.49
390.887	3.49
391.248	3.47
391.609	3.5
391.969	3.5
392.33	3.48
392.691	3.47
393.051	3.42
393.412	3.43
393.772	3.44
394.133	3.41
394.493	3.37
394.854	3.39
395.214	3.34
395.574	3.33
395.935	3.33
396.295	3.34
396.655	3.34
397.015	3.34
397.376	3.33
397.736	3.31
398.096	3.27
398.456	3.27
398.816	3.28
399.176	3.26
399.535	3.23
399.895	3.25
400.255	3.29
400.615	3.32
400.975	3.32
401.334	3.34
401.694	3.34
402.054	3.39
402.413	3.42
402.773	3.47
403.132	3.44
403.492	3.45
403.851	3.41
404.211	3.42
404.57	3.44
404.929	3.4
405.288	3.4
405.648	3.43
406.007	3.46
406.366	3.46
406.725	3.46
407.084	3.48
407.443	3.5
407.802	3.47
408.161	3.44
408.52	3.44
408.879	3.4
409.238	3.39
409.596	3.38
409.955	3.33
410.314	3.31
410.673	3.32
411.031	3.31
411.39	3.36
411.748	3.36
412.107	3.32
412.465	3.33
412.824	3.34
413.182	3.35
413.54	3.33
413.899	3.31
414.257	3.34
414.615	3.35
414.974	3.34
415.332	3.35
415.69	3.36
416.048	3.37
416.406	3.34
416.764	3.36
417.122	3.33
417.48	3.37
417.838	3.4
418.195	3.39
418.553	3.4
418.911	3.37
419.269	3.39
419.626	3.38
419.984	3.39
420.342	3.41
420.699	3.39
421.057	3.38
421.414	3.41
421.772	3.39
422.129	3.39
422.486	3.4
422.844	3.39
423.201	3.4
423.558	3.39
423.915	3.41
424.273	3.4
424.63	3.4
424.987	3.39
425.344	3.36
425.701	3.37
426.058	3.37
426.415	3.39
426.772	3.35
427.128	3.36
427.485	3.39
427.842	3.37
428.199	3.36
428.555	3.36
428.912	3.34
429.269	3.34
429.625	3.34
429.982	3.33
430.338	3.33
430.695	3.31
431.051	3.32
431.407	3.32
431.764	3.33
432.12	3.36
432.476	3.37
432.832	3.37
433.189	3.36
433.545	3.36
433.901	3.35
434.257	3.37
434.613	3.37
434.969	3.33
435.325	3.34
435.681	3.36
436.036	3.36
436.392	3.37
436.748	3.38
437.104	3.37
437.459	3.37
437.815	3.38
438.171	3.38
438.526	3.38
438.882	3.38
439.237	3.38
439.593	3.36
439.948	3.35
440.304	3.37
440.659	3.39
441.014	3.39
441.369	3.4
441.725	3.4
442.08	3.4
442.435	3.42
442.79	3.42
443.145	3.4
443.5	3.39
443.855	3.39
444.21	3.39
444.565	3.4
444.92	3.39
445.275	3.37
445.629	3.38
445.984	3.38
446.339	3.37
446.693	3.37
447.048	3.35
447.403	3.37
447.757	3.36
448.112	3.36
448.466	3.34
448.82	3.33
449.175	3.33
449.529	3.34
449.883	3.33
450.238	3.32
450.592	3.34
450.946	3.35
451.3	3.35
451.654	3.34
452.008	3.32
452.362	3.32
452.716	3.33
453.07	3.33
453.424	3.32
453.778	3.33
454.132	3.33
454.486	3.34
454.839	3.32
455.193	3.34
455.547	3.34
455.9	3.33
456.254	3.34
456.607	3.36
456.961	3.35
457.314	3.37
457.668	3.38
458.021	3.37
458.375	3.37
458.728	3.39
459.081	3.39
459.434	3.42
459.787	3.42
460.141	3.43
460.494	3.43
460.847	3.43
461.2	3.43
461.553	3.44
461.906	3.45
462.259	3.44
462.611	3.44
462.964	3.45
463.317	3.45
463.67	3.46
464.022	3.46
464.375	3.44
464.728	3.44
465.08	3.44
465.433	3.45
465.785	3.44
466.138	3.42
466.49	3.41
466.843	3.42
467.195	3.4
467.547	3.39
467.899	3.41
468.252	3.41
468.604	3.41
468.956	3.4
469.308	3.39
469.66	3.43
470.012	3.42
470.364	3.43
470.716	3.45
471.068	3.44
471.42	3.43
471.772	3.44
472.123	3.44
472.475	3.43
472.827	3.43
473.178	3.45
473.53	3.46
473.882	3.46
474.233	3.44
474.585	3.47
474.936	3.47
475.288	3.47
475.639	3.48
475.99	3.48
476.342	3.51
476.693	3.53
477.044	3.51
477.395	3.51
477.746	3.49
478.097	3.5
478.448	3.49
478.8	3.47
479.15	3.47
479.501	3.48
479.852	3.5
480.203	3.51
480.554	3.51
480.905	3.51
481.255	3.52
481.606	3.53
481.957	3.54
482.307	3.54
482.658	3.54
483.009	3.55
483.359	3.55
483.709	3.55
484.06	3.55
484.41	3.55
484.761	3.56
485.111	3.57
485.461	3.57
485.811	3.58
486.162	3.59
486.512	3.59
486.862	3.6
487.212	3.59
487.562	3.58
487.912	3.59
488.262	3.59
488.612	3.58
488.961	3.59
489.311	3.59
489.661	3.59
490.011	3.58
490.36	3.58
490.71	3.58
491.06	3.57
491.409	3.56
491.759	3.56
492.108	3.54
492.458	3.54
492.807	3.53
493.157	3.52
493.506	3.52
493.855	3.51
494.204	3.5
494.554	3.51
494.903	3.53
495.252	3.53
495.601	3.54
495.95	3.56
496.299	3.55
496.648	3.53
496.997	3.54
497.346	3.55
497.695	3.56
498.043	3.56
498.392	3.57
498.741	3.6
499.09	3.62
499.438	3.64
499.787	3.64
500.135	3.64
500.484	3.66
500.832	3.67
501.181	3.7
501.529	3.7
501.878	3.71
502.226	3.72
502.574	3.72
502.923	3.71
503.271	3.71
503.619	3.73
503.967	3.74
504.315	3.73
504.663	3.72
505.011	3.72
505.359	3.73
505.707	3.74
506.055	3.74
506.403	3.73
506.751	3.73
507.098	3.74
507.446	3.76
507.794	3.77
508.141	3.78
508.489	3.78
508.837	3.8
509.184	3.8
509.531	3.82
509.879	3.82
510.226	3.83
510.574	3.86
510.921	3.85
511.268	3.86
511.616	3.88
511.963	3.9
512.31	3.92
512.657	3.92
513.004	3.91
513.351	3.92
513.698	3.92
514.045	3.94
514.392	3.95
514.739	3.96
515.086	3.96
515.432	3.97
515.779	3.95
516.126	3.95
516.473	3.95
516.819	3.93
517.166	3.94
517.512	3.93
517.859	3.92
518.205	3.9
518.552	3.91
518.898	3.91
519.245	3.91
519.591	3.9
519.937	3.93
520.283	3.94
520.629	3.94
520.976	3.96
521.322	3.95
521.668	3.94
522.014	3.95
522.36	3.95
522.706	3.97
523.052	3.98
523.398	3.97
523.743	3.98
524.089	4
524.435	4
524.781	4.01
525.126	4.02
525.472	4.06
525.817	4.08
526.163	4.07
526.509	4.07
526.854	4.07
527.199	4.06
527.545	4.08
527.89	4.08
528.235	4.09
528.581	4.1
528.926	4.11
529.271	4.1
529.616	4.11
529.961	4.11
530.306	4.12
530.651	4.12
530.996	4.13
531.341	4.13
531.686	4.14
532.031	4.14
532.376	4.15
532.721	4.15
533.065	4.14
533.41	4.15
533.755	4.18
534.099	4.18
534.444	4.19
534.788	4.17
535.133	4.17
535.477	4.16
535.822	4.17
536.166	4.16
536.51	4.15
536.855	4.13
537.199	4.12
537.543	4.13
537.887	4.13
538.231	4.13
538.576	4.12
538.92	4.13
539.264	4.13
539.608	4.13
539.951	4.12
540.295	4.13
540.639	4.13
540.983	4.11
541.327	4.11
541.671	4.11
542.014	4.12
542.358	4.13
542.701	4.13
543.045	4.12
543.389	4.13
543.732	4.14
544.075	4.16
544.419	4.17
544.762	4.15
545.105	4.15
545.449	4.16
545.792	4.17
546.135	4.17
546.478	4.17
546.821	4.17
547.165	4.16
547.508	4.15
547.851	4.16
548.194	4.16
548.536	4.15
548.879	4.15
549.222	4.17
549.565	4.15
549.908	4.13
550.25	4.13
550.593	4.12
550.936	4.12
551.278	4.12
551.621	4.11
551.963	4.11
552.306	4.12
552.648	4.1
552.991	4.11
553.333	4.11
553.675	4.12
554.017	4.11
554.36	4.11
554.702	4.1
555.044	4.07
555.386	4.08
555.728	4.08
556.07	4.06
556.412	4.04
556.754	4.05
557.096	4.06
557.438	4.1
557.78	4.14
558.121	4.11
558.463	4.13
558.805	4.16
559.147	4.18
559.488	4.17
559.83	4.18
560.171	4.18
560.513	4.17
560.854	4.15
561.196	4.17
561.537	4.17
561.878	4.19
562.22	4.22
562.561	4.23
562.902	4.22
563.243	4.25
563.584	4.25
563.925	4.27
564.266	4.27
564.607	4.26
564.948	4.22
565.289	4.24
565.63	4.22
565.971	4.2
566.312	4.18
566.653	4.18
566.993	4.19
567.334	4.19
567.675	4.18
568.015	4.21
568.356	4.19
568.696	4.22
569.037	4.22
569.377	4.22
569.718	4.21
570.058	4.23
570.398	4.23
570.739	4.22
571.079	4.21
571.419	4.22
571.759	4.21
572.099	4.22
572.439	4.21
572.779	4.2
573.119	4.2
573.459	4.22
573.799	4.23
574.139	4.19
574.479	4.21
574.819	4.25
575.158	4.26
575.498	4.26
575.838	4.23
576.177	4.23
576.517	4.21
576.856	4.22
577.196	4.19
577.535	4.16
577.875	4.2
578.214	4.23
578.553	4.23
578.893	4.24
579.232	4.24
579.571	4.25
579.91	4.27
580.25	4.28
580.589	4.27
580.928	4.27
581.267	4.29
581.606	4.25
581.945	4.21
582.283	4.21
582.622	4.21
582.961	4.23
583.3	4.21
583.639	4.23
583.977	4.22
584.316	4.28
584.654	4.28
584.993	4.29
585.332	4.26
585.67	4.25
586.008	4.27
586.347	4.28
586.685	4.29
587.024	4.29
587.362	4.32
587.7	4.32
588.038	4.34
588.376	4.36
588.715	4.39
589.053	4.37
589.391	4.36
589.729	4.38
590.067	4.36
590.404	4.37
590.742	4.36
591.08	4.4
591.418	4.39
591.756	4.43
592.093	4.4
592.431	4.42
592.769	4.41
593.106	4.41
593.444	4.42
593.781	4.45
594.119	4.43
594.456	4.44
594.793	4.45
595.131	4.44
595.468	4.45
595.805	4.46
596.143	4.51
596.48	4.53
596.817	4.52
597.154	4.56
597.491	4.57
597.828	4.58
598.165	4.53
598.502	4.51
598.839	4.49
599.176	4.49
599.512	4.48
599.849	4.51
600.186	4.51
600.523	4.46
600.859	4.46
601.196	4.47
601.532	4.46
601.869	4.46
602.205	4.47
602.542	4.45
602.878	4.45
603.215	4.41
603.551	4.41
603.887	4.43
604.223	4.41
604.56	4.41
604.896	4.41
605.232	4.44
605.568	4.47
605.904	4.48
606.24	4.48
606.576	4.48
606.912	4.44
607.248	4.46
607.583	4.51
607.919	4.51
608.255	4.53
608.591	4.53
608.926	4.51
609.262	4.49
609.597	4.52
609.933	4.53
610.268	4.57
610.604	4.5
610.939	4.5
611.275	4.49
611.61	4.5
611.945	4.46
612.281	4.45
612.616	4.46
612.951	4.43
613.286	4.4
613.621	4.42
613.956	4.46
614.291	4.43
614.626	4.42
614.961	4.44
615.296	4.46
615.631	4.44
615.966	4.5
616.3	4.56
616.635	4.54
616.97	4.5
617.304	4.46
617.639	4.5
617.973	4.48
618.308	4.52
618.642	4.51
618.977	4.52
619.311	4.49
619.646	4.49
619.98	4.53
620.314	4.55
620.648	4.58
620.983	4.6
621.317	4.64
621.651	4.66
621.985	4.65
622.319	4.6
622.653	4.61
622.987	4.61
623.321	4.55
623.655	4.55
623.988	4.6
624.322	4.63
624.656	4.65
624.99	4.68
625.323	4.7
625.657	4.72
625.99	4.72
626.324	4.75
626.657	4.77
626.991	4.76
627.324	4.75
627.658	4.76
627.991	4.76
628.324	4.75
628.657	4.69
628.991	4.64
629.324	4.69
629.657	4.68
629.99	4.7
630.323	4.73
630.656	4.71
630.989	4.65
631.322	4.61
631.655	4.63
631.987	4.62
632.32	4.58
632.653	4.57
632.986	4.57
633.318	4.58
633.651	4.51
633.984	4.54
634.316	4.55
634.649	4.53
634.981	4.51
635.313	4.51
635.646	4.57
635.978	4.6
636.31	4.56
636.643	4.52
636.975	4.5
637.307	4.56
637.639	4.56
637.971	4.57
638.303	4.58
638.635	4.58
638.967	4.59
639.299	4.57
639.631	4.57
639.963	4.62
640.295	4.59
640.626	4.63
640.958	4.6
641.29	4.64
641.621	4.57
641.953	4.57
642.285	4.5
642.616	4.53
642.948	4.52
643.279	4.52
643.61	4.61
643.942	4.64
644.273	4.55
644.604	4.6
644.936	4.66
645.267	4.64
645.598	4.61
645.929	4.6
646.26	4.58
646.591	4.6
646.922	4.6
647.253	4.64
647.584	4.65
647.915	4.67
648.245	4.6
648.576	4.67
648.907	4.69
649.238	4.76
649.568	4.74
649.899	4.78
650.229	4.79
650.56	4.79
650.89	4.74
651.221	4.75
651.551	4.75
651.882	4.75
652.212	4.76
652.542	4.77
652.872	4.78
653.203	4.86
653.533	4.85
653.863	4.86
654.193	4.8
654.523	4.72
654.853	4.74
655.183	4.75
655.513	4.78
655.843	4.73
656.172	4.75
656.502	4.72
656.832	4.7
657.162	4.68
657.491	4.62
657.821	4.6
658.15	4.6
658.48	4.6
658.809	4.56
659.139	4.62
659.468	4.69
659.798	4.74
660.127	4.72
660.456	4.69
660.785	4.67
661.115	4.7
661.444	4.75
661.773	4.74
662.102	4.79
662.431	4.73
662.76	4.71
663.089	4.72
663.418	4.74
663.747	4.7
664.076	4.7
664.404	4.79
664.733	4.79
665.062	4.79
665.39	4.72
665.719	4.68
666.048	4.61
666.376	4.58
666.705	4.5
667.033	4.52
667.362	4.52
667.69	4.49
668.018	4.48
668.347	4.45
668.675	4.49
669.003	4.41
669.331	4.46
669.659	4.54
669.987	4.44
670.315	4.44
670.643	4.54
670.971	4.56
671.299	4.51
671.627	4.57
671.955	4.6
672.283	4.64
672.61	4.71
672.938	4.73
673.266	4.66
673.593	4.66
673.921	4.66
674.249	4.69
674.576	4.7
674.904	4.71
675.231	4.8
675.558	4.77
675.886	4.85
676.213	4.78
676.54	4.81
676.867	4.91
677.195	4.89
677.522	4.87
677.849	4.88
678.176	4.88
678.503	4.85
678.83	4.83
679.157	4.82
679.484	4.84
679.81	4.9
680.137	4.98
680.464	5.04
680.791	5.02
681.117	5.04
681.444	5.12
681.771	5.06
682.097	5.08
682.424	5.07
682.75	5.02
683.077	5.04
683.403	5.03
683.729	5.07
684.056	5.07
684.382	5.07
684.708	5.01
685.034	4.98
685.36	4.95
685.686	4.99
686.012	5.1
686.339	5.07
686.664	5
686.99	4.93
687.316	4.86
687.642	4.9
687.968	4.94
688.294	4.96
688.619	5.08
688.945	5.06
689.271	4.98
689.596	5.04
689.922	5.01
690.247	5.05
690.573	4.95
690.898	5.07
691.224	5.15
691.549	5.27
691.874	5.37
692.2	5.39
692.525	5.4
692.85	5.29
693.175	5.26
693.5	5.31
693.825	5.37
694.15	5.35
694.475	5.38
694.8	5.35
695.125	5.26
695.45	5.25
695.775	5.26
696.099	5.37
696.424	5.35
696.749	5.49
697.073	5.42
697.398	5.43
697.723	5.36
698.047	5.4
698.372	5.3
698.696	5.24
699.02	5.28
699.345	5.3
699.669	5.34
699.993	5.37
700.318	5.4
700.642	5.41
700.966	5.45
701.29	5.55
701.614	5.52
701.938	5.56
702.262	5.52
702.586	5.56
702.91	5.56
703.234	5.52
703.557	5.46
703.881	5.52
704.205	5.55
704.529	5.7
704.852	5.59
705.176	5.68
705.499	5.59
705.823	5.62
706.146	5.55
706.47	5.62
706.793	5.7
707.117	5.73
707.44	5.65
707.763	5.69
708.086	5.54
708.409	5.54
708.733	5.48
709.056	5.57
709.379	5.52
709.702	5.57
710.025	5.74
710.348	5.73
710.671	5.67
710.993	5.76
711.316	5.61
711.639	5.56
711.962	5.57
712.284	5.76
712.607	5.66
712.93	5.68
713.252	5.61
713.575	5.61
713.897	5.5
714.22	5.52
714.542	5.41
714.864	5.48
715.187	5.53
715.509	5.68
715.831	5.66
716.153	5.71
716.475	5.69
716.798	5.53
717.12	5.58
717.442	5.57
717.764	5.45
718.085	5.53
718.407	5.61
718.729	5.64
719.051	5.67
719.373	5.84
719.695	5.81
720.016	5.71
720.338	5.66
720.659	5.85
720.981	5.89
721.302	6.02
721.624	5.91
721.945	5.91
722.267	5.78
722.588	5.74
722.909	5.73
723.231	5.6
723.552	5.59
723.873	5.5
724.194	5.57
724.515	5.63
724.836	5.6
725.157	5.72
725.478	5.68
725.799	5.61
726.12	5.56
726.441	5.64
726.762	5.8
727.083	5.91
727.403	5.76
727.724	5.9
728.045	5.94
728.365	5.94
728.686	6.01
729.006	6
729.327	5.98
729.647	6.11
729.967	6.09
730.288	6.31
730.608	6.4
730.928	6.38
731.249	6.53
731.569	6.51
731.889	6.29
732.209	6.39
732.529	6.45
732.849	6.5
733.169	6.45
733.489	6.39
733.809	6.2
734.129	6.16
734.448	6.04
734.768	6.1
735.088	6.29
735.408	6.24
735.727	6.28
736.047	6.23
736.366	6.03
736.686	6.07
737.005	6
737.325	5.87
737.644	5.77
737.963	5.53
738.283	5.63
738.602	5.67
738.921	5.64
739.24	5.57
739.56	5.58
739.879	5.66
740.198	5.7
740.517	5.91
740.836	6.11
741.155	6.11
741.473	6.13
741.792	5.92
742.111	5.89
742.43	5.81
742.748	6.14
743.067	6.1
743.386	6.1
743.704	6
744.023	6.05
744.341	6.28
744.66	6.2
744.978	6.13
745.297	6.32
745.615	6.37
745.933	6.3
746.252	6.3
746.57	6.19
746.888	6.16
747.206	6
747.524	5.89
747.842	5.86
748.16	5.84
748.478	6.01
748.796	6.01
749.114	6.3
749.432	6.12
749.749	5.95
750.067	6.11
750.385	6.19
750.703	6.26
751.02	6.33
751.338	6.38
751.655	6.29
751.973	6.31
752.29	6.07
752.608	5.91
752.925	6.02
753.242	6.08
753.56	6.07
753.877	6.01
754.194	6.09
754.511	6.26
754.828	6.08
755.145	6.21
755.462	6.16
755.779	5.9
756.096	6.03
756.413	6.52
756.73	6.6
757.047	6.53
757.364	6.55
757.68	6.48
757.997	6.77
758.314	6.95
758.63	6.96
758.947	7.16
759.264	7.33
759.58	7.12
759.896	7.22
760.213	7.37
760.529	7.56
760.846	7.5
761.162	7.37
761.478	7.68
761.794	7.51
762.11	7.53
762.426	7.69
762.743	7.66
763.059	7.6
763.375	7.44
763.69	7.53
764.006	7.57
764.322	7.7
764.638	7.73
764.954	7.67
765.27	7.62
765.585	7.56
765.901	7.53
766.216	7.46
766.532	7.29
766.848	7.15
767.163	7.18
767.478	7.08
767.794	7.05
768.109	6.77
768.424	6.83
768.74	6.79
769.055	6.82
769.37	6.73
769.685	6.74
770	6.64
770.315	6.59
770.63	6.56
770.945	6.35
771.26	6.42
771.575	6.51
771.89	6.38
772.205	6.46
772.52	6.61
772.834	6.9
773.149	7.14
773.464	7.25
773.778	6.86
774.093	7.29
774.407	7.39
774.722	7.31
775.036	7.27
775.351	7.32
775.665	7
775.979	7.08
776.293	7.19
776.608	7.32
776.922	7.08
777.236	7.2
777.55	6.98
777.864	6.93
778.178	6.8
778.492	7.06
778.806	7.15
779.12	7.25
779.434	7.18
779.747	7.16
780.061	7.36
780.375	7.57
780.689	7.4
781.002	7.52
781.316	7.64
781.629	7.6
781.943	7.56
782.256	7.54
782.57	7.32
782.883	7.13
783.196	7.38
783.51	7.82
783.823	7.76
784.136	7.99
784.449	7.82
784.762	7.89
785.075	7.78
785.388	7.92
785.701	7.82
786.014	7.5
786.327	7.56
786.64	7.14
786.953	7.26
787.266	6.95
787.578	7.04
787.891	6.99
788.204	6.7
788.516	6.93
788.829	7.2
789.141	7.3
789.454	7.4
789.766	7.28
790.079	7.08
790.391	6.83
790.703	6.95
791.016	7.11
791.328	7.44
791.64	7.19
791.952	7.57
792.264	7.22
792.576	7.66
792.888	7.27
793.2	7.79
793.512	7.73
793.824	7.87
794.136	8
794.448	8.18
794.76	8.37
795.071	7.91
795.383	7.54
795.695	7.48
796.006	7.08
796.318	7.16
796.629	7.57
796.941	8.05
797.252	7.85
797.564	7.72
797.875	7.45
798.186	8.05
798.497	6.96
798.809	7.29
799.12	6.84
799.431	7.15
799.742	6.98
800.053	7.05
800.364	7.43
800.675	7.1
800.986	7.28
801.297	7.59
801.608	8.02
801.918	8.01
802.229	7.84
802.54	8.36
802.851	8.3
803.161	7.93
803.472	7.66
803.782	7.5
804.093	7.45
804.403	7.49
804.714	7
805.024	7.47
805.334	7.41
805.645	8.15
805.955	8.32
806.265	8.6
806.575	8.75
806.885	8.16
807.195	8.71
807.505	8.06
807.815	8.13
808.125	7.99
808.435	8.28
808.745	7.94
809.055	7.85
809.365	7.98
809.674	8.33
809.984	8.55
810.294	8.9
810.603	7.85
810.913	7.5
811.222	7.78
811.532	7.63
811.841	8.39
812.151	7.91
812.46	7.86
812.769	7
813.079	7.05
813.388	7.71
813.697	7.16
814.006	7.85
814.315	7.96
814.624	7.92
814.933	8.11
815.242	8.44
815.551	7.85
815.86	7.86
816.169	7.38
816.478	7.61
816.786	7.41
817.095	8.21
817.404	8.95
817.712	8.76
818.021	9.02
818.33	8.93
818.638	8.82
818.947	8.87
819.255	9.09
819.563	8.99
819.872	8.43
820.18	8.17
820.488	8.44
820.796	8.39
821.105	8.67
821.413	8.78
821.721	8.89
822.029	8.86
822.337	8.83
822.645	9.01
822.953	9.11
823.26	9.07
823.568	9.17
823.876	8.87
824.184	8.96
824.491	8.95
824.799	8.75
825.107	8.79
825.414	8.77
825.722	8.83
826.029	8.91
826.337	9.14
826.644	9.4
826.951	9.27
827.259	9.3
827.566	9.24
827.873	9.22
828.18	9.22
828.488	9.17
828.795	9.28
829.102	9.01
829.409	8.39
829.716	8.56
830.023	8.48
830.329	8.86
830.636	8.91
830.943	8.7
831.25	8.94
831.557	8.96
831.863	8.98
832.17	8.75
832.476	8.54
832.783	8.52
833.089	8.26
833.396	8.38
833.702	8.1
834.009	8.37
834.315	8.39
834.621	8.49
834.928	8.96
835.234	8.97
835.54	8.98
835.846	9.59
836.152	9.27
836.458	9.03
836.764	8.97
837.07	8.86
837.376	8.96
837.682	8.97
837.988	8.82
838.293	9.1
838.599	9.03
838.905	9.17
839.211	8.59
839.516	8.77
839.822	8.76
840.127	9.25
840.433	8.43
840.738	8.23
841.044	8.52
841.349	8.68
841.654	8.99
841.959	9.48
842.265	10.57
842.57	10.61
842.875	11.56
843.18	11.27
843.485	11.44
843.79	12.88
844.095	13.03
844.4	12.92
844.705	12.78
845.01	13.62
845.315	13.15
845.619	14.96
845.924	13.76
846.229	13.13
846.533	12.43
846.838	11.74
847.142	11.41
847.447	10.38
847.751	10.38
848.056	9.41
848.36	8.56
848.664	6.65
848.969	8.14
849.273	6.51
849.577	5.01
849.881	4.87
850.185	2.09
850.489	1.59
850.794	2.24
851.097	2.97
851.401	2.52
851.705	2.66
852.009	1.19
852.313	0.49
852.617	0.21
852.92	0.59
853.224	2.49
853.528	2.66
853.831	3.87
854.135	1.38
854.438	0.67
854.742	0.65
855.045	0.55
855.349	-0.26
855.652	0.81
855.955	3.42
856.259	1.42
856.562	3.54
856.865	3.63
857.168	2.65
857.471	1.74
857.774	3.07
858.077	3.21
858.38	4.14
858.683	6.71
858.986	7.59
859.289	7.24
859.592	6.89
859.894	6.9
860.197	6.43
860.5	8.44
860.802	8.72
861.105	10.63
861.407	9.7
861.71	10.14
862.012	10.5
862.315	8.84
862.617	9.73
862.919	9.22
863.222	9.98
863.524	9.38
863.826	5.7
864.128	6.65
864.43	8.07
864.732	7.2
865.034	5.2
865.336	5.06
865.638	4.22
865.94	4.5
866.242	3.92
866.544	5.87
866.846	5.77
867.147	7.19
867.449	6.9
867.751	6.37
868.052	7.6
868.354	7.07
868.655	7.92
868.957	6.78
869.258	3.95
869.56	2.74
869.861	5.46
870.162	9.24
870.463	6.87
870.765	6.46
871.066	6.2
871.367	8.05
871.668	6.9
871.969	8.54
872.27	8.73
872.571	9.61
872.872	8.42
873.173	7.68
873.473	7.35
873.774	7.8
874.075	8.89
874.376	6.71
874.676	6.11
874.977	6.11
875.277	7.86
875.578	12.09
875.878	12.93
876.179	11.1
876.479	10.08
876.78	11.41
877.08	10.28
877.38	11.32
877.68	11.09
877.981	12.55
878.281	12.39
878.581	11.18
