Data from BU26939_Reflection_00008.txt Node
Date: Tue Nov 19 10:56:49 EST 2019
User: vgr7
Spectrometer: USB2G7710
Scans to average: 3
Trigger mode: 4
Integration Time (sec): 2.000000E-2
Electric dark correction enabled: true
Boxcar width: 10
XAxis mode: Wavelengths
Number of Pixels in Spectrum: 2048
>>>>>Begin Spectral Data<<<<<
177.721	56.65
178.105	32.62
178.488	59.5
178.871	125.76
179.254	125.93
179.636	132.34
180.019	750.54
180.402	-11.76
180.785	62.89
181.168	85.14
181.55	1451.85
181.933	-147.47
182.316	136.72
182.698	-276.54
183.081	536.51
183.463	243.68
183.846	243.41
184.228	135.61
184.611	153.79
184.993	64.84
185.376	81.24
185.758	97.47
186.14	52.58
186.522	71.72
186.904	78.97
187.287	94.49
187.669	70.32
188.051	67.26
188.433	61.89
188.815	32.14
189.197	11.2
189.579	0.49
189.961	-1.41
190.342	2.97
190.724	-13.18
191.106	-16.42
191.488	-18.51
191.869	-4.82
192.251	-15.42
192.633	-5.88
193.014	1.54
193.396	-7.47
193.777	-4.87
194.159	7.18
194.54	6.26
194.922	8.18
195.303	-9.01
195.684	-9.69
196.065	-11.77
196.447	-6.72
196.828	1.64
197.209	6.42
197.59	0.67
197.971	12.18
198.352	11.43
198.733	15.46
199.114	14.56
199.495	14.11
199.876	11.54
200.257	20.63
200.638	19.24
201.018	28.84
201.399	37.76
201.78	29.86
202.16	20.22
202.541	17.24
202.922	10.95
203.302	23.32
203.683	37.14
204.063	31.35
204.444	23.74
204.824	32.29
205.204	27.47
205.585	27.46
205.965	20.41
206.345	16.41
206.725	16.75
207.106	18.72
207.486	22.34
207.866	29.51
208.246	20.91
208.626	8.25
209.006	3.47
209.386	12.53
209.766	15.27
210.145	16.09
210.525	10.31
210.905	14.77
211.285	16.59
211.664	16.32
212.044	13
212.424	14.86
212.803	14.23
213.183	14.18
213.562	16.28
213.942	16.9
214.321	12.5
214.701	3.13
215.08	10.99
215.459	21.2
215.838	10.17
216.218	11.02
216.597	22.17
216.976	10.36
217.355	10.54
217.734	14.28
218.113	19.29
218.492	32.78
218.871	35.23
219.25	37.69
219.629	10.32
220.008	28.45
220.387	17.23
220.766	18.79
221.144	25.23
221.523	29.22
221.902	35.34
222.28	45.19
222.659	49.69
223.037	36.66
223.416	27.53
223.794	27.34
224.173	23.98
224.551	15.41
224.929	13.43
225.308	15.63
225.686	11.15
226.064	9.65
226.442	6.75
226.821	4.4
227.199	1.95
227.577	6.52
227.955	8.53
228.333	9.33
228.711	8.2
229.089	7.01
229.467	5.72
229.845	4.18
230.222	2.93
230.6	1.47
230.978	4.88
231.356	5.46
231.733	4.53
232.111	3.08
232.488	4.13
232.866	7.22
233.243	5.48
233.621	5.47
233.998	5.58
234.376	6.16
234.753	6.28
235.13	6.03
235.508	4.15
235.885	3.95
236.262	3.78
236.639	2.69
237.016	1.6
237.393	2.32
237.77	3.4
238.147	3.41
238.524	4.23
238.901	2.73
239.278	1.87
239.655	1.87
240.032	2.62
240.409	2.21
240.785	1.42
241.162	1.32
241.539	1.96
241.915	2.07
242.292	2.4
242.668	3
243.045	3.53
243.421	4.01
243.798	3.95
244.174	4.06
244.551	4.39
244.927	4.51
245.303	4.28
245.679	3.85
246.056	3.93
246.432	3.83
246.808	4.12
247.184	4.21
247.56	4.23
247.936	4.22
248.312	4.54
248.688	4.74
249.064	4.74
249.44	4.73
249.815	4.76
250.191	4.7
250.567	4.36
250.943	4.19
251.318	4.02
251.694	3.72
252.069	3.75
252.445	3.56
252.82	3.64
253.196	3.99
253.571	4.37
253.947	4.24
254.322	4.07
254.697	3.87
255.073	3.94
255.448	4.03
255.823	4.01
256.198	3.76
256.573	3.76
256.948	3.75
257.323	3.46
257.698	3.68
258.073	3.73
258.448	3.75
258.823	3.53
259.198	3.55
259.573	3.63
259.948	3.53
260.322	3.44
260.697	3.54
261.072	3.44
261.446	3.48
261.821	3.44
262.195	3.43
262.57	3.59
262.944	3.64
263.319	3.75
263.693	3.69
264.067	3.71
264.442	3.57
264.816	3.58
265.19	3.76
265.564	3.49
265.938	3.35
266.313	3.36
266.687	3.56
267.061	3.53
267.435	3.67
267.809	3.42
268.183	3.55
268.556	3.3
268.93	3.23
269.304	3.01
269.678	3.19
270.051	3.33
270.425	3.17
270.799	2.82
271.172	2.68
271.546	2.72
271.919	2.74
272.293	2.63
272.666	2.53
273.04	2.5
273.413	2.5
273.787	2.58
274.16	2.54
274.533	2.63
274.906	2.67
275.279	2.56
275.653	2.76
276.026	2.64
276.399	2.69
276.772	2.71
277.145	2.75
277.518	2.54
277.891	2.61
278.263	2.83
278.636	3.3
279.009	3.26
279.382	3.3
279.755	3.21
280.127	3.28
280.5	3.33
280.872	3.28
281.245	3.29
281.617	3.31
281.99	3.2
282.362	3.16
282.735	3.18
283.107	3.13
283.479	3.1
283.852	3.24
284.224	3.27
284.596	3.31
284.968	3.3
285.34	3.29
285.713	3.26
286.085	3.03
286.457	2.83
286.829	2.97
287.201	2.93
287.572	2.96
287.944	3.04
288.316	3.12
288.688	3.2
289.06	3.2
289.431	3.21
289.803	3.45
290.175	3.46
290.546	3.49
290.918	3.54
291.289	3.6
291.661	3.61
292.032	3.63
292.403	3.56
292.775	3.64
293.146	3.74
293.517	3.61
293.889	3.61
294.26	3.78
294.631	3.59
295.002	3.66
295.373	3.66
295.744	3.74
296.115	3.75
296.486	3.73
296.857	3.84
297.228	3.86
297.599	3.77
297.97	3.79
298.34	3.86
298.711	3.99
299.082	4.01
299.452	3.98
299.823	4
300.194	4.23
300.564	4.21
300.935	4.27
301.305	4.29
301.676	4.53
302.046	4.51
302.416	4.77
302.787	4.8
303.157	4.84
303.527	4.88
303.897	4.81
304.267	4.8
304.637	4.84
305.008	4.86
305.378	4.97
305.748	5.04
306.117	4.99
306.487	4.93
306.857	4.91
307.227	4.98
307.597	5.02
307.967	4.87
308.336	4.93
308.706	5.05
309.076	5.28
309.445	5.37
309.815	5.36
310.184	5.34
310.554	5.4
310.923	5.46
311.293	5.45
311.662	5.59
312.031	5.72
312.401	5.73
312.77	5.78
313.139	5.83
313.508	5.75
313.877	5.81
314.246	5.86
314.616	5.93
314.985	5.85
315.353	5.99
315.722	6.21
316.091	6.25
316.46	6.33
316.829	6.37
317.198	6.4
317.567	6.52
317.935	6.57
318.304	6.58
318.672	6.73
319.041	6.78
319.41	6.79
319.778	6.75
320.147	6.9
320.515	6.9
320.883	6.94
321.252	7.11
321.62	7.23
321.988	7.27
322.357	7.4
322.725	7.58
323.093	7.42
323.461	7.31
323.829	7.48
324.197	7.42
324.565	7.36
324.933	7.34
325.301	7.38
325.669	7.42
326.037	7.42
326.405	7.35
326.772	7.35
327.14	7.27
327.508	7.33
327.875	7.2
328.243	7.18
328.61	7.14
328.978	7.14
329.346	7.23
329.713	7.32
330.08	7.35
330.448	7.38
330.815	7.41
331.182	7.34
331.55	7.32
331.917	7.32
332.284	7.48
332.651	7.54
333.018	7.46
333.385	7.43
333.752	7.58
334.119	7.7
334.486	7.76
334.853	7.94
335.22	7.8
335.587	7.96
335.954	8.05
336.32	8.01
336.687	8.03
337.054	7.84
337.42	7.78
337.787	7.89
338.153	7.91
338.52	8.08
338.886	8.22
339.253	8.3
339.619	8.31
339.986	8.31
340.352	8.25
340.718	8.4
341.084	8.51
341.451	8.52
341.817	8.55
342.183	8.61
342.549	8.58
342.915	8.73
343.281	8.65
343.647	8.63
344.013	8.77
344.379	8.78
344.745	8.95
345.11	9.01
345.476	8.95
345.842	8.91
346.208	8.91
346.573	8.89
346.939	8.92
347.304	9
347.67	8.99
348.035	8.95
348.401	8.9
348.766	8.82
349.132	8.75
349.497	8.74
349.862	8.7
350.228	8.71
350.593	8.67
350.958	8.77
351.323	8.94
351.688	8.87
352.053	8.88
352.418	8.86
352.783	8.87
353.148	8.87
353.513	8.83
353.878	8.76
354.243	8.75
354.608	8.75
354.972	8.67
355.337	8.74
355.702	8.8
356.066	8.85
356.431	8.92
356.795	8.88
357.16	8.9
357.524	8.89
357.889	8.93
358.253	8.99
358.618	8.95
358.982	8.79
359.346	8.84
359.71	8.81
360.075	8.8
360.439	8.81
360.803	8.84
361.167	8.87
361.531	8.94
361.895	8.94
362.259	8.92
362.623	8.97
362.987	8.9
363.351	8.84
363.714	8.83
364.078	8.86
364.442	8.9
364.806	8.87
365.169	8.87
365.533	8.83
365.896	8.81
366.26	8.82
366.623	8.82
366.987	8.83
367.35	8.92
367.714	8.9
368.077	8.93
368.44	8.9
368.803	8.82
369.167	8.75
369.53	8.69
369.893	8.65
370.256	8.61
370.619	8.53
370.982	8.55
371.345	8.49
371.708	8.39
372.071	8.4
372.434	8.38
372.797	8.38
373.159	8.3
373.522	8.22
373.885	8.19
374.247	8.17
374.61	8.08
374.973	7.99
375.335	7.97
375.698	7.84
376.06	7.77
376.423	7.74
376.785	7.7
377.147	7.65
377.51	7.6
377.872	7.52
378.234	7.53
378.596	7.47
378.958	7.43
379.321	7.36
379.683	7.29
380.045	7.26
380.407	7.22
380.769	7.17
381.13	7.16
381.492	7.11
381.854	7.08
382.216	7.05
382.578	7.03
382.939	7.03
383.301	6.99
383.663	6.94
384.024	6.91
384.386	6.86
384.747	6.84
385.109	6.77
385.47	6.76
385.832	6.7
386.193	6.63
386.554	6.58
386.916	6.56
387.277	6.51
387.638	6.43
387.999	6.39
388.36	6.38
388.721	6.36
389.082	6.31
389.443	6.29
389.804	6.25
390.165	6.19
390.526	6.11
390.887	6.07
391.248	6.02
391.609	6.03
391.969	6.02
392.33	5.98
392.691	5.96
393.051	5.95
393.412	5.9
393.772	5.91
394.133	5.88
394.493	5.84
394.854	5.78
395.214	5.74
395.574	5.68
395.935	5.61
396.295	5.57
396.655	5.52
397.015	5.49
397.376	5.43
397.736	5.4
398.096	5.35
398.456	5.34
398.816	5.29
399.176	5.19
399.535	5.14
399.895	5.07
400.255	5.06
400.615	5.03
400.975	4.98
401.334	4.93
401.694	4.92
402.054	4.92
402.413	4.91
402.773	4.88
403.132	4.88
403.492	4.89
403.851	4.82
404.211	4.8
404.57	4.74
404.929	4.74
405.288	4.7
405.648	4.7
406.007	4.68
406.366	4.68
406.725	4.69
407.084	4.71
407.443	4.72
407.802	4.68
408.161	4.64
408.52	4.64
408.879	4.67
409.238	4.63
409.596	4.63
409.955	4.62
410.314	4.64
410.673	4.6
411.031	4.58
411.39	4.62
411.748	4.61
412.107	4.61
412.465	4.57
412.824	4.54
413.182	4.52
413.54	4.51
413.899	4.48
414.257	4.47
414.615	4.4
414.974	4.38
415.332	4.35
415.69	4.33
416.048	4.32
416.406	4.24
416.764	4.23
417.122	4.19
417.48	4.2
417.838	4.17
418.195	4.14
418.553	4.12
418.911	4.09
419.269	4.1
419.626	4.08
419.984	4.07
420.342	4.07
420.699	4.05
421.057	4.02
421.414	4.01
421.772	3.99
422.129	3.98
422.486	3.98
422.844	3.97
423.201	3.95
423.558	3.94
423.915	3.95
424.273	3.94
424.63	3.93
424.987	3.92
425.344	3.91
425.701	3.92
426.058	3.91
426.415	3.91
426.772	3.87
427.128	3.9
427.485	3.9
427.842	3.88
428.199	3.86
428.555	3.86
428.912	3.84
429.269	3.84
429.625	3.84
429.982	3.83
430.338	3.85
430.695	3.87
431.051	3.86
431.407	3.85
431.764	3.83
432.12	3.83
432.476	3.83
432.832	3.81
433.189	3.8
433.545	3.81
433.901	3.81
434.257	3.82
434.613	3.79
434.969	3.79
435.325	3.8
435.681	3.81
436.036	3.81
436.392	3.83
436.748	3.82
437.104	3.82
437.459	3.81
437.815	3.81
438.171	3.8
438.526	3.81
438.882	3.81
439.237	3.81
439.593	3.79
439.948	3.79
440.304	3.79
440.659	3.79
441.014	3.78
441.369	3.78
441.725	3.77
442.08	3.76
442.435	3.76
442.79	3.75
443.145	3.74
443.5	3.72
443.855	3.7
444.21	3.7
444.565	3.69
444.92	3.69
445.275	3.67
445.629	3.66
445.984	3.66
446.339	3.64
446.693	3.64
447.048	3.64
447.403	3.61
447.757	3.6
448.112	3.59
448.466	3.59
448.82	3.57
449.175	3.56
449.529	3.56
449.883	3.54
450.238	3.54
450.592	3.54
450.946	3.54
451.3	3.54
451.654	3.53
452.008	3.53
452.362	3.52
452.716	3.52
453.07	3.5
453.424	3.48
453.778	3.47
454.132	3.47
454.486	3.48
454.839	3.47
455.193	3.48
455.547	3.48
455.9	3.48
456.254	3.48
456.607	3.48
456.961	3.49
457.314	3.48
457.668	3.48
458.021	3.49
458.375	3.48
458.728	3.48
459.081	3.48
459.434	3.48
459.787	3.47
460.141	3.5
460.494	3.51
460.847	3.53
461.2	3.53
461.553	3.54
461.906	3.56
462.259	3.54
462.611	3.56
462.964	3.58
463.317	3.59
463.67	3.59
464.022	3.6
464.375	3.59
464.728	3.61
465.08	3.61
465.433	3.61
465.785	3.64
466.138	3.66
466.49	3.68
466.843	3.7
467.195	3.73
467.547	3.72
467.899	3.74
468.252	3.75
468.604	3.78
468.956	3.8
469.308	3.8
469.66	3.83
470.012	3.84
470.364	3.84
470.716	3.84
471.068	3.85
471.42	3.86
471.772	3.88
472.123	3.91
472.475	3.95
472.827	3.97
473.178	3.98
473.53	3.99
473.882	3.99
474.233	4
474.585	3.99
474.936	4.02
475.288	4.01
475.639	4.01
475.99	4
476.342	4
476.693	4.01
477.044	4.02
477.395	4.01
477.746	4.02
478.097	4.02
478.448	4.01
478.8	4.01
479.15	3.99
479.501	3.97
479.852	3.93
480.203	3.94
480.554	3.94
480.905	3.94
481.255	3.93
481.606	3.93
481.957	3.93
482.307	3.91
482.658	3.9
483.009	3.9
483.359	3.9
483.709	3.9
484.06	3.9
484.41	3.89
484.761	3.89
485.111	3.88
485.461	3.88
485.811	3.87
486.162	3.86
486.512	3.87
486.862	3.88
487.212	3.88
487.562	3.85
487.912	3.85
488.262	3.84
488.612	3.83
488.961	3.82
489.311	3.81
489.661	3.82
490.011	3.82
490.36	3.8
490.71	3.8
491.06	3.8
491.409	3.8
491.759	3.82
492.108	3.82
492.458	3.84
492.807	3.85
493.157	3.89
493.506	3.9
493.855	3.91
494.204	3.92
494.554	3.94
494.903	3.98
495.252	4.02
495.601	4.06
495.95	4.1
496.299	4.15
496.648	4.2
496.997	4.26
497.346	4.32
497.695	4.38
498.043	4.44
498.392	4.48
498.741	4.53
499.09	4.58
499.438	4.65
499.787	4.71
500.135	4.76
500.484	4.84
500.832	4.91
501.181	4.98
501.529	5.06
501.878	5.16
502.226	5.25
502.574	5.33
502.923	5.39
503.271	5.49
503.619	5.58
503.967	5.69
504.315	5.78
504.663	5.9
505.011	6.04
505.359	6.16
505.707	6.27
506.055	6.39
506.403	6.51
506.751	6.61
507.098	6.75
507.446	6.89
507.794	7
508.141	7.16
508.489	7.3
508.837	7.43
509.184	7.57
509.531	7.74
509.879	7.88
510.226	8.05
510.574	8.2
510.921	8.37
511.268	8.52
511.616	8.68
511.963	8.86
512.31	9.02
512.657	9.2
513.004	9.38
513.351	9.61
513.698	9.83
514.045	10.08
514.392	10.31
514.739	10.53
515.086	10.77
515.432	10.98
515.779	11.2
516.126	11.44
516.473	11.66
516.819	11.85
517.166	12.09
517.512	12.29
517.859	12.49
518.205	12.66
518.552	12.87
518.898	13.05
519.245	13.23
519.591	13.43
519.937	13.64
520.283	13.86
520.629	14.06
520.976	14.26
521.322	14.45
521.668	14.66
522.014	14.89
522.36	15.11
522.706	15.35
523.052	15.64
523.398	15.96
523.743	16.26
524.089	16.55
524.435	16.81
524.781	17.06
525.126	17.31
525.472	17.55
525.817	17.75
526.163	17.94
526.509	18.1
526.854	18.26
527.199	18.41
527.545	18.55
527.89	18.68
528.235	18.85
528.581	19.01
528.926	19.18
529.271	19.34
529.616	19.5
529.961	19.66
530.306	19.81
530.651	19.94
530.996	20.1
531.341	20.24
531.686	20.41
532.031	20.59
532.376	20.76
532.721	20.92
533.065	21.1
533.41	21.29
533.755	21.5
534.099	21.71
534.444	21.92
534.788	22.12
535.133	22.31
535.477	22.49
535.822	22.68
536.166	22.89
536.51	23.1
536.855	23.34
537.199	23.58
537.543	23.85
537.887	24.1
538.231	24.33
538.576	24.61
538.92	24.87
539.264	25.12
539.608	25.35
539.951	25.57
540.295	25.78
540.639	25.99
540.983	26.19
541.327	26.38
541.671	26.55
542.014	26.75
542.358	26.96
542.701	27.12
543.045	27.32
543.389	27.48
543.732	27.67
544.075	27.85
544.419	28
544.762	28.17
545.105	28.38
545.449	28.58
545.792	28.81
546.135	28.99
546.478	29.17
546.821	29.4
547.165	29.63
547.508	29.83
547.851	30.05
548.194	30.26
548.536	30.49
548.879	30.7
549.222	30.87
549.565	31.1
549.908	31.33
550.25	31.54
550.593	31.78
550.936	32.01
551.278	32.24
551.621	32.49
551.963	32.72
552.306	32.93
552.648	33.14
552.991	33.27
553.333	33.53
553.675	33.79
554.017	33.99
554.36	34.15
554.702	34.35
555.044	34.56
555.386	34.75
555.728	34.88
556.07	35.11
556.412	35.35
556.754	35.5
557.096	35.7
557.438	35.85
557.78	36.05
558.121	36.22
558.463	36.41
558.805	36.6
559.147	36.74
559.488	36.91
559.83	37.07
560.171	37.28
560.513	37.42
560.854	37.55
561.196	37.72
561.537	37.89
561.878	38.03
562.22	38.16
562.561	38.31
562.902	38.51
563.243	38.61
563.584	38.74
563.925	38.91
564.266	39.06
564.607	39.22
564.948	39.37
565.289	39.53
565.63	39.67
565.971	39.82
566.312	39.94
566.653	40.09
566.993	40.25
567.334	40.3
567.675	40.44
568.015	40.54
568.356	40.65
568.696	40.79
569.037	40.93
569.377	41.02
569.718	41.15
570.058	41.27
570.398	41.4
570.739	41.54
571.079	41.67
571.419	41.84
571.759	41.97
572.099	42.03
572.439	42.13
572.779	42.19
573.119	42.3
573.459	42.38
573.799	42.42
574.139	42.53
574.479	42.67
574.819	42.78
575.158	42.86
575.498	42.94
575.838	43.05
576.177	43.12
576.517	43.25
576.856	43.36
577.196	43.45
577.535	43.54
577.875	43.66
578.214	43.72
578.553	43.79
578.893	43.85
579.232	43.95
579.571	44.05
579.91	44.18
580.25	44.28
580.589	44.39
580.928	44.54
581.267	44.62
581.606	44.68
581.945	44.78
582.283	44.86
582.622	44.95
582.961	45
583.3	45.15
583.639	45.22
583.977	45.25
584.316	45.36
584.654	45.42
584.993	45.47
585.332	45.58
585.67	45.56
586.008	45.64
586.347	45.74
586.685	45.8
587.024	45.83
587.362	45.87
587.7	45.94
588.038	46
588.376	46.05
588.715	46.15
589.053	46.18
589.391	46.28
589.729	46.3
590.067	46.38
590.404	46.37
590.742	46.44
591.08	46.48
591.418	46.52
591.756	46.59
592.093	46.66
592.431	46.69
592.769	46.79
593.106	46.86
593.444	46.94
593.781	46.95
594.119	47.05
594.456	47.05
594.793	47.09
595.131	47.08
595.468	47.15
595.805	47.21
596.143	47.26
596.48	47.28
596.817	47.36
597.154	47.29
597.491	47.36
597.828	47.39
598.165	47.46
598.502	47.43
598.839	47.5
599.176	47.56
599.512	47.55
599.849	47.61
600.186	47.63
600.523	47.65
600.859	47.7
601.196	47.68
601.532	47.72
601.869	47.81
602.205	47.83
602.542	47.83
602.878	47.86
603.215	47.88
603.551	47.93
603.887	48
604.223	48.12
604.56	48.2
604.896	48.27
605.232	48.32
605.568	48.42
605.904	48.43
606.24	48.39
606.576	48.48
606.912	48.51
607.248	48.54
607.583	48.54
607.919	48.56
608.255	48.6
608.591	48.69
608.926	48.7
609.262	48.79
609.597	48.85
609.933	48.89
610.268	48.89
610.604	48.9
610.939	48.89
611.275	48.9
611.61	48.96
611.945	48.89
612.281	48.87
612.616	48.9
612.951	48.91
613.286	48.96
613.621	48.93
613.956	48.96
614.291	49.01
614.626	49.03
614.961	49.09
615.296	49.08
615.631	49.13
615.966	49.13
616.3	49.18
616.635	49.12
616.97	49.1
617.304	49.18
617.639	49.23
617.973	49.31
618.308	49.32
618.642	49.21
618.977	49.34
619.311	49.39
619.646	49.39
619.98	49.44
620.314	49.51
620.648	49.52
620.983	49.49
621.317	49.5
621.651	49.61
621.985	49.61
622.319	49.73
622.653	49.75
622.987	49.88
623.321	49.89
623.655	49.92
623.988	50.03
624.322	50.04
624.656	50.09
624.99	50.04
625.323	50.08
625.657	50.08
625.99	50.1
626.324	50.19
626.657	50.24
626.991	50.27
627.324	50.21
627.658	50.26
627.991	50.37
628.324	50.44
628.657	50.41
628.991	50.55
629.324	50.58
629.657	50.59
629.99	50.57
630.323	50.54
630.656	50.66
630.989	50.71
631.322	50.74
631.655	50.78
631.987	50.83
632.32	50.83
632.653	50.91
632.986	50.89
633.318	50.87
633.651	50.88
633.984	50.89
634.316	51.08
634.649	51.09
634.981	51.03
635.313	51.04
635.646	51.07
635.978	51.01
636.31	50.97
636.643	51
636.975	50.98
637.307	51.02
637.639	50.92
637.971	50.92
638.303	50.97
638.635	50.91
638.967	50.91
639.299	50.94
639.631	50.93
639.963	50.94
640.295	51
640.626	51
640.958	51.03
641.29	50.95
641.621	50.98
641.953	51.04
642.285	51.05
642.616	51.09
642.948	51.09
643.279	51.1
643.61	51.15
643.942	51.08
644.273	51.12
644.604	51.24
644.936	51.08
645.267	51.08
645.598	51.11
645.929	51.2
646.26	51.13
646.591	51.06
646.922	51.12
647.253	51.06
647.584	51.11
647.915	51.05
648.245	51.06
648.576	51.01
648.907	51.13
649.238	51.09
649.568	51.12
649.899	51.14
650.229	51.17
650.56	51.11
650.89	51.17
651.221	51.19
651.551	51.22
651.882	51.35
652.212	51.29
652.542	51.33
652.872	51.31
653.203	51.46
653.533	51.5
653.863	51.44
654.193	51.49
654.523	51.54
654.853	51.51
655.183	51.53
655.513	51.59
655.843	51.55
656.172	51.69
656.502	51.6
656.832	51.58
657.162	51.68
657.491	51.77
657.821	51.83
658.15	51.9
658.48	51.92
658.809	51.89
659.139	51.95
659.468	51.96
659.798	51.92
660.127	51.9
660.456	52
660.785	52.11
661.115	52.14
661.444	52.08
661.773	52.17
662.102	52.14
662.431	52.18
662.76	52.04
663.089	52.04
663.418	52.14
663.747	52.17
664.076	52.18
664.404	52.09
664.733	52.17
665.062	52.13
665.39	52.02
665.719	52.05
666.048	51.91
666.376	51.91
666.705	52.01
667.033	51.99
667.362	52.01
667.69	52.04
668.018	51.96
668.347	52.03
668.675	51.97
669.003	52.12
669.331	52.08
669.659	52.13
669.987	52.11
670.315	52.23
670.643	52.29
670.971	52.2
671.299	52.27
671.627	52.12
671.955	52.13
672.283	52.14
672.61	52.14
672.938	52.37
673.266	52.32
673.593	52.2
673.921	52.27
674.249	52.21
674.576	52.11
674.904	52.24
675.231	52.32
675.558	52.37
675.886	52.36
676.213	52.42
676.54	52.58
676.867	52.69
677.195	52.47
677.522	52.5
677.849	52.54
678.176	52.57
678.503	52.66
678.83	52.66
679.157	52.61
679.484	52.66
679.81	52.62
680.137	52.8
680.464	52.88
680.791	52.81
681.117	52.83
681.444	52.88
681.771	52.95
682.097	52.89
682.424	52.92
682.75	52.85
683.077	52.85
683.403	52.83
683.729	52.85
684.056	52.95
684.382	52.88
684.708	52.96
685.034	52.91
685.36	52.94
685.686	53.01
686.012	53.07
686.339	52.91
686.664	52.96
686.99	52.8
687.316	52.82
687.642	52.95
687.968	53.01
688.294	52.97
688.619	52.97
688.945	52.88
689.271	52.91
689.596	52.95
689.922	53.03
690.247	52.94
690.573	52.71
690.898	52.77
691.224	52.84
691.549	52.7
691.874	52.6
692.2	52.55
692.525	52.57
692.85	52.86
693.175	52.98
693.5	52.82
693.825	52.87
694.15	52.9
694.475	52.74
694.8	52.86
695.125	53.06
695.45	52.85
695.775	52.98
696.099	52.97
696.424	53.06
696.749	53.15
697.073	53.25
697.398	53.25
697.723	53.23
698.047	53.24
698.372	53.31
698.696	53.41
699.02	53.37
699.345	53.38
699.669	53.28
699.993	53.41
700.318	53.42
700.642	53.44
700.966	53.51
701.29	53.61
701.614	53.44
701.938	53.38
702.262	53.4
702.586	53.31
702.91	53.23
703.234	53.09
703.557	52.82
703.881	52.7
704.205	52.84
704.529	52.7
704.852	52.54
705.176	52.67
705.499	52.6
705.823	52.72
706.146	52.71
706.47	52.64
706.793	52.53
707.117	52.75
707.44	52.75
707.763	52.75
708.086	52.85
708.409	52.89
708.733	52.79
709.056	52.85
709.379	52.88
709.702	53.03
710.025	53.19
710.348	53.47
710.671	53.57
710.993	53.49
711.316	53.78
711.639	54.02
711.962	54.1
712.284	54.04
712.607	53.88
712.93	53.98
713.252	54.02
713.575	54.13
713.897	54.11
714.22	54.11
714.542	54.05
714.864	53.92
715.187	53.89
715.509	54.08
715.831	54.13
716.153	54.2
716.475	54.08
716.798	54.14
717.12	53.9
717.442	53.81
717.764	53.86
718.085	53.78
718.407	53.82
718.729	53.64
719.051	53.98
719.373	54.08
719.695	53.83
720.016	53.8
720.338	53.78
720.659	53.71
720.981	53.76
721.302	53.64
721.624	53.83
721.945	53.88
722.267	53.78
722.588	53.67
722.909	53.77
723.231	53.95
723.552	53.76
723.873	53.75
724.194	53.8
724.515	53.72
724.836	53.81
725.157	53.74
725.478	53.77
725.799	53.7
726.12	53.75
726.441	53.71
726.762	53.69
727.083	53.76
727.403	53.97
727.724	53.86
728.045	53.87
728.365	53.8
728.686	53.73
729.006	53.83
729.327	53.91
729.647	53.69
729.967	53.49
730.288	53.72
730.608	54
730.928	53.98
731.249	54.13
731.569	54.01
731.889	53.85
732.209	53.85
732.529	53.8
732.849	53.81
733.169	53.86
733.489	53.65
733.809	53.46
734.129	53.23
734.448	53.28
734.768	53.3
735.088	53.09
735.408	53.29
735.727	53.2
736.047	53.23
736.366	53.5
736.686	53.64
737.005	53.46
737.325	53.22
737.644	53.39
737.963	53.35
738.283	53.31
738.602	53.46
738.921	53.29
739.24	53.41
739.56	53.56
739.879	53.72
740.198	53.85
740.517	53.66
740.836	53.7
741.155	53.67
741.473	53.8
741.792	54.01
742.111	54.27
742.43	54.27
742.748	54.28
743.067	54.32
743.386	54.24
743.704	54.28
744.023	54.31
744.341	54.06
744.66	54.16
744.978	54.22
745.297	54.09
745.615	54.34
745.933	54.02
746.252	53.79
746.57	53.82
746.888	53.84
747.206	54.27
747.524	54.52
747.842	54.67
748.16	54.67
748.478	54.71
748.796	54.19
749.114	53.87
749.432	53.98
749.749	53.74
750.067	53.9
750.385	53.81
750.703	53.51
751.02	53.56
751.338	53.24
751.655	53.22
751.973	53.27
752.29	53.32
752.608	53.34
752.925	53.38
753.242	53.41
753.56	53.33
753.877	53.5
754.194	53.26
754.511	53.23
754.828	53.4
755.145	53.38
755.462	53.62
755.779	53.93
756.096	53.83
756.413	54.22
756.73	54.08
757.047	53.88
757.364	54.18
757.68	54.18
757.997	54.69
758.314	54.61
758.63	54.45
758.947	54.3
759.264	54.68
759.58	54.82
759.896	54.53
760.213	54.86
760.529	54.53
760.846	54.88
761.162	54.84
761.478	54.8
761.794	54.8
762.11	54.6
762.426	54.71
762.743	54.86
763.059	54.65
763.375	54.68
763.69	54.92
764.006	54.9
764.322	54.93
764.638	54.72
764.954	54.83
765.27	55.24
765.585	55.24
765.901	54.9
766.216	54.9
766.532	55.03
766.848	54.99
767.163	54.93
767.478	54.83
767.794	54.9
768.109	54.91
768.424	55.1
768.74	55.35
769.055	55.21
769.37	55.02
769.685	54.81
770	55.01
770.315	54.87
770.63	55.28
770.945	55.51
771.26	55.66
771.575	55.3
771.89	54.98
772.205	55.37
772.52	55.64
772.834	55.65
773.149	55.4
773.464	55.59
773.778	55.7
774.093	55.64
774.407	55.73
774.722	55.75
775.036	55.77
775.351	55.8
775.665	55.84
775.979	55.78
776.293	55.79
776.608	56.06
776.922	56.05
777.236	55.72
777.55	55.31
777.864	55.34
778.178	55.57
778.492	55.64
778.806	55.57
779.12	55.36
779.434	55.45
779.747	55.85
780.061	55.53
780.375	56.01
780.689	56.03
781.002	55.65
781.316	55.48
781.629	55.42
781.943	55.15
782.256	54.79
782.57	55.36
782.883	55.99
783.196	55.47
783.51	55.53
783.823	55.7
784.136	56.16
784.449	56.04
784.762	55.93
785.075	56.47
785.388	56.29
785.701	56.68
786.014	56.63
786.327	56.9
786.64	57.28
786.953	57.38
787.266	57.2
787.578	57.34
787.891	57.21
788.204	57
788.516	56.83
788.829	57.55
789.141	56.97
789.454	56.97
789.766	57.49
790.079	57.66
790.391	57.52
790.703	57.16
791.016	57.44
791.328	57.29
791.64	56.66
791.952	56.3
792.264	55.8
792.576	55.73
792.888	55.58
793.2	55.25
793.512	55.01
793.824	55.1
794.136	55.29
794.448	56.12
794.76	56.2
795.071	56.63
795.383	56.15
795.695	56.41
796.006	56.1
796.318	55.94
796.629	55.68
796.941	55.18
797.252	55.53
797.564	55.52
797.875	56.29
798.186	56.2
798.497	56.43
798.809	56.89
799.12	56.97
799.431	56.31
799.742	56.05
800.053	56.08
800.364	56.34
800.675	56.44
800.986	55.69
801.297	55.56
801.608	55.55
801.918	56.22
802.229	56.42
802.54	56.14
802.851	55.99
803.161	56.41
803.472	56.86
803.782	56.64
804.093	56.18
804.403	55.47
804.714	56.16
805.024	55.74
805.334	55.35
805.645	55.27
805.955	56.06
806.265	56.36
806.575	56.28
806.885	55.76
807.195	55.66
807.505	55.32
807.815	55.29
808.125	55.11
808.435	54.69
808.745	55.02
809.055	55.34
809.365	54.93
809.674	54.34
809.984	54.89
810.294	54.93
810.603	55.23
810.913	55.84
811.222	54.72
811.532	55.32
811.841	55.74
812.151	55.77
812.46	55.99
812.769	55.5
813.079	55.55
813.388	55.48
813.697	54.98
814.006	55.36
814.315	56.26
814.624	56.69
814.933	56.72
815.242	55.86
815.551	56.16
815.86	56.55
816.169	56.49
816.478	56.35
816.786	56.28
817.095	55.43
817.404	55.22
817.712	55.85
818.021	55.14
818.33	54.47
818.638	54.15
818.947	53.47
819.255	53.79
819.563	53.58
819.872	54.31
820.18	54.87
820.488	55
820.796	55.26
821.105	55.32
821.413	55.31
821.721	55.16
822.029	54.9
822.337	55
822.645	55.27
822.953	55.18
823.26	55.34
823.568	55.56
823.876	55.44
824.184	55.42
824.491	55.63
824.799	55.67
825.107	55.87
825.414	55.99
825.722	55.96
826.029	56.04
826.337	55.87
826.644	55.83
826.951	55.69
827.259	55.28
827.566	55.29
827.873	55.05
828.18	55.11
828.488	55.32
828.795	55.13
829.102	54.65
829.409	54.5
829.716	54.32
830.023	54.08
830.329	54.24
830.636	53.91
830.943	53.56
831.25	54.04
831.557	54.06
831.863	54.11
832.17	54.45
832.476	54.92
832.783	54.72
833.089	54.48
833.396	54.64
833.702	55.05
834.009	54.64
834.315	55.38
834.621	55.55
834.928	55.58
835.234	55.74
835.54	56.08
835.846	56.54
836.152	56.24
836.458	56.32
836.764	56.76
837.07	57.17
837.376	57.5
837.682	57.15
837.988	56.53
838.293	56.44
838.599	55.72
838.905	54.77
839.211	54.78
839.516	54.51
839.822	54.38
840.127	54.25
840.433	53.85
840.738	52.64
841.044	52.34
841.349	52.03
841.654	51.27
841.959	51.54
842.265	51.01
842.57	51.22
842.875	50.72
843.18	49.44
843.485	48.59
843.79	47.81
844.095	47.27
844.4	47.45
844.705	48.06
845.01	49.07
845.315	49.51
845.619	49.93
845.924	50.72
846.229	51.45
846.533	50.91
846.838	52.54
847.142	52.65
847.447	53.1
847.751	53.59
848.056	54.89
848.36	54.3
848.664	52.9
848.969	52.3
849.273	53.32
849.577	54.09
849.881	56.12
850.185	58.62
850.489	58.72
850.794	60.2
851.097	58.62
851.401	59.03
851.705	59.26
852.009	59.82
852.313	58.05
852.617	59.17
852.92	59.68
853.224	57.28
853.528	58.14
853.831	58.47
854.135	57.95
854.438	57.19
854.742	56.98
855.045	57.48
855.349	56.97
855.652	57.31
855.955	57.59
856.259	56.76
856.562	54.21
856.865	55.66
857.168	53.57
857.471	53.6
857.774	54.97
858.077	56.05
858.38	56.17
858.683	57.1
858.986	54.68
859.289	54.2
859.592	56.39
859.894	57.43
860.197	57.69
860.5	58.38
860.802	57.44
861.105	57.62
861.407	57.2
861.71	57.33
862.012	57.62
862.315	57.36
862.617	56.29
862.919	56.16
863.222	56.31
863.524	58.23
863.826	58.79
864.128	58.13
864.43	54.75
864.732	55.77
865.034	55.82
865.336	55.3
865.638	55.12
865.94	54.95
866.242	52.98
866.544	51.85
866.846	51.21
867.147	52.82
867.449	54.88
867.751	57.2
868.052	57.86
868.354	56.33
868.655	54.94
868.957	55.49
869.258	54.55
869.56	53.58
869.861	53.04
870.162	50.79
870.463	48.05
870.765	50.41
871.066	49.22
871.367	48.19
871.668	50.98
871.969	50.7
872.27	50.33
872.571	51.07
872.872	51.27
873.173	51.02
873.473	49.81
873.774	48.32
874.075	46.94
874.376	46.48
874.676	48.87
874.977	49.76
875.277	49.25
875.578	52.32
875.878	52.34
876.179	52.23
876.479	54.68
876.78	56.33
877.08	56.29
877.38	55.59
877.68	57.43
877.981	55.12
878.281	55.6
878.581	54.43
