Data from BU26850_Reflection_00007.txt Node
Date: Mon Nov 18 16:45:36 EST 2019
User: vgr7
Spectrometer: USB2G7710
Scans to average: 3
Trigger mode: 4
Integration Time (sec): 2.000000E-2
Electric dark correction enabled: true
Boxcar width: 10
XAxis mode: Wavelengths
Number of Pixels in Spectrum: 2048
>>>>>Begin Spectral Data<<<<<
177.721	48.71
178.105	4.59
178.488	122.93
178.871	75.77
179.254	30.23
179.636	-75.13
180.019	37.03
180.402	92.31
180.785	-19.07
181.168	62.85
181.55	376.07
181.933	232.63
182.316	564.79
182.698	405.9
183.081	613.25
183.463	-3523.38
183.846	-677.24
184.228	-829.92
184.611	1159.57
184.993	3403.8
185.376	-850.86
185.758	-1194.31
186.14	-368.65
186.522	-311.42
186.904	-403.01
187.287	-432.49
187.669	-253.05
188.051	-289.98
188.433	-168.6
188.815	-127.42
189.197	-110.64
189.579	-90.41
189.961	-98.22
190.342	-73.93
190.724	-72.22
191.106	-44.96
191.488	-21.85
191.869	-17.72
192.251	-25.6
192.633	-23.69
193.014	-10.28
193.396	-9.45
193.777	-3.61
194.159	1.73
194.54	10.44
194.922	22.63
195.303	21.18
195.684	15.54
196.065	31.9
196.447	28.84
196.828	23.26
197.209	14.62
197.59	14.51
197.971	-0.39
198.352	-1.52
198.733	5.01
199.114	2.24
199.495	0.72
199.876	2.83
200.257	12.42
200.638	17.85
201.018	10.98
201.399	7.61
201.78	6.83
202.16	2.75
202.541	-9.47
202.922	-25.48
203.302	-25.92
203.683	-35.75
204.063	-51.68
204.444	-48.77
204.824	-33.78
205.204	-36.88
205.585	-39.6
205.965	-28.64
206.345	-51.7
206.725	-90.39
207.106	-102.92
207.486	-115.17
207.866	-111.27
208.246	-126.35
208.626	-153.43
209.006	-112.16
209.386	-124.38
209.766	-125.98
210.145	-145.9
210.525	-101.69
210.905	-90.17
211.285	-66.7
211.664	-57.68
212.044	-56.61
212.424	-65.34
212.803	-74.68
213.183	-54.75
213.562	-40.74
213.942	-38.26
214.321	-37.51
214.701	-32.22
215.08	-24.7
215.459	-22.21
215.838	-30.22
216.218	-30.02
216.597	-23.95
216.976	-20.49
217.355	-15.4
217.734	-16.1
218.113	-5.81
218.492	-5.81
218.871	-9.02
219.25	-16.18
219.629	-22.95
220.008	-26.06
220.387	-20.98
220.766	-20.15
221.144	-38.63
221.523	-57.83
221.902	-65.07
222.28	-56.95
222.659	-55.74
223.037	-46.46
223.416	-46.81
223.794	-36.06
224.173	-27.87
224.551	-28.17
224.929	-31.89
225.308	-26.93
225.686	-15.62
226.064	-24.16
226.442	-20.68
226.821	-11.27
227.199	-11.79
227.577	-8.73
227.955	-8.32
228.333	-9.81
228.711	-9.48
229.089	-1.66
229.467	0.41
229.845	-2.14
230.222	-1.62
230.6	-0.28
230.978	-1.76
231.356	0.78
231.733	2.78
232.111	1.22
232.488	1.66
232.866	3.26
233.243	2.46
233.621	0.67
233.998	2.2
234.376	0.87
234.753	0.42
235.13	2.34
235.508	4.96
235.885	3.69
236.262	3.35
236.639	3.42
237.016	4.15
237.393	5.76
237.77	6.94
238.147	7.65
238.524	7.8
238.901	7.88
239.278	6.94
239.655	6.99
240.032	7.07
240.409	6.53
240.785	6.66
241.162	6.77
241.539	6.7
241.915	6.71
242.292	6.56
242.668	6.9
243.045	6.31
243.421	5.94
243.798	6.02
244.174	5.77
244.551	5.69
244.927	4.83
245.303	4.67
245.679	4.74
246.056	4.53
246.432	4.23
246.808	3.97
247.184	3.84
247.56	3.45
247.936	3.52
248.312	3.39
248.688	3.05
249.064	3.12
249.44	3.03
249.815	2.83
250.191	2.95
250.567	2.78
250.943	2.7
251.318	2.62
251.694	2.88
252.069	2.86
252.445	2.79
252.82	3.2
253.196	3.07
253.571	3.01
253.947	2.83
254.322	3.04
254.697	2.98
255.073	2.95
255.448	3.1
255.823	2.87
256.198	3.24
256.573	3.37
256.948	3.4
257.323	3.61
257.698	3.81
258.073	3.91
258.448	3.76
258.823	3.87
259.198	3.65
259.573	3.41
259.948	3.38
260.322	3.5
260.697	3.41
261.072	3.43
261.446	3.33
261.821	3.41
262.195	3.44
262.57	3.62
262.944	3.64
263.319	3.65
263.693	3.63
264.067	3.62
264.442	3.62
264.816	3.4
265.19	3.18
265.564	3.06
265.938	2.93
266.313	2.91
266.687	2.83
267.061	2.96
267.435	3.12
267.809	3.14
268.183	2.95
268.556	3
268.93	2.93
269.304	3.02
269.678	3
270.051	2.93
270.425	2.83
270.799	2.99
271.172	2.87
271.546	2.86
271.919	2.77
272.293	2.87
272.666	3.06
273.04	3.16
273.413	3.24
273.787	3.24
274.16	3.14
274.533	3.28
274.906	3.15
275.279	3.1
275.653	3.11
276.026	3.04
276.399	2.93
276.772	2.95
277.145	2.87
277.518	2.89
277.891	2.97
278.263	3.11
278.636	3.08
279.009	3.26
279.382	3.46
279.755	3.39
280.127	3.45
280.5	3.47
280.872	3.51
281.245	3.46
281.617	3.54
281.99	3.81
282.362	3.77
282.735	3.77
283.107	3.72
283.479	3.81
283.852	3.94
284.224	3.95
284.596	3.98
284.968	3.99
285.34	4.02
285.713	4.01
286.085	4.02
286.457	3.99
286.829	4.02
287.201	4
287.572	4.05
287.944	3.99
288.316	3.97
288.688	3.9
289.06	3.89
289.431	3.88
289.803	3.85
290.175	3.79
290.546	4.1
290.918	4.15
291.289	4.1
291.661	4.17
292.032	4.31
292.403	4.2
292.775	4.26
293.146	4.29
293.517	4.44
293.889	4.48
294.26	4.59
294.631	4.63
295.002	4.76
295.373	4.9
295.744	4.91
296.115	4.82
296.486	4.85
296.857	4.89
297.228	4.9
297.599	4.95
297.97	5.02
298.34	4.94
298.711	5.05
299.082	5.03
299.452	5.05
299.823	5.13
300.194	5.38
300.564	5.3
300.935	5.47
301.305	5.46
301.676	5.6
302.046	5.54
302.416	5.6
302.787	5.56
303.157	5.48
303.527	5.46
303.897	5.64
304.267	5.9
304.637	6.04
305.008	6.19
305.378	6.08
305.748	6.19
306.117	6.18
306.487	6.29
306.857	6.49
307.227	6.5
307.597	6.55
307.967	6.57
308.336	6.72
308.706	6.73
309.076	6.68
309.445	6.62
309.815	6.66
310.184	6.65
310.554	6.58
310.923	6.65
311.293	6.74
311.662	6.79
312.031	6.68
312.401	6.6
312.77	6.68
313.139	6.84
313.508	6.86
313.877	6.88
314.246	6.87
314.616	6.81
314.985	6.83
315.353	6.8
315.722	6.83
316.091	6.81
316.46	6.72
316.829	6.93
317.198	7.04
317.567	7.08
317.935	7.11
318.304	7.37
318.672	7.48
319.041	7.69
319.41	7.65
319.778	7.71
320.147	7.89
320.515	7.86
320.883	7.89
321.252	8.05
321.62	8.14
321.988	8.27
322.357	8.42
322.725	8.5
323.093	8.55
323.461	8.65
323.829	8.85
324.197	8.97
324.565	8.86
324.933	8.8
325.301	8.79
325.669	8.84
326.037	8.88
326.405	8.85
326.772	8.83
327.14	8.83
327.508	8.93
327.875	8.94
328.243	9.06
328.61	9.08
328.978	9.07
329.346	9.2
329.713	9.11
330.08	9.24
330.448	9.31
330.815	9.33
331.182	9.33
331.55	9.35
331.917	9.4
332.284	9.66
332.651	9.66
333.018	9.83
333.385	10.04
333.752	10.01
334.119	10.05
334.486	9.97
334.853	10.17
335.22	10.08
335.587	10.14
335.954	10.18
336.32	10.15
336.687	10.16
337.054	10.19
337.42	10.17
337.787	10.08
338.153	10.14
338.52	10.18
338.886	10.15
339.253	10.21
339.619	10.19
339.986	10.04
340.352	10.29
340.718	10.3
341.084	10.22
341.451	10.34
341.817	10.46
342.183	10.48
342.549	10.38
342.915	10.59
343.281	10.6
343.647	10.63
344.013	10.69
344.379	10.59
344.745	10.55
345.11	10.59
345.476	10.65
345.842	10.58
346.208	10.56
346.573	10.57
346.939	10.62
347.304	10.72
347.67	10.81
348.035	10.63
348.401	10.61
348.766	10.62
349.132	10.57
349.497	10.46
349.862	10.63
350.228	10.77
350.593	10.67
350.958	10.7
351.323	10.65
351.688	10.65
352.053	10.8
352.418	10.92
352.783	11.07
353.148	11.05
353.513	11.1
353.878	11.13
354.243	11.13
354.608	11.11
354.972	11.05
355.337	11.1
355.702	11.14
356.066	11.21
356.431	11.15
356.795	11.14
357.16	11.13
357.524	11.07
357.889	10.99
358.253	11.01
358.618	11.02
358.982	11.01
359.346	11
359.71	10.93
360.075	10.83
360.439	10.77
360.803	10.7
361.167	10.7
361.531	10.7
361.895	10.58
362.259	10.49
362.623	10.48
362.987	10.41
363.351	10.42
363.714	10.38
364.078	10.35
364.442	10.31
364.806	10.28
365.169	10.3
365.533	10.28
365.896	10.21
366.26	10.1
366.623	10.07
366.987	10.03
367.35	10.02
367.714	9.99
368.077	9.96
368.44	9.99
368.803	9.88
369.167	9.74
369.53	9.72
369.893	9.75
370.256	9.63
370.619	9.53
370.982	9.42
371.345	9.35
371.708	9.33
372.071	9.19
372.434	9.14
372.797	8.96
373.159	8.83
373.522	8.73
373.885	8.7
374.247	8.7
374.61	8.62
374.973	8.49
375.335	8.43
375.698	8.3
376.06	8.21
376.423	8.18
376.785	8.17
377.147	8.17
377.51	7.99
377.872	7.96
378.234	7.94
378.596	7.89
378.958	7.79
379.321	7.74
379.683	7.76
380.045	7.69
380.407	7.71
380.769	7.65
381.13	7.65
381.492	7.6
381.854	7.48
382.216	7.43
382.578	7.44
382.939	7.34
383.301	7.3
383.663	7.23
384.024	7.17
384.386	7.15
384.747	7.09
385.109	7.11
385.47	7.07
385.832	7
386.193	6.91
386.554	6.87
386.916	6.79
387.277	6.71
387.638	6.7
387.999	6.62
388.36	6.62
388.721	6.56
389.082	6.51
389.443	6.49
389.804	6.49
390.165	6.37
390.526	6.33
390.887	6.31
391.248	6.3
391.609	6.22
391.969	6.13
392.33	6.12
392.691	6.07
393.051	5.99
393.412	5.95
393.772	5.89
394.133	5.87
394.493	5.82
394.854	5.75
395.214	5.7
395.574	5.66
395.935	5.62
396.295	5.57
396.655	5.5
397.015	5.43
397.376	5.35
397.736	5.35
398.096	5.32
398.456	5.25
398.816	5.18
399.176	5.15
399.535	5.1
399.895	5.03
400.255	5.01
400.615	4.96
400.975	4.93
401.334	4.96
401.694	4.92
402.054	4.88
402.413	4.89
402.773	4.83
403.132	4.78
403.492	4.74
403.851	4.67
404.211	4.66
404.57	4.6
404.929	4.6
405.288	4.56
405.648	4.55
406.007	4.55
406.366	4.52
406.725	4.52
407.084	4.5
407.443	4.5
407.802	4.47
408.161	4.49
408.52	4.48
408.879	4.44
409.238	4.42
409.596	4.41
409.955	4.39
410.314	4.4
410.673	4.39
411.031	4.37
411.39	4.37
411.748	4.35
412.107	4.36
412.465	4.33
412.824	4.32
413.182	4.29
413.54	4.25
413.899	4.25
414.257	4.23
414.615	4.21
414.974	4.2
415.332	4.14
415.69	4.1
416.048	4.05
416.406	4.06
416.764	4.05
417.122	4.03
417.48	3.98
417.838	3.95
418.195	3.93
418.553	3.92
418.911	3.91
419.269	3.89
419.626	3.87
419.984	3.84
420.342	3.84
420.699	3.81
421.057	3.79
421.414	3.76
421.772	3.74
422.129	3.75
422.486	3.72
422.844	3.71
423.201	3.69
423.558	3.68
423.915	3.66
424.273	3.64
424.63	3.64
424.987	3.63
425.344	3.63
425.701	3.62
426.058	3.61
426.415	3.61
426.772	3.6
427.128	3.57
427.485	3.56
427.842	3.54
428.199	3.55
428.555	3.53
428.912	3.54
429.269	3.54
429.625	3.5
429.982	3.48
430.338	3.5
430.695	3.53
431.051	3.5
431.407	3.48
431.764	3.46
432.12	3.42
432.476	3.42
432.832	3.42
433.189	3.41
433.545	3.4
433.901	3.38
434.257	3.41
434.613	3.44
434.969	3.45
435.325	3.46
435.681	3.45
436.036	3.47
436.392	3.48
436.748	3.47
437.104	3.47
437.459	3.48
437.815	3.46
438.171	3.44
438.526	3.46
438.882	3.47
439.237	3.49
439.593	3.51
439.948	3.51
440.304	3.52
440.659	3.52
441.014	3.54
441.369	3.53
441.725	3.5
442.08	3.49
442.435	3.46
442.79	3.45
443.145	3.43
443.5	3.42
443.855	3.41
444.21	3.4
444.565	3.4
444.92	3.41
445.275	3.4
445.629	3.41
445.984	3.4
446.339	3.38
446.693	3.36
447.048	3.35
447.403	3.33
447.757	3.31
448.112	3.29
448.466	3.27
448.82	3.26
449.175	3.27
449.529	3.26
449.883	3.26
450.238	3.26
450.592	3.26
450.946	3.24
451.3	3.22
451.654	3.22
452.008	3.21
452.362	3.18
452.716	3.18
453.07	3.17
453.424	3.18
453.778	3.19
454.132	3.2
454.486	3.18
454.839	3.18
455.193	3.18
455.547	3.19
455.9	3.2
456.254	3.22
456.607	3.2
456.961	3.21
457.314	3.2
457.668	3.21
458.021	3.19
458.375	3.19
458.728	3.18
459.081	3.19
459.434	3.19
459.787	3.2
460.141	3.22
460.494	3.2
460.847	3.19
461.2	3.18
461.553	3.17
461.906	3.17
462.259	3.18
462.611	3.2
462.964	3.21
463.317	3.21
463.67	3.2
464.022	3.2
464.375	3.21
464.728	3.23
465.08	3.24
465.433	3.28
465.785	3.31
466.138	3.32
466.49	3.32
466.843	3.34
467.195	3.34
467.547	3.35
467.899	3.38
468.252	3.4
468.604	3.44
468.956	3.45
469.308	3.48
469.66	3.5
470.012	3.51
470.364	3.53
470.716	3.54
471.068	3.57
471.42	3.59
471.772	3.61
472.123	3.61
472.475	3.63
472.827	3.62
473.178	3.63
473.53	3.64
473.882	3.64
474.233	3.64
474.585	3.63
474.936	3.64
475.288	3.64
475.639	3.65
475.99	3.64
476.342	3.65
476.693	3.64
477.044	3.65
477.395	3.62
477.746	3.58
478.097	3.58
478.448	3.59
478.8	3.56
479.15	3.53
479.501	3.54
479.852	3.54
480.203	3.55
480.554	3.55
480.905	3.55
481.255	3.55
481.606	3.56
481.957	3.55
482.307	3.54
482.658	3.53
483.009	3.53
483.359	3.52
483.709	3.51
484.06	3.52
484.41	3.51
484.761	3.52
485.111	3.53
485.461	3.53
485.811	3.52
486.162	3.53
486.512	3.53
486.862	3.53
487.212	3.53
487.562	3.52
487.912	3.52
488.262	3.52
488.612	3.51
488.961	3.52
489.311	3.52
489.661	3.52
490.011	3.52
490.36	3.52
490.71	3.52
491.06	3.54
491.409	3.54
491.759	3.54
492.108	3.55
492.458	3.55
492.807	3.55
493.157	3.57
493.506	3.57
493.855	3.59
494.204	3.61
494.554	3.61
494.903	3.63
495.252	3.65
495.601	3.7
495.95	3.74
496.299	3.74
496.648	3.76
496.997	3.81
497.346	3.86
497.695	3.91
498.043	3.95
498.392	3.98
498.741	4.03
499.09	4.08
499.438	4.15
499.787	4.22
500.135	4.31
500.484	4.36
500.832	4.43
501.181	4.51
501.529	4.56
501.878	4.67
502.226	4.77
502.574	4.86
502.923	4.91
503.271	5
503.619	5.1
503.967	5.21
504.315	5.27
504.663	5.35
505.011	5.46
505.359	5.58
505.707	5.7
506.055	5.8
506.403	5.91
506.751	6.02
507.098	6.13
507.446	6.25
507.794	6.37
508.141	6.51
508.489	6.64
508.837	6.8
509.184	6.93
509.531	7.05
509.879	7.2
510.226	7.37
510.574	7.53
510.921	7.69
511.268	7.84
511.616	8.03
511.963	8.22
512.31	8.39
512.657	8.57
513.004	8.75
513.351	8.98
513.698	9.19
514.045	9.39
514.392	9.62
514.739	9.82
515.086	10.04
515.432	10.25
515.779	10.43
516.126	10.63
516.473	10.81
516.819	11.01
517.166	11.18
517.512	11.35
517.859	11.51
518.205	11.7
518.552	11.88
518.898	12.03
519.245	12.22
519.591	12.39
519.937	12.53
520.283	12.73
520.629	12.89
520.976	13.08
521.322	13.3
521.668	13.49
522.014	13.7
522.36	13.9
522.706	14.13
523.052	14.39
523.398	14.67
523.743	14.97
524.089	15.24
524.435	15.49
524.781	15.74
525.126	15.98
525.472	16.14
525.817	16.34
526.163	16.52
526.509	16.68
526.854	16.83
527.199	16.99
527.545	17.13
527.89	17.27
528.235	17.43
528.581	17.57
528.926	17.72
529.271	17.88
529.616	18.03
529.961	18.18
530.306	18.34
530.651	18.48
530.996	18.64
531.341	18.81
531.686	19.01
532.031	19.2
532.376	19.39
532.721	19.64
533.065	19.85
533.41	20.07
533.755	20.27
534.099	20.49
534.444	20.71
534.788	20.93
535.133	21.17
535.477	21.4
535.822	21.62
536.166	21.89
536.51	22.17
536.855	22.45
537.199	22.73
537.543	23.01
537.887	23.32
538.231	23.61
538.576	23.89
538.92	24.16
539.264	24.44
539.608	24.69
539.951	24.88
540.295	25.09
540.639	25.32
540.983	25.56
541.327	25.79
541.671	26.02
542.014	26.21
542.358	26.42
542.701	26.63
543.045	26.85
543.389	27.06
543.732	27.26
544.075	27.49
544.419	27.73
544.762	27.99
545.105	28.21
545.449	28.5
545.792	28.77
546.135	29.06
546.478	29.34
546.821	29.65
547.165	29.99
547.508	30.33
547.851	30.65
548.194	30.94
548.536	31.23
548.879	31.55
549.222	31.88
549.565	32.17
549.908	32.49
550.25	32.76
550.593	33.03
550.936	33.34
551.278	33.65
551.621	33.95
551.963	34.24
552.306	34.62
552.648	34.89
552.991	35.19
553.333	35.5
553.675	35.78
554.017	36.03
554.36	36.28
554.702	36.57
555.044	36.81
555.386	37.1
555.728	37.4
556.07	37.72
556.412	37.98
556.754	38.23
557.096	38.45
557.438	38.8
557.78	39.17
558.121	39.47
558.463	39.69
558.805	39.92
559.147	40.15
559.488	40.3
559.83	40.53
560.171	40.7
560.513	40.88
560.854	41.1
561.196	41.32
561.537	41.54
561.878	41.75
562.22	41.92
562.561	42.14
562.902	42.32
563.243	42.5
563.584	42.74
563.925	42.95
564.266	43.11
564.607	43.32
564.948	43.49
565.289	43.62
565.63	43.82
565.971	44.01
566.312	44.2
566.653	44.41
566.993	44.61
567.334	44.77
567.675	44.96
568.015	45.12
568.356	45.25
568.696	45.46
569.037	45.59
569.377	45.77
569.718	45.87
570.058	46.04
570.398	46.14
570.739	46.3
571.079	46.46
571.419	46.62
571.759	46.69
572.099	46.82
572.439	46.94
572.779	47.08
573.119	47.21
573.459	47.32
573.799	47.4
574.139	47.5
574.479	47.63
574.819	47.73
575.158	47.84
575.498	47.94
575.838	48.05
576.177	48.12
576.517	48.28
576.856	48.46
577.196	48.58
577.535	48.65
577.875	48.75
578.214	48.86
578.553	48.99
578.893	49.12
579.232	49.19
579.571	49.33
579.91	49.42
580.25	49.53
580.589	49.6
580.928	49.71
581.267	49.83
581.606	49.91
581.945	49.95
582.283	50.1
582.622	50.22
582.961	50.28
583.3	50.44
583.639	50.57
583.977	50.69
584.316	50.79
584.654	50.94
584.993	51.01
585.332	51.09
585.67	51.21
586.008	51.35
586.347	51.44
586.685	51.47
587.024	51.54
587.362	51.71
587.7	51.8
588.038	51.89
588.376	51.91
588.715	52.08
589.053	52.26
589.391	52.31
589.729	52.38
590.067	52.44
590.404	52.43
590.742	52.47
591.08	52.45
591.418	52.46
591.756	52.54
592.093	52.54
592.431	52.57
592.769	52.54
593.106	52.55
593.444	52.56
593.781	52.66
594.119	52.78
594.456	52.81
594.793	52.81
595.131	52.8
595.468	52.82
595.805	52.74
596.143	52.65
596.48	52.69
596.817	52.74
597.154	52.77
597.491	52.83
597.828	52.84
598.165	52.9
598.502	52.92
598.839	52.91
599.176	52.96
599.512	53
599.849	53.07
600.186	53.06
600.523	53.12
600.859	53.15
601.196	53.12
601.532	53.07
601.869	53.22
602.205	53.3
602.542	53.36
602.878	53.42
603.215	53.49
603.551	53.51
603.887	53.47
604.223	53.58
604.56	53.62
604.896	53.71
605.232	53.71
605.568	53.79
605.904	53.81
606.24	53.8
606.576	53.82
606.912	53.9
607.248	53.98
607.583	54.03
607.919	54.08
608.255	54.12
608.591	54.19
608.926	54.08
609.262	54.16
609.597	54.26
609.933	54.37
610.268	54.45
610.604	54.43
610.939	54.5
611.275	54.39
611.61	54.46
611.945	54.42
612.281	54.47
612.616	54.5
612.951	54.64
613.286	54.75
613.621	54.86
613.956	54.89
614.291	54.87
614.626	54.91
614.961	54.99
615.296	55.03
615.631	55.04
615.966	55.14
616.3	55.08
616.635	55.12
616.97	55.04
617.304	54.97
617.639	55.05
617.973	55.08
618.308	55.15
618.642	55.1
618.977	55.19
619.311	55.3
619.646	55.32
619.98	55.19
620.314	55.24
620.648	55.23
620.983	55.22
621.317	55.27
621.651	55.37
621.985	55.43
622.319	55.49
622.653	55.58
622.987	55.56
623.321	55.59
623.655	55.43
623.988	55.51
624.322	55.64
624.656	55.66
624.99	55.69
625.323	55.66
625.657	55.7
625.99	55.61
626.324	55.58
626.657	55.62
626.991	55.65
627.324	55.58
627.658	55.58
627.991	55.6
628.324	55.65
628.657	55.52
628.991	55.5
629.324	55.53
629.657	55.5
629.99	55.6
630.323	55.66
630.656	55.75
630.989	55.68
631.322	55.71
631.655	55.68
631.987	55.71
632.32	55.88
632.653	55.9
632.986	55.99
633.318	56.02
633.651	56.07
633.984	56.14
634.316	56.17
634.649	56.17
634.981	56.19
635.313	56.11
635.646	56.19
635.978	56.27
636.31	56.24
636.643	56.28
636.975	56.27
637.307	56.23
637.639	56.29
637.971	56.43
638.303	56.43
638.635	56.44
638.967	56.44
639.299	56.33
639.631	56.3
639.963	56.3
640.295	56.34
640.626	56.15
640.958	56.22
641.29	56.26
641.621	56.19
641.953	56.27
642.285	56.36
642.616	56.4
642.948	56.28
643.279	56.19
643.61	56.15
643.942	56.16
644.273	56.26
644.604	56.33
644.936	56.29
645.267	56.23
645.598	56.34
645.929	56.33
646.26	56.35
646.591	56.42
646.922	56.36
647.253	56.35
647.584	56.48
647.915	56.41
648.245	56.36
648.576	56.48
648.907	56.41
649.238	56.42
649.568	56.37
649.899	56.4
650.229	56.52
650.56	56.45
650.89	56.44
651.221	56.39
651.551	56.29
651.882	56.31
652.212	56.33
652.542	56.32
652.872	56.25
653.203	56.36
653.533	56.3
653.863	56.21
654.193	56.25
654.523	56.2
654.853	56.24
655.183	56.38
655.513	56.38
655.843	56.46
656.172	56.55
656.502	56.58
656.832	56.52
657.162	56.46
657.491	56.59
657.821	56.53
658.15	56.63
658.48	56.7
658.809	56.67
659.139	56.65
659.468	56.68
659.798	56.75
660.127	56.71
660.456	56.87
660.785	56.96
661.115	56.98
661.444	57
661.773	57
662.102	57.02
662.431	57.1
662.76	57
663.089	56.91
663.418	56.89
663.747	57.01
664.076	57.03
664.404	56.97
664.733	57.11
665.062	57
665.39	56.98
665.719	56.92
666.048	56.97
666.376	56.87
666.705	56.92
667.033	56.8
667.362	56.73
667.69	56.79
668.018	56.77
668.347	56.83
668.675	57
669.003	56.87
669.331	56.74
669.659	56.74
669.987	56.75
670.315	56.79
670.643	56.74
670.971	56.7
671.299	56.73
671.627	56.6
671.955	56.62
672.283	56.59
672.61	56.59
672.938	56.63
673.266	56.76
673.593	56.79
673.921	56.84
674.249	56.87
674.576	56.94
674.904	56.9
675.231	56.92
675.558	56.74
675.886	56.81
676.213	56.78
676.54	56.9
676.867	57.15
677.195	57.21
677.522	57.24
677.849	57.46
678.176	57.55
678.503	57.61
678.83	57.68
679.157	57.58
679.484	57.64
679.81	57.6
680.137	57.41
680.464	57.34
680.791	57.33
681.117	57.33
681.444	57.22
681.771	57.19
682.097	57.2
682.424	57.24
682.75	57.13
683.077	57.18
683.403	57.11
683.729	56.92
684.056	56.72
684.382	56.78
684.708	56.61
685.034	56.61
685.36	56.6
685.686	56.62
686.012	56.75
686.339	56.84
686.664	56.86
686.99	56.89
687.316	56.88
687.642	56.97
687.968	56.85
688.294	56.99
688.619	57.07
688.945	57.01
689.271	56.92
689.596	57.11
689.922	57.17
690.247	57.19
690.573	57.27
690.898	57.4
691.224	57.24
691.549	57.23
691.874	57.12
692.2	57.18
692.525	57.03
692.85	57.09
693.175	56.95
693.5	57
693.825	57.05
694.15	57.03
694.475	57.04
694.8	57.13
695.125	57.01
695.45	56.91
695.775	57.04
696.099	56.95
696.424	56.81
696.749	56.79
697.073	56.93
697.398	56.66
697.723	56.68
698.047	56.69
698.372	56.72
698.696	56.65
699.02	56.62
699.345	56.61
699.669	56.55
699.993	56.49
700.318	56.38
700.642	56.41
700.966	56.54
701.29	56.53
701.614	56.47
701.938	56.45
702.262	56.5
702.586	56.35
702.91	56.42
703.234	56.46
703.557	56.34
703.881	56.2
704.205	56.43
704.529	56.43
704.852	56.48
705.176	56.35
705.499	56.67
705.823	56.63
706.146	56.55
706.47	56.5
706.793	56.64
707.117	56.81
707.44	56.79
707.763	56.75
708.086	56.63
708.409	56.69
708.733	56.71
709.056	56.72
709.379	56.78
709.702	56.96
710.025	57.02
710.348	57.02
710.671	57.01
710.993	57.11
711.316	57.01
711.639	56.95
711.962	57.03
712.284	56.8
712.607	56.87
712.93	57.06
713.252	56.93
713.575	56.93
713.897	56.84
714.22	56.82
714.542	56.77
714.864	56.86
715.187	56.89
715.509	56.95
715.831	56.71
716.153	56.72
716.475	56.75
716.798	56.76
717.12	56.98
717.442	57.05
717.764	56.98
718.085	57.09
718.407	57.25
718.729	57.34
719.051	57.15
719.373	57.22
719.695	57.09
720.016	57.21
720.338	57.23
720.659	57.23
720.981	57.09
721.302	56.97
721.624	57.12
721.945	56.91
722.267	57.05
722.588	57.18
722.909	56.99
723.231	56.87
723.552	56.7
723.873	56.82
724.194	56.7
724.515	56.52
724.836	56.6
725.157	56.51
725.478	56.39
725.799	56.65
726.12	56.51
726.441	56.47
726.762	56.57
727.083	56.58
727.403	56.61
727.724	56.86
728.045	56.92
728.365	56.82
728.686	57.02
729.006	56.94
729.327	56.94
729.647	57.14
729.967	57.21
730.288	57.23
730.608	56.82
730.928	56.88
731.249	56.93
731.569	56.93
731.889	57.17
732.209	57.16
732.529	57.05
732.849	57.01
733.169	57.09
733.489	57.01
733.809	56.82
734.129	56.76
734.448	56.71
734.768	56.81
735.088	56.7
735.408	56.7
735.727	56.46
736.047	56.48
736.366	56.5
736.686	56.59
737.005	56.68
737.325	57.07
737.644	56.92
737.963	57.11
738.283	56.95
738.602	56.65
738.921	56.66
739.24	56.88
739.56	56.7
739.879	56.8
740.198	56.82
740.517	57.2
740.836	57.13
741.155	57.16
741.473	57.24
741.792	57.43
742.111	57.38
742.43	57.27
742.748	57.3
743.067	57.16
743.386	56.98
743.704	56.92
744.023	56.9
744.341	56.89
744.66	56.8
744.978	56.72
745.297	56.87
745.615	57.1
745.933	56.85
746.252	57.23
746.57	57.2
746.888	57.37
747.206	56.98
747.524	56.99
747.842	56.73
748.16	56.63
748.478	56.62
748.796	56.5
749.114	56.9
749.432	56.67
749.749	56.82
750.067	56.84
750.385	56.9
750.703	56.78
751.02	56.83
751.338	56.8
751.655	56.96
751.973	56.5
752.29	56.11
752.608	56.23
752.925	56.26
753.242	56.22
753.56	56.28
753.877	56.47
754.194	56.66
754.511	56.75
754.828	56.43
755.145	56.2
755.462	56.1
755.779	56.27
756.096	56.63
756.413	56.66
756.73	56.63
757.047	56.6
757.364	56.39
757.68	56.4
757.997	56.12
758.314	56.35
758.63	56.48
758.947	56.39
759.264	56.39
759.58	56.34
759.896	56.44
760.213	56.42
760.529	56.68
760.846	56.74
761.162	56.75
761.478	56.99
761.794	56.92
762.11	56.99
762.426	56.82
762.743	56.98
763.059	56.81
763.375	56.91
763.69	57.02
764.006	57.27
764.322	57.31
764.638	57.48
764.954	57.3
765.27	57.61
765.585	57.86
765.901	57.95
766.216	57.78
766.532	57.74
766.848	57.75
767.163	57.67
767.478	57.55
767.794	57.54
768.109	57.57
768.424	57.81
768.74	57.97
769.055	58.16
769.37	58.18
769.685	58.45
770	58.37
770.315	58.26
770.63	57.86
770.945	57.9
771.26	58.05
771.575	58.05
771.89	57.74
772.205	57.74
772.52	57.71
772.834	58.02
773.149	58.36
773.464	58.17
773.778	57.78
774.093	57.79
774.407	57.88
774.722	57.86
775.036	57.96
775.351	57.45
775.665	57.39
775.979	56.65
776.293	56.53
776.608	56.69
776.922	56.75
777.236	56.99
777.55	57.08
777.864	56.77
778.178	56.92
778.492	57.28
778.806	57.09
779.12	57.11
779.434	57.11
779.747	56.67
780.061	57.13
780.375	57.33
780.689	57.4
781.002	57.26
781.316	57.05
781.629	56.78
781.943	57
782.256	56.87
782.57	57.36
782.883	57.02
783.196	56.69
783.51	56.77
783.823	56.51
784.136	56.33
784.449	56.61
784.762	56.42
785.075	56.15
785.388	56.09
785.701	55.73
786.014	55.76
786.327	55.78
786.64	55.66
786.953	56.26
787.266	56.19
787.578	56.67
787.891	56.86
788.204	57.14
788.516	57.92
788.829	57.77
789.141	58
789.454	58.01
789.766	58.39
790.079	58.17
790.391	58.22
790.703	58.35
791.016	58.68
791.328	58.69
791.64	59.02
791.952	59.29
792.264	59.7
792.576	59.84
792.888	59.57
793.2	59.56
793.512	58.68
793.824	58.62
794.136	58.56
794.448	58.45
794.76	58.24
795.071	57.62
795.383	58.42
795.695	58.1
796.006	58.44
796.318	58.1
796.629	57.88
796.941	57.94
797.252	57.87
797.564	57.69
797.875	57.98
798.186	57.53
798.497	57.59
798.809	57.47
799.12	57.53
799.431	58.11
799.742	57.76
800.053	58.3
800.364	58.46
800.675	58.23
800.986	58.08
801.297	58.2
801.608	58.12
801.918	57.22
802.229	57.47
802.54	57.42
802.851	57.68
803.161	58.05
803.472	57.94
803.782	57.82
804.093	57.53
804.403	57.22
804.714	57.08
805.024	56.32
805.334	56.73
805.645	57.18
805.955	57.23
806.265	57.47
806.575	57.31
806.885	56.86
807.195	56.57
807.505	57.07
807.815	57.1
808.125	57.83
808.435	57.91
808.745	57.52
809.055	56.97
809.365	57.05
809.674	56.65
809.984	57.27
810.294	57.38
810.603	57.89
810.913	57.71
811.222	57.68
811.532	58.71
811.841	58.53
812.151	57.36
812.46	57.16
812.769	56.85
813.079	56.37
813.388	56.82
813.697	57.34
814.006	56.4
814.315	56.68
814.624	55.62
814.933	56.21
815.242	56.55
815.551	57.36
815.86	57.31
816.169	57.63
816.478	57.35
816.786	57.48
817.095	57.21
817.404	58.16
817.712	58.79
818.021	58.52
818.33	58.01
818.638	59.16
818.947	59.55
819.255	59.94
819.563	60.06
819.872	59.65
820.18	59.31
820.488	59.71
820.796	59.67
821.105	59.74
821.413	59.42
821.721	59.21
822.029	59.35
822.337	59.09
822.645	58.98
822.953	59.1
823.26	59.01
823.568	58.82
823.876	58.61
824.184	58.67
824.491	58.68
824.799	58.8
825.107	58.41
825.414	58.26
825.722	58.21
826.029	58.2
826.337	58.12
826.644	58.2
826.951	58.06
827.259	57.9
827.566	57.97
827.873	58.08
828.18	58.4
828.488	58.18
828.795	58.5
829.102	58.47
829.409	58.38
829.716	58.32
830.023	58.66
830.329	58.68
830.636	58.55
830.943	58.2
831.25	58.32
831.557	58.46
831.863	58.52
832.17	57.93
832.476	57.98
832.783	58.31
833.089	57.95
833.396	57.68
833.702	57.74
834.009	57.56
834.315	57.3
834.621	56.88
834.928	56.99
835.234	56.13
835.54	56.45
835.846	56.18
836.152	56.34
836.458	56.29
836.764	56.38
837.07	55.68
837.376	56.07
837.682	55.75
837.988	56.03
838.293	55.69
838.599	56.07
838.905	55.81
839.211	55.78
839.516	56.23
839.822	56.59
840.127	56.71
840.433	56.36
840.738	56.36
841.044	55.9
841.349	55.13
841.654	56.55
841.959	56.63
842.265	56.99
842.57	56.75
842.875	56.8
843.18	57.4
843.485	58.85
843.79	59.3
844.095	58.87
844.4	59.24
844.705	59.26
845.01	58.66
845.315	58.93
845.619	59.2
845.924	59.61
846.229	59.29
846.533	59.13
846.838	59.66
847.142	59.76
847.447	59.59
847.751	60.55
848.056	58.66
848.36	58.07
848.664	56.66
848.969	56.82
849.273	55.51
849.577	53.82
849.881	52.57
850.185	53.12
850.489	53.69
850.794	51.92
851.097	52.03
851.401	52.78
851.705	53.59
852.009	53.54
852.313	52.33
852.617	51.7
852.92	51.5
853.224	50.01
853.528	50.88
853.831	51.88
854.135	52.18
854.438	52.96
854.742	53.37
855.045	54.96
855.349	54.81
855.652	55.72
855.955	55.79
856.259	55.39
856.562	55.39
856.865	58.57
857.168	59.37
857.471	61.14
857.774	62.47
858.077	60.59
858.38	61.09
858.683	60.07
858.986	62.1
859.289	62.31
859.592	63.84
859.894	63.37
860.197	63.32
860.5	64.42
860.802	65.66
861.105	67.99
861.407	68.33
861.71	69.92
862.012	71.4
862.315	73.3
862.617	74.27
862.919	70.38
863.222	67.94
863.524	66.38
863.826	63.66
864.128	63.08
864.43	62.93
864.732	62.31
865.034	64.54
865.336	65.99
865.638	64.66
865.94	64.91
866.242	65.77
866.544	65.46
866.846	63.15
867.147	63.22
867.449	60.52
867.751	57.36
868.052	54.91
868.354	53.68
868.655	54.75
868.957	56.4
869.258	57.18
869.56	55.75
869.861	58.19
870.162	56.29
870.463	54.61
870.765	56.7
871.066	55.26
871.367	53.84
871.668	52.32
871.969	51.44
872.27	51.24
872.571	51.54
872.872	51.67
873.173	49.06
873.473	49.64
873.774	51.45
874.075	51.2
874.376	53.36
874.676	52.04
874.977	50.72
875.277	49.12
875.578	50.11
875.878	49.75
876.179	48.66
876.479	50.91
876.78	52.02
877.08	50.75
877.38	52.04
877.68	52.91
877.981	53.2
878.281	54.32
878.581	54.98
