Data from BU26938_Reflection_00005.txt Node
Date: Tue Nov 19 10:42:15 EST 2019
User: vgr7
Spectrometer: USB2G7710
Scans to average: 3
Trigger mode: 4
Integration Time (sec): 2.000000E-2
Electric dark correction enabled: true
Boxcar width: 10
XAxis mode: Wavelengths
Number of Pixels in Spectrum: 2048
>>>>>Begin Spectral Data<<<<<
177.721	293.79
178.105	-1323.08
178.488	1021.05
178.871	5900
179.254	258.06
179.636	264.77
180.019	245.05
180.402	-95.24
180.785	831.58
181.168	458.78
181.55	262.34
181.933	149.74
182.316	340.26
182.698	-1077.42
183.081	90.49
183.463	-13.5
183.846	-104.92
184.228	-248.1
184.611	-539.53
184.993	-541.18
185.376	-4257.14
185.758	54.26
186.14	111.48
186.522	166.16
186.904	269.77
187.287	75.79
187.669	44.6
188.051	37.58
188.433	-37.53
188.815	-93.27
189.197	-101.6
189.579	-38.48
189.961	-89.66
190.342	-17.4
190.724	-95.26
191.106	-116.98
191.488	-21.76
191.869	-18.31
192.251	-16.1
192.633	-23.69
193.014	-29.34
193.396	-8.77
193.777	14.7
194.159	3.82
194.54	-24.43
194.922	-8.27
195.303	-9.78
195.684	-14.45
196.065	-36.12
196.447	-14.31
196.828	-13.42
197.209	-16.87
197.59	-19.22
197.971	-24.37
198.352	-24.28
198.733	-12.67
199.114	-9.49
199.495	-4.66
199.876	-5.22
200.257	-10.69
200.638	-7.36
201.018	-3.98
201.399	-17.48
201.78	-36.97
202.16	-50.15
202.541	-28.17
202.922	-47.72
203.302	-40.38
203.683	-35.32
204.063	-23.88
204.444	-38.61
204.824	-50.14
205.204	-52.77
205.585	-78.82
205.965	-126.36
206.345	-92.06
206.725	-91.21
207.106	-49.05
207.486	-57.57
207.866	-61.87
208.246	-37.96
208.626	-60.02
209.006	-82.83
209.386	-79.2
209.766	-51.93
210.145	-50.58
210.525	-156.96
210.905	-102.35
211.285	-89.52
211.664	-44.22
212.044	-91.87
212.424	-40.82
212.803	-19.82
213.183	8.92
213.562	26.54
213.942	37.05
214.321	38.15
214.701	41.42
215.08	24.63
215.459	53.93
215.838	17.07
216.218	-13.78
216.597	-6.67
216.976	-15.6
217.355	-26.82
217.734	-59.33
218.113	-29.3
218.492	-19.99
218.871	-1.04
219.25	-4.01
219.629	-19.75
220.008	-3.01
220.387	-19.34
220.766	-23.56
221.144	-35.62
221.523	-28.55
221.902	-41.32
222.28	-22.71
222.659	-19.89
223.037	-24.2
223.416	-31.68
223.794	-15.16
224.173	-24.06
224.551	-9.77
224.929	-7.23
225.308	-3.28
225.686	7.37
226.064	-1.33
226.442	4.16
226.821	-4.98
227.199	-4.92
227.577	-6.55
227.955	-8.33
228.333	-8.31
228.711	-5.43
229.089	-3.58
229.467	-6.19
229.845	-5.91
230.222	-2.9
230.6	-1.27
230.978	2.44
231.356	4.99
231.733	1.77
232.111	3.9
232.488	0.45
232.866	3.3
233.243	2.31
233.621	4.4
233.998	4.11
234.376	2.76
234.753	3.23
235.13	3.4
235.508	3.27
235.885	5.03
236.262	4.88
236.639	2.45
237.016	0.46
237.393	1.1
237.77	2.53
238.147	1.76
238.524	1.82
238.901	1.23
239.278	1.04
239.655	2.08
240.032	2.58
240.409	2.66
240.785	1.75
241.162	2.35
241.539	1.52
241.915	1.65
242.292	1.95
242.668	2.66
243.045	3.04
243.421	3.53
243.798	3.29
244.174	3.54
244.551	3.82
244.927	4
245.303	4.04
245.679	3.89
246.056	3.7
246.432	3.65
246.808	3.55
247.184	3.42
247.56	3.17
247.936	3.07
248.312	3.31
248.688	3.53
249.064	3.37
249.44	3.49
249.815	3.5
250.191	3.49
250.567	3.53
250.943	3.5
251.318	3.38
251.694	3.47
252.069	3.58
252.445	3.67
252.82	3.8
253.196	3.91
253.571	4.06
253.947	3.92
254.322	3.8
254.697	3.83
255.073	3.72
255.448	4.06
255.823	3.95
256.198	3.59
256.573	3.67
256.948	3.87
257.323	3.86
257.698	3.68
258.073	3.47
258.448	3.28
258.823	3.17
259.198	3.12
259.573	3.27
259.948	3.15
260.322	3.03
260.697	3.15
261.072	2.89
261.446	2.85
261.821	2.88
262.195	3
262.57	3.03
262.944	3.13
263.319	3.15
263.693	3.09
264.067	3.17
264.442	2.91
264.816	2.7
265.19	2.64
265.564	2.65
265.938	2.76
266.313	2.68
266.687	2.73
267.061	2.71
267.435	2.69
267.809	2.7
268.183	2.69
268.556	2.46
268.93	2.94
269.304	2.88
269.678	2.86
270.051	2.76
270.425	2.68
270.799	2.6
271.172	2.47
271.546	2.6
271.919	2.58
272.293	2.77
272.666	2.92
273.04	3
273.413	3.07
273.787	2.95
274.16	2.95
274.533	3.11
274.906	3.24
275.279	3.1
275.653	3.22
276.026	3.37
276.399	3.49
276.772	3.26
277.145	3.32
277.518	3.45
277.891	3.67
278.263	3.56
278.636	3.6
279.009	3.65
279.382	3.61
279.755	3.56
280.127	3.39
280.5	3.34
280.872	3.35
281.245	3.25
281.617	3.51
281.99	3.49
282.362	3.36
282.735	3.36
283.107	3.23
283.479	3.17
283.852	3.14
284.224	3.23
284.596	3.04
284.968	2.93
285.34	2.73
285.713	2.64
286.085	2.64
286.457	2.72
286.829	2.7
287.201	2.68
287.572	2.74
287.944	2.96
288.316	2.84
288.688	2.8
289.06	2.89
289.431	2.75
289.803	2.81
290.175	2.73
290.546	2.63
290.918	2.77
291.289	2.74
291.661	2.63
292.032	2.49
292.403	2.6
292.775	2.83
293.146	2.91
293.517	2.84
293.889	2.94
294.26	2.82
294.631	2.78
295.002	2.88
295.373	2.94
295.744	2.76
296.115	2.89
296.486	2.83
296.857	2.82
297.228	2.78
297.599	2.64
297.97	2.86
298.34	2.95
298.711	3
299.082	2.98
299.452	3.06
299.823	2.96
300.194	2.89
300.564	2.74
300.935	2.84
301.305	2.97
301.676	2.97
302.046	3.05
302.416	3.19
302.787	3.03
303.157	2.99
303.527	3
303.897	2.88
304.267	2.84
304.637	2.82
305.008	3.01
305.378	3.18
305.748	3.06
306.117	2.84
306.487	2.8
306.857	2.83
307.227	2.96
307.597	3.06
307.967	3.19
308.336	3.24
308.706	3.17
309.076	3.09
309.445	3.19
309.815	3.22
310.184	3.12
310.554	3.17
310.923	3.13
311.293	3.25
311.662	3.35
312.031	3.44
312.401	3.39
312.77	3.2
313.139	3.14
313.508	3.06
313.877	3.14
314.246	2.99
314.616	2.96
314.985	2.8
315.353	2.87
315.722	2.83
316.091	2.76
316.46	2.78
316.829	2.82
317.198	2.69
317.567	2.61
317.935	2.65
318.304	2.71
318.672	2.67
319.041	2.48
319.41	2.43
319.778	2.38
320.147	2.38
320.515	2.47
320.883	2.44
321.252	2.47
321.62	2.5
321.988	2.65
322.357	2.71
322.725	2.75
323.093	2.61
323.461	2.5
323.829	2.49
324.197	2.48
324.565	2.56
324.933	2.58
325.301	2.45
325.669	2.46
326.037	2.5
326.405	2.55
326.772	2.5
327.14	2.47
327.508	2.42
327.875	2.38
328.243	2.33
328.61	2.3
328.978	2.41
329.346	2.49
329.713	2.54
330.08	2.44
330.448	2.46
330.815	2.45
331.182	2.57
331.55	2.58
331.917	2.59
332.284	2.52
332.651	2.52
333.018	2.62
333.385	2.58
333.752	2.61
334.119	2.67
334.486	2.78
334.853	2.79
335.22	2.82
335.587	2.8
335.954	2.88
336.32	2.82
336.687	2.74
337.054	2.67
337.42	2.57
337.787	2.6
338.153	2.64
338.52	2.7
338.886	2.81
339.253	2.66
339.619	2.68
339.986	2.61
340.352	2.62
340.718	2.64
341.084	2.61
341.451	2.52
341.817	2.4
342.183	2.39
342.549	2.42
342.915	2.46
343.281	2.46
343.647	2.46
344.013	2.58
344.379	2.55
344.745	2.54
345.11	2.53
345.476	2.57
345.842	2.59
346.208	2.6
346.573	2.53
346.939	2.6
347.304	2.57
347.67	2.54
348.035	2.5
348.401	2.54
348.766	2.51
349.132	2.52
349.497	2.58
349.862	2.65
350.228	2.73
350.593	2.7
350.958	2.76
351.323	2.69
351.688	2.57
352.053	2.59
352.418	2.56
352.783	2.53
353.148	2.45
353.513	2.35
353.878	2.35
354.243	2.25
354.608	2.34
354.972	2.36
355.337	2.43
355.702	2.43
356.066	2.36
356.431	2.42
356.795	2.44
357.16	2.44
357.524	2.37
357.889	2.29
358.253	2.33
358.618	2.32
358.982	2.29
359.346	2.36
359.71	2.33
360.075	2.35
360.439	2.43
360.803	2.48
361.167	2.46
361.531	2.4
361.895	2.44
362.259	2.41
362.623	2.4
362.987	2.33
363.351	2.34
363.714	2.37
364.078	2.36
364.442	2.32
364.806	2.33
365.169	2.36
365.533	2.35
365.896	2.37
366.26	2.32
366.623	2.4
366.987	2.42
367.35	2.48
367.714	2.54
368.077	2.46
368.44	2.5
368.803	2.56
369.167	2.56
369.53	2.61
369.893	2.64
370.256	2.61
370.619	2.64
370.982	2.64
371.345	2.61
371.708	2.55
372.071	2.57
372.434	2.55
372.797	2.53
373.159	2.5
373.522	2.48
373.885	2.53
374.247	2.52
374.61	2.53
374.973	2.54
375.335	2.5
375.698	2.52
376.06	2.49
376.423	2.49
376.785	2.52
377.147	2.49
377.51	2.5
377.872	2.5
378.234	2.55
378.596	2.52
378.958	2.56
379.321	2.59
379.683	2.61
380.045	2.56
380.407	2.6
380.769	2.62
381.13	2.64
381.492	2.63
381.854	2.64
382.216	2.68
382.578	2.65
382.939	2.68
383.301	2.65
383.663	2.69
384.024	2.66
384.386	2.64
384.747	2.64
385.109	2.63
385.47	2.68
385.832	2.62
386.193	2.65
386.554	2.65
386.916	2.67
387.277	2.64
387.638	2.7
387.999	2.7
388.36	2.71
388.721	2.71
389.082	2.67
389.443	2.67
389.804	2.66
390.165	2.66
390.526	2.65
390.887	2.71
391.248	2.68
391.609	2.71
391.969	2.74
392.33	2.76
392.691	2.78
393.051	2.76
393.412	2.8
393.772	2.82
394.133	2.79
394.493	2.79
394.854	2.81
395.214	2.82
395.574	2.8
395.935	2.79
396.295	2.76
396.655	2.8
397.015	2.77
397.376	2.76
397.736	2.76
398.096	2.73
398.456	2.7
398.816	2.67
399.176	2.64
399.535	2.6
399.895	2.58
400.255	2.55
400.615	2.57
400.975	2.56
401.334	2.52
401.694	2.53
402.054	2.51
402.413	2.48
402.773	2.43
403.132	2.41
403.492	2.39
403.851	2.43
404.211	2.45
404.57	2.48
404.929	2.43
405.288	2.44
405.648	2.45
406.007	2.44
406.366	2.48
406.725	2.5
407.084	2.54
407.443	2.53
407.802	2.53
408.161	2.52
408.52	2.52
408.879	2.54
409.238	2.54
409.596	2.56
409.955	2.57
410.314	2.59
410.673	2.6
411.031	2.64
411.39	2.63
411.748	2.61
412.107	2.59
412.465	2.61
412.824	2.57
413.182	2.56
413.54	2.58
413.899	2.54
414.257	2.55
414.615	2.55
414.974	2.55
415.332	2.56
415.69	2.54
416.048	2.52
416.406	2.51
416.764	2.51
417.122	2.5
417.48	2.52
417.838	2.52
418.195	2.51
418.553	2.49
418.911	2.51
419.269	2.51
419.626	2.52
419.984	2.52
420.342	2.55
420.699	2.55
421.057	2.55
421.414	2.56
421.772	2.56
422.129	2.53
422.486	2.54
422.844	2.54
423.201	2.55
423.558	2.55
423.915	2.56
424.273	2.56
424.63	2.58
424.987	2.58
425.344	2.59
425.701	2.59
426.058	2.59
426.415	2.57
426.772	2.56
427.128	2.56
427.485	2.57
427.842	2.56
428.199	2.56
428.555	2.56
428.912	2.55
429.269	2.54
429.625	2.57
429.982	2.55
430.338	2.54
430.695	2.53
431.051	2.54
431.407	2.53
431.764	2.54
432.12	2.53
432.476	2.53
432.832	2.53
433.189	2.54
433.545	2.54
433.901	2.54
434.257	2.55
434.613	2.54
434.969	2.54
435.325	2.54
435.681	2.52
436.036	2.53
436.392	2.54
436.748	2.54
437.104	2.54
437.459	2.58
437.815	2.57
438.171	2.59
438.526	2.58
438.882	2.59
439.237	2.58
439.593	2.59
439.948	2.59
440.304	2.58
440.659	2.59
441.014	2.58
441.369	2.6
441.725	2.61
442.08	2.61
442.435	2.6
442.79	2.6
443.145	2.6
443.5	2.59
443.855	2.59
444.21	2.6
444.565	2.6
444.92	2.57
445.275	2.58
445.629	2.58
445.984	2.59
446.339	2.6
446.693	2.6
447.048	2.57
447.403	2.57
447.757	2.56
448.112	2.56
448.466	2.57
448.82	2.56
449.175	2.56
449.529	2.57
449.883	2.57
450.238	2.59
450.592	2.58
450.946	2.6
451.3	2.59
451.654	2.59
452.008	2.58
452.362	2.58
452.716	2.57
453.07	2.57
453.424	2.55
453.778	2.53
454.132	2.54
454.486	2.54
454.839	2.56
455.193	2.59
455.547	2.58
455.9	2.59
456.254	2.6
456.607	2.6
456.961	2.57
457.314	2.59
457.668	2.6
458.021	2.59
458.375	2.58
458.728	2.6
459.081	2.6
459.434	2.6
459.787	2.6
460.141	2.59
460.494	2.6
460.847	2.6
461.2	2.6
461.553	2.6
461.906	2.61
462.259	2.6
462.611	2.58
462.964	2.57
463.317	2.55
463.67	2.53
464.022	2.52
464.375	2.53
464.728	2.51
465.08	2.48
465.433	2.49
465.785	2.51
466.138	2.51
466.49	2.51
466.843	2.54
467.195	2.54
467.547	2.56
467.899	2.57
468.252	2.59
468.604	2.59
468.956	2.62
469.308	2.6
469.66	2.64
470.012	2.65
470.364	2.67
470.716	2.68
471.068	2.7
471.42	2.72
471.772	2.73
472.123	2.74
472.475	2.76
472.827	2.77
473.178	2.76
473.53	2.75
473.882	2.75
474.233	2.75
474.585	2.76
474.936	2.75
475.288	2.73
475.639	2.72
475.99	2.72
476.342	2.69
476.693	2.71
477.044	2.68
477.395	2.67
477.746	2.67
478.097	2.67
478.448	2.66
478.8	2.64
479.15	2.65
479.501	2.65
479.852	2.63
480.203	2.63
480.554	2.63
480.905	2.64
481.255	2.63
481.606	2.64
481.957	2.65
482.307	2.65
482.658	2.66
483.009	2.65
483.359	2.66
483.709	2.66
484.06	2.67
484.41	2.67
484.761	2.68
485.111	2.68
485.461	2.69
485.811	2.7
486.162	2.7
486.512	2.69
486.862	2.69
487.212	2.7
487.562	2.7
487.912	2.7
488.262	2.69
488.612	2.69
488.961	2.68
489.311	2.68
489.661	2.69
490.011	2.68
490.36	2.68
490.71	2.68
491.06	2.68
491.409	2.68
491.759	2.68
492.108	2.67
492.458	2.66
492.807	2.65
493.157	2.66
493.506	2.66
493.855	2.67
494.204	2.67
494.554	2.67
494.903	2.66
495.252	2.69
495.601	2.69
495.95	2.71
496.299	2.71
496.648	2.73
496.997	2.74
497.346	2.75
497.695	2.75
498.043	2.78
498.392	2.78
498.741	2.77
499.09	2.78
499.438	2.79
499.787	2.8
500.135	2.8
500.484	2.79
500.832	2.79
501.181	2.8
501.529	2.82
501.878	2.83
502.226	2.84
502.574	2.82
502.923	2.82
503.271	2.82
503.619	2.83
503.967	2.79
504.315	2.78
504.663	2.79
505.011	2.78
505.359	2.76
505.707	2.78
506.055	2.78
506.403	2.79
506.751	2.77
507.098	2.79
507.446	2.8
507.794	2.79
508.141	2.81
508.489	2.79
508.837	2.8
509.184	2.81
509.531	2.8
509.879	2.8
510.226	2.8
510.574	2.79
510.921	2.78
511.268	2.81
511.616	2.82
511.963	2.82
512.31	2.83
512.657	2.83
513.004	2.81
513.351	2.81
513.698	2.8
514.045	2.8
514.392	2.78
514.739	2.8
515.086	2.81
515.432	2.8
515.779	2.81
516.126	2.82
516.473	2.8
516.819	2.82
517.166	2.83
517.512	2.83
517.859	2.85
518.205	2.85
518.552	2.85
518.898	2.85
519.245	2.85
519.591	2.86
519.937	2.86
520.283	2.88
520.629	2.89
520.976	2.89
521.322	2.89
521.668	2.9
522.014	2.9
522.36	2.9
522.706	2.92
523.052	2.92
523.398	2.89
523.743	2.92
524.089	2.92
524.435	2.93
524.781	2.94
525.126	2.93
525.472	2.94
525.817	2.94
526.163	2.93
526.509	2.93
526.854	2.93
527.199	2.94
527.545	2.95
527.89	2.97
528.235	2.97
528.581	2.98
528.926	2.99
529.271	2.99
529.616	2.99
529.961	2.98
530.306	2.99
530.651	2.98
530.996	2.98
531.341	2.98
531.686	2.99
532.031	2.98
532.376	2.98
532.721	2.99
533.065	2.98
533.41	2.99
533.755	2.99
534.099	3
534.444	2.99
534.788	2.97
535.133	2.97
535.477	2.98
535.822	2.98
536.166	2.97
536.51	2.98
536.855	2.96
537.199	2.99
537.543	2.97
537.887	2.99
538.231	2.99
538.576	2.98
538.92	2.97
539.264	2.98
539.608	2.99
539.951	2.98
540.295	3
540.639	3
540.983	3
541.327	3
541.671	3.01
542.014	3.01
542.358	3
542.701	3.01
543.045	3
543.389	3.02
543.732	3
544.075	3.02
544.419	3.02
544.762	3.03
545.105	3.03
545.449	3.04
545.792	3.05
546.135	3.06
546.478	3.06
546.821	3.05
547.165	3.05
547.508	3.05
547.851	3.05
548.194	3.04
548.536	3.03
548.879	3.03
549.222	3.05
549.565	3.05
549.908	3.04
550.25	3.05
550.593	3.04
550.936	3.06
551.278	3.07
551.621	3.04
551.963	3.06
552.306	3.05
552.648	3.03
552.991	3.03
553.333	3.01
553.675	3.02
554.017	3.04
554.36	3.05
554.702	3.04
555.044	3.02
555.386	3.01
555.728	3.03
556.07	3.01
556.412	3.01
556.754	2.99
557.096	2.97
557.438	2.95
557.78	2.94
558.121	2.94
558.463	2.93
558.805	2.92
559.147	2.9
559.488	2.88
559.83	2.89
560.171	2.89
560.513	2.9
560.854	2.91
561.196	2.88
561.537	2.89
561.878	2.89
562.22	2.92
562.561	2.94
562.902	2.91
563.243	2.93
563.584	2.92
563.925	2.93
564.266	2.94
564.607	2.94
564.948	2.93
565.289	2.92
565.63	2.9
565.971	2.95
566.312	2.94
566.653	2.96
566.993	2.96
567.334	2.96
567.675	2.95
568.015	2.93
568.356	2.93
568.696	2.94
569.037	2.94
569.377	2.89
569.718	2.9
570.058	2.9
570.398	2.89
570.739	2.88
571.079	2.89
571.419	2.9
571.759	2.89
572.099	2.9
572.439	2.92
572.779	2.94
573.119	2.93
573.459	2.94
573.799	2.93
574.139	2.94
574.479	2.94
574.819	2.93
575.158	2.96
575.498	2.99
575.838	2.98
576.177	2.96
576.517	3.03
576.856	3.01
577.196	3.02
577.535	3.03
577.875	3.02
578.214	2.99
578.553	2.97
578.893	3.01
579.232	3
579.571	2.99
579.91	2.98
580.25	2.94
580.589	2.95
580.928	2.93
581.267	2.93
581.606	2.96
581.945	3
582.283	3.02
582.622	2.95
582.961	2.94
583.3	2.94
583.639	2.91
583.977	2.9
584.316	2.92
584.654	2.94
584.993	2.94
585.332	2.97
585.67	3.01
586.008	3.01
586.347	3.05
586.685	3.06
587.024	3.07
587.362	3.08
587.7	3.1
588.038	3.12
588.376	3.11
588.715	3.07
589.053	3.09
589.391	3.03
589.729	3.05
590.067	3.06
590.404	3.08
590.742	3.1
591.08	3.12
591.418	3.12
591.756	3.08
592.093	3.08
592.431	3.07
592.769	3.06
593.106	3.04
593.444	3.04
593.781	3.03
594.119	3.01
594.456	3.01
594.793	3.03
595.131	3.03
595.468	3.07
595.805	3.09
596.143	3.05
596.48	3.08
596.817	3.09
597.154	3.12
597.491	3.1
597.828	3.1
598.165	3.09
598.502	3.06
598.839	3.07
599.176	3.09
599.512	3.08
599.849	3.09
600.186	3.09
600.523	3.06
600.859	3.09
601.196	3.11
601.532	3.12
601.869	3.12
602.205	3.11
602.542	3.08
602.878	3.09
603.215	3.09
603.551	3.06
603.887	3.07
604.223	3.06
604.56	3.06
604.896	3.1
605.232	3.13
605.568	3.17
605.904	3.16
606.24	3.19
606.576	3.2
606.912	3.18
607.248	3.18
607.583	3.21
607.919	3.2
608.255	3.21
608.591	3.21
608.926	3.21
609.262	3.18
609.597	3.15
609.933	3.14
610.268	3.16
610.604	3.17
610.939	3.19
611.275	3.21
611.61	3.21
611.945	3.13
612.281	3.12
612.616	3.15
612.951	3.19
613.286	3.14
613.621	3.13
613.956	3.17
614.291	3.2
614.626	3.22
614.961	3.23
615.296	3.23
615.631	3.24
615.966	3.24
616.3	3.31
616.635	3.34
616.97	3.36
617.304	3.35
617.639	3.39
617.973	3.37
618.308	3.36
618.642	3.4
618.977	3.41
619.311	3.35
619.646	3.33
619.98	3.32
620.314	3.32
620.648	3.33
620.983	3.29
621.317	3.28
621.651	3.24
621.985	3.25
622.319	3.25
622.653	3.22
622.987	3.22
623.321	3.18
623.655	3.22
623.988	3.25
624.322	3.26
624.656	3.24
624.99	3.24
625.323	3.24
625.657	3.23
625.99	3.28
626.324	3.32
626.657	3.3
626.991	3.28
627.324	3.28
627.658	3.26
627.991	3.31
628.324	3.33
628.657	3.36
628.991	3.33
629.324	3.33
629.657	3.34
629.99	3.35
630.323	3.37
630.656	3.29
630.989	3.3
631.322	3.27
631.655	3.28
631.987	3.27
632.32	3.24
632.653	3.23
632.986	3.18
633.318	3.23
633.651	3.26
633.984	3.28
634.316	3.31
634.649	3.35
634.981	3.33
635.313	3.28
635.646	3.26
635.978	3.32
636.31	3.34
636.643	3.34
636.975	3.33
637.307	3.34
637.639	3.34
637.971	3.31
638.303	3.31
638.635	3.28
638.967	3.29
639.299	3.36
639.631	3.41
639.963	3.41
640.295	3.42
640.626	3.44
640.958	3.4
641.29	3.4
641.621	3.38
641.953	3.28
642.285	3.34
642.616	3.38
642.948	3.38
643.279	3.36
643.61	3.38
643.942	3.45
644.273	3.49
644.604	3.53
644.936	3.52
645.267	3.54
645.598	3.52
645.929	3.47
646.26	3.47
646.591	3.4
646.922	3.51
647.253	3.42
647.584	3.37
647.915	3.4
648.245	3.44
648.576	3.48
648.907	3.55
649.238	3.51
649.568	3.46
649.899	3.39
650.229	3.45
650.56	3.41
650.89	3.32
651.221	3.32
651.551	3.35
651.882	3.35
652.212	3.35
652.542	3.38
652.872	3.41
653.203	3.41
653.533	3.45
653.863	3.41
654.193	3.37
654.523	3.34
654.853	3.4
655.183	3.37
655.513	3.4
655.843	3.38
656.172	3.42
656.502	3.4
656.832	3.46
657.162	3.37
657.491	3.43
657.821	3.47
658.15	3.4
658.48	3.41
658.809	3.45
659.139	3.45
659.468	3.47
659.798	3.55
660.127	3.55
660.456	3.54
660.785	3.49
661.115	3.54
661.444	3.66
661.773	3.65
662.102	3.64
662.431	3.63
662.76	3.64
663.089	3.67
663.418	3.67
663.747	3.62
664.076	3.7
664.404	3.74
664.733	3.76
665.062	3.78
665.39	3.83
665.719	3.88
666.048	3.88
666.376	3.88
666.705	3.86
667.033	3.84
667.362	3.83
667.69	3.85
668.018	3.95
668.347	3.79
668.675	3.78
669.003	3.71
669.331	3.76
669.659	3.78
669.987	3.72
670.315	3.77
670.643	3.86
670.971	3.84
671.299	3.75
671.627	3.73
671.955	3.73
672.283	3.71
672.61	3.62
672.938	3.63
673.266	3.54
673.593	3.44
673.921	3.41
674.249	3.4
674.576	3.43
674.904	3.29
675.231	3.46
675.558	3.48
675.886	3.64
676.213	3.59
676.54	3.64
676.867	3.66
677.195	3.75
677.522	3.67
677.849	3.64
678.176	3.66
678.503	3.65
678.83	3.71
679.157	3.63
679.484	3.64
679.81	3.66
680.137	3.84
680.464	3.87
680.791	3.83
681.117	3.89
681.444	3.91
681.771	4.02
682.097	4.02
682.424	3.98
682.75	3.91
683.077	3.9
683.403	3.89
683.729	3.9
684.056	3.76
684.382	3.85
684.708	3.85
685.034	3.84
685.36	3.84
685.686	3.81
686.012	3.93
686.339	3.9
686.664	3.87
686.99	3.76
687.316	3.84
687.642	3.99
687.968	4
688.294	3.97
688.619	3.96
688.945	3.86
689.271	3.84
689.596	3.84
689.922	3.89
690.247	3.98
690.573	3.91
690.898	4.02
691.224	3.93
691.549	3.96
691.874	3.96
692.2	3.99
692.525	3.99
692.85	3.91
693.175	4
693.5	3.92
693.825	4.02
694.15	3.99
694.475	3.91
694.8	3.88
695.125	3.91
695.45	3.83
695.775	3.82
696.099	3.91
696.424	3.88
696.749	3.88
697.073	3.83
697.398	3.91
697.723	3.89
698.047	3.91
698.372	3.97
698.696	3.95
699.02	4
699.345	4.04
699.669	4.12
699.993	4.05
700.318	4.2
700.642	4.13
700.966	4.12
701.29	4.08
701.614	4.06
701.938	4.04
702.262	4.11
702.586	4.11
702.91	4.1
703.234	4.14
703.557	4.15
703.881	4.18
704.205	4.2
704.529	4.16
704.852	4.08
705.176	4.08
705.499	4.12
705.823	4.11
706.146	4.12
706.47	4.07
706.793	4.16
707.117	4.03
707.44	3.98
707.763	4.08
708.086	4.15
708.409	4.24
708.733	4.22
709.056	4.15
709.379	4.28
709.702	4.31
710.025	4.4
710.348	4.37
710.671	4.23
710.993	4.23
711.316	4.32
711.639	4.48
711.962	4.54
712.284	4.66
712.607	4.69
712.93	4.7
713.252	4.65
713.575	4.66
713.897	4.71
714.22	4.82
714.542	4.71
714.864	4.72
715.187	4.56
715.509	4.45
715.831	4.54
716.153	4.48
716.475	4.5
716.798	4.49
717.12	4.51
717.442	4.64
717.764	4.49
718.085	4.5
718.407	4.46
718.729	4.39
719.051	4.22
719.373	4.17
719.695	4.1
720.016	4.16
720.338	4.17
720.659	4.26
720.981	4.23
721.302	4.48
721.624	4.43
721.945	4.65
722.267	4.77
722.588	4.74
722.909	4.89
723.231	4.79
723.552	4.63
723.873	4.64
724.194	4.51
724.515	4.74
724.836	4.59
725.157	4.68
725.478	4.61
725.799	4.77
726.12	4.69
726.441	4.58
726.762	4.44
727.083	4.44
727.403	4.4
727.724	4.4
728.045	4.19
728.365	4.19
728.686	4.25
729.006	4.34
729.327	4.34
729.647	4.11
729.967	4.06
730.288	4.22
730.608	4.22
730.928	4.31
731.249	4.36
731.569	4.63
731.889	4.47
732.209	4.49
732.529	4.31
732.849	4.52
733.169	4.65
733.489	4.68
733.809	4.67
734.129	4.76
734.448	4.69
734.768	4.67
735.088	4.69
735.408	4.72
735.727	4.81
736.047	4.97
736.366	5
736.686	5.08
737.005	5.17
737.325	5.13
737.644	5.26
737.963	5.06
738.283	4.95
738.602	5.06
738.921	5.26
739.24	5.44
739.56	5.4
739.879	5.32
740.198	5.48
740.517	5.54
740.836	5.39
741.155	5.66
741.473	5.67
741.792	5.74
742.111	5.62
742.43	5.69
742.748	5.69
743.067	5.87
743.386	5.89
743.704	5.71
744.023	5.75
744.341	5.55
744.66	5.73
744.978	5.75
745.297	5.64
745.615	5.39
745.933	5.38
746.252	5.32
746.57	5.44
746.888	5.4
747.206	5.47
747.524	5.69
747.842	5.37
748.16	5.61
748.478	5.64
748.796	5.8
749.114	5.6
749.432	5.4
749.749	5.19
750.067	5.33
750.385	5.26
750.703	5.13
751.02	5.27
751.338	4.97
751.655	4.61
751.973	4.62
752.29	4.71
752.608	4.8
752.925	4.87
753.242	4.91
753.56	4.81
753.877	4.8
754.194	4.83
754.511	5.04
754.828	4.64
755.145	4.32
755.462	4.06
755.779	4.09
756.096	4.16
756.413	4.53
756.73	4.48
757.047	4.37
757.364	4.6
757.68	4.61
757.997	5.01
758.314	5.4
758.63	5.32
758.947	5.45
759.264	5.38
759.58	5.42
759.896	5.25
760.213	5.33
760.529	5.41
760.846	5.41
761.162	5.42
761.478	5.67
761.794	5.95
762.11	6.02
762.426	5.98
762.743	6.06
763.059	5.86
763.375	5.89
763.69	6.09
764.006	6.06
764.322	6.17
764.638	6.34
764.954	6.36
765.27	6.49
765.585	6.43
765.901	6.38
766.216	6.25
766.532	6.2
766.848	6.12
767.163	6.04
767.478	5.97
767.794	5.91
768.109	5.77
768.424	5.63
768.74	5.51
769.055	5.73
769.37	5.49
769.685	5.52
770	5.5
770.315	5.52
770.63	5.37
770.945	5.23
771.26	4.79
771.575	4.72
771.89	4.67
772.205	4.83
772.52	4.85
772.834	4.72
773.149	5.04
773.464	5.28
773.778	5.07
774.093	4.99
774.407	5.02
774.722	5.09
775.036	5.38
775.351	5.64
775.665	5.56
775.979	5.94
776.293	6.27
776.608	6.15
776.922	6.17
777.236	6.31
777.55	6.09
777.864	5.8
778.178	5.57
778.492	5.7
778.806	5.54
779.12	5.36
779.434	5.81
779.747	5.93
780.061	6.06
780.375	6.5
780.689	6.21
781.002	5.7
781.316	6.01
781.629	5.81
781.943	5.53
782.256	5.28
782.57	5.06
782.883	5
783.196	5.07
783.51	5.04
783.823	4.93
784.136	5.12
784.449	5.84
784.762	6.24
785.075	6.26
785.388	6.05
785.701	6.22
786.014	5.8
786.327	5.23
786.64	5.13
786.953	4.84
787.266	4.71
787.578	5.33
787.891	5.17
788.204	5.45
788.516	5.54
788.829	5.66
789.141	5.58
789.454	5.29
789.766	5.47
790.079	5.31
790.391	5.27
790.703	5.08
791.016	5.12
791.328	5.25
791.64	5.09
791.952	5.4
792.264	4.94
792.576	5.49
792.888	5.96
793.2	5.82
793.512	6.04
793.824	6.49
794.136	6.48
794.448	6.49
794.76	6.29
795.071	6.51
795.383	6.55
795.695	6.67
796.006	6.57
796.318	6.34
796.629	6.38
796.941	6.65
797.252	6.85
797.564	6.43
797.875	6.01
798.186	6.02
798.497	5.87
798.809	6.65
799.12	6.61
799.431	6.63
799.742	7.09
800.053	6.47
800.364	6.39
800.675	6.41
800.986	6.67
801.297	6.97
801.608	6.72
801.918	6.97
802.229	6.88
802.54	6.89
802.851	7.03
803.161	6.99
803.472	6.98
803.782	7.14
804.093	6.95
804.403	6.72
804.714	6.77
805.024	6.61
805.334	6.19
805.645	5.54
805.955	5.15
806.265	4.68
806.575	4.93
806.885	5.11
807.195	4.92
807.505	4.37
807.815	3.76
808.125	3.69
808.435	3.39
808.745	3.37
809.055	3.59
809.365	3.37
809.674	3.62
809.984	3.21
810.294	3.56
810.603	3.57
810.913	3.53
811.222	3.11
811.532	2.99
811.841	3.45
812.151	3.94
812.46	4.4
812.769	4.59
813.079	4.62
813.388	4.7
813.697	4.88
814.006	5.43
814.315	5.41
814.624	5.44
814.933	5.28
815.242	5.7
815.551	6.1
815.86	6.59
816.169	6.46
816.478	7.12
816.786	6.35
817.095	6.93
817.404	7.35
817.712	7.49
818.021	7.99
818.33	7.72
818.638	7.79
818.947	7.67
819.255	7.25
819.563	7.32
819.872	7.21
820.18	7.09
820.488	7.15
820.796	7.49
821.105	7.56
821.413	7.58
821.721	7.41
822.029	7.21
822.337	7.05
822.645	7.12
822.953	7.15
823.26	7.26
823.568	7.15
823.876	7.19
824.184	7.12
824.491	6.99
824.799	6.99
825.107	6.98
825.414	6.91
825.722	6.94
826.029	6.91
826.337	6.95
826.644	7.06
826.951	6.92
827.259	6.87
827.566	6.92
827.873	6.9
828.18	6.99
828.488	7.08
828.795	7.18
829.102	7.04
829.409	6.76
829.716	6.87
830.023	6.83
830.329	7.15
830.636	7.56
830.943	7.98
831.25	8.28
831.557	8.38
831.863	8.59
832.17	8.75
832.476	9.16
832.783	9.34
833.089	9.07
833.396	9.64
833.702	9.61
834.009	9.96
834.315	10.11
834.621	10.08
834.928	10.12
835.234	10.01
835.54	10.29
835.846	10.42
836.152	10.27
836.458	10.61
836.764	10.25
837.07	10.3
837.376	10.26
837.682	10.21
837.988	10.48
838.293	10.8
838.599	10.61
838.905	10.83
839.211	11.01
839.516	11.95
839.822	11.34
840.127	11.75
840.433	11.07
840.738	11.04
841.044	11.98
841.349	11.04
841.654	11.23
841.959	11.36
842.265	13.26
842.57	13.08
842.875	14.06
843.18	13.72
843.485	13.56
843.79	12.96
844.095	13.74
844.4	13.4
844.705	12.66
845.01	13.94
845.315	13.46
845.619	12.89
845.924	11.99
846.229	13.09
846.533	13.58
846.838	14.04
847.142	13.87
847.447	13.06
847.751	15.43
848.056	15.85
848.36	15.6
848.664	14.45
848.969	15.59
849.273	13
849.577	13.25
849.881	13.37
850.185	14.01
850.489	13.58
850.794	12.76
851.097	13.76
851.401	12.88
851.705	12.1
852.009	13.47
852.313	12.09
852.617	12.49
852.92	11.92
853.224	12.81
853.528	12.72
853.831	12.91
854.135	13.62
854.438	13.31
854.742	13.54
855.045	11.63
855.349	9.82
855.652	10.21
855.955	10.24
856.259	10.51
856.562	10.91
856.865	9.02
857.168	7.99
857.471	8.94
857.774	9.53
858.077	10.27
858.38	8.87
858.683	10.78
858.986	9.78
859.289	8.34
859.592	8.27
859.894	12.16
860.197	11.06
860.5	12.06
860.802	12.18
861.105	11.47
861.407	11.96
861.71	13.28
862.012	14.62
862.315	14.9
862.617	14.42
862.919	14.71
863.222	16.72
863.524	18.37
863.826	16.72
864.128	18.12
864.43	21.58
864.732	20.95
865.034	22.35
865.336	24.25
865.638	25.35
865.94	24.94
866.242	23.23
866.544	23.54
866.846	21.57
867.147	21.86
867.449	20.06
867.751	17.99
868.052	17.93
868.354	17.9
868.655	18.97
868.957	18.79
869.258	16.98
869.56	17.15
869.861	15.81
870.162	15.95
870.463	15.84
870.765	12.11
871.066	13.2
871.367	10.72
871.668	7.24
871.969	6.26
872.27	4.57
872.571	3.05
872.872	4.36
873.173	2.79
873.473	0.77
873.774	3.48
874.075	7.96
874.376	4.99
874.676	5.37
874.977	3.55
875.277	4.31
875.578	5.6
875.878	4.13
876.179	5.12
876.479	4.86
876.78	2.63
877.08	2.39
877.38	1.74
877.68	2.41
877.981	4.22
878.281	5.43
878.581	6.98
