Data from BU26847_Reflection_00013.txt Node
Date: Mon Nov 18 16:41:08 EST 2019
User: vgr7
Spectrometer: USB2G7710
Scans to average: 3
Trigger mode: 4
Integration Time (sec): 2.000000E-2
Electric dark correction enabled: true
Boxcar width: 10
XAxis mode: Wavelengths
Number of Pixels in Spectrum: 2048
>>>>>Begin Spectral Data<<<<<
177.721	-131.07
178.105	-329.38
178.488	-5998.04
178.871	-557.66
179.254	572.87
179.636	-55.25
180.019	12.97
180.402	84.21
180.785	986.18
181.168	766.67
181.55	-233.33
181.933	144.85
182.316	154.22
182.698	243.45
183.081	126.79
183.463	395.42
183.846	277.97
184.228	536.96
184.611	1996.97
184.993	36211.11
185.376	641.37
185.758	-25344.44
186.14	1875.19
186.522	1681.56
186.904	-650.92
187.287	-1039.3
187.669	-127.1
188.051	-198.64
188.433	-100.37
188.815	-44.85
189.197	-42.66
189.579	-70.5
189.961	-39.23
190.342	0.85
190.724	19
191.106	-3.66
191.488	24.54
191.869	18.12
192.251	11.75
192.633	8.67
193.014	-19.46
193.396	-0.04
193.777	-2.08
194.159	-26.21
194.54	-19.59
194.922	-26.38
195.303	-8.12
195.684	-13.99
196.065	26.66
196.447	-6.4
196.828	2.55
197.209	-23.53
197.59	-74.08
197.971	-163.39
198.352	-97.28
198.733	-149.15
199.114	-134.08
199.495	-108.57
199.876	-118.26
200.257	-69.93
200.638	-66.91
201.018	-69.29
201.399	-68.25
201.78	-79.77
202.16	-78.59
202.541	-152.53
202.922	-1702.72
203.302	-3221.84
203.683	700.85
204.063	435.44
204.444	485.53
204.824	548.11
205.204	625.93
205.585	599.31
205.965	542.18
206.345	368.21
206.725	269.76
207.106	358.39
207.486	303.74
207.866	304.7
208.246	519.08
208.626	1034.56
209.006	494.35
209.386	544.1
209.766	1030.02
210.145	1118.21
210.525	1706.61
210.905	-1226.96
211.285	-950.45
211.664	-423.06
212.044	-339.36
212.424	-298.09
212.803	-349.96
213.183	-234.64
213.562	-142.56
213.942	-79.43
214.321	-93.19
214.701	-105.17
215.08	-112.75
215.459	-65
215.838	-58.16
216.218	-81.78
216.597	-82.93
216.976	-78.72
217.355	-87.88
217.734	-88.62
218.113	-42.11
218.492	-53.7
218.871	-35.17
219.25	-31.62
219.629	-33.63
220.008	-39.23
220.387	-25.87
220.766	-0.34
221.144	-6.43
221.523	-20.69
221.902	-64.2
222.28	-74.13
222.659	-58.09
223.037	-42.99
223.416	-46.49
223.794	-40.63
224.173	-30.29
224.551	-17.51
224.929	-17.7
225.308	6.31
225.686	0.06
226.064	3.95
226.442	9.79
226.821	8.29
227.199	2.93
227.577	3.29
227.955	2.38
228.333	2.46
228.711	1.06
229.089	3.34
229.467	2.04
229.845	4.94
230.222	6.49
230.6	6.86
230.978	3.27
231.356	5.82
231.733	5.82
232.111	6.72
232.488	7.29
232.866	8.01
233.243	5.56
233.621	6.47
233.998	7.15
234.376	6.32
234.753	8.31
235.13	7.56
235.508	7.6
235.885	6.06
236.262	4.62
236.639	2.18
237.016	1.74
237.393	2.37
237.77	2.72
238.147	2.69
238.524	2.75
238.901	3.74
239.278	3.41
239.655	3.84
240.032	3.48
240.409	2.87
240.785	2.87
241.162	3.53
241.539	2.81
241.915	1.98
242.292	1.88
242.668	2.24
243.045	3.02
243.421	2.78
243.798	2.89
244.174	3.13
244.551	3.53
244.927	3.59
245.303	3.82
245.679	3.92
246.056	4.11
246.432	3.94
246.808	4
247.184	3.81
247.56	3.58
247.936	3.53
248.312	3.67
248.688	3.56
249.064	3.61
249.44	3.86
249.815	3.97
250.191	4.02
250.567	3.76
250.943	3.51
251.318	3.86
251.694	4.26
252.069	4.18
252.445	4.07
252.82	3.91
253.196	3.94
253.571	3.96
253.947	3.71
254.322	4.18
254.697	4.1
255.073	4.12
255.448	4.29
255.823	4.31
256.198	4.49
256.573	4.66
256.948	4.41
257.323	4.29
257.698	4.1
258.073	4.08
258.448	4.05
258.823	4.02
259.198	3.83
259.573	3.65
259.948	3.56
260.322	3.71
260.697	3.62
261.072	3.57
261.446	3.71
261.821	3.73
262.195	3.81
262.57	3.69
262.944	3.77
263.319	3.52
263.693	3.46
264.067	3.27
264.442	3.31
264.816	3.28
265.19	3.37
265.564	3.49
265.938	3.49
266.313	3.41
266.687	3.57
267.061	3.8
267.435	3.92
267.809	3.99
268.183	3.99
268.556	3.91
268.93	3.92
269.304	3.64
269.678	3.68
270.051	3.63
270.425	3.66
270.799	3.54
271.172	3.83
271.546	3.81
271.919	3.79
272.293	3.73
272.666	3.88
273.04	3.86
273.413	3.88
273.787	3.84
274.16	3.82
274.533	3.82
274.906	3.51
275.279	3.45
275.653	3.39
276.026	3.08
276.399	3.29
276.772	3.32
277.145	3.25
277.518	3.35
277.891	3.11
278.263	3.09
278.636	3.15
279.009	3.07
279.382	3.25
279.755	3.31
280.127	3.49
280.5	3.42
280.872	3.46
281.245	3.37
281.617	3.61
281.99	3.72
282.362	3.75
282.735	3.84
283.107	3.73
283.479	3.76
283.852	3.79
284.224	3.86
284.596	3.82
284.968	3.9
285.34	3.79
285.713	3.83
286.085	3.89
286.457	3.8
286.829	3.81
287.201	3.75
287.572	3.75
287.944	3.64
288.316	3.64
288.688	3.58
289.06	3.63
289.431	3.45
289.803	3.47
290.175	3.36
290.546	3.42
290.918	3.46
291.289	3.5
291.661	3.52
292.032	3.44
292.403	3.59
292.775	3.86
293.146	3.88
293.517	4.01
293.889	4.13
294.26	4.15
294.631	4.17
295.002	4.19
295.373	4.25
295.744	4.27
296.115	4.24
296.486	4.19
296.857	4.24
297.228	4.32
297.599	4.24
297.97	4.39
298.34	4.44
298.711	4.57
299.082	4.49
299.452	4.71
299.823	4.92
300.194	4.79
300.564	4.66
300.935	4.7
301.305	4.51
301.676	4.5
302.046	4.71
302.416	4.82
302.787	4.82
303.157	4.78
303.527	4.71
303.897	4.78
304.267	4.93
304.637	5.02
305.008	4.98
305.378	5.29
305.748	5.41
306.117	5.4
306.487	5.36
306.857	5.52
307.227	5.47
307.597	5.39
307.967	5.51
308.336	5.63
308.706	5.67
309.076	5.79
309.445	5.88
309.815	5.89
310.184	5.76
310.554	5.79
310.923	5.89
311.293	5.93
311.662	5.93
312.031	6
312.401	6.03
312.77	6.22
313.139	6.12
313.508	6.01
313.877	6.05
314.246	6.19
314.616	6.32
314.985	6.3
315.353	6.17
315.722	6.38
316.091	6.32
316.46	6.41
316.829	6.47
317.198	6.47
317.567	6.57
317.935	6.68
318.304	6.75
318.672	6.83
319.041	7.12
319.41	7.23
319.778	7.23
320.147	7.22
320.515	7.18
320.883	7.25
321.252	7.37
321.62	7.64
321.988	7.66
322.357	7.7
322.725	7.87
323.093	8.05
323.461	7.96
323.829	8.03
324.197	8.11
324.565	8.19
324.933	8.22
325.301	8.2
325.669	8.39
326.037	8.45
326.405	8.44
326.772	8.47
327.14	8.49
327.508	8.4
327.875	8.48
328.243	8.59
328.61	8.6
328.978	8.58
329.346	8.57
329.713	8.56
330.08	8.57
330.448	8.59
330.815	8.56
331.182	8.56
331.55	8.52
331.917	8.56
332.284	8.57
332.651	8.71
333.018	8.62
333.385	8.58
333.752	8.76
334.119	8.92
334.486	8.87
334.853	8.74
335.22	8.86
335.587	8.97
335.954	8.9
336.32	8.88
336.687	9.01
337.054	8.94
337.42	8.95
337.787	8.99
338.153	8.94
338.52	9.03
338.886	9.04
339.253	9.03
339.619	9.11
339.986	9.2
340.352	9.21
340.718	9.33
341.084	9.27
341.451	9.22
341.817	9.25
342.183	9.24
342.549	9.43
342.915	9.5
343.281	9.45
343.647	9.5
344.013	9.59
344.379	9.51
344.745	9.62
345.11	9.62
345.476	9.71
345.842	9.8
346.208	9.83
346.573	9.87
346.939	9.99
347.304	9.94
347.67	9.91
348.035	9.82
348.401	9.87
348.766	10.03
349.132	10.06
349.497	9.97
349.862	10.09
350.228	10.16
350.593	10.11
350.958	10.13
351.323	10.23
351.688	10.25
352.053	10.33
352.418	10.19
352.783	10.25
353.148	10.15
353.513	10.1
353.878	10.04
354.243	10.05
354.608	10.03
354.972	9.93
355.337	9.89
355.702	9.93
356.066	9.85
356.431	9.71
356.795	9.68
357.16	9.56
357.524	9.42
357.889	9.35
358.253	9.33
358.618	9.34
358.982	9.25
359.346	9.2
359.71	9.11
360.075	9.09
360.439	9.06
360.803	9.05
361.167	8.99
361.531	8.98
361.895	8.9
362.259	8.87
362.623	8.87
362.987	8.92
363.351	8.86
363.714	8.85
364.078	8.83
364.442	8.7
364.806	8.8
365.169	8.81
365.533	8.74
365.896	8.75
366.26	8.66
366.623	8.6
366.987	8.54
367.35	8.53
367.714	8.51
368.077	8.39
368.44	8.32
368.803	8.4
369.167	8.31
369.53	8.19
369.893	8.15
370.256	8.1
370.619	8.01
370.982	7.97
371.345	7.86
371.708	7.83
372.071	7.78
372.434	7.67
372.797	7.65
373.159	7.63
373.522	7.55
373.885	7.58
374.247	7.6
374.61	7.53
374.973	7.45
375.335	7.47
375.698	7.44
376.06	7.43
376.423	7.35
376.785	7.39
377.147	7.43
377.51	7.34
377.872	7.33
378.234	7.3
378.596	7.27
378.958	7.24
379.321	7.22
379.683	7.27
380.045	7.26
380.407	7.25
380.769	7.17
381.13	7.15
381.492	7.04
381.854	6.93
382.216	6.9
382.578	6.88
382.939	6.76
383.301	6.78
383.663	6.71
384.024	6.63
384.386	6.59
384.747	6.58
385.109	6.6
385.47	6.56
385.832	6.49
386.193	6.45
386.554	6.41
386.916	6.3
387.277	6.22
387.638	6.19
387.999	6.08
388.36	6.07
388.721	6.06
389.082	6
389.443	5.95
389.804	5.91
390.165	5.9
390.526	5.91
390.887	5.83
391.248	5.84
391.609	5.82
391.969	5.8
392.33	5.74
392.691	5.71
393.051	5.65
393.412	5.63
393.772	5.6
394.133	5.6
394.493	5.61
394.854	5.63
395.214	5.58
395.574	5.6
395.935	5.54
396.295	5.54
396.655	5.52
397.015	5.54
397.376	5.51
397.736	5.48
398.096	5.46
398.456	5.45
398.816	5.4
399.176	5.35
399.535	5.29
399.895	5.23
400.255	5.18
400.615	5.14
400.975	5.1
401.334	5.08
401.694	5.03
402.054	4.99
402.413	4.94
402.773	4.88
403.132	4.83
403.492	4.84
403.851	4.79
404.211	4.77
404.57	4.72
404.929	4.7
405.288	4.65
405.648	4.62
406.007	4.63
406.366	4.59
406.725	4.61
407.084	4.59
407.443	4.61
407.802	4.62
408.161	4.61
408.52	4.6
408.879	4.57
409.238	4.58
409.596	4.58
409.955	4.57
410.314	4.59
410.673	4.58
411.031	4.53
411.39	4.51
411.748	4.52
412.107	4.47
412.465	4.49
412.824	4.49
413.182	4.46
413.54	4.4
413.899	4.4
414.257	4.36
414.615	4.35
414.974	4.32
415.332	4.3
415.69	4.29
416.048	4.27
416.406	4.25
416.764	4.23
417.122	4.22
417.48	4.2
417.838	4.19
418.195	4.16
418.553	4.15
418.911	4.14
419.269	4.11
419.626	4.13
419.984	4.1
420.342	4.1
420.699	4.08
421.057	4.07
421.414	4.04
421.772	4.02
422.129	4.02
422.486	4.01
422.844	4
423.201	3.98
423.558	3.98
423.915	3.97
424.273	3.95
424.63	3.92
424.987	3.92
425.344	3.9
425.701	3.92
426.058	3.91
426.415	3.9
426.772	3.9
427.128	3.87
427.485	3.85
427.842	3.84
428.199	3.84
428.555	3.81
428.912	3.82
429.269	3.83
429.625	3.79
429.982	3.78
430.338	3.77
430.695	3.76
431.051	3.76
431.407	3.74
431.764	3.73
432.12	3.72
432.476	3.7
432.832	3.7
433.189	3.7
433.545	3.69
433.901	3.68
434.257	3.69
434.613	3.72
434.969	3.71
435.325	3.71
435.681	3.72
436.036	3.73
436.392	3.72
436.748	3.7
437.104	3.7
437.459	3.7
437.815	3.69
438.171	3.71
438.526	3.71
438.882	3.73
439.237	3.74
439.593	3.77
439.948	3.75
440.304	3.75
440.659	3.76
441.014	3.76
441.369	3.75
441.725	3.74
442.08	3.73
442.435	3.73
442.79	3.72
443.145	3.71
443.5	3.71
443.855	3.7
444.21	3.71
444.565	3.71
444.92	3.72
445.275	3.71
445.629	3.7
445.984	3.7
446.339	3.7
446.693	3.67
447.048	3.66
447.403	3.67
447.757	3.66
448.112	3.65
448.466	3.63
448.82	3.61
449.175	3.62
449.529	3.61
449.883	3.61
450.238	3.59
450.592	3.59
450.946	3.56
451.3	3.56
451.654	3.55
452.008	3.55
452.362	3.51
452.716	3.52
453.07	3.51
453.424	3.5
453.778	3.5
454.132	3.52
454.486	3.51
454.839	3.51
455.193	3.49
455.547	3.46
455.9	3.47
456.254	3.49
456.607	3.46
456.961	3.44
457.314	3.44
457.668	3.45
458.021	3.44
458.375	3.46
458.728	3.46
459.081	3.47
459.434	3.47
459.787	3.48
460.141	3.47
460.494	3.47
460.847	3.49
461.2	3.48
461.553	3.47
461.906	3.49
462.259	3.49
462.611	3.51
462.964	3.53
463.317	3.52
463.67	3.53
464.022	3.55
464.375	3.57
464.728	3.57
465.08	3.58
465.433	3.62
465.785	3.63
466.138	3.65
466.49	3.65
466.843	3.66
467.195	3.67
467.547	3.71
467.899	3.73
468.252	3.73
468.604	3.74
468.956	3.75
469.308	3.73
469.66	3.76
470.012	3.79
470.364	3.81
470.716	3.85
471.068	3.85
471.42	3.87
471.772	3.88
472.123	3.91
472.475	3.93
472.827	3.92
473.178	3.94
473.53	3.92
473.882	3.95
474.233	3.97
474.585	3.97
474.936	3.94
475.288	3.94
475.639	3.94
475.99	3.95
476.342	3.97
476.693	3.99
477.044	3.99
477.395	3.97
477.746	3.94
478.097	3.94
478.448	3.93
478.8	3.9
479.15	3.88
479.501	3.88
479.852	3.88
480.203	3.88
480.554	3.89
480.905	3.9
481.255	3.89
481.606	3.89
481.957	3.9
482.307	3.89
482.658	3.89
483.009	3.89
483.359	3.89
483.709	3.89
484.06	3.88
484.41	3.88
484.761	3.88
485.111	3.89
485.461	3.88
485.811	3.89
486.162	3.9
486.512	3.9
486.862	3.9
487.212	3.9
487.562	3.91
487.912	3.91
488.262	3.91
488.612	3.92
488.961	3.91
489.311	3.91
489.661	3.93
490.011	3.94
490.36	3.94
490.71	3.94
491.06	3.94
491.409	3.95
491.759	3.94
492.108	3.95
492.458	3.95
492.807	3.96
493.157	3.97
493.506	3.99
493.855	4
494.204	3.99
494.554	4.02
494.903	4.03
495.252	4.03
495.601	4.04
495.95	4.06
496.299	4.08
496.648	4.11
496.997	4.13
497.346	4.15
497.695	4.2
498.043	4.22
498.392	4.25
498.741	4.28
499.09	4.33
499.438	4.36
499.787	4.39
500.135	4.44
500.484	4.46
500.832	4.51
501.181	4.58
501.529	4.63
501.878	4.65
502.226	4.68
502.574	4.73
502.923	4.75
503.271	4.77
503.619	4.84
503.967	4.87
504.315	4.91
504.663	4.96
505.011	4.99
505.359	5.02
505.707	5.07
506.055	5.13
506.403	5.18
506.751	5.23
507.098	5.31
507.446	5.4
507.794	5.46
508.141	5.51
508.489	5.57
508.837	5.65
509.184	5.73
509.531	5.83
509.879	5.91
510.226	6
510.574	6.07
510.921	6.14
511.268	6.22
511.616	6.31
511.963	6.39
512.31	6.48
512.657	6.58
513.004	6.71
513.351	6.79
513.698	6.89
514.045	6.99
514.392	7.1
514.739	7.18
515.086	7.29
515.432	7.4
515.779	7.49
516.126	7.62
516.473	7.72
516.819	7.81
517.166	7.91
517.512	8.01
517.859	8.09
518.205	8.19
518.552	8.28
518.898	8.4
519.245	8.51
519.591	8.6
519.937	8.68
520.283	8.78
520.629	8.91
520.976	9.03
521.322	9.16
521.668	9.28
522.014	9.38
522.36	9.5
522.706	9.64
523.052	9.78
523.398	9.94
523.743	10.1
524.089	10.26
524.435	10.41
524.781	10.56
525.126	10.73
525.472	10.84
525.817	10.96
526.163	11.03
526.509	11.12
526.854	11.22
527.199	11.32
527.545	11.4
527.89	11.49
528.235	11.56
528.581	11.65
528.926	11.75
529.271	11.87
529.616	11.95
529.961	12.05
530.306	12.15
530.651	12.22
530.996	12.32
531.341	12.42
531.686	12.52
532.031	12.61
532.376	12.72
532.721	12.85
533.065	12.97
533.41	13.1
533.755	13.23
534.099	13.38
534.444	13.51
534.788	13.65
535.133	13.77
535.477	13.92
535.822	14.05
536.166	14.21
536.51	14.37
536.855	14.56
537.199	14.71
537.543	14.89
537.887	15.1
538.231	15.27
538.576	15.47
538.92	15.67
539.264	15.85
539.608	16.01
539.951	16.16
540.295	16.31
540.639	16.47
540.983	16.62
541.327	16.75
541.671	16.9
542.014	17.03
542.358	17.21
542.701	17.36
543.045	17.52
543.389	17.68
543.732	17.81
544.075	17.97
544.419	18.13
544.762	18.31
545.105	18.48
545.449	18.69
545.792	18.89
546.135	19.09
546.478	19.32
546.821	19.6
547.165	19.83
547.508	20.08
547.851	20.35
548.194	20.62
548.536	20.9
548.879	21.18
549.222	21.47
549.565	21.71
549.908	22.02
550.25	22.27
550.593	22.55
550.936	22.85
551.278	23.13
551.621	23.45
551.963	23.72
552.306	24
552.648	24.32
552.991	24.63
553.333	24.95
553.675	25.19
554.017	25.44
554.36	25.7
554.702	26.01
555.044	26.25
555.386	26.54
555.728	26.83
556.07	27.1
556.412	27.35
556.754	27.66
557.096	27.92
557.438	28.19
557.78	28.49
558.121	28.74
558.463	29.09
558.805	29.38
559.147	29.64
559.488	29.89
559.83	30.13
560.171	30.4
560.513	30.66
560.854	30.96
561.196	31.19
561.537	31.49
561.878	31.76
562.22	32.06
562.561	32.3
562.902	32.59
563.243	32.83
563.584	33.1
563.925	33.36
564.266	33.64
564.607	33.92
564.948	34.13
565.289	34.44
565.63	34.63
565.971	34.91
566.312	35.17
566.653	35.45
566.993	35.72
567.334	35.96
567.675	36.2
568.015	36.47
568.356	36.75
568.696	36.99
569.037	37.24
569.377	37.49
569.718	37.72
570.058	37.92
570.398	38.14
570.739	38.42
571.079	38.62
571.419	38.85
571.759	39.09
572.099	39.32
572.439	39.47
572.779	39.75
573.119	39.94
573.459	40.21
573.799	40.47
574.139	40.6
574.479	40.76
574.819	40.96
575.158	41.12
575.498	41.28
575.838	41.51
576.177	41.68
576.517	41.91
576.856	42.12
577.196	42.34
577.535	42.6
577.875	42.77
578.214	43
578.553	43.2
578.893	43.44
579.232	43.63
579.571	43.91
579.91	44.07
580.25	44.21
580.589	44.35
580.928	44.46
581.267	44.72
581.606	44.95
581.945	45.17
582.283	45.38
582.622	45.57
582.961	45.66
583.3	45.8
583.639	45.96
583.977	46.14
584.316	46.35
584.654	46.47
584.993	46.57
585.332	46.71
585.67	46.87
586.008	46.98
586.347	47.08
586.685	47.21
587.024	47.32
587.362	47.49
587.7	47.59
588.038	47.67
588.376	47.8
588.715	47.98
589.053	48.07
589.391	48.21
589.729	48.33
590.067	48.5
590.404	48.67
590.742	48.77
591.08	48.94
591.418	48.97
591.756	49
592.093	49.18
592.431	49.26
592.769	49.39
593.106	49.53
593.444	49.61
593.781	49.66
594.119	49.75
594.456	49.87
594.793	50.07
595.131	50.16
595.468	50.22
595.805	50.24
596.143	50.33
596.48	50.41
596.817	50.54
597.154	50.65
597.491	50.74
597.828	50.8
598.165	50.78
598.502	50.82
598.839	50.94
599.176	51.03
599.512	51.13
599.849	51.15
600.186	51.21
600.523	51.35
600.859	51.5
601.196	51.64
601.532	51.68
601.869	51.66
602.205	51.8
602.542	51.91
602.878	51.98
603.215	52.04
603.551	52.1
603.887	52.08
604.223	52.11
604.56	52.13
604.896	52.25
605.232	52.4
605.568	52.51
605.904	52.64
606.24	52.67
606.576	52.74
606.912	52.83
607.248	52.85
607.583	52.98
607.919	53.05
608.255	53.06
608.591	53.15
608.926	53.28
609.262	53.36
609.597	53.43
609.933	53.5
610.268	53.47
610.604	53.44
610.939	53.54
611.275	53.62
611.61	53.62
611.945	53.7
612.281	53.73
612.616	53.81
612.951	53.84
613.286	53.95
613.621	54.01
613.956	54.03
614.291	54.12
614.626	54.08
614.961	54.1
615.296	54.18
615.631	54.24
615.966	54.27
616.3	54.25
616.635	54.22
616.97	54.23
617.304	54.35
617.639	54.43
617.973	54.45
618.308	54.41
618.642	54.48
618.977	54.46
619.311	54.51
619.646	54.46
619.98	54.47
620.314	54.57
620.648	54.6
620.983	54.62
621.317	54.71
621.651	54.74
621.985	54.83
622.319	54.75
622.653	54.74
622.987	54.86
623.321	54.99
623.655	55
623.988	55.1
624.322	55.2
624.656	55.33
624.99	55.31
625.323	55.37
625.657	55.44
625.99	55.28
626.324	55.22
626.657	55.29
626.991	55.36
627.324	55.31
627.658	55.39
627.991	55.4
628.324	55.35
628.657	55.39
628.991	55.31
629.324	55.51
629.657	55.55
629.99	55.41
630.323	55.39
630.656	55.49
630.989	55.49
631.322	55.51
631.655	55.47
631.987	55.58
632.32	55.68
632.653	55.66
632.986	55.88
633.318	55.91
633.651	55.91
633.984	55.86
634.316	55.91
634.649	55.87
634.981	55.86
635.313	55.93
635.646	55.97
635.978	56.08
636.31	56.04
636.643	56.16
636.975	56.26
637.307	56.26
637.639	56.25
637.971	56.27
638.303	56.2
638.635	56.27
638.967	56.3
639.299	56.31
639.631	56.37
639.963	56.43
640.295	56.57
640.626	56.64
640.958	56.66
641.29	56.61
641.621	56.66
641.953	56.84
642.285	56.87
642.616	56.94
642.948	56.92
643.279	56.82
643.61	56.82
643.942	56.87
644.273	57.01
644.604	57.07
644.936	57.04
645.267	57.13
645.598	57.21
645.929	57.26
646.26	57.2
646.591	57.08
646.922	56.95
647.253	56.84
647.584	56.88
647.915	56.9
648.245	56.96
648.576	56.89
648.907	56.86
649.238	56.83
649.568	56.77
649.899	56.81
650.229	56.78
650.56	56.74
650.89	56.66
651.221	56.6
651.551	56.59
651.882	56.63
652.212	56.59
652.542	56.48
652.872	56.41
653.203	56.42
653.533	56.56
653.863	56.67
654.193	56.76
654.523	56.71
654.853	56.77
655.183	56.82
655.513	56.95
655.843	57.01
656.172	57.08
656.502	57.15
656.832	57.08
657.162	57.29
657.491	57.36
657.821	57.55
658.15	57.5
658.48	57.56
658.809	57.53
659.139	57.55
659.468	57.56
659.798	57.55
660.127	57.61
660.456	57.67
660.785	57.7
661.115	57.73
661.444	57.76
661.773	57.79
662.102	57.74
662.431	57.77
662.76	57.72
663.089	57.72
663.418	57.65
663.747	57.79
664.076	57.71
664.404	57.69
664.733	57.63
665.062	57.72
665.39	57.71
665.719	57.71
666.048	57.66
666.376	57.64
666.705	57.62
667.033	57.63
667.362	57.59
667.69	57.52
668.018	57.52
668.347	57.48
668.675	57.4
669.003	57.51
669.331	57.53
669.659	57.58
669.987	57.62
670.315	57.69
670.643	57.71
670.971	57.71
671.299	57.52
671.627	57.43
671.955	57.41
672.283	57.3
672.61	57.3
672.938	57.36
673.266	57.31
673.593	57.34
673.921	57.22
674.249	57.26
674.576	57.35
674.904	57.33
675.231	57.36
675.558	57.3
675.886	57.16
676.213	57.15
676.54	57.19
676.867	57.1
677.195	57.06
677.522	57.07
677.849	57.1
678.176	57.31
678.503	57.35
678.83	57.44
679.157	57.49
679.484	57.67
679.81	57.73
680.137	57.84
680.464	57.92
680.791	57.94
681.117	57.84
681.444	57.77
681.771	57.76
682.097	57.72
682.424	57.81
682.75	57.84
683.077	57.8
683.403	57.84
683.729	57.92
684.056	57.91
684.382	57.99
684.708	57.93
685.034	57.93
685.36	57.96
685.686	57.86
686.012	57.87
686.339	57.73
686.664	57.71
686.99	57.66
687.316	57.62
687.642	57.83
687.968	57.94
688.294	58.17
688.619	58.14
688.945	58.28
689.271	58.27
689.596	58.26
689.922	58.22
690.247	58.11
690.573	58.2
690.898	58.27
691.224	58.17
691.549	58.17
691.874	58.04
692.2	58.03
692.525	58.01
692.85	57.89
693.175	57.96
693.5	57.95
693.825	57.94
694.15	58.03
694.475	57.79
694.8	57.76
695.125	57.56
695.45	57.52
695.775	57.58
696.099	57.75
696.424	57.65
696.749	57.79
697.073	57.85
697.398	57.84
697.723	57.82
698.047	57.72
698.372	57.75
698.696	57.92
699.02	57.95
699.345	57.97
699.669	58.05
699.993	58.03
700.318	58.07
700.642	58.12
700.966	58.08
701.29	58.33
701.614	58.33
701.938	58.53
702.262	58.53
702.586	58.33
702.91	58.12
703.234	58.18
703.557	58.15
703.881	57.98
704.205	57.91
704.529	57.85
704.852	58.02
705.176	58.14
705.499	58.22
705.823	58.14
706.146	58.13
706.47	58.07
706.793	58
707.117	57.9
707.44	57.85
707.763	58.01
708.086	57.7
708.409	57.64
708.733	57.43
709.056	57.58
709.379	57.86
709.702	58.01
710.025	58.02
710.348	57.83
710.671	57.98
710.993	57.96
711.316	58
711.639	57.86
711.962	57.78
712.284	57.43
712.607	57.57
712.93	57.7
713.252	57.68
713.575	57.66
713.897	57.67
714.22	57.73
714.542	57.75
714.864	57.83
715.187	57.85
715.509	58.12
715.831	58.16
716.153	58.1
716.475	58.09
716.798	58.25
717.12	58.43
717.442	58.64
717.764	58.69
718.085	58.75
718.407	58.64
718.729	58.67
719.051	58.68
719.373	58.55
719.695	58.39
720.016	58.51
720.338	58.8
720.659	58.74
720.981	58.71
721.302	58.39
721.624	58.37
721.945	58.49
722.267	58.51
722.588	58.44
722.909	58.55
723.231	58.58
723.552	58.61
723.873	58.56
724.194	58.39
724.515	58.66
724.836	58.72
725.157	58.81
725.478	58.75
725.799	58.91
726.12	58.79
726.441	58.81
726.762	58.84
727.083	58.77
727.403	58.75
727.724	58.8
728.045	59.03
728.365	58.98
728.686	58.93
729.006	58.57
729.327	58.49
729.647	58.3
729.967	58.48
730.288	58.51
730.608	58.42
730.928	58.24
731.249	57.99
731.569	58
731.889	58.4
732.209	58.4
732.529	58.44
732.849	58.63
733.169	58.83
733.489	58.9
733.809	58.83
734.129	58.97
734.448	59.02
734.768	59.21
735.088	59.25
735.408	59.26
735.727	59.59
736.047	59.7
736.366	60.13
736.686	59.84
737.005	59.78
737.325	59.9
737.644	60
737.963	60.09
738.283	60.07
738.602	59.96
738.921	60.02
739.24	60.04
739.56	59.87
739.879	60.1
740.198	59.87
740.517	59.88
740.836	59.9
741.155	59.69
741.473	59.25
741.792	59.62
742.111	59.71
742.43	59.67
742.748	59.72
743.067	59.49
743.386	59.55
743.704	59.37
744.023	59.57
744.341	59.44
744.66	59.59
744.978	59.65
745.297	59.5
745.615	59.62
745.933	59.49
746.252	59.71
746.57	59.28
746.888	59.53
747.206	59.59
747.524	59.22
747.842	59.62
748.16	60.04
748.478	59.57
748.796	59.62
749.114	59.6
749.432	59.53
749.749	59.36
750.067	59.46
750.385	59.65
750.703	59.73
751.02	59.77
751.338	59.72
751.655	59.71
751.973	59.96
752.29	60.05
752.608	60.17
752.925	60.15
753.242	60.28
753.56	60.04
753.877	59.92
754.194	60.32
754.511	60.03
754.828	59.57
755.145	59.97
755.462	59.8
755.779	59.7
756.096	59.78
756.413	59.5
756.73	59.62
757.047	59.58
757.364	59.31
757.68	59.58
757.997	59.34
758.314	59.35
758.63	58.8
758.947	58.71
759.264	58.52
759.58	58.41
759.896	58.11
760.213	58.36
760.529	58.3
760.846	58.35
761.162	58.64
761.478	58.84
761.794	58.8
762.11	58.66
762.426	58.68
762.743	58.57
763.059	58.66
763.375	58.59
763.69	58.62
764.006	58.55
764.322	58.67
764.638	58.91
764.954	59.04
765.27	59.2
765.585	59.27
765.901	59.34
766.216	59.51
766.532	59.71
766.848	59.61
767.163	59.72
767.478	59.59
767.794	59.32
768.109	59.38
768.424	59.49
768.74	59.9
769.055	60.01
769.37	60.35
769.685	60.58
770	60.42
770.315	60.36
770.63	60.1
770.945	59.79
771.26	59.66
771.575	59.46
771.89	59.66
772.205	59.3
772.52	59.48
772.834	59.62
773.149	59.08
773.464	59.41
773.778	59.2
774.093	59.27
774.407	59.25
774.722	59.2
775.036	58.86
775.351	58.92
775.665	58.82
775.979	58.23
776.293	58.27
776.608	58.8
776.922	58.56
777.236	58.92
777.55	58.87
777.864	58.75
778.178	59.08
778.492	58.64
778.806	58.55
779.12	58.25
779.434	57.85
779.747	58.26
780.061	58.08
780.375	58.12
780.689	58.46
781.002	58.76
781.316	58.4
781.629	58.79
781.943	58.35
782.256	58.18
782.57	58.33
782.883	58.45
783.196	58.31
783.51	58.61
783.823	58.89
784.136	59.41
784.449	59.76
784.762	59.71
785.075	59.73
785.388	59.8
785.701	60.43
786.014	60.37
786.327	60.57
786.64	60.32
786.953	60.55
787.266	60.3
787.578	60.17
787.891	60.74
788.204	60.15
788.516	60.24
788.829	59.93
789.141	60.5
789.454	60.63
789.766	60.42
790.079	60.49
790.391	60.15
790.703	59.95
791.016	59.91
791.328	59.53
791.64	60
791.952	60.28
792.264	59.98
792.576	59.9
792.888	59.78
793.2	60.32
793.512	60.48
793.824	60.16
794.136	60.6
794.448	59.64
794.76	59.89
795.071	59.69
795.383	59.84
795.695	59.87
796.006	59.3
796.318	59.18
796.629	59.33
796.941	59.35
797.252	58.86
797.564	58.15
797.875	58.57
798.186	58.28
798.497	58.32
798.809	57.67
799.12	58.27
799.431	58.48
799.742	58.2
800.053	58.23
800.364	58.88
800.675	58.48
800.986	59.36
801.297	59.3
801.608	59.47
801.918	59.76
802.229	59.7
802.54	59.83
802.851	60.14
803.161	59.72
803.472	60.47
803.782	61.1
804.093	61.64
804.403	61.69
804.714	61.92
805.024	61.7
805.334	62.7
805.645	62.66
805.955	62.18
806.265	62.48
806.575	62.03
806.885	61.56
807.195	61.26
807.505	60.49
807.815	60.3
808.125	60.29
808.435	60.54
808.745	60.71
809.055	61.13
809.365	60.39
809.674	60.77
809.984	59.94
810.294	59.31
810.603	59.27
810.913	59.11
811.222	60.03
811.532	60.15
811.841	60.43
812.151	60.48
812.46	61.37
812.769	60.78
813.079	61.53
813.388	61.15
813.697	61.16
814.006	61.8
814.315	61.49
814.624	61.58
814.933	61.74
815.242	60.96
815.551	60.22
815.86	61.21
816.169	61.67
816.478	61.24
816.786	61.94
817.095	62.44
817.404	62.04
817.712	61.03
818.021	61.36
818.33	61.18
818.638	61.01
818.947	61.34
819.255	61.81
819.563	61.6
819.872	62.1
820.18	62.29
820.488	61.69
820.796	61.7
821.105	61.64
821.413	61.43
821.721	61.52
822.029	61.68
822.337	61.45
822.645	61.5
822.953	61.8
823.26	61.9
823.568	61.86
823.876	61.86
824.184	61.88
824.491	61.88
824.799	61.77
825.107	61.86
825.414	61.92
825.722	61.74
826.029	61.87
826.337	61.68
826.644	61.77
826.951	62.28
827.259	62.35
827.566	62.44
827.873	62.43
828.18	62.49
828.488	62.52
828.795	62.7
829.102	62.28
829.409	61.92
829.716	61.56
830.023	61.6
830.329	61.62
830.636	62.19
830.943	61.93
831.25	62.16
831.557	62.21
831.863	61.52
832.17	61.22
832.476	60.64
832.783	60.64
833.089	60.28
833.396	59.84
833.702	60.44
834.009	60.87
834.315	61.28
834.621	61.8
834.928	62.02
835.234	61.82
835.54	62.01
835.846	62.37
836.152	62.56
836.458	62.44
836.764	62.69
837.07	61.62
837.376	61.38
837.682	61.7
837.988	61.09
838.293	61.28
838.599	62.05
838.905	61.88
839.211	61.98
839.516	62.08
839.822	62.51
840.127	61.36
840.433	61.1
840.738	61.98
841.044	60.88
841.349	61.5
841.654	62.4
841.959	63.78
842.265	63.94
842.57	63.67
842.875	64.54
843.18	63.95
843.485	65.9
843.79	66.95
844.095	66.49
844.4	67.26
844.705	67.38
845.01	67.25
845.315	69.18
845.619	70.87
845.924	71.31
846.229	70.69
846.533	72.06
846.838	71.42
847.142	68.18
847.447	67.2
847.751	64.87
848.056	64.31
848.36	63.79
848.664	62.93
848.969	63.02
849.273	61.76
849.577	61.97
849.881	58.64
850.185	60.65
850.489	60.58
850.794	60.83
851.097	59.7
851.401	60.41
851.705	59.83
852.009	59.13
852.313	60.52
852.617	61.42
852.92	62.28
853.224	61.02
853.528	63.53
853.831	64.52
854.135	66.22
854.438	66.99
854.742	67.58
855.045	68.24
855.349	70.09
855.652	70.64
855.955	72.2
856.259	74.86
856.562	71.89
856.865	72.71
857.168	71.68
857.471	71.99
857.774	72.52
858.077	71.16
858.38	68.99
858.683	68.17
858.986	66.94
859.289	66.54
859.592	67.48
859.894	67.18
860.197	66.53
860.5	66.62
860.802	63.13
861.105	61.83
861.407	61.52
861.71	61.7
862.012	61.3
862.315	60.39
862.617	57.27
862.919	58.33
863.222	59.91
863.524	58.57
863.826	60.37
864.128	60.83
864.43	62.02
864.732	62.98
865.034	64.73
865.336	64.94
865.638	65.4
865.94	66.09
866.242	65.66
866.544	67.83
866.846	66.92
867.147	68.04
867.449	68.03
867.751	68.88
868.052	65.9
868.354	66.11
868.655	66.46
868.957	68.84
869.258	68.09
869.56	66.88
869.861	70.45
870.162	69.67
870.463	69.92
870.765	72.22
871.066	73.46
871.367	69.22
871.668	69.18
871.969	69.13
872.27	67.51
872.571	68.13
872.872	65.84
873.173	66.79
873.473	68.5
873.774	69.38
874.075	71.83
874.376	72.58
874.676	72.13
874.977	71.73
875.277	71.96
875.578	73.55
875.878	72.41
876.179	71.29
876.479	71.76
876.78	70.14
877.08	66.63
877.38	66.35
877.68	68.21
877.981	69.42
878.281	68.64
878.581	71.12
