Data from BU26932_Reflection_00011.txt Node
Date: Tue Nov 19 10:44:38 EST 2019
User: vgr7
Spectrometer: USB2G7710
Scans to average: 3
Trigger mode: 4
Integration Time (sec): 2.000000E-2
Electric dark correction enabled: true
Boxcar width: 10
XAxis mode: Wavelengths
Number of Pixels in Spectrum: 2048
>>>>>Begin Spectral Data<<<<<
177.721	60.9
178.105	49.2
178.488	64.96
178.871	170.97
179.254	-1000
179.636	-229.55
180.019	244.17
180.402	-14.29
180.785	690.91
181.168	2.44
181.55	-54.38
181.933	-301.64
182.316	-54.38
182.698	-60.98
183.081	-6.41
183.463	-82.84
183.846	-99.62
184.228	-54.89
184.611	-32.15
184.993	-9.22
185.376	4.99
185.758	17.18
186.14	18.84
186.522	23.87
186.904	27.26
187.287	17.45
187.669	16.89
188.051	18.17
188.433	15.37
188.815	9.58
189.197	12.46
189.579	8.79
189.961	6.57
190.342	13.46
190.724	17.79
191.106	6.37
191.488	14.08
191.869	22.78
192.251	16.53
192.633	10.35
193.014	6.57
193.396	-1.86
193.777	-6.56
194.159	-9.92
194.54	-10.31
194.922	-23.27
195.303	-6.03
195.684	-4.82
196.065	2.68
196.447	-6.24
196.828	-12.65
197.209	-14.11
197.59	-0.94
197.971	12.12
198.352	11.24
198.733	10.81
199.114	6.73
199.495	4.39
199.876	-4.36
200.257	-4.11
200.638	9.92
201.018	5.36
201.399	14.15
201.78	19.9
202.16	13.65
202.541	6.85
202.922	10.01
203.302	-11.46
203.683	-5.57
204.063	-17.87
204.444	-2.7
204.824	0.74
205.204	17.27
205.585	29.06
205.965	18.72
206.345	11.03
206.725	14.83
207.106	25.89
207.486	21.42
207.866	24.54
208.246	34.72
208.626	18.91
209.006	22.18
209.386	21.93
209.766	31.36
210.145	31.19
210.525	33.4
210.905	40.11
211.285	53.21
211.664	56.19
212.044	52.01
212.424	44.29
212.803	42.66
213.183	28.74
213.562	33.4
213.942	45.93
214.321	41.96
214.701	38.8
215.08	29.74
215.459	32.81
215.838	29.5
216.218	11.86
216.597	16.56
216.976	11.14
217.355	10
217.734	-1.26
218.113	2.29
218.492	8.55
218.871	4.4
219.25	6.65
219.629	-4.7
220.008	-1.24
220.387	1.38
220.766	10.21
221.144	16.83
221.523	-3.44
221.902	-1.81
222.28	6.29
222.659	12.28
223.037	14.57
223.416	20.52
223.794	23.36
224.173	29.48
224.551	33.52
224.929	32.32
225.308	28.38
225.686	28
226.064	25.57
226.442	22
226.821	21.85
227.199	18.49
227.577	20.17
227.955	20.5
228.333	21.55
228.711	18.7
229.089	15.21
229.467	17.05
229.845	14.48
230.222	10.72
230.6	8.97
230.978	10.43
231.356	9.38
231.733	9.01
232.111	6.87
232.488	7.54
232.866	7.14
233.243	8.89
233.621	11.4
233.998	10.4
234.376	8.58
234.753	7
235.13	4.96
235.508	5.84
235.885	4.38
236.262	2.15
236.639	2.15
237.016	2.19
237.393	1.78
237.77	1.36
238.147	2.07
238.524	1.5
238.901	0.7
239.278	0.66
239.655	0.97
240.032	1.6
240.409	1.47
240.785	1.81
241.162	2.27
241.539	1.52
241.915	1.69
242.292	2.18
242.668	2.7
243.045	3.06
243.421	2.64
243.798	2.79
244.174	2.83
244.551	3.17
244.927	3.11
245.303	3.17
245.679	3.39
246.056	3.37
246.432	3.71
246.808	3.81
247.184	3.99
247.56	3.88
247.936	3.74
248.312	3.54
248.688	3.5
249.064	3.22
249.44	3.42
249.815	3.64
250.191	3.64
250.567	3.6
250.943	3.64
251.318	3.79
251.694	3.92
252.069	4.01
252.445	3.73
252.82	3.75
253.196	3.95
253.571	4.08
253.947	4.32
254.322	4.09
254.697	3.9
255.073	3.71
255.448	3.71
255.823	3.82
256.198	3.81
256.573	3.92
256.948	3.77
257.323	3.56
257.698	3.25
258.073	3.15
258.448	3.23
258.823	3.1
259.198	3.28
259.573	3.02
259.948	3.2
260.322	3.26
260.697	3.41
261.072	3.29
261.446	3.32
261.821	3.27
262.195	3.25
262.57	3.41
262.944	3.45
263.319	3.36
263.693	3.26
264.067	3.27
264.442	3.21
264.816	3.29
265.19	3.29
265.564	3.34
265.938	3.48
266.313	3.2
266.687	3.41
267.061	3.06
267.435	3.37
267.809	3.12
268.183	3.06
268.556	3.02
268.93	3.05
269.304	3.04
269.678	3.15
270.051	3.2
270.425	3.09
270.799	2.75
271.172	3
271.546	3.11
271.919	3.01
272.293	3.03
272.666	3.02
273.04	3.19
273.413	3.24
273.787	3.09
274.16	3.06
274.533	2.96
274.906	3.05
275.279	2.93
275.653	3.05
276.026	3.05
276.399	3.02
276.772	3.05
277.145	2.84
277.518	2.62
277.891	2.68
278.263	2.7
278.636	3.11
279.009	2.92
279.382	2.99
279.755	3.12
280.127	3.28
280.5	3.22
280.872	3.26
281.245	3.33
281.617	3.45
281.99	3.53
282.362	3.46
282.735	3.46
283.107	3.48
283.479	3.48
283.852	3.62
284.224	3.65
284.596	3.7
284.968	3.77
285.34	3.78
285.713	3.73
286.085	3.72
286.457	3.57
286.829	3.6
287.201	3.5
287.572	3.48
287.944	3.4
288.316	3.41
288.688	3.35
289.06	3.36
289.431	3.44
289.803	3.66
290.175	3.7
290.546	3.75
290.918	3.7
291.289	3.67
291.661	3.54
292.032	3.56
292.403	3.46
292.775	3.5
293.146	3.51
293.517	3.54
293.889	3.62
294.26	3.73
294.631	3.77
295.002	3.92
295.373	3.92
295.744	3.92
296.115	4.08
296.486	4.12
296.857	4.23
297.228	4.17
297.599	3.97
297.97	4.08
298.34	4.2
298.711	4.24
299.082	4.15
299.452	4.22
299.823	4.21
300.194	4.37
300.564	4.3
300.935	4.43
301.305	4.39
301.676	4.33
302.046	4.32
302.416	4.35
302.787	4.39
303.157	4.62
303.527	4.72
303.897	4.64
304.267	4.67
304.637	4.56
305.008	4.68
305.378	4.79
305.748	4.8
306.117	4.56
306.487	4.71
306.857	4.97
307.227	5.01
307.597	5.01
307.967	5.03
308.336	5.31
308.706	5.43
309.076	5.6
309.445	5.94
309.815	6.04
310.184	6.13
310.554	6.02
310.923	5.87
311.293	5.87
311.662	5.87
312.031	5.89
312.401	6.02
312.77	5.95
313.139	6.11
313.508	6.19
313.877	6.28
314.246	6.27
314.616	6.27
314.985	6.32
315.353	6.53
315.722	6.62
316.091	6.69
316.46	6.74
316.829	6.89
317.198	6.84
317.567	6.86
317.935	6.93
318.304	7.23
318.672	7.35
319.041	7.4
319.41	7.5
319.778	7.62
320.147	7.63
320.515	7.83
320.883	7.76
321.252	7.71
321.62	7.98
321.988	8.06
322.357	8.03
322.725	8.18
323.093	8.17
323.461	8.25
323.829	8.24
324.197	8.3
324.565	8.22
324.933	8.16
325.301	8.18
325.669	8.24
326.037	8.25
326.405	8.31
326.772	8.33
327.14	8.36
327.508	8.34
327.875	8.33
328.243	8.31
328.61	8.28
328.978	8.35
329.346	8.25
329.713	8.36
330.08	8.56
330.448	8.55
330.815	8.73
331.182	8.73
331.55	8.71
331.917	8.68
332.284	8.67
332.651	8.75
333.018	8.77
333.385	8.8
333.752	8.74
334.119	8.87
334.486	8.91
334.853	9.04
335.22	9.13
335.587	9.14
335.954	9.02
336.32	9.31
336.687	9.33
337.054	9.32
337.42	9.38
337.787	9.3
338.153	9.36
338.52	9.17
338.886	9.23
339.253	9.21
339.619	9.23
339.986	9.32
340.352	9.32
340.718	9.37
341.084	9.3
341.451	9.32
341.817	9.27
342.183	9.33
342.549	9.42
342.915	9.47
343.281	9.52
343.647	9.69
344.013	9.47
344.379	9.6
344.745	9.73
345.11	9.64
345.476	9.73
345.842	9.71
346.208	9.85
346.573	9.81
346.939	9.85
347.304	9.93
347.67	9.94
348.035	9.98
348.401	10.03
348.766	10.08
349.132	10.05
349.497	10.13
349.862	10.12
350.228	10.05
350.593	10.01
350.958	10.08
351.323	10.02
351.688	10.11
352.053	10.07
352.418	10.12
352.783	10.15
353.148	10.12
353.513	10.12
353.878	10.1
354.243	10.1
354.608	10.19
354.972	10.13
355.337	10.15
355.702	10.09
356.066	10.04
356.431	10.07
356.795	10.15
357.16	10.07
357.524	10.08
357.889	10.06
358.253	10.05
358.618	9.96
358.982	9.93
359.346	9.94
359.71	9.82
360.075	9.76
360.439	9.71
360.803	9.72
361.167	9.68
361.531	9.65
361.895	9.63
362.259	9.52
362.623	9.46
362.987	9.38
363.351	9.36
363.714	9.33
364.078	9.27
364.442	9.18
364.806	9.16
365.169	9.15
365.533	9.15
365.896	9.13
366.26	9.12
366.623	9.1
366.987	9.03
367.35	9.02
367.714	9.01
368.077	9.02
368.44	8.99
368.803	8.95
369.167	8.92
369.53	8.87
369.893	8.82
370.256	8.8
370.619	8.78
370.982	8.74
371.345	8.7
371.708	8.67
372.071	8.64
372.434	8.55
372.797	8.42
373.159	8.31
373.522	8.2
373.885	8.14
374.247	8.06
374.61	7.98
374.973	7.97
375.335	7.9
375.698	7.76
376.06	7.66
376.423	7.59
376.785	7.53
377.147	7.44
377.51	7.39
377.872	7.32
378.234	7.23
378.596	7.18
378.958	7.12
379.321	7.01
379.683	7
380.045	6.99
380.407	6.94
380.769	6.84
381.13	6.74
381.492	6.71
381.854	6.69
382.216	6.66
382.578	6.59
382.939	6.53
383.301	6.5
383.663	6.46
384.024	6.42
384.386	6.37
384.747	6.36
385.109	6.31
385.47	6.28
385.832	6.25
386.193	6.21
386.554	6.1
386.916	6.1
387.277	5.99
387.638	5.93
387.999	5.94
388.36	5.95
388.721	5.97
389.082	5.95
389.443	5.91
389.804	5.91
390.165	5.84
390.526	5.79
390.887	5.74
391.248	5.7
391.609	5.67
391.969	5.64
392.33	5.6
392.691	5.57
393.051	5.52
393.412	5.49
393.772	5.43
394.133	5.42
394.493	5.36
394.854	5.32
395.214	5.29
395.574	5.2
395.935	5.12
396.295	5.07
396.655	5
397.015	4.95
397.376	4.89
397.736	4.86
398.096	4.8
398.456	4.78
398.816	4.73
399.176	4.65
399.535	4.58
399.895	4.54
400.255	4.51
400.615	4.47
400.975	4.4
401.334	4.4
401.694	4.37
402.054	4.35
402.413	4.35
402.773	4.31
403.132	4.29
403.492	4.26
403.851	4.23
404.211	4.22
404.57	4.2
404.929	4.16
405.288	4.15
405.648	4.14
406.007	4.13
406.366	4.14
406.725	4.12
407.084	4.1
407.443	4.07
407.802	4.04
408.161	4.04
408.52	4.05
408.879	4.03
409.238	4.06
409.596	4.03
409.955	4.01
410.314	4.01
410.673	4.01
411.031	4
411.39	3.99
411.748	3.97
412.107	3.93
412.465	3.93
412.824	3.88
413.182	3.85
413.54	3.83
413.899	3.79
414.257	3.81
414.615	3.83
414.974	3.82
415.332	3.83
415.69	3.79
416.048	3.77
416.406	3.74
416.764	3.7
417.122	3.69
417.48	3.66
417.838	3.65
418.195	3.62
418.553	3.62
418.911	3.59
419.269	3.56
419.626	3.55
419.984	3.52
420.342	3.51
420.699	3.52
421.057	3.5
421.414	3.49
421.772	3.46
422.129	3.44
422.486	3.41
422.844	3.39
423.201	3.38
423.558	3.38
423.915	3.36
424.273	3.35
424.63	3.34
424.987	3.34
425.344	3.32
425.701	3.32
426.058	3.31
426.415	3.31
426.772	3.3
427.128	3.3
427.485	3.32
427.842	3.31
428.199	3.3
428.555	3.29
428.912	3.29
429.269	3.3
429.625	3.28
429.982	3.28
430.338	3.29
430.695	3.27
431.051	3.26
431.407	3.26
431.764	3.25
432.12	3.26
432.476	3.23
432.832	3.23
433.189	3.22
433.545	3.21
433.901	3.19
434.257	3.19
434.613	3.19
434.969	3.18
435.325	3.19
435.681	3.19
436.036	3.2
436.392	3.21
436.748	3.21
437.104	3.22
437.459	3.21
437.815	3.21
438.171	3.22
438.526	3.22
438.882	3.23
439.237	3.22
439.593	3.22
439.948	3.23
440.304	3.24
440.659	3.23
441.014	3.24
441.369	3.25
441.725	3.25
442.08	3.25
442.435	3.23
442.79	3.22
443.145	3.21
443.5	3.2
443.855	3.18
444.21	3.17
444.565	3.18
444.92	3.16
445.275	3.16
445.629	3.16
445.984	3.15
446.339	3.13
446.693	3.14
447.048	3.13
447.403	3.12
447.757	3.09
448.112	3.09
448.466	3.08
448.82	3.09
449.175	3.09
449.529	3.08
449.883	3.07
450.238	3.07
450.592	3.08
450.946	3.06
451.3	3.07
451.654	3.07
452.008	3.06
452.362	3.07
452.716	3.06
453.07	3.03
453.424	3.04
453.778	3.05
454.132	3.04
454.486	3.06
454.839	3.06
455.193	3.07
455.547	3.06
455.9	3.07
456.254	3.06
456.607	3.04
456.961	3.05
457.314	3.06
457.668	3.05
458.021	3.05
458.375	3.07
458.728	3.07
459.081	3.08
459.434	3.06
459.787	3.08
460.141	3.1
460.494	3.11
460.847	3.12
461.2	3.12
461.553	3.12
461.906	3.13
462.259	3.13
462.611	3.15
462.964	3.17
463.317	3.19
463.67	3.2
464.022	3.23
464.375	3.25
464.728	3.28
465.08	3.3
465.433	3.31
465.785	3.33
466.138	3.34
466.49	3.35
466.843	3.38
467.195	3.37
467.547	3.37
467.899	3.41
468.252	3.42
468.604	3.46
468.956	3.47
469.308	3.45
469.66	3.48
470.012	3.49
470.364	3.5
470.716	3.5
471.068	3.53
471.42	3.53
471.772	3.53
472.123	3.53
472.475	3.56
472.827	3.56
473.178	3.56
473.53	3.56
473.882	3.57
474.233	3.57
474.585	3.57
474.936	3.56
475.288	3.52
475.639	3.53
475.99	3.51
476.342	3.51
476.693	3.51
477.044	3.51
477.395	3.49
477.746	3.48
478.097	3.45
478.448	3.44
478.8	3.42
479.15	3.41
479.501	3.4
479.852	3.39
480.203	3.39
480.554	3.39
480.905	3.36
481.255	3.36
481.606	3.37
481.957	3.36
482.307	3.35
482.658	3.36
483.009	3.36
483.359	3.36
483.709	3.36
484.06	3.35
484.41	3.35
484.761	3.35
485.111	3.34
485.461	3.36
485.811	3.35
486.162	3.35
486.512	3.35
486.862	3.35
487.212	3.36
487.562	3.36
487.912	3.35
488.262	3.37
488.612	3.37
488.961	3.38
489.311	3.38
489.661	3.39
490.011	3.39
490.36	3.39
490.71	3.39
491.06	3.4
491.409	3.4
491.759	3.42
492.108	3.43
492.458	3.44
492.807	3.45
493.157	3.47
493.506	3.49
493.855	3.51
494.204	3.54
494.554	3.56
494.903	3.6
495.252	3.64
495.601	3.67
495.95	3.69
496.299	3.73
496.648	3.79
496.997	3.85
497.346	3.91
497.695	3.96
498.043	4.02
498.392	4.09
498.741	4.18
499.09	4.24
499.438	4.3
499.787	4.36
500.135	4.43
500.484	4.5
500.832	4.57
501.181	4.66
501.529	4.76
501.878	4.86
502.226	4.95
502.574	5.04
502.923	5.16
503.271	5.28
503.619	5.39
503.967	5.5
504.315	5.62
504.663	5.76
505.011	5.89
505.359	6.04
505.707	6.18
506.055	6.31
506.403	6.46
506.751	6.63
507.098	6.8
507.446	6.98
507.794	7.13
508.141	7.31
508.489	7.52
508.837	7.68
509.184	7.85
509.531	8.06
509.879	8.25
510.226	8.45
510.574	8.65
510.921	8.86
511.268	9.07
511.616	9.28
511.963	9.52
512.31	9.75
512.657	10
513.004	10.25
513.351	10.52
513.698	10.83
514.045	11.15
514.392	11.43
514.739	11.73
515.086	12.09
515.432	12.39
515.779	12.67
516.126	12.99
516.473	13.28
516.819	13.56
517.166	13.84
517.512	14.14
517.859	14.4
518.205	14.65
518.552	14.91
518.898	15.19
519.245	15.44
519.591	15.7
519.937	15.97
520.283	16.25
520.629	16.55
520.976	16.85
521.322	17.17
521.668	17.5
522.014	17.82
522.36	18.14
522.706	18.5
523.052	18.87
523.398	19.24
523.743	19.68
524.089	20.09
524.435	20.49
524.781	20.84
525.126	21.21
525.472	21.53
525.817	21.8
526.163	22.04
526.509	22.29
526.854	22.52
527.199	22.74
527.545	22.93
527.89	23.14
528.235	23.33
528.581	23.52
528.926	23.73
529.271	23.94
529.616	24.15
529.961	24.36
530.306	24.59
530.651	24.8
530.996	25.01
531.341	25.23
531.686	25.45
532.031	25.66
532.376	25.89
532.721	26.14
533.065	26.4
533.41	26.7
533.755	26.96
534.099	27.23
534.444	27.51
534.788	27.77
535.133	28.01
535.477	28.3
535.822	28.61
536.166	28.89
536.51	29.2
536.855	29.52
537.199	29.82
537.543	30.12
537.887	30.44
538.231	30.73
538.576	31.08
538.92	31.36
539.264	31.64
539.608	31.87
539.951	32.11
540.295	32.36
540.639	32.55
540.983	32.76
541.327	33
541.671	33.19
542.014	33.41
542.358	33.66
542.701	33.85
543.045	34.01
543.389	34.21
543.732	34.41
544.075	34.61
544.419	34.81
544.762	35.01
545.105	35.21
545.449	35.45
545.792	35.62
546.135	35.87
546.478	36.12
546.821	36.41
547.165	36.67
547.508	36.89
547.851	37.16
548.194	37.4
548.536	37.61
548.879	37.85
549.222	38.06
549.565	38.21
549.908	38.43
550.25	38.62
550.593	38.82
550.936	38.97
551.278	39.13
551.621	39.35
551.963	39.57
552.306	39.8
552.648	40
552.991	40.18
553.333	40.29
553.675	40.47
554.017	40.62
554.36	40.77
554.702	40.94
555.044	41.1
555.386	41.2
555.728	41.35
556.07	41.47
556.412	41.64
556.754	41.8
557.096	41.97
557.438	42.22
557.78	42.4
558.121	42.6
558.463	42.75
558.805	42.89
559.147	43.06
559.488	43.18
559.83	43.25
560.171	43.43
560.513	43.65
560.854	43.76
561.196	43.9
561.537	44
561.878	44.14
562.22	44.3
562.561	44.43
562.902	44.52
563.243	44.65
563.584	44.73
563.925	44.88
564.266	44.94
564.607	44.98
564.948	45.04
565.289	45.14
565.63	45.27
565.971	45.41
566.312	45.47
566.653	45.57
566.993	45.69
567.334	45.84
567.675	45.94
568.015	46.08
568.356	46.19
568.696	46.3
569.037	46.33
569.377	46.4
569.718	46.51
570.058	46.66
570.398	46.81
570.739	46.99
571.079	47.08
571.419	47.21
571.759	47.3
572.099	47.43
572.439	47.51
572.779	47.61
573.119	47.66
573.459	47.77
573.799	47.82
574.139	47.98
574.479	48.02
574.819	48.1
575.158	48.13
575.498	48.2
575.838	48.31
576.177	48.48
576.517	48.62
576.856	48.74
577.196	48.78
577.535	48.81
577.875	48.82
578.214	48.93
578.553	48.99
578.893	49.12
579.232	49.21
579.571	49.34
579.91	49.37
580.25	49.46
580.589	49.48
580.928	49.65
581.267	49.67
581.606	49.72
581.945	49.77
582.283	49.88
582.622	49.95
582.961	49.98
583.3	50
583.639	50.06
583.977	50.08
584.316	50.17
584.654	50.22
584.993	50.26
585.332	50.27
585.67	50.33
586.008	50.39
586.347	50.42
586.685	50.4
587.024	50.53
587.362	50.54
587.7	50.63
588.038	50.63
588.376	50.67
588.715	50.78
589.053	50.94
589.391	50.96
589.729	50.97
590.067	51.05
590.404	51.07
590.742	51.19
591.08	51.3
591.418	51.3
591.756	51.44
592.093	51.49
592.431	51.6
592.769	51.7
593.106	51.67
593.444	51.67
593.781	51.76
594.119	51.77
594.456	51.86
594.793	51.96
595.131	51.99
595.468	52.02
595.805	52
596.143	51.98
596.48	52.09
596.817	52.21
597.154	52.22
597.491	52.29
597.828	52.28
598.165	52.32
598.502	52.33
598.839	52.3
599.176	52.37
599.512	52.37
599.849	52.37
600.186	52.48
600.523	52.59
600.859	52.63
601.196	52.72
601.532	52.8
601.869	52.83
602.205	52.88
602.542	52.94
602.878	52.98
603.215	52.94
603.551	52.91
603.887	52.9
604.223	52.94
604.56	53
604.896	53.01
605.232	53
605.568	53.11
605.904	53.17
606.24	53.16
606.576	53.23
606.912	53.26
607.248	53.28
607.583	53.29
607.919	53.34
608.255	53.36
608.591	53.3
608.926	53.25
609.262	53.25
609.597	53.29
609.933	53.29
610.268	53.45
610.604	53.5
610.939	53.58
611.275	53.64
611.61	53.64
611.945	53.68
612.281	53.76
612.616	53.81
612.951	53.84
613.286	53.87
613.621	53.86
613.956	53.91
614.291	53.92
614.626	54
614.961	54.06
615.296	54.09
615.631	54.16
615.966	54.26
616.3	54.32
616.635	54.31
616.97	54.38
617.304	54.27
617.639	54.24
617.973	54.2
618.308	54.17
618.642	54.12
618.977	54.13
619.311	54.12
619.646	54.06
619.98	54.1
620.314	54.23
620.648	54.22
620.983	54.26
621.317	54.33
621.651	54.34
621.985	54.25
622.319	54.28
622.653	54.31
622.987	54.35
623.321	54.37
623.655	54.42
623.988	54.38
624.322	54.51
624.656	54.53
624.99	54.61
625.323	54.64
625.657	54.72
625.99	54.76
626.324	54.78
626.657	54.86
626.991	54.87
627.324	54.85
627.658	54.92
627.991	54.95
628.324	55
628.657	55.02
628.991	55.07
629.324	55.15
629.657	55.18
629.99	55.21
630.323	55.19
630.656	55.14
630.989	55.17
631.322	55.12
631.655	55.23
631.987	55.28
632.32	55.35
632.653	55.46
632.986	55.46
633.318	55.46
633.651	55.41
633.984	55.46
634.316	55.42
634.649	55.46
634.981	55.43
635.313	55.37
635.646	55.45
635.978	55.46
636.31	55.44
636.643	55.48
636.975	55.56
637.307	55.64
637.639	55.78
637.971	55.88
638.303	55.92
638.635	55.87
638.967	55.83
639.299	55.81
639.631	55.75
639.963	55.76
640.295	55.8
640.626	55.95
640.958	55.89
641.29	55.95
641.621	55.88
641.953	55.93
642.285	55.94
642.616	55.82
642.948	55.86
643.279	55.81
643.61	55.78
643.942	55.65
644.273	55.7
644.604	55.66
644.936	55.7
645.267	55.69
645.598	55.66
645.929	55.64
646.26	55.74
646.591	55.86
646.922	55.98
647.253	56.02
647.584	55.88
647.915	55.91
648.245	55.97
648.576	56.04
648.907	56.03
649.238	56.05
649.568	56.08
649.899	56.07
650.229	56.09
650.56	56.1
650.89	56.23
651.221	56.31
651.551	56.32
651.882	56.29
652.212	56.31
652.542	56.39
652.872	56.41
653.203	56.39
653.533	56.32
653.863	56.23
654.193	56.25
654.523	56.25
654.853	56.36
655.183	56.31
655.513	56.37
655.843	56.45
656.172	56.47
656.502	56.51
656.832	56.51
657.162	56.49
657.491	56.5
657.821	56.4
658.15	56.33
658.48	56.43
658.809	56.51
659.139	56.54
659.468	56.56
659.798	56.65
660.127	56.62
660.456	56.63
660.785	56.6
661.115	56.7
661.444	56.74
661.773	56.73
662.102	56.76
662.431	56.68
662.76	56.78
663.089	56.82
663.418	56.77
663.747	56.88
664.076	56.99
664.404	57.09
664.733	57.06
665.062	57.1
665.39	57.06
665.719	57.01
666.048	57.01
666.376	56.96
666.705	56.98
667.033	57.03
667.362	57.05
667.69	57.2
668.018	57.05
668.347	57.12
668.675	57.14
669.003	57.26
669.331	57.37
669.659	57.2
669.987	57.23
670.315	57.26
670.643	57.17
670.971	57.08
671.299	57.05
671.627	57.2
671.955	57.28
672.283	57.33
672.61	57.38
672.938	57.38
673.266	57.42
673.593	57.35
673.921	57.36
674.249	57.31
674.576	57.13
674.904	57.2
675.231	57.31
675.558	57.33
675.886	57.28
676.213	57.24
676.54	57.42
676.867	57.26
677.195	57.44
677.522	57.61
677.849	57.57
678.176	57.64
678.503	57.55
678.83	57.56
679.157	57.48
679.484	57.42
679.81	57.43
680.137	57.48
680.464	57.52
680.791	57.53
681.117	57.55
681.444	57.63
681.771	57.66
682.097	57.66
682.424	57.58
682.75	57.58
683.077	57.54
683.403	57.4
683.729	57.48
684.056	57.36
684.382	57.18
684.708	57.27
685.034	57.17
685.36	57.21
685.686	57.2
686.012	57.1
686.339	57.16
686.664	57.36
686.99	57.35
687.316	57.45
687.642	57.38
687.968	57.41
688.294	57.47
688.619	57.47
688.945	57.34
689.271	57.36
689.596	57.31
689.922	57.25
690.247	57.31
690.573	57.34
690.898	57.36
691.224	57.48
691.549	57.51
691.874	57.61
692.2	57.65
692.525	57.61
692.85	57.87
693.175	57.9
693.5	57.75
693.825	57.8
694.15	57.69
694.475	57.67
694.8	57.63
695.125	57.55
695.45	57.53
695.775	57.7
696.099	57.82
696.424	57.93
696.749	58.04
697.073	58.01
697.398	58.02
697.723	57.95
698.047	57.89
698.372	57.96
698.696	57.85
699.02	57.86
699.345	57.8
699.669	57.83
699.993	57.9
700.318	57.84
700.642	57.89
700.966	57.94
701.29	57.92
701.614	57.95
701.938	58.04
702.262	57.91
702.586	57.69
702.91	57.57
703.234	57.36
703.557	57.38
703.881	57.47
704.205	57.66
704.529	57.75
704.852	57.8
705.176	57.79
705.499	57.81
705.823	57.79
706.146	57.86
706.47	57.59
706.793	57.5
707.117	57.51
707.44	57.36
707.763	57.27
708.086	57.38
708.409	57.47
708.733	57.44
709.056	57.75
709.379	58.11
709.702	58.12
710.025	58.46
710.348	58.3
710.671	58.16
710.993	58.09
711.316	58.13
711.639	58.2
711.962	58.1
712.284	58.14
712.607	58.12
712.93	58.34
713.252	58.48
713.575	58.72
713.897	58.86
714.22	59.07
714.542	59.14
714.864	59.06
715.187	59.02
715.509	59.1
715.831	58.84
716.153	58.59
716.475	58.68
716.798	58.46
717.12	58.67
717.442	58.84
717.764	58.94
718.085	58.94
718.407	58.99
718.729	59.09
719.051	59.12
719.373	59.37
719.695	59.18
720.016	59.08
720.338	58.69
720.659	58.63
720.981	58.39
721.302	58.45
721.624	58.67
721.945	58.64
722.267	58.68
722.588	58.86
722.909	58.93
723.231	58.82
723.552	58.92
723.873	58.85
724.194	58.84
724.515	58.53
724.836	58.58
725.157	58.49
725.478	58.84
725.799	58.88
726.12	58.66
726.441	58.56
726.762	58.83
727.083	59.01
727.403	59.05
727.724	59.18
728.045	59.08
728.365	58.97
728.686	59.06
729.006	58.87
729.327	58.99
729.647	58.92
729.967	58.76
730.288	58.9
730.608	58.78
730.928	58.91
731.249	59.15
731.569	59.19
731.889	59.21
732.209	59.1
732.529	59.03
732.849	59.06
733.169	59.12
733.489	58.82
733.809	58.83
734.129	58.9
734.448	58.75
734.768	58.97
735.088	58.91
735.408	58.49
735.727	58.66
736.047	58.53
736.366	58.64
736.686	59.02
737.005	59.05
737.325	59
737.644	58.66
737.963	58.49
738.283	58.48
738.602	58.33
738.921	58.23
739.24	58.27
739.56	58.43
739.879	58.39
740.198	58.38
740.517	58.34
740.836	58.27
741.155	58.33
741.473	58
741.792	58.04
742.111	58.67
742.43	58.72
742.748	58.88
743.067	58.88
743.386	58.48
743.704	58.54
744.023	58.65
744.341	58.78
744.66	58.79
744.978	58.55
745.297	58.61
745.615	58.62
745.933	58.8
746.252	58.56
746.57	58.37
746.888	58.37
747.206	58.56
747.524	58.44
747.842	58.48
748.16	58.89
748.478	58.94
748.796	58.64
749.114	58.25
749.432	58.32
749.749	58.04
750.067	58.27
750.385	58.06
750.703	58.31
751.02	58.12
751.338	57.96
751.655	58.16
751.973	58.2
752.29	58.35
752.608	58.22
752.925	58.18
753.242	58.73
753.56	58.77
753.877	58.73
754.194	58.76
754.511	59.08
754.828	58.57
755.145	58.47
755.462	58.72
755.779	59.07
756.096	58.85
756.413	58.95
756.73	59.14
757.047	59.09
757.364	59.26
757.68	59.61
757.997	59.92
758.314	59.96
758.63	60.01
758.947	59.84
759.264	60.26
759.58	60.55
759.896	60.54
760.213	60.84
760.529	60.74
760.846	60.76
761.162	60.55
761.478	60.7
761.794	60.72
762.11	60.51
762.426	60.55
762.743	60.63
763.059	60.8
763.375	60.57
763.69	60.61
764.006	60.43
764.322	60.29
764.638	60.49
764.954	60.58
765.27	60.72
765.585	60.69
765.901	60.49
766.216	60.26
766.532	60.17
766.848	60.01
767.163	59.83
767.478	59.9
767.794	59.7
768.109	59.77
768.424	59.73
768.74	59.73
769.055	59.38
769.37	59.34
769.685	59.19
770	59.22
770.315	59.14
770.63	59.15
770.945	59.28
771.26	59.03
771.575	58.87
771.89	58.97
772.205	58.86
772.52	58.48
772.834	58.6
773.149	58.08
773.464	58.29
773.778	58.58
774.093	58.74
774.407	59.39
774.722	59.61
775.036	59.89
775.351	60.02
775.665	60.59
775.979	60.79
776.293	61.08
776.608	61.24
776.922	61.37
777.236	61.07
777.55	61.04
777.864	61.11
778.178	60.71
778.492	60.08
778.806	60.34
779.12	60.77
779.434	61.03
779.747	61.6
780.061	61.75
780.375	62.14
780.689	61.93
781.002	61.36
781.316	61.28
781.629	61.2
781.943	61.33
782.256	61.18
782.57	61.17
782.883	60.72
783.196	60.67
783.51	60.63
783.823	60.86
784.136	60.67
784.449	60.88
784.762	61.1
785.075	61.38
785.388	60.72
785.701	60.74
786.014	60.27
786.327	60.16
786.64	59.91
786.953	59.61
787.266	59.43
787.578	59.57
787.891	59.38
788.204	59.57
788.516	59.62
788.829	59.34
789.141	58.89
789.454	59.02
789.766	59.39
790.079	59.76
790.391	59.87
790.703	59.75
791.016	59.42
791.328	59.91
791.64	59.58
791.952	60.09
792.264	59.88
792.576	59.91
792.888	59.9
793.2	59.72
793.512	59.48
793.824	59.57
794.136	60.03
794.448	60.33
794.76	60.16
795.071	60.19
795.383	60.32
795.695	60.69
796.006	61.02
796.318	61.26
796.629	61.16
796.941	61.42
797.252	61.46
797.564	61.72
797.875	61.26
798.186	61.53
798.497	61.83
798.809	61.53
799.12	61.46
799.431	61.42
799.742	61.53
800.053	61.81
800.364	62.02
800.675	61.81
800.986	61.17
801.297	60.88
801.608	60.53
801.918	60.96
802.229	60.41
802.54	60.17
802.851	59.48
803.161	59.07
803.472	59.01
803.782	59.14
804.093	59.35
804.403	59.79
804.714	59.86
805.024	59.09
805.334	60.15
805.645	60.16
805.955	60.55
806.265	60.86
806.575	60.25
806.885	60.3
807.195	60.04
807.505	60.89
807.815	60.76
808.125	60.4
808.435	60.59
808.745	61.12
809.055	61.35
809.365	61.68
809.674	61.83
809.984	61.11
810.294	61.94
810.603	61.27
810.913	61.47
811.222	61.42
811.532	62.48
811.841	61.8
812.151	62.18
812.46	62.05
812.769	62.41
813.079	62.56
813.388	62.59
813.697	61.82
814.006	61.56
814.315	62.85
814.624	64.1
814.933	63.04
815.242	63.5
815.551	64.12
815.86	64.78
816.169	64.68
816.478	64.95
816.786	64.9
817.095	65.12
817.404	64.72
817.712	64.36
818.021	63.22
818.33	63.53
818.638	62.96
818.947	62.39
819.255	61.6
819.563	61.67
819.872	61.78
820.18	62.18
820.488	61.89
820.796	61.56
821.105	61.36
821.413	61.67
821.721	61.36
822.029	61.03
822.337	60.92
822.645	60.96
822.953	61.05
823.26	60.97
823.568	60.92
823.876	60.7
824.184	60.86
824.491	60.95
824.799	60.81
825.107	60.88
825.414	61.01
825.722	60.95
826.029	60.93
826.337	60.88
826.644	60.95
826.951	61.18
827.259	61.31
827.566	61.41
827.873	61.09
828.18	61.25
828.488	61.44
828.795	61.33
829.102	61.09
829.409	61.09
829.716	61.05
830.023	61.09
830.329	61.84
830.636	61.64
830.943	61.25
831.25	61.06
831.557	61.06
831.863	60.6
832.17	60.86
832.476	60.62
832.783	60.62
833.089	60.7
833.396	60.36
833.702	59.88
834.009	59.65
834.315	59.5
834.621	59.62
834.928	59.3
835.234	59.23
835.54	59.86
835.846	59.71
836.152	59.6
836.458	59.52
836.764	59.1
837.07	59.18
837.376	59.27
837.682	60.02
837.988	60.14
838.293	60.75
838.599	60.56
838.905	60.82
839.211	60.99
839.516	60.25
839.822	60.99
840.127	61.59
840.433	61.89
840.738	62.93
841.044	62.05
841.349	62.79
841.654	62.39
841.959	61.43
842.265	61.77
842.57	62.03
842.875	62.43
843.18	62.49
843.485	62.7
843.79	63.88
844.095	63.6
844.4	64.08
844.705	64.13
845.01	64.96
845.315	65.37
845.619	64.24
845.924	63.51
846.229	62.86
846.533	62.16
846.838	60.53
847.142	59.51
847.447	60.63
847.751	58.45
848.056	60
848.36	60.28
848.664	60.67
848.969	60.4
849.273	61.33
849.577	58.58
849.881	57.76
850.185	57.04
850.489	56.14
850.794	57.76
851.097	57.55
851.401	56.62
851.705	54.91
852.009	55.58
852.313	56.29
852.617	56.55
852.92	56.53
853.224	58.24
853.528	59.33
853.831	59.41
854.135	60.73
854.438	59.07
854.742	60.23
855.045	57.98
855.349	57.56
855.652	55.77
855.955	56.87
856.259	59.19
856.562	58.55
856.865	58.35
857.168	55.74
857.471	57.17
857.774	57.3
858.077	59.1
858.38	58.65
858.683	61.04
858.986	57.56
859.289	58.55
859.592	58.92
859.894	58.98
860.197	58.32
860.5	60.23
860.802	59.51
861.105	60.46
861.407	61.72
861.71	61.11
862.012	60.17
862.315	62.02
862.617	59.58
862.919	60.6
863.222	60.38
863.524	62.03
863.826	61.08
864.128	61.39
864.43	62.66
864.732	62.3
865.034	61.34
865.336	60.63
865.638	60.13
865.94	61.09
866.242	61.95
866.544	64.31
866.846	61.92
867.147	65.72
867.449	64.23
867.751	63.73
868.052	65.19
868.354	65.67
868.655	61.28
868.957	61.26
869.258	59.31
869.56	60.29
869.861	58.66
870.162	58.72
870.463	59.43
870.765	58.9
871.066	59.36
871.367	59.03
871.668	60.4
871.969	57.89
872.27	55.38
872.571	51.37
872.872	49.36
873.173	48.16
873.473	45.81
873.774	46.59
874.075	47.61
874.376	46.11
874.676	48.13
874.977	52.91
875.277	53.04
875.578	55.63
875.878	54.31
876.179	54.7
876.479	53.25
876.78	52.66
877.08	51.46
877.38	50.9
877.68	49.64
877.981	51.1
878.281	53.62
878.581	54.73
