Data from BU26941_Reflection_00002.txt Node
Date: Tue Nov 19 11:03:20 EST 2019
User: vgr7
Spectrometer: USB2G7710
Scans to average: 3
Trigger mode: 4
Integration Time (sec): 2.000000E-2
Electric dark correction enabled: true
Boxcar width: 10
XAxis mode: Wavelengths
Number of Pixels in Spectrum: 2048
>>>>>Begin Spectral Data<<<<<
177.721	151.8
178.105	105.08
178.488	52.81
178.871	32.43
179.254	-29.51
179.636	-41.48
180.019	-73.63
180.402	320
180.785	-124.53
181.168	-1275
181.55	-222.34
181.933	-1047.89
182.316	600
182.698	773.55
183.081	1491.89
183.463	-280.24
183.846	-383.19
184.228	110.2
184.611	25.09
184.993	8.96
185.376	62.43
185.758	120.88
186.14	113.92
186.522	43.06
186.904	58.65
187.287	-18.29
187.669	-15.65
188.051	16.5
188.433	48.47
188.815	57.83
189.197	68.31
189.579	207.22
189.961	226.06
190.342	185.75
190.724	255.35
191.106	179.51
191.488	160.41
191.869	104.39
192.251	109.87
192.633	114.59
193.014	175.07
193.396	81.59
193.777	60.89
194.159	71
194.54	60.89
194.922	126.32
195.303	389.19
195.684	251.88
196.065	136.28
196.447	53.72
196.828	44.61
197.209	64.53
197.59	45.06
197.971	64.66
198.352	89.71
198.733	59.32
199.114	53.43
199.495	59.25
199.876	37.73
200.257	40.32
200.638	62.23
201.018	52.27
201.399	78.38
201.78	53.95
202.16	40.28
202.541	68.06
202.922	45.45
203.302	33.87
203.683	33.19
204.063	45.23
204.444	21.11
204.824	9.45
205.204	15.77
205.585	26.72
205.965	107.6
206.345	28.02
206.725	47.5
207.106	58.27
207.486	62.61
207.866	138.98
208.246	134.38
208.626	60.89
209.006	16.46
209.386	-23.22
209.766	-0
210.145	-2.91
210.525	-35.82
210.905	3.58
211.285	-73.63
211.664	-62.69
212.044	-29.33
212.424	70.17
212.803	66.84
213.183	26.37
213.562	80.6
213.942	35.01
214.321	64.59
214.701	-78.83
215.08	-74.16
215.459	98.39
215.838	6.84
216.218	-109.36
216.597	262.92
216.976	-189.47
217.355	-50400
217.734	97.61
218.113	659.41
218.492	1843.9
218.871	293.88
219.25	401.39
219.629	252.56
220.008	335.56
220.387	187.16
220.766	121.65
221.144	171.43
221.523	96.44
221.902	76.56
222.28	71.19
222.659	107.7
223.037	101.54
223.416	79.76
223.794	61.61
224.173	71.96
224.551	45.66
224.929	39.59
225.308	26.23
225.686	29.77
226.064	12.78
226.442	10.06
226.821	5.06
227.199	0.68
227.577	-0.31
227.955	5.88
228.333	5.59
228.711	3.29
229.089	-0.62
229.467	-0.67
229.845	-2.27
230.222	-3.38
230.6	-4.78
230.978	-4.05
231.356	-3.98
231.733	-1.16
232.111	-2.34
232.488	0.61
232.866	-0.15
233.243	1.48
233.621	1.45
233.998	4.28
234.376	4.55
234.753	4.94
235.13	4.53
235.508	3.84
235.885	1.41
236.262	2.72
236.639	3.9
237.016	3.75
237.393	5.05
237.77	4.25
238.147	4.8
238.524	4.22
238.901	3.5
239.278	3.3
239.655	3.25
240.032	3.69
240.409	2.84
240.785	2.18
241.162	2.64
241.539	2.86
241.915	2.82
242.292	2.71
242.668	2.89
243.045	3.28
243.421	3.41
243.798	3.38
244.174	3.3
244.551	3.27
244.927	3.54
245.303	3.25
245.679	3.48
246.056	3.5
246.432	3.58
246.808	3.8
247.184	4.08
247.56	4.11
247.936	4.34
248.312	4.32
248.688	4.63
249.064	4.66
249.44	4.71
249.815	4.64
250.191	4.7
250.567	4.71
250.943	4.7
251.318	4.67
251.694	4.75
252.069	4.57
252.445	4.5
252.82	4.84
253.196	5.16
253.571	5.24
253.947	5.23
254.322	5.36
254.697	4.85
255.073	4.39
255.448	4.36
255.823	3.93
256.198	4.07
256.573	4
256.948	3.73
257.323	3.61
257.698	3.66
258.073	3.54
258.448	3.47
258.823	3.28
259.198	3.36
259.573	3.3
259.948	3.5
260.322	3.46
260.697	3.44
261.072	3.44
261.446	3.37
261.821	3.38
262.195	3.34
262.57	3.5
262.944	3.61
263.319	3.61
263.693	3.56
264.067	3.55
264.442	3.64
264.816	3.77
265.19	3.87
265.564	3.76
265.938	3.74
266.313	3.77
266.687	3.85
267.061	3.92
267.435	4.06
267.809	3.8
268.183	3.74
268.556	3.38
268.93	3.36
269.304	3.5
269.678	3.49
270.051	3.69
270.425	3.64
270.799	3.49
271.172	3.5
271.546	3.59
271.919	3.64
272.293	3.66
272.666	3.7
273.04	3.75
273.413	3.85
273.787	3.82
274.16	3.92
274.533	3.97
274.906	3.88
275.279	3.7
275.653	3.9
276.026	3.94
276.399	4.07
276.772	4.09
277.145	3.96
277.518	3.99
277.891	3.63
278.263	3.62
278.636	3.75
279.009	3.73
279.382	3.69
279.755	3.67
280.127	3.68
280.5	3.69
280.872	3.63
281.245	3.54
281.617	3.7
281.99	3.57
282.362	3.62
282.735	3.57
283.107	3.62
283.479	3.53
283.852	3.56
284.224	3.51
284.596	3.49
284.968	3.5
285.34	3.46
285.713	3.54
286.085	3.55
286.457	3.52
286.829	3.53
287.201	3.44
287.572	3.42
287.944	3.34
288.316	3.42
288.688	3.5
289.06	3.47
289.431	3.48
289.803	3.6
290.175	3.52
290.546	3.48
290.918	3.55
291.289	3.51
291.661	3.56
292.032	3.55
292.403	3.53
292.775	3.58
293.146	3.73
293.517	3.62
293.889	3.55
294.26	3.61
294.631	3.59
295.002	3.7
295.373	3.66
295.744	3.63
296.115	3.45
296.486	3.37
296.857	3.51
297.228	3.4
297.599	3.21
297.97	3.4
298.34	3.57
298.711	3.57
299.082	3.62
299.452	3.55
299.823	3.66
300.194	3.81
300.564	3.72
300.935	3.6
301.305	3.63
301.676	3.54
302.046	3.52
302.416	3.55
302.787	3.57
303.157	3.59
303.527	3.64
303.897	3.63
304.267	3.78
304.637	3.71
305.008	3.73
305.378	3.81
305.748	3.69
306.117	3.52
306.487	3.63
306.857	3.61
307.227	3.68
307.597	3.5
307.967	3.36
308.336	3.3
308.706	3.3
309.076	3.45
309.445	3.64
309.815	3.73
310.184	3.71
310.554	3.61
310.923	3.55
311.293	3.59
311.662	3.65
312.031	3.47
312.401	3.44
312.77	3.53
313.139	3.48
313.508	3.47
313.877	3.62
314.246	3.56
314.616	3.68
314.985	3.69
315.353	3.77
315.722	3.83
316.091	4.01
316.46	3.96
316.829	3.84
317.198	3.8
317.567	3.79
317.935	3.92
318.304	3.97
318.672	4.13
319.041	4.13
319.41	4.23
319.778	4.29
320.147	4.35
320.515	4.25
320.883	4.3
321.252	4.29
321.62	4.23
321.988	4.31
322.357	4.18
322.725	4.03
323.093	3.89
323.461	3.94
323.829	3.75
324.197	3.83
324.565	3.85
324.933	3.8
325.301	3.61
325.669	3.5
326.037	3.5
326.405	3.41
326.772	3.42
327.14	3.28
327.508	3.29
327.875	3.3
328.243	3.31
328.61	3.38
328.978	3.38
329.346	3.29
329.713	3.19
330.08	3.26
330.448	3.33
330.815	3.44
331.182	3.28
331.55	3.37
331.917	3.2
332.284	3.23
332.651	3.18
333.018	3.21
333.385	3.23
333.752	3.26
334.119	3.24
334.486	3.2
334.853	3.29
335.22	3.23
335.587	3.1
335.954	3.12
336.32	3.15
336.687	3.09
337.054	3.04
337.42	2.97
337.787	2.95
338.153	2.87
338.52	2.98
338.886	3.06
339.253	3
339.619	3.14
339.986	3.07
340.352	3.24
340.718	3.3
341.084	3.26
341.451	3.2
341.817	3.3
342.183	3.25
342.549	3.23
342.915	3.29
343.281	3.35
343.647	3.3
344.013	3.31
344.379	3.34
344.745	3.31
345.11	3.4
345.476	3.39
345.842	3.48
346.208	3.43
346.573	3.46
346.939	3.47
347.304	3.53
347.67	3.62
348.035	3.54
348.401	3.62
348.766	3.56
349.132	3.59
349.497	3.56
349.862	3.54
350.228	3.48
350.593	3.5
350.958	3.56
351.323	3.59
351.688	3.46
352.053	3.31
352.418	3.44
352.783	3.4
353.148	3.34
353.513	3.31
353.878	3.24
354.243	3.16
354.608	3.27
354.972	3.19
355.337	3.18
355.702	3.17
356.066	3.1
356.431	3.14
356.795	3.19
357.16	3.15
357.524	3.19
357.889	3.18
358.253	3.04
358.618	2.98
358.982	3
359.346	3
359.71	3.14
360.075	3.11
360.439	3.14
360.803	3.19
361.167	3.2
361.531	3.25
361.895	3.25
362.259	3.27
362.623	3.25
362.987	3.24
363.351	3.22
363.714	3.23
364.078	3.23
364.442	3.18
364.806	3.18
365.169	3.2
365.533	3.2
365.896	3.32
366.26	3.28
366.623	3.26
366.987	3.34
367.35	3.32
367.714	3.34
368.077	3.3
368.44	3.28
368.803	3.2
369.167	3.19
369.53	3.24
369.893	3.18
370.256	3.2
370.619	3.2
370.982	3.16
371.345	3.18
371.708	3.17
372.071	3.18
372.434	3.18
372.797	3.23
373.159	3.23
373.522	3.17
373.885	3.16
374.247	3.11
374.61	3.12
374.973	3.04
375.335	3.11
375.698	3.1
376.06	3.11
376.423	3.15
376.785	3.21
377.147	3.17
377.51	3.14
377.872	3.15
378.234	3.15
378.596	3.21
378.958	3.2
379.321	3.22
379.683	3.23
380.045	3.27
380.407	3.26
380.769	3.26
381.13	3.28
381.492	3.34
381.854	3.39
382.216	3.45
382.578	3.52
382.939	3.46
383.301	3.45
383.663	3.43
384.024	3.45
384.386	3.42
384.747	3.44
385.109	3.4
385.47	3.41
385.832	3.41
386.193	3.38
386.554	3.38
386.916	3.33
387.277	3.32
387.638	3.33
387.999	3.3
388.36	3.31
388.721	3.29
389.082	3.32
389.443	3.31
389.804	3.27
390.165	3.27
390.526	3.25
390.887	3.27
391.248	3.27
391.609	3.28
391.969	3.29
392.33	3.28
392.691	3.28
393.051	3.25
393.412	3.23
393.772	3.28
394.133	3.24
394.493	3.27
394.854	3.26
395.214	3.26
395.574	3.23
395.935	3.25
396.295	3.25
396.655	3.24
397.015	3.24
397.376	3.22
397.736	3.18
398.096	3.23
398.456	3.24
398.816	3.24
399.176	3.23
399.535	3.21
399.895	3.19
400.255	3.21
400.615	3.21
400.975	3.24
401.334	3.23
401.694	3.26
402.054	3.26
402.413	3.27
402.773	3.27
403.132	3.28
403.492	3.27
403.851	3.29
404.211	3.26
404.57	3.25
404.929	3.25
405.288	3.26
405.648	3.23
406.007	3.2
406.366	3.19
406.725	3.18
407.084	3.2
407.443	3.19
407.802	3.19
408.161	3.21
408.52	3.2
408.879	3.19
409.238	3.18
409.596	3.19
409.955	3.19
410.314	3.2
410.673	3.2
411.031	3.18
411.39	3.17
411.748	3.19
412.107	3.17
412.465	3.15
412.824	3.16
413.182	3.14
413.54	3.14
413.899	3.13
414.257	3.12
414.615	3.09
414.974	3.11
415.332	3.12
415.69	3.12
416.048	3.12
416.406	3.13
416.764	3.14
417.122	3.13
417.48	3.14
417.838	3.13
418.195	3.13
418.553	3.14
418.911	3.14
419.269	3.15
419.626	3.16
419.984	3.17
420.342	3.17
420.699	3.18
421.057	3.2
421.414	3.21
421.772	3.21
422.129	3.21
422.486	3.2
422.844	3.2
423.201	3.2
423.558	3.19
423.915	3.19
424.273	3.19
424.63	3.19
424.987	3.19
425.344	3.2
425.701	3.19
426.058	3.2
426.415	3.19
426.772	3.2
427.128	3.2
427.485	3.22
427.842	3.21
428.199	3.21
428.555	3.19
428.912	3.2
429.269	3.21
429.625	3.21
429.982	3.21
430.338	3.23
430.695	3.21
431.051	3.22
431.407	3.22
431.764	3.21
432.12	3.22
432.476	3.23
432.832	3.2
433.189	3.22
433.545	3.21
433.901	3.23
434.257	3.21
434.613	3.2
434.969	3.18
435.325	3.19
435.681	3.18
436.036	3.18
436.392	3.19
436.748	3.2
437.104	3.21
437.459	3.21
437.815	3.21
438.171	3.22
438.526	3.21
438.882	3.21
439.237	3.21
439.593	3.2
439.948	3.2
440.304	3.21
440.659	3.21
441.014	3.21
441.369	3.2
441.725	3.21
442.08	3.21
442.435	3.21
442.79	3.22
443.145	3.23
443.5	3.23
443.855	3.21
444.21	3.2
444.565	3.2
444.92	3.2
445.275	3.19
445.629	3.16
445.984	3.17
446.339	3.16
446.693	3.17
447.048	3.15
447.403	3.14
447.757	3.14
448.112	3.13
448.466	3.15
448.82	3.14
449.175	3.14
449.529	3.16
449.883	3.15
450.238	3.16
450.592	3.16
450.946	3.15
451.3	3.14
451.654	3.16
452.008	3.15
452.362	3.16
452.716	3.19
453.07	3.2
453.424	3.21
453.778	3.23
454.132	3.22
454.486	3.25
454.839	3.26
455.193	3.27
455.547	3.28
455.9	3.27
456.254	3.27
456.607	3.29
456.961	3.28
457.314	3.28
457.668	3.27
458.021	3.26
458.375	3.26
458.728	3.25
459.081	3.25
459.434	3.25
459.787	3.26
460.141	3.24
460.494	3.25
460.847	3.25
461.2	3.24
461.553	3.27
461.906	3.25
462.259	3.24
462.611	3.23
462.964	3.22
463.317	3.22
463.67	3.22
464.022	3.21
464.375	3.22
464.728	3.23
465.08	3.23
465.433	3.24
465.785	3.26
466.138	3.3
466.49	3.29
466.843	3.33
467.195	3.32
467.547	3.33
467.899	3.31
468.252	3.32
468.604	3.32
468.956	3.3
469.308	3.31
469.66	3.34
470.012	3.36
470.364	3.36
470.716	3.36
471.068	3.37
471.42	3.38
471.772	3.37
472.123	3.37
472.475	3.36
472.827	3.35
473.178	3.32
473.53	3.31
473.882	3.32
474.233	3.29
474.585	3.28
474.936	3.28
475.288	3.27
475.639	3.28
475.99	3.27
476.342	3.28
476.693	3.27
477.044	3.26
477.395	3.25
477.746	3.24
478.097	3.26
478.448	3.24
478.8	3.23
479.15	3.24
479.501	3.24
479.852	3.26
480.203	3.27
480.554	3.28
480.905	3.29
481.255	3.3
481.606	3.31
481.957	3.31
482.307	3.32
482.658	3.33
483.009	3.33
483.359	3.34
483.709	3.35
484.06	3.36
484.41	3.36
484.761	3.37
485.111	3.37
485.461	3.35
485.811	3.36
486.162	3.36
486.512	3.36
486.862	3.37
487.212	3.37
487.562	3.37
487.912	3.37
488.262	3.36
488.612	3.36
488.961	3.36
489.311	3.36
489.661	3.36
490.011	3.36
490.36	3.35
490.71	3.34
491.06	3.34
491.409	3.33
491.759	3.32
492.108	3.32
492.458	3.32
492.807	3.33
493.157	3.35
493.506	3.35
493.855	3.35
494.204	3.36
494.554	3.37
494.903	3.38
495.252	3.39
495.601	3.39
495.95	3.4
496.299	3.41
496.648	3.41
496.997	3.43
497.346	3.44
497.695	3.46
498.043	3.48
498.392	3.49
498.741	3.49
499.09	3.51
499.438	3.53
499.787	3.55
500.135	3.56
500.484	3.55
500.832	3.54
501.181	3.55
501.529	3.55
501.878	3.57
502.226	3.59
502.574	3.6
502.923	3.59
503.271	3.58
503.619	3.59
503.967	3.61
504.315	3.59
504.663	3.59
505.011	3.58
505.359	3.55
505.707	3.56
506.055	3.56
506.403	3.55
506.751	3.54
507.098	3.56
507.446	3.56
507.794	3.56
508.141	3.57
508.489	3.57
508.837	3.56
509.184	3.56
509.531	3.54
509.879	3.54
510.226	3.56
510.574	3.58
510.921	3.56
511.268	3.56
511.616	3.56
511.963	3.56
512.31	3.56
512.657	3.58
513.004	3.57
513.351	3.57
513.698	3.56
514.045	3.56
514.392	3.56
514.739	3.54
515.086	3.56
515.432	3.57
515.779	3.56
516.126	3.59
516.473	3.59
516.819	3.6
517.166	3.6
517.512	3.6
517.859	3.62
518.205	3.62
518.552	3.63
518.898	3.62
519.245	3.63
519.591	3.64
519.937	3.64
520.283	3.67
520.629	3.68
520.976	3.69
521.322	3.71
521.668	3.7
522.014	3.72
522.36	3.71
522.706	3.7
523.052	3.71
523.398	3.7
523.743	3.69
524.089	3.69
524.435	3.69
524.781	3.69
525.126	3.69
525.472	3.72
525.817	3.71
526.163	3.72
526.509	3.73
526.854	3.73
527.199	3.74
527.545	3.73
527.89	3.72
528.235	3.72
528.581	3.71
528.926	3.71
529.271	3.7
529.616	3.71
529.961	3.72
530.306	3.72
530.651	3.71
530.996	3.72
531.341	3.72
531.686	3.72
532.031	3.71
532.376	3.71
532.721	3.7
533.065	3.69
533.41	3.69
533.755	3.69
534.099	3.68
534.444	3.69
534.788	3.69
535.133	3.71
535.477	3.73
535.822	3.72
536.166	3.74
536.51	3.76
536.855	3.76
537.199	3.74
537.543	3.76
537.887	3.76
538.231	3.76
538.576	3.75
538.92	3.77
539.264	3.76
539.608	3.76
539.951	3.75
540.295	3.77
540.639	3.77
540.983	3.77
541.327	3.78
541.671	3.78
542.014	3.79
542.358	3.78
542.701	3.77
543.045	3.78
543.389	3.78
543.732	3.77
544.075	3.76
544.419	3.77
544.762	3.76
545.105	3.76
545.449	3.78
545.792	3.79
546.135	3.78
546.478	3.8
546.821	3.81
547.165	3.84
547.508	3.84
547.851	3.86
548.194	3.85
548.536	3.84
548.879	3.83
549.222	3.82
549.565	3.82
549.908	3.84
550.25	3.83
550.593	3.81
550.936	3.82
551.278	3.84
551.621	3.85
551.963	3.88
552.306	3.9
552.648	3.89
552.991	3.86
553.333	3.88
553.675	3.89
554.017	3.86
554.36	3.84
554.702	3.81
555.044	3.81
555.386	3.81
555.728	3.82
556.07	3.79
556.412	3.8
556.754	3.79
557.096	3.78
557.438	3.79
557.78	3.81
558.121	3.82
558.463	3.79
558.805	3.79
559.147	3.79
559.488	3.78
559.83	3.79
560.171	3.82
560.513	3.83
560.854	3.81
561.196	3.83
561.537	3.86
561.878	3.9
562.22	3.87
562.561	3.86
562.902	3.86
563.243	3.9
563.584	3.9
563.925	3.92
564.266	3.92
564.607	3.93
564.948	3.94
565.289	3.94
565.63	3.95
565.971	3.97
566.312	3.94
566.653	3.94
566.993	3.91
567.334	3.91
567.675	3.89
568.015	3.89
568.356	3.87
568.696	3.86
569.037	3.82
569.377	3.83
569.718	3.85
570.058	3.85
570.398	3.84
570.739	3.82
571.079	3.81
571.419	3.82
571.759	3.8
572.099	3.78
572.439	3.78
572.779	3.78
573.119	3.76
573.459	3.76
573.799	3.78
574.139	3.8
574.479	3.8
574.819	3.8
575.158	3.85
575.498	3.87
575.838	3.87
576.177	3.88
576.517	3.89
576.856	3.89
577.196	3.89
577.535	3.89
577.875	3.9
578.214	3.92
578.553	3.92
578.893	3.96
579.232	3.98
579.571	4
579.91	4.03
580.25	4.08
580.589	4.09
580.928	4.1
581.267	4.1
581.606	4.1
581.945	4.1
582.283	4.12
582.622	4.1
582.961	4.11
583.3	4.16
583.639	4.2
583.977	4.24
584.316	4.24
584.654	4.25
584.993	4.25
585.332	4.27
585.67	4.27
586.008	4.24
586.347	4.28
586.685	4.26
587.024	4.23
587.362	4.2
587.7	4.21
588.038	4.18
588.376	4.17
588.715	4.18
589.053	4.19
589.391	4.17
589.729	4.15
590.067	4.14
590.404	4.11
590.742	4.06
591.08	4.03
591.418	4.04
591.756	4.04
592.093	4.04
592.431	4.01
592.769	4.01
593.106	4.01
593.444	4.01
593.781	4.01
594.119	4
594.456	3.98
594.793	4
595.131	4.04
595.468	4.05
595.805	4.05
596.143	4.04
596.48	4.03
596.817	4.06
597.154	4.08
597.491	4.08
597.828	4.09
598.165	4.07
598.502	4.04
598.839	4.04
599.176	4.05
599.512	4.06
599.849	4.06
600.186	4.06
600.523	4
600.859	4.02
601.196	4.05
601.532	4.05
601.869	4.04
602.205	4.03
602.542	4.04
602.878	4.04
603.215	4.06
603.551	4.06
603.887	4.06
604.223	4.04
604.56	4.05
604.896	4.07
605.232	4.06
605.568	4.07
605.904	4.06
606.24	4.08
606.576	4.1
606.912	4.08
607.248	4.09
607.583	4.14
607.919	4.13
608.255	4.13
608.591	4.14
608.926	4.13
609.262	4.1
609.597	4.09
609.933	4.08
610.268	4.08
610.604	4.06
610.939	4.07
611.275	4.07
611.61	4.05
611.945	4.04
612.281	4.06
612.616	4.12
612.951	4.2
613.286	4.19
613.621	4.17
613.956	4.18
614.291	4.18
614.626	4.17
614.961	4.18
615.296	4.21
615.631	4.26
615.966	4.28
616.3	4.32
616.635	4.31
616.97	4.35
617.304	4.33
617.639	4.36
617.973	4.36
618.308	4.44
618.642	4.42
618.977	4.38
619.311	4.4
619.646	4.35
619.98	4.3
620.314	4.31
620.648	4.34
620.983	4.39
621.317	4.34
621.651	4.38
621.985	4.35
622.319	4.3
622.653	4.29
622.987	4.26
623.321	4.23
623.655	4.22
623.988	4.22
624.322	4.22
624.656	4.2
624.99	4.19
625.323	4.11
625.657	4.19
625.99	4.23
626.324	4.22
626.657	4.21
626.991	4.17
627.324	4.16
627.658	4.17
627.991	4.17
628.324	4.2
628.657	4.13
628.991	4.13
629.324	4.13
629.657	4.08
629.99	4.13
630.323	4.13
630.656	4.11
630.989	4.08
631.322	4.12
631.655	4.1
631.987	4.11
632.32	4.17
632.653	4.18
632.986	4.14
633.318	4.14
633.651	4.15
633.984	4.21
634.316	4.21
634.649	4.18
634.981	4.12
635.313	4.12
635.646	4.19
635.978	4.21
636.31	4.24
636.643	4.24
636.975	4.21
637.307	4.24
637.639	4.27
637.971	4.32
638.303	4.28
638.635	4.34
638.967	4.31
639.299	4.31
639.631	4.27
639.963	4.27
640.295	4.32
640.626	4.35
640.958	4.31
641.29	4.34
641.621	4.32
641.953	4.34
642.285	4.36
642.616	4.3
642.948	4.32
643.279	4.31
643.61	4.37
643.942	4.42
644.273	4.41
644.604	4.37
644.936	4.38
645.267	4.4
645.598	4.4
645.929	4.44
646.26	4.38
646.591	4.43
646.922	4.46
647.253	4.42
647.584	4.38
647.915	4.37
648.245	4.38
648.576	4.36
648.907	4.36
649.238	4.38
649.568	4.43
649.899	4.39
650.229	4.45
650.56	4.42
650.89	4.4
651.221	4.44
651.551	4.45
651.882	4.44
652.212	4.42
652.542	4.42
652.872	4.41
653.203	4.52
653.533	4.45
653.863	4.46
654.193	4.47
654.523	4.45
654.853	4.48
655.183	4.48
655.513	4.58
655.843	4.59
656.172	4.57
656.502	4.52
656.832	4.51
657.162	4.45
657.491	4.43
657.821	4.44
658.15	4.42
658.48	4.48
658.809	4.51
659.139	4.5
659.468	4.48
659.798	4.48
660.127	4.43
660.456	4.48
660.785	4.49
661.115	4.5
661.444	4.59
661.773	4.62
662.102	4.57
662.431	4.53
662.76	4.57
663.089	4.56
663.418	4.55
663.747	4.57
664.076	4.58
664.404	4.62
664.733	4.54
665.062	4.58
665.39	4.57
665.719	4.5
666.048	4.52
666.376	4.55
666.705	4.55
667.033	4.54
667.362	4.54
667.69	4.52
668.018	4.54
668.347	4.44
668.675	4.39
669.003	4.45
669.331	4.49
669.659	4.44
669.987	4.49
670.315	4.55
670.643	4.62
670.971	4.69
671.299	4.62
671.627	4.64
671.955	4.52
672.283	4.46
672.61	4.54
672.938	4.59
673.266	4.62
673.593	4.6
673.921	4.58
674.249	4.54
674.576	4.53
674.904	4.49
675.231	4.52
675.558	4.5
675.886	4.49
676.213	4.39
676.54	4.44
676.867	4.4
677.195	4.36
677.522	4.29
677.849	4.22
678.176	4.28
678.503	4.32
678.83	4.41
679.157	4.42
679.484	4.42
679.81	4.39
680.137	4.37
680.464	4.44
680.791	4.48
681.117	4.46
681.444	4.47
681.771	4.49
682.097	4.52
682.424	4.52
682.75	4.56
683.077	4.59
683.403	4.67
683.729	4.7
684.056	4.73
684.382	4.77
684.708	4.81
685.034	4.81
685.36	4.85
685.686	4.87
686.012	4.91
686.339	4.9
686.664	4.92
686.99	4.89
687.316	4.9
687.642	4.89
687.968	4.99
688.294	5.02
688.619	5
688.945	4.96
689.271	4.98
689.596	4.94
689.922	4.97
690.247	4.89
690.573	4.83
690.898	4.84
691.224	4.8
691.549	4.8
691.874	4.82
692.2	4.93
692.525	4.83
692.85	4.86
693.175	4.9
693.5	4.85
693.825	4.78
694.15	4.68
694.475	4.61
694.8	4.52
695.125	4.45
695.45	4.35
695.775	4.37
696.099	4.4
696.424	4.38
696.749	4.39
697.073	4.29
697.398	4.38
697.723	4.36
698.047	4.35
698.372	4.38
698.696	4.44
699.02	4.27
699.345	4.39
699.669	4.38
699.993	4.37
700.318	4.39
700.642	4.47
700.966	4.51
701.29	4.58
701.614	4.67
701.938	4.77
702.262	4.85
702.586	4.92
702.91	4.95
703.234	4.97
703.557	5.04
703.881	5.21
704.205	5.27
704.529	5.31
704.852	5.32
705.176	5.35
705.499	5.19
705.823	5.38
706.146	5.31
706.47	5.36
706.793	5.36
707.117	5.3
707.44	5.3
707.763	5.31
708.086	5.24
708.409	5.13
708.733	5.07
709.056	5.13
709.379	5.15
709.702	5.03
710.025	5.07
710.348	5.06
710.671	5.03
710.993	4.89
711.316	4.96
711.639	5.05
711.962	5
712.284	5.08
712.607	4.98
712.93	4.98
713.252	4.9
713.575	4.87
713.897	4.97
714.22	4.98
714.542	5.04
714.864	5.03
715.187	5.05
715.509	5.04
715.831	5
716.153	4.94
716.475	5.02
716.798	5.01
717.12	4.94
717.442	4.91
717.764	4.86
718.085	4.79
718.407	4.73
718.729	4.74
719.051	4.78
719.373	4.94
719.695	4.92
720.016	4.96
720.338	5.03
720.659	5.09
720.981	5.1
721.302	5.14
721.624	5.22
721.945	5.3
722.267	5.5
722.588	5.6
722.909	5.73
723.231	5.7
723.552	5.73
723.873	5.84
724.194	5.75
724.515	5.84
724.836	5.78
725.157	5.86
725.478	5.96
725.799	5.94
726.12	5.86
726.441	6
726.762	6.05
727.083	6.06
727.403	5.95
727.724	5.83
728.045	5.83
728.365	5.7
728.686	5.67
729.006	5.49
729.327	5.47
729.647	5.32
729.967	5.42
730.288	5.42
730.608	5.52
730.928	5.66
731.249	5.75
731.569	5.84
731.889	5.76
732.209	5.75
732.529	5.87
732.849	5.86
733.169	5.86
733.489	5.76
733.809	5.76
734.129	5.91
734.448	5.99
734.768	5.95
735.088	6.08
735.408	6.09
735.727	6.18
736.047	6.21
736.366	6.29
736.686	6.27
737.005	6.24
737.325	6.02
737.644	5.86
737.963	5.88
738.283	5.89
738.602	5.93
738.921	6.04
739.24	5.79
739.56	5.82
739.879	5.78
740.198	5.83
740.517	5.8
740.836	5.67
741.155	5.64
741.473	5.67
741.792	5.81
742.111	6
742.43	6.05
742.748	6.03
743.067	6.16
743.386	6.23
743.704	6.21
744.023	6.46
744.341	6.64
744.66	6.5
744.978	6.46
745.297	6.65
745.615	6.37
745.933	6.71
746.252	6.8
746.57	6.74
746.888	6.7
747.206	6.7
747.524	6.7
747.842	6.6
748.16	6.64
748.478	6.51
748.796	6.46
749.114	6.51
749.432	6.41
749.749	6.57
750.067	6.6
750.385	6.76
750.703	6.67
751.02	6.7
751.338	6.65
751.655	6.79
751.973	6.73
752.29	6.91
752.608	6.55
752.925	6.35
753.242	6.48
753.56	6.55
753.877	6.48
754.194	6.52
754.511	6.55
754.828	6.47
755.145	6.27
755.462	5.99
755.779	6.08
756.096	6.13
756.413	5.91
756.73	5.85
757.047	5.66
757.364	5.59
757.68	5.57
757.997	5.83
758.314	5.83
758.63	5.89
758.947	5.93
759.264	5.87
759.58	6.1
759.896	5.98
760.213	6
760.529	6.04
760.846	6.17
761.162	6.32
761.478	6.51
761.794	6.79
762.11	6.88
762.426	6.63
762.743	6.71
763.059	6.9
763.375	6.97
763.69	6.92
764.006	6.95
764.322	6.91
764.638	7.04
764.954	6.89
765.27	6.95
765.585	6.89
765.901	7.04
766.216	7.06
766.532	7.02
766.848	6.91
767.163	6.79
767.478	6.58
767.794	6.51
768.109	6.44
768.424	6.27
768.74	6.18
769.055	6.21
769.37	5.84
769.685	5.78
770	5.62
770.315	5.95
770.63	6.15
770.945	6.19
771.26	5.84
771.575	6.13
771.89	6.01
772.205	6.02
772.52	6.2
772.834	6.07
773.149	5.95
773.464	6.07
773.778	6.11
774.093	6.35
774.407	6.31
774.722	6.15
775.036	6.47
775.351	6.74
775.665	6.96
775.979	7.55
776.293	7.33
776.608	7.46
776.922	7.24
777.236	7.15
777.55	7.3
777.864	7.24
778.178	6.98
778.492	7.12
778.806	7.27
779.12	6.94
779.434	6.7
779.747	7.37
780.061	7.89
780.375	8.11
780.689	8.02
781.002	8.5
781.316	8.67
781.629	8.7
781.943	8.66
782.256	8.48
782.57	8.5
782.883	8.31
783.196	8.2
783.51	8.22
783.823	8.24
784.136	8.04
784.449	8.37
784.762	8.62
785.075	8.31
785.388	8.46
785.701	8.57
786.014	8.83
786.327	8.46
786.64	7.99
786.953	8.1
787.266	8.2
787.578	7.95
787.891	7.98
788.204	7.52
788.516	7.69
788.829	7.73
789.141	7.84
789.454	8.11
789.766	8.62
790.079	8.75
790.391	8.1
790.703	8.02
791.016	7.82
791.328	7.65
791.64	7.64
791.952	7.63
792.264	7.52
792.576	7.62
792.888	7.72
793.2	7.78
793.512	7.74
793.824	7.72
794.136	7.71
794.448	8.04
794.76	8.44
795.071	8.16
795.383	8.43
795.695	8
796.006	7.69
796.318	7.66
796.629	8.14
796.941	9.15
797.252	9.22
797.564	9.19
797.875	9.03
798.186	9.09
798.497	9.04
798.809	9.31
799.12	8.81
799.431	8.57
799.742	8.59
800.053	8.33
800.364	8.49
800.675	8.52
800.986	8.23
801.297	7.79
801.608	7.75
801.918	7.84
802.229	8.12
802.54	8.56
802.851	8.21
803.161	7.89
803.472	7.56
803.782	7.88
804.093	7.87
804.403	8.22
804.714	8.27
805.024	8.64
805.334	8.91
805.645	9.48
805.955	9.76
806.265	9.99
806.575	10.09
806.885	9.92
807.195	10.17
807.505	10.03
807.815	10.53
808.125	10.21
808.435	9.79
808.745	9.45
809.055	9.05
809.365	8.9
809.674	8.68
809.984	8.38
810.294	7.77
810.603	7.19
810.913	7.27
811.222	7.2
811.532	6.23
811.841	6.18
812.151	6.04
812.46	5.56
812.769	5.48
813.079	6.04
813.388	5.59
813.697	4.68
814.006	5.04
814.315	5.07
814.624	5.82
814.933	5.88
815.242	6.16
815.551	6.4
815.86	6.74
816.169	6.59
816.478	6.46
816.786	6.94
817.095	7.77
817.404	7.81
817.712	7.76
818.021	8.37
818.33	8.08
818.638	8.46
818.947	8.82
819.255	8.77
819.563	8.62
819.872	8.6
820.18	8.71
820.488	8.78
820.796	8.77
821.105	8.82
821.413	8.8
821.721	8.75
822.029	8.64
822.337	8.51
822.645	8.61
822.953	8.84
823.26	8.88
823.568	8.73
823.876	8.74
824.184	8.81
824.491	8.75
824.799	8.8
825.107	8.71
825.414	8.71
825.722	8.63
826.029	8.67
826.337	8.78
826.644	8.86
826.951	8.71
827.259	8.85
827.566	8.86
827.873	9
828.18	9.24
828.488	9.3
828.795	9.43
829.102	9.46
829.409	9.06
829.716	9.02
830.023	9.12
830.329	9.19
830.636	9.22
830.943	9.13
831.25	9.22
831.557	9.44
831.863	9.47
832.17	9.55
832.476	9.26
832.783	8.96
833.089	8.8
833.396	8.8
833.702	8.43
834.009	8.14
834.315	8.17
834.621	7.84
834.928	8.03
835.234	7.97
835.54	7.63
835.846	8.14
836.152	8.62
836.458	8.69
836.764	8.83
837.07	8.75
837.376	8.89
837.682	8.6
837.988	8.22
838.293	8.17
838.599	8.17
838.905	8.36
839.211	8.49
839.516	9.26
839.822	9.67
840.127	9.88
840.433	9.97
840.738	9.72
841.044	10.16
841.349	10.83
841.654	10.51
841.959	10.57
842.265	10.06
842.57	9.52
842.875	10.08
843.18	10.1
843.485	10.49
843.79	10.21
844.095	10.83
844.4	10.72
844.705	11.09
845.01	12.19
845.315	12.06
845.619	13.1
845.924	12.84
846.229	12.21
846.533	11.46
846.838	11.4
847.142	12.44
847.447	13.09
847.751	11.54
848.056	11.63
848.36	13.86
848.664	14.94
848.969	13.69
849.273	12.52
849.577	11.61
849.881	11.86
850.185	11.37
850.489	11.95
850.794	13.89
851.097	13.99
851.401	13.26
851.705	13.71
852.009	13.91
852.313	12.22
852.617	12.25
852.92	14.15
853.224	16.69
853.528	15.66
853.831	14.85
854.135	15.19
854.438	14.71
854.742	12.87
855.045	13.31
855.349	13.01
855.652	13.56
855.955	13.7
856.259	12.39
856.562	13.55
856.865	14.02
857.168	14.2
857.471	13.6
857.774	13.86
858.077	14.53
858.38	13.84
858.683	15.19
858.986	16.86
859.289	16.08
859.592	14.85
859.894	15.32
860.197	15.78
860.5	17.55
860.802	18.73
861.105	19.93
861.407	19.54
861.71	21.75
862.012	21.51
862.315	23.01
862.617	25.26
862.919	28.14
863.222	26
863.524	22.72
863.826	22.96
864.128	21.38
864.43	21.82
864.732	23.15
865.034	22.78
865.336	20.64
865.638	19.29
865.94	19.98
866.242	19.6
866.544	20.14
866.846	18.52
867.147	19.7
867.449	19.5
867.751	19.45
868.052	17.3
868.354	17.69
868.655	15.98
868.957	15.53
869.258	11.74
869.56	13.53
869.861	14.22
870.162	14.69
870.463	14.38
870.765	14.05
871.066	12.95
871.367	12.26
871.668	13.26
871.969	14.19
872.27	13.36
872.571	12.08
872.872	10.86
873.173	11.4
873.473	10.18
873.774	8.96
874.075	8.12
874.376	5.27
874.676	7.99
874.977	8.41
875.277	5.76
875.578	9.07
875.878	7.87
876.179	8.87
876.479	7.98
876.78	9.06
877.08	8.5
877.38	9.28
877.68	10.09
877.981	9.33
878.281	9.04
878.581	7.83
