Data from BU26842_Reflection_00010.txt Node
Date: Mon Nov 18 16:38:44 EST 2019
User: vgr7
Spectrometer: USB2G7710
Scans to average: 3
Trigger mode: 4
Integration Time (sec): 2.000000E-2
Electric dark correction enabled: true
Boxcar width: 10
XAxis mode: Wavelengths
Number of Pixels in Spectrum: 2048
>>>>>Begin Spectral Data<<<<<
177.721	-121.37
178.105	-42.21
178.488	-26.54
178.871	-53.62
179.254	17.33
179.636	-63.49
180.019	-143.44
180.402	79.07
180.785	92.38
181.168	87.22
181.55	79.2
181.933	209.09
182.316	-562.07
182.698	-247.11
183.081	63.08
183.463	30.94
183.846	11.54
184.228	26.36
184.611	29.62
184.993	17.29
185.376	144.16
185.758	364.53
186.14	-427.2
186.522	-208.68
186.904	-509.14
187.287	-727.59
187.669	78.74
188.051	45.35
188.433	5.96
188.815	-6.45
189.197	-27.07
189.579	-14.53
189.961	-21
190.342	-14.98
190.724	-8.75
191.106	-28.32
191.488	10.63
191.869	8.8
192.251	4.96
192.633	7.09
193.014	-1.47
193.396	-44.62
193.777	-51.07
194.159	-27.18
194.54	-17.49
194.922	-10.85
195.303	-14.04
195.684	-28.24
196.065	-14.43
196.447	-6.98
196.828	-14.26
197.209	-24.02
197.59	-30.79
197.971	-28.21
198.352	-29.63
198.733	-35.48
199.114	-32.6
199.495	-49.26
199.876	-51.47
200.257	-21.33
200.638	-15.49
201.018	-4.37
201.399	21.98
201.78	35.45
202.16	15.21
202.541	-3.25
202.922	-13.44
203.302	13.1
203.683	69.98
204.063	53.09
204.444	56.2
204.824	55.25
205.204	62.98
205.585	55.09
205.965	42.11
206.345	55.53
206.725	23.96
207.106	19.03
207.486	15.59
207.866	40.52
208.246	-11.82
208.626	-31.52
209.006	-15.35
209.386	-31.05
209.766	-45.23
210.145	-23.87
210.525	10.67
210.905	4.64
211.285	-16.05
211.664	-8.8
212.044	-13.7
212.424	-10.94
212.803	-6.82
213.183	-11.54
213.562	-16.55
213.942	-4.6
214.321	-7.8
214.701	-2.89
215.08	5.98
215.459	1.14
215.838	-15.02
216.218	-28.6
216.597	-16.61
216.976	-23.91
217.355	-19.48
217.734	-13.11
218.113	-15.92
218.492	-19.12
218.871	-28.56
219.25	-13.12
219.629	-25.27
220.008	-15.32
220.387	-23.97
220.766	-33.14
221.144	-37.98
221.523	-37.07
221.902	-34.52
222.28	-31.14
222.659	-21.19
223.037	-19.32
223.416	-15.97
223.794	-7.06
224.173	11.66
224.551	12.17
224.929	20.07
225.308	18.89
225.686	19.6
226.064	18.64
226.442	15
226.821	16.94
227.199	10.79
227.577	12.08
227.955	8.96
228.333	11.6
228.711	12.34
229.089	16.6
229.467	14.43
229.845	12.5
230.222	12.58
230.6	11.01
230.978	12.29
231.356	13.74
231.733	12.4
232.111	9.58
232.488	10.43
232.866	8.82
233.243	8.35
233.621	8.07
233.998	10.58
234.376	9.14
234.753	9.09
235.13	9.17
235.508	9.63
235.885	7.26
236.262	5.78
236.639	6.31
237.016	5.26
237.393	7.17
237.77	8.06
238.147	6.96
238.524	5.83
238.901	5.74
239.278	5.36
239.655	6.9
240.032	6.99
240.409	6.09
240.785	5.84
241.162	5.63
241.539	5.3
241.915	4.81
242.292	4.43
242.668	4.11
243.045	4.01
243.421	3.85
243.798	4.25
244.174	3.99
244.551	3.75
244.927	3.45
245.303	3.49
245.679	3.59
246.056	3.68
246.432	3.85
246.808	3.83
247.184	3.53
247.56	3.25
247.936	3.27
248.312	3.64
248.688	3.51
249.064	3.55
249.44	3.72
249.815	3.82
250.191	4.09
250.567	4.32
250.943	4.28
251.318	4.4
251.694	4.23
252.069	4.49
252.445	4.86
252.82	5.23
253.196	4.94
253.571	4.88
253.947	5.1
254.322	5.08
254.697	5.15
255.073	4.97
255.448	4.78
255.823	4.67
256.198	4.17
256.573	4.3
256.948	4.37
257.323	4.23
257.698	4.27
258.073	4.16
258.448	4.03
258.823	4.19
259.198	3.96
259.573	4.12
259.948	3.92
260.322	3.87
260.697	3.71
261.072	3.85
261.446	3.75
261.821	3.45
262.195	3.58
262.57	3.3
262.944	3.49
263.319	3.51
263.693	3.4
264.067	3.52
264.442	3.52
264.816	3.23
265.19	3.24
265.564	3
265.938	3.11
266.313	3.3
266.687	3.29
267.061	3.53
267.435	3.45
267.809	3.56
268.183	3.37
268.556	3.17
268.93	3.1
269.304	3.06
269.678	3.4
270.051	3.29
270.425	3.44
270.799	3.32
271.172	3.43
271.546	3.46
271.919	3.49
272.293	3.55
272.666	3.65
273.04	3.71
273.413	3.54
273.787	3.55
274.16	3.42
274.533	3.41
274.906	3.19
275.279	3.3
275.653	3.26
276.026	3.42
276.399	3.5
276.772	3.47
277.145	3.52
277.518	3.32
277.891	3.43
278.263	3.45
278.636	3.56
279.009	3.34
279.382	3.46
279.755	3.33
280.127	3.37
280.5	3.27
280.872	3.22
281.245	3.34
281.617	3.33
281.99	3.33
282.362	3.35
282.735	3.26
283.107	3.17
283.479	3.28
283.852	3.23
284.224	3.35
284.596	3.4
284.968	3.45
285.34	3.63
285.713	3.61
286.085	3.56
286.457	3.53
286.829	3.61
287.201	3.47
287.572	3.42
287.944	3.25
288.316	3.4
288.688	3.41
289.06	3.52
289.431	3.52
289.803	3.6
290.175	3.61
290.546	3.79
290.918	3.87
291.289	3.92
291.661	3.99
292.032	4.03
292.403	3.99
292.775	4.05
293.146	3.94
293.517	4.03
293.889	4.02
294.26	4.09
294.631	4.05
295.002	4.23
295.373	4.37
295.744	4.43
296.115	4.39
296.486	4.19
296.857	4.14
297.228	4.16
297.599	4.1
297.97	4.12
298.34	4.09
298.711	4.18
299.082	4.19
299.452	4.25
299.823	4.26
300.194	4.34
300.564	4.26
300.935	4.3
301.305	4.17
301.676	4.29
302.046	4.27
302.416	4.57
302.787	4.61
303.157	4.69
303.527	4.76
303.897	4.75
304.267	5.12
304.637	5.21
305.008	5.27
305.378	5.41
305.748	5.27
306.117	5.34
306.487	5.27
306.857	5.26
307.227	5.18
307.597	5.13
307.967	5.09
308.336	5.15
308.706	5.11
309.076	5.19
309.445	5.11
309.815	5.04
310.184	4.85
310.554	4.84
310.923	4.82
311.293	4.85
311.662	4.89
312.031	4.84
312.401	4.9
312.77	4.93
313.139	5.08
313.508	5.27
313.877	5.41
314.246	5.48
314.616	5.52
314.985	5.51
315.353	5.49
315.722	5.52
316.091	5.43
316.46	5.57
316.829	5.55
317.198	5.64
317.567	5.71
317.935	5.72
318.304	5.64
318.672	5.54
319.041	5.48
319.41	5.55
319.778	5.48
320.147	5.34
320.515	5.32
320.883	5.1
321.252	5.19
321.62	5.07
321.988	5.02
322.357	5.09
322.725	5.15
323.093	5.38
323.461	5.37
323.829	5.52
324.197	5.59
324.565	5.76
324.933	5.78
325.301	5.81
325.669	5.88
326.037	5.95
326.405	6.19
326.772	6.36
327.14	6.59
327.508	6.58
327.875	6.54
328.243	6.61
328.61	6.63
328.978	6.64
329.346	6.75
329.713	6.68
330.08	6.71
330.448	6.73
330.815	6.52
331.182	6.65
331.55	6.64
331.917	6.59
332.284	6.55
332.651	6.61
333.018	6.71
333.385	6.82
333.752	6.87
334.119	6.79
334.486	6.72
334.853	6.5
335.22	6.49
335.587	6.77
335.954	6.81
336.32	6.79
336.687	6.7
337.054	6.72
337.42	6.76
337.787	6.69
338.153	6.64
338.52	6.93
338.886	6.92
339.253	6.95
339.619	7.06
339.986	7.08
340.352	7.08
340.718	7.15
341.084	7.08
341.451	7.15
341.817	7.21
342.183	7.2
342.549	7.24
342.915	7.32
343.281	7.15
343.647	7.1
344.013	7.12
344.379	7.17
344.745	7.09
345.11	7.15
345.476	7.2
345.842	7.23
346.208	7.13
346.573	7.17
346.939	7.24
347.304	7.23
347.67	7.07
348.035	7.06
348.401	7.07
348.766	6.95
349.132	6.93
349.497	6.96
349.862	7.07
350.228	7.1
350.593	7.02
350.958	7.15
351.323	7.18
351.688	7.21
352.053	7.26
352.418	7.34
352.783	7.39
353.148	7.34
353.513	7.3
353.878	7.32
354.243	7.33
354.608	7.28
354.972	7.24
355.337	7.3
355.702	7.41
356.066	7.45
356.431	7.54
356.795	7.47
357.16	7.37
357.524	7.23
357.889	7.26
358.253	7.37
358.618	7.4
358.982	7.32
359.346	7.3
359.71	7.23
360.075	7.27
360.439	7.18
360.803	7.19
361.167	7.2
361.531	7.12
361.895	7.06
362.259	7.03
362.623	7.03
362.987	7.02
363.351	6.94
363.714	6.88
364.078	6.81
364.442	6.81
364.806	6.84
365.169	6.89
365.533	6.83
365.896	6.7
366.26	6.68
366.623	6.67
366.987	6.67
367.35	6.63
367.714	6.58
368.077	6.57
368.44	6.52
368.803	6.51
369.167	6.51
369.53	6.44
369.893	6.42
370.256	6.43
370.619	6.4
370.982	6.3
371.345	6.16
371.708	6.19
372.071	6.12
372.434	6.01
372.797	5.94
373.159	5.86
373.522	5.83
373.885	5.78
374.247	5.79
374.61	5.75
374.973	5.76
375.335	5.69
375.698	5.68
376.06	5.65
376.423	5.6
376.785	5.62
377.147	5.65
377.51	5.6
377.872	5.5
378.234	5.47
378.596	5.44
378.958	5.47
379.321	5.38
379.683	5.42
380.045	5.43
380.407	5.4
380.769	5.4
381.13	5.4
381.492	5.29
381.854	5.21
382.216	5.16
382.578	5.11
382.939	5.06
383.301	5.03
383.663	5.01
384.024	4.98
384.386	4.94
384.747	4.93
385.109	4.92
385.47	4.93
385.832	4.98
386.193	5.02
386.554	5
386.916	5.01
387.277	4.97
387.638	4.97
387.999	4.95
388.36	4.92
388.721	4.92
389.082	4.89
389.443	4.84
389.804	4.78
390.165	4.75
390.526	4.74
390.887	4.69
391.248	4.68
391.609	4.67
391.969	4.63
392.33	4.59
392.691	4.57
393.051	4.53
393.412	4.46
393.772	4.41
394.133	4.39
394.493	4.38
394.854	4.35
395.214	4.29
395.574	4.27
395.935	4.24
396.295	4.21
396.655	4.2
397.015	4.2
397.376	4.21
397.736	4.22
398.096	4.2
398.456	4.17
398.816	4.16
399.176	4.09
399.535	4.06
399.895	4.01
400.255	3.98
400.615	3.94
400.975	3.94
401.334	3.91
401.694	3.86
402.054	3.82
402.413	3.81
402.773	3.78
403.132	3.77
403.492	3.78
403.851	3.76
404.211	3.79
404.57	3.77
404.929	3.75
405.288	3.71
405.648	3.7
406.007	3.7
406.366	3.66
406.725	3.72
407.084	3.72
407.443	3.74
407.802	3.76
408.161	3.75
408.52	3.74
408.879	3.71
409.238	3.72
409.596	3.69
409.955	3.67
410.314	3.68
410.673	3.63
411.031	3.6
411.39	3.62
411.748	3.59
412.107	3.6
412.465	3.6
412.824	3.59
413.182	3.56
413.54	3.54
413.899	3.56
414.257	3.5
414.615	3.47
414.974	3.43
415.332	3.41
415.69	3.42
416.048	3.39
416.406	3.41
416.764	3.39
417.122	3.4
417.48	3.39
417.838	3.37
418.195	3.38
418.553	3.37
418.911	3.35
419.269	3.35
419.626	3.34
419.984	3.35
420.342	3.34
420.699	3.33
421.057	3.34
421.414	3.31
421.772	3.3
422.129	3.31
422.486	3.32
422.844	3.31
423.201	3.29
423.558	3.29
423.915	3.27
424.273	3.28
424.63	3.27
424.987	3.26
425.344	3.26
425.701	3.26
426.058	3.26
426.415	3.24
426.772	3.22
427.128	3.21
427.485	3.2
427.842	3.2
428.199	3.18
428.555	3.18
428.912	3.2
429.269	3.22
429.625	3.22
429.982	3.21
430.338	3.21
430.695	3.23
431.051	3.22
431.407	3.24
431.764	3.22
432.12	3.21
432.476	3.22
432.832	3.23
433.189	3.22
433.545	3.22
433.901	3.25
434.257	3.25
434.613	3.27
434.969	3.27
435.325	3.29
435.681	3.31
436.036	3.32
436.392	3.31
436.748	3.31
437.104	3.3
437.459	3.3
437.815	3.3
438.171	3.28
438.526	3.3
438.882	3.3
439.237	3.31
439.593	3.31
439.948	3.32
440.304	3.31
440.659	3.31
441.014	3.3
441.369	3.27
441.725	3.26
442.08	3.26
442.435	3.25
442.79	3.24
443.145	3.23
443.5	3.21
443.855	3.2
444.21	3.19
444.565	3.18
444.92	3.2
445.275	3.19
445.629	3.2
445.984	3.2
446.339	3.19
446.693	3.18
447.048	3.17
447.403	3.16
447.757	3.17
448.112	3.17
448.466	3.17
448.82	3.19
449.175	3.18
449.529	3.17
449.883	3.16
450.238	3.14
450.592	3.15
450.946	3.13
451.3	3.14
451.654	3.13
452.008	3.14
452.362	3.09
452.716	3.1
453.07	3.11
453.424	3.08
453.778	3.07
454.132	3.07
454.486	3.06
454.839	3.06
455.193	3.05
455.547	3.05
455.9	3.06
456.254	3.07
456.607	3.06
456.961	3.06
457.314	3.07
457.668	3.08
458.021	3.07
458.375	3.08
458.728	3.08
459.081	3.08
459.434	3.07
459.787	3.09
460.141	3.09
460.494	3.09
460.847	3.1
461.2	3.11
461.553	3.12
461.906	3.14
462.259	3.15
462.611	3.16
462.964	3.16
463.317	3.18
463.67	3.18
464.022	3.21
464.375	3.22
464.728	3.22
465.08	3.23
465.433	3.26
465.785	3.26
466.138	3.26
466.49	3.25
466.843	3.26
467.195	3.25
467.547	3.25
467.899	3.24
468.252	3.24
468.604	3.25
468.956	3.26
469.308	3.26
469.66	3.24
470.012	3.26
470.364	3.27
470.716	3.24
471.068	3.24
471.42	3.22
471.772	3.24
472.123	3.27
472.475	3.27
472.827	3.25
473.178	3.25
473.53	3.26
473.882	3.29
474.233	3.32
474.585	3.31
474.936	3.31
475.288	3.32
475.639	3.34
475.99	3.32
476.342	3.31
476.693	3.31
477.044	3.32
477.395	3.31
477.746	3.3
478.097	3.29
478.448	3.29
478.8	3.29
479.15	3.27
479.501	3.26
479.852	3.25
480.203	3.24
480.554	3.24
480.905	3.25
481.255	3.24
481.606	3.24
481.957	3.25
482.307	3.25
482.658	3.25
483.009	3.24
483.359	3.24
483.709	3.23
484.06	3.23
484.41	3.23
484.761	3.23
485.111	3.24
485.461	3.24
485.811	3.24
486.162	3.24
486.512	3.25
486.862	3.26
487.212	3.25
487.562	3.26
487.912	3.26
488.262	3.26
488.612	3.26
488.961	3.27
489.311	3.28
489.661	3.28
490.011	3.28
490.36	3.29
490.71	3.31
491.06	3.31
491.409	3.32
491.759	3.32
492.108	3.33
492.458	3.34
492.807	3.35
493.157	3.36
493.506	3.38
493.855	3.38
494.204	3.37
494.554	3.39
494.903	3.4
495.252	3.43
495.601	3.45
495.95	3.47
496.299	3.47
496.648	3.47
496.997	3.48
497.346	3.53
497.695	3.57
498.043	3.57
498.392	3.58
498.741	3.61
499.09	3.62
499.438	3.65
499.787	3.66
500.135	3.71
500.484	3.73
500.832	3.77
501.181	3.79
501.529	3.83
501.878	3.87
502.226	3.92
502.574	3.95
502.923	4
503.271	4.03
503.619	4.1
503.967	4.15
504.315	4.21
504.663	4.25
505.011	4.29
505.359	4.34
505.707	4.41
506.055	4.47
506.403	4.56
506.751	4.6
507.098	4.67
507.446	4.73
507.794	4.79
508.141	4.87
508.489	4.95
508.837	5
509.184	5.08
509.531	5.15
509.879	5.23
510.226	5.31
510.574	5.4
510.921	5.43
511.268	5.48
511.616	5.57
511.963	5.64
512.31	5.73
512.657	5.81
513.004	5.9
513.351	6
513.698	6.06
514.045	6.17
514.392	6.26
514.739	6.35
515.086	6.46
515.432	6.55
515.779	6.63
516.126	6.75
516.473	6.83
516.819	6.91
517.166	6.98
517.512	7.07
517.859	7.15
518.205	7.22
518.552	7.31
518.898	7.39
519.245	7.46
519.591	7.52
519.937	7.61
520.283	7.71
520.629	7.8
520.976	7.9
521.322	7.98
521.668	8.07
522.014	8.18
522.36	8.26
522.706	8.35
523.052	8.47
523.398	8.59
523.743	8.72
524.089	8.86
524.435	8.99
524.781	9.1
525.126	9.22
525.472	9.34
525.817	9.44
526.163	9.53
526.509	9.62
526.854	9.71
527.199	9.8
527.545	9.9
527.89	9.98
528.235	10.06
528.581	10.15
528.926	10.25
529.271	10.33
529.616	10.44
529.961	10.55
530.306	10.66
530.651	10.76
530.996	10.89
531.341	11.01
531.686	11.15
532.031	11.28
532.376	11.42
532.721	11.57
533.065	11.72
533.41	11.88
533.755	12.05
534.099	12.2
534.444	12.36
534.788	12.51
535.133	12.69
535.477	12.88
535.822	13.07
536.166	13.26
536.51	13.48
536.855	13.73
537.199	13.97
537.543	14.23
537.887	14.5
538.231	14.74
538.576	14.97
538.92	15.19
539.264	15.43
539.608	15.67
539.951	15.89
540.295	16.1
540.639	16.32
540.983	16.54
541.327	16.72
541.671	16.93
542.014	17.14
542.358	17.33
542.701	17.55
543.045	17.74
543.389	17.95
543.732	18.18
544.075	18.4
544.419	18.63
544.762	18.87
545.105	19.11
545.449	19.36
545.792	19.62
546.135	19.93
546.478	20.23
546.821	20.51
547.165	20.83
547.508	21.17
547.851	21.49
548.194	21.78
548.536	22.17
548.879	22.52
549.222	22.87
549.565	23.18
549.908	23.48
550.25	23.88
550.593	24.23
550.936	24.54
551.278	24.85
551.621	25.2
551.963	25.51
552.306	25.84
552.648	26.18
552.991	26.56
553.333	26.88
553.675	27.18
554.017	27.48
554.36	27.74
554.702	28.04
555.044	28.33
555.386	28.68
555.728	28.97
556.07	29.26
556.412	29.51
556.754	29.85
557.096	30.22
557.438	30.47
557.78	30.82
558.121	31.16
558.463	31.49
558.805	31.76
559.147	32.06
559.488	32.35
559.83	32.66
560.171	32.86
560.513	33.18
560.854	33.43
561.196	33.68
561.537	34
561.878	34.22
562.22	34.42
562.561	34.67
562.902	34.93
563.243	35.2
563.584	35.47
563.925	35.73
564.266	35.91
564.607	36.14
564.948	36.32
565.289	36.53
565.63	36.71
565.971	36.91
566.312	37.05
566.653	37.2
566.993	37.33
567.334	37.6
567.675	37.76
568.015	37.94
568.356	38.22
568.696	38.44
569.037	38.64
569.377	38.86
569.718	39.05
570.058	39.13
570.398	39.27
570.739	39.47
571.079	39.58
571.419	39.85
571.759	40.01
572.099	40.13
572.439	40.26
572.779	40.4
573.119	40.56
573.459	40.78
573.799	40.98
574.139	41.1
574.479	41.2
574.819	41.32
575.158	41.46
575.498	41.55
575.838	41.69
576.177	41.8
576.517	41.97
576.856	42.08
577.196	42.32
577.535	42.41
577.875	42.54
578.214	42.72
578.553	42.77
578.893	42.89
579.232	43.1
579.571	43.24
579.91	43.35
580.25	43.48
580.589	43.58
580.928	43.63
581.267	43.78
581.606	43.89
581.945	44.04
582.283	44.2
582.622	44.33
582.961	44.36
583.3	44.64
583.639	44.8
583.977	44.96
584.316	45.06
584.654	45.26
584.993	45.35
585.332	45.42
585.67	45.52
586.008	45.7
586.347	45.79
586.685	45.86
587.024	45.99
587.362	46.13
587.7	46.21
588.038	46.43
588.376	46.53
588.715	46.7
589.053	46.81
589.391	46.91
589.729	46.96
590.067	47.09
590.404	47.09
590.742	47.14
591.08	47.21
591.418	47.26
591.756	47.38
592.093	47.51
592.431	47.61
592.769	47.68
593.106	47.76
593.444	47.73
593.781	47.76
594.119	47.84
594.456	47.98
594.793	48.01
595.131	48.01
595.468	48.1
595.805	48.1
596.143	48.12
596.48	48.12
596.817	48.19
597.154	48.24
597.491	48.23
597.828	48.28
598.165	48.32
598.502	48.44
598.839	48.46
599.176	48.44
599.512	48.49
599.849	48.53
600.186	48.55
600.523	48.73
600.859	48.89
601.196	48.96
601.532	48.98
601.869	49.06
602.205	49.08
602.542	49.15
602.878	49.18
603.215	49.23
603.551	49.34
603.887	49.43
604.223	49.4
604.56	49.5
604.896	49.57
605.232	49.62
605.568	49.63
605.904	49.72
606.24	49.84
606.576	49.89
606.912	49.97
607.248	50.05
607.583	50.11
607.919	50.14
608.255	50.07
608.591	50.07
608.926	50.14
609.262	50.21
609.597	50.23
609.933	50.31
610.268	50.41
610.604	50.47
610.939	50.47
611.275	50.56
611.61	50.6
611.945	50.61
612.281	50.64
612.616	50.67
612.951	50.68
613.286	50.71
613.621	50.7
613.956	50.8
614.291	50.77
614.626	50.79
614.961	50.74
615.296	50.88
615.631	50.98
615.966	51.02
616.3	51.08
616.635	51.09
616.97	51.13
617.304	51.08
617.639	51.04
617.973	51.12
618.308	51.24
618.642	51.24
618.977	51.23
619.311	51.31
619.646	51.34
619.98	51.38
620.314	51.46
620.648	51.51
620.983	51.54
621.317	51.63
621.651	51.63
621.985	51.69
622.319	51.67
622.653	51.63
622.987	51.67
623.321	51.7
623.655	51.71
623.988	51.74
624.322	51.77
624.656	51.8
624.99	51.77
625.323	51.75
625.657	51.78
625.99	51.87
626.324	51.86
626.657	51.87
626.991	51.88
627.324	51.8
627.658	51.82
627.991	51.78
628.324	51.81
628.657	51.79
628.991	51.83
629.324	51.94
629.657	52.02
629.99	52.05
630.323	52.15
630.656	52.25
630.989	52.35
631.322	52.39
631.655	52.45
631.987	52.49
632.32	52.49
632.653	52.49
632.986	52.47
633.318	52.4
633.651	52.42
633.984	52.43
634.316	52.45
634.649	52.55
634.981	52.56
635.313	52.48
635.646	52.55
635.978	52.62
636.31	52.62
636.643	52.58
636.975	52.62
637.307	52.54
637.639	52.44
637.971	52.35
638.303	52.36
638.635	52.41
638.967	52.4
639.299	52.54
639.631	52.62
639.963	52.51
640.295	52.58
640.626	52.69
640.958	52.75
641.29	52.83
641.621	52.73
641.953	52.83
642.285	52.86
642.616	52.9
642.948	52.88
643.279	52.82
643.61	52.86
643.942	52.74
644.273	52.74
644.604	52.82
644.936	52.92
645.267	52.95
645.598	53
645.929	53.09
646.26	53.13
646.591	53.08
646.922	53.15
647.253	53.29
647.584	53.23
647.915	53.23
648.245	53.21
648.576	53.35
648.907	53.36
649.238	53.41
649.568	53.48
649.899	53.57
650.229	53.51
650.56	53.59
650.89	53.8
651.221	53.86
651.551	53.86
651.882	53.78
652.212	53.82
652.542	53.72
652.872	53.72
653.203	53.58
653.533	53.69
653.863	53.88
654.193	53.79
654.523	53.82
654.853	53.85
655.183	53.84
655.513	53.75
655.843	53.68
656.172	53.86
656.502	53.89
656.832	53.9
657.162	54.07
657.491	53.88
657.821	53.82
658.15	53.84
658.48	53.91
658.809	53.98
659.139	53.98
659.468	54.05
659.798	53.98
660.127	54.08
660.456	54.03
660.785	53.96
661.115	54.07
661.444	54.08
661.773	54.06
662.102	54.15
662.431	54.25
662.76	54.3
663.089	54.16
663.418	54.08
663.747	54
664.076	53.96
664.404	54.13
664.733	54.18
665.062	54.26
665.39	54.23
665.719	54.24
666.048	54.21
666.376	54.26
666.705	54.38
667.033	54.41
667.362	54.41
667.69	54.38
668.018	54.29
668.347	54.34
668.675	54.36
669.003	54.31
669.331	54.25
669.659	54.25
669.987	54.33
670.315	54.33
670.643	54.41
670.971	54.35
671.299	54.33
671.627	54.32
671.955	54.3
672.283	54.42
672.61	54.36
672.938	54.49
673.266	54.4
673.593	54.53
673.921	54.44
674.249	54.56
674.576	54.61
674.904	54.58
675.231	54.57
675.558	54.54
675.886	54.65
676.213	54.68
676.54	54.8
676.867	54.65
677.195	54.51
677.522	54.45
677.849	54.51
678.176	54.53
678.503	54.67
678.83	54.69
679.157	54.53
679.484	54.66
679.81	54.6
680.137	54.55
680.464	54.4
680.791	54.51
681.117	54.5
681.444	54.49
681.771	54.69
682.097	54.7
682.424	54.69
682.75	54.55
683.077	54.62
683.403	54.59
683.729	54.69
684.056	54.94
684.382	55
684.708	55.09
685.034	55.11
685.36	54.88
685.686	54.91
686.012	54.96
686.339	55.07
686.664	55.11
686.99	55.19
687.316	55.22
687.642	55.07
687.968	54.94
688.294	55.01
688.619	54.89
688.945	54.84
689.271	54.92
689.596	55
689.922	55.1
690.247	55.08
690.573	55.16
690.898	55.02
691.224	54.99
691.549	54.92
691.874	54.85
692.2	54.93
692.525	54.92
692.85	55.05
693.175	54.86
693.5	54.85
693.825	54.89
694.15	54.9
694.475	54.99
694.8	55.05
695.125	54.97
695.45	55.01
695.775	55
696.099	54.96
696.424	55.01
696.749	54.94
697.073	54.88
697.398	54.81
697.723	54.91
698.047	54.95
698.372	55
698.696	55.15
699.02	55.13
699.345	55.09
699.669	54.94
699.993	54.9
700.318	54.88
700.642	54.92
700.966	54.97
701.29	54.98
701.614	55.02
701.938	55.14
702.262	55.19
702.586	55.15
702.91	55.2
703.234	55.22
703.557	55.26
703.881	55.28
704.205	55.44
704.529	55.33
704.852	55.25
705.176	55.25
705.499	55.02
705.823	54.89
706.146	54.82
706.47	55.03
706.793	55.11
707.117	55
707.44	55.08
707.763	55.16
708.086	55.13
708.409	55.35
708.733	55.23
709.056	55.16
709.379	55.31
709.702	55.26
710.025	55.15
710.348	55.02
710.671	55.03
710.993	55.11
711.316	55.33
711.639	55.43
711.962	55.5
712.284	55.68
712.607	55.77
712.93	55.74
713.252	55.52
713.575	55.58
713.897	55.69
714.22	55.67
714.542	55.45
714.864	55.36
715.187	55.18
715.509	55.04
715.831	54.97
716.153	54.99
716.475	55.02
716.798	55.13
717.12	55.24
717.442	55.35
717.764	55.22
718.085	54.95
718.407	55.09
718.729	55.11
719.051	54.89
719.373	54.97
719.695	54.96
720.016	55.21
720.338	55.16
720.659	55.15
720.981	55.09
721.302	55.22
721.624	55.31
721.945	55.42
722.267	55.5
722.588	55.68
722.909	55.59
723.231	55.48
723.552	55.54
723.873	55.56
724.194	55.39
724.515	55.32
724.836	55.51
725.157	55.44
725.478	55.17
725.799	55.52
726.12	55.46
726.441	55.31
726.762	55.34
727.083	55.45
727.403	55.33
727.724	55.24
728.045	55.1
728.365	55.03
728.686	54.89
729.006	55.18
729.327	55.22
729.647	55.35
729.967	55.59
730.288	55.56
730.608	55.46
730.928	55.37
731.249	55.4
731.569	55.61
731.889	55.42
732.209	55.4
732.529	55.37
732.849	55.52
733.169	56.03
733.489	55.91
733.809	55.9
734.129	55.97
734.448	56.06
734.768	56.11
735.088	56.36
735.408	56.38
735.727	56.17
736.047	56.14
736.366	56.05
736.686	55.97
737.005	56.11
737.325	56.22
737.644	56.31
737.963	56.22
738.283	55.81
738.602	56.11
738.921	56.3
739.24	56.14
739.56	56
739.879	55.57
740.198	55.55
740.517	55.36
740.836	55.64
741.155	55.61
741.473	55.72
741.792	55.57
742.111	55.54
742.43	55.58
742.748	55.64
743.067	55.55
743.386	55.62
743.704	55.43
744.023	55.41
744.341	55.5
744.66	55.49
744.978	55.71
745.297	55.44
745.615	55.76
745.933	55.89
746.252	55.89
746.57	56.07
746.888	56
747.206	55.97
747.524	55.6
747.842	55.65
748.16	55.71
748.478	55.95
748.796	56.08
749.114	55.95
749.432	55.81
749.749	55.63
750.067	55.44
750.385	55.22
750.703	55.22
751.02	55.64
751.338	55.63
751.655	55.56
751.973	55.49
752.29	55.24
752.608	54.98
752.925	54.91
753.242	55.04
753.56	54.95
753.877	55.33
754.194	55.61
754.511	55.5
754.828	55.48
755.145	55.45
755.462	55.69
755.779	55.73
756.096	55.77
756.413	55.89
756.73	56.02
757.047	56.06
757.364	55.78
757.68	55.37
757.997	55.28
758.314	55.6
758.63	55.94
758.947	55.98
759.264	56.14
759.58	56.33
759.896	56.31
760.213	56.39
760.529	56.2
760.846	56.18
761.162	56.15
761.478	56.3
761.794	56.22
762.11	56.03
762.426	55.96
762.743	56.14
763.059	56.1
763.375	56.12
763.69	56.13
764.006	56.34
764.322	56.34
764.638	56.56
764.954	56.56
765.27	56.46
765.585	56.36
765.901	56.38
766.216	56.26
766.532	56.12
766.848	56.18
767.163	56.25
767.478	56.06
767.794	56.17
768.109	55.95
768.424	55.9
768.74	55.76
769.055	56.04
769.37	55.53
769.685	55.68
770	55.69
770.315	55.69
770.63	55.71
770.945	55.94
771.26	56.08
771.575	55.83
771.89	55.65
772.205	55.75
772.52	55.8
772.834	55.99
773.149	56.15
773.464	56.52
773.778	56.31
774.093	56.74
774.407	56.47
774.722	56.54
775.036	56.39
775.351	56.37
775.665	56.54
775.979	56.61
776.293	56.56
776.608	56.63
776.922	57.16
777.236	56.95
777.55	56.79
777.864	56.29
778.178	56.63
778.492	56.65
778.806	56.51
779.12	56.64
779.434	56.8
779.747	57.23
780.061	56.42
780.375	56.94
780.689	56.75
781.002	57.14
781.316	57.03
781.629	57.18
781.943	57.4
782.256	56.58
782.57	56.8
782.883	57.06
783.196	56.82
783.51	56.32
783.823	56.26
784.136	56.16
784.449	56.27
784.762	55.9
785.075	56.07
785.388	56.23
785.701	56.16
786.014	55.89
786.327	55.51
786.64	56.34
786.953	56.37
787.266	55.97
787.578	56.27
787.891	56.82
788.204	56.82
788.516	56.66
788.829	57.41
789.141	57.28
789.454	57.3
789.766	57.37
790.079	57.35
790.391	57.07
790.703	57.25
791.016	57.64
791.328	57.62
791.64	57.26
791.952	57.03
792.264	57.03
792.576	56.98
792.888	56.93
793.2	56.33
793.512	56.04
793.824	56.42
794.136	56.22
794.448	56.31
794.76	56.45
795.071	56.6
795.383	56.3
795.695	56.57
796.006	56.3
796.318	56.57
796.629	56.49
796.941	56.94
797.252	57.06
797.564	57.49
797.875	57.74
798.186	57.74
798.497	58.18
798.809	57.75
799.12	57.57
799.431	57.12
799.742	57.03
800.053	56.91
800.364	57.23
800.675	56.78
800.986	56.56
801.297	56.12
801.608	56.18
801.918	55.72
802.229	55.78
802.54	56.02
802.851	56.18
803.161	55.69
803.472	55.64
803.782	55.64
804.093	54.81
804.403	54.23
804.714	54.56
805.024	53.75
805.334	53.58
805.645	54.1
805.955	54.58
806.265	55.3
806.575	54.87
806.885	54.21
807.195	54.72
807.505	54.11
807.815	54.59
808.125	54.19
808.435	55.01
808.745	55.1
809.055	55.36
809.365	54.91
809.674	55.87
809.984	56.15
810.294	55.5
810.603	56.44
810.913	57.08
811.222	56.85
811.532	57.61
811.841	58.14
812.151	58.21
812.46	56.83
812.769	56.75
813.079	56.87
813.388	56.9
813.697	56.92
814.006	56.98
814.315	56.71
814.624	56.3
814.933	55.66
815.242	55.97
815.551	55.85
815.86	56.19
816.169	56.58
816.478	56.1
816.786	56.87
817.095	55.82
817.404	55.48
817.712	55.64
818.021	55.78
818.33	55.54
818.638	55.5
818.947	56.4
819.255	56.63
819.563	56.87
819.872	57.16
820.18	57.15
820.488	57.39
820.796	57.48
821.105	57.71
821.413	57.86
821.721	57.74
822.029	57.54
822.337	57.42
822.645	57.29
822.953	57.35
823.26	57.41
823.568	57.33
823.876	57.48
824.184	57.37
824.491	57.13
824.799	57.25
825.107	56.97
825.414	57.12
825.722	57.06
826.029	57.26
826.337	57.18
826.644	57.26
826.951	57.17
827.259	57.18
827.566	56.89
827.873	56.78
828.18	56.82
828.488	56.83
828.795	56.68
829.102	56.35
829.409	56.12
829.716	56.05
830.023	56.18
830.329	56.04
830.636	56.21
830.943	56.56
831.25	56.29
831.557	56.99
831.863	56.66
832.17	56.07
832.476	56.01
832.783	56.01
833.089	55.48
833.396	55.42
833.702	55.31
834.009	56.1
834.315	56.15
834.621	55.64
834.928	56.03
835.234	56.31
835.54	56.64
835.846	56.95
836.152	56.55
836.458	57.29
836.764	56.75
837.07	56.63
837.376	56.49
837.682	56.9
837.988	56.6
838.293	56.51
838.599	57.07
838.905	56.21
839.211	55.8
839.516	55.89
839.822	56.2
840.127	56.54
840.433	55.73
840.738	55.82
841.044	56.46
841.349	55.79
841.654	55.01
841.959	55.27
842.265	55.48
842.57	55.52
842.875	54.18
843.18	54.7
843.485	55.47
843.79	55.46
844.095	55.05
844.4	54.13
844.705	54.44
845.01	54.75
845.315	55.49
845.619	55.29
845.924	55.53
846.229	55.07
846.533	52.5
846.838	51.05
847.142	51.59
847.447	50.45
847.751	50.91
848.056	52.84
848.36	52.64
848.664	51.68
848.969	52.12
849.273	51.53
849.577	52.8
849.881	51.58
850.185	50.3
850.489	51.24
850.794	52.43
851.097	50.76
851.401	50.28
851.705	49.85
852.009	52.77
852.313	52.31
852.617	51.77
852.92	55.65
853.224	58.6
853.528	56.24
853.831	56.06
854.135	56.07
854.438	53.22
854.742	53.49
855.045	53.19
855.349	52.41
855.652	53.07
855.955	50.34
856.259	49.91
856.562	51.7
856.865	50.66
857.168	51.42
857.471	52.96
857.774	51.54
858.077	50.92
858.38	49.44
858.683	49.23
858.986	50.7
859.289	49.52
859.592	49.89
859.894	51.41
860.197	52.39
860.5	51.11
860.802	53.32
861.105	54.94
861.407	57.41
861.71	58.99
862.012	58.09
862.315	57.18
862.617	59.08
862.919	59.83
863.222	58.67
863.524	59.51
863.826	58.93
864.128	60.9
864.43	62.76
864.732	63.26
865.034	61.66
865.336	59.09
865.638	60.41
865.94	59
866.242	60.07
866.544	58.53
866.846	59.05
867.147	59.68
867.449	57.24
867.751	55.83
868.052	53.78
868.354	53.93
868.655	55.54
868.957	54.97
869.258	55.23
869.56	59.46
869.861	57.86
870.162	56.75
870.463	56.95
870.765	55.64
871.066	53.86
871.367	58.2
871.668	60.41
871.969	60.47
872.27	59.75
872.571	56.47
872.872	59.35
873.173	58.87
873.473	57.25
873.774	56.62
874.075	58.64
874.376	59.84
874.676	58.99
874.977	61.21
875.277	57.95
875.578	55.18
875.878	51.81
876.179	52.08
876.479	54.29
876.78	54.04
877.08	53.53
877.38	54.28
877.68	51.7
877.981	49.96
878.281	46.9
878.581	49.25
