Data from BU26943_Reflection_00001.txt Node
Date: Tue Nov 19 11:02:14 EST 2019
User: vgr7
Spectrometer: USB2G7710
Scans to average: 3
Trigger mode: 4
Integration Time (sec): 2.000000E-2
Electric dark correction enabled: true
Boxcar width: 10
XAxis mode: Wavelengths
Number of Pixels in Spectrum: 2048
>>>>>Begin Spectral Data<<<<<
177.721	202.56
178.105	143.72
178.488	94.66
178.871	73.76
179.254	38.27
179.636	128.99
180.019	-115.05
180.402	-560
180.785	-75.76
181.168	-85.9
181.55	-440.23
181.933	1766.67
182.316	-1514.04
182.698	939.51
183.081	-152.96
183.463	-273.6
183.846	-169.53
184.228	-180.39
184.611	-89.09
184.993	-112.43
185.376	-74.96
185.758	-55.06
186.14	-99.09
186.522	-77.73
186.904	-41.91
187.287	-29.96
187.669	-20.76
188.051	-23.4
188.433	-25.04
188.815	-28.63
189.197	-26.88
189.579	-17.45
189.961	-15.81
190.342	-10.4
190.724	-17.02
191.106	-25.28
191.488	-22.48
191.869	-14.88
192.251	-17.1
192.633	-27.79
193.014	-36.75
193.396	-54.68
193.777	-57.63
194.159	-46.83
194.54	-45.72
194.922	-58.06
195.303	-64.36
195.684	-88.94
196.065	-80.66
196.447	-73.81
196.828	-70.38
197.209	-60.32
197.59	-64.09
197.971	-75.88
198.352	-70.28
198.733	-65.98
199.114	-67.66
199.495	-67.76
199.876	-72.16
200.257	-75.68
200.638	-71.59
201.018	-52.98
201.399	-41.1
201.78	-40.31
202.16	-50.58
202.541	-70.08
202.922	-66.08
203.302	-61.17
203.683	-49.33
204.063	-53.15
204.444	-68.44
204.824	-67.65
205.204	-60.68
205.585	-65.4
205.965	-57.2
206.345	-55.72
206.725	-59.5
207.106	-45.31
207.486	-40.17
207.866	-42.28
208.246	-30.07
208.626	-34.43
209.006	-37.7
209.386	-26.9
209.766	-26.35
210.145	-16.84
210.525	-12.99
210.905	-10.13
211.285	-13.93
211.664	-11.67
212.044	-10.79
212.424	-6.36
212.803	-12.09
213.183	-24.34
213.562	-16.29
213.942	-15.59
214.321	-17.38
214.701	-21.01
215.08	-37.71
215.459	-34.22
215.838	-36.85
216.218	-48.11
216.597	-30.94
216.976	-37.35
217.355	-46.09
217.734	-48.96
218.113	-45.94
218.492	-48.5
218.871	-55.47
219.25	-53.51
219.629	-68.28
220.008	-65.1
220.387	-66.52
220.766	-49.12
221.144	-47.76
221.523	-62.4
221.902	-63.33
222.28	-49.57
222.659	-40.9
223.037	-34.52
223.416	-36.09
223.794	-35.35
224.173	-38.63
224.551	-40.62
224.929	-39.61
225.308	-35.14
225.686	-34.7
226.064	-33.9
226.442	-30.08
226.821	-21.2
227.199	-19.04
227.577	-13.83
227.955	-13.86
228.333	-12.45
228.711	-13.78
229.089	-11.11
229.467	-10.42
229.845	-10.66
230.222	-12.65
230.6	-12.03
230.978	-8.38
231.356	-5.24
231.733	-4.48
232.111	-0.65
232.488	-1.35
232.866	-1.11
233.243	-0.72
233.621	1.17
233.998	1.6
234.376	3.88
234.753	2.3
235.13	1.38
235.508	0.18
235.885	0.4
236.262	0.19
236.639	0.6
237.016	0.9
237.393	2.46
237.77	4.35
238.147	4.72
238.524	4.27
238.901	3.75
239.278	2.6
239.655	3.08
240.032	2.91
240.409	3.36
240.785	3.5
241.162	3.51
241.539	3.46
241.915	3.06
242.292	2.81
242.668	2.75
243.045	3
243.421	3.18
243.798	3.6
244.174	3.59
244.551	3.34
244.927	3.09
245.303	2.89
245.679	2.69
246.056	2.65
246.432	3.03
246.808	2.81
247.184	2.86
247.56	2.67
247.936	2.81
248.312	2.83
248.688	2.75
249.064	2.37
249.44	2.08
249.815	2.11
250.191	2.07
250.567	1.93
250.943	1.7
251.318	1.54
251.694	1.08
252.069	1.16
252.445	1.22
252.82	1.33
253.196	1.23
253.571	1.1
253.947	0.85
254.322	0.45
254.697	0.6
255.073	0.78
255.448	1.07
255.823	0.73
256.198	0.93
256.573	0.95
256.948	1.09
257.323	1.33
257.698	1.52
258.073	1.62
258.448	1.69
258.823	1.89
259.198	2.17
259.573	2.15
259.948	2.07
260.322	2.04
260.697	2.08
261.072	2.32
261.446	2.27
261.821	2.27
262.195	2.18
262.57	2.2
262.944	2.16
263.319	2.01
263.693	2.09
264.067	2.08
264.442	2.33
264.816	2.56
265.19	2.59
265.564	2.47
265.938	2.31
266.313	2.28
266.687	2.19
267.061	2
267.435	2.19
267.809	2.06
268.183	1.97
268.556	1.9
268.93	1.89
269.304	1.87
269.678	2.01
270.051	2.01
270.425	1.92
270.799	1.7
271.172	1.87
271.546	1.97
271.919	1.91
272.293	1.85
272.666	1.85
273.04	1.79
273.413	1.97
273.787	1.92
274.16	2.06
274.533	2.24
274.906	2.37
275.279	2.36
275.653	2.48
276.026	2.68
276.399	2.6
276.772	2.36
277.145	2.5
277.518	2.4
277.891	2.61
278.263	2.66
278.636	2.88
279.009	2.79
279.382	2.63
279.755	2.55
280.127	2.54
280.5	2.41
280.872	2.59
281.245	2.61
281.617	2.71
281.99	2.87
282.362	2.76
282.735	2.56
283.107	2.44
283.479	2.54
283.852	2.44
284.224	2.42
284.596	2.45
284.968	2.37
285.34	2.4
285.713	2.33
286.085	2.36
286.457	2.24
286.829	2.19
287.201	2.27
287.572	2.24
287.944	2.31
288.316	2.33
288.688	2.22
289.06	2.1
289.431	2.19
289.803	2.01
290.175	2.05
290.546	2.17
290.918	2.28
291.289	2.18
291.661	2.27
292.032	2.4
292.403	2.42
292.775	2.42
293.146	2.51
293.517	2.51
293.889	2.57
294.26	2.7
294.631	2.7
295.002	2.65
295.373	2.62
295.744	2.55
296.115	2.52
296.486	2.55
296.857	2.52
297.228	2.36
297.599	2.35
297.97	2.33
298.34	2.34
298.711	2.39
299.082	2.37
299.452	2.38
299.823	2.41
300.194	2.6
300.564	2.54
300.935	2.59
301.305	2.47
301.676	2.3
302.046	2.1
302.416	2.17
302.787	2.17
303.157	2.23
303.527	2.32
303.897	2.39
304.267	2.26
304.637	2.31
305.008	2.38
305.378	2.39
305.748	2.43
306.117	2.36
306.487	2.3
306.857	2.4
307.227	2.37
307.597	2.32
307.967	2.23
308.336	2.3
308.706	2.25
309.076	2.57
309.445	2.76
309.815	2.99
310.184	3.02
310.554	3.01
310.923	2.98
311.293	2.83
311.662	2.86
312.031	2.92
312.401	2.8
312.77	2.78
313.139	2.75
313.508	2.73
313.877	2.8
314.246	2.79
314.616	2.75
314.985	2.74
315.353	2.7
315.722	2.66
316.091	2.64
316.46	2.61
316.829	2.39
317.198	2.3
317.567	2.27
317.935	2.24
318.304	2.34
318.672	2.43
319.041	2.49
319.41	2.43
319.778	2.53
320.147	2.66
320.515	2.75
320.883	2.91
321.252	2.84
321.62	2.83
321.988	2.82
322.357	2.79
322.725	2.93
323.093	2.89
323.461	2.81
323.829	2.83
324.197	2.85
324.565	2.89
324.933	2.9
325.301	2.87
325.669	3.01
326.037	3.08
326.405	3.06
326.772	3.02
327.14	3.01
327.508	2.98
327.875	2.82
328.243	2.78
328.61	2.69
328.978	2.71
329.346	2.71
329.713	2.78
330.08	2.9
330.448	2.73
330.815	2.79
331.182	2.7
331.55	2.78
331.917	2.68
332.284	2.65
332.651	2.64
333.018	2.53
333.385	2.31
333.752	2.12
334.119	2.16
334.486	2.19
334.853	2.16
335.22	2.17
335.587	2.21
335.954	2.31
336.32	2.27
336.687	2.29
337.054	2.24
337.42	2.26
337.787	2.19
338.153	2.19
338.52	2.31
338.886	2.35
339.253	2.21
339.619	2.32
339.986	2.33
340.352	2.28
340.718	2.31
341.084	2.31
341.451	2.38
341.817	2.34
342.183	2.28
342.549	2.34
342.915	2.37
343.281	2.52
343.647	2.42
344.013	2.43
344.379	2.36
344.745	2.43
345.11	2.42
345.476	2.44
345.842	2.44
346.208	2.39
346.573	2.49
346.939	2.57
347.304	2.51
347.67	2.53
348.035	2.61
348.401	2.62
348.766	2.66
349.132	2.69
349.497	2.67
349.862	2.68
350.228	2.71
350.593	2.77
350.958	2.76
351.323	2.74
351.688	2.77
352.053	2.79
352.418	2.81
352.783	2.72
353.148	2.7
353.513	2.7
353.878	2.7
354.243	2.57
354.608	2.59
354.972	2.66
355.337	2.71
355.702	2.66
356.066	2.65
356.431	2.6
356.795	2.61
357.16	2.67
357.524	2.68
357.889	2.74
358.253	2.68
358.618	2.68
358.982	2.69
359.346	2.64
359.71	2.65
360.075	2.65
360.439	2.76
360.803	2.81
361.167	2.88
361.531	2.92
361.895	2.97
362.259	3
362.623	2.97
362.987	2.92
363.351	2.92
363.714	2.98
364.078	3.02
364.442	3.01
364.806	2.99
365.169	2.96
365.533	2.89
365.896	2.94
366.26	2.87
366.623	2.87
366.987	2.97
367.35	2.95
367.714	2.92
368.077	2.91
368.44	2.91
368.803	2.85
369.167	2.77
369.53	2.75
369.893	2.75
370.256	2.8
370.619	2.8
370.982	2.75
371.345	2.76
371.708	2.79
372.071	2.78
372.434	2.79
372.797	2.87
373.159	2.85
373.522	2.78
373.885	2.81
374.247	2.84
374.61	2.8
374.973	2.84
375.335	2.83
375.698	2.79
376.06	2.79
376.423	2.8
376.785	2.83
377.147	2.83
377.51	2.79
377.872	2.76
378.234	2.77
378.596	2.8
378.958	2.78
379.321	2.74
379.683	2.77
380.045	2.76
380.407	2.78
380.769	2.8
381.13	2.85
381.492	2.84
381.854	2.85
382.216	2.86
382.578	2.92
382.939	2.91
383.301	2.9
383.663	2.84
384.024	2.78
384.386	2.79
384.747	2.81
385.109	2.82
385.47	2.84
385.832	2.86
386.193	2.85
386.554	2.82
386.916	2.86
387.277	2.84
387.638	2.85
387.999	2.84
388.36	2.88
388.721	2.88
389.082	2.9
389.443	2.88
389.804	2.92
390.165	2.91
390.526	2.9
390.887	2.89
391.248	2.91
391.609	2.97
391.969	2.99
392.33	3.01
392.691	2.99
393.051	3
393.412	3.04
393.772	3.08
394.133	3.11
394.493	3.11
394.854	3.12
395.214	3.1
395.574	3.09
395.935	3.06
396.295	3.07
396.655	3.06
397.015	3.09
397.376	3.07
397.736	3.02
398.096	3.04
398.456	3.02
398.816	3.02
399.176	3
399.535	2.99
399.895	2.96
400.255	2.99
400.615	2.97
400.975	2.9
401.334	2.9
401.694	2.91
402.054	2.92
402.413	2.93
402.773	2.97
403.132	2.97
403.492	2.96
403.851	2.99
404.211	3.02
404.57	3.04
404.929	3.04
405.288	3.06
405.648	3.06
406.007	3.09
406.366	3.09
406.725	3.1
407.084	3.08
407.443	3.12
407.802	3.1
408.161	3.13
408.52	3.17
408.879	3.17
409.238	3.12
409.596	3.11
409.955	3.1
410.314	3.1
410.673	3.11
411.031	3.08
411.39	3.06
411.748	3.05
412.107	3.05
412.465	3.03
412.824	3.04
413.182	3.07
413.54	3.1
413.899	3.11
414.257	3.11
414.615	3.11
414.974	3.1
415.332	3.1
415.69	3.08
416.048	3.07
416.406	3.06
416.764	3.09
417.122	3.09
417.48	3.09
417.838	3.09
418.195	3.1
418.553	3.12
418.911	3.1
419.269	3.1
419.626	3.09
419.984	3.11
420.342	3.1
420.699	3.1
421.057	3.08
421.414	3.09
421.772	3.09
422.129	3.1
422.486	3.09
422.844	3.09
423.201	3.11
423.558	3.12
423.915	3.12
424.273	3.14
424.63	3.15
424.987	3.16
425.344	3.16
425.701	3.14
426.058	3.15
426.415	3.16
426.772	3.15
427.128	3.16
427.485	3.15
427.842	3.16
428.199	3.15
428.555	3.15
428.912	3.13
429.269	3.12
429.625	3.11
429.982	3.12
430.338	3.14
430.695	3.1
431.051	3.08
431.407	3.09
431.764	3.07
432.12	3.06
432.476	3.04
432.832	3.05
433.189	3.05
433.545	3.04
433.901	3.03
434.257	3.03
434.613	3.01
434.969	3.01
435.325	3.03
435.681	3.04
436.036	3.05
436.392	3.05
436.748	3.06
437.104	3.05
437.459	3.06
437.815	3.07
438.171	3.08
438.526	3.09
438.882	3.09
439.237	3.09
439.593	3.09
439.948	3.11
440.304	3.1
440.659	3.09
441.014	3.1
441.369	3.12
441.725	3.13
442.08	3.14
442.435	3.15
442.79	3.14
443.145	3.13
443.5	3.13
443.855	3.15
444.21	3.14
444.565	3.17
444.92	3.15
445.275	3.15
445.629	3.15
445.984	3.16
446.339	3.15
446.693	3.15
447.048	3.15
447.403	3.14
447.757	3.15
448.112	3.17
448.466	3.17
448.82	3.16
449.175	3.14
449.529	3.15
449.883	3.15
450.238	3.15
450.592	3.16
450.946	3.17
451.3	3.16
451.654	3.14
452.008	3.13
452.362	3.14
452.716	3.15
453.07	3.16
453.424	3.15
453.778	3.15
454.132	3.16
454.486	3.18
454.839	3.17
455.193	3.19
455.547	3.18
455.9	3.19
456.254	3.18
456.607	3.2
456.961	3.19
457.314	3.2
457.668	3.19
458.021	3.18
458.375	3.17
458.728	3.18
459.081	3.21
459.434	3.2
459.787	3.22
460.141	3.22
460.494	3.21
460.847	3.19
461.2	3.19
461.553	3.19
461.906	3.18
462.259	3.19
462.611	3.19
462.964	3.21
463.317	3.2
463.67	3.22
464.022	3.21
464.375	3.22
464.728	3.2
465.08	3.22
465.433	3.24
465.785	3.26
466.138	3.25
466.49	3.27
466.843	3.27
467.195	3.27
467.547	3.25
467.899	3.26
468.252	3.3
468.604	3.3
468.956	3.3
469.308	3.29
469.66	3.3
470.012	3.28
470.364	3.28
470.716	3.28
471.068	3.31
471.42	3.31
471.772	3.3
472.123	3.32
472.475	3.29
472.827	3.29
473.178	3.28
473.53	3.3
473.882	3.3
474.233	3.3
474.585	3.28
474.936	3.3
475.288	3.3
475.639	3.29
475.99	3.29
476.342	3.3
476.693	3.3
477.044	3.29
477.395	3.29
477.746	3.26
478.097	3.27
478.448	3.25
478.8	3.26
479.15	3.28
479.501	3.28
479.852	3.31
480.203	3.31
480.554	3.32
480.905	3.32
481.255	3.32
481.606	3.34
481.957	3.35
482.307	3.35
482.658	3.37
483.009	3.37
483.359	3.37
483.709	3.37
484.06	3.38
484.41	3.4
484.761	3.41
485.111	3.43
485.461	3.43
485.811	3.44
486.162	3.43
486.512	3.43
486.862	3.43
487.212	3.43
487.562	3.43
487.912	3.44
488.262	3.42
488.612	3.42
488.961	3.42
489.311	3.41
489.661	3.42
490.011	3.41
490.36	3.41
490.71	3.42
491.06	3.43
491.409	3.41
491.759	3.4
492.108	3.4
492.458	3.38
492.807	3.37
493.157	3.36
493.506	3.37
493.855	3.36
494.204	3.37
494.554	3.37
494.903	3.36
495.252	3.36
495.601	3.37
495.95	3.39
496.299	3.38
496.648	3.39
496.997	3.38
497.346	3.37
497.695	3.39
498.043	3.37
498.392	3.38
498.741	3.4
499.09	3.41
499.438	3.43
499.787	3.45
500.135	3.46
500.484	3.46
500.832	3.45
501.181	3.47
501.529	3.48
501.878	3.47
502.226	3.49
502.574	3.49
502.923	3.46
503.271	3.43
503.619	3.42
503.967	3.42
504.315	3.43
504.663	3.44
505.011	3.45
505.359	3.43
505.707	3.41
506.055	3.43
506.403	3.41
506.751	3.41
507.098	3.41
507.446	3.39
507.794	3.41
508.141	3.42
508.489	3.42
508.837	3.42
509.184	3.43
509.531	3.41
509.879	3.4
510.226	3.43
510.574	3.45
510.921	3.46
511.268	3.48
511.616	3.49
511.963	3.51
512.31	3.5
512.657	3.51
513.004	3.51
513.351	3.5
513.698	3.5
514.045	3.49
514.392	3.5
514.739	3.49
515.086	3.49
515.432	3.49
515.779	3.49
516.126	3.51
516.473	3.52
516.819	3.52
517.166	3.54
517.512	3.53
517.859	3.53
518.205	3.51
518.552	3.51
518.898	3.51
519.245	3.5
519.591	3.5
519.937	3.51
520.283	3.53
520.629	3.54
520.976	3.55
521.322	3.56
521.668	3.56
522.014	3.59
522.36	3.59
522.706	3.6
523.052	3.6
523.398	3.6
523.743	3.6
524.089	3.61
524.435	3.62
524.781	3.66
525.126	3.66
525.472	3.68
525.817	3.67
526.163	3.68
526.509	3.67
526.854	3.68
527.199	3.68
527.545	3.69
527.89	3.68
528.235	3.69
528.581	3.69
528.926	3.69
529.271	3.68
529.616	3.69
529.961	3.69
530.306	3.69
530.651	3.68
530.996	3.7
531.341	3.71
531.686	3.7
532.031	3.69
532.376	3.69
532.721	3.69
533.065	3.69
533.41	3.68
533.755	3.69
534.099	3.67
534.444	3.66
534.788	3.65
535.133	3.66
535.477	3.65
535.822	3.66
536.166	3.66
536.51	3.65
536.855	3.64
537.199	3.64
537.543	3.66
537.887	3.66
538.231	3.65
538.576	3.65
538.92	3.68
539.264	3.69
539.608	3.67
539.951	3.67
540.295	3.68
540.639	3.69
540.983	3.7
541.327	3.71
541.671	3.72
542.014	3.73
542.358	3.73
542.701	3.74
543.045	3.75
543.389	3.74
543.732	3.75
544.075	3.75
544.419	3.77
544.762	3.78
545.105	3.78
545.449	3.79
545.792	3.78
546.135	3.78
546.478	3.76
546.821	3.79
547.165	3.79
547.508	3.78
547.851	3.78
548.194	3.77
548.536	3.76
548.879	3.76
549.222	3.74
549.565	3.74
549.908	3.73
550.25	3.7
550.593	3.69
550.936	3.72
551.278	3.73
551.621	3.7
551.963	3.69
552.306	3.68
552.648	3.65
552.991	3.66
553.333	3.63
553.675	3.62
554.017	3.6
554.36	3.63
554.702	3.62
555.044	3.61
555.386	3.63
555.728	3.64
556.07	3.67
556.412	3.7
556.754	3.68
557.096	3.67
557.438	3.67
557.78	3.67
558.121	3.65
558.463	3.64
558.805	3.68
559.147	3.68
559.488	3.68
559.83	3.7
560.171	3.71
560.513	3.74
560.854	3.77
561.196	3.78
561.537	3.76
561.878	3.79
562.22	3.8
562.561	3.8
562.902	3.79
563.243	3.77
563.584	3.75
563.925	3.79
564.266	3.8
564.607	3.84
564.948	3.83
565.289	3.81
565.63	3.81
565.971	3.76
566.312	3.76
566.653	3.77
566.993	3.76
567.334	3.77
567.675	3.74
568.015	3.74
568.356	3.75
568.696	3.76
569.037	3.75
569.377	3.75
569.718	3.73
570.058	3.73
570.398	3.71
570.739	3.69
571.079	3.69
571.419	3.7
571.759	3.71
572.099	3.71
572.439	3.73
572.779	3.73
573.119	3.76
573.459	3.74
573.799	3.71
574.139	3.72
574.479	3.72
574.819	3.72
575.158	3.7
575.498	3.7
575.838	3.7
576.177	3.68
576.517	3.68
576.856	3.7
577.196	3.71
577.535	3.74
577.875	3.73
578.214	3.71
578.553	3.72
578.893	3.71
579.232	3.72
579.571	3.73
579.91	3.75
580.25	3.74
580.589	3.76
580.928	3.78
581.267	3.76
581.606	3.77
581.945	3.76
582.283	3.78
582.622	3.76
582.961	3.75
583.3	3.75
583.639	3.72
583.977	3.69
584.316	3.71
584.654	3.7
584.993	3.73
585.332	3.79
585.67	3.75
586.008	3.74
586.347	3.69
586.685	3.67
587.024	3.67
587.362	3.68
587.7	3.67
588.038	3.67
588.376	3.68
588.715	3.65
589.053	3.66
589.391	3.66
589.729	3.69
590.067	3.71
590.404	3.76
590.742	3.78
591.08	3.8
591.418	3.8
591.756	3.83
592.093	3.79
592.431	3.78
592.769	3.82
593.106	3.82
593.444	3.86
593.781	3.88
594.119	3.87
594.456	3.85
594.793	3.85
595.131	3.85
595.468	3.86
595.805	3.85
596.143	3.87
596.48	3.89
596.817	3.87
597.154	3.87
597.491	3.79
597.828	3.8
598.165	3.8
598.502	3.75
598.839	3.72
599.176	3.76
599.512	3.72
599.849	3.73
600.186	3.73
600.523	3.71
600.859	3.71
601.196	3.71
601.532	3.77
601.869	3.78
602.205	3.76
602.542	3.76
602.878	3.79
603.215	3.8
603.551	3.78
603.887	3.78
604.223	3.74
604.56	3.78
604.896	3.8
605.232	3.78
605.568	3.84
605.904	3.84
606.24	3.83
606.576	3.87
606.912	3.86
607.248	3.92
607.583	3.98
607.919	3.96
608.255	3.97
608.591	3.94
608.926	3.93
609.262	3.93
609.597	3.95
609.933	3.94
610.268	3.93
610.604	3.96
610.939	3.98
611.275	3.99
611.61	3.96
611.945	3.94
612.281	3.97
612.616	3.93
612.951	3.99
613.286	3.99
613.621	3.94
613.956	3.95
614.291	3.85
614.626	3.8
614.961	3.86
615.296	3.87
615.631	3.86
615.966	3.86
616.3	3.89
616.635	3.85
616.97	3.85
617.304	3.89
617.639	3.92
617.973	3.91
618.308	3.9
618.642	3.95
618.977	3.92
619.311	3.93
619.646	3.97
619.98	3.92
620.314	3.91
620.648	3.93
620.983	3.91
621.317	3.96
621.651	3.94
621.985	3.91
622.319	3.9
622.653	3.9
622.987	3.91
623.321	3.92
623.655	3.93
623.988	3.96
624.322	3.92
624.656	3.91
624.99	3.93
625.323	3.96
625.657	3.99
625.99	4.01
626.324	3.96
626.657	3.94
626.991	3.97
627.324	4.01
627.658	3.96
627.991	3.94
628.324	3.93
628.657	3.93
628.991	3.94
629.324	3.91
629.657	3.91
629.99	3.92
630.323	3.91
630.656	3.95
630.989	3.93
631.322	3.92
631.655	3.89
631.987	3.9
632.32	3.9
632.653	3.88
632.986	3.88
633.318	3.95
633.651	3.97
633.984	3.96
634.316	3.96
634.649	4
634.981	3.98
635.313	3.94
635.646	3.96
635.978	3.99
636.31	4.03
636.643	4.05
636.975	4.04
637.307	4.05
637.639	4.01
637.971	4.03
638.303	4.06
638.635	4.05
638.967	4.01
639.299	3.99
639.631	3.98
639.963	3.98
640.295	3.96
640.626	3.93
640.958	3.88
641.29	3.87
641.621	3.83
641.953	3.88
642.285	3.96
642.616	4
642.948	3.96
643.279	3.99
643.61	3.97
643.942	4.01
644.273	4.03
644.604	4.08
644.936	4.07
645.267	4.04
645.598	4.01
645.929	4
646.26	4
646.591	4.04
646.922	4.11
647.253	4.13
647.584	4.12
647.915	4.12
648.245	4.17
648.576	4.18
648.907	4.18
649.238	4.09
649.568	4.03
649.899	3.94
650.229	3.91
650.56	3.93
650.89	3.99
651.221	3.97
651.551	3.92
651.882	3.94
652.212	3.92
652.542	4.05
652.872	4.06
653.203	4.11
653.533	4.06
653.863	4.03
654.193	3.99
654.523	3.99
654.853	4.04
655.183	4.04
655.513	4.12
655.843	4.22
656.172	4.28
656.502	4.27
656.832	4.31
657.162	4.32
657.491	4.33
657.821	4.22
658.15	4.25
658.48	4.28
658.809	4.29
659.139	4.33
659.468	4.27
659.798	4.34
660.127	4.3
660.456	4.33
660.785	4.33
661.115	4.37
661.444	4.37
661.773	4.36
662.102	4.31
662.431	4.31
662.76	4.19
663.089	4.22
663.418	4.27
663.747	4.25
664.076	4.24
664.404	4.24
664.733	4.32
665.062	4.28
665.39	4.27
665.719	4.24
666.048	4.2
666.376	4.19
666.705	4.13
667.033	4.22
667.362	4.2
667.69	4.22
668.018	4.19
668.347	4.23
668.675	4.24
669.003	4.28
669.331	4.23
669.659	4.21
669.987	4.23
670.315	4.27
670.643	4.26
670.971	4.27
671.299	4.29
671.627	4.28
671.955	4.24
672.283	4.2
672.61	4.22
672.938	4.35
673.266	4.35
673.593	4.35
673.921	4.29
674.249	4.3
674.576	4.32
674.904	4.3
675.231	4.31
675.558	4.36
675.886	4.32
676.213	4.31
676.54	4.35
676.867	4.26
677.195	4.29
677.522	4.38
677.849	4.4
678.176	4.36
678.503	4.35
678.83	4.39
679.157	4.41
679.484	4.4
679.81	4.35
680.137	4.38
680.464	4.39
680.791	4.36
681.117	4.36
681.444	4.28
681.771	4.33
682.097	4.37
682.424	4.34
682.75	4.34
683.077	4.41
683.403	4.45
683.729	4.47
684.056	4.43
684.382	4.4
684.708	4.41
685.034	4.39
685.36	4.41
685.686	4.5
686.012	4.58
686.339	4.54
686.664	4.48
686.99	4.48
687.316	4.52
687.642	4.63
687.968	4.59
688.294	4.61
688.619	4.61
688.945	4.57
689.271	4.63
689.596	4.62
689.922	4.57
690.247	4.55
690.573	4.63
690.898	4.67
691.224	4.73
691.549	4.74
691.874	4.87
692.2	4.89
692.525	4.75
692.85	4.73
693.175	4.81
693.5	4.86
693.825	4.82
694.15	4.74
694.475	4.75
694.8	4.81
695.125	4.86
695.45	4.77
695.775	4.77
696.099	4.68
696.424	4.68
696.749	4.74
697.073	4.69
697.398	4.71
697.723	4.7
698.047	4.7
698.372	4.65
698.696	4.58
699.02	4.63
699.345	4.67
699.669	4.59
699.993	4.58
700.318	4.57
700.642	4.61
700.966	4.62
701.29	4.5
701.614	4.44
701.938	4.37
702.262	4.44
702.586	4.47
702.91	4.57
703.234	4.48
703.557	4.44
703.881	4.57
704.205	4.45
704.529	4.4
704.852	4.36
705.176	4.38
705.499	4.44
705.823	4.28
706.146	4.32
706.47	4.45
706.793	4.47
707.117	4.42
707.44	4.45
707.763	4.55
708.086	4.59
708.409	4.64
708.733	4.64
709.056	4.72
709.379	4.77
709.702	4.69
710.025	4.93
710.348	4.91
710.671	4.93
710.993	4.95
711.316	4.96
711.639	4.9
711.962	4.95
712.284	4.86
712.607	4.82
712.93	4.79
713.252	4.77
713.575	4.67
713.897	4.77
714.22	4.62
714.542	4.67
714.864	4.62
715.187	4.53
715.509	4.63
715.831	4.56
716.153	4.4
716.475	4.36
716.798	4.3
717.12	4.35
717.442	4.28
717.764	4.32
718.085	4.37
718.407	4.4
718.729	4.36
719.051	4.39
719.373	4.6
719.695	4.5
720.016	4.46
720.338	4.61
720.659	4.6
720.981	4.61
721.302	4.65
721.624	4.58
721.945	4.66
722.267	4.6
722.588	4.64
722.909	4.63
723.231	4.64
723.552	4.64
723.873	4.57
724.194	4.6
724.515	4.54
724.836	4.44
725.157	4.57
725.478	4.64
725.799	4.6
726.12	4.5
726.441	4.65
726.762	4.59
727.083	4.56
727.403	4.58
727.724	4.77
728.045	4.76
728.365	5.06
728.686	5.15
729.006	5.16
729.327	5.25
729.647	5.3
729.967	5.36
730.288	5.39
730.608	5.32
730.928	5.36
731.249	5.51
731.569	5.47
731.889	5.39
732.209	5.33
732.529	5.47
732.849	5.45
733.169	5.34
733.489	5.25
733.809	5.39
734.129	5.45
734.448	5.41
734.768	5.27
735.088	5.11
735.408	5.19
735.727	5.22
736.047	5.14
736.366	5.14
736.686	5.11
737.005	5.15
737.325	5.12
737.644	4.98
737.963	4.66
738.283	4.72
738.602	4.84
738.921	4.87
739.24	4.98
739.56	5.06
739.879	5.13
740.198	5.18
740.517	5.1
740.836	5.07
741.155	5
741.473	4.94
741.792	4.9
742.111	4.74
742.43	4.62
742.748	4.62
743.067	4.73
743.386	4.56
743.704	4.36
744.023	4.48
744.341	4.43
744.66	4.63
744.978	4.65
745.297	4.5
745.615	4.67
745.933	4.49
746.252	4.36
746.57	4.48
746.888	4.58
747.206	4.5
747.524	4.37
747.842	4.25
748.16	4.4
748.478	4.46
748.796	4.8
749.114	4.9
749.432	5.03
749.749	5.07
750.067	5.34
750.385	5.59
750.703	5.63
751.02	5.85
751.338	5.71
751.655	5.72
751.973	5.41
752.29	5.14
752.608	5.18
752.925	5.29
753.242	5.18
753.56	4.93
753.877	4.95
754.194	5.22
754.511	5.29
754.828	5.17
755.145	5.06
755.462	4.56
755.779	4.67
756.096	4.63
756.413	4.69
756.73	4.74
757.047	4.42
757.364	4.34
757.68	4.36
757.997	4.67
758.314	5.07
758.63	5.56
758.947	5.62
759.264	5.57
759.58	5.73
759.896	5.6
760.213	5.95
760.529	5.83
760.846	5.62
761.162	5.72
761.478	6.04
761.794	6.16
762.11	6.35
762.426	6.17
762.743	6
763.059	5.67
763.375	5.54
763.69	5.75
764.006	5.8
764.322	5.61
764.638	5.52
764.954	5.39
765.27	5.26
765.585	5.31
765.901	5.27
766.216	5.31
766.532	5.5
766.848	5.4
767.163	5.46
767.478	5.45
767.794	5.4
768.109	5.24
768.424	5.22
768.74	5.12
769.055	5.32
769.37	5.46
769.685	5.76
770	5.91
770.315	5.85
770.63	5.79
770.945	5.98
771.26	6.1
771.575	5.83
771.89	5.68
772.205	5.49
772.52	5.36
772.834	5.15
773.149	5.18
773.464	5.26
773.778	5.31
774.093	5.41
774.407	5.49
774.722	5.12
775.036	5.21
775.351	5.3
775.665	5.32
775.979	5.49
776.293	5.76
776.608	5.56
776.922	5.67
777.236	5.9
777.55	5.78
777.864	5.61
778.178	5.78
778.492	6
778.806	6.02
779.12	6.42
779.434	6.38
779.747	6.58
780.061	6.85
780.375	7.13
780.689	7.05
781.002	7.01
781.316	7.54
781.629	7.5
781.943	7.63
782.256	7.29
782.57	7.3
782.883	7.1
783.196	7.18
783.51	6.92
783.823	6.86
784.136	7.11
784.449	7.18
784.762	7.4
785.075	7.37
785.388	7.91
785.701	7.62
786.014	7.39
786.327	7.19
786.64	6.74
786.953	6.58
787.266	6.37
787.578	6.12
787.891	5.66
788.204	5.81
788.516	5.69
788.829	5.79
789.141	5.78
789.454	5.56
789.766	5.91
790.079	5.88
790.391	5.86
790.703	6
791.016	5.86
791.328	5.78
791.64	5.81
791.952	5.44
792.264	5.2
792.576	5.53
792.888	5.26
793.2	5.54
793.512	5.11
793.824	5.34
794.136	5.91
794.448	6.15
794.76	6.25
795.071	6.32
795.383	6.4
795.695	6.13
796.006	6.2
796.318	5.9
796.629	6.14
796.941	6
797.252	5.56
797.564	5.72
797.875	5.47
798.186	5.59
798.497	5.45
798.809	5.88
799.12	5.72
799.431	5.33
799.742	5.1
800.053	5.66
800.364	5.52
800.675	5.12
800.986	5.28
801.297	5.03
801.608	4.9
801.918	5.08
802.229	5.2
802.54	5.17
802.851	5.27
803.161	5.29
803.472	5.27
803.782	5.65
804.093	5.81
804.403	5.96
804.714	5.63
805.024	5.86
805.334	5.67
805.645	5.6
805.955	6.52
806.265	6.62
806.575	6.21
806.885	6.47
807.195	6.56
807.505	6.35
807.815	6.56
808.125	6.71
808.435	6.4
808.745	6.8
809.055	6.96
809.365	7.09
809.674	6.59
809.984	6.23
810.294	5.81
810.603	5.53
810.913	5.24
811.222	5.92
811.532	6.04
811.841	6.58
812.151	6.43
812.46	5.98
812.769	5.88
813.079	5.66
813.388	5.53
813.697	5.19
814.006	4.92
814.315	4.65
814.624	4.94
814.933	5.2
815.242	4.7
815.551	5.07
815.86	4.76
816.169	5.04
816.478	5.64
816.786	5.75
817.095	6.19
817.404	6.31
817.712	5.52
818.021	5.41
818.33	4.97
818.638	5.78
818.947	6
819.255	6.31
819.563	6.61
819.872	6.58
820.18	6.92
820.488	7.31
820.796	7.52
821.105	7.52
821.413	7.56
821.721	7.59
822.029	7.64
822.337	7.78
822.645	7.79
822.953	7.88
823.26	8.01
823.568	7.91
823.876	7.96
824.184	8.2
824.491	8.16
824.799	8.27
825.107	8.15
825.414	8.15
825.722	8.22
826.029	8.2
826.337	8.48
826.644	8.53
826.951	8.37
827.259	8.44
827.566	8.36
827.873	8.17
828.18	8.09
828.488	7.93
828.795	7.74
829.102	7.91
829.409	7.65
829.716	7.44
830.023	7.47
830.329	7.47
830.636	7.43
830.943	7.31
831.25	6.84
831.557	6.95
831.863	7.06
832.17	7.12
832.476	7.3
832.783	6.97
833.089	6.97
833.396	7.15
833.702	6.8
834.009	6.69
834.315	7.58
834.621	7.72
834.928	7.65
835.234	7.95
835.54	7.75
835.846	7.99
836.152	7.97
836.458	7.61
836.764	7.44
837.07	7.03
837.376	6.91
837.682	7.56
837.988	7.45
838.293	7.8
838.599	7.62
838.905	7.83
839.211	7.89
839.516	7.02
839.822	6.79
840.127	6.19
840.433	6.51
840.738	5.02
841.044	4.76
841.349	4.65
841.654	3.57
841.959	3.51
842.265	3.54
842.57	2.7
842.875	2.97
843.18	3.03
843.485	2.76
843.79	2.91
844.095	2.09
844.4	1.98
844.705	0.4
845.01	0.27
845.315	-0.23
845.619	0.16
845.924	0.67
846.229	1.32
846.533	2.17
846.838	1.92
847.142	2.02
847.447	2.13
847.751	2.41
848.056	3.46
848.36	3.38
848.664	2.79
848.969	3.33
849.273	3.88
849.577	4.6
849.881	4.61
850.185	4.55
850.489	5.41
850.794	6.89
851.097	9.11
851.401	8.59
851.705	6.52
852.009	3.49
852.313	3.58
852.617	1.75
852.92	1.46
853.224	1.33
853.528	0.89
853.831	0.93
854.135	0.98
854.438	0.96
854.742	0.61
855.045	-0.12
855.349	1.52
855.652	1.27
855.955	1.35
856.259	2.01
856.562	3.82
856.865	4.43
857.168	2.01
857.471	-0.09
857.774	-0.65
858.077	0.3
858.38	2.92
858.683	4.01
858.986	4.38
859.289	4.76
859.592	5.87
859.894	6.88
860.197	7.21
860.5	8.32
860.802	8.16
861.105	7.9
861.407	8.59
861.71	7.9
862.012	8.54
862.315	7.77
862.617	7.96
862.919	7.58
863.222	5.54
863.524	5.23
863.826	4.05
864.128	6.43
864.43	7.11
864.732	5.16
865.034	6.44
865.336	5.87
865.638	6.3
865.94	4.89
866.242	5.86
866.544	7.11
866.846	7.14
867.147	6.34
867.449	6.72
867.751	5.73
868.052	4.95
868.354	6.01
868.655	5.47
868.957	4.69
869.258	2.51
869.56	3.95
869.861	4.17
870.162	6.05
870.463	3.38
870.765	2.6
871.066	4.66
871.367	2.55
871.668	2.73
871.969	2
872.27	1.24
872.571	2.94
872.872	0.34
873.173	-1.17
873.473	0.38
873.774	1.56
874.075	3.53
874.376	3.65
874.676	2.77
874.977	5.08
875.277	6.4
875.578	7.67
875.878	7.68
876.179	8.64
876.479	8.53
876.78	9.84
877.08	10.71
877.38	9.95
877.68	10.86
877.981	13.07
878.281	14.28
878.581	16.39
