Data from BU26938_Reflection_00002.txt Node
Date: Tue Nov 19 10:42:09 EST 2019
User: vgr7
Spectrometer: USB2G7710
Scans to average: 3
Trigger mode: 4
Integration Time (sec): 2.000000E-2
Electric dark correction enabled: true
Boxcar width: 10
XAxis mode: Wavelengths
Number of Pixels in Spectrum: 2048
>>>>>Begin Spectral Data<<<<<
177.721	230.62
178.105	-1476.92
178.488	949.62
178.871	6600
179.254	183.87
179.636	259.09
180.019	72.7
180.402	-9.52
180.785	15.79
181.168	-167.18
181.55	-510.39
181.933	-130.37
182.316	-471.43
182.698	1422.58
183.081	-295.44
183.463	646.01
183.846	1559.02
184.228	960.76
184.611	2379.07
184.993	1076.47
185.376	15814.29
185.758	-455.21
186.14	-477.05
186.522	-262.26
186.904	-523.26
187.287	-228.88
187.669	-200.72
188.051	-221.38
188.433	-491.26
188.815	-540.9
189.197	-399.11
189.579	-392.6
189.961	-959.11
190.342	-209.89
190.724	-371.78
191.106	-447.17
191.488	-188.01
191.869	-111.02
192.251	-95.72
192.633	-107.43
193.014	-100.24
193.396	-84.65
193.777	-68.95
194.159	-69.76
194.54	-83.48
194.922	-96.81
195.303	-107.82
195.684	-112.96
196.065	-105.01
196.447	-77.86
196.828	-50.27
197.209	-41.51
197.59	-39.48
197.971	-53.56
198.352	-57.51
198.733	-53.17
199.114	-52.37
199.495	-59.15
199.876	-65.69
200.257	-56.19
200.638	-32.28
201.018	-23.21
201.399	-19.93
201.78	-12.43
202.16	-14.87
202.541	-20.46
202.922	-9.44
203.302	-1.76
203.683	-3.9
204.063	-26.23
204.444	-28.88
204.824	-48.23
205.204	-52.46
205.585	-92.4
205.965	-75.75
206.345	-65.2
206.725	-59.28
207.106	-47.26
207.486	-51.36
207.866	-49.51
208.246	-50.39
208.626	-109.9
209.006	-140.54
209.386	-173.8
209.766	-210.5
210.145	-182.27
210.525	-421.52
210.905	-398.69
211.285	-209.18
211.664	-188.44
212.044	-223.82
212.424	-158.1
212.803	-181.05
213.183	-208.28
213.562	-126.54
213.942	-97.1
214.321	-131.44
214.701	-140.86
215.08	-219.91
215.459	-160.91
215.838	-183.8
216.218	-173.8
216.597	-129.64
216.976	-133.36
217.355	-116.12
217.734	-93.04
218.113	-83.66
218.492	-77.22
218.871	-80.26
219.25	-93.87
219.629	-93.46
220.008	-73.75
220.387	-91.54
220.766	-79.42
221.144	-82.5
221.523	-104.04
221.902	-88.84
222.28	-67.31
222.659	-52.66
223.037	-41.94
223.416	-51.68
223.794	-39.37
224.173	-35.67
224.551	-34.37
224.929	-36.89
225.308	-38.74
225.686	-39.72
226.064	-42.74
226.442	-31.22
226.821	-23.25
227.199	-16.27
227.577	-13.38
227.955	-14.38
228.333	-14.85
228.711	-14.64
229.089	-13.96
229.467	-10.73
229.845	-13.47
230.222	-8.86
230.6	-9.41
230.978	-9.49
231.356	-7.94
231.733	-8.85
232.111	-9.67
232.488	-8.02
232.866	-3.14
233.243	-0.97
233.621	0.42
233.998	0.32
234.376	1.09
234.753	0.53
235.13	-1.15
235.508	-1.24
235.885	-2.22
236.262	-1.07
236.639	-1.9
237.016	-0.46
237.393	0.1
237.77	0.98
238.147	-0.93
238.524	-0.29
238.901	0.95
239.278	0.61
239.655	1.03
240.032	0.79
240.409	0.64
240.785	-0.01
241.162	-0.21
241.539	-0.85
241.915	-0.46
242.292	-0.3
242.668	0.34
243.045	1.04
243.421	1.22
243.798	1.56
244.174	1.74
244.551	2.01
244.927	2.16
245.303	1.99
245.679	2.04
246.056	2.22
246.432	2.39
246.808	2.17
247.184	2.27
247.56	2.1
247.936	2.44
248.312	2.64
248.688	2.64
249.064	2.67
249.44	2.68
249.815	2.74
250.191	2.81
250.567	2.83
250.943	2.49
251.318	2.25
251.694	2.03
252.069	1.95
252.445	1.75
252.82	1.77
253.196	2.1
253.571	2.1
253.947	2.05
254.322	1.8
254.697	1.7
255.073	1.88
255.448	2.08
255.823	1.97
256.198	1.71
256.573	1.83
256.948	1.85
257.323	1.96
257.698	1.91
258.073	1.76
258.448	1.74
258.823	1.62
259.198	1.75
259.573	1.85
259.948	1.85
260.322	1.95
260.697	1.88
261.072	1.72
261.446	1.71
261.821	1.65
262.195	1.67
262.57	1.87
262.944	1.8
263.319	1.73
263.693	1.53
264.067	1.74
264.442	1.57
264.816	1.63
265.19	1.63
265.564	1.58
265.938	1.59
266.313	1.51
266.687	1.94
267.061	1.99
267.435	2.13
267.809	2.12
268.183	2.09
268.556	1.87
268.93	2.21
269.304	2.18
269.678	2.16
270.051	2.07
270.425	1.98
270.799	1.96
271.172	2.01
271.546	2.31
271.919	2.24
272.293	2.42
272.666	2.37
273.04	2.38
273.413	2.36
273.787	2.43
274.16	2.48
274.533	2.43
274.906	2.36
275.279	2.3
275.653	2.47
276.026	2.54
276.399	2.61
276.772	2.37
277.145	2.42
277.518	2.43
277.891	2.59
278.263	2.7
278.636	2.77
279.009	2.78
279.382	2.52
279.755	2.51
280.127	2.47
280.5	2.56
280.872	2.56
281.245	2.65
281.617	2.79
281.99	2.65
282.362	2.6
282.735	2.59
283.107	2.54
283.479	2.47
283.852	2.43
284.224	2.55
284.596	2.6
284.968	2.57
285.34	2.6
285.713	2.6
286.085	2.46
286.457	2.56
286.829	2.54
287.201	2.65
287.572	2.7
287.944	2.77
288.316	2.77
288.688	2.82
289.06	2.83
289.431	2.7
289.803	2.79
290.175	2.72
290.546	2.78
290.918	2.77
291.289	2.75
291.661	2.83
292.032	2.76
292.403	2.75
292.775	2.91
293.146	2.94
293.517	2.85
293.889	2.91
294.26	2.78
294.631	2.91
295.002	2.99
295.373	2.92
295.744	2.8
296.115	2.9
296.486	2.86
296.857	2.86
297.228	2.88
297.599	2.95
297.97	3.07
298.34	3.13
298.711	3.13
299.082	3.09
299.452	3.1
299.823	3.22
300.194	3.27
300.564	3.15
300.935	3.31
301.305	3.45
301.676	3.4
302.046	3.39
302.416	3.23
302.787	3.19
303.157	3.29
303.527	3.47
303.897	3.29
304.267	3.33
304.637	3.29
305.008	3.26
305.378	3.06
305.748	2.98
306.117	2.92
306.487	3.05
306.857	3.03
307.227	2.94
307.597	2.85
307.967	2.79
308.336	2.68
308.706	2.53
309.076	2.55
309.445	2.67
309.815	2.83
310.184	2.94
310.554	2.76
310.923	2.65
311.293	2.47
311.662	2.55
312.031	2.55
312.401	2.54
312.77	2.54
313.139	2.62
313.508	2.59
313.877	2.61
314.246	2.44
314.616	2.49
314.985	2.45
315.353	2.42
315.722	2.5
316.091	2.65
316.46	2.56
316.829	2.46
317.198	2.47
317.567	2.46
317.935	2.38
318.304	2.59
318.672	2.61
319.041	2.76
319.41	2.66
319.778	2.69
320.147	2.71
320.515	2.81
320.883	2.9
321.252	3.05
321.62	3.02
321.988	3.22
322.357	3.28
322.725	3.29
323.093	3.45
323.461	3.48
323.829	3.42
324.197	3.48
324.565	3.37
324.933	3.29
325.301	3.07
325.669	3.13
326.037	3.11
326.405	3.19
326.772	3.09
327.14	3.16
327.508	3.06
327.875	3.13
328.243	3.13
328.61	2.95
328.978	2.82
329.346	2.79
329.713	2.83
330.08	2.85
330.448	2.9
330.815	2.84
331.182	2.75
331.55	2.82
331.917	2.75
332.284	2.89
332.651	2.92
333.018	3.03
333.385	2.93
333.752	2.86
334.119	2.87
334.486	2.9
334.853	2.77
335.22	2.9
335.587	2.73
335.954	2.74
336.32	2.82
336.687	2.92
337.054	2.99
337.42	2.85
337.787	2.73
338.153	2.72
338.52	2.73
338.886	2.76
339.253	2.68
339.619	2.77
339.986	2.69
340.352	2.74
340.718	2.78
341.084	2.73
341.451	2.85
341.817	2.81
342.183	2.84
342.549	2.85
342.915	2.96
343.281	3.16
343.647	3.08
344.013	3.11
344.379	3.01
344.745	3.03
345.11	3.02
345.476	3.12
345.842	3.09
346.208	3.03
346.573	3.06
346.939	3.08
347.304	3.1
347.67	3.15
348.035	3.1
348.401	3.03
348.766	3.1
349.132	3.01
349.497	3.03
349.862	3.02
350.228	3.12
350.593	3.02
350.958	3.07
351.323	3.04
351.688	3.06
352.053	3.09
352.418	3.05
352.783	3.2
353.148	3.15
353.513	3.18
353.878	3.18
354.243	3.12
354.608	3.18
354.972	3.19
355.337	3.19
355.702	3.18
356.066	3.23
356.431	3.19
356.795	3.14
357.16	3.09
357.524	3.05
357.889	3
358.253	2.97
358.618	2.83
358.982	2.9
359.346	2.9
359.71	2.93
360.075	2.89
360.439	2.84
360.803	2.85
361.167	2.79
361.531	2.76
361.895	2.83
362.259	2.79
362.623	2.79
362.987	2.75
363.351	2.76
363.714	2.76
364.078	2.81
364.442	2.84
364.806	2.85
365.169	2.84
365.533	2.83
365.896	2.87
366.26	2.96
366.623	2.91
366.987	2.92
367.35	2.89
367.714	2.88
368.077	2.87
368.44	2.91
368.803	2.93
369.167	2.91
369.53	2.87
369.893	2.87
370.256	2.87
370.619	2.85
370.982	2.83
371.345	2.87
371.708	2.86
372.071	2.88
372.434	2.85
372.797	2.89
373.159	2.96
373.522	2.95
373.885	2.87
374.247	2.88
374.61	2.92
374.973	2.88
375.335	2.91
375.698	2.91
376.06	2.88
376.423	2.9
376.785	3
377.147	2.97
377.51	2.99
377.872	2.9
378.234	2.95
378.596	3
378.958	2.97
379.321	2.96
379.683	2.98
380.045	3
380.407	3.04
380.769	3.02
381.13	3.06
381.492	3.11
381.854	3.11
382.216	3.13
382.578	3.15
382.939	3.18
383.301	3.13
383.663	3.13
384.024	3.14
384.386	3.1
384.747	3.14
385.109	3.15
385.47	3.23
385.832	3.2
386.193	3.17
386.554	3.14
386.916	3.16
387.277	3.15
387.638	3.17
387.999	3.14
388.36	3.13
388.721	3.08
389.082	3.07
389.443	3.09
389.804	3.08
390.165	3.11
390.526	3.13
390.887	3.16
391.248	3.2
391.609	3.2
391.969	3.18
392.33	3.18
392.691	3.18
393.051	3.16
393.412	3.18
393.772	3.2
394.133	3.23
394.493	3.21
394.854	3.2
395.214	3.2
395.574	3.21
395.935	3.18
396.295	3.14
396.655	3.11
397.015	3.12
397.376	3.09
397.736	3.11
398.096	3.1
398.456	3.09
398.816	3.04
399.176	3.02
399.535	3.02
399.895	3
400.255	3.01
400.615	3
400.975	3
401.334	3
401.694	2.98
402.054	2.98
402.413	3.02
402.773	3.01
403.132	2.99
403.492	3.02
403.851	3.03
404.211	3.03
404.57	3.04
404.929	3
405.288	3
405.648	3
406.007	2.99
406.366	3
406.725	3.04
407.084	3.02
407.443	3
407.802	2.96
408.161	2.97
408.52	3
408.879	2.99
409.238	3
409.596	3
409.955	2.96
410.314	2.96
410.673	2.96
411.031	2.94
411.39	2.98
411.748	2.99
412.107	2.98
412.465	3.03
412.824	3
413.182	3.01
413.54	3.03
413.899	3.04
414.257	3.03
414.615	3.05
414.974	3.03
415.332	3.07
415.69	3.05
416.048	3.02
416.406	3.02
416.764	3.03
417.122	3.03
417.48	3.03
417.838	3.03
418.195	3.02
418.553	3.02
418.911	3.03
419.269	3.04
419.626	3.04
419.984	3.03
420.342	3.03
420.699	3.02
421.057	3.02
421.414	3.02
421.772	3.02
422.129	3.03
422.486	3.06
422.844	3.04
423.201	3.05
423.558	3.05
423.915	3.06
424.273	3.04
424.63	3.04
424.987	3.05
425.344	3.06
425.701	3.07
426.058	3.08
426.415	3.07
426.772	3.05
427.128	3.06
427.485	3.07
427.842	3.09
428.199	3.09
428.555	3.08
428.912	3.06
429.269	3.06
429.625	3.05
429.982	3.04
430.338	3.04
430.695	3.03
431.051	3.03
431.407	2.99
431.764	3
432.12	3.01
432.476	3
432.832	3.01
433.189	3
433.545	3.02
433.901	3.01
434.257	3.01
434.613	3
434.969	2.97
435.325	2.98
435.681	2.97
436.036	2.98
436.392	2.98
436.748	2.99
437.104	3.02
437.459	3.02
437.815	3.03
438.171	3.04
438.526	3.04
438.882	3.08
439.237	3.08
439.593	3.1
439.948	3.11
440.304	3.09
440.659	3.09
441.014	3.07
441.369	3.07
441.725	3.08
442.08	3.07
442.435	3.1
442.79	3.09
443.145	3.1
443.5	3.09
443.855	3.09
444.21	3.09
444.565	3.09
444.92	3.08
445.275	3.09
445.629	3.08
445.984	3.07
446.339	3.05
446.693	3.05
447.048	3.03
447.403	3.04
447.757	3.04
448.112	3.03
448.466	3.04
448.82	3.05
449.175	3.04
449.529	3.05
449.883	3.04
450.238	3.02
450.592	3.03
450.946	3.06
451.3	3.05
451.654	3.04
452.008	3.03
452.362	3.04
452.716	3.05
453.07	3.06
453.424	3.08
453.778	3.08
454.132	3.08
454.486	3.07
454.839	3.06
455.193	3.07
455.547	3.09
455.9	3.12
456.254	3.11
456.607	3.13
456.961	3.13
457.314	3.12
457.668	3.13
458.021	3.12
458.375	3.1
458.728	3.11
459.081	3.11
459.434	3.1
459.787	3.11
460.141	3.11
460.494	3.11
460.847	3.12
461.2	3.13
461.553	3.13
461.906	3.14
462.259	3.14
462.611	3.14
462.964	3.13
463.317	3.13
463.67	3.13
464.022	3.13
464.375	3.14
464.728	3.14
465.08	3.15
465.433	3.15
465.785	3.17
466.138	3.17
466.49	3.18
466.843	3.19
467.195	3.17
467.547	3.16
467.899	3.17
468.252	3.15
468.604	3.15
468.956	3.16
469.308	3.14
469.66	3.15
470.012	3.14
470.364	3.15
470.716	3.13
471.068	3.13
471.42	3.12
471.772	3.14
472.123	3.15
472.475	3.16
472.827	3.14
473.178	3.14
473.53	3.14
473.882	3.15
474.233	3.15
474.585	3.16
474.936	3.15
475.288	3.14
475.639	3.15
475.99	3.15
476.342	3.15
476.693	3.18
477.044	3.19
477.395	3.19
477.746	3.21
478.097	3.22
478.448	3.2
478.8	3.2
479.15	3.18
479.501	3.17
479.852	3.17
480.203	3.21
480.554	3.21
480.905	3.22
481.255	3.22
481.606	3.24
481.957	3.24
482.307	3.25
482.658	3.26
483.009	3.25
483.359	3.26
483.709	3.26
484.06	3.27
484.41	3.27
484.761	3.28
485.111	3.27
485.461	3.27
485.811	3.28
486.162	3.29
486.512	3.31
486.862	3.31
487.212	3.31
487.562	3.31
487.912	3.31
488.262	3.31
488.612	3.3
488.961	3.3
489.311	3.3
489.661	3.31
490.011	3.32
490.36	3.32
490.71	3.32
491.06	3.33
491.409	3.31
491.759	3.32
492.108	3.32
492.458	3.32
492.807	3.32
493.157	3.33
493.506	3.32
493.855	3.3
494.204	3.3
494.554	3.31
494.903	3.31
495.252	3.3
495.601	3.31
495.95	3.34
496.299	3.34
496.648	3.36
496.997	3.34
497.346	3.34
497.695	3.34
498.043	3.33
498.392	3.34
498.741	3.36
499.09	3.36
499.438	3.37
499.787	3.37
500.135	3.37
500.484	3.38
500.832	3.4
501.181	3.42
501.529	3.43
501.878	3.42
502.226	3.43
502.574	3.46
502.923	3.46
503.271	3.46
503.619	3.47
503.967	3.46
504.315	3.47
504.663	3.47
505.011	3.45
505.359	3.44
505.707	3.44
506.055	3.45
506.403	3.46
506.751	3.46
507.098	3.47
507.446	3.47
507.794	3.46
508.141	3.49
508.489	3.47
508.837	3.47
509.184	3.49
509.531	3.48
509.879	3.47
510.226	3.48
510.574	3.49
510.921	3.49
511.268	3.48
511.616	3.5
511.963	3.51
512.31	3.55
512.657	3.55
513.004	3.54
513.351	3.54
513.698	3.54
514.045	3.52
514.392	3.53
514.739	3.53
515.086	3.53
515.432	3.51
515.779	3.52
516.126	3.53
516.473	3.52
516.819	3.53
517.166	3.57
517.512	3.56
517.859	3.55
518.205	3.55
518.552	3.56
518.898	3.55
519.245	3.55
519.591	3.56
519.937	3.56
520.283	3.59
520.629	3.6
520.976	3.6
521.322	3.61
521.668	3.6
522.014	3.62
522.36	3.63
522.706	3.66
523.052	3.68
523.398	3.66
523.743	3.67
524.089	3.69
524.435	3.66
524.781	3.68
525.126	3.69
525.472	3.69
525.817	3.71
526.163	3.71
526.509	3.71
526.854	3.71
527.199	3.72
527.545	3.71
527.89	3.71
528.235	3.71
528.581	3.71
528.926	3.74
529.271	3.74
529.616	3.74
529.961	3.72
530.306	3.72
530.651	3.72
530.996	3.73
531.341	3.73
531.686	3.73
532.031	3.74
532.376	3.73
532.721	3.73
533.065	3.73
533.41	3.74
533.755	3.74
534.099	3.73
534.444	3.72
534.788	3.73
535.133	3.74
535.477	3.75
535.822	3.76
536.166	3.73
536.51	3.73
536.855	3.74
537.199	3.76
537.543	3.78
537.887	3.79
538.231	3.78
538.576	3.79
538.92	3.8
539.264	3.8
539.608	3.8
539.951	3.79
540.295	3.79
540.639	3.8
540.983	3.81
541.327	3.81
541.671	3.84
542.014	3.85
542.358	3.84
542.701	3.85
543.045	3.85
543.389	3.87
543.732	3.88
544.075	3.88
544.419	3.87
544.762	3.85
545.105	3.85
545.449	3.85
545.792	3.85
546.135	3.85
546.478	3.85
546.821	3.86
547.165	3.87
547.508	3.86
547.851	3.85
548.194	3.84
548.536	3.82
548.879	3.8
549.222	3.78
549.565	3.79
549.908	3.79
550.25	3.78
550.593	3.76
550.936	3.78
551.278	3.78
551.621	3.78
551.963	3.81
552.306	3.81
552.648	3.81
552.991	3.8
553.333	3.81
553.675	3.83
554.017	3.81
554.36	3.85
554.702	3.86
555.044	3.84
555.386	3.85
555.728	3.89
556.07	3.91
556.412	3.92
556.754	3.88
557.096	3.86
557.438	3.84
557.78	3.86
558.121	3.83
558.463	3.82
558.805	3.83
559.147	3.83
559.488	3.82
559.83	3.82
560.171	3.82
560.513	3.81
560.854	3.81
561.196	3.85
561.537	3.82
561.878	3.85
562.22	3.84
562.561	3.85
562.902	3.85
563.243	3.86
563.584	3.83
563.925	3.91
564.266	3.9
564.607	3.92
564.948	3.9
565.289	3.91
565.63	3.88
565.971	3.86
566.312	3.85
566.653	3.86
566.993	3.86
567.334	3.86
567.675	3.89
568.015	3.88
568.356	3.85
568.696	3.86
569.037	3.84
569.377	3.82
569.718	3.83
570.058	3.82
570.398	3.8
570.739	3.81
571.079	3.77
571.419	3.78
571.759	3.77
572.099	3.75
572.439	3.76
572.779	3.76
573.119	3.78
573.459	3.79
573.799	3.8
574.139	3.82
574.479	3.83
574.819	3.82
575.158	3.85
575.498	3.85
575.838	3.81
576.177	3.81
576.517	3.85
576.856	3.84
577.196	3.85
577.535	3.84
577.875	3.84
578.214	3.85
578.553	3.86
578.893	3.88
579.232	3.93
579.571	3.91
579.91	3.94
580.25	3.93
580.589	3.94
580.928	3.91
581.267	3.9
581.606	3.88
581.945	3.84
582.283	3.8
582.622	3.79
582.961	3.85
583.3	3.88
583.639	3.87
583.977	3.89
584.316	3.87
584.654	3.87
584.993	3.85
585.332	3.87
585.67	3.85
586.008	3.83
586.347	3.81
586.685	3.78
587.024	3.77
587.362	3.78
587.7	3.83
588.038	3.91
588.376	3.88
588.715	3.89
589.053	3.93
589.391	3.93
589.729	3.94
590.067	3.9
590.404	3.88
590.742	3.88
591.08	3.91
591.418	3.92
591.756	3.94
592.093	3.96
592.431	3.94
592.769	3.96
593.106	3.98
593.444	4
593.781	4.03
594.119	4.02
594.456	4.01
594.793	3.97
595.131	3.93
595.468	3.97
595.805	3.97
596.143	3.99
596.48	4.01
596.817	4.03
597.154	4.04
597.491	4.05
597.828	4.05
598.165	4
598.502	4
598.839	4.02
599.176	4.04
599.512	4.05
599.849	4.08
600.186	4.06
600.523	4.06
600.859	4.07
601.196	4.09
601.532	4.11
601.869	4.14
602.205	4.16
602.542	4.13
602.878	4.13
603.215	4.11
603.551	4.11
603.887	4.1
604.223	4.09
604.56	4.12
604.896	4.16
605.232	4.19
605.568	4.18
605.904	4.17
606.24	4.2
606.576	4.2
606.912	4.17
607.248	4.21
607.583	4.18
607.919	4.15
608.255	4.13
608.591	4.15
608.926	4.14
609.262	4.1
609.597	4.13
609.933	4.15
610.268	4.14
610.604	4.12
610.939	4.12
611.275	4.13
611.61	4.08
611.945	4
612.281	4.01
612.616	4.03
612.951	4.07
613.286	4.06
613.621	4.08
613.956	4.12
614.291	4.1
614.626	4.14
614.961	4.18
615.296	4.23
615.631	4.21
615.966	4.2
616.3	4.19
616.635	4.21
616.97	4.25
617.304	4.25
617.639	4.26
617.973	4.3
618.308	4.32
618.642	4.35
618.977	4.37
619.311	4.39
619.646	4.41
619.98	4.42
620.314	4.4
620.648	4.38
620.983	4.34
621.317	4.31
621.651	4.36
621.985	4.32
622.319	4.3
622.653	4.33
622.987	4.29
623.321	4.38
623.655	4.38
623.988	4.34
624.322	4.33
624.656	4.34
624.99	4.33
625.323	4.33
625.657	4.35
625.99	4.37
626.324	4.36
626.657	4.28
626.991	4.25
627.324	4.23
627.658	4.25
627.991	4.26
628.324	4.29
628.657	4.26
628.991	4.3
629.324	4.33
629.657	4.29
629.99	4.37
630.323	4.33
630.656	4.29
630.989	4.29
631.322	4.3
631.655	4.29
631.987	4.3
632.32	4.25
632.653	4.2
632.986	4.24
633.318	4.25
633.651	4.28
633.984	4.28
634.316	4.28
634.649	4.25
634.981	4.23
635.313	4.23
635.646	4.24
635.978	4.25
636.31	4.25
636.643	4.29
636.975	4.22
637.307	4.26
637.639	4.26
637.971	4.26
638.303	4.26
638.635	4.29
638.967	4.32
639.299	4.31
639.631	4.37
639.963	4.32
640.295	4.3
640.626	4.34
640.958	4.34
641.29	4.4
641.621	4.41
641.953	4.39
642.285	4.38
642.616	4.42
642.948	4.33
643.279	4.3
643.61	4.34
643.942	4.33
644.273	4.37
644.604	4.38
644.936	4.38
645.267	4.4
645.598	4.38
645.929	4.38
646.26	4.41
646.591	4.42
646.922	4.42
647.253	4.41
647.584	4.4
647.915	4.39
648.245	4.42
648.576	4.45
648.907	4.49
649.238	4.49
649.568	4.44
649.899	4.52
650.229	4.54
650.56	4.5
650.89	4.5
651.221	4.44
651.551	4.48
651.882	4.48
652.212	4.5
652.542	4.56
652.872	4.6
653.203	4.61
653.533	4.58
653.863	4.63
654.193	4.59
654.523	4.55
654.853	4.59
655.183	4.6
655.513	4.6
655.843	4.6
656.172	4.67
656.502	4.58
656.832	4.54
657.162	4.55
657.491	4.58
657.821	4.6
658.15	4.64
658.48	4.64
658.809	4.66
659.139	4.67
659.468	4.63
659.798	4.6
660.127	4.58
660.456	4.55
660.785	4.55
661.115	4.62
661.444	4.64
661.773	4.63
662.102	4.56
662.431	4.58
662.76	4.61
663.089	4.52
663.418	4.62
663.747	4.67
664.076	4.69
664.404	4.68
664.733	4.71
665.062	4.67
665.39	4.63
665.719	4.65
666.048	4.62
666.376	4.65
666.705	4.67
667.033	4.68
667.362	4.68
667.69	4.61
668.018	4.59
668.347	4.66
668.675	4.66
669.003	4.66
669.331	4.68
669.659	4.66
669.987	4.76
670.315	4.73
670.643	4.73
670.971	4.67
671.299	4.6
671.627	4.54
671.955	4.5
672.283	4.53
672.61	4.5
672.938	4.58
673.266	4.49
673.593	4.42
673.921	4.54
674.249	4.6
674.576	4.62
674.904	4.54
675.231	4.5
675.558	4.58
675.886	4.62
676.213	4.53
676.54	4.51
676.867	4.5
677.195	4.59
677.522	4.56
677.849	4.57
678.176	4.67
678.503	4.65
678.83	4.65
679.157	4.6
679.484	4.59
679.81	4.47
680.137	4.56
680.464	4.62
680.791	4.56
681.117	4.56
681.444	4.59
681.771	4.74
682.097	4.76
682.424	4.7
682.75	4.67
683.077	4.77
683.403	4.82
683.729	4.78
684.056	4.77
684.382	4.82
684.708	4.82
685.034	4.73
685.36	4.77
685.686	4.83
686.012	4.98
686.339	5
686.664	5.07
686.99	4.95
687.316	4.93
687.642	4.95
687.968	4.94
688.294	5.06
688.619	4.97
688.945	4.92
689.271	4.86
689.596	4.9
689.922	4.78
690.247	4.73
690.573	4.8
690.898	4.8
691.224	4.78
691.549	4.87
691.874	4.95
692.2	4.93
692.525	4.89
692.85	4.81
693.175	4.87
693.5	4.9
693.825	5.09
694.15	5.09
694.475	5.14
694.8	5.19
695.125	5.13
695.45	5.17
695.775	5.15
696.099	5.33
696.424	5.32
696.749	5.4
697.073	5.4
697.398	5.4
697.723	5.42
698.047	5.44
698.372	5.43
698.696	5.45
699.02	5.54
699.345	5.53
699.669	5.55
699.993	5.51
700.318	5.54
700.642	5.5
700.966	5.5
701.29	5.55
701.614	5.51
701.938	5.52
702.262	5.51
702.586	5.57
702.91	5.48
703.234	5.34
703.557	5.35
703.881	5.48
704.205	5.5
704.529	5.46
704.852	5.44
705.176	5.61
705.499	5.55
705.823	5.5
706.146	5.51
706.47	5.44
706.793	5.47
707.117	5.49
707.44	5.46
707.763	5.49
708.086	5.45
708.409	5.49
708.733	5.5
709.056	5.48
709.379	5.57
709.702	5.59
710.025	5.75
710.348	5.72
710.671	5.55
710.993	5.59
711.316	5.69
711.639	5.7
711.962	5.65
712.284	5.68
712.607	5.67
712.93	5.69
713.252	5.71
713.575	5.79
713.897	5.8
714.22	5.78
714.542	5.82
714.864	5.74
715.187	5.67
715.509	5.58
715.831	5.59
716.153	5.53
716.475	5.57
716.798	5.7
717.12	5.68
717.442	5.63
717.764	5.59
718.085	5.52
718.407	5.62
718.729	5.48
719.051	5.46
719.373	5.56
719.695	5.61
720.016	5.74
720.338	5.76
720.659	5.7
720.981	5.82
721.302	5.78
721.624	5.87
721.945	6.02
722.267	6.19
722.588	6.11
722.909	6.09
723.231	5.85
723.552	5.74
723.873	5.81
724.194	5.93
724.515	5.77
724.836	5.81
725.157	5.8
725.478	5.69
725.799	5.8
726.12	5.74
726.441	5.79
726.762	5.64
727.083	5.65
727.403	5.53
727.724	5.55
728.045	5.64
728.365	5.62
728.686	5.66
729.006	5.53
729.327	5.71
729.647	5.79
729.967	5.99
730.288	6.08
730.608	6.01
730.928	6.09
731.249	6.24
731.569	6.14
731.889	6.12
732.209	6.18
732.529	6.21
732.849	6.22
733.169	6.24
733.489	6.36
733.809	6.23
734.129	6.4
734.448	6.4
734.768	6.33
735.088	6.28
735.408	6.17
735.727	6.24
736.047	6.25
736.366	6.12
736.686	6.09
737.005	6.18
737.325	6.23
737.644	6.19
737.963	6.06
738.283	6.08
738.602	6.2
738.921	6.33
739.24	6.43
739.56	6.48
739.879	6.39
740.198	6.24
740.517	6.23
740.836	6.13
741.155	6.04
741.473	6.02
741.792	6.04
742.111	5.99
742.43	6.13
742.748	6.17
743.067	6.41
743.386	6.19
743.704	6.19
744.023	6.32
744.341	6.17
744.66	6.18
744.978	6.34
745.297	6.3
745.615	6.32
745.933	6.18
746.252	6.3
746.57	6.48
746.888	6.6
747.206	6.73
747.524	7.04
747.842	7.05
748.16	7.13
748.478	7.08
748.796	7.22
749.114	7.24
749.432	7.05
749.749	6.69
750.067	6.95
750.385	6.67
750.703	6.57
751.02	6.99
751.338	7.03
751.655	6.94
751.973	6.91
752.29	6.77
752.608	6.69
752.925	6.3
753.242	6.12
753.56	6.03
753.877	5.91
754.194	5.53
754.511	5.38
754.828	5.35
755.145	5.55
755.462	5.66
755.779	5.55
756.096	5.85
756.413	6.08
756.73	5.88
757.047	5.74
757.364	5.83
757.68	5.6
757.997	5.81
758.314	6.01
758.63	5.89
758.947	5.83
759.264	6.05
759.58	6.32
759.896	6.26
760.213	6.34
760.529	6.47
760.846	6.77
761.162	7.02
761.478	7.26
761.794	7.15
762.11	7.1
762.426	7.21
762.743	7.09
763.059	7.12
763.375	7.33
763.69	7.74
764.006	7.73
764.322	7.78
764.638	7.81
764.954	7.62
765.27	7.81
765.585	8
765.901	7.91
766.216	7.78
766.532	8
766.848	8.1
767.163	8.13
767.478	8.06
767.794	7.82
768.109	7.58
768.424	7.62
768.74	7.5
769.055	7.71
769.37	7.49
769.685	7.46
770	7.53
770.315	7.23
770.63	7.22
770.945	7.36
771.26	7.28
771.575	7.23
771.89	6.79
772.205	6.95
772.52	6.8
772.834	6.75
773.149	6.58
773.464	6.28
773.778	6.02
774.093	6.13
774.407	6.43
774.722	6.48
775.036	6.58
775.351	6.63
775.665	6.46
775.979	6.44
776.293	6.93
776.608	6.66
776.922	6.59
777.236	6.73
777.55	6.42
777.864	6.22
778.178	6.25
778.492	6.54
778.806	6.32
779.12	6.74
779.434	7.09
779.747	7.16
780.061	7.4
780.375	7.44
780.689	7.06
781.002	7.1
781.316	7.07
781.629	7.02
781.943	7.23
782.256	6.83
782.57	7.07
782.883	6.74
783.196	6.7
783.51	6.61
783.823	6.37
784.136	6.5
784.449	6.54
784.762	6.86
785.075	6.6
785.388	6.63
785.701	6.22
786.014	5.84
786.327	5.71
786.64	6.07
786.953	6.14
787.266	6.44
787.578	6.02
787.891	5.9
788.204	5.96
788.516	5.8
788.829	5.99
789.141	6.16
789.454	5.9
789.766	6.34
790.079	6.33
790.391	6.26
790.703	6.33
791.016	6.56
791.328	6.37
791.64	6.29
791.952	6.27
792.264	6.5
792.576	7.19
792.888	7.54
793.2	7.18
793.512	7.06
793.824	7
794.136	7.35
794.448	7.96
794.76	7.65
795.071	7.87
795.383	7.63
795.695	7.77
796.006	7.86
796.318	7.55
796.629	7.67
796.941	8.3
797.252	8.15
797.564	8.13
797.875	7.92
798.186	8.19
798.497	7.75
798.809	7.6
799.12	7.07
799.431	7.1
799.742	6.98
800.053	7.15
800.364	7.24
800.675	7.44
800.986	7.15
801.297	7.89
801.608	7.74
801.918	7.91
802.229	8.05
802.54	7.98
802.851	8.31
803.161	8.64
803.472	8.14
803.782	8.8
804.093	8.57
804.403	9.27
804.714	9.64
805.024	10.02
805.334	10.11
805.645	10.03
805.955	9.87
806.265	10.18
806.575	10.26
806.885	10.16
807.195	9.61
807.505	9.12
807.815	8.7
808.125	8.49
808.435	8.68
808.745	8.15
809.055	8.26
809.365	8
809.674	7.75
809.984	7.69
810.294	7.48
810.603	7.32
810.913	6.76
811.222	6.34
811.532	6.47
811.841	6.93
812.151	6.9
812.46	7.1
812.769	6.53
813.079	6.69
813.388	6.84
813.697	6.93
814.006	7.02
814.315	6.95
814.624	7.3
814.933	6.66
815.242	6.78
815.551	7.12
815.86	7.48
816.169	7.17
816.478	7.59
816.786	7.16
817.095	7.34
817.404	7.75
817.712	8.29
818.021	8.35
818.33	7.35
818.638	7.53
818.947	7.64
819.255	7.81
819.563	7.72
819.872	8.06
820.18	8.42
820.488	8.8
820.796	8.67
821.105	8.6
821.413	8.89
821.721	8.83
822.029	8.86
822.337	8.84
822.645	8.95
822.953	8.86
823.26	8.82
823.568	8.91
823.876	8.92
824.184	8.75
824.491	8.75
824.799	8.96
825.107	8.99
825.414	9
825.722	9.08
826.029	9.18
826.337	9.07
826.644	9.09
826.951	8.91
827.259	9.12
827.566	9.23
827.873	9.15
828.18	9.12
828.488	8.9
828.795	8.93
829.102	9.14
829.409	9.19
829.716	9.34
830.023	9.38
830.329	9.24
830.636	9.33
830.943	9.39
831.25	9.5
831.557	9.3
831.863	9.13
832.17	9.21
832.476	9.46
832.783	9.44
833.089	9.39
833.396	9.65
833.702	9.29
834.009	9.31
834.315	9.2
834.621	9.32
834.928	9.42
835.234	9.12
835.54	8.61
835.846	8.58
836.152	8.24
836.458	8.08
836.764	8.19
837.07	8.44
837.376	8.02
837.682	7.75
837.988	8.68
838.293	8.72
838.599	8.34
838.905	7.81
839.211	7.86
839.516	8.08
839.822	7.95
840.127	8.45
840.433	8.36
840.738	8.4
841.044	8.42
841.349	8.09
841.654	9.01
841.959	9.38
842.265	9.56
842.57	10.48
842.875	10.41
843.18	10.45
843.485	10.38
843.79	11.04
844.095	10.72
844.4	8.6
844.705	8.93
845.01	10.24
845.315	10.2
845.619	9.55
845.924	7.4
846.229	6.01
846.533	4.71
846.838	3.59
847.142	3.24
847.447	2.69
847.751	3.37
848.056	1.65
848.36	1.5
848.664	1.65
848.969	0.55
849.273	0.83
849.577	0.28
849.881	-0.56
850.185	-0.05
850.489	-0.26
850.794	1.94
851.097	2.67
851.401	-0.17
851.705	0.84
852.009	1.64
852.313	2.58
852.617	3.28
852.92	4.43
853.224	6.28
853.528	4.69
853.831	6.53
854.135	8.54
854.438	8.32
854.742	8.68
855.045	8.57
855.349	8.81
855.652	8.69
855.955	9.06
856.259	8.49
856.562	7.56
856.865	7.7
857.168	5.8
857.471	4.49
857.774	6.24
858.077	3.78
858.38	3.95
858.683	5.22
858.986	7.54
859.289	7.14
859.592	7.08
859.894	9.22
860.197	7.91
860.5	6.49
860.802	7.34
861.105	6.74
861.407	6.09
861.71	5.65
862.012	5.59
862.315	5.28
862.617	6.66
862.919	8.26
863.222	10.19
863.524	9.99
863.826	10.27
864.128	10.14
864.43	12.45
864.732	13.08
865.034	13.48
865.336	11.59
865.638	12.06
865.94	11.9
866.242	12.53
866.544	14.54
866.846	14.38
867.147	13.42
867.449	13.94
867.751	13.77
868.052	13.43
868.354	14.03
868.655	13.02
868.957	12.06
869.258	8.92
869.56	7.76
869.861	8.74
870.162	8.85
870.463	9.6
870.765	9.42
871.066	9.18
871.367	8.21
871.668	8.27
871.969	7.1
872.27	6.38
872.571	4.7
872.872	1.33
873.173	-0.1
873.473	-0.72
873.774	-2.24
874.075	-1.48
874.376	0.93
874.676	3.09
874.977	4.43
875.277	3.92
875.578	7.31
875.878	7.32
876.179	6.8
876.479	6.82
876.78	5.87
877.08	4.66
877.38	3.17
877.68	3.17
877.981	3.57
878.281	4.94
878.581	4.21
