Data from BU26849_Reflection_00005.txt Node
Date: Mon Nov 18 16:43:11 EST 2019
User: vgr7
Spectrometer: USB2G7710
Scans to average: 3
Trigger mode: 4
Integration Time (sec): 2.000000E-2
Electric dark correction enabled: true
Boxcar width: 10
XAxis mode: Wavelengths
Number of Pixels in Spectrum: 2048
>>>>>Begin Spectral Data<<<<<
177.721	-61.09
178.105	-28.84
178.488	-16.46
178.871	8.08
179.254	5.12
179.636	-26.01
180.019	-38.23
180.402	132.26
180.785	-92.04
181.168	-458.25
181.55	-226.18
181.933	27.38
182.316	7.53
182.698	-2.85
183.081	-9.17
183.463	-64.06
183.846	-109.31
184.228	-126.38
184.611	-151.76
184.993	-320.27
185.376	-368.7
185.758	-184.97
186.14	-110.2
186.522	-212.75
186.904	-105.05
187.287	-105.67
187.669	-738.71
188.051	2115.75
188.433	374.44
188.815	123.59
189.197	123.99
189.579	102.23
189.961	70.05
190.342	60.64
190.724	50.55
191.106	35.54
191.488	26.86
191.869	0.44
192.251	-26.29
192.633	-13.75
193.014	-26.16
193.396	-28.87
193.777	-36.25
194.159	-35.68
194.54	-41.03
194.922	-37.29
195.303	-55.67
195.684	-52.66
196.065	-39.51
196.447	-32.54
196.828	-35.6
197.209	-38.81
197.59	-57.43
197.971	-55.2
198.352	-35.24
198.733	-37.93
199.114	-23.85
199.495	-9.12
199.876	8.38
200.257	12.14
200.638	13.99
201.018	5.7
201.399	9.41
201.78	18.23
202.16	12.45
202.541	9.04
202.922	2.99
203.302	3.27
203.683	-6.2
204.063	-2.24
204.444	3.38
204.824	5.04
205.204	9.03
205.585	20.18
205.965	20
206.345	9.83
206.725	9.78
207.106	6.95
207.486	-10.52
207.866	-35.85
208.246	-42.02
208.626	-63.72
209.006	-42.57
209.386	-63.92
209.766	-52.55
210.145	-21.57
210.525	-23.81
210.905	-3.91
211.285	1.1
211.664	14.42
212.044	8.02
212.424	4.43
212.803	-8.24
213.183	-31.12
213.562	-35.9
213.942	-35.78
214.321	-28.81
214.701	-62.88
215.08	-62.13
215.459	-78.47
215.838	-43.76
216.218	-44.18
216.597	-34.84
216.976	-28.98
217.355	-14.8
217.734	-15.24
218.113	-16.05
218.492	-3.02
218.871	-15.48
219.25	-18.22
219.629	-21.43
220.008	-28.78
220.387	-28.85
220.766	-22.89
221.144	-18.98
221.523	-21.01
221.902	-17.72
222.28	-16.79
222.659	4.61
223.037	8.46
223.416	0.67
223.794	-0.33
224.173	-1.97
224.551	-2.27
224.929	-9.53
225.308	-4.76
225.686	-5.85
226.064	-6.94
226.442	-7.53
226.821	-0.51
227.199	4.16
227.577	1.71
227.955	1.05
228.333	4.54
228.711	3.94
229.089	6.68
229.467	3.84
229.845	1.14
230.222	-0.73
230.6	-4.2
230.978	-4.82
231.356	0.05
231.733	-1.13
232.111	2.43
232.488	5
232.866	6.39
233.243	2.94
233.621	1.52
233.998	3.1
234.376	3.48
234.753	1.38
235.13	1.58
235.508	3.49
235.885	4.01
236.262	2.8
236.639	3.68
237.016	3.9
237.393	6.03
237.77	6.47
238.147	7.63
238.524	8.37
238.901	8.88
239.278	8.09
239.655	8.79
240.032	7.8
240.409	6.54
240.785	5.87
241.162	5.93
241.539	6.13
241.915	5.94
242.292	5.66
242.668	5.84
243.045	5.6
243.421	5.27
243.798	5.05
244.174	4.97
244.551	4.98
244.927	4.63
245.303	4.63
245.679	5.02
246.056	4.96
246.432	4.74
246.808	4.42
247.184	4.34
247.56	4.24
247.936	4.24
248.312	4.4
248.688	4.79
249.064	4.95
249.44	4.95
249.815	5.05
250.191	5.11
250.567	5.24
250.943	5.22
251.318	5.18
251.694	5.31
252.069	5.27
252.445	5.34
252.82	5.44
253.196	5.17
253.571	4.85
253.947	4.95
254.322	5.21
254.697	5.15
255.073	5.01
255.448	4.66
255.823	4.92
256.198	5.07
256.573	5.02
256.948	5.02
257.323	5.03
257.698	4.79
258.073	4.72
258.448	4.49
258.823	4.46
259.198	4.46
259.573	4.57
259.948	4.43
260.322	4.35
260.697	4.42
261.072	4.29
261.446	4.3
261.821	4.2
262.195	4.31
262.57	4.41
262.944	4.57
263.319	4.54
263.693	4.25
264.067	4.19
264.442	4.03
264.816	3.97
265.19	3.92
265.564	3.94
265.938	3.72
266.313	3.7
266.687	3.68
267.061	3.89
267.435	3.63
267.809	3.99
268.183	4.03
268.556	3.94
268.93	4.16
269.304	4.26
269.678	4.3
270.051	4.2
270.425	4.31
270.799	4.37
271.172	4.53
271.546	4.54
271.919	4.51
272.293	4.54
272.666	4.45
273.04	4.4
273.413	4.35
273.787	4.54
274.16	4.68
274.533	4.77
274.906	4.65
275.279	4.73
275.653	4.57
276.026	4.57
276.399	4.64
276.772	4.7
277.145	4.35
277.518	4.33
277.891	4.28
278.263	4.24
278.636	4.07
279.009	4.14
279.382	4.4
279.755	4.41
280.127	4.51
280.5	4.55
280.872	4.73
281.245	4.79
281.617	4.74
281.99	4.68
282.362	4.61
282.735	4.53
283.107	4.68
283.479	4.78
283.852	4.82
284.224	4.81
284.596	4.79
284.968	5.07
285.34	5.09
285.713	5.03
286.085	4.98
286.457	5.02
286.829	5.02
287.201	4.93
287.572	4.89
287.944	4.79
288.316	4.75
288.688	4.71
289.06	4.67
289.431	4.75
289.803	4.78
290.175	4.79
290.546	4.88
290.918	4.73
291.289	4.65
291.661	4.73
292.032	4.79
292.403	4.76
292.775	4.74
293.146	4.68
293.517	4.67
293.889	4.79
294.26	4.79
294.631	4.67
295.002	4.69
295.373	4.75
295.744	4.82
296.115	4.71
296.486	4.62
296.857	4.67
297.228	4.65
297.599	4.63
297.97	4.66
298.34	4.77
298.711	4.82
299.082	4.83
299.452	4.66
299.823	4.72
300.194	4.75
300.564	4.9
300.935	4.94
301.305	4.96
301.676	4.92
302.046	5
302.416	5.21
302.787	4.94
303.157	4.82
303.527	4.65
303.897	4.96
304.267	5.08
304.637	5.08
305.008	5.12
305.378	5.09
305.748	5.03
306.117	4.76
306.487	4.92
306.857	4.9
307.227	5.05
307.597	4.85
307.967	4.84
308.336	4.76
308.706	4.8
309.076	4.87
309.445	4.71
309.815	4.62
310.184	4.42
310.554	4.64
310.923	4.6
311.293	4.72
311.662	4.62
312.031	4.58
312.401	4.53
312.77	4.57
313.139	4.54
313.508	4.59
313.877	4.72
314.246	4.55
314.616	4.49
314.985	4.35
315.353	4.3
315.722	4.27
316.091	4.14
316.46	3.9
316.829	3.87
317.198	4.08
317.567	4.11
317.935	4.06
318.304	4.04
318.672	4.14
319.041	4.13
319.41	4.13
319.778	4.08
320.147	4.13
320.515	3.91
320.883	3.94
321.252	3.97
321.62	3.9
321.988	3.93
322.357	4.02
322.725	4.06
323.093	4.15
323.461	4.3
323.829	4.2
324.197	4.35
324.565	4.42
324.933	4.28
325.301	4.22
325.669	4.34
326.037	4.27
326.405	4.35
326.772	4.28
327.14	4.34
327.508	4.33
327.875	4.25
328.243	4.41
328.61	4.43
328.978	4.31
329.346	4.38
329.713	4.2
330.08	4.17
330.448	4.15
330.815	4.01
331.182	3.83
331.55	3.9
331.917	4.02
332.284	4
332.651	4.04
333.018	4.14
333.385	4.17
333.752	4.38
334.119	4.39
334.486	4.49
334.853	4.47
335.22	4.45
335.587	4.54
335.954	4.36
336.32	4.36
336.687	4.46
337.054	4.45
337.42	4.57
337.787	4.63
338.153	4.66
338.52	4.79
338.886	4.79
339.253	4.83
339.619	4.74
339.986	4.78
340.352	4.86
340.718	4.7
341.084	4.62
341.451	4.59
341.817	4.58
342.183	4.53
342.549	4.51
342.915	4.67
343.281	4.61
343.647	4.65
344.013	4.61
344.379	4.59
344.745	4.62
345.11	4.63
345.476	4.63
345.842	4.51
346.208	4.51
346.573	4.55
346.939	4.59
347.304	4.56
347.67	4.53
348.035	4.49
348.401	4.53
348.766	4.56
349.132	4.54
349.497	4.48
349.862	4.53
350.228	4.47
350.593	4.36
350.958	4.43
351.323	4.46
351.688	4.56
352.053	4.58
352.418	4.52
352.783	4.57
353.148	4.55
353.513	4.61
353.878	4.57
354.243	4.63
354.608	4.63
354.972	4.67
355.337	4.68
355.702	4.6
356.066	4.65
356.431	4.64
356.795	4.71
357.16	4.68
357.524	4.58
357.889	4.58
358.253	4.55
358.618	4.54
358.982	4.57
359.346	4.46
359.71	4.44
360.075	4.43
360.439	4.41
360.803	4.35
361.167	4.38
361.531	4.43
361.895	4.38
362.259	4.34
362.623	4.33
362.987	4.27
363.351	4.27
363.714	4.21
364.078	4.15
364.442	4
364.806	4
365.169	4.04
365.533	4.05
365.896	4.1
366.26	4.13
366.623	4.08
366.987	4.13
367.35	4.15
367.714	4.17
368.077	4.08
368.44	4.19
368.803	4.13
369.167	4.14
369.53	4.09
369.893	4.15
370.256	4.11
370.619	4.14
370.982	4.14
371.345	4.16
371.708	4.23
372.071	4.25
372.434	4.23
372.797	4.22
373.159	4.2
373.522	4.21
373.885	4.22
374.247	4.24
374.61	4.14
374.973	4.1
375.335	4.13
375.698	4.21
376.06	4.19
376.423	4.21
376.785	4.22
377.147	4.27
377.51	4.22
377.872	4.26
378.234	4.18
378.596	4.24
378.958	4.28
379.321	4.3
379.683	4.35
380.045	4.37
380.407	4.4
380.769	4.45
381.13	4.39
381.492	4.31
381.854	4.3
382.216	4.37
382.578	4.37
382.939	4.32
383.301	4.29
383.663	4.22
384.024	4.24
384.386	4.24
384.747	4.24
385.109	4.22
385.47	4.19
385.832	4.26
386.193	4.25
386.554	4.2
386.916	4.15
387.277	4.14
387.638	4.14
387.999	4.09
388.36	4.02
388.721	4.01
389.082	4.02
389.443	4.01
389.804	4.02
390.165	3.97
390.526	3.97
390.887	3.95
391.248	3.96
391.609	3.97
391.969	3.94
392.33	3.95
392.691	3.93
393.051	3.93
393.412	3.94
393.772	3.87
394.133	3.89
394.493	3.89
394.854	3.87
395.214	3.87
395.574	3.89
395.935	3.92
396.295	3.95
396.655	3.95
397.015	3.92
397.376	3.92
397.736	3.98
398.096	4
398.456	4
398.816	4.01
399.176	3.96
399.535	3.97
399.895	3.94
400.255	3.96
400.615	3.99
400.975	3.95
401.334	3.98
401.694	3.94
402.054	3.94
402.413	3.95
402.773	3.91
403.132	3.87
403.492	3.87
403.851	3.84
404.211	3.85
404.57	3.85
404.929	3.85
405.288	3.81
405.648	3.82
406.007	3.83
406.366	3.84
406.725	3.91
407.084	3.92
407.443	3.91
407.802	3.91
408.161	3.9
408.52	3.91
408.879	3.91
409.238	3.96
409.596	3.96
409.955	3.97
410.314	3.98
410.673	4
411.031	4.01
411.39	4.01
411.748	4.02
412.107	4.05
412.465	4.05
412.824	4.07
413.182	4.06
413.54	4.06
413.899	4.07
414.257	4.02
414.615	4.02
414.974	4.02
415.332	4.02
415.69	4
416.048	4
416.406	3.99
416.764	3.97
417.122	3.98
417.48	3.96
417.838	3.96
418.195	3.97
418.553	3.94
418.911	3.94
419.269	3.94
419.626	3.93
419.984	3.92
420.342	3.91
420.699	3.91
421.057	3.89
421.414	3.87
421.772	3.86
422.129	3.86
422.486	3.86
422.844	3.84
423.201	3.84
423.558	3.83
423.915	3.82
424.273	3.82
424.63	3.81
424.987	3.81
425.344	3.83
425.701	3.82
426.058	3.82
426.415	3.81
426.772	3.79
427.128	3.79
427.485	3.78
427.842	3.76
428.199	3.76
428.555	3.77
428.912	3.79
429.269	3.81
429.625	3.8
429.982	3.81
430.338	3.83
430.695	3.81
431.051	3.81
431.407	3.82
431.764	3.83
432.12	3.82
432.476	3.8
432.832	3.79
433.189	3.79
433.545	3.8
433.901	3.81
434.257	3.79
434.613	3.81
434.969	3.81
435.325	3.83
435.681	3.83
436.036	3.84
436.392	3.82
436.748	3.82
437.104	3.83
437.459	3.81
437.815	3.81
438.171	3.82
438.526	3.83
438.882	3.84
439.237	3.83
439.593	3.85
439.948	3.85
440.304	3.86
440.659	3.86
441.014	3.87
441.369	3.87
441.725	3.88
442.08	3.87
442.435	3.88
442.79	3.88
443.145	3.86
443.5	3.86
443.855	3.85
444.21	3.84
444.565	3.82
444.92	3.84
445.275	3.82
445.629	3.82
445.984	3.84
446.339	3.82
446.693	3.83
447.048	3.8
447.403	3.82
447.757	3.8
448.112	3.79
448.466	3.78
448.82	3.78
449.175	3.8
449.529	3.79
449.883	3.77
450.238	3.76
450.592	3.77
450.946	3.76
451.3	3.76
451.654	3.76
452.008	3.78
452.362	3.79
452.716	3.8
453.07	3.81
453.424	3.8
453.778	3.8
454.132	3.78
454.486	3.79
454.839	3.78
455.193	3.79
455.547	3.81
455.9	3.84
456.254	3.83
456.607	3.81
456.961	3.81
457.314	3.81
457.668	3.83
458.021	3.83
458.375	3.84
458.728	3.84
459.081	3.86
459.434	3.84
459.787	3.83
460.141	3.84
460.494	3.84
460.847	3.83
461.2	3.83
461.553	3.83
461.906	3.84
462.259	3.87
462.611	3.87
462.964	3.87
463.317	3.85
463.67	3.87
464.022	3.87
464.375	3.88
464.728	3.9
465.08	3.91
465.433	3.92
465.785	3.91
466.138	3.93
466.49	3.93
466.843	3.95
467.195	3.95
467.547	3.96
467.899	3.94
468.252	3.95
468.604	3.96
468.956	3.98
469.308	3.96
469.66	3.94
470.012	3.94
470.364	3.95
470.716	3.94
471.068	3.93
471.42	3.94
471.772	3.96
472.123	3.99
472.475	3.97
472.827	3.97
473.178	4
473.53	4.01
473.882	4
474.233	4
474.585	4.01
474.936	4.02
475.288	4.04
475.639	4.05
475.99	4.07
476.342	4.05
476.693	4.08
477.044	4.09
477.395	4.11
477.746	4.08
478.097	4.09
478.448	4.09
478.8	4.09
479.15	4.06
479.501	4.03
479.852	4.04
480.203	4.03
480.554	4.03
480.905	4.02
481.255	4.02
481.606	4.03
481.957	4.02
482.307	4.02
482.658	4.01
483.009	4
483.359	4
483.709	4
484.06	4
484.41	4
484.761	4
485.111	4
485.461	4
485.811	3.99
486.162	4
486.512	4.01
486.862	4.02
487.212	4.01
487.562	4.01
487.912	4
488.262	4
488.612	3.99
488.961	3.99
489.311	4
489.661	4
490.011	4
490.36	4
490.71	4
491.06	4
491.409	4
491.759	4
492.108	4
492.458	4
492.807	3.99
493.157	4
493.506	3.99
493.855	4
494.204	3.99
494.554	3.99
494.903	3.99
495.252	4
495.601	4.01
495.95	4.02
496.299	4.01
496.648	3.99
496.997	4.01
497.346	4.03
497.695	4.04
498.043	4.04
498.392	4.04
498.741	4.04
499.09	4.03
499.438	4.04
499.787	4.06
500.135	4.08
500.484	4.07
500.832	4.07
501.181	4.06
501.529	4.07
501.878	4.08
502.226	4.11
502.574	4.14
502.923	4.14
503.271	4.13
503.619	4.15
503.967	4.18
504.315	4.17
504.663	4.17
505.011	4.18
505.359	4.21
505.707	4.23
506.055	4.24
506.403	4.26
506.751	4.27
507.098	4.27
507.446	4.28
507.794	4.28
508.141	4.3
508.489	4.32
508.837	4.34
509.184	4.34
509.531	4.34
509.879	4.35
510.226	4.37
510.574	4.38
510.921	4.38
511.268	4.39
511.616	4.39
511.963	4.41
512.31	4.41
512.657	4.41
513.004	4.42
513.351	4.43
513.698	4.45
514.045	4.48
514.392	4.47
514.739	4.48
515.086	4.5
515.432	4.51
515.779	4.51
516.126	4.52
516.473	4.53
516.819	4.54
517.166	4.54
517.512	4.53
517.859	4.54
518.205	4.54
518.552	4.54
518.898	4.55
519.245	4.54
519.591	4.54
519.937	4.53
520.283	4.53
520.629	4.53
520.976	4.51
521.322	4.52
521.668	4.53
522.014	4.54
522.36	4.53
522.706	4.55
523.052	4.57
523.398	4.58
523.743	4.58
524.089	4.58
524.435	4.59
524.781	4.6
525.126	4.6
525.472	4.6
525.817	4.59
526.163	4.59
526.509	4.59
526.854	4.61
527.199	4.62
527.545	4.62
527.89	4.63
528.235	4.65
528.581	4.64
528.926	4.65
529.271	4.64
529.616	4.65
529.961	4.63
530.306	4.63
530.651	4.62
530.996	4.63
531.341	4.64
531.686	4.63
532.031	4.64
532.376	4.65
532.721	4.65
533.065	4.66
533.41	4.65
533.755	4.64
534.099	4.64
534.444	4.64
534.788	4.66
535.133	4.65
535.477	4.64
535.822	4.63
536.166	4.62
536.51	4.63
536.855	4.63
537.199	4.63
537.543	4.64
537.887	4.64
538.231	4.64
538.576	4.63
538.92	4.64
539.264	4.63
539.608	4.62
539.951	4.61
540.295	4.61
540.639	4.64
540.983	4.65
541.327	4.64
541.671	4.63
542.014	4.61
542.358	4.61
542.701	4.63
543.045	4.66
543.389	4.67
543.732	4.68
544.075	4.68
544.419	4.69
544.762	4.7
545.105	4.7
545.449	4.72
545.792	4.71
546.135	4.72
546.478	4.72
546.821	4.74
547.165	4.74
547.508	4.77
547.851	4.75
548.194	4.75
548.536	4.75
548.879	4.76
549.222	4.78
549.565	4.79
549.908	4.77
550.25	4.75
550.593	4.74
550.936	4.69
551.278	4.71
551.621	4.7
551.963	4.74
552.306	4.73
552.648	4.71
552.991	4.73
553.333	4.73
553.675	4.75
554.017	4.73
554.36	4.75
554.702	4.75
555.044	4.76
555.386	4.76
555.728	4.82
556.07	4.85
556.412	4.82
556.754	4.79
557.096	4.8
557.438	4.78
557.78	4.82
558.121	4.88
558.463	4.87
558.805	4.88
559.147	4.84
559.488	4.86
559.83	4.83
560.171	4.83
560.513	4.81
560.854	4.82
561.196	4.87
561.537	4.85
561.878	4.84
562.22	4.84
562.561	4.85
562.902	4.82
563.243	4.8
563.584	4.84
563.925	4.87
564.266	4.87
564.607	4.86
564.948	4.86
565.289	4.86
565.63	4.85
565.971	4.84
566.312	4.86
566.653	4.87
566.993	4.89
567.334	4.9
567.675	4.91
568.015	4.91
568.356	4.86
568.696	4.86
569.037	4.87
569.377	4.89
569.718	4.89
570.058	4.9
570.398	4.91
570.739	4.92
571.079	4.94
571.419	4.95
571.759	4.95
572.099	4.92
572.439	4.93
572.779	4.92
573.119	4.93
573.459	4.91
573.799	4.91
574.139	4.9
574.479	4.88
574.819	4.88
575.158	4.87
575.498	4.9
575.838	4.94
576.177	4.93
576.517	4.93
576.856	4.93
577.196	4.91
577.535	4.93
577.875	4.91
578.214	4.88
578.553	4.9
578.893	4.9
579.232	4.91
579.571	4.92
579.91	4.9
580.25	4.87
580.589	4.86
580.928	4.85
581.267	4.86
581.606	4.89
581.945	4.88
582.283	4.91
582.622	4.88
582.961	4.85
583.3	4.87
583.639	4.89
583.977	4.88
584.316	4.88
584.654	4.85
584.993	4.86
585.332	4.85
585.67	4.84
586.008	4.87
586.347	4.85
586.685	4.85
587.024	4.86
587.362	4.89
587.7	4.92
588.038	4.97
588.376	4.98
588.715	4.99
589.053	5
589.391	4.99
589.729	5.04
590.067	5.02
590.404	4.98
590.742	4.98
591.08	4.99
591.418	5
591.756	4.99
592.093	4.99
592.431	5
592.769	4.96
593.106	4.92
593.444	4.96
593.781	4.97
594.119	5.01
594.456	5.01
594.793	5.02
595.131	4.97
595.468	4.97
595.805	4.99
596.143	4.96
596.48	4.96
596.817	4.95
597.154	4.95
597.491	4.98
597.828	4.98
598.165	4.99
598.502	5
598.839	5.04
599.176	5.07
599.512	5.06
599.849	5.11
600.186	5.15
600.523	5.15
600.859	5.16
601.196	5.15
601.532	5.14
601.869	5.1
602.205	5.09
602.542	5.09
602.878	5.05
603.215	5.07
603.551	5.07
603.887	5.07
604.223	5.09
604.56	5.11
604.896	5.11
605.232	5.09
605.568	5.1
605.904	5.07
606.24	5.07
606.576	5.08
606.912	5.04
607.248	5.02
607.583	5.03
607.919	5
608.255	4.97
608.591	5.03
608.926	5.04
609.262	5.09
609.597	5.08
609.933	5.11
610.268	5.11
610.604	5.09
610.939	5.09
611.275	5.08
611.61	5.04
611.945	5.06
612.281	5.06
612.616	5.05
612.951	5.05
613.286	5.06
613.621	5.08
613.956	5.14
614.291	5.15
614.626	5.16
614.961	5.18
615.296	5.22
615.631	5.2
615.966	5.26
616.3	5.24
616.635	5.28
616.97	5.26
617.304	5.27
617.639	5.29
617.973	5.29
618.308	5.32
618.642	5.33
618.977	5.3
619.311	5.31
619.646	5.33
619.98	5.34
620.314	5.34
620.648	5.35
620.983	5.34
621.317	5.33
621.651	5.29
621.985	5.31
622.319	5.29
622.653	5.31
622.987	5.32
623.321	5.27
623.655	5.28
623.988	5.28
624.322	5.27
624.656	5.33
624.99	5.37
625.323	5.34
625.657	5.36
625.99	5.38
626.324	5.35
626.657	5.35
626.991	5.34
627.324	5.31
627.658	5.32
627.991	5.34
628.324	5.39
628.657	5.43
628.991	5.42
629.324	5.45
629.657	5.41
629.99	5.41
630.323	5.45
630.656	5.46
630.989	5.47
631.322	5.47
631.655	5.41
631.987	5.37
632.32	5.36
632.653	5.35
632.986	5.35
633.318	5.34
633.651	5.34
633.984	5.39
634.316	5.36
634.649	5.34
634.981	5.32
635.313	5.31
635.646	5.27
635.978	5.29
636.31	5.23
636.643	5.2
636.975	5.19
637.307	5.17
637.639	5.18
637.971	5.17
638.303	5.21
638.635	5.24
638.967	5.19
639.299	5.23
639.631	5.23
639.963	5.15
640.295	5.18
640.626	5.24
640.958	5.29
641.29	5.35
641.621	5.43
641.953	5.41
642.285	5.4
642.616	5.47
642.948	5.44
643.279	5.47
643.61	5.56
643.942	5.6
644.273	5.59
644.604	5.52
644.936	5.54
645.267	5.53
645.598	5.47
645.929	5.53
646.26	5.52
646.591	5.52
646.922	5.57
647.253	5.58
647.584	5.52
647.915	5.39
648.245	5.36
648.576	5.25
648.907	5.25
649.238	5.24
649.568	5.18
649.899	5.2
650.229	5.27
650.56	5.3
650.89	5.29
651.221	5.31
651.551	5.35
651.882	5.36
652.212	5.44
652.542	5.45
652.872	5.45
653.203	5.47
653.533	5.53
653.863	5.54
654.193	5.53
654.523	5.53
654.853	5.59
655.183	5.6
655.513	5.59
655.843	5.63
656.172	5.65
656.502	5.71
656.832	5.68
657.162	5.66
657.491	5.63
657.821	5.58
658.15	5.56
658.48	5.63
658.809	5.62
659.139	5.59
659.468	5.59
659.798	5.59
660.127	5.59
660.456	5.57
660.785	5.56
661.115	5.57
661.444	5.55
661.773	5.58
662.102	5.64
662.431	5.75
662.76	5.68
663.089	5.69
663.418	5.62
663.747	5.65
664.076	5.66
664.404	5.64
664.733	5.7
665.062	5.78
665.39	5.72
665.719	5.68
666.048	5.7
666.376	5.75
666.705	5.72
667.033	5.76
667.362	5.76
667.69	5.86
668.018	5.92
668.347	5.98
668.675	5.97
669.003	5.98
669.331	5.93
669.659	6
669.987	5.99
670.315	5.98
670.643	6.04
670.971	6
671.299	6.02
671.627	5.99
671.955	6
672.283	6
672.61	6.04
672.938	6
673.266	6
673.593	6.12
673.921	6.12
674.249	6.1
674.576	5.96
674.904	6.03
675.231	5.9
675.558	5.86
675.886	5.82
676.213	5.84
676.54	5.79
676.867	5.8
677.195	5.82
677.522	5.72
677.849	5.81
678.176	5.86
678.503	5.81
678.83	5.7
679.157	5.63
679.484	5.65
679.81	5.64
680.137	5.58
680.464	5.5
680.791	5.46
681.117	5.5
681.444	5.55
681.771	5.44
682.097	5.58
682.424	5.65
682.75	5.7
683.077	5.69
683.403	5.8
683.729	5.77
684.056	5.87
684.382	5.95
684.708	5.85
685.034	5.76
685.36	5.8
685.686	5.85
686.012	5.89
686.339	5.94
686.664	6.03
686.99	6.13
687.316	6.24
687.642	6.32
687.968	6.27
688.294	6.37
688.619	6.39
688.945	6.32
689.271	6.28
689.596	6.2
689.922	6.24
690.247	6.21
690.573	6.31
690.898	6.17
691.224	6.18
691.549	6.34
691.874	6.37
692.2	6.44
692.525	6.53
692.85	6.59
693.175	6.54
693.5	6.43
693.825	6.4
694.15	6.32
694.475	6.24
694.8	6.25
695.125	6.17
695.45	6.22
695.775	6.24
696.099	6.3
696.424	6.26
696.749	6.27
697.073	6.18
697.398	6.13
697.723	6.2
698.047	6.13
698.372	6.11
698.696	6.18
699.02	6.1
699.345	6.08
699.669	6.12
699.993	6.05
700.318	6.1
700.642	6.14
700.966	6.11
701.29	6.16
701.614	6.21
701.938	6.32
702.262	6.46
702.586	6.51
702.91	6.44
703.234	6.58
703.557	6.67
703.881	6.77
704.205	6.72
704.529	6.65
704.852	6.7
705.176	6.58
705.499	6.51
705.823	6.57
706.146	6.64
706.47	6.75
706.793	6.9
707.117	7.05
707.44	6.97
707.763	7.04
708.086	6.98
708.409	7
708.733	6.94
709.056	6.78
709.379	6.83
709.702	6.83
710.025	6.67
710.348	6.58
710.671	6.5
710.993	6.65
711.316	6.8
711.639	6.84
711.962	7.08
712.284	7.21
712.607	7.21
712.93	7.25
713.252	7.16
713.575	7.16
713.897	7.07
714.22	7.13
714.542	7.14
714.864	7.24
715.187	7.22
715.509	7.12
715.831	7.14
716.153	7.1
716.475	7.13
716.798	7.27
717.12	7.39
717.442	7.54
717.764	7.43
718.085	7.39
718.407	7.38
718.729	7.27
719.051	7.21
719.373	7.18
719.695	7.1
720.016	7.15
720.338	7.09
720.659	7.02
720.981	6.96
721.302	7.01
721.624	6.94
721.945	6.96
722.267	7.24
722.588	7.16
722.909	7.1
723.231	6.96
723.552	6.81
723.873	6.89
724.194	6.95
724.515	7.03
724.836	7.07
725.157	7.12
725.478	7.08
725.799	7.07
726.12	7.03
726.441	7.1
726.762	7.14
727.083	7.13
727.403	7.4
727.724	7.42
728.045	7.49
728.365	7.52
728.686	7.49
729.006	7.48
729.327	7.6
729.647	7.82
729.967	8.02
730.288	8.22
730.608	7.91
730.928	7.81
731.249	7.78
731.569	7.85
731.889	7.88
732.209	7.96
732.529	7.99
732.849	8.04
733.169	7.99
733.489	8
733.809	8.18
734.129	8.12
734.448	8.18
734.768	8.12
735.088	8.15
735.408	8.12
735.727	8.05
736.047	8.07
736.366	7.88
736.686	8
737.005	7.98
737.325	8.23
737.644	8.22
737.963	8.31
738.283	8.25
738.602	8.43
738.921	8.39
739.24	8.56
739.56	8.56
739.879	8.5
740.198	8.44
740.517	8.45
740.836	8.45
741.155	8.39
741.473	8.64
741.792	8.79
742.111	8.99
742.43	8.98
742.748	9.04
743.067	9.07
743.386	9.06
743.704	9.22
744.023	9.23
744.341	9.39
744.66	9.46
744.978	9.32
745.297	8.91
745.615	8.86
745.933	8.78
746.252	9.08
746.57	9.26
746.888	9.3
747.206	9.16
747.524	9.04
747.842	9.22
748.16	9.18
748.478	9.16
748.796	8.95
749.114	9.08
749.432	8.98
749.749	9.09
750.067	8.96
750.385	8.8
750.703	8.88
751.02	8.85
751.338	8.71
751.655	8.72
751.973	9.08
752.29	9.36
752.608	9.01
752.925	8.78
753.242	8.63
753.56	8.59
753.877	8.5
754.194	8.47
754.511	8.33
754.828	7.69
755.145	7.63
755.462	7.9
755.779	7.9
756.096	7.82
756.413	7.92
756.73	7.74
757.047	7.88
757.364	7.76
757.68	7.68
757.997	7.72
758.314	7.94
758.63	7.87
758.947	7.77
759.264	7.9
759.58	7.97
759.896	8.15
760.213	8.19
760.529	8.17
760.846	8.28
761.162	8.51
761.478	8.93
761.794	8.73
762.11	8.68
762.426	8.8
762.743	9.05
763.059	9.06
763.375	9.19
763.69	9.28
764.006	9.33
764.322	9.41
764.638	9.48
764.954	9.63
765.27	9.6
765.585	9.47
765.901	9.6
766.216	9.77
766.532	9.71
766.848	9.77
767.163	10.07
767.478	10.12
767.794	10.12
768.109	10.25
768.424	10.54
768.74	10.66
769.055	10.57
769.37	10.44
769.685	10.61
770	10.78
770.315	10.61
770.63	10.52
770.945	10.36
771.26	10.34
771.575	10.26
771.89	10.41
772.205	10.41
772.52	10.43
772.834	10.12
773.149	9.99
773.464	10.22
773.778	10.28
774.093	10.13
774.407	9.96
774.722	9.77
775.036	9.69
775.351	9.66
775.665	9.67
775.979	9.73
776.293	9.51
776.608	9.57
776.922	9.6
777.236	9.73
777.55	10.11
777.864	10.49
778.178	10.55
778.492	10.79
778.806	11.16
779.12	11.43
779.434	11.81
779.747	12.36
780.061	11.93
780.375	11.35
780.689	11.41
781.002	11.5
781.316	11.63
781.629	11.93
781.943	12.29
782.256	12.17
782.57	11.97
782.883	12.1
783.196	11.56
783.51	11.28
783.823	11.37
784.136	11.31
784.449	10.82
784.762	10.74
785.075	10.68
785.388	10.19
785.701	9.82
786.014	9.87
786.327	9.78
786.64	10.31
786.953	10.92
787.266	10.65
787.578	10.55
787.891	10.55
788.204	10.05
788.516	9.68
788.829	9.65
789.141	10.29
789.454	10.13
789.766	10.47
790.079	10.63
790.391	10.65
790.703	10.68
791.016	10.87
791.328	11.06
791.64	11.19
791.952	11.89
792.264	12.43
792.576	12.27
792.888	12.3
793.2	12.13
793.512	11.87
793.824	12.47
794.136	12.33
794.448	12.26
794.76	12.35
795.071	12.76
795.383	12.76
795.695	12.07
796.006	12.26
796.318	12.52
796.629	12.65
796.941	12.57
797.252	12.82
797.564	13.07
797.875	12.78
798.186	12.46
798.497	12.09
798.809	11.7
799.12	11.98
799.431	11.91
799.742	11.95
800.053	11.98
800.364	11.62
800.675	12.15
800.986	12.13
801.297	12.07
801.608	11.75
801.918	11.99
802.229	12.27
802.54	11.83
802.851	11.42
803.161	11.44
803.472	11.54
803.782	10.88
804.093	10.58
804.403	10.49
804.714	10.87
805.024	10.92
805.334	10.62
805.645	9.75
805.955	9.88
806.265	10.03
806.575	10.16
806.885	10.04
807.195	10.17
807.505	10.11
807.815	10.22
808.125	9.69
808.435	9.57
808.745	9.38
809.055	9.82
809.365	10.73
809.674	10.47
809.984	10.65
810.294	10.81
810.603	11.22
810.913	12.32
811.222	11.79
811.532	11.84
811.841	12.77
812.151	13.44
812.46	13.18
812.769	12.8
813.079	12.97
813.388	13.62
813.697	13.83
814.006	13.96
814.315	14.55
814.624	15.16
814.933	15.6
815.242	15.76
815.551	15.76
815.86	15.49
816.169	15.61
816.478	15.24
816.786	15.2
817.095	15.23
817.404	14.93
817.712	15.06
818.021	14.74
818.33	14.26
818.638	14.41
818.947	14.34
819.255	13.98
819.563	13.66
819.872	13.6
820.18	13.35
820.488	13.55
820.796	13.37
821.105	13.2
821.413	12.93
821.721	12.63
822.029	12.64
822.337	12.53
822.645	12.52
822.953	12.39
823.26	12.29
823.568	12.14
823.876	12.01
824.184	11.91
824.491	12.04
824.799	12.04
825.107	12.02
825.414	11.99
825.722	12.1
826.029	11.98
826.337	11.9
826.644	11.83
826.951	11.68
827.259	11.51
827.566	11.44
827.873	11.47
828.18	11.65
828.488	11.65
828.795	11.53
829.102	11.75
829.409	11.99
829.716	12.04
830.023	12.03
830.329	11.93
830.636	12.49
830.943	12.38
831.25	12.5
831.557	12.51
831.863	12.73
832.17	12.49
832.476	12.79
832.783	13.01
833.089	13.2
833.396	13.51
833.702	13.99
834.009	13.79
834.315	13.61
834.621	13.65
834.928	13.47
835.234	13.48
835.54	13.07
835.846	12.69
836.152	13.28
836.458	13.36
836.764	13.22
837.07	12.61
837.376	12.29
837.682	12.37
837.988	12.14
838.293	11.87
838.599	12.11
838.905	12.27
839.211	12.35
839.516	12.39
839.822	12.41
840.127	11.85
840.433	12.51
840.738	12.75
841.044	13.12
841.349	13
841.654	13.67
841.959	13.49
842.265	15.07
842.57	15.72
842.875	16.22
843.18	17.71
843.485	18.63
843.79	18.56
844.095	17.16
844.4	17.96
844.705	17.89
845.01	18.79
845.315	19.03
845.619	17.6
845.924	18.25
846.229	17.91
846.533	18.51
846.838	18.95
847.142	18.78
847.447	17.86
847.751	19.71
848.056	19.27
848.36	20.4
848.664	20.18
848.969	18.88
849.273	17.72
849.577	15.5
849.881	14.25
850.185	15.69
850.489	17.64
850.794	17.93
851.097	18.74
851.401	18.51
851.705	18.23
852.009	19.57
852.313	19.55
852.617	18.55
852.92	20
853.224	19.88
853.528	21.36
853.831	22.32
854.135	20.25
854.438	21.37
854.742	22.31
855.045	21.47
855.349	20.69
855.652	20.43
855.955	22.37
856.259	23.95
856.562	23.96
856.865	22.69
857.168	20.47
857.471	19.69
857.774	20.8
858.077	21.05
858.38	21.22
858.683	19.73
858.986	21.63
859.289	21.25
859.592	21.94
859.894	22.71
860.197	20.7
860.5	20.48
860.802	18.64
861.105	19.2
861.407	19.04
861.71	17.74
862.012	19.49
862.315	18.83
862.617	17.39
862.919	16.08
863.222	16.11
863.524	17.32
863.826	19.65
864.128	16.67
864.43	16.85
864.732	17.64
865.034	17.73
865.336	17.44
865.638	16.04
865.94	13.58
866.242	12.55
866.544	16.04
866.846	18.84
867.147	19.57
867.449	15.62
867.751	17.35
868.052	18.26
868.354	16.6
868.655	17.27
868.957	15.92
869.258	16.96
869.56	18.08
869.861	15.78
870.162	15.18
870.463	18
870.765	17.26
871.066	15.14
871.367	15.85
871.668	16.06
871.969	16.88
872.27	17.55
872.571	16.26
872.872	14.23
873.173	12.41
873.473	10.52
873.774	13.24
874.075	11.03
874.376	10.96
874.676	12.47
874.977	10.73
875.277	13.6
875.578	13.27
875.878	12.35
876.179	14.36
876.479	12.77
876.78	10.63
877.08	10.67
877.38	11.9
877.68	10.61
877.981	8.72
878.281	7.53
878.581	8.65
