Data from BU26851_Reflection_00008.txt Node
Date: Mon Nov 18 16:48:20 EST 2019
User: vgr7
Spectrometer: USB2G7710
Scans to average: 3
Trigger mode: 4
Integration Time (sec): 2.000000E-2
Electric dark correction enabled: true
Boxcar width: 10
XAxis mode: Wavelengths
Number of Pixels in Spectrum: 2048
>>>>>Begin Spectral Data<<<<<
177.721	-765.53
178.105	1208.11
178.488	-3368.35
178.871	500.83
179.254	-1154.24
179.636	217.87
180.019	-3086.44
180.402	47.22
180.785	2.4
181.168	68.28
181.55	295.8
181.933	136.36
182.316	146.23
182.698	88.88
183.081	96.85
183.463	-559.79
183.846	-353.67
184.228	-2351.61
184.611	396.77
184.993	66.1
185.376	-79.52
185.758	-86.55
186.14	-8.79
186.522	35.69
186.904	146.51
187.287	205.26
187.669	-349.7
188.051	533.5
188.433	-1103.01
188.815	-98.02
189.197	-63.18
189.579	-19.8
189.961	1.84
190.342	-13.49
190.724	-3.73
191.106	-26.66
191.488	-207.69
191.869	-76.99
192.251	-38.41
192.633	5918.18
193.014	-1159.84
193.396	-225.96
193.777	-619.03
194.159	-910.17
194.54	-513.58
194.922	-4512.24
195.303	-439.18
195.684	-551.93
196.065	-167.1
196.447	-257.83
196.828	-359.83
197.209	-982.87
197.59	7065.52
197.971	1983.87
198.352	-636.16
198.733	-465.87
199.114	-360.08
199.495	-216.95
199.876	-187.24
200.257	-174.98
200.638	-109.32
201.018	-98.05
201.399	-143.26
201.78	-61.74
202.16	-68.36
202.541	-75.25
202.922	-106.65
203.302	-196
203.683	-184.87
204.063	-248.02
204.444	-332.43
204.824	-518.99
205.204	-280.71
205.585	-250.92
205.965	-228.36
206.345	-568.29
206.725	-1124.1
207.106	-2692.9
207.486	2632.02
207.866	1702.79
208.246	729.58
208.626	651.99
209.006	3377.42
209.386	3170.27
209.766	11722.64
210.145	1412.65
210.525	4323.78
210.905	-1456.79
211.285	-852.21
211.664	-583.35
212.044	-282.09
212.424	-194.73
212.803	-167.12
213.183	-138.56
213.562	-138.45
213.942	-75.17
214.321	-69.48
214.701	-55.8
215.08	-56.22
215.459	-32.52
215.838	-38.14
216.218	-29.25
216.597	-14.23
216.976	4.71
217.355	33.76
217.734	31.79
218.113	20.31
218.492	14.58
218.871	1.83
219.25	3.22
219.629	8.3
220.008	-8.01
220.387	-21.29
220.766	-20.86
221.144	-32.28
221.523	-42.73
221.902	-84.37
222.28	-84.84
222.659	-92.53
223.037	-76.12
223.416	-81.42
223.794	-67.86
224.173	-60.73
224.551	-53.52
224.929	-62.78
225.308	-53.3
225.686	-48.61
226.064	-39.44
226.442	-39.69
226.821	-33.17
227.199	-30.05
227.577	-28.74
227.955	-23.54
228.333	-17.6
228.711	-18.74
229.089	-7.13
229.467	-5.92
229.845	-3.71
230.222	-2.8
230.6	-1.06
230.978	-1.49
231.356	1.79
231.733	2.81
232.111	4.17
232.488	5.48
232.866	4.19
233.243	2.61
233.621	2.67
233.998	2.2
234.376	2.34
234.753	2.8
235.13	3.46
235.508	3.94
235.885	3.27
236.262	2.66
236.639	2.96
237.016	1.07
237.393	1.07
237.77	1.78
238.147	2.47
238.524	2.54
238.901	4.3
239.278	4.62
239.655	4.87
240.032	4.1
240.409	3.55
240.785	3.99
241.162	4.44
241.539	4.77
241.915	4.6
242.292	4.32
242.668	4.13
243.045	3.74
243.421	3.54
243.798	3.44
244.174	3.46
244.551	3.42
244.927	3.3
245.303	3.35
245.679	3.28
246.056	3.09
246.432	3.04
246.808	2.87
247.184	2.58
247.56	2.28
247.936	2.52
248.312	2.48
248.688	2.58
249.064	2.41
249.44	2.43
249.815	2.52
250.191	2.87
250.567	2.79
250.943	2.71
251.318	2.49
251.694	2.68
252.069	2.65
252.445	2.63
252.82	2.56
253.196	2.57
253.571	2.55
253.947	2.64
254.322	2.69
254.697	2.47
255.073	2.29
255.448	2.19
255.823	2.13
256.198	2.21
256.573	2.24
256.948	2.43
257.323	2.37
257.698	2.31
258.073	2.22
258.448	2.16
258.823	2.28
259.198	2.24
259.573	2.22
259.948	2.19
260.322	2.28
260.697	2.43
261.072	2.4
261.446	2.44
261.821	2.43
262.195	2.42
262.57	2.44
262.944	2.48
263.319	2.68
263.693	2.65
264.067	2.73
264.442	2.63
264.816	2.53
265.19	2.4
265.564	2.57
265.938	2.44
266.313	2.47
266.687	2.43
267.061	2.69
267.435	2.69
267.809	2.76
268.183	2.71
268.556	2.47
268.93	2.5
269.304	2.6
269.678	2.81
270.051	2.74
270.425	2.64
270.799	2.55
271.172	2.5
271.546	2.5
271.919	2.31
272.293	2.29
272.666	2.39
273.04	2.48
273.413	2.33
273.787	2.34
274.16	2.39
274.533	2.46
274.906	2.27
275.279	2.19
275.653	2.15
276.026	2.05
276.399	2.15
276.772	2.23
277.145	2.02
277.518	1.75
277.891	1.84
278.263	1.81
278.636	1.86
279.009	1.88
279.382	2.06
279.755	2.04
280.127	2.21
280.5	2.21
280.872	2.2
281.245	2.26
281.617	2.46
281.99	2.67
282.362	2.78
282.735	2.83
283.107	2.92
283.479	3
283.852	3.03
284.224	2.94
284.596	2.86
284.968	2.89
285.34	3.04
285.713	2.98
286.085	3.12
286.457	3.16
286.829	3.23
287.201	3.12
287.572	3.07
287.944	3.01
288.316	2.93
288.688	2.96
289.06	3.01
289.431	2.87
289.803	2.87
290.175	2.8
290.546	2.95
290.918	2.98
291.289	3.01
291.661	3.06
292.032	3.23
292.403	3.23
292.775	3.47
293.146	3.37
293.517	3.34
293.889	3.26
294.26	3.3
294.631	3.27
295.002	3.26
295.373	3.36
295.744	3.28
296.115	3.34
296.486	3.28
296.857	3.25
297.228	3.36
297.599	3.27
297.97	3.27
298.34	3.29
298.711	3.34
299.082	3.2
299.452	3.28
299.823	3.47
300.194	3.5
300.564	3.37
300.935	3.43
301.305	3.57
301.676	3.63
302.046	3.67
302.416	3.71
302.787	3.74
303.157	3.78
303.527	3.87
303.897	4.05
304.267	4.13
304.637	4.2
305.008	4.22
305.378	4.28
305.748	4.46
306.117	4.52
306.487	4.43
306.857	4.65
307.227	4.72
307.597	4.57
307.967	4.63
308.336	4.59
308.706	4.66
309.076	4.64
309.445	4.64
309.815	4.68
310.184	4.57
310.554	4.71
310.923	4.83
311.293	4.93
311.662	4.93
312.031	5
312.401	4.99
312.77	5.05
313.139	5.1
313.508	5.05
313.877	4.93
314.246	5.12
314.616	5.13
314.985	5.03
315.353	4.97
315.722	5
316.091	5.07
316.46	5.1
316.829	5.15
317.198	5.41
317.567	5.43
317.935	5.57
318.304	5.65
318.672	5.68
319.041	5.73
319.41	5.74
319.778	5.85
320.147	5.92
320.515	5.97
320.883	5.94
321.252	6.13
321.62	6.33
321.988	6.16
322.357	6.11
322.725	6.22
323.093	6.26
323.461	6.39
323.829	6.49
324.197	6.48
324.565	6.47
324.933	6.32
325.301	6.28
325.669	6.39
326.037	6.29
326.405	6.23
326.772	6.3
327.14	6.33
327.508	6.28
327.875	6.39
328.243	6.52
328.61	6.62
328.978	6.49
329.346	6.46
329.713	6.57
330.08	6.75
330.448	6.76
330.815	6.74
331.182	6.68
331.55	6.58
331.917	6.82
332.284	7.02
332.651	7.03
333.018	7.21
333.385	7.24
333.752	7.35
334.119	7.49
334.486	7.44
334.853	7.37
335.22	7.42
335.587	7.36
335.954	7.16
336.32	7.11
336.687	7.13
337.054	7.13
337.42	7.19
337.787	7.16
338.153	7.15
338.52	7.27
338.886	7.24
339.253	7.21
339.619	7.09
339.986	7
340.352	7.07
340.718	7.05
341.084	6.93
341.451	6.98
341.817	7
342.183	6.98
342.549	7.09
342.915	7.13
343.281	7.16
343.647	7.23
344.013	7.33
344.379	7.37
344.745	7.36
345.11	7.29
345.476	7.27
345.842	7.37
346.208	7.33
346.573	7.37
346.939	7.57
347.304	7.58
347.67	7.56
348.035	7.69
348.401	7.74
348.766	7.91
349.132	7.88
349.497	7.84
349.862	7.92
350.228	7.88
350.593	7.85
350.958	7.91
351.323	7.98
351.688	7.97
352.053	7.91
352.418	7.98
352.783	8.08
353.148	8.01
353.513	8.01
353.878	8
354.243	8.02
354.608	7.97
354.972	7.97
355.337	8.04
355.702	7.99
356.066	7.98
356.431	7.9
356.795	7.87
357.16	7.86
357.524	7.78
357.889	7.77
358.253	7.83
358.618	7.75
358.982	7.67
359.346	7.58
359.71	7.62
360.075	7.57
360.439	7.56
360.803	7.55
361.167	7.48
361.531	7.52
361.895	7.49
362.259	7.5
362.623	7.5
362.987	7.45
363.351	7.43
363.714	7.36
364.078	7.33
364.442	7.31
364.806	7.29
365.169	7.29
365.533	7.25
365.896	7.19
366.26	7.17
366.623	7.13
366.987	7.1
367.35	7.06
367.714	7.09
368.077	7.01
368.44	7.02
368.803	7.03
369.167	6.93
369.53	6.85
369.893	6.85
370.256	6.8
370.619	6.79
370.982	6.72
371.345	6.69
371.708	6.66
372.071	6.58
372.434	6.55
372.797	6.51
373.159	6.44
373.522	6.37
373.885	6.26
374.247	6.25
374.61	6.3
374.973	6.22
375.335	6.17
375.698	6.09
376.06	6.03
376.423	5.93
376.785	5.98
377.147	5.99
377.51	5.88
377.872	5.87
378.234	5.83
378.596	5.78
378.958	5.8
379.321	5.72
379.683	5.71
380.045	5.68
380.407	5.62
380.769	5.61
381.13	5.56
381.492	5.63
381.854	5.64
382.216	5.54
382.578	5.5
382.939	5.38
383.301	5.38
383.663	5.34
384.024	5.38
384.386	5.36
384.747	5.36
385.109	5.3
385.47	5.26
385.832	5.2
386.193	5.18
386.554	5.07
386.916	5.05
387.277	5.08
387.638	5.06
387.999	5.06
388.36	5.03
388.721	5.01
389.082	4.94
389.443	4.83
389.804	4.84
390.165	4.82
390.526	4.86
390.887	4.85
391.248	4.85
391.609	4.8
391.969	4.74
392.33	4.69
392.691	4.68
393.051	4.62
393.412	4.61
393.772	4.59
394.133	4.61
394.493	4.61
394.854	4.51
395.214	4.46
395.574	4.41
395.935	4.38
396.295	4.38
396.655	4.35
397.015	4.36
397.376	4.27
397.736	4.27
398.096	4.25
398.456	4.19
398.816	4.17
399.176	4.12
399.535	4.07
399.895	4.04
400.255	4.02
400.615	4.01
400.975	3.94
401.334	3.9
401.694	3.86
402.054	3.81
402.413	3.8
402.773	3.76
403.132	3.71
403.492	3.69
403.851	3.62
404.211	3.63
404.57	3.58
404.929	3.6
405.288	3.55
405.648	3.5
406.007	3.46
406.366	3.44
406.725	3.45
407.084	3.45
407.443	3.44
407.802	3.47
408.161	3.44
408.52	3.43
408.879	3.42
409.238	3.42
409.596	3.42
409.955	3.41
410.314	3.41
410.673	3.41
411.031	3.38
411.39	3.41
411.748	3.38
412.107	3.42
412.465	3.37
412.824	3.37
413.182	3.39
413.54	3.44
413.899	3.43
414.257	3.39
414.615	3.37
414.974	3.36
415.332	3.32
415.69	3.33
416.048	3.3
416.406	3.28
416.764	3.25
417.122	3.25
417.48	3.23
417.838	3.24
418.195	3.22
418.553	3.23
418.911	3.21
419.269	3.22
419.626	3.19
419.984	3.17
420.342	3.17
420.699	3.13
421.057	3.11
421.414	3.09
421.772	3.07
422.129	3.05
422.486	3.04
422.844	3.02
423.201	3
423.558	3
423.915	2.99
424.273	2.99
424.63	2.97
424.987	2.96
425.344	2.93
425.701	2.92
426.058	2.91
426.415	2.9
426.772	2.87
427.128	2.86
427.485	2.87
427.842	2.86
428.199	2.87
428.555	2.87
428.912	2.86
429.269	2.85
429.625	2.85
429.982	2.83
430.338	2.83
430.695	2.84
431.051	2.83
431.407	2.83
431.764	2.82
432.12	2.83
432.476	2.83
432.832	2.85
433.189	2.84
433.545	2.84
433.901	2.83
434.257	2.84
434.613	2.86
434.969	2.84
435.325	2.83
435.681	2.83
436.036	2.82
436.392	2.81
436.748	2.81
437.104	2.81
437.459	2.8
437.815	2.81
438.171	2.78
438.526	2.8
438.882	2.81
439.237	2.82
439.593	2.81
439.948	2.83
440.304	2.82
440.659	2.83
441.014	2.82
441.369	2.82
441.725	2.81
442.08	2.81
442.435	2.81
442.79	2.81
443.145	2.8
443.5	2.79
443.855	2.79
444.21	2.8
444.565	2.8
444.92	2.81
445.275	2.79
445.629	2.79
445.984	2.79
446.339	2.76
446.693	2.74
447.048	2.73
447.403	2.71
447.757	2.7
448.112	2.69
448.466	2.68
448.82	2.68
449.175	2.68
449.529	2.67
449.883	2.66
450.238	2.66
450.592	2.66
450.946	2.65
451.3	2.63
451.654	2.61
452.008	2.61
452.362	2.59
452.716	2.6
453.07	2.59
453.424	2.58
453.778	2.6
454.132	2.59
454.486	2.57
454.839	2.58
455.193	2.57
455.547	2.56
455.9	2.56
456.254	2.55
456.607	2.55
456.961	2.56
457.314	2.55
457.668	2.56
458.021	2.54
458.375	2.55
458.728	2.57
459.081	2.57
459.434	2.55
459.787	2.58
460.141	2.57
460.494	2.61
460.847	2.6
461.2	2.58
461.553	2.6
461.906	2.61
462.259	2.62
462.611	2.63
462.964	2.65
463.317	2.67
463.67	2.69
464.022	2.69
464.375	2.68
464.728	2.7
465.08	2.7
465.433	2.72
465.785	2.74
466.138	2.73
466.49	2.77
466.843	2.78
467.195	2.78
467.547	2.8
467.899	2.78
468.252	2.79
468.604	2.8
468.956	2.82
469.308	2.81
469.66	2.81
470.012	2.84
470.364	2.83
470.716	2.83
471.068	2.83
471.42	2.84
471.772	2.86
472.123	2.87
472.475	2.88
472.827	2.9
473.178	2.9
473.53	2.91
473.882	2.9
474.233	2.91
474.585	2.89
474.936	2.87
475.288	2.86
475.639	2.88
475.99	2.89
476.342	2.89
476.693	2.92
477.044	2.94
477.395	2.92
477.746	2.92
478.097	2.91
478.448	2.9
478.8	2.9
479.15	2.88
479.501	2.89
479.852	2.86
480.203	2.86
480.554	2.85
480.905	2.86
481.255	2.87
481.606	2.87
481.957	2.88
482.307	2.89
482.658	2.91
483.009	2.89
483.359	2.89
483.709	2.89
484.06	2.88
484.41	2.88
484.761	2.89
485.111	2.9
485.461	2.91
485.811	2.91
486.162	2.9
486.512	2.91
486.862	2.91
487.212	2.92
487.562	2.93
487.912	2.93
488.262	2.92
488.612	2.93
488.961	2.93
489.311	2.94
489.661	2.94
490.011	2.94
490.36	2.94
490.71	2.95
491.06	2.96
491.409	2.96
491.759	2.96
492.108	2.96
492.458	2.95
492.807	2.94
493.157	2.96
493.506	2.98
493.855	2.99
494.204	2.99
494.554	3.02
494.903	3.03
495.252	3.05
495.601	3.08
495.95	3.09
496.299	3.09
496.648	3.12
496.997	3.13
497.346	3.15
497.695	3.2
498.043	3.21
498.392	3.24
498.741	3.27
499.09	3.3
499.438	3.32
499.787	3.36
500.135	3.4
500.484	3.4
500.832	3.44
501.181	3.46
501.529	3.47
501.878	3.51
502.226	3.52
502.574	3.57
502.923	3.62
503.271	3.68
503.619	3.74
503.967	3.78
504.315	3.83
504.663	3.93
505.011	3.96
505.359	4.01
505.707	4.06
506.055	4.11
506.403	4.16
506.751	4.22
507.098	4.29
507.446	4.36
507.794	4.41
508.141	4.46
508.489	4.56
508.837	4.66
509.184	4.72
509.531	4.8
509.879	4.86
510.226	4.94
510.574	5
510.921	5.05
511.268	5.12
511.616	5.19
511.963	5.24
512.31	5.33
512.657	5.43
513.004	5.52
513.351	5.62
513.698	5.71
514.045	5.85
514.392	5.96
514.739	6.06
515.086	6.2
515.432	6.32
515.779	6.43
516.126	6.54
516.473	6.65
516.819	6.78
517.166	6.88
517.512	6.98
517.859	7.08
518.205	7.19
518.552	7.28
518.898	7.39
519.245	7.48
519.591	7.57
519.937	7.64
520.283	7.75
520.629	7.87
520.976	7.99
521.322	8.09
521.668	8.2
522.014	8.33
522.36	8.44
522.706	8.56
523.052	8.7
523.398	8.84
523.743	8.99
524.089	9.12
524.435	9.27
524.781	9.42
525.126	9.57
525.472	9.69
525.817	9.81
526.163	9.91
526.509	10.02
526.854	10.12
527.199	10.22
527.545	10.32
527.89	10.4
528.235	10.5
528.581	10.6
528.926	10.7
529.271	10.8
529.616	10.89
529.961	10.99
530.306	11.08
530.651	11.18
530.996	11.3
531.341	11.41
531.686	11.53
532.031	11.65
532.376	11.76
532.721	11.9
533.065	12.03
533.41	12.18
533.755	12.3
534.099	12.45
534.444	12.61
534.788	12.73
535.133	12.87
535.477	13.02
535.822	13.17
536.166	13.33
536.51	13.5
536.855	13.7
537.199	13.89
537.543	14.07
537.887	14.29
538.231	14.51
538.576	14.71
538.92	14.92
539.264	15.11
539.608	15.3
539.951	15.47
540.295	15.64
540.639	15.81
540.983	15.97
541.327	16.14
541.671	16.31
542.014	16.48
542.358	16.66
542.701	16.82
543.045	16.97
543.389	17.13
543.732	17.29
544.075	17.48
544.419	17.68
544.762	17.88
545.105	18.07
545.449	18.25
545.792	18.45
546.135	18.68
546.478	18.91
546.821	19.15
547.165	19.41
547.508	19.67
547.851	19.89
548.194	20.16
548.536	20.42
548.879	20.69
549.222	20.95
549.565	21.19
549.908	21.48
550.25	21.73
550.593	22
550.936	22.28
551.278	22.51
551.621	22.81
551.963	23.06
552.306	23.34
552.648	23.62
552.991	23.86
553.333	24.04
553.675	24.31
554.017	24.54
554.36	24.75
554.702	24.99
555.044	25.25
555.386	25.51
555.728	25.76
556.07	25.99
556.412	26.25
556.754	26.49
557.096	26.73
557.438	27.06
557.78	27.31
558.121	27.58
558.463	27.86
558.805	28.1
559.147	28.36
559.488	28.6
559.83	28.79
560.171	29.04
560.513	29.34
560.854	29.57
561.196	29.84
561.537	30.06
561.878	30.31
562.22	30.55
562.561	30.77
562.902	30.96
563.243	31.22
563.584	31.42
563.925	31.65
564.266	31.81
564.607	32.02
564.948	32.23
565.289	32.43
565.63	32.66
565.971	32.82
566.312	33.05
566.653	33.19
566.993	33.4
567.334	33.62
567.675	33.81
568.015	34
568.356	34.15
568.696	34.39
569.037	34.56
569.377	34.75
569.718	34.94
570.058	35.09
570.398	35.26
570.739	35.44
571.079	35.63
571.419	35.84
571.759	35.98
572.099	36.21
572.439	36.33
572.779	36.42
573.119	36.61
573.459	36.72
573.799	36.92
574.139	37.08
574.479	37.22
574.819	37.38
575.158	37.55
575.498	37.7
575.838	37.84
576.177	37.97
576.517	38.08
576.856	38.27
577.196	38.45
577.535	38.59
577.875	38.72
578.214	38.86
578.553	38.98
578.893	39.13
579.232	39.22
579.571	39.42
579.91	39.61
580.25	39.74
580.589	39.89
580.928	40.01
581.267	40.25
581.606	40.37
581.945	40.45
582.283	40.55
582.622	40.67
582.961	40.83
583.3	40.97
583.639	41.16
583.977	41.22
584.316	41.3
584.654	41.47
584.993	41.63
585.332	41.73
585.67	41.86
586.008	42.02
586.347	42.05
586.685	42.18
587.024	42.24
587.362	42.34
587.7	42.39
588.038	42.51
588.376	42.56
588.715	42.7
589.053	42.8
589.391	42.87
589.729	42.99
590.067	43.04
590.404	43.16
590.742	43.28
591.08	43.37
591.418	43.48
591.756	43.5
592.093	43.53
592.431	43.63
592.769	43.71
593.106	43.77
593.444	43.91
593.781	43.93
594.119	43.96
594.456	44.02
594.793	44.12
595.131	44.17
595.468	44.18
595.805	44.24
596.143	44.33
596.48	44.36
596.817	44.44
597.154	44.5
597.491	44.54
597.828	44.53
598.165	44.59
598.502	44.64
598.839	44.62
599.176	44.73
599.512	44.74
599.849	44.86
600.186	44.91
600.523	44.97
600.859	45.09
601.196	45.24
601.532	45.25
601.869	45.37
602.205	45.38
602.542	45.42
602.878	45.38
603.215	45.36
603.551	45.47
603.887	45.49
604.223	45.58
604.56	45.66
604.896	45.71
605.232	45.78
605.568	45.82
605.904	45.96
606.24	46.03
606.576	46.09
606.912	46.1
607.248	46.15
607.583	46.15
607.919	46.19
608.255	46.27
608.591	46.37
608.926	46.33
609.262	46.44
609.597	46.57
609.933	46.66
610.268	46.76
610.604	46.81
610.939	46.88
611.275	46.87
611.61	46.83
611.945	46.87
612.281	46.91
612.616	47.03
612.951	47.03
613.286	47.08
613.621	47.18
613.956	47.24
614.291	47.2
614.626	47.29
614.961	47.37
615.296	47.32
615.631	47.34
615.966	47.51
616.3	47.65
616.635	47.68
616.97	47.7
617.304	47.79
617.639	47.84
617.973	47.83
618.308	47.89
618.642	47.96
618.977	47.98
619.311	47.97
619.646	48.05
619.98	48.1
620.314	48.19
620.648	48.19
620.983	48.21
621.317	48.34
621.651	48.41
621.985	48.45
622.319	48.55
622.653	48.63
622.987	48.65
623.321	48.63
623.655	48.57
623.988	48.64
624.322	48.52
624.656	48.55
624.99	48.62
625.323	48.57
625.657	48.63
625.99	48.65
626.324	48.7
626.657	48.7
626.991	48.75
627.324	48.67
627.658	48.71
627.991	48.74
628.324	48.76
628.657	48.67
628.991	48.68
629.324	48.72
629.657	48.78
629.99	48.71
630.323	48.69
630.656	48.73
630.989	48.83
631.322	48.92
631.655	48.88
631.987	48.93
632.32	49
632.653	49.01
632.986	49.09
633.318	49.07
633.651	49.07
633.984	49.19
634.316	49.28
634.649	49.35
634.981	49.31
635.313	49.36
635.646	49.52
635.978	49.5
636.31	49.48
636.643	49.41
636.975	49.34
637.307	49.34
637.639	49.39
637.971	49.38
638.303	49.45
638.635	49.54
638.967	49.59
639.299	49.62
639.631	49.67
639.963	49.8
640.295	49.83
640.626	49.86
640.958	49.76
641.29	49.82
641.621	49.72
641.953	49.82
642.285	49.81
642.616	49.86
642.948	49.94
643.279	49.91
643.61	50
643.942	50.23
644.273	50.33
644.604	50.43
644.936	50.39
645.267	50.42
645.598	50.41
645.929	50.3
646.26	50.33
646.591	50.35
646.922	50.13
647.253	50.21
647.584	50.24
647.915	50.24
648.245	50.21
648.576	50.29
648.907	50.39
649.238	50.45
649.568	50.42
649.899	50.42
650.229	50.53
650.56	50.59
650.89	50.59
651.221	50.53
651.551	50.47
651.882	50.49
652.212	50.52
652.542	50.6
652.872	50.71
653.203	50.79
653.533	50.77
653.863	50.91
654.193	50.83
654.523	50.89
654.853	50.89
655.183	51.03
655.513	51.03
655.843	51.05
656.172	51.07
656.502	51.05
656.832	51.05
657.162	51.14
657.491	51.11
657.821	51.04
658.15	51.15
658.48	51.14
658.809	51.12
659.139	51.06
659.468	51.04
659.798	51
660.127	51
660.456	51.08
660.785	51.08
661.115	51.23
661.444	51.26
661.773	51.31
662.102	51.2
662.431	51.28
662.76	51.24
663.089	51.21
663.418	51.25
663.747	51.27
664.076	51.11
664.404	51.13
664.733	51.33
665.062	51.29
665.39	51.4
665.719	51.41
666.048	51.5
666.376	51.53
666.705	51.66
667.033	51.64
667.362	51.59
667.69	51.57
668.018	51.58
668.347	51.45
668.675	51.41
669.003	51.44
669.331	51.56
669.659	51.66
669.987	51.68
670.315	51.62
670.643	51.64
670.971	51.77
671.299	51.79
671.627	51.65
671.955	51.67
672.283	51.72
672.61	51.71
672.938	51.75
673.266	51.74
673.593	51.8
673.921	51.81
674.249	51.92
674.576	51.95
674.904	51.98
675.231	52.22
675.558	52.43
675.886	52.42
676.213	52.25
676.54	52.24
676.867	52.25
677.195	52.35
677.522	52.35
677.849	52.24
678.176	52.22
678.503	52.41
678.83	52.43
679.157	52.28
679.484	52.35
679.81	52.34
680.137	52.42
680.464	52.36
680.791	52.38
681.117	52.31
681.444	52.31
681.771	52.4
682.097	52.29
682.424	52.22
682.75	52.27
683.077	52.24
683.403	52.18
683.729	52.1
684.056	52.09
684.382	52.14
684.708	52.25
685.034	52.3
685.36	52.12
685.686	52.15
686.012	52.29
686.339	52.39
686.664	52.37
686.99	52.41
687.316	52.23
687.642	52.29
687.968	52.37
688.294	52.49
688.619	52.46
688.945	52.39
689.271	52.42
689.596	52.39
689.922	52.63
690.247	52.61
690.573	52.84
690.898	52.91
691.224	53.03
691.549	52.99
691.874	52.98
692.2	53.15
692.525	53.28
692.85	53.36
693.175	53.27
693.5	53.22
693.825	53.15
694.15	53.35
694.475	53.22
694.8	53.11
695.125	53.2
695.45	53.04
695.775	53.06
696.099	52.96
696.424	52.84
696.749	52.77
697.073	52.87
697.398	52.89
697.723	53.04
698.047	52.91
698.372	52.97
698.696	53.03
699.02	53.04
699.345	52.91
699.669	52.77
699.993	52.87
700.318	53
700.642	53.04
700.966	52.95
701.29	53.06
701.614	53.16
701.938	53.1
702.262	53.27
702.586	53.38
702.91	53.37
703.234	53.5
703.557	53.43
703.881	53.27
704.205	53.17
704.529	52.91
704.852	52.87
705.176	52.87
705.499	52.81
705.823	52.76
706.146	52.6
706.47	52.76
706.793	52.54
707.117	52.54
707.44	52.48
707.763	52.64
708.086	52.73
708.409	52.65
708.733	52.59
709.056	52.56
709.379	52.6
709.702	52.64
710.025	52.72
710.348	52.73
710.671	52.96
710.993	53.02
711.316	53.13
711.639	53.21
711.962	53.07
712.284	53.07
712.607	53.15
712.93	53.24
713.252	53.18
713.575	53.34
713.897	53.25
714.22	53.35
714.542	53.48
714.864	53.42
715.187	53.45
715.509	53.42
715.831	53.41
716.153	53.33
716.475	53.32
716.798	53.49
717.12	53.4
717.442	53.44
717.764	53.39
718.085	53.33
718.407	53.34
718.729	53.54
719.051	53.5
719.373	53.38
719.695	53.43
720.016	53.43
720.338	53.56
720.659	53.68
720.981	53.68
721.302	53.46
721.624	53.53
721.945	53.59
722.267	53.74
722.588	53.53
722.909	53.63
723.231	53.86
723.552	53.61
723.873	53.82
724.194	53.56
724.515	53.79
724.836	53.49
725.157	53.61
725.478	53.58
725.799	53.67
726.12	53.73
726.441	53.76
726.762	53.91
727.083	53.61
727.403	53.55
727.724	53.53
728.045	53.49
728.365	53.38
728.686	53.26
729.006	53.15
729.327	53.4
729.647	53.43
729.967	53.34
730.288	53.47
730.608	53.65
730.928	53.77
731.249	53.53
731.569	54.06
731.889	53.99
732.209	53.85
732.529	53.76
732.849	53.75
733.169	53.84
733.489	53.72
733.809	53.85
734.129	53.71
734.448	53.67
734.768	53.75
735.088	53.93
735.408	54.08
735.727	54.35
736.047	54.48
736.366	54.47
736.686	54.53
737.005	54.46
737.325	54.14
737.644	54.11
737.963	54.21
738.283	53.87
738.602	53.87
738.921	54.11
739.24	54.39
739.56	54.52
739.879	54.31
740.198	54.44
740.517	54.3
740.836	54.57
741.155	54.44
741.473	54.58
741.792	54.48
742.111	54.51
742.43	54.26
742.748	54.18
743.067	54.14
743.386	54.2
743.704	54.28
744.023	54.66
744.341	54.75
744.66	54.87
744.978	54.69
745.297	54.79
745.615	54.61
745.933	54.4
746.252	54.21
746.57	54.55
746.888	54.37
747.206	54.71
747.524	54.85
747.842	55.21
748.16	55.08
748.478	55.14
748.796	54.89
749.114	55.28
749.432	55.18
749.749	55.36
750.067	55.15
750.385	54.89
750.703	54.81
751.02	54.73
751.338	54.6
751.655	55.01
751.973	54.78
752.29	54.98
752.608	55.19
752.925	55.08
753.242	54.93
753.56	54.84
753.877	54.83
754.194	54.48
754.511	54.28
754.828	54.72
755.145	54.76
755.462	54.87
755.779	54.67
756.096	54.83
756.413	55.13
756.73	55.48
757.047	55.91
757.364	55.7
757.68	55.86
757.997	55.99
758.314	55.93
758.63	56
758.947	55.78
759.264	55.39
759.58	55.53
759.896	55.64
760.213	55.91
760.529	55.78
760.846	55.77
761.162	55.75
761.478	55.53
761.794	55.34
762.11	55.36
762.426	55.28
762.743	55.3
763.059	55.16
763.375	54.94
763.69	54.67
764.006	54.77
764.322	54.69
764.638	54.56
764.954	54.45
765.27	54.52
765.585	54.44
765.901	54.69
766.216	54.69
766.532	54.66
766.848	54.35
767.163	54.57
767.478	54.5
767.794	54.49
768.109	54.72
768.424	54.87
768.74	54.77
769.055	54.65
769.37	54.35
769.685	54.23
770	54.39
770.315	54.35
770.63	54.47
770.945	54.74
771.26	54.82
771.575	55.23
771.89	55.21
772.205	55.5
772.52	55.12
772.834	55.03
773.149	55.14
773.464	55.35
773.778	55.26
774.093	55.26
774.407	55.01
774.722	54.74
775.036	54.68
775.351	55.14
775.665	55.34
775.979	55.89
776.293	55.82
776.608	55.58
776.922	56
777.236	55.92
777.55	55.79
777.864	55.78
778.178	55.7
778.492	56.01
778.806	55.73
779.12	56.56
779.434	56.68
779.747	56.57
780.061	57.07
780.375	57.08
780.689	57.48
781.002	57.88
781.316	58.13
781.629	57.99
781.943	57.78
782.256	57.45
782.57	57.3
782.883	56.72
783.196	56.84
783.51	56.44
783.823	56.29
784.136	56.12
784.449	56.28
784.762	56.53
785.075	55.99
785.388	56.4
785.701	56.56
786.014	56.64
786.327	57.05
786.64	56.85
786.953	56.84
787.266	56.88
787.578	57.13
787.891	56.85
788.204	56.96
788.516	57.31
788.829	57.77
789.141	57.9
789.454	57.86
789.766	58.49
790.079	58.62
790.391	58.55
790.703	58.27
791.016	58.01
791.328	58.13
791.64	58.81
791.952	59.33
792.264	59.09
792.576	58.87
792.888	58.19
793.2	57.88
793.512	57.66
793.824	57.28
794.136	57.31
794.448	57.51
794.76	57.02
795.071	56.77
795.383	56.36
795.695	55.7
796.006	56.4
796.318	55.19
796.629	55.03
796.941	55.06
797.252	55.3
797.564	55.79
797.875	55.47
798.186	54.78
798.497	54
798.809	53.35
799.12	53
799.431	53.28
799.742	53.9
800.053	54.35
800.364	54.69
800.675	54.06
800.986	53.85
801.297	54.02
801.608	53.35
801.918	53.44
802.229	53.91
802.54	53.82
802.851	54.85
803.161	55.1
803.472	54.85
803.782	55.12
804.093	54.61
804.403	54.51
804.714	54.53
805.024	54.51
805.334	54.59
805.645	55.44
805.955	55.08
806.265	55.05
806.575	54.44
806.885	54.71
807.195	55.29
807.505	55.53
807.815	55.9
808.125	56.2
808.435	56.06
808.745	55.62
809.055	55.86
809.365	55.43
809.674	54.66
809.984	55.3
810.294	55.05
810.603	55.54
810.913	55.48
811.222	55.43
811.532	55.49
811.841	55.93
812.151	56.15
812.46	56.4
812.769	55.97
813.079	55.92
813.388	55.88
813.697	55.57
814.006	54.59
814.315	54.91
814.624	54.88
814.933	54.97
815.242	55.56
815.551	54.52
815.86	54.67
816.169	55.15
816.478	55.06
816.786	54.92
817.095	54.79
817.404	54.34
817.712	54.11
818.021	54.24
818.33	53.93
818.638	53.52
818.947	54.12
819.255	54.49
819.563	54.94
819.872	55.19
820.18	55.2
820.488	55.53
820.796	55.63
821.105	55.74
821.413	55.88
821.721	55.82
822.029	56.12
822.337	56.06
822.645	56.17
822.953	56.43
823.26	56.38
823.568	56.47
823.876	56.9
824.184	57.12
824.491	57.25
824.799	57.25
825.107	57.22
825.414	57.26
825.722	57.34
826.029	57.27
826.337	57.15
826.644	57.24
826.951	57.27
827.259	57.15
827.566	57.1
827.873	57.11
828.18	57.45
828.488	57.32
828.795	57.51
829.102	57.64
829.409	57.39
829.716	57.73
830.023	57.65
830.329	57.1
830.636	57.38
830.943	57.08
831.25	56.78
831.557	57.17
831.863	57.16
832.17	56.72
832.476	57.14
832.783	57.59
833.089	57.4
833.396	57.48
833.702	57.75
834.009	58.08
834.315	58.46
834.621	57.93
834.928	57.94
835.234	58.14
835.54	57.64
835.846	57.81
836.152	58.01
836.458	57.78
836.764	57.98
837.07	57.22
837.376	57.25
837.682	57.81
837.988	57.44
838.293	56.57
838.599	57.16
838.905	56.28
839.211	55.55
839.516	56.26
839.822	56.64
840.127	55.97
840.433	55.6
840.738	55.23
841.044	55.27
841.349	55.21
841.654	55.15
841.959	55.24
842.265	54.49
842.57	53.8
842.875	53.86
843.18	53.68
843.485	54.3
843.79	54.58
844.095	54.58
844.4	55.33
844.705	55.91
845.01	54.57
845.315	55.93
845.619	55.88
845.924	55.14
846.229	54.35
846.533	55.12
846.838	56.11
847.142	55.38
847.447	55.3
847.751	55.25
848.056	54.4
848.36	57.16
848.664	57.99
848.969	58.46
849.273	59.37
849.577	60.47
849.881	60.1
850.185	61.15
850.489	61.98
850.794	60.17
851.097	61.32
851.401	62.56
851.705	61.01
852.009	61.87
852.313	63.2
852.617	62.42
852.92	62.98
853.224	62.41
853.528	62.06
853.831	59.45
854.135	60.12
854.438	59.6
854.742	57.37
855.045	56.89
855.349	56.53
855.652	57.23
855.955	53.9
856.259	55.58
856.562	55.37
856.865	53.02
857.168	55.6
857.471	55.11
857.774	54.95
858.077	54.53
858.38	54.31
858.683	52.2
858.986	54.72
859.289	55.18
859.592	56.98
859.894	58.51
860.197	61.28
860.5	60.88
860.802	61.2
861.105	60.68
861.407	60.61
861.71	62.26
862.012	61.89
862.315	66.37
862.617	64.75
862.919	63.53
863.222	65.79
863.524	64.5
863.826	63.9
864.128	66.88
864.43	67.47
864.732	68.02
865.034	68.31
865.336	66.09
865.638	63.25
865.94	62.46
866.242	60.05
866.544	58.15
866.846	60.46
867.147	60.79
867.449	60.92
867.751	60.97
868.052	59.71
868.354	58.28
868.655	56.08
868.957	54.17
869.258	53.05
869.56	51.97
869.861	50.67
870.162	51.5
870.463	50.73
870.765	52.31
871.066	52.89
871.367	54.63
871.668	55.84
871.969	56.8
872.27	55.03
872.571	57.16
872.872	59.02
873.173	59.3
873.473	59.31
873.774	59.47
874.075	58.61
874.376	57.1
874.676	57.47
874.977	56.53
875.277	58.75
875.578	59.82
875.878	60.44
876.179	61.49
876.479	61.96
876.78	60.04
877.08	58.52
877.38	56.89
877.68	55.06
877.981	53.73
878.281	54.21
878.581	56.39
