Data from BU26943_Reflection_00014.txt Node
Date: Tue Nov 19 11:02:42 EST 2019
User: vgr7
Spectrometer: USB2G7710
Scans to average: 3
Trigger mode: 4
Integration Time (sec): 2.000000E-2
Electric dark correction enabled: true
Boxcar width: 10
XAxis mode: Wavelengths
Number of Pixels in Spectrum: 2048
>>>>>Begin Spectral Data<<<<<
177.721	-300.45
178.105	-129.51
178.488	-53.31
178.871	-40.43
179.254	-22.22
179.636	34.78
180.019	51.61
180.402	240
180.785	-145.45
181.168	-390.38
181.55	-641.38
181.933	1907.69
182.316	-1452.63
182.698	1007.41
183.081	-130.5
183.463	-185.23
183.846	-126.07
184.228	-107.58
184.611	-78.1
184.993	-67.8
185.376	-78.73
185.758	-35.1
186.14	-68.49
186.522	-91.08
186.904	-83.17
187.287	-80.26
187.669	-59.43
188.051	-60.46
188.433	-64.52
188.815	-57.11
189.197	-49.84
189.579	-38.72
189.961	-45.36
190.342	-45.93
190.724	-48.03
191.106	-50.44
191.488	-41.09
191.869	-39.88
192.251	-41
192.633	-39.64
193.014	-34.84
193.396	-38.66
193.777	-44.15
194.159	-41.99
194.54	-41.25
194.922	-51.86
195.303	-56.6
195.684	-71.07
196.065	-74.52
196.447	-65.28
196.828	-71.62
197.209	-61.5
197.59	-70.67
197.971	-75.58
198.352	-48.34
198.733	-42.37
199.114	-30.51
199.495	-30.75
199.876	-23.19
200.257	-26.91
200.638	-12.32
201.018	-7
201.399	6.66
201.78	8.47
202.16	11.19
202.541	5.18
202.922	9.14
203.302	20.93
203.683	19.43
204.063	22.7
204.444	29.75
204.824	18.93
205.204	21.11
205.585	23.62
205.965	21.22
206.345	18.73
206.725	23.37
207.106	18.4
207.486	15.38
207.866	9.13
208.246	13.82
208.626	6.97
209.006	1.19
209.386	-2.6
209.766	-6.99
210.145	2.95
210.525	8.03
210.905	12.57
211.285	11.58
211.664	15.16
212.044	15.28
212.424	14.8
212.803	21.38
213.183	17.99
213.562	13.59
213.942	16.61
214.321	11.28
214.701	3.94
215.08	8.98
215.459	8.52
215.838	6.9
216.218	3.43
216.597	8.57
216.976	5
217.355	0.65
217.734	3.08
218.113	-5.88
218.492	-10.98
218.871	-11.86
219.25	-14.32
219.629	-12.53
220.008	-7.84
220.387	-10.48
220.766	-7.17
221.144	-9.01
221.523	-6.94
221.902	-2.25
222.28	4.43
222.659	11.21
223.037	5.39
223.416	13.57
223.794	15.43
224.173	13.72
224.551	15.88
224.929	10.99
225.308	8.65
225.686	5.83
226.064	5.14
226.442	7.13
226.821	3.12
227.199	0.71
227.577	2.24
227.955	3.17
228.333	1.35
228.711	1.06
229.089	1.44
229.467	-0.47
229.845	-2.15
230.222	-0.24
230.6	-1.19
230.978	0.36
231.356	-2.58
231.733	-1.72
232.111	-0
232.488	-2.91
232.866	-1.08
233.243	-0.88
233.621	-0.11
233.998	0.91
234.376	0.29
234.753	1.43
235.13	1.59
235.508	0.2
235.885	-1.89
236.262	-1.51
236.639	-1.76
237.016	-1.74
237.393	-1.4
237.77	-0.12
238.147	-0.59
238.524	0.48
238.901	0.57
239.278	1.28
239.655	1.33
240.032	1.21
240.409	1.91
240.785	1.77
241.162	2.11
241.539	2.36
241.915	2.29
242.292	2.2
242.668	2.58
243.045	2.88
243.421	3.07
243.798	3.43
244.174	3.36
244.551	3.59
244.927	3.64
245.303	3.43
245.679	3.26
246.056	3.25
246.432	3.3
246.808	3.32
247.184	3.38
247.56	3.3
247.936	3.25
248.312	3.17
248.688	3.32
249.064	3.22
249.44	3.28
249.815	3.17
250.191	3.51
250.567	3.32
250.943	3.47
251.318	3.29
251.694	3.12
252.069	3.37
252.445	3.33
252.82	3.48
253.196	3.83
253.571	3.94
253.947	3.89
254.322	3.66
254.697	3.62
255.073	3.43
255.448	2.92
255.823	3.09
256.198	3.08
256.573	3.07
256.948	3.23
257.323	3.1
257.698	3.08
258.073	2.85
258.448	2.92
258.823	2.73
259.198	2.77
259.573	2.64
259.948	2.71
260.322	2.69
260.697	2.59
261.072	2.46
261.446	2.55
261.821	2.6
262.195	2.54
262.57	2.68
262.944	2.49
263.319	2.73
263.693	2.64
264.067	2.63
264.442	2.57
264.816	2.62
265.19	2.58
265.564	2.64
265.938	2.74
266.313	2.64
266.687	2.45
267.061	2.52
267.435	2.8
267.809	2.33
268.183	2.36
268.556	2.4
268.93	2.46
269.304	2.31
269.678	2.18
270.051	2.17
270.425	2.1
270.799	2.24
271.172	2.21
271.546	2.18
271.919	2.16
272.293	2.3
272.666	2.18
273.04	2.05
273.413	2.13
273.787	2.14
274.16	2.27
274.533	2.43
274.906	2.39
275.279	2.27
275.653	2.65
276.026	2.59
276.399	2.56
276.772	2.58
277.145	2.65
277.518	2.75
277.891	2.71
278.263	2.82
278.636	2.83
279.009	2.89
279.382	3.01
279.755	3.06
280.127	3.07
280.5	3.13
280.872	3.28
281.245	3.29
281.617	3.25
281.99	3.06
282.362	3.12
282.735	3.11
283.107	3.1
283.479	3.02
283.852	2.98
284.224	2.88
284.596	2.97
284.968	3.04
285.34	2.94
285.713	3.04
286.085	2.89
286.457	2.85
286.829	2.78
287.201	2.69
287.572	2.75
287.944	2.73
288.316	2.69
288.688	2.75
289.06	2.63
289.431	2.66
289.803	2.74
290.175	2.72
290.546	2.77
290.918	2.79
291.289	2.83
291.661	2.83
292.032	2.96
292.403	2.97
292.775	2.97
293.146	3.11
293.517	3.05
293.889	3
294.26	3.12
294.631	3.16
295.002	3.27
295.373	3.16
295.744	3.07
296.115	3.07
296.486	3.06
296.857	3.2
297.228	3.06
297.599	3.15
297.97	3.24
298.34	3.25
298.711	3.35
299.082	3.28
299.452	3.35
299.823	3.31
300.194	3.34
300.564	3.21
300.935	3.29
301.305	3.27
301.676	3.21
302.046	3.15
302.416	3.13
302.787	3.05
303.157	3.06
303.527	3.18
303.897	3.28
304.267	3.23
304.637	3.24
305.008	3.27
305.378	3.26
305.748	3.21
306.117	3.2
306.487	3.23
306.857	3.23
307.227	3.3
307.597	3.39
307.967	3.44
308.336	3.56
308.706	3.45
309.076	3.68
309.445	3.88
309.815	3.99
310.184	3.91
310.554	3.96
310.923	4.07
311.293	4.05
311.662	4.14
312.031	4.22
312.401	4.21
312.77	4.25
313.139	4.26
313.508	4.19
313.877	4.12
314.246	4.09
314.616	4.15
314.985	4.13
315.353	4.18
315.722	4.27
316.091	4.28
316.46	4.45
316.829	4.45
317.198	4.63
317.567	4.73
317.935	4.91
318.304	4.89
318.672	5
319.041	5.11
319.41	4.91
319.778	4.95
320.147	4.93
320.515	4.98
320.883	5
321.252	5.17
321.62	5.22
321.988	5.3
322.357	5.37
322.725	5.28
323.093	5.28
323.461	5.13
323.829	5.25
324.197	5.13
324.565	5.09
324.933	4.88
325.301	4.84
325.669	4.89
326.037	5.05
326.405	4.92
326.772	4.88
327.14	4.87
327.508	4.95
327.875	5.03
328.243	4.96
328.61	4.95
328.978	4.86
329.346	4.9
329.713	4.99
330.08	5.06
330.448	5.19
330.815	5.27
331.182	5.2
331.55	5.15
331.917	5.26
332.284	5.3
332.651	5.43
333.018	5.43
333.385	5.43
333.752	5.42
334.119	5.62
334.486	5.65
334.853	5.69
335.22	5.65
335.587	5.73
335.954	5.78
336.32	5.8
336.687	5.91
337.054	5.95
337.42	5.88
337.787	5.85
338.153	5.93
338.52	5.91
338.886	6.1
339.253	6.12
339.619	6.19
339.986	6.2
340.352	6.26
340.718	6.25
341.084	6.25
341.451	6.29
341.817	6.2
342.183	6.16
342.549	6.27
342.915	6.3
343.281	6.24
343.647	6.39
344.013	6.43
344.379	6.43
344.745	6.35
345.11	6.31
345.476	6.39
345.842	6.33
346.208	6.28
346.573	6.27
346.939	6.27
347.304	6.23
347.67	6.18
348.035	6.08
348.401	6.2
348.766	6.3
349.132	6.23
349.497	6.25
349.862	6.3
350.228	6.36
350.593	6.32
350.958	6.39
351.323	6.35
351.688	6.34
352.053	6.27
352.418	6.36
352.783	6.37
353.148	6.33
353.513	6.35
353.878	6.36
354.243	6.29
354.608	6.39
354.972	6.29
355.337	6.31
355.702	6.35
356.066	6.23
356.431	6.25
356.795	6.3
357.16	6.29
357.524	6.27
357.889	6.21
358.253	6.19
358.618	6.13
358.982	6.05
359.346	6.05
359.71	6.09
360.075	6.14
360.439	6.16
360.803	6.15
361.167	6.13
361.531	6.17
361.895	6.18
362.259	6.13
362.623	6.23
362.987	6.26
363.351	6.23
363.714	6.25
364.078	6.2
364.442	6.17
364.806	6.12
365.169	6.12
365.533	6.08
365.896	6.1
366.26	6.06
366.623	6.06
366.987	6.05
367.35	5.98
367.714	5.86
368.077	5.83
368.44	5.76
368.803	5.69
369.167	5.6
369.53	5.59
369.893	5.55
370.256	5.43
370.619	5.35
370.982	5.28
371.345	5.27
371.708	5.21
372.071	5.06
372.434	5.05
372.797	5.03
373.159	4.96
373.522	4.91
373.885	4.91
374.247	4.89
374.61	4.86
374.973	4.87
375.335	4.84
375.698	4.73
376.06	4.68
376.423	4.68
376.785	4.71
377.147	4.63
377.51	4.53
377.872	4.51
378.234	4.48
378.596	4.5
378.958	4.41
379.321	4.33
379.683	4.37
380.045	4.36
380.407	4.31
380.769	4.31
381.13	4.22
381.492	4.17
381.854	4.12
382.216	4.09
382.578	4.06
382.939	4.05
383.301	4.05
383.663	4.05
384.024	4.03
384.386	3.97
384.747	3.93
385.109	3.92
385.47	3.91
385.832	3.88
386.193	3.79
386.554	3.81
386.916	3.85
387.277	3.84
387.638	3.77
387.999	3.73
388.36	3.74
388.721	3.74
389.082	3.72
389.443	3.75
389.804	3.74
390.165	3.7
390.526	3.68
390.887	3.67
391.248	3.66
391.609	3.64
391.969	3.62
392.33	3.6
392.691	3.63
393.051	3.59
393.412	3.57
393.772	3.61
394.133	3.54
394.493	3.5
394.854	3.45
395.214	3.47
395.574	3.46
395.935	3.43
396.295	3.45
396.655	3.44
397.015	3.42
397.376	3.37
397.736	3.37
398.096	3.34
398.456	3.31
398.816	3.31
399.176	3.27
399.535	3.26
399.895	3.26
400.255	3.2
400.615	3.19
400.975	3.18
401.334	3.11
401.694	3.1
402.054	3.07
402.413	3.05
402.773	3.03
403.132	3.02
403.492	3.02
403.851	2.99
404.211	2.98
404.57	2.94
404.929	2.95
405.288	2.91
405.648	2.89
406.007	2.89
406.366	2.89
406.725	2.88
407.084	2.85
407.443	2.85
407.802	2.83
408.161	2.83
408.52	2.82
408.879	2.86
409.238	2.88
409.596	2.91
409.955	2.9
410.314	2.89
410.673	2.87
411.031	2.84
411.39	2.81
411.748	2.79
412.107	2.78
412.465	2.78
412.824	2.79
413.182	2.81
413.54	2.8
413.899	2.76
414.257	2.75
414.615	2.76
414.974	2.77
415.332	2.78
415.69	2.75
416.048	2.76
416.406	2.73
416.764	2.74
417.122	2.73
417.48	2.75
417.838	2.75
418.195	2.76
418.553	2.78
418.911	2.77
419.269	2.78
419.626	2.78
419.984	2.75
420.342	2.76
420.699	2.74
421.057	2.74
421.414	2.76
421.772	2.76
422.129	2.74
422.486	2.73
422.844	2.72
423.201	2.73
423.558	2.73
423.915	2.72
424.273	2.73
424.63	2.73
424.987	2.74
425.344	2.72
425.701	2.73
426.058	2.71
426.415	2.71
426.772	2.7
427.128	2.69
427.485	2.71
427.842	2.68
428.199	2.69
428.555	2.68
428.912	2.66
429.269	2.66
429.625	2.68
429.982	2.68
430.338	2.69
430.695	2.68
431.051	2.68
431.407	2.69
431.764	2.65
432.12	2.63
432.476	2.59
432.832	2.61
433.189	2.58
433.545	2.58
433.901	2.59
434.257	2.59
434.613	2.61
434.969	2.61
435.325	2.63
435.681	2.62
436.036	2.63
436.392	2.65
436.748	2.64
437.104	2.63
437.459	2.64
437.815	2.63
438.171	2.64
438.526	2.63
438.882	2.63
439.237	2.62
439.593	2.63
439.948	2.64
440.304	2.63
440.659	2.65
441.014	2.65
441.369	2.64
441.725	2.65
442.08	2.65
442.435	2.64
442.79	2.63
443.145	2.62
443.5	2.61
443.855	2.59
444.21	2.59
444.565	2.61
444.92	2.6
445.275	2.6
445.629	2.59
445.984	2.59
446.339	2.59
446.693	2.61
447.048	2.59
447.403	2.6
447.757	2.59
448.112	2.59
448.466	2.59
448.82	2.59
449.175	2.59
449.529	2.58
449.883	2.57
450.238	2.57
450.592	2.57
450.946	2.57
451.3	2.58
451.654	2.57
452.008	2.56
452.362	2.56
452.716	2.58
453.07	2.57
453.424	2.58
453.778	2.57
454.132	2.57
454.486	2.58
454.839	2.55
455.193	2.55
455.547	2.55
455.9	2.55
456.254	2.54
456.607	2.53
456.961	2.52
457.314	2.51
457.668	2.52
458.021	2.52
458.375	2.53
458.728	2.52
459.081	2.55
459.434	2.53
459.787	2.52
460.141	2.51
460.494	2.53
460.847	2.52
461.2	2.55
461.553	2.55
461.906	2.56
462.259	2.56
462.611	2.57
462.964	2.57
463.317	2.58
463.67	2.6
464.022	2.59
464.375	2.59
464.728	2.61
465.08	2.61
465.433	2.62
465.785	2.63
466.138	2.64
466.49	2.65
466.843	2.66
467.195	2.68
467.547	2.68
467.899	2.67
468.252	2.68
468.604	2.67
468.956	2.69
469.308	2.69
469.66	2.71
470.012	2.72
470.364	2.72
470.716	2.74
471.068	2.74
471.42	2.77
471.772	2.81
472.123	2.81
472.475	2.83
472.827	2.82
473.178	2.81
473.53	2.81
473.882	2.81
474.233	2.82
474.585	2.81
474.936	2.8
475.288	2.78
475.639	2.79
475.99	2.78
476.342	2.76
476.693	2.76
477.044	2.74
477.395	2.74
477.746	2.72
478.097	2.7
478.448	2.69
478.8	2.68
479.15	2.67
479.501	2.66
479.852	2.65
480.203	2.66
480.554	2.65
480.905	2.66
481.255	2.65
481.606	2.65
481.957	2.65
482.307	2.65
482.658	2.67
483.009	2.66
483.359	2.67
483.709	2.67
484.06	2.68
484.41	2.69
484.761	2.69
485.111	2.7
485.461	2.7
485.811	2.7
486.162	2.7
486.512	2.7
486.862	2.71
487.212	2.71
487.562	2.71
487.912	2.71
488.262	2.71
488.612	2.71
488.961	2.71
489.311	2.71
489.661	2.71
490.011	2.71
490.36	2.71
490.71	2.71
491.06	2.7
491.409	2.69
491.759	2.69
492.108	2.67
492.458	2.68
492.807	2.68
493.157	2.67
493.506	2.68
493.855	2.67
494.204	2.67
494.554	2.7
494.903	2.72
495.252	2.73
495.601	2.73
495.95	2.74
496.299	2.78
496.648	2.81
496.997	2.84
497.346	2.87
497.695	2.89
498.043	2.91
498.392	2.94
498.741	2.97
499.09	2.99
499.438	3.04
499.787	3.06
500.135	3.08
500.484	3.13
500.832	3.15
501.181	3.19
501.529	3.22
501.878	3.24
502.226	3.26
502.574	3.31
502.923	3.35
503.271	3.39
503.619	3.42
503.967	3.46
504.315	3.47
504.663	3.49
505.011	3.53
505.359	3.59
505.707	3.63
506.055	3.69
506.403	3.74
506.751	3.79
507.098	3.86
507.446	3.93
507.794	3.98
508.141	4.05
508.489	4.12
508.837	4.19
509.184	4.27
509.531	4.34
509.879	4.42
510.226	4.52
510.574	4.61
510.921	4.68
511.268	4.76
511.616	4.85
511.963	4.96
512.31	5.06
512.657	5.14
513.004	5.22
513.351	5.33
513.698	5.45
514.045	5.57
514.392	5.69
514.739	5.79
515.086	5.94
515.432	6.07
515.779	6.18
516.126	6.33
516.473	6.45
516.819	6.57
517.166	6.68
517.512	6.77
517.859	6.88
518.205	7
518.552	7.11
518.898	7.23
519.245	7.35
519.591	7.47
519.937	7.6
520.283	7.74
520.629	7.86
520.976	7.99
521.322	8.11
521.668	8.24
522.014	8.41
522.36	8.54
522.706	8.69
523.052	8.87
523.398	9.04
523.743	9.23
524.089	9.45
524.435	9.64
524.781	9.83
525.126	10
525.472	10.17
525.817	10.31
526.163	10.45
526.509	10.59
526.854	10.71
527.199	10.82
527.545	10.96
527.89	11.08
528.235	11.2
528.581	11.34
528.926	11.47
529.271	11.59
529.616	11.74
529.961	11.87
530.306	12.02
530.651	12.16
530.996	12.31
531.341	12.47
531.686	12.62
532.031	12.81
532.376	12.97
532.721	13.14
533.065	13.32
533.41	13.51
533.755	13.7
534.099	13.91
534.444	14.11
534.788	14.31
535.133	14.52
535.477	14.75
535.822	14.97
536.166	15.23
536.51	15.49
536.855	15.77
537.199	16.07
537.543	16.36
537.887	16.68
538.231	16.97
538.576	17.26
538.92	17.56
539.264	17.84
539.608	18.14
539.951	18.4
540.295	18.68
540.639	18.92
540.983	19.13
541.327	19.39
541.671	19.62
542.014	19.87
542.358	20.11
542.701	20.33
543.045	20.56
543.389	20.78
543.732	21.04
544.075	21.27
544.419	21.51
544.762	21.74
545.105	22.01
545.449	22.27
545.792	22.54
546.135	22.84
546.478	23.12
546.821	23.42
547.165	23.75
547.508	24.05
547.851	24.41
548.194	24.8
548.536	25.11
548.879	25.46
549.222	25.74
549.565	26.09
549.908	26.46
550.25	26.76
550.593	27.09
550.936	27.4
551.278	27.76
551.621	28.08
551.963	28.45
552.306	28.72
552.648	29.07
552.991	29.42
553.333	29.71
553.675	30.07
554.017	30.36
554.36	30.68
554.702	30.99
555.044	31.24
555.386	31.49
555.728	31.77
556.07	32.07
556.412	32.41
556.754	32.69
557.096	32.98
557.438	33.28
557.78	33.59
558.121	33.89
558.463	34.16
558.805	34.45
559.147	34.71
559.488	34.97
559.83	35.23
560.171	35.45
560.513	35.74
560.854	35.95
561.196	36.22
561.537	36.52
561.878	36.75
562.22	37.02
562.561	37.25
562.902	37.48
563.243	37.7
563.584	37.89
563.925	38.13
564.266	38.35
564.607	38.56
564.948	38.8
565.289	38.99
565.63	39.18
565.971	39.35
566.312	39.56
566.653	39.79
566.993	39.99
567.334	40.17
567.675	40.35
568.015	40.54
568.356	40.73
568.696	40.82
569.037	41.02
569.377	41.22
569.718	41.42
570.058	41.66
570.398	41.79
570.739	41.95
571.079	42.13
571.419	42.25
571.759	42.44
572.099	42.59
572.439	42.71
572.779	42.85
573.119	43.01
573.459	43.1
573.799	43.23
574.139	43.35
574.479	43.51
574.819	43.63
575.158	43.74
575.498	43.92
575.838	44.09
576.177	44.19
576.517	44.28
576.856	44.44
577.196	44.56
577.535	44.72
577.875	44.87
578.214	44.96
578.553	45.12
578.893	45.28
579.232	45.41
579.571	45.63
579.91	45.77
580.25	45.98
580.589	46.1
580.928	46.24
581.267	46.37
581.606	46.49
581.945	46.64
582.283	46.82
582.622	46.88
582.961	46.98
583.3	47.13
583.639	47.29
583.977	47.37
584.316	47.43
584.654	47.51
584.993	47.58
585.332	47.7
585.67	47.83
586.008	47.95
586.347	48.03
586.685	48.11
587.024	48.28
587.362	48.31
587.7	48.43
588.038	48.52
588.376	48.66
588.715	48.79
589.053	48.87
589.391	48.95
589.729	49.08
590.067	49.18
590.404	49.31
590.742	49.38
591.08	49.5
591.418	49.64
591.756	49.85
592.093	49.96
592.431	50.11
592.769	50.27
593.106	50.36
593.444	50.48
593.781	50.52
594.119	50.57
594.456	50.73
594.793	50.89
595.131	51
595.468	51.06
595.805	51.23
596.143	51.3
596.48	51.36
596.817	51.31
597.154	51.38
597.491	51.35
597.828	51.46
598.165	51.43
598.502	51.42
598.839	51.45
599.176	51.57
599.512	51.55
599.849	51.61
600.186	51.65
600.523	51.74
600.859	51.78
601.196	51.88
601.532	51.86
601.869	51.92
602.205	51.98
602.542	52.08
602.878	52.04
603.215	52.11
603.551	52.18
603.887	52.32
604.223	52.41
604.56	52.55
604.896	52.59
605.232	52.71
605.568	52.77
605.904	52.83
606.24	52.89
606.576	52.98
606.912	52.93
607.248	53.04
607.583	53.14
607.919	53.2
608.255	53.2
608.591	53.31
608.926	53.32
609.262	53.39
609.597	53.45
609.933	53.49
610.268	53.52
610.604	53.5
610.939	53.47
611.275	53.49
611.61	53.46
611.945	53.45
612.281	53.52
612.616	53.6
612.951	53.64
613.286	53.71
613.621	53.74
613.956	53.88
614.291	53.92
614.626	53.87
614.961	53.94
615.296	53.97
615.631	53.97
615.966	53.97
616.3	53.97
616.635	53.96
616.97	54.04
617.304	54.12
617.639	54.24
617.973	54.39
618.308	54.44
618.642	54.58
618.977	54.61
619.311	54.62
619.646	54.58
619.98	54.59
620.314	54.54
620.648	54.62
620.983	54.55
621.317	54.57
621.651	54.58
621.985	54.6
622.319	54.68
622.653	54.72
622.987	54.81
623.321	54.86
623.655	54.95
623.988	54.99
624.322	54.99
624.656	55.08
624.99	55.06
625.323	55.11
625.657	55.11
625.99	55.18
626.324	55.31
626.657	55.36
626.991	55.47
627.324	55.5
627.658	55.47
627.991	55.57
628.324	55.59
628.657	55.65
628.991	55.67
629.324	55.66
629.657	55.72
629.99	55.78
630.323	55.9
630.656	55.87
630.989	55.89
631.322	55.94
631.655	56.01
631.987	56.06
632.32	56.01
632.653	56.01
632.986	56.04
633.318	56.05
633.651	56.1
633.984	56.13
634.316	56.25
634.649	56.31
634.981	56.34
635.313	56.21
635.646	56.28
635.978	56.38
636.31	56.46
636.643	56.38
636.975	56.33
637.307	56.27
637.639	56.34
637.971	56.32
638.303	56.35
638.635	56.25
638.967	56.39
639.299	56.5
639.631	56.57
639.963	56.58
640.295	56.57
640.626	56.69
640.958	56.63
641.29	56.63
641.621	56.59
641.953	56.7
642.285	56.85
642.616	56.93
642.948	57
643.279	57
643.61	57.09
643.942	57.14
644.273	57.15
644.604	57.13
644.936	57.12
645.267	57.16
645.598	57.16
645.929	57.03
646.26	57.1
646.591	57.08
646.922	57.1
647.253	57.06
647.584	56.92
647.915	56.93
648.245	57.03
648.576	57.19
648.907	57.08
649.238	57.08
649.568	57.05
649.899	56.96
650.229	57
650.56	57.02
650.89	57.01
651.221	57
651.551	56.98
651.882	57.12
652.212	57.19
652.542	57.34
652.872	57.45
653.203	57.41
653.533	57.49
653.863	57.51
654.193	57.52
654.523	57.52
654.853	57.58
655.183	57.6
655.513	57.67
655.843	57.79
656.172	57.81
656.502	57.83
656.832	58.08
657.162	58.06
657.491	58.04
657.821	58.13
658.15	58.24
658.48	58.38
658.809	58.43
659.139	58.38
659.468	58.37
659.798	58.33
660.127	58.33
660.456	58.32
660.785	58.43
661.115	58.51
661.444	58.63
661.773	58.66
662.102	58.49
662.431	58.43
662.76	58.39
663.089	58.52
663.418	58.46
663.747	58.42
664.076	58.5
664.404	58.47
664.733	58.62
665.062	58.53
665.39	58.4
665.719	58.27
666.048	58.27
666.376	58.15
666.705	58.14
667.033	58.1
667.362	58.11
667.69	57.99
668.018	58.08
668.347	58.19
668.675	58.18
669.003	58.26
669.331	58.29
669.659	58.27
669.987	58.23
670.315	58.33
670.643	58.24
670.971	58.25
671.299	58.34
671.627	58.19
671.955	58.31
672.283	58.51
672.61	58.67
672.938	58.75
673.266	58.8
673.593	58.92
673.921	59.01
674.249	58.98
674.576	59
674.904	58.8
675.231	58.9
675.558	59.04
675.886	59.19
676.213	59.15
676.54	59.17
676.867	59.17
677.195	59.19
677.522	59.13
677.849	59.16
678.176	59.22
678.503	59.17
678.83	59.17
679.157	59.04
679.484	59
679.81	58.95
680.137	59.09
680.464	59.01
680.791	59.05
681.117	59.08
681.444	59.03
681.771	59.1
682.097	58.95
682.424	58.8
682.75	58.69
683.077	58.73
683.403	58.73
683.729	58.67
684.056	58.54
684.382	58.42
684.708	58.28
685.034	58.34
685.36	58.46
685.686	58.44
686.012	58.52
686.339	58.57
686.664	58.6
686.99	58.56
687.316	58.43
687.642	58.4
687.968	58.47
688.294	58.55
688.619	58.68
688.945	58.62
689.271	58.69
689.596	58.74
689.922	58.74
690.247	58.9
690.573	59.03
690.898	59.34
691.224	59.55
691.549	59.69
691.874	59.71
692.2	59.67
692.525	59.63
692.85	59.56
693.175	59.4
693.5	59.31
693.825	59.2
694.15	59.45
694.475	59.46
694.8	59.39
695.125	59.37
695.45	59.17
695.775	59.19
696.099	59.43
696.424	59.56
696.749	59.62
697.073	59.62
697.398	59.66
697.723	59.52
698.047	59.62
698.372	59.64
698.696	59.64
699.02	59.71
699.345	59.74
699.669	59.84
699.993	60.01
700.318	60.08
700.642	60.17
700.966	60.16
701.29	60.26
701.614	60.36
701.938	60.39
702.262	60.5
702.586	60.63
702.91	60.45
703.234	60.37
703.557	60.24
703.881	60.18
704.205	60.02
704.529	60.03
704.852	59.92
705.176	60.07
705.499	60.07
705.823	59.78
706.146	59.75
706.47	59.62
706.793	59.67
707.117	59.55
707.44	59.41
707.763	59.42
708.086	59.34
708.409	59.32
708.733	59.28
709.056	59.44
709.379	59.47
709.702	59.25
710.025	59.25
710.348	59.33
710.671	59.25
710.993	59.42
711.316	59.31
711.639	59.25
711.962	59.07
712.284	59.03
712.607	59.08
712.93	59.17
713.252	59.24
713.575	59.1
713.897	59.33
714.22	59.35
714.542	59.3
714.864	59.23
715.187	59.25
715.509	59.32
715.831	59.4
716.153	59.38
716.475	59.6
716.798	59.59
717.12	59.75
717.442	59.81
717.764	59.71
718.085	59.96
718.407	60.16
718.729	60.15
719.051	60.12
719.373	60.24
719.695	59.95
720.016	60
720.338	59.91
720.659	59.8
720.981	59.77
721.302	59.9
721.624	59.82
721.945	59.84
722.267	59.99
722.588	59.87
722.909	59.85
723.231	59.94
723.552	59.95
723.873	59.93
724.194	60.08
724.515	59.99
724.836	59.91
725.157	59.93
725.478	60.03
725.799	59.91
726.12	59.85
726.441	60.14
726.762	60.01
727.083	60.14
727.403	60.03
727.724	60.12
728.045	59.93
728.365	60.25
728.686	60.23
729.006	60.19
729.327	60.18
729.647	60.04
729.967	59.91
730.288	59.93
730.608	59.74
730.928	59.72
731.249	59.71
731.569	59.66
731.889	59.53
732.209	59.55
732.529	59.63
732.849	59.74
733.169	59.81
733.489	59.82
733.809	59.95
734.129	60.07
734.448	60.02
734.768	60.03
735.088	59.88
735.408	59.72
735.727	59.71
736.047	59.81
736.366	59.98
736.686	60.16
737.005	60.33
737.325	60.43
737.644	60.51
737.963	60.53
738.283	60.43
738.602	60.73
738.921	60.64
739.24	60.82
739.56	60.9
739.879	60.89
740.198	61.13
740.517	60.76
740.836	60.65
741.155	60.9
741.473	60.8
741.792	60.72
742.111	60.82
742.43	60.72
742.748	60.48
743.067	60.44
743.386	60.03
743.704	60.01
744.023	59.91
744.341	59.85
744.66	59.81
744.978	60.01
745.297	59.73
745.615	59.89
745.933	59.82
746.252	59.65
746.57	59.79
746.888	59.87
747.206	60.11
747.524	60.43
747.842	60.27
748.16	60.57
748.478	60.65
748.796	60.58
749.114	60.73
749.432	60.84
749.749	61.07
750.067	61.26
750.385	61.04
750.703	61.27
751.02	61.12
751.338	61.15
751.655	61.17
751.973	60.96
752.29	60.89
752.608	60.67
752.925	60.67
753.242	60.48
753.56	60.38
753.877	60.14
754.194	59.96
754.511	59.7
754.828	59.82
755.145	59.95
755.462	60.22
755.779	60.38
756.096	60.44
756.413	60.27
756.73	60.19
757.047	60.2
757.364	59.95
757.68	59.88
757.997	60.09
758.314	60.05
758.63	59.99
758.947	60.08
759.264	60.29
759.58	60.29
759.896	60.32
760.213	60.36
760.529	60.64
760.846	60.77
761.162	61
761.478	60.59
761.794	60.44
762.11	60.34
762.426	59.91
762.743	59.94
763.059	59.86
763.375	59.95
763.69	60.08
764.006	59.91
764.322	60.11
764.638	60.13
764.954	59.94
765.27	60.31
765.585	60.33
765.901	60.13
766.216	60.02
766.532	60.22
766.848	59.96
767.163	60.02
767.478	59.68
767.794	59.68
768.109	60.2
768.424	60.12
768.74	60.1
769.055	60.58
769.37	60.44
769.685	60.32
770	60.11
770.315	59.91
770.63	60.04
770.945	59.84
771.26	59.68
771.575	59.7
771.89	59.08
772.205	59.05
772.52	59.12
772.834	59.51
773.149	58.83
773.464	59.03
773.778	58.54
774.093	59.03
774.407	59.21
774.722	58.96
775.036	59.06
775.351	59.24
775.665	59.17
775.979	58.91
776.293	59.36
776.608	59.36
776.922	59.81
777.236	59.91
777.55	60.07
777.864	59.98
778.178	60.54
778.492	60.65
778.806	60.77
779.12	60.85
779.434	60.36
779.747	60.52
780.061	60.52
780.375	61.3
780.689	61.33
781.002	61.04
781.316	61.13
781.629	61.18
781.943	60.74
782.256	60.66
782.57	60.95
782.883	60.6
783.196	61.29
783.51	60.57
783.823	60.59
784.136	60.02
784.449	60.12
784.762	59.99
785.075	60.5
785.388	60.11
785.701	60.07
786.014	60.64
786.327	61.05
786.64	61.01
786.953	61.17
787.266	60.88
787.578	60.63
787.891	60.13
788.204	60.26
788.516	60.6
788.829	60.31
789.141	60.71
789.454	60.87
789.766	60.53
790.079	60.68
790.391	60.63
790.703	61.47
791.016	61.5
791.328	61.58
791.64	60.77
791.952	61.05
792.264	61.38
792.576	61.37
792.888	60.77
793.2	60.47
793.512	59.9
793.824	60.19
794.136	60.4
794.448	61.08
794.76	61.18
795.071	60.69
795.383	60.63
795.695	60.4
796.006	60.03
796.318	60.02
796.629	59.95
796.941	60.44
797.252	59.92
797.564	59.96
797.875	59.6
798.186	60.74
798.497	60.49
798.809	60.3
799.12	60.04
799.431	60.29
799.742	60.18
800.053	60.38
800.364	60.2
800.675	60.38
800.986	60.1
801.297	59.16
801.608	59.27
801.918	59.57
802.229	59.56
802.54	59.39
802.851	59.44
803.161	59.96
803.472	59.73
803.782	60.08
804.093	60.16
804.403	60.4
804.714	59.99
805.024	59.67
805.334	59.88
805.645	60.09
805.955	60.62
806.265	61.15
806.575	60.82
806.885	60.47
807.195	60.43
807.505	60.16
807.815	61.6
808.125	61.69
808.435	61.38
808.745	60.91
809.055	61.56
809.365	61.46
809.674	61.13
809.984	61.26
810.294	60.76
810.603	60.66
810.913	60.45
811.222	60.49
811.532	60.8
811.841	61.37
812.151	60.98
812.46	60.79
812.769	60.52
813.079	60.28
813.388	60.59
813.697	60.64
814.006	60.73
814.315	59.91
814.624	59.82
814.933	59.93
815.242	59.97
815.551	60.02
815.86	60.19
816.169	59.97
816.478	59.28
816.786	59.39
817.095	59.37
817.404	59.39
817.712	58.82
818.021	58.87
818.33	58.41
818.638	59.38
818.947	59.55
819.255	59.66
819.563	60.01
819.872	60.32
820.18	60.08
820.488	60.44
820.796	60.6
821.105	60.82
821.413	60.76
821.721	61.04
822.029	60.93
822.337	60.98
822.645	61.16
822.953	61.21
823.26	61.32
823.568	61.32
823.876	61.39
824.184	61.44
824.491	61.33
824.799	61.37
825.107	61.17
825.414	61.05
825.722	61.12
826.029	60.99
826.337	61.07
826.644	61.11
826.951	60.98
827.259	61.09
827.566	60.91
827.873	60.99
828.18	60.88
828.488	60.93
828.795	60.72
829.102	60.39
829.409	60.43
829.716	60.21
830.023	59.96
830.329	59.75
830.636	60.06
830.943	60.54
831.25	60.16
831.557	60.02
831.863	60.12
832.17	59.99
832.476	60.39
832.783	60.04
833.089	60.05
833.396	59.83
833.702	59.03
834.009	59.24
834.315	59.54
834.621	59.34
834.928	59.31
835.234	59.7
835.54	59.79
835.846	59.77
836.152	59.65
836.458	60.13
836.764	60.3
837.07	59.37
837.376	58.95
837.682	59.97
837.988	60.22
838.293	60.05
838.599	59.52
838.905	59.07
839.211	58.74
839.516	59.38
839.822	59.52
840.127	59.79
840.433	59.53
840.738	58.82
841.044	58.31
841.349	57.84
841.654	57.41
841.959	57.17
842.265	57.35
842.57	56.92
842.875	57.46
843.18	56.86
843.485	57.8
843.79	58.45
844.095	56.25
844.4	56.1
844.705	55.74
845.01	57.24
845.315	57.42
845.619	57.85
845.924	56.12
846.229	56.1
846.533	56.53
846.838	56.61
847.142	55.83
847.447	56.1
847.751	56.25
848.056	55.58
848.36	56.09
848.664	55.16
848.969	55.81
849.273	53.24
849.577	52.42
849.881	52.21
850.185	50.12
850.489	51.03
850.794	51.95
851.097	52.61
851.401	50.37
851.705	49.79
852.009	50.01
852.313	50.05
852.617	49.53
852.92	50.55
853.224	49.56
853.528	48.74
853.831	50.05
854.135	51.32
854.438	51.09
854.742	51.72
855.045	52.5
855.349	53.24
855.652	53.29
855.955	54.19
856.259	54.43
856.562	55.34
856.865	53.5
857.168	51.95
857.471	51.86
857.774	53.99
858.077	53.33
858.38	51.93
858.683	51.56
858.986	52
859.289	51
859.592	51.56
859.894	54.78
860.197	55.12
860.5	52.28
860.802	52.46
861.105	52.18
861.407	51.01
861.71	49.56
862.012	50.71
862.315	50.38
862.617	49.3
862.919	49.66
863.222	51.91
863.524	52.42
863.826	51.49
864.128	51.92
864.43	52.38
864.732	51.65
865.034	52.86
865.336	52.08
865.638	50.84
865.94	50.95
866.242	51.11
866.544	51.52
866.846	53.06
867.147	53.39
867.449	53.91
867.751	53
868.052	54.71
868.354	54.06
868.655	54.7
868.957	56.47
869.258	56.47
869.56	57.49
869.861	58.66
870.162	59.98
870.463	58.08
870.765	56.42
871.066	57.49
871.367	57.07
871.668	59.05
871.969	60.09
872.27	61.24
872.571	59.52
872.872	56.15
873.173	54.7
873.473	54.7
873.774	53.68
874.075	55.42
874.376	53.19
874.676	54.29
874.977	54.73
875.277	53.99
875.578	55.66
875.878	54.28
876.179	52.2
876.479	51.59
876.78	51.38
877.08	53.96
877.38	54.24
877.68	54.75
877.981	52.39
878.281	53.59
878.581	52.88
