Data from BU26940_Reflection_00008.txt Node
Date: Tue Nov 19 11:00:22 EST 2019
User: vgr7
Spectrometer: USB2G7710
Scans to average: 3
Trigger mode: 4
Integration Time (sec): 2.000000E-2
Electric dark correction enabled: true
Boxcar width: 10
XAxis mode: Wavelengths
Number of Pixels in Spectrum: 2048
>>>>>Begin Spectral Data<<<<<
177.721	123.62
178.105	-3900
178.488	45.78
178.871	30.77
179.254	150
179.636	116.3
180.019	-60.71
180.402	40
180.785	21.05
181.168	49.15
181.55	80.77
181.933	66.29
182.316	84.13
182.698	43.97
183.081	22.54
183.463	29.45
183.846	58.02
184.228	93.51
184.611	100
184.993	80
185.376	126.52
185.758	108.13
186.14	105.71
186.522	150.46
186.904	286.67
187.287	292.31
187.669	415.38
188.051	609.8
188.433	1330.77
188.815	-2275
189.197	-2938.46
189.579	-576.47
189.961	-1596.43
190.342	-609.46
190.724	-525
191.106	-375.21
191.488	-269.82
191.869	-172.54
192.251	-183.85
192.633	-177.78
193.014	-181.91
193.396	-142.79
193.777	-120.93
194.159	-99.25
194.54	-112.45
194.922	-108.18
195.303	-101.89
195.684	-101.47
196.065	-131.4
196.447	-119.26
196.828	-109.21
197.209	-106.61
197.59	-72.54
197.971	-77.67
198.352	-85.76
198.733	-110.53
199.114	-117.23
199.495	-125.32
199.876	-177.47
200.257	-170.64
200.638	-207.91
201.018	-156.15
201.399	-163.37
201.78	-137.02
202.16	-139.66
202.541	-143.94
202.922	-121.88
203.302	-96.29
203.683	-97.33
204.063	-86.84
204.444	-108.33
204.824	-125.76
205.204	-97.67
205.585	-108.79
205.965	-106.9
206.345	-97.48
206.725	-63.9
207.106	-49.77
207.486	-47.73
207.866	-43.65
208.246	-27.64
208.626	-30.75
209.006	-33.07
209.386	-30.6
209.766	-40.22
210.145	-42.57
210.525	-36.96
210.905	-41.28
211.285	-44.74
211.664	-50
212.044	-45.92
212.424	-37.25
212.803	-27.41
213.183	-40.7
213.562	-40.7
213.942	-48.34
214.321	-59.35
214.701	-69.25
215.08	-74.8
215.459	-75.85
215.838	-67.99
216.218	-85.34
216.597	-80.99
216.976	-79.05
217.355	-77.2
217.734	-64.25
218.113	-58.54
218.492	-73.32
218.871	-65.52
219.25	-61.59
219.629	-45.36
220.008	-38.32
220.387	-31.46
220.766	-34.5
221.144	-27.98
221.523	-22.27
221.902	-9.24
222.28	-14.29
222.659	-15.51
223.037	-19.21
223.416	-18.7
223.794	-25.6
224.173	-26.4
224.551	-25
224.929	-30.13
225.308	-27.43
225.686	-24.3
226.064	-27.68
226.442	-20.21
226.821	-20.1
227.199	-19.98
227.577	-24.8
227.955	-23.42
228.333	-25.54
228.711	-21.96
229.089	-18.35
229.467	-18.45
229.845	-17.71
230.222	-12.26
230.6	-10.53
230.978	-7.05
231.356	-6.68
231.733	-6.79
232.111	-4.86
232.488	-3.37
232.866	-1.36
233.243	-1.76
233.621	-1.32
233.998	1.36
234.376	1.98
234.753	-0
235.13	0.18
235.508	1.62
235.885	0.1
236.262	1.36
236.639	0.49
237.016	-0.93
237.393	-1.05
237.77	-0
238.147	-0.49
238.524	-0.82
238.901	-2.62
239.278	-2.4
239.655	-1.03
240.032	-1.12
240.409	-0.86
240.785	-0.69
241.162	-0.3
241.539	0.16
241.915	-0.16
242.292	-0.32
242.668	0.32
243.045	0.85
243.421	1.37
243.798	1.93
244.174	1.91
244.551	2.21
244.927	2.47
245.303	2.65
245.679	2.46
246.056	2.59
246.432	2.58
246.808	2.81
247.184	2.96
247.56	2.84
247.936	2.99
248.312	3.17
248.688	3.15
249.064	3.11
249.44	3
249.815	3.26
250.191	3.44
250.567	3.5
250.943	3.33
251.318	3.03
251.694	2.78
252.069	2.75
252.445	2.76
252.82	2.79
253.196	2.93
253.571	2.85
253.947	2.68
254.322	2.51
254.697	2.91
255.073	3.03
255.448	3.18
255.823	3.07
256.198	2.85
256.573	2.91
256.948	2.92
257.323	2.98
257.698	2.88
258.073	2.62
258.448	2.74
258.823	2.69
259.198	2.71
259.573	2.68
259.948	2.74
260.322	2.79
260.697	2.7
261.072	2.52
261.446	2.78
261.821	2.86
262.195	2.94
262.57	2.83
262.944	2.75
263.319	2.75
263.693	2.77
264.067	2.72
264.442	2.71
264.816	2.68
265.19	2.52
265.564	2.46
265.938	2.73
266.313	2.64
266.687	2.74
267.061	2.81
267.435	3.06
267.809	3.07
268.183	2.94
268.556	3.04
268.93	3.09
269.304	2.88
269.678	2.95
270.051	2.94
270.425	2.77
270.799	2.67
271.172	2.49
271.546	2.39
271.919	2.34
272.293	2.27
272.666	2.26
273.04	2.27
273.413	2.15
273.787	2.1
274.16	1.94
274.533	2.02
274.906	1.97
275.279	1.91
275.653	1.81
276.026	1.86
276.399	1.88
276.772	1.84
277.145	1.7
277.518	1.5
277.891	1.63
278.263	1.93
278.636	2.02
279.009	2.09
279.382	2.22
279.755	2.44
280.127	2.5
280.5	2.38
280.872	2.47
281.245	2.55
281.617	2.64
281.99	2.65
282.362	2.59
282.735	2.6
283.107	2.49
283.479	2.54
283.852	2.62
284.224	2.72
284.596	2.72
284.968	2.79
285.34	3.01
285.713	2.94
286.085	2.9
286.457	2.97
286.829	3.02
287.201	3.08
287.572	3.19
287.944	3.32
288.316	3.51
288.688	3.57
289.06	3.72
289.431	3.66
289.803	3.88
290.175	3.85
290.546	3.85
290.918	4
291.289	4.05
291.661	4
292.032	3.9
292.403	4.13
292.775	4.25
293.146	4.3
293.517	4.23
293.889	4.12
294.26	4.11
294.631	4.26
295.002	4.35
295.373	4.26
295.744	4.17
296.115	4.12
296.486	4.14
296.857	4.1
297.228	4.11
297.599	4.04
297.97	4.23
298.34	4.41
298.711	4.47
299.082	4.51
299.452	4.56
299.823	4.62
300.194	4.59
300.564	4.64
300.935	4.66
301.305	4.82
301.676	4.96
302.046	5.06
302.416	4.96
302.787	4.96
303.157	5.13
303.527	5.3
303.897	5.46
304.267	5.4
304.637	5.45
305.008	5.58
305.378	5.7
305.748	5.69
306.117	5.69
306.487	5.77
306.857	5.9
307.227	5.94
307.597	6.01
307.967	6.11
308.336	6.24
308.706	6.24
309.076	6.3
309.445	6.4
309.815	6.53
310.184	6.54
310.554	6.63
310.923	6.59
311.293	6.59
311.662	6.71
312.031	6.89
312.401	6.95
312.77	7.12
313.139	7.16
313.508	7.13
313.877	7.16
314.246	7.22
314.616	7.38
314.985	7.52
315.353	7.69
315.722	7.67
316.091	7.71
316.46	7.85
316.829	7.92
317.198	7.92
317.567	8.04
317.935	8.2
318.304	8.39
318.672	8.36
319.041	8.43
319.41	8.43
319.778	8.48
320.147	8.56
320.515	8.4
320.883	8.67
321.252	8.86
321.62	8.91
321.988	8.93
322.357	8.97
322.725	8.92
323.093	8.76
323.461	8.9
323.829	8.92
324.197	8.89
324.565	8.89
324.933	8.91
325.301	8.79
325.669	8.83
326.037	8.65
326.405	8.79
326.772	8.91
327.14	8.77
327.508	8.82
327.875	8.84
328.243	8.98
328.61	8.89
328.978	8.75
329.346	8.88
329.713	8.85
330.08	8.73
330.448	8.94
330.815	9.12
331.182	9.18
331.55	9.18
331.917	9.21
332.284	9.4
332.651	9.53
333.018	9.74
333.385	9.93
333.752	10.12
334.119	10.19
334.486	10.22
334.853	10.52
335.22	10.42
335.587	10.63
335.954	10.59
336.32	10.45
336.687	10.68
337.054	10.77
337.42	10.85
337.787	10.96
338.153	10.94
338.52	10.96
338.886	11.01
339.253	11.03
339.619	11.11
339.986	11.05
340.352	11.12
340.718	10.99
341.084	10.79
341.451	10.78
341.817	10.8
342.183	10.77
342.549	10.75
342.915	10.91
343.281	10.99
343.647	11.11
344.013	11.18
344.379	11.16
344.745	11.04
345.11	11
345.476	10.92
345.842	10.87
346.208	10.9
346.573	10.89
346.939	11.03
347.304	11.08
347.67	11.14
348.035	10.97
348.401	11.07
348.766	11.09
349.132	11.02
349.497	11
349.862	11.04
350.228	10.99
350.593	10.94
350.958	10.86
351.323	10.77
351.688	10.96
352.053	10.97
352.418	11.02
352.783	11.08
353.148	11.19
353.513	11.19
353.878	11.23
354.243	11.16
354.608	11.09
354.972	11.06
355.337	11.04
355.702	11.15
356.066	11.16
356.431	11.13
356.795	11.18
357.16	11.22
357.524	11.19
357.889	11.07
358.253	11.13
358.618	11.12
358.982	11.08
359.346	11.03
359.71	10.97
360.075	11.02
360.439	10.99
360.803	10.93
361.167	10.93
361.531	10.85
361.895	10.84
362.259	10.87
362.623	10.84
362.987	10.92
363.351	10.9
363.714	10.92
364.078	10.96
364.442	10.93
364.806	10.91
365.169	10.92
365.533	11.04
365.896	10.98
366.26	10.9
366.623	10.92
366.987	10.78
367.35	10.77
367.714	10.72
368.077	10.68
368.44	10.66
368.803	10.59
369.167	10.5
369.53	10.54
369.893	10.42
370.256	10.31
370.619	10.14
370.982	10.11
371.345	10.04
371.708	9.95
372.071	9.85
372.434	9.75
372.797	9.69
373.159	9.55
373.522	9.48
373.885	9.42
374.247	9.38
374.61	9.36
374.973	9.27
375.335	9.16
375.698	9.1
376.06	9.02
376.423	8.99
376.785	8.99
377.147	8.86
377.51	8.83
377.872	8.79
378.234	8.74
378.596	8.63
378.958	8.48
379.321	8.41
379.683	8.38
380.045	8.29
380.407	8.17
380.769	8.14
381.13	8.1
381.492	8.03
381.854	7.9
382.216	7.88
382.578	7.85
382.939	7.76
383.301	7.67
383.663	7.59
384.024	7.58
384.386	7.49
384.747	7.41
385.109	7.36
385.47	7.31
385.832	7.23
386.193	7.18
386.554	7.11
386.916	7.1
387.277	7.04
387.638	7.01
387.999	6.94
388.36	6.82
388.721	6.72
389.082	6.66
389.443	6.65
389.804	6.62
390.165	6.56
390.526	6.55
390.887	6.52
391.248	6.46
391.609	6.39
391.969	6.36
392.33	6.34
392.691	6.25
393.051	6.21
393.412	6.16
393.772	6.13
394.133	6.1
394.493	6.04
394.854	6
395.214	5.97
395.574	5.9
395.935	5.87
396.295	5.87
396.655	5.83
397.015	5.76
397.376	5.67
397.736	5.59
398.096	5.56
398.456	5.54
398.816	5.49
399.176	5.4
399.535	5.32
399.895	5.28
400.255	5.25
400.615	5.18
400.975	5.14
401.334	5.09
401.694	5.03
402.054	4.97
402.413	4.93
402.773	4.85
403.132	4.85
403.492	4.89
403.851	4.83
404.211	4.8
404.57	4.76
404.929	4.71
405.288	4.72
405.648	4.69
406.007	4.62
406.366	4.64
406.725	4.64
407.084	4.65
407.443	4.65
407.802	4.67
408.161	4.67
408.52	4.67
408.879	4.66
409.238	4.67
409.596	4.68
409.955	4.64
410.314	4.65
410.673	4.65
411.031	4.62
411.39	4.6
411.748	4.59
412.107	4.58
412.465	4.57
412.824	4.55
413.182	4.52
413.54	4.49
413.899	4.45
414.257	4.45
414.615	4.42
414.974	4.39
415.332	4.35
415.69	4.32
416.048	4.31
416.406	4.27
416.764	4.23
417.122	4.22
417.48	4.21
417.838	4.2
418.195	4.17
418.553	4.13
418.911	4.12
419.269	4.11
419.626	4.1
419.984	4.08
420.342	4.06
420.699	4.03
421.057	4.02
421.414	4.01
421.772	3.98
422.129	3.96
422.486	3.95
422.844	3.93
423.201	3.92
423.558	3.89
423.915	3.88
424.273	3.86
424.63	3.84
424.987	3.84
425.344	3.81
425.701	3.79
426.058	3.78
426.415	3.76
426.772	3.74
427.128	3.72
427.485	3.69
427.842	3.68
428.199	3.69
428.555	3.66
428.912	3.64
429.269	3.62
429.625	3.61
429.982	3.61
430.338	3.59
430.695	3.58
431.051	3.59
431.407	3.57
431.764	3.57
432.12	3.58
432.476	3.57
432.832	3.58
433.189	3.59
433.545	3.6
433.901	3.59
434.257	3.57
434.613	3.55
434.969	3.58
435.325	3.6
435.681	3.6
436.036	3.61
436.392	3.63
436.748	3.64
437.104	3.65
437.459	3.65
437.815	3.66
438.171	3.68
438.526	3.69
438.882	3.71
439.237	3.73
439.593	3.72
439.948	3.71
440.304	3.71
440.659	3.71
441.014	3.72
441.369	3.72
441.725	3.75
442.08	3.76
442.435	3.74
442.79	3.74
443.145	3.73
443.5	3.74
443.855	3.73
444.21	3.72
444.565	3.71
444.92	3.7
445.275	3.69
445.629	3.68
445.984	3.66
446.339	3.65
446.693	3.64
447.048	3.62
447.403	3.62
447.757	3.59
448.112	3.59
448.466	3.56
448.82	3.55
449.175	3.52
449.529	3.52
449.883	3.51
450.238	3.48
450.592	3.48
450.946	3.46
451.3	3.46
451.654	3.44
452.008	3.42
452.362	3.39
452.716	3.38
453.07	3.39
453.424	3.38
453.778	3.35
454.132	3.34
454.486	3.35
454.839	3.34
455.193	3.36
455.547	3.35
455.9	3.36
456.254	3.36
456.607	3.38
456.961	3.38
457.314	3.38
457.668	3.37
458.021	3.38
458.375	3.38
458.728	3.38
459.081	3.39
459.434	3.4
459.787	3.4
460.141	3.41
460.494	3.38
460.847	3.4
461.2	3.42
461.553	3.43
461.906	3.44
462.259	3.44
462.611	3.46
462.964	3.48
463.317	3.48
463.67	3.51
464.022	3.51
464.375	3.52
464.728	3.53
465.08	3.57
465.433	3.59
465.785	3.6
466.138	3.64
466.49	3.68
466.843	3.72
467.195	3.76
467.547	3.78
467.899	3.85
468.252	3.86
468.604	3.87
468.956	3.91
469.308	3.91
469.66	3.96
470.012	3.97
470.364	3.99
470.716	4.02
471.068	4.05
471.42	4.06
471.772	4.09
472.123	4.11
472.475	4.11
472.827	4.12
473.178	4.15
473.53	4.12
473.882	4.12
474.233	4.12
474.585	4.14
474.936	4.13
475.288	4.1
475.639	4.11
475.99	4.11
476.342	4.1
476.693	4.11
477.044	4.11
477.395	4.08
477.746	4.06
478.097	4.05
478.448	4.03
478.8	4.02
479.15	4
479.501	3.98
479.852	3.96
480.203	3.95
480.554	3.94
480.905	3.96
481.255	3.95
481.606	3.94
481.957	3.94
482.307	3.92
482.658	3.92
483.009	3.9
483.359	3.9
483.709	3.89
484.06	3.88
484.41	3.88
484.761	3.88
485.111	3.88
485.461	3.87
485.811	3.87
486.162	3.87
486.512	3.88
486.862	3.89
487.212	3.89
487.562	3.89
487.912	3.89
488.262	3.9
488.612	3.9
488.961	3.9
489.311	3.89
489.661	3.9
490.011	3.89
490.36	3.91
490.71	3.91
491.06	3.92
491.409	3.92
491.759	3.92
492.108	3.93
492.458	3.93
492.807	3.95
493.157	3.98
493.506	4
493.855	4
494.204	4.02
494.554	4.04
494.903	4.08
495.252	4.11
495.601	4.14
495.95	4.17
496.299	4.22
496.648	4.26
496.997	4.33
497.346	4.4
497.695	4.46
498.043	4.56
498.392	4.64
498.741	4.74
499.09	4.83
499.438	4.91
499.787	5.01
500.135	5.1
500.484	5.19
500.832	5.28
501.181	5.41
501.529	5.52
501.878	5.64
502.226	5.75
502.574	5.86
502.923	6
503.271	6.15
503.619	6.3
503.967	6.45
504.315	6.6
504.663	6.79
505.011	6.95
505.359	7.1
505.707	7.28
506.055	7.45
506.403	7.63
506.751	7.83
507.098	8.04
507.446	8.25
507.794	8.46
508.141	8.68
508.489	8.87
508.837	9.09
509.184	9.31
509.531	9.54
509.879	9.75
510.226	9.97
510.574	10.19
510.921	10.4
511.268	10.66
511.616	10.92
511.963	11.16
512.31	11.43
512.657	11.72
513.004	12
513.351	12.31
513.698	12.64
514.045	12.95
514.392	13.29
514.739	13.63
515.086	13.97
515.432	14.32
515.779	14.66
516.126	15
516.473	15.33
516.819	15.62
517.166	15.93
517.512	16.23
517.859	16.53
518.205	16.8
518.552	17.06
518.898	17.31
519.245	17.58
519.591	17.85
519.937	18.1
520.283	18.37
520.629	18.64
520.976	18.93
521.322	19.26
521.668	19.54
522.014	19.84
522.36	20.16
522.706	20.44
523.052	20.81
523.398	21.19
523.743	21.54
524.089	21.92
524.435	22.26
524.781	22.6
525.126	22.92
525.472	23.23
525.817	23.48
526.163	23.76
526.509	23.99
526.854	24.2
527.199	24.41
527.545	24.59
527.89	24.81
528.235	25
528.581	25.18
528.926	25.38
529.271	25.57
529.616	25.76
529.961	25.97
530.306	26.17
530.651	26.36
530.996	26.57
531.341	26.77
531.686	27
532.031	27.21
532.376	27.42
532.721	27.65
533.065	27.9
533.41	28.09
533.755	28.32
534.099	28.57
534.444	28.8
534.788	29.04
535.133	29.26
535.477	29.46
535.822	29.73
536.166	29.99
536.51	30.27
536.855	30.55
537.199	30.85
537.543	31.1
537.887	31.36
538.231	31.63
538.576	31.93
538.92	32.21
539.264	32.47
539.608	32.71
539.951	32.89
540.295	33.12
540.639	33.31
540.983	33.52
541.327	33.72
541.671	33.91
542.014	34.1
542.358	34.26
542.701	34.49
543.045	34.61
543.389	34.76
543.732	34.92
544.075	35.09
544.419	35.25
544.762	35.43
545.105	35.64
545.449	35.83
545.792	36
546.135	36.18
546.478	36.39
546.821	36.57
547.165	36.82
547.508	37.04
547.851	37.3
548.194	37.48
548.536	37.67
548.879	37.85
549.222	38.08
549.565	38.34
549.908	38.53
550.25	38.81
550.593	38.98
550.936	39.19
551.278	39.36
551.621	39.51
551.963	39.74
552.306	39.9
552.648	40.13
552.991	40.31
553.333	40.47
553.675	40.55
554.017	40.75
554.36	40.91
554.702	41.03
555.044	41.16
555.386	41.36
555.728	41.55
556.07	41.74
556.412	41.87
556.754	41.94
557.096	42.05
557.438	42.18
557.78	42.39
558.121	42.55
558.463	42.7
558.805	42.86
559.147	42.96
559.488	43.08
559.83	43.2
560.171	43.32
560.513	43.49
560.854	43.7
561.196	43.84
561.537	43.99
561.878	44.19
562.22	44.33
562.561	44.43
562.902	44.53
563.243	44.66
563.584	44.76
563.925	44.9
564.266	44.98
564.607	45.09
564.948	45.13
565.289	45.24
565.63	45.32
565.971	45.39
566.312	45.51
566.653	45.65
566.993	45.74
567.334	45.85
567.675	45.96
568.015	46.06
568.356	46.2
568.696	46.26
569.037	46.3
569.377	46.35
569.718	46.42
570.058	46.5
570.398	46.59
570.739	46.72
571.079	46.8
571.419	46.89
571.759	46.96
572.099	47.1
572.439	47.15
572.779	47.19
573.119	47.32
573.459	47.44
573.799	47.48
574.139	47.52
574.479	47.57
574.819	47.6
575.158	47.64
575.498	47.64
575.838	47.69
576.177	47.73
576.517	47.83
576.856	47.9
577.196	47.97
577.535	48.02
577.875	48.05
578.214	48.08
578.553	48.17
578.893	48.18
579.232	48.19
579.571	48.27
579.91	48.41
580.25	48.44
580.589	48.38
580.928	48.48
581.267	48.51
581.606	48.61
581.945	48.65
582.283	48.76
582.622	48.85
582.961	48.95
583.3	49.04
583.639	49.05
583.977	49.13
584.316	49.2
584.654	49.31
584.993	49.3
585.332	49.45
585.67	49.5
586.008	49.56
586.347	49.67
586.685	49.76
587.024	49.88
587.362	50
587.7	50.13
588.038	50.29
588.376	50.42
588.715	50.4
589.053	50.53
589.391	50.53
589.729	50.62
590.067	50.67
590.404	50.76
590.742	50.86
591.08	50.91
591.418	50.9
591.756	50.93
592.093	51.03
592.431	51.09
592.769	51.13
593.106	51.22
593.444	51.3
593.781	51.36
594.119	51.34
594.456	51.32
594.793	51.33
595.131	51.31
595.468	51.31
595.805	51.47
596.143	51.51
596.48	51.56
596.817	51.55
597.154	51.59
597.491	51.62
597.828	51.66
598.165	51.68
598.502	51.79
598.839	51.85
599.176	51.89
599.512	51.88
599.849	51.96
600.186	52.03
600.523	52.01
600.859	52.04
601.196	52.17
601.532	52.27
601.869	52.35
602.205	52.38
602.542	52.41
602.878	52.44
603.215	52.46
603.551	52.47
603.887	52.49
604.223	52.53
604.56	52.54
604.896	52.64
605.232	52.72
605.568	52.74
605.904	52.7
606.24	52.69
606.576	52.74
606.912	52.74
607.248	52.77
607.583	52.86
607.919	52.85
608.255	52.82
608.591	52.83
608.926	52.86
609.262	52.93
609.597	52.97
609.933	52.88
610.268	52.9
610.604	52.95
610.939	53.04
611.275	53.03
611.61	53.13
611.945	53.1
612.281	53.05
612.616	53.08
612.951	53.16
613.286	53.3
613.621	53.3
613.956	53.35
614.291	53.33
614.626	53.42
614.961	53.46
615.296	53.56
615.631	53.57
615.966	53.5
616.3	53.48
616.635	53.57
616.97	53.77
617.304	53.82
617.639	53.83
617.973	53.75
618.308	53.81
618.642	53.7
618.977	53.68
619.311	53.77
619.646	53.77
619.98	53.82
620.314	53.71
620.648	53.76
620.983	53.84
621.317	53.83
621.651	53.76
621.985	53.88
622.319	53.78
622.653	53.76
622.987	53.84
623.321	53.81
623.655	53.82
623.988	53.81
624.322	53.8
624.656	53.74
624.99	53.87
625.323	53.81
625.657	53.94
625.99	54
626.324	53.93
626.657	53.96
626.991	53.96
627.324	54.06
627.658	54.17
627.991	54.17
628.324	54.26
628.657	54.31
628.991	54.26
629.324	54.38
629.657	54.43
629.99	54.4
630.323	54.42
630.656	54.42
630.989	54.42
631.322	54.46
631.655	54.55
631.987	54.5
632.32	54.6
632.653	54.57
632.986	54.57
633.318	54.61
633.651	54.61
633.984	54.6
634.316	54.52
634.649	54.44
634.981	54.39
635.313	54.44
635.646	54.43
635.978	54.46
636.31	54.39
636.643	54.41
636.975	54.44
637.307	54.52
637.639	54.49
637.971	54.51
638.303	54.48
638.635	54.5
638.967	54.58
639.299	54.58
639.631	54.57
639.963	54.58
640.295	54.71
640.626	54.67
640.958	54.79
641.29	54.9
641.621	54.84
641.953	54.84
642.285	54.76
642.616	54.83
642.948	54.84
643.279	54.89
643.61	54.92
643.942	54.98
644.273	55.06
644.604	55.09
644.936	55.08
645.267	55.14
645.598	55.11
645.929	55.13
646.26	55.14
646.591	55.13
646.922	55.1
647.253	55.13
647.584	55.25
647.915	55.13
648.245	55.16
648.576	55.27
648.907	55.28
649.238	55.3
649.568	55.22
649.899	55.24
650.229	55.27
650.56	55.37
650.89	55.48
651.221	55.45
651.551	55.4
651.882	55.45
652.212	55.61
652.542	55.68
652.872	55.72
653.203	55.71
653.533	55.74
653.863	55.86
654.193	55.76
654.523	55.8
654.853	55.85
655.183	55.83
655.513	55.94
655.843	55.95
656.172	56.05
656.502	56.12
656.832	56.21
657.162	56.2
657.491	56.14
657.821	56.12
658.15	56.11
658.48	56.23
658.809	56.31
659.139	56.17
659.468	56.21
659.798	56.15
660.127	56.23
660.456	56.22
660.785	56.24
661.115	56.29
661.444	56.33
661.773	56.32
662.102	56.39
662.431	56.28
662.76	56.39
663.089	56.33
663.418	56.34
663.747	56.27
664.076	56.27
664.404	56.18
664.733	56.09
665.062	56.08
665.39	55.97
665.719	55.99
666.048	56.02
666.376	56.02
666.705	56.15
667.033	56.09
667.362	56.2
667.69	56.13
668.018	56.2
668.347	56.11
668.675	56.25
669.003	56.34
669.331	56.33
669.659	56.25
669.987	56.2
670.315	56.15
670.643	56.22
670.971	56.22
671.299	56.36
671.627	56.41
671.955	56.35
672.283	56.53
672.61	56.4
672.938	56.31
673.266	56.22
673.593	56.11
673.921	56.23
674.249	56.15
674.576	56.19
674.904	56.3
675.231	56.29
675.558	56.28
675.886	56.35
676.213	56.34
676.54	56.33
676.867	56.58
677.195	56.69
677.522	56.75
677.849	56.75
678.176	56.78
678.503	56.79
678.83	56.91
679.157	56.91
679.484	56.96
679.81	57.05
680.137	57.04
680.464	57
680.791	56.92
681.117	57.11
681.444	57.08
681.771	57.01
682.097	57.03
682.424	57.01
682.75	56.87
683.077	56.98
683.403	57.12
683.729	57.07
684.056	57.06
684.382	56.96
684.708	57.02
685.034	57.08
685.36	57.14
685.686	57.1
686.012	57.12
686.339	57.04
686.664	57.17
686.99	57.24
687.316	57.43
687.642	57.57
687.968	57.53
688.294	57.5
688.619	57.45
688.945	57.48
689.271	57.36
689.596	57.31
689.922	57.24
690.247	57.22
690.573	57.14
690.898	57.19
691.224	57.25
691.549	57.27
691.874	57.27
692.2	57.19
692.525	57.19
692.85	57.18
693.175	57.32
693.5	57.2
693.825	57.08
694.15	57.19
694.475	57.24
694.8	57.17
695.125	57.22
695.45	57.29
695.775	57.32
696.099	57.5
696.424	57.54
696.749	57.79
697.073	57.75
697.398	57.77
697.723	57.68
698.047	57.68
698.372	57.6
698.696	57.55
699.02	57.53
699.345	57.52
699.669	57.42
699.993	57.5
700.318	57.52
700.642	57.85
700.966	57.61
701.29	57.56
701.614	57.45
701.938	57.58
702.262	57.49
702.586	57.49
702.91	57.42
703.234	57.37
703.557	57.12
703.881	57.26
704.205	57.29
704.529	57.25
704.852	57.27
705.176	57.34
705.499	57.31
705.823	57.46
706.146	57.51
706.47	57.64
706.793	57.64
707.117	57.58
707.44	57.44
707.763	57.57
708.086	57.58
708.409	57.63
708.733	57.43
709.056	57.51
709.379	57.55
709.702	57.5
710.025	57.44
710.348	57.54
710.671	57.45
710.993	57.42
711.316	57.62
711.639	57.58
711.962	57.6
712.284	57.53
712.607	57.49
712.93	57.45
713.252	57.5
713.575	57.43
713.897	57.29
714.22	57.18
714.542	57.23
714.864	57.07
715.187	57.15
715.509	57.19
715.831	57.26
716.153	57.29
716.475	57.2
716.798	57.24
717.12	57.17
717.442	56.99
717.764	57.04
718.085	56.79
718.407	56.77
718.729	56.89
719.051	56.91
719.373	56.86
719.695	56.88
720.016	56.62
720.338	56.8
720.659	56.92
720.981	57.01
721.302	56.88
721.624	57.14
721.945	57.35
722.267	57.47
722.588	57.16
722.909	57.04
723.231	57.12
723.552	57.22
723.873	57.31
724.194	57.48
724.515	57.55
724.836	57.66
725.157	57.89
725.478	57.6
725.799	57.71
726.12	57.63
726.441	57.75
726.762	58.07
727.083	57.83
727.403	58.01
727.724	57.93
728.045	57.88
728.365	57.73
728.686	57.61
729.006	57.65
729.327	57.8
729.647	57.84
729.967	57.84
730.288	57.94
730.608	57.83
730.928	57.86
731.249	57.9
731.569	58
731.889	57.91
732.209	58.01
732.529	57.79
732.849	57.87
733.169	57.63
733.489	57.51
733.809	57.74
734.129	57.79
734.448	57.94
734.768	58.07
735.088	58.14
735.408	58.08
735.727	58.18
736.047	58.41
736.366	58.4
736.686	58.69
737.005	58.48
737.325	58.61
737.644	58.67
737.963	58.57
738.283	58.43
738.602	58.43
738.921	58.61
739.24	58.46
739.56	58.54
739.879	58.92
740.198	58.95
740.517	58.53
740.836	58.62
741.155	58.49
741.473	58.44
741.792	58.55
742.111	58.68
742.43	58.35
742.748	57.96
743.067	57.93
743.386	57.53
743.704	57.67
744.023	57.55
744.341	57.31
744.66	57.05
744.978	57.08
745.297	56.92
745.615	56.86
745.933	57.41
746.252	57.6
746.57	57.24
746.888	57.16
747.206	57.6
747.524	57
747.842	56.71
748.16	56.85
748.478	56.58
748.796	56.35
749.114	56.68
749.432	57.18
749.749	57.53
750.067	57.74
750.385	57.76
750.703	57.88
751.02	58.22
751.338	58.46
751.655	58.76
751.973	58.71
752.29	58.47
752.608	58.54
752.925	58.41
753.242	58.79
753.56	58.51
753.877	58.48
754.194	58.77
754.511	59.17
754.828	59.01
755.145	59.2
755.462	59.16
755.779	58.89
756.096	58.93
756.413	58.48
756.73	58.68
757.047	58.68
757.364	58.6
757.68	58.37
757.997	58.64
758.314	58.65
758.63	58.69
758.947	58.75
759.264	58.24
759.58	58.32
759.896	58.15
760.213	58.36
760.529	57.98
760.846	58.27
761.162	58.36
761.478	58.48
761.794	58.56
762.11	58.74
762.426	59.07
762.743	58.66
763.059	58.76
763.375	58.81
763.69	58.93
764.006	58.97
764.322	59.09
764.638	58.91
764.954	58.93
765.27	59.23
765.585	59.22
765.901	59.59
766.216	59.72
766.532	59.65
766.848	59.76
767.163	60.12
767.478	59.98
767.794	59.79
768.109	59.78
768.424	59.75
768.74	59.76
769.055	59.6
769.37	59.98
769.685	59.79
770	59.67
770.315	59.31
770.63	59.33
770.945	59.21
771.26	59.23
771.575	58.97
771.89	58.74
772.205	58.83
772.52	58.69
772.834	58.4
773.149	58.69
773.464	58.63
773.778	58.37
774.093	58.4
774.407	58.63
774.722	58.66
775.036	58.52
775.351	58.56
775.665	58.06
775.979	57.89
776.293	58.28
776.608	58
776.922	58.19
777.236	58.62
777.55	58.47
777.864	58.41
778.178	58.66
778.492	58.57
778.806	58.87
779.12	58.7
779.434	58.52
779.747	58.27
780.061	58.23
780.375	58.11
780.689	58.05
781.002	57.99
781.316	57.79
781.629	58.05
781.943	57.88
782.256	58.4
782.57	58.57
782.883	58.67
783.196	58.56
783.51	58.84
783.823	58.02
784.136	58.16
784.449	57.91
784.762	57.68
785.075	58.05
785.388	57.53
785.701	57.62
786.014	57.68
786.327	57.79
786.64	57.72
786.953	57.82
787.266	57.63
787.578	57.72
787.891	57.8
788.204	57.66
788.516	57.68
788.829	57.36
789.141	57.39
789.454	57.39
789.766	58.04
790.079	57.83
790.391	58.07
790.703	57.83
791.016	58.01
791.328	58.13
791.64	57.95
791.952	57.75
792.264	57.29
792.576	57.48
792.888	57.73
793.2	57.9
793.512	58.03
793.824	58.59
794.136	58.76
794.448	59.22
794.76	59.51
795.071	59.54
795.383	59.52
795.695	59.25
796.006	59.12
796.318	58.75
796.629	58.69
796.941	58.94
797.252	59.37
797.564	59.39
797.875	58.96
798.186	59.18
798.497	58.98
798.809	59.59
799.12	59.42
799.431	59.21
799.742	59.03
800.053	58.7
800.364	58.71
800.675	58.55
800.986	57.58
801.297	57.4
801.608	57.41
801.918	58.19
802.229	57.81
802.54	57.63
802.851	57.66
803.161	58.12
803.472	57.89
803.782	57.89
804.093	57.85
804.403	58.05
804.714	57.68
805.024	58.29
805.334	58.45
805.645	58.61
805.955	58.86
806.265	59.14
806.575	59.21
806.885	59.32
807.195	59.21
807.505	59.7
807.815	59.22
808.125	59.3
808.435	58.2
808.745	58.58
809.055	59.12
809.365	59.71
809.674	58.95
809.984	58.36
810.294	57.75
810.603	58.41
810.913	58.13
811.222	58.1
811.532	57.92
811.841	57.57
812.151	57.51
812.46	56.63
812.769	56.73
813.079	56.23
813.388	55.39
813.697	54.82
814.006	54.83
814.315	55.12
814.624	55.16
814.933	56.34
815.242	55.21
815.551	55.26
815.86	54.73
816.169	55.11
816.478	55.56
816.786	55.61
817.095	54.75
817.404	55.16
817.712	55.2
818.021	55.67
818.33	55.21
818.638	55.5
818.947	55.98
819.255	56.08
819.563	57.16
819.872	57.82
820.18	58.42
820.488	58.59
820.796	58.87
821.105	59.41
821.413	59.32
821.721	59.74
822.029	59.63
822.337	59.68
822.645	59.91
822.953	60.2
823.26	60.24
823.568	60.54
823.876	60.6
824.184	60.75
824.491	60.82
824.799	61.04
825.107	61.08
825.414	61.2
825.722	61.34
826.029	61.04
826.337	60.91
826.644	60.72
826.951	60.72
827.259	60.83
827.566	60.44
827.873	60.51
828.18	60.63
828.488	60.5
828.795	60.56
829.102	60.45
829.409	60.05
829.716	60.01
830.023	59.85
830.329	59.77
830.636	59.66
830.943	59.49
831.25	59.23
831.557	59.03
831.863	58.77
832.17	59.04
832.476	59.63
832.783	59.6
833.089	59.9
833.396	60.22
833.702	59.55
834.009	59.31
834.315	59.14
834.621	58.77
834.928	58.77
835.234	58
835.54	58.02
835.846	57.86
836.152	57.84
836.458	57.62
836.764	57.29
837.07	56.99
837.376	56.56
837.682	57.33
837.988	57.26
838.293	57.18
838.599	56.34
838.905	56.05
839.211	56.11
839.516	55.59
839.822	55.27
840.127	55.09
840.433	55.3
840.738	55.63
841.044	56.03
841.349	56.34
841.654	57.99
841.959	57.61
842.265	58.01
842.57	58.62
842.875	57.88
843.18	58.44
843.485	57.77
843.79	58.23
844.095	56.18
844.4	55.53
844.705	56.18
845.01	56.93
845.315	57.3
845.619	56.78
845.924	57.35
846.229	57.1
846.533	57.99
846.838	58.39
847.142	55.9
847.447	55.39
847.751	55.22
848.056	52.72
848.36	52.36
848.664	52.28
848.969	52.27
849.273	53.39
849.577	54.97
849.881	56.43
850.185	55.12
850.489	55.05
850.794	54.33
851.097	52.22
851.401	51.4
851.705	50.86
852.009	51.61
852.313	50.59
852.617	50.2
852.92	49.39
853.224	48.76
853.528	49.51
853.831	49.77
854.135	50.62
854.438	51.55
854.742	51.73
855.045	52.04
855.349	49.36
855.652	48.11
855.955	46.06
856.259	44.22
856.562	46.3
856.865	47.31
857.168	48.86
857.471	50.14
857.774	50.53
858.077	50.89
858.38	50.78
858.683	51.64
858.986	52.81
859.289	52.73
859.592	52.58
859.894	54.13
860.197	52.56
860.5	51.97
860.802	53.06
861.105	52.08
861.407	50.42
861.71	50.2
862.012	51.5
862.315	51.33
862.617	52.64
862.919	50.93
863.222	49.84
863.524	48.91
863.826	47.57
864.128	47.39
864.43	46.06
864.732	43.93
865.034	43.41
865.336	40.49
865.638	39.36
865.94	38.93
866.242	38.28
866.544	40.4
866.846	40.06
867.147	40.99
867.449	42.65
867.751	44.26
868.052	46.19
868.354	45.82
868.655	45.13
868.957	47.15
869.258	46.75
869.56	47.31
869.861	50.54
870.162	50.98
870.463	50.7
870.765	52.13
871.066	54.87
871.367	54.46
871.668	55.68
871.969	58.59
872.27	58.16
872.571	57.35
872.872	56.61
873.173	54.49
873.473	54.11
873.774	52.85
874.075	53.58
874.376	54.34
874.676	54.18
874.977	54.65
875.277	52.78
875.578	53.91
875.878	54.48
876.179	52.06
876.479	53.13
876.78	52.99
877.08	52.56
877.38	50.83
877.68	51.46
877.981	52.46
878.281	50.42
878.581	52.13
