Data from BU26842_Reflection_00002.txt Node
Date: Mon Nov 18 16:38:27 EST 2019
User: vgr7
Spectrometer: USB2G7710
Scans to average: 3
Trigger mode: 4
Integration Time (sec): 2.000000E-2
Electric dark correction enabled: true
Boxcar width: 10
XAxis mode: Wavelengths
Number of Pixels in Spectrum: 2048
>>>>>Begin Spectral Data<<<<<
177.721	20.94
178.105	25.51
178.488	14.13
178.871	18.87
179.254	32.56
179.636	34.6
180.019	49.88
180.402	18.6
180.785	-33.42
181.168	2.9
181.55	11.61
181.933	372.73
182.316	-1079.31
182.698	-1214.05
183.081	-333.85
183.463	-40.15
183.846	14.14
184.228	-24.49
184.611	-35.48
184.993	-5.11
185.376	-24.2
185.758	-242.69
186.14	539.33
186.522	553.38
186.904	937.56
187.287	7858.62
187.669	-157.75
188.051	-116.66
188.433	-57.19
188.815	-59.67
189.197	-94.05
189.579	-75.7
189.961	-80.18
190.342	-72.47
190.724	-43.26
191.106	-52.12
191.488	-56.91
191.869	-59.16
192.251	-61.04
192.633	-64.45
193.014	-73.83
193.396	-87.1
193.777	-51.81
194.159	-51.32
194.54	-45.09
194.922	-42.3
195.303	-42.28
195.684	-51.6
196.065	-40.13
196.447	-48.64
196.828	-58.9
197.209	-56.3
197.59	-67.63
197.971	-50.54
198.352	-46.76
198.733	-73.45
199.114	-61.38
199.495	-64.02
199.876	-75.13
200.257	-56.37
200.638	-47.07
201.018	-58.87
201.399	-40.61
201.78	-38.21
202.16	-64
202.541	-56.04
202.922	-88.55
203.302	-133.55
203.683	-133.74
204.063	-155.67
204.444	-128.93
204.824	-80.51
205.204	-62.25
205.585	-35.57
205.965	-49.41
206.345	-59.52
206.725	-84.54
207.106	-135.92
207.486	-151.55
207.866	-120.09
208.246	-107.92
208.626	-90.71
209.006	-68.97
209.386	-104.28
209.766	-132.08
210.145	-79.28
210.525	-68.2
210.905	-42.27
211.285	-38.36
211.664	-29.99
212.044	-36.56
212.424	-41.01
212.803	-38.63
213.183	-32.89
213.562	-32.69
213.942	-14.78
214.321	-13.13
214.701	-14.63
215.08	-16.76
215.459	-30.97
215.838	-33.68
216.218	-38.44
216.597	-24.71
216.976	-26.58
217.355	-21.05
217.734	-26.75
218.113	-23.68
218.492	-30.83
218.871	-31.22
219.25	-20.55
219.629	-23.51
220.008	-29.73
220.387	-33.73
220.766	-26.36
221.144	-43.25
221.523	-48.01
221.902	-60.57
222.28	-66.63
222.659	-45.32
223.037	-28.06
223.416	-22.76
223.794	-25.21
224.173	-19.31
224.551	-23.51
224.929	-15.75
225.308	-8.7
225.686	1.76
226.064	1.06
226.442	3.18
226.821	0.56
227.199	-1.26
227.577	-3.35
227.955	1.83
228.333	1.23
228.711	1.54
229.089	6.25
229.467	4.13
229.845	3.07
230.222	4.88
230.6	2.84
230.978	3.26
231.356	4.17
231.733	5.46
232.111	5.64
232.488	4.33
232.866	3.34
233.243	0.04
233.621	-2.35
233.998	-1.37
234.376	-1.67
234.753	0.27
235.13	1.33
235.508	1.95
235.885	2.21
236.262	2.37
236.639	0.88
237.016	-0.64
237.393	1.37
237.77	3.04
238.147	3.94
238.524	3.79
238.901	3.15
239.278	3.42
239.655	4.08
240.032	4.08
240.409	4.1
240.785	4.1
241.162	4.52
241.539	5.28
241.915	5.39
242.292	4.98
242.668	4.44
243.045	4.44
243.421	4.1
243.798	4.1
244.174	4.42
244.551	4.49
244.927	4.48
245.303	4.36
245.679	4.32
246.056	3.94
246.432	4
246.808	4.01
247.184	3.94
247.56	3.75
247.936	3.67
248.312	3.74
248.688	3.77
249.064	3.61
249.44	3.44
249.815	3.38
250.191	3.63
250.567	3.88
250.943	3.7
251.318	4.1
251.694	3.79
252.069	3.68
252.445	3.62
252.82	3.84
253.196	3.74
253.571	3.41
253.947	3.58
254.322	4.06
254.697	3.67
255.073	3.49
255.448	3.27
255.823	3.08
256.198	3.2
256.573	3.34
256.948	3.66
257.323	3.71
257.698	3.85
258.073	3.72
258.448	3.69
258.823	3.75
259.198	3.61
259.573	3.84
259.948	3.63
260.322	3.65
260.697	3.39
261.072	3.24
261.446	3.25
261.821	3.16
262.195	3.04
262.57	3.13
262.944	3.28
263.319	3.41
263.693	3.57
264.067	3.64
264.442	3.45
264.816	3.16
265.19	3.06
265.564	2.88
265.938	2.86
266.313	2.69
266.687	2.62
267.061	2.81
267.435	2.65
267.809	2.74
268.183	2.77
268.556	2.95
268.93	3.1
269.304	3.25
269.678	3.37
270.051	3.28
270.425	3.29
270.799	3.23
271.172	2.99
271.546	2.85
271.919	2.68
272.293	2.9
272.666	3.29
273.04	3.28
273.413	3.27
273.787	3.28
274.16	3.38
274.533	3.42
274.906	3.06
275.279	3.03
275.653	2.97
276.026	3.04
276.399	2.99
276.772	3.08
277.145	3
277.518	3.01
277.891	2.97
278.263	2.89
278.636	2.82
279.009	3.03
279.382	3.34
279.755	3.4
280.127	3.43
280.5	3.23
280.872	3.46
281.245	3.43
281.617	3.59
281.99	3.57
282.362	3.59
282.735	3.65
283.107	3.64
283.479	3.64
283.852	3.47
284.224	3.54
284.596	3.31
284.968	3.25
285.34	3.18
285.713	3.26
286.085	3.38
286.457	3.49
286.829	3.37
287.201	3.2
287.572	3.14
287.944	3.05
288.316	3.06
288.688	2.9
289.06	2.82
289.431	2.74
289.803	2.67
290.175	2.74
290.546	2.77
290.918	2.78
291.289	2.85
291.661	2.98
292.032	2.85
292.403	3.02
292.775	3.13
293.146	3.15
293.517	3
293.889	3.16
294.26	3.15
294.631	3.16
295.002	3.24
295.373	3.28
295.744	3.25
296.115	3.25
296.486	3.11
296.857	3.29
297.228	3.38
297.599	3.38
297.97	3.25
298.34	3.38
298.711	3.37
299.082	3.37
299.452	3.49
299.823	3.61
300.194	3.63
300.564	3.55
300.935	3.54
301.305	3.62
301.676	3.62
302.046	3.59
302.416	3.68
302.787	3.72
303.157	3.7
303.527	3.69
303.897	3.81
304.267	4.1
304.637	3.95
305.008	3.89
305.378	4.07
305.748	4.23
306.117	4.16
306.487	4.14
306.857	4.22
307.227	3.97
307.597	3.77
307.967	3.74
308.336	3.84
308.706	3.91
309.076	3.85
309.445	3.6
309.815	3.57
310.184	3.61
310.554	3.57
310.923	3.58
311.293	3.68
311.662	3.62
312.031	3.49
312.401	3.55
312.77	3.59
313.139	3.48
313.508	3.52
313.877	3.48
314.246	3.52
314.616	3.5
314.985	3.52
315.353	3.7
315.722	3.74
316.091	3.69
316.46	3.53
316.829	3.55
317.198	3.73
317.567	3.66
317.935	3.48
318.304	3.5
318.672	3.49
319.041	3.47
319.41	3.37
319.778	3.39
320.147	3.39
320.515	3.26
320.883	3.28
321.252	3.24
321.62	3.18
321.988	3.08
322.357	3.08
322.725	3.06
323.093	3.07
323.461	3.01
323.829	2.98
324.197	3.13
324.565	3.13
324.933	3
325.301	3.09
325.669	3.16
326.037	3.08
326.405	3.16
326.772	3.21
327.14	3.13
327.508	3.17
327.875	3.06
328.243	3.14
328.61	3
328.978	3.07
329.346	3.17
329.713	3.09
330.08	3.17
330.448	3.01
330.815	2.86
331.182	3.08
331.55	3.09
331.917	3.04
332.284	3.21
332.651	3.33
333.018	3.48
333.385	3.49
333.752	3.42
334.119	3.47
334.486	3.3
334.853	3.41
335.22	3.46
335.587	3.6
335.954	3.64
336.32	3.67
336.687	3.61
337.054	3.56
337.42	3.74
337.787	3.68
338.153	3.78
338.52	3.91
338.886	3.7
339.253	3.63
339.619	3.62
339.986	3.48
340.352	3.47
340.718	3.41
341.084	3.47
341.451	3.6
341.817	3.5
342.183	3.59
342.549	3.65
342.915	3.64
343.281	3.56
343.647	3.44
344.013	3.44
344.379	3.46
344.745	3.43
345.11	3.36
345.476	3.33
345.842	3.44
346.208	3.4
346.573	3.44
346.939	3.6
347.304	3.68
347.67	3.72
348.035	3.66
348.401	3.66
348.766	3.7
349.132	3.63
349.497	3.63
349.862	3.75
350.228	3.7
350.593	3.67
350.958	3.65
351.323	3.78
351.688	3.89
352.053	3.91
352.418	3.98
352.783	4.02
353.148	4.04
353.513	3.98
353.878	3.99
354.243	4
354.608	3.91
354.972	3.81
355.337	3.8
355.702	3.93
356.066	3.96
356.431	3.96
356.795	3.97
357.16	3.97
357.524	3.9
357.889	3.87
358.253	3.85
358.618	3.87
358.982	3.81
359.346	3.76
359.71	3.7
360.075	3.7
360.439	3.74
360.803	3.68
361.167	3.62
361.531	3.61
361.895	3.62
362.259	3.58
362.623	3.69
362.987	3.68
363.351	3.64
363.714	3.7
364.078	3.72
364.442	3.65
364.806	3.61
365.169	3.6
365.533	3.61
365.896	3.59
366.26	3.58
366.623	3.62
366.987	3.58
367.35	3.66
367.714	3.68
368.077	3.55
368.44	3.58
368.803	3.67
369.167	3.65
369.53	3.61
369.893	3.72
370.256	3.67
370.619	3.71
370.982	3.66
371.345	3.54
371.708	3.48
372.071	3.55
372.434	3.56
372.797	3.56
373.159	3.54
373.522	3.61
373.885	3.68
374.247	3.64
374.61	3.71
374.973	3.65
375.335	3.59
375.698	3.71
376.06	3.69
376.423	3.66
376.785	3.72
377.147	3.77
377.51	3.71
377.872	3.65
378.234	3.63
378.596	3.66
378.958	3.63
379.321	3.63
379.683	3.62
380.045	3.65
380.407	3.62
380.769	3.65
381.13	3.65
381.492	3.61
381.854	3.67
382.216	3.63
382.578	3.65
382.939	3.63
383.301	3.6
383.663	3.64
384.024	3.64
384.386	3.67
384.747	3.72
385.109	3.71
385.47	3.73
385.832	3.73
386.193	3.74
386.554	3.79
386.916	3.81
387.277	3.84
387.638	3.88
387.999	3.91
388.36	3.92
388.721	3.92
389.082	3.94
389.443	3.88
389.804	3.88
390.165	3.86
390.526	3.92
390.887	3.93
391.248	3.93
391.609	3.95
391.969	3.9
392.33	3.88
392.691	3.91
393.051	3.93
393.412	3.94
393.772	3.96
394.133	3.96
394.493	3.97
394.854	3.96
395.214	3.94
395.574	3.92
395.935	3.92
396.295	3.92
396.655	3.89
397.015	3.91
397.376	3.92
397.736	3.94
398.096	3.95
398.456	3.95
398.816	3.95
399.176	3.92
399.535	3.91
399.895	3.88
400.255	3.88
400.615	3.87
400.975	3.87
401.334	3.85
401.694	3.85
402.054	3.82
402.413	3.83
402.773	3.8
403.132	3.77
403.492	3.78
403.851	3.78
404.211	3.82
404.57	3.8
404.929	3.78
405.288	3.75
405.648	3.74
406.007	3.71
406.366	3.7
406.725	3.74
407.084	3.75
407.443	3.72
407.802	3.73
408.161	3.73
408.52	3.7
408.879	3.69
409.238	3.69
409.596	3.7
409.955	3.73
410.314	3.7
410.673	3.78
411.031	3.75
411.39	3.73
411.748	3.7
412.107	3.73
412.465	3.74
412.824	3.78
413.182	3.78
413.54	3.81
413.899	3.83
414.257	3.81
414.615	3.79
414.974	3.83
415.332	3.8
415.69	3.81
416.048	3.82
416.406	3.83
416.764	3.8
417.122	3.8
417.48	3.78
417.838	3.79
418.195	3.75
418.553	3.76
418.911	3.78
419.269	3.81
419.626	3.79
419.984	3.79
420.342	3.79
420.699	3.78
421.057	3.78
421.414	3.77
421.772	3.77
422.129	3.78
422.486	3.78
422.844	3.8
423.201	3.79
423.558	3.79
423.915	3.79
424.273	3.8
424.63	3.79
424.987	3.78
425.344	3.8
425.701	3.81
426.058	3.8
426.415	3.78
426.772	3.75
427.128	3.75
427.485	3.75
427.842	3.72
428.199	3.72
428.555	3.71
428.912	3.72
429.269	3.73
429.625	3.72
429.982	3.72
430.338	3.69
430.695	3.69
431.051	3.68
431.407	3.68
431.764	3.69
432.12	3.68
432.476	3.67
432.832	3.66
433.189	3.65
433.545	3.66
433.901	3.67
434.257	3.69
434.613	3.7
434.969	3.69
435.325	3.71
435.681	3.71
436.036	3.72
436.392	3.72
436.748	3.7
437.104	3.69
437.459	3.68
437.815	3.68
438.171	3.69
438.526	3.7
438.882	3.72
439.237	3.74
439.593	3.76
439.948	3.76
440.304	3.76
440.659	3.76
441.014	3.77
441.369	3.76
441.725	3.76
442.08	3.76
442.435	3.78
442.79	3.78
443.145	3.78
443.5	3.78
443.855	3.78
444.21	3.77
444.565	3.79
444.92	3.8
445.275	3.79
445.629	3.79
445.984	3.81
446.339	3.78
446.693	3.76
447.048	3.75
447.403	3.75
447.757	3.75
448.112	3.75
448.466	3.75
448.82	3.75
449.175	3.75
449.529	3.75
449.883	3.74
450.238	3.73
450.592	3.73
450.946	3.72
451.3	3.72
451.654	3.73
452.008	3.72
452.362	3.72
452.716	3.74
453.07	3.73
453.424	3.71
453.778	3.71
454.132	3.71
454.486	3.7
454.839	3.7
455.193	3.69
455.547	3.67
455.9	3.68
456.254	3.67
456.607	3.66
456.961	3.66
457.314	3.64
457.668	3.65
458.021	3.62
458.375	3.62
458.728	3.63
459.081	3.65
459.434	3.64
459.787	3.66
460.141	3.65
460.494	3.65
460.847	3.65
461.2	3.66
461.553	3.68
461.906	3.68
462.259	3.68
462.611	3.7
462.964	3.72
463.317	3.72
463.67	3.73
464.022	3.72
464.375	3.71
464.728	3.72
465.08	3.72
465.433	3.75
465.785	3.74
466.138	3.74
466.49	3.73
466.843	3.7
467.195	3.69
467.547	3.71
467.899	3.72
468.252	3.71
468.604	3.72
468.956	3.72
469.308	3.73
469.66	3.71
470.012	3.75
470.364	3.76
470.716	3.77
471.068	3.78
471.42	3.79
471.772	3.82
472.123	3.84
472.475	3.86
472.827	3.88
473.178	3.9
473.53	3.9
473.882	3.91
474.233	3.95
474.585	3.93
474.936	3.9
475.288	3.9
475.639	3.91
475.99	3.89
476.342	3.88
476.693	3.86
477.044	3.89
477.395	3.88
477.746	3.86
478.097	3.86
478.448	3.86
478.8	3.86
479.15	3.86
479.501	3.86
479.852	3.85
480.203	3.86
480.554	3.87
480.905	3.87
481.255	3.88
481.606	3.89
481.957	3.89
482.307	3.91
482.658	3.9
483.009	3.9
483.359	3.91
483.709	3.92
484.06	3.92
484.41	3.93
484.761	3.92
485.111	3.93
485.461	3.93
485.811	3.93
486.162	3.92
486.512	3.92
486.862	3.92
487.212	3.92
487.562	3.92
487.912	3.91
488.262	3.91
488.612	3.91
488.961	3.91
489.311	3.92
489.661	3.92
490.011	3.93
490.36	3.94
490.71	3.94
491.06	3.94
491.409	3.94
491.759	3.94
492.108	3.94
492.458	3.94
492.807	3.94
493.157	3.95
493.506	3.96
493.855	3.97
494.204	3.97
494.554	3.98
494.903	3.98
495.252	3.97
495.601	3.99
495.95	3.98
496.299	3.97
496.648	3.98
496.997	3.99
497.346	3.99
497.695	4.01
498.043	4.02
498.392	4.02
498.741	4.02
499.09	4.02
499.438	4.05
499.787	4.04
500.135	4.04
500.484	4.05
500.832	4.07
501.181	4.07
501.529	4.08
501.878	4.12
502.226	4.13
502.574	4.17
502.923	4.19
503.271	4.21
503.619	4.22
503.967	4.25
504.315	4.24
504.663	4.26
505.011	4.26
505.359	4.27
505.707	4.29
506.055	4.33
506.403	4.35
506.751	4.35
507.098	4.36
507.446	4.39
507.794	4.38
508.141	4.37
508.489	4.37
508.837	4.39
509.184	4.36
509.531	4.37
509.879	4.36
510.226	4.39
510.574	4.38
510.921	4.37
511.268	4.35
511.616	4.35
511.963	4.34
512.31	4.34
512.657	4.36
513.004	4.37
513.351	4.34
513.698	4.33
514.045	4.32
514.392	4.33
514.739	4.32
515.086	4.33
515.432	4.34
515.779	4.33
516.126	4.33
516.473	4.34
516.819	4.34
517.166	4.33
517.512	4.31
517.859	4.34
518.205	4.35
518.552	4.38
518.898	4.4
519.245	4.42
519.591	4.42
519.937	4.4
520.283	4.39
520.629	4.41
520.976	4.43
521.322	4.45
521.668	4.44
522.014	4.45
522.36	4.47
522.706	4.48
523.052	4.5
523.398	4.52
523.743	4.52
524.089	4.53
524.435	4.54
524.781	4.56
525.126	4.56
525.472	4.58
525.817	4.58
526.163	4.57
526.509	4.58
526.854	4.59
527.199	4.61
527.545	4.61
527.89	4.62
528.235	4.62
528.581	4.63
528.926	4.63
529.271	4.63
529.616	4.63
529.961	4.63
530.306	4.64
530.651	4.64
530.996	4.65
531.341	4.65
531.686	4.66
532.031	4.66
532.376	4.67
532.721	4.67
533.065	4.66
533.41	4.67
533.755	4.65
534.099	4.65
534.444	4.63
534.788	4.64
535.133	4.65
535.477	4.67
535.822	4.67
536.166	4.68
536.51	4.68
536.855	4.68
537.199	4.69
537.543	4.71
537.887	4.7
538.231	4.7
538.576	4.69
538.92	4.7
539.264	4.71
539.608	4.71
539.951	4.72
540.295	4.72
540.639	4.73
540.983	4.76
541.327	4.76
541.671	4.77
542.014	4.77
542.358	4.77
542.701	4.77
543.045	4.77
543.389	4.78
543.732	4.78
544.075	4.78
544.419	4.78
544.762	4.77
545.105	4.8
545.449	4.8
545.792	4.8
546.135	4.81
546.478	4.8
546.821	4.81
547.165	4.81
547.508	4.82
547.851	4.8
548.194	4.8
548.536	4.81
548.879	4.83
549.222	4.82
549.565	4.83
549.908	4.83
550.25	4.85
550.593	4.85
550.936	4.85
551.278	4.84
551.621	4.86
551.963	4.88
552.306	4.86
552.648	4.87
552.991	4.89
553.333	4.89
553.675	4.88
554.017	4.87
554.36	4.87
554.702	4.87
555.044	4.87
555.386	4.88
555.728	4.9
556.07	4.89
556.412	4.89
556.754	4.87
557.096	4.88
557.438	4.89
557.78	4.88
558.121	4.87
558.463	4.89
558.805	4.87
559.147	4.85
559.488	4.85
559.83	4.84
560.171	4.81
560.513	4.79
560.854	4.79
561.196	4.8
561.537	4.8
561.878	4.8
562.22	4.8
562.561	4.79
562.902	4.77
563.243	4.77
563.584	4.8
563.925	4.81
564.266	4.79
564.607	4.77
564.948	4.77
565.289	4.8
565.63	4.81
565.971	4.81
566.312	4.81
566.653	4.8
566.993	4.8
567.334	4.82
567.675	4.85
568.015	4.87
568.356	4.88
568.696	4.88
569.037	4.89
569.377	4.91
569.718	4.92
570.058	4.92
570.398	4.9
570.739	4.87
571.079	4.85
571.419	4.88
571.759	4.9
572.099	4.9
572.439	4.92
572.779	4.88
573.119	4.92
573.459	4.94
573.799	4.98
574.139	4.98
574.479	4.98
574.819	4.96
575.158	4.93
575.498	4.94
575.838	4.95
576.177	4.94
576.517	4.94
576.856	4.94
577.196	4.93
577.535	4.94
577.875	4.98
578.214	4.98
578.553	4.98
578.893	4.94
579.232	4.97
579.571	4.93
579.91	4.95
580.25	4.96
580.589	4.97
580.928	4.95
581.267	4.96
581.606	4.96
581.945	4.97
582.283	5
582.622	4.99
582.961	4.99
583.3	5
583.639	5.05
583.977	5.05
584.316	5.05
584.654	5.06
584.993	5.06
585.332	5.08
585.67	5.09
586.008	5.13
586.347	5.08
586.685	5.12
587.024	5.12
587.362	5.1
587.7	5.09
588.038	5.08
588.376	5.06
588.715	5.1
589.053	5.14
589.391	5.16
589.729	5.15
590.067	5.14
590.404	5.13
590.742	5.1
591.08	5.07
591.418	5.13
591.756	5.16
592.093	5.12
592.431	5.12
592.769	5.14
593.106	5.1
593.444	5.1
593.781	5.08
594.119	5.07
594.456	5.06
594.793	5.06
595.131	5.04
595.468	5.06
595.805	5.02
596.143	5.02
596.48	5
596.817	5.02
597.154	5.04
597.491	5.05
597.828	5.03
598.165	5.06
598.502	5.04
598.839	5
599.176	5.07
599.512	5.05
599.849	5.01
600.186	4.99
600.523	5.02
600.859	5
601.196	5.05
601.532	5.05
601.869	5.06
602.205	5.09
602.542	5.12
602.878	5.13
603.215	5.13
603.551	5.14
603.887	5.15
604.223	5.17
604.56	5.14
604.896	5.15
605.232	5.15
605.568	5.16
605.904	5.19
606.24	5.18
606.576	5.17
606.912	5.21
607.248	5.21
607.583	5.22
607.919	5.24
608.255	5.2
608.591	5.23
608.926	5.21
609.262	5.24
609.597	5.24
609.933	5.27
610.268	5.25
610.604	5.24
610.939	5.25
611.275	5.22
611.61	5.23
611.945	5.26
612.281	5.24
612.616	5.17
612.951	5.15
613.286	5.17
613.621	5.25
613.956	5.24
614.291	5.25
614.626	5.26
614.961	5.26
615.296	5.26
615.631	5.26
615.966	5.31
616.3	5.29
616.635	5.25
616.97	5.22
617.304	5.25
617.639	5.26
617.973	5.22
618.308	5.21
618.642	5.24
618.977	5.19
619.311	5.19
619.646	5.23
619.98	5.2
620.314	5.19
620.648	5.14
620.983	5.14
621.317	5.14
621.651	5.16
621.985	5.21
622.319	5.21
622.653	5.16
622.987	5.18
623.321	5.19
623.655	5.21
623.988	5.28
624.322	5.24
624.656	5.31
624.99	5.35
625.323	5.29
625.657	5.33
625.99	5.4
626.324	5.43
626.657	5.46
626.991	5.51
627.324	5.5
627.658	5.55
627.991	5.56
628.324	5.56
628.657	5.54
628.991	5.49
629.324	5.53
629.657	5.58
629.99	5.58
630.323	5.54
630.656	5.55
630.989	5.5
631.322	5.53
631.655	5.45
631.987	5.47
632.32	5.56
632.653	5.5
632.986	5.42
633.318	5.44
633.651	5.47
633.984	5.46
634.316	5.43
634.649	5.37
634.981	5.4
635.313	5.38
635.646	5.44
635.978	5.45
636.31	5.45
636.643	5.44
636.975	5.43
637.307	5.45
637.639	5.45
637.971	5.43
638.303	5.49
638.635	5.44
638.967	5.39
639.299	5.4
639.631	5.42
639.963	5.47
640.295	5.5
640.626	5.49
640.958	5.51
641.29	5.57
641.621	5.55
641.953	5.57
642.285	5.67
642.616	5.65
642.948	5.67
643.279	5.66
643.61	5.63
643.942	5.58
644.273	5.65
644.604	5.65
644.936	5.63
645.267	5.61
645.598	5.72
645.929	5.76
646.26	5.72
646.591	5.71
646.922	5.7
647.253	5.7
647.584	5.68
647.915	5.65
648.245	5.66
648.576	5.71
648.907	5.7
649.238	5.62
649.568	5.58
649.899	5.61
650.229	5.63
650.56	5.59
650.89	5.61
651.221	5.61
651.551	5.6
651.882	5.6
652.212	5.55
652.542	5.47
652.872	5.56
653.203	5.55
653.533	5.56
653.863	5.55
654.193	5.44
654.523	5.44
654.853	5.5
655.183	5.47
655.513	5.45
655.843	5.44
656.172	5.46
656.502	5.48
656.832	5.42
657.162	5.44
657.491	5.54
657.821	5.57
658.15	5.52
658.48	5.49
658.809	5.51
659.139	5.55
659.468	5.6
659.798	5.52
660.127	5.56
660.456	5.57
660.785	5.62
661.115	5.71
661.444	5.71
661.773	5.68
662.102	5.67
662.431	5.67
662.76	5.72
663.089	5.73
663.418	5.68
663.747	5.73
664.076	5.64
664.404	5.65
664.733	5.64
665.062	5.67
665.39	5.72
665.719	5.69
666.048	5.69
666.376	5.66
666.705	5.66
667.033	5.65
667.362	5.69
667.69	5.66
668.018	5.58
668.347	5.56
668.675	5.63
669.003	5.6
669.331	5.7
669.659	5.62
669.987	5.64
670.315	5.65
670.643	5.7
670.971	5.8
671.299	5.76
671.627	5.74
671.955	5.72
672.283	5.72
672.61	5.8
672.938	5.76
673.266	5.91
673.593	5.89
673.921	5.85
674.249	5.75
674.576	5.74
674.904	5.79
675.231	5.84
675.558	5.85
675.886	5.88
676.213	5.8
676.54	5.85
676.867	5.85
677.195	5.89
677.522	5.89
677.849	5.86
678.176	5.89
678.503	5.89
678.83	5.91
679.157	5.85
679.484	5.86
679.81	5.95
680.137	5.86
680.464	5.88
680.791	5.93
681.117	5.99
681.444	6.1
681.771	6.07
682.097	6.04
682.424	6.03
682.75	6.06
683.077	6.1
683.403	6.12
683.729	6.14
684.056	6.2
684.382	6.21
684.708	6.19
685.034	6.11
685.36	6.23
685.686	6.22
686.012	6.23
686.339	6.27
686.664	6.25
686.99	6.19
687.316	6.13
687.642	6.16
687.968	6.22
688.294	6.14
688.619	6.22
688.945	6.23
689.271	6.15
689.596	6.13
689.922	6.15
690.247	6.06
690.573	6.12
690.898	6.1
691.224	6.09
691.549	6.26
691.874	6.25
692.2	6.16
692.525	6.25
692.85	6.4
693.175	6.29
693.5	6.23
693.825	6.39
694.15	6.39
694.475	6.44
694.8	6.35
695.125	6.35
695.45	6.32
695.775	6.39
696.099	6.38
696.424	6.45
696.749	6.32
697.073	6.29
697.398	6.2
697.723	6.26
698.047	6.25
698.372	6.15
698.696	6.26
699.02	6.28
699.345	6.22
699.669	6.16
699.993	6.21
700.318	6.3
700.642	6.21
700.966	6.21
701.29	6.15
701.614	6.19
701.938	6.16
702.262	6.22
702.586	6.24
702.91	6.33
703.234	6.3
703.557	6.47
703.881	6.5
704.205	6.47
704.529	6.4
704.852	6.4
705.176	6.48
705.499	6.48
705.823	6.37
706.146	6.5
706.47	6.46
706.793	6.4
707.117	6.43
707.44	6.46
707.763	6.52
708.086	6.62
708.409	6.53
708.733	6.56
709.056	6.56
709.379	6.56
709.702	6.45
710.025	6.41
710.348	6.21
710.671	6.3
710.993	6.32
711.316	6.37
711.639	6.47
711.962	6.41
712.284	6.53
712.607	6.72
712.93	6.56
713.252	6.62
713.575	6.73
713.897	6.63
714.22	6.6
714.542	6.61
714.864	6.64
715.187	6.81
715.509	6.91
715.831	6.86
716.153	6.75
716.475	6.92
716.798	6.97
717.12	7.13
717.442	7.07
717.764	7.17
718.085	7.06
718.407	7
718.729	7.12
719.051	7.02
719.373	6.92
719.695	7.03
720.016	7.05
720.338	7
720.659	7.16
720.981	7.21
721.302	7.28
721.624	7.23
721.945	7.08
722.267	7.05
722.588	7.04
722.909	7.11
723.231	6.82
723.552	6.81
723.873	6.92
724.194	7.02
724.515	7.08
724.836	7.12
725.157	7.1
725.478	6.75
725.799	6.94
726.12	6.74
726.441	6.76
726.762	6.86
727.083	6.95
727.403	6.87
727.724	7.05
728.045	6.97
728.365	6.84
728.686	6.91
729.006	6.93
729.327	6.9
729.647	6.96
729.967	7.08
730.288	7.1
730.608	6.89
730.928	6.89
731.249	6.83
731.569	6.98
731.889	7
732.209	7.15
732.529	7.06
732.849	7.24
733.169	7.19
733.489	7.11
733.809	6.99
734.129	7
734.448	6.96
734.768	6.99
735.088	7.31
735.408	7.38
735.727	7.41
736.047	7.51
736.366	7.44
736.686	7.47
737.005	7.6
737.325	7.98
737.644	7.97
737.963	8.13
738.283	7.78
738.602	7.67
738.921	7.86
739.24	7.61
739.56	7.39
739.879	7.42
740.198	7.38
740.517	7.46
740.836	7.41
741.155	7.19
741.473	7.29
741.792	6.91
742.111	6.85
742.43	6.85
742.748	6.79
743.067	6.82
743.386	7.07
743.704	6.9
744.023	6.63
744.341	6.53
744.66	6.54
744.978	6.53
745.297	6.61
745.615	6.61
745.933	6.85
746.252	7.14
746.57	7.29
746.888	7.42
747.206	7.39
747.524	7.54
747.842	7.53
748.16	7.54
748.478	7.76
748.796	7.82
749.114	7.96
749.432	8.01
749.749	8.08
750.067	7.81
750.385	7.98
750.703	8.16
751.02	8.47
751.338	8.38
751.655	8.79
751.973	9
752.29	8.6
752.608	8.19
752.925	8.03
753.242	7.8
753.56	7.6
753.877	7.45
754.194	7.25
754.511	7.65
754.828	7.49
755.145	7.51
755.462	7.31
755.779	7.21
756.096	7.41
756.413	7.64
756.73	7.76
757.047	7.51
757.364	7.51
757.68	7.44
757.997	7.25
758.314	7.06
758.63	7.15
758.947	7.43
759.264	7.85
759.58	7.9
759.896	8.06
760.213	8.24
760.529	8.51
760.846	8.65
761.162	8.65
761.478	8.74
761.794	8.66
762.11	8.57
762.426	8.44
762.743	8.25
763.059	8.04
763.375	7.96
763.69	8.16
764.006	8.13
764.322	8.13
764.638	8.32
764.954	8.55
765.27	8.4
765.585	8.29
765.901	8.38
766.216	8.34
766.532	8.3
766.848	8.06
767.163	8.15
767.478	8
767.794	7.95
768.109	7.95
768.424	7.91
768.74	8.15
769.055	8.17
769.37	8.27
769.685	8.27
770	8.47
770.315	8.39
770.63	8.13
770.945	8.09
771.26	8.1
771.575	7.71
771.89	7.82
772.205	8.21
772.52	8.09
772.834	7.98
773.149	7.7
773.464	8.07
773.778	8.12
774.093	8.05
774.407	7.83
774.722	7.76
775.036	7.93
775.351	8.12
775.665	7.96
775.979	7.77
776.293	7.79
776.608	7.8
776.922	7.34
777.236	7.59
777.55	7.65
777.864	7.54
778.178	8.23
778.492	8.48
778.806	7.75
779.12	7.79
779.434	8.26
779.747	8.59
780.061	8.64
780.375	8.15
780.689	8.58
781.002	8.93
781.316	9.39
781.629	9.65
781.943	9.46
782.256	9.8
782.57	10.1
782.883	9.97
783.196	9.74
783.51	10.42
783.823	10.11
784.136	10.25
784.449	10.05
784.762	9.69
785.075	9.33
785.388	9.66
785.701	9.56
786.014	9.48
786.327	9.55
786.64	9.68
786.953	10.17
787.266	9.71
787.578	9.45
787.891	9.1
788.204	8.58
788.516	8.99
788.829	8.94
789.141	9.03
789.454	9.15
789.766	9.6
790.079	9.81
790.391	9.99
790.703	9.89
791.016	10.04
791.328	9.95
791.64	10.32
791.952	10.75
792.264	10.5
792.576	10.5
792.888	10.4
793.2	10.29
793.512	10.06
793.824	10.4
794.136	10.23
794.448	10.39
794.76	10.86
795.071	10.78
795.383	10.72
795.695	9.83
796.006	9.96
796.318	9.65
796.629	9.16
796.941	9.11
797.252	8.96
797.564	10.03
797.875	10.41
798.186	9.55
798.497	9.53
798.809	9.7
799.12	9.76
799.431	9.58
799.742	9.73
800.053	10.01
800.364	9.8
800.675	10
800.986	10.29
801.297	9.92
801.608	9.47
801.918	9.39
802.229	10.53
802.54	10.77
802.851	10.83
803.161	10.92
803.472	11.3
803.782	11.6
804.093	10.6
804.403	10.84
804.714	11.14
805.024	10.44
805.334	10.66
805.645	10.93
805.955	11.12
806.265	11.07
806.575	10.61
806.885	10.66
807.195	10.61
807.505	10.04
807.815	10.17
808.125	9.97
808.435	10.15
808.745	9.51
809.055	9.18
809.365	9.43
809.674	10.23
809.984	9.92
810.294	9.57
810.603	9.37
810.913	8.49
811.222	8.77
811.532	9.68
811.841	10.02
812.151	9.94
812.46	9.8
812.769	9.49
813.079	9.94
813.388	10.24
813.697	10.5
814.006	10.61
814.315	11.07
814.624	11.45
814.933	11.46
815.242	11.96
815.551	12.31
815.86	11.84
816.169	11.31
816.478	11.09
816.786	11.23
817.095	11.34
817.404	11.84
817.712	11.94
818.021	11.79
818.33	11.6
818.638	11.34
818.947	11.58
819.255	11.99
819.563	11.3
819.872	11.18
820.18	11.27
820.488	11.1
820.796	10.97
821.105	10.83
821.413	10.7
821.721	10.58
822.029	10.73
822.337	10.81
822.645	10.74
822.953	10.7
823.26	10.94
823.568	10.9
823.876	10.91
824.184	10.92
824.491	10.97
824.799	10.99
825.107	11.07
825.414	11.07
825.722	11.03
826.029	11.23
826.337	11.17
826.644	11.12
826.951	11.13
827.259	10.91
827.566	11.02
827.873	11.25
828.18	11.41
828.488	11.25
828.795	11.15
829.102	11.18
829.409	11.57
829.716	11.26
830.023	11.37
830.329	11.1
830.636	11.34
830.943	10.68
831.25	10.61
831.557	10.45
831.863	10.18
832.17	9.53
832.476	9.83
832.783	10.1
833.089	10.23
833.396	10.5
833.702	11.33
834.009	11.33
834.315	10.96
834.621	10.92
834.928	10.82
835.234	10.98
835.54	10.83
835.846	10.8
836.152	10.69
836.458	10.76
836.764	10.79
837.07	10.1
837.376	10.7
837.682	10.5
837.988	10.45
838.293	11.2
838.599	11.68
838.905	11.07
839.211	10.63
839.516	10.17
839.822	9.78
840.127	8.57
840.433	7.87
840.738	8.09
841.044	8.01
841.349	7.8
841.654	7.33
841.959	7.13
842.265	6.7
842.57	6.48
842.875	6.09
843.18	6.8
843.485	7.74
843.79	7.34
844.095	7.57
844.4	8.12
844.705	6.54
845.01	7.08
845.315	7.71
845.619	7.33
845.924	7.58
846.229	7.91
846.533	8.55
846.838	9.09
847.142	8.6
847.447	7.07
847.751	7.83
848.056	8.41
848.36	9.1
848.664	8.33
848.969	9.52
849.273	8.76
849.577	8.7
849.881	8.09
850.185	8.45
850.489	9.63
850.794	9.53
851.097	12.18
851.401	12
851.705	11.41
852.009	14.34
852.313	14.34
852.617	13.27
852.92	13.31
853.224	14.08
853.528	14.68
853.831	15.83
854.135	15.04
854.438	14.21
854.742	14.49
855.045	14.47
855.349	14.18
855.652	15.64
855.955	16.22
856.259	15.62
856.562	18.26
856.865	16.52
857.168	15.4
857.471	12.22
857.774	11.74
858.077	11.14
858.38	10.48
858.683	9.32
858.986	10.87
859.289	13.16
859.592	12.77
859.894	11.79
860.197	12.5
860.5	11.53
860.802	12.02
861.105	12.23
861.407	12.2
861.71	12.51
862.012	11.72
862.315	11.48
862.617	11.33
862.919	7.88
863.222	8.52
863.524	9.66
863.826	12.57
864.128	12.45
864.43	14.31
864.732	12.59
865.034	14.03
865.336	13.26
865.638	10.12
865.94	10.14
866.242	9.79
866.544	9.79
866.846	11.49
867.147	13.02
867.449	11.81
867.751	13.68
868.052	13.23
868.354	11.01
868.655	10.78
868.957	10.46
869.258	13.43
869.56	14.98
869.861	12.99
870.162	10.81
870.463	10.74
870.765	7.92
871.066	8.47
871.367	7.98
871.668	7.52
871.969	8.02
872.27	7.99
872.571	9.08
872.872	9.03
873.173	6.67
873.473	6.02
873.774	7.24
874.075	5.5
874.376	5.21
874.676	8.01
874.977	2.68
875.277	4.56
875.578	4.35
875.878	2.42
876.179	3.43
876.479	3.57
876.78	3.58
877.08	4.85
877.38	4.75
877.68	4.25
877.981	5.1
878.281	5.88
878.581	6.73
