Data from BU26932_Reflection_00007.txt Node
Date: Tue Nov 19 10:44:29 EST 2019
User: vgr7
Spectrometer: USB2G7710
Scans to average: 3
Trigger mode: 4
Integration Time (sec): 2.000000E-2
Electric dark correction enabled: true
Boxcar width: 10
XAxis mode: Wavelengths
Number of Pixels in Spectrum: 2048
>>>>>Begin Spectral Data<<<<<
177.721	89.42
178.105	70.59
178.488	10.66
178.871	29.03
179.254	-600
179.636	-797.73
180.019	66.26
180.402	271.43
180.785	654.55
181.168	37.92
181.55	-146.54
181.933	-777.05
182.316	-353.92
182.698	-199.57
183.081	-353.35
183.463	-190.29
183.846	-132.17
184.228	-65.99
184.611	-28.83
184.993	-3.46
185.376	8.56
185.758	1.99
186.14	-1.28
186.522	-7.34
186.904	4.61
187.287	3.16
187.669	4.61
188.051	0.88
188.433	2.78
188.815	-2.72
189.197	-7.52
189.579	1.52
189.961	3.77
190.342	5.18
190.724	0.66
191.106	1.3
191.488	7.11
191.869	17.03
192.251	4.26
192.633	7.61
193.014	3.77
193.396	-4.71
193.777	2.97
194.159	7.82
194.54	11.22
194.922	-4.02
195.303	-9.74
195.684	-1.81
196.065	-4.66
196.447	-12.71
196.828	13.17
197.209	13.16
197.59	13.77
197.971	11.25
198.352	10.43
198.733	11.21
199.114	21.8
199.495	15.58
199.876	18.44
200.257	14.45
200.638	7.58
201.018	-14.23
201.399	13.01
201.78	20.44
202.16	-0
202.541	-20.14
202.922	-9.52
203.302	-12.42
203.683	-26.74
204.063	-24.21
204.444	-17.46
204.824	-41.19
205.204	-31.64
205.585	-32.18
205.965	-45.02
206.345	-42.08
206.725	-35.99
207.106	-33.32
207.486	-35.93
207.866	-33.67
208.246	-31.11
208.626	-45.6
209.006	-37.88
209.386	-49.75
209.766	-57.43
210.145	-34.77
210.525	-27.77
210.905	-36.75
211.285	-16.87
211.664	-3.54
212.044	-14.99
212.424	-9.83
212.803	-2.91
213.183	-4.66
213.562	8.16
213.942	17.65
214.321	13.42
214.701	6.34
215.08	-1.4
215.459	9.01
215.838	-1.51
216.218	-8.12
216.597	-4.78
216.976	-3.64
217.355	7.68
217.734	3.12
218.113	-3.84
218.492	-9.29
218.871	-3.88
219.25	-12.04
219.629	-18.87
220.008	-16.34
220.387	-24
220.766	-17.42
221.144	-27.85
221.523	-38.18
221.902	-31.18
222.28	-26.27
222.659	-16.16
223.037	-9.13
223.416	-7.42
223.794	-2.15
224.173	4.37
224.551	1.33
224.929	4.8
225.308	-1.47
225.686	2.93
226.064	4.8
226.442	8.12
226.821	9.01
227.199	6.88
227.577	5.4
227.955	9.93
228.333	10.8
228.711	10.98
229.089	11.61
229.467	10.39
229.845	8.95
230.222	10.22
230.6	9.36
230.978	10.24
231.356	7.81
231.733	8.05
232.111	7.94
232.488	7.15
232.866	7.86
233.243	4.83
233.621	4.4
233.998	3.88
234.376	1.44
234.753	0.56
235.13	0.18
235.508	2.52
235.885	0.45
236.262	0.07
236.639	0.5
237.016	0.95
237.393	2.72
237.77	3.74
238.147	3.18
238.524	2.6
238.901	1.98
239.278	1.58
239.655	1.82
240.032	1.7
240.409	2.61
240.785	2.27
241.162	2.34
241.539	2.25
241.915	2.28
242.292	2.83
242.668	3.03
243.045	3.94
243.421	4.12
243.798	4.36
244.174	4.25
244.551	4.14
244.927	4.3
245.303	4.04
245.679	3.81
246.056	3.84
246.432	3.99
246.808	4.2
247.184	4.25
247.56	4.07
247.936	4.11
248.312	4.09
248.688	4.16
249.064	4.24
249.44	4.12
249.815	4.19
250.191	4.35
250.567	4.31
250.943	4.12
251.318	3.63
251.694	3.55
252.069	3.72
252.445	3.46
252.82	3.68
253.196	3.58
253.571	4
253.947	3.98
254.322	3.75
254.697	3.56
255.073	3.44
255.448	3.32
255.823	3.47
256.198	3.56
256.573	3.59
256.948	3.85
257.323	4.03
257.698	4.18
258.073	4.08
258.448	4.03
258.823	3.84
259.198	4.07
259.573	4.01
259.948	4.1
260.322	4.23
260.697	4.18
261.072	4.2
261.446	3.99
261.821	3.95
262.195	4.1
262.57	4.15
262.944	4.19
263.319	4.31
263.693	4.26
264.067	4.13
264.442	3.89
264.816	3.82
265.19	3.85
265.564	3.67
265.938	3.68
266.313	3.67
266.687	3.65
267.061	3.56
267.435	3.72
267.809	3.77
268.183	3.63
268.556	3.3
268.93	3.35
269.304	3.4
269.678	3.4
270.051	3.49
270.425	3.34
270.799	3.44
271.172	3.43
271.546	3.41
271.919	3.35
272.293	3.45
272.666	3.42
273.04	3.34
273.413	3.4
273.787	3.41
274.16	3.45
274.533	3.57
274.906	3.64
275.279	3.45
275.653	3.29
276.026	3.32
276.399	3.37
276.772	3.34
277.145	3.38
277.518	3.35
277.891	3.21
278.263	3.23
278.636	3.31
279.009	3.31
279.382	3.25
279.755	3.28
280.127	3.24
280.5	3.15
280.872	3.28
281.245	3.06
281.617	2.92
281.99	2.98
282.362	2.92
282.735	2.86
283.107	3.01
283.479	3.12
283.852	3.29
284.224	3.46
284.596	3.48
284.968	3.42
285.34	3.44
285.713	3.48
286.085	3.44
286.457	3.47
286.829	3.59
287.201	3.62
287.572	3.69
287.944	3.81
288.316	4
288.688	3.89
289.06	3.99
289.431	4.16
289.803	4.16
290.175	4.19
290.546	4.24
290.918	4.29
291.289	4.13
291.661	4.06
292.032	4.07
292.403	4.14
292.775	4.27
293.146	4.42
293.517	4.43
293.889	4.53
294.26	4.46
294.631	4.58
295.002	4.71
295.373	4.74
295.744	4.79
296.115	4.84
296.486	4.94
296.857	5.08
297.228	5.07
297.599	5.17
297.97	5.21
298.34	5.26
298.711	5.28
299.082	5.4
299.452	5.45
299.823	5.44
300.194	5.55
300.564	5.51
300.935	5.6
301.305	5.55
301.676	5.5
302.046	5.61
302.416	5.5
302.787	5.36
303.157	5.48
303.527	5.58
303.897	5.46
304.267	5.51
304.637	5.5
305.008	5.66
305.378	5.8
305.748	5.83
306.117	5.8
306.487	5.9
306.857	6
307.227	6.13
307.597	6.24
307.967	6.16
308.336	6.36
308.706	6.34
309.076	6.52
309.445	6.81
309.815	6.86
310.184	6.93
310.554	7.03
310.923	6.96
311.293	6.92
311.662	7.09
312.031	7.11
312.401	7.17
312.77	7.2
313.139	7.16
313.508	7.3
313.877	7.49
314.246	7.54
314.616	7.64
314.985	7.61
315.353	7.74
315.722	8.01
316.091	8.04
316.46	8.11
316.829	8.17
317.198	8.06
317.567	8.17
317.935	7.99
318.304	8.18
318.672	8.26
319.041	8.34
319.41	8.47
319.778	8.63
320.147	8.6
320.515	8.65
320.883	8.62
321.252	8.71
321.62	8.62
321.988	8.69
322.357	8.76
322.725	8.91
323.093	8.73
323.461	8.61
323.829	8.62
324.197	8.66
324.565	8.69
324.933	8.83
325.301	8.66
325.669	8.87
326.037	8.93
326.405	9.05
326.772	9.16
327.14	9.13
327.508	9.15
327.875	9.27
328.243	9.41
328.61	9.44
328.978	9.42
329.346	9.52
329.713	9.6
330.08	9.7
330.448	9.64
330.815	9.86
331.182	10.01
331.55	10
331.917	10.03
332.284	10.28
332.651	10.27
333.018	10.44
333.385	10.53
333.752	10.62
334.119	10.71
334.486	10.61
334.853	10.6
335.22	10.62
335.587	10.69
335.954	10.67
336.32	10.79
336.687	10.82
337.054	10.83
337.42	10.9
337.787	10.77
338.153	10.81
338.52	10.84
338.886	10.84
339.253	10.78
339.619	10.84
339.986	10.73
340.352	10.85
340.718	10.83
341.084	10.82
341.451	10.71
341.817	10.56
342.183	10.63
342.549	10.75
342.915	10.86
343.281	10.79
343.647	10.77
344.013	10.68
344.379	10.67
344.745	10.79
345.11	10.64
345.476	10.77
345.842	10.76
346.208	10.72
346.573	10.75
346.939	10.92
347.304	11.04
347.67	10.95
348.035	10.85
348.401	10.93
348.766	10.92
349.132	11.01
349.497	11.14
349.862	11.16
350.228	11.12
350.593	11.08
350.958	11.18
351.323	11.13
351.688	11.14
352.053	11.14
352.418	11.05
352.783	11.06
353.148	11.03
353.513	11.03
353.878	11.08
354.243	11.06
354.608	11.03
354.972	10.88
355.337	10.96
355.702	10.93
356.066	10.91
356.431	10.92
356.795	10.95
357.16	10.99
357.524	10.97
357.889	10.96
358.253	10.89
358.618	10.84
358.982	10.86
359.346	10.8
359.71	10.82
360.075	10.85
360.439	10.93
360.803	10.92
361.167	10.92
361.531	10.84
361.895	10.82
362.259	10.76
362.623	10.75
362.987	10.76
363.351	10.75
363.714	10.7
364.078	10.63
364.442	10.5
364.806	10.36
365.169	10.33
365.533	10.28
365.896	10.24
366.26	10.21
366.623	10.17
366.987	10.13
367.35	10.08
367.714	9.96
368.077	9.88
368.44	9.82
368.803	9.78
369.167	9.72
369.53	9.66
369.893	9.65
370.256	9.52
370.619	9.38
370.982	9.29
371.345	9.22
371.708	9.14
372.071	9.15
372.434	9.15
372.797	9.08
373.159	8.99
373.522	8.91
373.885	8.82
374.247	8.73
374.61	8.75
374.973	8.67
375.335	8.62
375.698	8.52
376.06	8.37
376.423	8.34
376.785	8.29
377.147	8.19
377.51	8.08
377.872	8.08
378.234	8.07
378.596	8.01
378.958	7.96
379.321	7.95
379.683	7.89
380.045	7.8
380.407	7.76
380.769	7.68
381.13	7.62
381.492	7.55
381.854	7.46
382.216	7.38
382.578	7.34
382.939	7.35
383.301	7.27
383.663	7.24
384.024	7.14
384.386	7.12
384.747	7.11
385.109	7.08
385.47	7.02
385.832	6.95
386.193	6.95
386.554	6.9
386.916	6.88
387.277	6.82
387.638	6.8
387.999	6.76
388.36	6.71
388.721	6.69
389.082	6.68
389.443	6.67
389.804	6.65
390.165	6.61
390.526	6.53
390.887	6.51
391.248	6.48
391.609	6.42
391.969	6.4
392.33	6.32
392.691	6.29
393.051	6.21
393.412	6.19
393.772	6.15
394.133	6.14
394.493	6.05
394.854	6.01
395.214	5.97
395.574	5.92
395.935	5.91
396.295	5.87
396.655	5.81
397.015	5.76
397.376	5.73
397.736	5.63
398.096	5.57
398.456	5.56
398.816	5.54
399.176	5.53
399.535	5.47
399.895	5.43
400.255	5.36
400.615	5.38
400.975	5.34
401.334	5.32
401.694	5.28
402.054	5.3
402.413	5.27
402.773	5.21
403.132	5.17
403.492	5.13
403.851	5.1
404.211	5.08
404.57	5.09
404.929	5.03
405.288	5.04
405.648	5.07
406.007	5.04
406.366	5
406.725	4.95
407.084	4.93
407.443	4.93
407.802	4.92
408.161	4.89
408.52	4.88
408.879	4.87
409.238	4.87
409.596	4.85
409.955	4.84
410.314	4.87
410.673	4.86
411.031	4.83
411.39	4.82
411.748	4.82
412.107	4.78
412.465	4.79
412.824	4.75
413.182	4.71
413.54	4.7
413.899	4.69
414.257	4.71
414.615	4.7
414.974	4.68
415.332	4.68
415.69	4.65
416.048	4.61
416.406	4.54
416.764	4.49
417.122	4.45
417.48	4.45
417.838	4.41
418.195	4.39
418.553	4.39
418.911	4.37
419.269	4.35
419.626	4.33
419.984	4.3
420.342	4.3
420.699	4.3
421.057	4.28
421.414	4.28
421.772	4.25
422.129	4.23
422.486	4.22
422.844	4.21
423.201	4.2
423.558	4.19
423.915	4.2
424.273	4.19
424.63	4.19
424.987	4.18
425.344	4.18
425.701	4.17
426.058	4.17
426.415	4.16
426.772	4.13
427.128	4.14
427.485	4.14
427.842	4.13
428.199	4.12
428.555	4.12
428.912	4.11
429.269	4.1
429.625	4.09
429.982	4.08
430.338	4.09
430.695	4.08
431.051	4.08
431.407	4.08
431.764	4.08
432.12	4.09
432.476	4.09
432.832	4.08
433.189	4.08
433.545	4.06
433.901	4.06
434.257	4.08
434.613	4.09
434.969	4.06
435.325	4.06
435.681	4.06
436.036	4.05
436.392	4.04
436.748	4.04
437.104	4.04
437.459	4.04
437.815	4.04
438.171	4.05
438.526	4.07
438.882	4.05
439.237	4.05
439.593	4.06
439.948	4.04
440.304	4.04
440.659	4.05
441.014	4.05
441.369	4.04
441.725	4.04
442.08	4.03
442.435	4.02
442.79	4.02
443.145	3.99
443.5	4
443.855	4
444.21	3.99
444.565	3.99
444.92	3.99
445.275	3.96
445.629	3.96
445.984	3.93
446.339	3.94
446.693	3.91
447.048	3.89
447.403	3.87
447.757	3.87
448.112	3.85
448.466	3.84
448.82	3.84
449.175	3.83
449.529	3.82
449.883	3.82
450.238	3.81
450.592	3.84
450.946	3.82
451.3	3.82
451.654	3.81
452.008	3.81
452.362	3.78
452.716	3.79
453.07	3.77
453.424	3.77
453.778	3.75
454.132	3.75
454.486	3.77
454.839	3.78
455.193	3.78
455.547	3.78
455.9	3.79
456.254	3.78
456.607	3.78
456.961	3.81
457.314	3.81
457.668	3.81
458.021	3.79
458.375	3.79
458.728	3.78
459.081	3.79
459.434	3.79
459.787	3.82
460.141	3.83
460.494	3.85
460.847	3.86
461.2	3.87
461.553	3.87
461.906	3.88
462.259	3.89
462.611	3.91
462.964	3.93
463.317	3.94
463.67	3.96
464.022	3.95
464.375	3.96
464.728	3.96
465.08	3.97
465.433	4
465.785	4.01
466.138	4.04
466.49	4.04
466.843	4.06
467.195	4.08
467.547	4.08
467.899	4.13
468.252	4.14
468.604	4.15
468.956	4.16
469.308	4.15
469.66	4.15
470.012	4.17
470.364	4.16
470.716	4.18
471.068	4.18
471.42	4.22
471.772	4.23
472.123	4.26
472.475	4.27
472.827	4.26
473.178	4.26
473.53	4.27
473.882	4.28
474.233	4.27
474.585	4.25
474.936	4.23
475.288	4.21
475.639	4.22
475.99	4.21
476.342	4.22
476.693	4.22
477.044	4.24
477.395	4.21
477.746	4.19
478.097	4.18
478.448	4.18
478.8	4.16
479.15	4.12
479.501	4.1
479.852	4.1
480.203	4.1
480.554	4.1
480.905	4.08
481.255	4.07
481.606	4.07
481.957	4.08
482.307	4.08
482.658	4.09
483.009	4.08
483.359	4.08
483.709	4.08
484.06	4.08
484.41	4.08
484.761	4.07
485.111	4.07
485.461	4.08
485.811	4.07
486.162	4.08
486.512	4.09
486.862	4.1
487.212	4.09
487.562	4.09
487.912	4.09
488.262	4.1
488.612	4.11
488.961	4.11
489.311	4.11
489.661	4.12
490.011	4.11
490.36	4.11
490.71	4.12
491.06	4.12
491.409	4.13
491.759	4.14
492.108	4.15
492.458	4.17
492.807	4.18
493.157	4.2
493.506	4.22
493.855	4.24
494.204	4.27
494.554	4.29
494.903	4.33
495.252	4.36
495.601	4.4
495.95	4.43
496.299	4.48
496.648	4.54
496.997	4.56
497.346	4.62
497.695	4.7
498.043	4.78
498.392	4.84
498.741	4.89
499.09	4.95
499.438	5.05
499.787	5.11
500.135	5.18
500.484	5.24
500.832	5.33
501.181	5.44
501.529	5.51
501.878	5.61
502.226	5.73
502.574	5.83
502.923	5.94
503.271	6.06
503.619	6.19
503.967	6.29
504.315	6.45
504.663	6.58
505.011	6.71
505.359	6.83
505.707	6.98
506.055	7.15
506.403	7.31
506.751	7.45
507.098	7.65
507.446	7.81
507.794	8.03
508.141	8.2
508.489	8.39
508.837	8.59
509.184	8.78
509.531	8.98
509.879	9.17
510.226	9.39
510.574	9.61
510.921	9.82
511.268	10.04
511.616	10.25
511.963	10.49
512.31	10.74
512.657	11.01
513.004	11.26
513.351	11.53
513.698	11.82
514.045	12.1
514.392	12.41
514.739	12.73
515.086	13.02
515.432	13.32
515.779	13.61
516.126	13.93
516.473	14.22
516.819	14.51
517.166	14.79
517.512	15.06
517.859	15.31
518.205	15.54
518.552	15.81
518.898	16.08
519.245	16.34
519.591	16.6
519.937	16.85
520.283	17.15
520.629	17.41
520.976	17.69
521.322	17.97
521.668	18.25
522.014	18.54
522.36	18.85
522.706	19.16
523.052	19.49
523.398	19.83
523.743	20.2
524.089	20.56
524.435	20.92
524.781	21.24
525.126	21.56
525.472	21.84
525.817	22.11
526.163	22.33
526.509	22.56
526.854	22.77
527.199	22.97
527.545	23.15
527.89	23.35
528.235	23.55
528.581	23.78
528.926	23.97
529.271	24.17
529.616	24.36
529.961	24.58
530.306	24.82
530.651	25.02
530.996	25.25
531.341	25.47
531.686	25.67
532.031	25.9
532.376	26.13
532.721	26.39
533.065	26.64
533.41	26.9
533.755	27.14
534.099	27.39
534.444	27.65
534.788	27.89
535.133	28.14
535.477	28.4
535.822	28.62
536.166	28.89
536.51	29.17
536.855	29.48
537.199	29.76
537.543	30.02
537.887	30.35
538.231	30.65
538.576	30.96
538.92	31.26
539.264	31.51
539.608	31.76
539.951	31.98
540.295	32.19
540.639	32.41
540.983	32.64
541.327	32.89
541.671	33.11
542.014	33.3
542.358	33.53
542.701	33.73
543.045	33.93
543.389	34.11
543.732	34.33
544.075	34.52
544.419	34.75
544.762	34.96
545.105	35.14
545.449	35.34
545.792	35.54
546.135	35.8
546.478	36.09
546.821	36.37
547.165	36.62
547.508	36.88
547.851	37.11
548.194	37.36
548.536	37.57
548.879	37.76
549.222	38.05
549.565	38.26
549.908	38.51
550.25	38.71
550.593	38.97
550.936	39.19
551.278	39.39
551.621	39.56
551.963	39.78
552.306	40.03
552.648	40.24
552.991	40.46
553.333	40.62
553.675	40.74
554.017	40.85
554.36	41.04
554.702	41.19
555.044	41.34
555.386	41.49
555.728	41.61
556.07	41.82
556.412	41.97
556.754	42.11
557.096	42.17
557.438	42.38
557.78	42.5
558.121	42.67
558.463	42.84
558.805	42.99
559.147	43.16
559.488	43.26
559.83	43.37
560.171	43.47
560.513	43.6
560.854	43.75
561.196	43.94
561.537	44.11
561.878	44.25
562.22	44.41
562.561	44.5
562.902	44.68
563.243	44.79
563.584	44.92
563.925	45.03
564.266	45.21
564.607	45.27
564.948	45.4
565.289	45.48
565.63	45.64
565.971	45.73
566.312	45.8
566.653	45.93
566.993	46.01
567.334	46.14
567.675	46.23
568.015	46.25
568.356	46.36
568.696	46.47
569.037	46.59
569.377	46.68
569.718	46.8
570.058	46.93
570.398	47.04
570.739	47.13
571.079	47.22
571.419	47.3
571.759	47.42
572.099	47.53
572.439	47.61
572.779	47.67
573.119	47.8
573.459	47.89
573.799	47.92
574.139	48.04
574.479	48.11
574.819	48.21
575.158	48.4
575.498	48.48
575.838	48.55
576.177	48.64
576.517	48.73
576.856	48.77
577.196	48.8
577.535	48.86
577.875	48.96
578.214	49.04
578.553	49.13
578.893	49.23
579.232	49.26
579.571	49.38
579.91	49.44
580.25	49.51
580.589	49.61
580.928	49.8
581.267	49.91
581.606	50.01
581.945	50.09
582.283	50.19
582.622	50.22
582.961	50.31
583.3	50.42
583.639	50.57
583.977	50.69
584.316	50.77
584.654	50.87
584.993	50.93
585.332	51.02
585.67	51.01
586.008	51.09
586.347	51.15
586.685	51.19
587.024	51.25
587.362	51.31
587.7	51.34
588.038	51.35
588.376	51.4
588.715	51.43
589.053	51.53
589.391	51.51
589.729	51.53
590.067	51.58
590.404	51.55
590.742	51.61
591.08	51.66
591.418	51.69
591.756	51.72
592.093	51.76
592.431	51.83
592.769	51.99
593.106	52.03
593.444	52.12
593.781	52.1
594.119	52.14
594.456	52.16
594.793	52.18
595.131	52.24
595.468	52.25
595.805	52.33
596.143	52.31
596.48	52.39
596.817	52.53
597.154	52.61
597.491	52.68
597.828	52.71
598.165	52.75
598.502	52.78
598.839	52.89
599.176	52.93
599.512	53.02
599.849	52.97
600.186	52.99
600.523	53.04
600.859	53.12
601.196	53.14
601.532	53.19
601.869	53.21
602.205	53.13
602.542	53.24
602.878	53.27
603.215	53.34
603.551	53.27
603.887	53.25
604.223	53.22
604.56	53.21
604.896	53.22
605.232	53.27
605.568	53.32
605.904	53.34
606.24	53.31
606.576	53.3
606.912	53.37
607.248	53.38
607.583	53.45
607.919	53.49
608.255	53.53
608.591	53.58
608.926	53.61
609.262	53.71
609.597	53.66
609.933	53.64
610.268	53.67
610.604	53.74
610.939	53.72
611.275	53.84
611.61	53.85
611.945	53.84
612.281	53.93
612.616	53.91
612.951	53.83
613.286	53.9
613.621	53.9
613.956	53.92
614.291	53.95
614.626	53.95
614.961	54.02
615.296	54.06
615.631	54.06
615.966	54.11
616.3	54.13
616.635	54.15
616.97	54.17
617.304	54.22
617.639	54.25
617.973	54.32
618.308	54.3
618.642	54.33
618.977	54.38
619.311	54.37
619.646	54.38
619.98	54.42
620.314	54.48
620.648	54.44
620.983	54.44
621.317	54.53
621.651	54.53
621.985	54.49
622.319	54.55
622.653	54.65
622.987	54.68
623.321	54.63
623.655	54.62
623.988	54.65
624.322	54.66
624.656	54.72
624.99	54.73
625.323	54.76
625.657	54.81
625.99	54.81
626.324	54.69
626.657	54.8
626.991	54.85
627.324	54.84
627.658	54.91
627.991	54.98
628.324	55.03
628.657	55.08
628.991	55.15
629.324	55.12
629.657	55.02
629.99	55.08
630.323	55.21
630.656	55.3
630.989	55.33
631.322	55.26
631.655	55.32
631.987	55.32
632.32	55.34
632.653	55.37
632.986	55.44
633.318	55.6
633.651	55.6
633.984	55.62
634.316	55.64
634.649	55.69
634.981	55.68
635.313	55.6
635.646	55.59
635.978	55.62
636.31	55.7
636.643	55.75
636.975	55.8
637.307	55.86
637.639	55.85
637.971	55.86
638.303	55.93
638.635	55.98
638.967	56.07
639.299	56.06
639.631	56.05
639.963	56.04
640.295	55.98
640.626	56.03
640.958	56.04
641.29	56.01
641.621	56.01
641.953	56.07
642.285	56.08
642.616	56.05
642.948	56.07
643.279	56.03
643.61	56.02
643.942	55.92
644.273	55.87
644.604	55.94
644.936	56.01
645.267	56.07
645.598	56.01
645.929	56.02
646.26	56.02
646.591	56.08
646.922	56.1
647.253	56.22
647.584	56.08
647.915	56.21
648.245	56.26
648.576	56.32
648.907	56.24
649.238	56.35
649.568	56.38
649.899	56.45
650.229	56.44
650.56	56.38
650.89	56.5
651.221	56.57
651.551	56.54
651.882	56.5
652.212	56.47
652.542	56.45
652.872	56.35
653.203	56.41
653.533	56.42
653.863	56.38
654.193	56.34
654.523	56.46
654.853	56.42
655.183	56.48
655.513	56.54
655.843	56.68
656.172	56.58
656.502	56.57
656.832	56.47
657.162	56.54
657.491	56.64
657.821	56.52
658.15	56.51
658.48	56.55
658.809	56.67
659.139	56.8
659.468	56.81
659.798	56.86
660.127	56.78
660.456	56.78
660.785	56.79
661.115	56.83
661.444	56.81
661.773	56.82
662.102	56.74
662.431	56.68
662.76	56.65
663.089	56.75
663.418	56.82
663.747	56.95
664.076	56.84
664.404	56.91
664.733	56.94
665.062	56.9
665.39	56.8
665.719	56.58
666.048	56.46
666.376	56.47
666.705	56.46
667.033	56.48
667.362	56.49
667.69	56.56
668.018	56.51
668.347	56.43
668.675	56.39
669.003	56.47
669.331	56.57
669.659	56.41
669.987	56.48
670.315	56.49
670.643	56.37
670.971	56.51
671.299	56.49
671.627	56.57
671.955	56.64
672.283	56.75
672.61	56.68
672.938	56.67
673.266	56.83
673.593	56.8
673.921	56.79
674.249	56.76
674.576	56.7
674.904	56.75
675.231	56.96
675.558	56.98
675.886	56.98
676.213	56.85
676.54	57.03
676.867	57.03
677.195	57.08
677.522	57.09
677.849	56.97
678.176	57.09
678.503	57.15
678.83	57.14
679.157	57.19
679.484	57.34
679.81	57.42
680.137	57.33
680.464	57.53
680.791	57.63
681.117	57.67
681.444	57.75
681.771	57.79
682.097	57.69
682.424	57.75
682.75	57.66
683.077	57.67
683.403	57.64
683.729	57.62
684.056	57.63
684.382	57.7
684.708	57.82
685.034	57.68
685.36	57.67
685.686	57.71
686.012	57.57
686.339	57.65
686.664	57.58
686.99	57.72
687.316	57.67
687.642	57.73
687.968	57.69
688.294	57.56
688.619	57.42
688.945	57.44
689.271	57.47
689.596	57.55
689.922	57.66
690.247	57.69
690.573	57.68
690.898	57.61
691.224	57.51
691.549	57.56
691.874	57.49
692.2	57.39
692.525	57.38
692.85	57.51
693.175	57.51
693.5	57.56
693.825	57.48
694.15	57.44
694.475	57.44
694.8	57.46
695.125	57.48
695.45	57.51
695.775	57.63
696.099	57.58
696.424	57.61
696.749	57.63
697.073	57.61
697.398	57.67
697.723	57.73
698.047	57.84
698.372	57.87
698.696	57.91
699.02	58.02
699.345	58.03
699.669	58.05
699.993	57.92
700.318	57.89
700.642	57.84
700.966	57.94
701.29	57.89
701.614	57.98
701.938	58.18
702.262	58.16
702.586	58.09
702.91	58.11
703.234	58.04
703.557	57.97
703.881	57.95
704.205	57.9
704.529	57.91
704.852	57.94
705.176	57.96
705.499	58.03
705.823	57.83
706.146	57.8
706.47	57.78
706.793	57.91
707.117	57.8
707.44	57.73
707.763	57.52
708.086	57.36
708.409	57.22
708.733	56.98
709.056	57.13
709.379	57.26
709.702	57.28
710.025	57.31
710.348	57.22
710.671	57.21
710.993	57.22
711.316	57.19
711.639	57.09
711.962	57
712.284	56.91
712.607	57.08
712.93	57.35
713.252	57.37
713.575	57.5
713.897	57.65
714.22	57.8
714.542	57.82
714.864	57.96
715.187	58.06
715.509	58.15
715.831	58.14
716.153	57.96
716.475	57.86
716.798	57.76
717.12	57.84
717.442	57.95
717.764	57.96
718.085	57.93
718.407	57.91
718.729	57.9
719.051	58.02
719.373	57.99
719.695	57.7
720.016	57.8
720.338	57.55
720.659	57.49
720.981	57.47
721.302	57.5
721.624	57.66
721.945	57.67
722.267	57.44
722.588	57.42
722.909	57.64
723.231	57.74
723.552	58.33
723.873	58.36
724.194	58.39
724.515	58.18
724.836	58.26
725.157	58.48
725.478	58.64
725.799	58.83
726.12	58.89
726.441	59.04
726.762	58.88
727.083	59.25
727.403	59.31
727.724	59.23
728.045	59.29
728.365	58.99
728.686	59.03
729.006	59.25
729.327	59.32
729.647	59.19
729.967	59.27
730.288	58.98
730.608	59.04
730.928	59.09
731.249	59.33
731.569	59.38
731.889	59.31
732.209	59.14
732.529	59
732.849	58.99
733.169	58.87
733.489	58.73
733.809	58.42
734.129	58.58
734.448	58.71
734.768	58.78
735.088	58.95
735.408	58.79
735.727	58.77
736.047	58.68
736.366	58.69
736.686	58.45
737.005	58.61
737.325	58.52
737.644	58.29
737.963	58.32
738.283	58.43
738.602	58.39
738.921	58.38
739.24	58.36
739.56	58.25
739.879	58.3
740.198	58.43
740.517	58.77
740.836	58.48
741.155	58.3
741.473	58.28
741.792	58.36
742.111	58.59
742.43	58.7
742.748	58.85
743.067	58.85
743.386	58.95
743.704	58.66
744.023	58.56
744.341	58.8
744.66	58.76
744.978	58.69
745.297	58.58
745.615	58.86
745.933	58.9
746.252	59.5
746.57	59.63
746.888	59.66
747.206	59.65
747.524	59.44
747.842	59.55
748.16	59.39
748.478	59.24
748.796	59.08
749.114	58.85
749.432	58.5
749.749	58.24
750.067	58.14
750.385	58.29
750.703	58.38
751.02	58.29
751.338	58.53
751.655	58.38
751.973	58.44
752.29	58.02
752.608	58
752.925	57.5
753.242	57.51
753.56	57.58
753.877	57.26
754.194	57.57
754.511	57.54
754.828	57.54
755.145	57.6
755.462	57.56
755.779	57.73
756.096	57.88
756.413	58.29
756.73	58.68
757.047	58.72
757.364	59.05
757.68	59.09
757.997	58.79
758.314	58.83
758.63	58.74
758.947	58.98
759.264	59.04
759.58	58.9
759.896	58.83
760.213	58.73
760.529	59.04
760.846	59.17
761.162	59.42
761.478	59.57
761.794	59.31
762.11	59.15
762.426	59.19
762.743	59.45
763.059	59.36
763.375	59.26
763.69	59.35
764.006	59.18
764.322	59.16
764.638	59.18
764.954	59.22
765.27	59
765.585	59.02
765.901	59.13
766.216	59.14
766.532	59.18
766.848	59.16
767.163	58.89
767.478	58.79
767.794	58.56
768.109	58.42
768.424	58.62
768.74	58.67
769.055	58.31
769.37	58.15
769.685	57.9
770	57.71
770.315	57.47
770.63	57.57
770.945	57.52
771.26	57.35
771.575	57.35
771.89	57.87
772.205	57.72
772.52	57.59
772.834	57.57
773.149	57.23
773.464	57.48
773.778	57.82
774.093	57.75
774.407	58.14
774.722	58.01
775.036	58.29
775.351	58.51
775.665	58.91
775.979	58.95
776.293	59.5
776.608	59.68
776.922	59.44
777.236	59.09
777.55	58.98
777.864	58.89
778.178	58.42
778.492	58.23
778.806	58.57
779.12	58.42
779.434	58.5
779.747	58.69
780.061	58.9
780.375	58.78
780.689	58.83
781.002	58.59
781.316	58.99
781.629	58.63
781.943	58.71
782.256	58.41
782.57	58.07
782.883	57.74
783.196	57.65
783.51	57.73
783.823	58.01
784.136	58.27
784.449	58.89
784.762	58.96
785.075	58.86
785.388	58.77
785.701	58.75
786.014	58.04
786.327	57.89
786.64	57.97
786.953	58.17
787.266	58.03
787.578	57.85
787.891	57.53
788.204	58.01
788.516	58.16
788.829	58.69
789.141	58.73
789.454	58.61
789.766	58.49
790.079	58.3
790.391	58.05
790.703	57.71
791.016	58.12
791.328	58.69
791.64	59.26
791.952	58.96
792.264	58.93
792.576	59.43
792.888	59.88
793.2	58.89
793.512	58.99
793.824	58.97
794.136	59.42
794.448	59.6
794.76	59.58
795.071	59.3
795.383	59.27
795.695	59.75
796.006	59.79
796.318	60.47
796.629	61.05
796.941	60.95
797.252	60.99
797.564	60.12
797.875	59.78
798.186	59.28
798.497	59.69
798.809	59.7
799.12	59.75
799.431	59.79
799.742	60.3
800.053	59.95
800.364	59.92
800.675	59.53
800.986	59.4
801.297	59.3
801.608	59.37
801.918	58.92
802.229	58.24
802.54	58.43
802.851	57.91
803.161	57.45
803.472	58.22
803.782	58.26
804.093	58.55
804.403	59.08
804.714	59.1
805.024	58.84
805.334	59.2
805.645	58.92
805.955	59.53
806.265	59.52
806.575	59.47
806.885	59.66
807.195	59.26
807.505	58.99
807.815	58.28
808.125	58.58
808.435	59
808.745	59.37
809.055	59.73
809.365	59.79
809.674	59.67
809.984	59.09
810.294	59.38
810.603	59
810.913	59.28
811.222	59.09
811.532	59.19
811.841	58.79
812.151	59.63
812.46	59.21
812.769	59.53
813.079	59.95
813.388	59.4
813.697	59.51
814.006	59.7
814.315	60.84
814.624	60.02
814.933	59.31
815.242	59.49
815.551	58.49
815.86	58.59
816.169	59.33
816.478	59.96
816.786	59.56
817.095	59.67
817.404	58.86
817.712	58.73
818.021	58.13
818.33	58.77
818.638	58.35
818.947	58.68
819.255	58.44
819.563	58.16
819.872	58.42
820.18	58.82
820.488	58.94
820.796	59.21
821.105	59.83
821.413	60.21
821.721	60.01
822.029	60.14
822.337	60.03
822.645	60.18
822.953	60.26
823.26	60.43
823.568	60.38
823.876	60.34
824.184	60.29
824.491	60.65
824.799	60.32
825.107	60.53
825.414	60.38
825.722	60.34
826.029	60.39
826.337	60.66
826.644	60.81
826.951	61.02
827.259	60.97
827.566	60.93
827.873	60.88
828.18	61.22
828.488	61.26
828.795	61.58
829.102	61.36
829.409	61.05
829.716	60.94
830.023	61.03
830.329	61.28
830.636	61.76
830.943	61.06
831.25	61.53
831.557	61.43
831.863	61.44
832.17	61.85
832.476	62.02
832.783	61.62
833.089	61.79
833.396	61.6
833.702	61.03
834.009	60.6
834.315	60.21
834.621	59.99
834.928	60.06
835.234	59.68
835.54	59.76
835.846	59.73
836.152	60.46
836.458	60.36
836.764	60.14
837.07	59.9
837.376	60.09
837.682	60.07
837.988	60.11
838.293	60.09
838.599	59.73
838.905	59.81
839.211	60.59
839.516	59.52
839.822	59.48
840.127	59.71
840.433	59.48
840.738	59.28
841.044	58.33
841.349	58.63
841.654	58.29
841.959	58.13
842.265	57.29
842.57	55.4
842.875	56.23
843.18	55.93
843.485	55.5
843.79	54.84
844.095	55.22
844.4	55.53
844.705	54.64
845.01	54.6
845.315	54.96
845.619	52.04
845.924	52.41
846.229	52.1
846.533	50.69
846.838	50.41
847.142	52.01
847.447	51.89
847.751	51.12
848.056	53.09
848.36	52.68
848.664	54.16
848.969	54.01
849.273	55.01
849.577	54.15
849.881	54.6
850.185	54.86
850.489	55.29
850.794	55.38
851.097	56.38
851.401	56.83
851.705	55.88
852.009	58.1
852.313	56.5
852.617	57.07
852.92	58.83
853.224	60.43
853.528	58.89
853.831	60.46
854.135	59.94
854.438	58.62
854.742	58.59
855.045	58.55
855.349	59.51
855.652	59.32
855.955	61.12
856.259	61.9
856.562	62.79
856.865	61.22
857.168	58.75
857.471	57.71
857.774	58.48
858.077	57.84
858.38	58.05
858.683	59.94
858.986	58.76
859.289	59.75
859.592	58.32
859.894	60.33
860.197	59.37
860.5	60.46
860.802	61.4
861.105	63.42
861.407	64.02
861.71	63.07
862.012	58.84
862.315	60.3
862.617	60.71
862.919	63.93
863.222	63.88
863.524	65.64
863.826	67.72
864.128	68.93
864.43	71.17
864.732	72.32
865.034	72.78
865.336	71.51
865.638	69.91
865.94	69.47
866.242	68.95
866.544	71.2
866.846	70.78
867.147	72.01
867.449	72.21
867.751	72.71
868.052	72.55
868.354	74.26
868.655	70.5
868.957	70.58
869.258	66.98
869.56	67.43
869.861	66.99
870.162	67.52
870.463	66.53
870.765	66.05
871.066	64.93
871.367	63.29
871.668	66.12
871.969	68.08
872.27	67.73
872.571	65.97
872.872	65.9
873.173	65.16
873.473	64.06
873.774	63.35
874.075	62.55
874.376	64.98
874.676	65.41
874.977	69
875.277	68.49
875.578	68.96
875.878	69.25
876.179	69.51
876.479	68.61
876.78	68.04
877.08	67.31
877.38	67.73
877.68	69.02
877.981	68.14
878.281	66.23
878.581	69.15
