Data from BU26849_Reflection_00014.txt Node
Date: Mon Nov 18 16:43:31 EST 2019
User: vgr7
Spectrometer: USB2G7710
Scans to average: 3
Trigger mode: 4
Integration Time (sec): 2.000000E-2
Electric dark correction enabled: true
Boxcar width: 10
XAxis mode: Wavelengths
Number of Pixels in Spectrum: 2048
>>>>>Begin Spectral Data<<<<<
177.721	-84.78
178.105	-66.91
178.488	-62.58
178.871	-32.32
179.254	-18.37
179.636	-47.57
180.019	-10.2
180.402	77.42
180.785	-32.66
181.168	260.19
181.55	151.5
181.933	96.31
182.316	81.3
182.698	49.38
183.081	53.94
183.463	25.53
183.846	33.9
184.228	15.11
184.611	61.66
184.993	114.83
185.376	109.63
185.758	89.57
186.14	50.91
186.522	100
186.904	21.96
187.287	23.29
187.669	135.19
188.051	-750.39
188.433	-177.87
188.815	-116.52
189.197	-82.07
189.579	-47.08
189.961	-32.53
190.342	-26.23
190.724	-14.64
191.106	-16.75
191.488	-31.98
191.869	-31.55
192.251	-40.67
192.633	-35.47
193.014	-37.81
193.396	-32.43
193.777	4.48
194.159	-20.21
194.54	-40.3
194.922	-40.74
195.303	-18.58
195.684	-19.62
196.065	2.39
196.447	4.72
196.828	15.88
197.209	32.35
197.59	29.33
197.971	45.53
198.352	39.95
198.733	36.57
199.114	40.11
199.495	49.44
199.876	56.79
200.257	59.1
200.638	68.86
201.018	74.09
201.399	59.44
201.78	55.85
202.16	52.07
202.541	56.75
202.922	51.67
203.302	34.21
203.683	46.44
204.063	36.59
204.444	45.28
204.824	45.22
205.204	31.14
205.585	22.75
205.965	21.56
206.345	12.74
206.725	11.62
207.106	-11.66
207.486	-30.25
207.866	-37.07
208.246	-60.03
208.626	-109.79
209.006	-124.85
209.386	-121.83
209.766	-119
210.145	-58.18
210.525	-48.57
210.905	-44.03
211.285	-36.06
211.664	-34.32
212.044	-21.42
212.424	-27.75
212.803	-49.59
213.183	-49.66
213.562	-59.64
213.942	-22.62
214.321	7.69
214.701	-8.78
215.08	-2.66
215.459	-0.76
215.838	2.46
216.218	13.2
216.597	19.35
216.976	15.12
217.355	13.01
217.734	12.28
218.113	4.09
218.492	-0.33
218.871	-8.33
219.25	-7.35
219.629	-12.09
220.008	-19.94
220.387	-16.61
220.766	-11.95
221.144	-15.87
221.523	-12.84
221.902	-23.83
222.28	-36.73
222.659	-20.4
223.037	-8.38
223.416	-10.5
223.794	-9.6
224.173	-9
224.551	2.75
224.929	4.1
225.308	1.23
225.686	1.08
226.064	1.05
226.442	7.18
226.821	9.18
227.199	15.46
227.577	14.85
227.955	15.69
228.333	13.53
228.711	13.24
229.089	15.35
229.467	14.9
229.845	12.37
230.222	12.5
230.6	11.84
230.978	9.88
231.356	13
231.733	12.21
232.111	11.35
232.488	11.09
232.866	10.16
233.243	10
233.621	8.37
233.998	10.21
234.376	9.11
234.753	7.59
235.13	6.15
235.508	8.1
235.885	7.03
236.262	5.73
236.639	7.18
237.016	5.81
237.393	6.21
237.77	7.15
238.147	6.29
238.524	6.23
238.901	6.06
239.278	6.4
239.655	6.63
240.032	6.16
240.409	6.09
240.785	6.46
241.162	7.15
241.539	7.33
241.915	6.75
242.292	6.12
242.668	5.95
243.045	5.7
243.421	5.36
243.798	5.1
244.174	5.28
244.551	5.18
244.927	4.99
245.303	5.06
245.679	5.21
246.056	5.07
246.432	4.83
246.808	4.73
247.184	4.22
247.56	3.89
247.936	3.96
248.312	3.65
248.688	3.88
249.064	3.61
249.44	3.44
249.815	3.47
250.191	3.73
250.567	3.74
250.943	3.69
251.318	3.74
251.694	3.73
252.069	3.57
252.445	3.28
252.82	3.61
253.196	3.44
253.571	2.97
253.947	3.16
254.322	3.4
254.697	3.1
255.073	3.23
255.448	3.33
255.823	3.3
256.198	3.35
256.573	3.03
256.948	3.13
257.323	3.28
257.698	3.29
258.073	3.33
258.448	3.36
258.823	3.36
259.198	3.34
259.573	3.27
259.948	3.33
260.322	3.3
260.697	3.02
261.072	2.94
261.446	3.17
261.821	3.16
262.195	3.19
262.57	3.36
262.944	3.28
263.319	3.29
263.693	3.15
264.067	3.52
264.442	3.43
264.816	3.51
265.19	3.29
265.564	3.19
265.938	2.96
266.313	2.95
266.687	2.98
267.061	3.04
267.435	3.31
267.809	3.4
268.183	3.43
268.556	3.62
268.93	3.78
269.304	3.53
269.678	3.63
270.051	3.44
270.425	3.47
270.799	3.56
271.172	3.58
271.546	3.6
271.919	3.2
272.293	3.22
272.666	3.22
273.04	3.42
273.413	3.42
273.787	3.39
274.16	3.43
274.533	3.46
274.906	3.29
275.279	3.14
275.653	3.02
276.026	2.99
276.399	3.02
276.772	2.89
277.145	2.81
277.518	2.66
277.891	2.91
278.263	2.76
278.636	2.69
279.009	2.67
279.382	2.76
279.755	2.75
280.127	2.95
280.5	2.94
280.872	2.83
281.245	2.79
281.617	2.91
281.99	2.91
282.362	2.97
282.735	2.96
283.107	3.04
283.479	3.13
283.852	3.22
284.224	3.15
284.596	3.17
284.968	3.21
285.34	3.33
285.713	3.35
286.085	3.53
286.457	3.65
286.829	3.67
287.201	3.68
287.572	3.66
287.944	3.6
288.316	3.65
288.688	3.64
289.06	3.64
289.431	3.63
289.803	3.69
290.175	3.8
290.546	3.97
290.918	3.97
291.289	3.98
291.661	4.06
292.032	4.19
292.403	4.1
292.775	4.12
293.146	3.99
293.517	3.83
293.889	3.76
294.26	3.68
294.631	3.72
295.002	3.65
295.373	3.75
295.744	3.72
296.115	3.77
296.486	3.69
296.857	3.71
297.228	3.8
297.599	3.68
297.97	3.57
298.34	3.56
298.711	3.52
299.082	3.54
299.452	3.54
299.823	3.53
300.194	3.74
300.564	3.76
300.935	3.87
301.305	3.96
301.676	3.99
302.046	4.08
302.416	4.07
302.787	4.1
303.157	4.19
303.527	4.26
303.897	4.25
304.267	4.53
304.637	4.64
305.008	4.6
305.378	4.81
305.748	4.86
306.117	4.66
306.487	4.67
306.857	4.7
307.227	4.8
307.597	4.81
307.967	4.6
308.336	4.8
308.706	4.85
309.076	4.94
309.445	4.9
309.815	4.89
310.184	4.88
310.554	5.05
310.923	5.07
311.293	4.99
311.662	4.98
312.031	5.03
312.401	5.11
312.77	5.23
313.139	5.32
313.508	5.34
313.877	5.51
314.246	5.71
314.616	5.75
314.985	5.69
315.353	5.7
315.722	5.9
316.091	5.7
316.46	5.66
316.829	5.58
317.198	5.76
317.567	5.88
317.935	6
318.304	6.02
318.672	6.02
319.041	6.3
319.41	6.48
319.778	6.27
320.147	6.25
320.515	6.16
320.883	6.1
321.252	6.18
321.62	6.19
321.988	6.23
322.357	6.2
322.725	6.23
323.093	6.25
323.461	6.15
323.829	6.29
324.197	6.35
324.565	6.45
324.933	6.41
325.301	6.42
325.669	6.5
326.037	6.43
326.405	6.42
326.772	6.42
327.14	6.42
327.508	6.49
327.875	6.39
328.243	6.53
328.61	6.45
328.978	6.36
329.346	6.48
329.713	6.38
330.08	6.39
330.448	6.31
330.815	6.34
331.182	6.5
331.55	6.4
331.917	6.54
332.284	6.6
332.651	6.61
333.018	6.73
333.385	6.63
333.752	6.73
334.119	6.88
334.486	6.74
334.853	6.69
335.22	6.73
335.587	6.85
335.954	6.72
336.32	6.74
336.687	6.96
337.054	6.99
337.42	7.1
337.787	7.21
338.153	7.25
338.52	7.33
338.886	7.23
339.253	7.36
339.619	7.22
339.986	7.21
340.352	7.22
340.718	7.14
341.084	7.2
341.451	7.24
341.817	7.24
342.183	7.32
342.549	7.28
342.915	7.31
343.281	7.3
343.647	7.32
344.013	7.35
344.379	7.24
344.745	7.34
345.11	7.39
345.476	7.38
345.842	7.37
346.208	7.35
346.573	7.48
346.939	7.53
347.304	7.55
347.67	7.51
348.035	7.55
348.401	7.52
348.766	7.63
349.132	7.62
349.497	7.54
349.862	7.59
350.228	7.56
350.593	7.54
350.958	7.52
351.323	7.56
351.688	7.58
352.053	7.64
352.418	7.49
352.783	7.41
353.148	7.43
353.513	7.44
353.878	7.38
354.243	7.41
354.608	7.34
354.972	7.37
355.337	7.44
355.702	7.48
356.066	7.51
356.431	7.43
356.795	7.45
357.16	7.46
357.524	7.36
357.889	7.32
358.253	7.34
358.618	7.38
358.982	7.27
359.346	7.25
359.71	7.25
360.075	7.23
360.439	7.22
360.803	7.17
361.167	7.13
361.531	7.12
361.895	7.09
362.259	7.06
362.623	7.08
362.987	7.05
363.351	7.01
363.714	7.03
364.078	6.97
364.442	6.89
364.806	6.89
365.169	6.87
365.533	6.9
365.896	6.88
366.26	6.92
366.623	6.98
366.987	6.94
367.35	6.9
367.714	6.92
368.077	6.87
368.44	6.8
368.803	6.77
369.167	6.76
369.53	6.69
369.893	6.71
370.256	6.64
370.619	6.58
370.982	6.43
371.345	6.31
371.708	6.33
372.071	6.3
372.434	6.18
372.797	6.16
373.159	6.16
373.522	6.1
373.885	6.02
374.247	5.98
374.61	5.97
374.973	5.88
375.335	5.85
375.698	5.83
376.06	5.77
376.423	5.75
376.785	5.76
377.147	5.75
377.51	5.74
377.872	5.75
378.234	5.72
378.596	5.79
378.958	5.81
379.321	5.74
379.683	5.72
380.045	5.71
380.407	5.69
380.769	5.58
381.13	5.54
381.492	5.48
381.854	5.43
382.216	5.37
382.578	5.36
382.939	5.32
383.301	5.31
383.663	5.3
384.024	5.28
384.386	5.19
384.747	5.17
385.109	5.11
385.47	5.01
385.832	4.93
386.193	4.86
386.554	4.8
386.916	4.77
387.277	4.77
387.638	4.75
387.999	4.69
388.36	4.72
388.721	4.71
389.082	4.68
389.443	4.63
389.804	4.6
390.165	4.52
390.526	4.47
390.887	4.45
391.248	4.4
391.609	4.37
391.969	4.36
392.33	4.31
392.691	4.24
393.051	4.19
393.412	4.18
393.772	4.19
394.133	4.17
394.493	4.14
394.854	4.07
395.214	4.06
395.574	4.08
395.935	4.02
396.295	4
396.655	3.97
397.015	3.96
397.376	3.95
397.736	3.97
398.096	3.93
398.456	3.88
398.816	3.9
399.176	3.89
399.535	3.87
399.895	3.78
400.255	3.82
400.615	3.85
400.975	3.86
401.334	3.79
401.694	3.79
402.054	3.74
402.413	3.73
402.773	3.68
403.132	3.6
403.492	3.59
403.851	3.59
404.211	3.57
404.57	3.56
404.929	3.51
405.288	3.48
405.648	3.49
406.007	3.48
406.366	3.44
406.725	3.44
407.084	3.44
407.443	3.48
407.802	3.45
408.161	3.43
408.52	3.38
408.879	3.39
409.238	3.37
409.596	3.38
409.955	3.36
410.314	3.36
410.673	3.39
411.031	3.37
411.39	3.34
411.748	3.33
412.107	3.31
412.465	3.32
412.824	3.29
413.182	3.27
413.54	3.27
413.899	3.29
414.257	3.29
414.615	3.26
414.974	3.25
415.332	3.22
415.69	3.2
416.048	3.19
416.406	3.18
416.764	3.17
417.122	3.15
417.48	3.15
417.838	3.16
418.195	3.16
418.553	3.17
418.911	3.14
419.269	3.14
419.626	3.16
419.984	3.14
420.342	3.14
420.699	3.13
421.057	3.11
421.414	3.08
421.772	3.04
422.129	3.05
422.486	3.04
422.844	3.05
423.201	3.04
423.558	3.04
423.915	3.04
424.273	3.03
424.63	3.03
424.987	3.02
425.344	3
425.701	2.98
426.058	2.97
426.415	2.98
426.772	2.97
427.128	2.93
427.485	2.93
427.842	2.93
428.199	2.93
428.555	2.92
428.912	2.96
429.269	2.96
429.625	2.93
429.982	2.93
430.338	2.93
430.695	2.93
431.051	2.92
431.407	2.89
431.764	2.9
432.12	2.9
432.476	2.9
432.832	2.89
433.189	2.9
433.545	2.9
433.901	2.9
434.257	2.89
434.613	2.91
434.969	2.94
435.325	2.93
435.681	2.92
436.036	2.92
436.392	2.89
436.748	2.89
437.104	2.9
437.459	2.89
437.815	2.87
438.171	2.87
438.526	2.89
438.882	2.91
439.237	2.91
439.593	2.91
439.948	2.92
440.304	2.92
440.659	2.91
441.014	2.9
441.369	2.87
441.725	2.86
442.08	2.86
442.435	2.85
442.79	2.84
443.145	2.83
443.5	2.82
443.855	2.83
444.21	2.84
444.565	2.84
444.92	2.84
445.275	2.84
445.629	2.84
445.984	2.83
446.339	2.82
446.693	2.8
447.048	2.79
447.403	2.8
447.757	2.81
448.112	2.8
448.466	2.81
448.82	2.81
449.175	2.83
449.529	2.82
449.883	2.8
450.238	2.79
450.592	2.79
450.946	2.79
451.3	2.8
451.654	2.8
452.008	2.8
452.362	2.78
452.716	2.79
453.07	2.79
453.424	2.78
453.778	2.79
454.132	2.79
454.486	2.76
454.839	2.75
455.193	2.72
455.547	2.72
455.9	2.73
456.254	2.74
456.607	2.75
456.961	2.74
457.314	2.74
457.668	2.76
458.021	2.74
458.375	2.74
458.728	2.73
459.081	2.72
459.434	2.7
459.787	2.72
460.141	2.71
460.494	2.71
460.847	2.72
461.2	2.69
461.553	2.71
461.906	2.74
462.259	2.76
462.611	2.78
462.964	2.79
463.317	2.78
463.67	2.78
464.022	2.77
464.375	2.76
464.728	2.79
465.08	2.81
465.433	2.84
465.785	2.84
466.138	2.86
466.49	2.86
466.843	2.88
467.195	2.89
467.547	2.91
467.899	2.92
468.252	2.91
468.604	2.95
468.956	2.94
469.308	2.95
469.66	2.94
470.012	2.93
470.364	2.93
470.716	2.94
471.068	2.93
471.42	2.95
471.772	2.97
472.123	2.99
472.475	2.98
472.827	3
473.178	3.02
473.53	3.01
473.882	3.01
474.233	3.01
474.585	3
474.936	3
475.288	2.99
475.639	3.02
475.99	3.02
476.342	3
476.693	3.01
477.044	3.01
477.395	3.03
477.746	3.02
478.097	3.01
478.448	3.01
478.8	3
479.15	2.98
479.501	2.96
479.852	2.94
480.203	2.94
480.554	2.94
480.905	2.94
481.255	2.94
481.606	2.94
481.957	2.95
482.307	2.95
482.658	2.95
483.009	2.94
483.359	2.93
483.709	2.93
484.06	2.92
484.41	2.92
484.761	2.92
485.111	2.92
485.461	2.93
485.811	2.93
486.162	2.93
486.512	2.94
486.862	2.93
487.212	2.93
487.562	2.94
487.912	2.94
488.262	2.94
488.612	2.94
488.961	2.93
489.311	2.93
489.661	2.93
490.011	2.93
490.36	2.93
490.71	2.93
491.06	2.95
491.409	2.95
491.759	2.96
492.108	2.97
492.458	2.97
492.807	2.97
493.157	2.98
493.506	2.99
493.855	3.01
494.204	3.02
494.554	3.02
494.903	3.02
495.252	3.01
495.601	3.04
495.95	3.06
496.299	3.1
496.648	3.12
496.997	3.15
497.346	3.17
497.695	3.19
498.043	3.21
498.392	3.21
498.741	3.24
499.09	3.26
499.438	3.3
499.787	3.32
500.135	3.35
500.484	3.42
500.832	3.43
501.181	3.45
501.529	3.49
501.878	3.55
502.226	3.59
502.574	3.64
502.923	3.68
503.271	3.71
503.619	3.75
503.967	3.8
504.315	3.83
504.663	3.89
505.011	3.97
505.359	4.03
505.707	4.09
506.055	4.11
506.403	4.16
506.751	4.21
507.098	4.26
507.446	4.33
507.794	4.36
508.141	4.45
508.489	4.53
508.837	4.6
509.184	4.67
509.531	4.74
509.879	4.84
510.226	4.91
510.574	4.97
510.921	5.04
511.268	5.13
511.616	5.21
511.963	5.29
512.31	5.35
512.657	5.46
513.004	5.56
513.351	5.69
513.698	5.79
514.045	5.9
514.392	6.04
514.739	6.14
515.086	6.27
515.432	6.37
515.779	6.45
516.126	6.57
516.473	6.68
516.819	6.79
517.166	6.88
517.512	6.99
517.859	7.1
518.205	7.23
518.552	7.31
518.898	7.42
519.245	7.51
519.591	7.62
519.937	7.71
520.283	7.84
520.629	7.97
520.976	8.11
521.322	8.23
521.668	8.36
522.014	8.5
522.36	8.64
522.706	8.82
523.052	9.02
523.398	9.19
523.743	9.37
524.089	9.54
524.435	9.71
524.781	9.89
525.126	10.07
525.472	10.18
525.817	10.31
526.163	10.44
526.509	10.57
526.854	10.69
527.199	10.82
527.545	10.94
527.89	11.03
528.235	11.14
528.581	11.26
528.926	11.39
529.271	11.52
529.616	11.65
529.961	11.76
530.306	11.88
530.651	12.02
530.996	12.15
531.341	12.31
531.686	12.46
532.031	12.6
532.376	12.76
532.721	12.94
533.065	13.11
533.41	13.28
533.755	13.48
534.099	13.67
534.444	13.84
534.788	14.03
535.133	14.22
535.477	14.42
535.822	14.62
536.166	14.85
536.51	15.09
536.855	15.33
537.199	15.59
537.543	15.87
537.887	16.11
538.231	16.41
538.576	16.67
538.92	16.94
539.264	17.19
539.608	17.43
539.951	17.68
540.295	17.92
540.639	18.15
540.983	18.38
541.327	18.58
541.671	18.82
542.014	19.03
542.358	19.27
542.701	19.49
543.045	19.73
543.389	19.95
543.732	20.18
544.075	20.42
544.419	20.65
544.762	20.87
545.105	21.15
545.449	21.4
545.792	21.69
546.135	21.99
546.478	22.31
546.821	22.65
547.165	22.99
547.508	23.33
547.851	23.65
548.194	23.97
548.536	24.31
548.879	24.65
549.222	24.98
549.565	25.3
549.908	25.62
550.25	25.96
550.593	26.3
550.936	26.65
551.278	26.97
551.621	27.32
551.963	27.74
552.306	28.05
552.648	28.41
552.991	28.78
553.333	29.11
553.675	29.45
554.017	29.69
554.36	29.99
554.702	30.31
555.044	30.61
555.386	30.93
555.728	31.27
556.07	31.61
556.412	31.92
556.754	32.24
557.096	32.58
557.438	32.91
557.78	33.22
558.121	33.49
558.463	33.84
558.805	34.2
559.147	34.51
559.488	34.88
559.83	35.17
560.171	35.47
560.513	35.76
560.854	36.06
561.196	36.46
561.537	36.73
561.878	37.04
562.22	37.33
562.561	37.64
562.902	37.95
563.243	38.17
563.584	38.48
563.925	38.78
564.266	39.07
564.607	39.3
564.948	39.53
565.289	39.87
565.63	40.14
565.971	40.37
566.312	40.6
566.653	40.81
566.993	41
567.334	41.3
567.675	41.54
568.015	41.81
568.356	41.96
568.696	42.2
569.037	42.46
569.377	42.71
569.718	42.92
570.058	43.13
570.398	43.34
570.739	43.56
571.079	43.76
571.419	43.98
571.759	44.19
572.099	44.39
572.439	44.55
572.779	44.72
573.119	44.93
573.459	45.04
573.799	45.2
574.139	45.41
574.479	45.55
574.819	45.69
575.158	45.79
575.498	46.05
575.838	46.24
576.177	46.42
576.517	46.6
576.856	46.81
577.196	46.98
577.535	47.18
577.875	47.32
578.214	47.54
578.553	47.63
578.893	47.8
579.232	47.97
579.571	48.12
579.91	48.25
580.25	48.37
580.589	48.55
580.928	48.74
581.267	48.95
581.606	48.95
581.945	49.08
582.283	49.25
582.622	49.33
582.961	49.46
583.3	49.55
583.639	49.62
583.977	49.75
584.316	49.92
584.654	50.11
584.993	50.3
585.332	50.37
585.67	50.55
586.008	50.68
586.347	50.79
586.685	50.9
587.024	51
587.362	51.13
587.7	51.29
588.038	51.41
588.376	51.46
588.715	51.68
589.053	51.86
589.391	51.94
589.729	52.08
590.067	52.14
590.404	52.21
590.742	52.37
591.08	52.47
591.418	52.52
591.756	52.58
592.093	52.6
592.431	52.73
592.769	52.85
593.106	52.95
593.444	53.02
593.781	53.07
594.119	53.2
594.456	53.26
594.793	53.38
595.131	53.44
595.468	53.62
595.805	53.64
596.143	53.61
596.48	53.69
596.817	53.68
597.154	53.79
597.491	53.85
597.828	53.89
598.165	53.95
598.502	54.04
598.839	54.16
599.176	54.28
599.512	54.31
599.849	54.33
600.186	54.34
600.523	54.51
600.859	54.61
601.196	54.67
601.532	54.8
601.869	54.79
602.205	54.82
602.542	54.85
602.878	54.96
603.215	55.1
603.551	55.15
603.887	55.28
604.223	55.28
604.56	55.37
604.896	55.44
605.232	55.45
605.568	55.43
605.904	55.36
606.24	55.43
606.576	55.49
606.912	55.55
607.248	55.69
607.583	55.73
607.919	55.77
608.255	55.76
608.591	55.81
608.926	55.9
609.262	55.98
609.597	56.07
609.933	56.14
610.268	56.18
610.604	56.27
610.939	56.34
611.275	56.45
611.61	56.43
611.945	56.46
612.281	56.49
612.616	56.59
612.951	56.75
613.286	56.8
613.621	56.85
613.956	56.94
614.291	56.97
614.626	57
614.961	57.08
615.296	57.13
615.631	57.11
615.966	57.09
616.3	57.22
616.635	57.13
616.97	57.24
617.304	57.27
617.639	57.19
617.973	57.2
618.308	57.24
618.642	57.26
618.977	57.26
619.311	57.32
619.646	57.4
619.98	57.4
620.314	57.4
620.648	57.44
620.983	57.46
621.317	57.42
621.651	57.5
621.985	57.49
622.319	57.58
622.653	57.71
622.987	57.83
623.321	57.75
623.655	57.83
623.988	57.77
624.322	57.8
624.656	58.03
624.99	58
625.323	57.98
625.657	58.07
625.99	58.07
626.324	58.08
626.657	58.04
626.991	57.97
627.324	58.02
627.658	58.08
627.991	58.11
628.324	58.23
628.657	58.27
628.991	58.34
629.324	58.35
629.657	58.32
629.99	58.34
630.323	58.34
630.656	58.41
630.989	58.54
631.322	58.57
631.655	58.48
631.987	58.59
632.32	58.66
632.653	58.75
632.986	58.87
633.318	58.9
633.651	58.98
633.984	59.1
634.316	59.08
634.649	58.99
634.981	59.05
635.313	59.02
635.646	58.98
635.978	59.02
636.31	59.09
636.643	59.07
636.975	59.06
637.307	59.16
637.639	59.2
637.971	59.12
638.303	59.12
638.635	59.06
638.967	59.03
639.299	59.1
639.631	59.05
639.963	59.02
640.295	59.08
640.626	59.08
640.958	59.15
641.29	59.14
641.621	59.2
641.953	59.13
642.285	59.23
642.616	59.17
642.948	59.22
643.279	59.26
643.61	59.33
643.942	59.32
644.273	59.31
644.604	59.31
644.936	59.32
645.267	59.48
645.598	59.48
645.929	59.56
646.26	59.43
646.591	59.54
646.922	59.61
647.253	59.66
647.584	59.65
647.915	59.62
648.245	59.72
648.576	59.88
648.907	60.02
649.238	59.85
649.568	59.93
649.899	59.99
650.229	59.93
650.56	60.06
650.89	60.25
651.221	60.29
651.551	60.28
651.882	60.36
652.212	60.24
652.542	60.38
652.872	60.32
653.203	60.3
653.533	60.26
653.863	60.3
654.193	60.31
654.523	60.39
654.853	60.51
655.183	60.57
655.513	60.45
655.843	60.33
656.172	60.32
656.502	60.31
656.832	60.25
657.162	60.29
657.491	60.18
657.821	60.13
658.15	60.15
658.48	60.12
658.809	60.02
659.139	60.06
659.468	60.04
659.798	60.07
660.127	60.19
660.456	60.2
660.785	60.13
661.115	60.16
661.444	60.16
661.773	60.14
662.102	60.18
662.431	60.27
662.76	60.42
663.089	60.49
663.418	60.55
663.747	60.55
664.076	60.57
664.404	60.57
664.733	60.56
665.062	60.58
665.39	60.54
665.719	60.6
666.048	60.73
666.376	60.69
666.705	60.66
667.033	60.7
667.362	60.68
667.69	60.77
668.018	60.77
668.347	60.75
668.675	60.74
669.003	60.74
669.331	60.73
669.659	60.62
669.987	60.76
670.315	60.71
670.643	60.7
670.971	60.71
671.299	60.81
671.627	60.77
671.955	60.82
672.283	60.9
672.61	60.98
672.938	60.91
673.266	61.05
673.593	61.19
673.921	61.23
674.249	61.21
674.576	61.18
674.904	61.29
675.231	61.32
675.558	61.19
675.886	60.99
676.213	60.94
676.54	60.94
676.867	60.97
677.195	60.95
677.522	61.1
677.849	61.14
678.176	61.04
678.503	61.15
678.83	61.09
679.157	61.06
679.484	60.98
679.81	60.88
680.137	60.82
680.464	60.78
680.791	60.64
681.117	60.7
681.444	60.83
681.771	60.67
682.097	60.65
682.424	60.76
682.75	61.01
683.077	61.12
683.403	61.18
683.729	61.18
684.056	61.16
684.382	61.18
684.708	61.21
685.034	61.2
685.36	61.07
685.686	61.05
686.012	61.03
686.339	61.13
686.664	61.12
686.99	61.22
687.316	61.23
687.642	61.39
687.968	61.3
688.294	61.21
688.619	61.3
688.945	61.28
689.271	61.19
689.596	60.99
689.922	61
690.247	61.06
690.573	61.09
690.898	61.28
691.224	61.1
691.549	61.01
691.874	61.01
692.2	61.01
692.525	61.02
692.85	61.08
693.175	61.26
693.5	61.45
693.825	61.28
694.15	61.25
694.475	61.18
694.8	61.4
695.125	61.2
695.45	60.99
695.775	61.1
696.099	61.15
696.424	61.13
696.749	61.08
697.073	61.08
697.398	61.01
697.723	60.97
698.047	60.9
698.372	61.06
698.696	61.3
699.02	61.36
699.345	61.46
699.669	61.54
699.993	61.37
700.318	61.37
700.642	61.51
700.966	61.51
701.29	61.67
701.614	61.61
701.938	61.76
702.262	62.06
702.586	62.03
702.91	62.17
703.234	62.25
703.557	62.13
703.881	62.2
704.205	62.23
704.529	62.05
704.852	62.07
705.176	61.88
705.499	61.59
705.823	61.44
706.146	61.51
706.47	61.44
706.793	61.35
707.117	61.05
707.44	60.89
707.763	60.83
708.086	60.62
708.409	60.6
708.733	60.63
709.056	60.54
709.379	60.59
709.702	60.53
710.025	60.46
710.348	60.67
710.671	60.59
710.993	60.51
711.316	60.65
711.639	60.9
711.962	61.01
712.284	61.11
712.607	61.09
712.93	60.93
713.252	61.07
713.575	61.28
713.897	61.59
714.22	61.67
714.542	61.65
714.864	61.7
715.187	61.54
715.509	61.75
715.831	61.72
716.153	61.63
716.475	61.49
716.798	61.57
717.12	61.43
717.442	61.51
717.764	61.7
718.085	61.7
718.407	61.58
718.729	61.45
719.051	61.54
719.373	61.66
719.695	61.82
720.016	61.5
720.338	61.23
720.659	61.23
720.981	61.42
721.302	61.8
721.624	61.84
721.945	61.93
722.267	61.75
722.588	61.58
722.909	61.62
723.231	61.7
723.552	61.72
723.873	61.99
724.194	62.01
724.515	61.74
724.836	61.81
725.157	61.93
725.478	62.16
725.799	62.02
726.12	62
726.441	61.9
726.762	62.07
727.083	62.32
727.403	62.28
727.724	62.1
728.045	61.69
728.365	61.41
728.686	61.57
729.006	61.68
729.327	61.87
729.647	61.96
729.967	61.95
730.288	61.92
730.608	61.84
730.928	61.73
731.249	61.99
731.569	61.97
731.889	62.09
732.209	62.02
732.529	61.97
732.849	61.98
733.169	61.93
733.489	61.84
733.809	61.89
734.129	61.93
734.448	61.64
734.768	61.96
735.088	62.24
735.408	62.28
735.727	62.3
736.047	62.42
736.366	62.31
736.686	62.25
737.005	62.28
737.325	62.21
737.644	62.27
737.963	62.2
738.283	62.27
738.602	62.28
738.921	61.99
739.24	62.31
739.56	62.26
739.879	62.18
740.198	62.33
740.517	62.09
740.836	62.1
741.155	62.53
741.473	62.57
741.792	62.57
742.111	62.43
742.43	62.23
742.748	62.21
743.067	62.13
743.386	62.27
743.704	62.39
744.023	62.4
744.341	62.53
744.66	62.31
744.978	62.02
745.297	61.63
745.615	61.73
745.933	61.54
746.252	61.79
746.57	61.84
746.888	61.84
747.206	61.8
747.524	61.69
747.842	61.84
748.16	61.69
748.478	61.62
748.796	61.81
749.114	62.03
749.432	61.85
749.749	62.14
750.067	62.29
750.385	62.38
750.703	62.54
751.02	62.33
751.338	62.38
751.655	62.74
751.973	62.72
752.29	62.97
752.608	62.92
752.925	63.09
753.242	63.35
753.56	63.29
753.877	63.29
754.194	63.19
754.511	63.09
754.828	62.92
755.145	62.93
755.462	63.27
755.779	63.06
756.096	62.85
756.413	62.71
756.73	62.71
757.047	62.56
757.364	62.55
757.68	62.47
757.997	62.59
758.314	62.6
758.63	62.81
758.947	62.49
759.264	62.31
759.58	62.06
759.896	61.93
760.213	62.27
760.529	62.55
760.846	62.65
761.162	62.39
761.478	62.67
761.794	62.54
762.11	62.15
762.426	62.45
762.743	62.7
763.059	62.79
763.375	62.79
763.69	62.94
764.006	62.74
764.322	62.67
764.638	62.67
764.954	62.67
765.27	62.63
765.585	62.59
765.901	62.77
766.216	62.76
766.532	62.9
766.848	62.46
767.163	62.19
767.478	62
767.794	62.2
768.109	62.05
768.424	61.93
768.74	61.83
769.055	61.54
769.37	61.88
769.685	61.79
770	61.4
770.315	61.16
770.63	61.19
770.945	61.33
771.26	61.23
771.575	61.27
771.89	61.47
772.205	61.74
772.52	61.62
772.834	61.35
773.149	61.22
773.464	61.57
773.778	61.68
774.093	62.04
774.407	61.96
774.722	61.69
775.036	61.95
775.351	61.87
775.665	61.35
775.979	60.55
776.293	60.53
776.608	61.15
776.922	61.21
777.236	61.33
777.55	61.37
777.864	61.73
778.178	61.64
778.492	61.53
778.806	61.15
779.12	61.43
779.434	62.16
779.747	62.19
780.061	62.19
780.375	62.34
780.689	62.41
781.002	62.47
781.316	62.77
781.629	63.49
781.943	63.89
782.256	64.7
782.57	65.07
782.883	65.66
783.196	65.83
783.51	66
783.823	65.91
784.136	66.22
784.449	65.74
784.762	65.79
785.075	66.12
785.388	66.45
785.701	66.17
786.014	65.69
786.327	65.76
786.64	65.97
786.953	65.74
787.266	65.73
787.578	65.57
787.891	65.38
788.204	64.37
788.516	64.21
788.829	63.39
789.141	63.47
789.454	62.86
789.766	62.23
790.079	62.46
790.391	62.35
790.703	62.37
791.016	62.74
791.328	62.47
791.64	61.95
791.952	62.31
792.264	62.18
792.576	62.06
792.888	61.87
793.2	61.56
793.512	61.62
793.824	61.72
794.136	62.31
794.448	62.55
794.76	62.96
795.071	63.27
795.383	63.61
795.695	63.29
796.006	63.28
796.318	63.78
796.629	63.3
796.941	63.18
797.252	62.51
797.564	62.21
797.875	62.08
798.186	62.57
798.497	62.61
798.809	62.91
799.12	62.99
799.431	62.97
799.742	62.8
800.053	62.5
800.364	61.87
800.675	61.36
800.986	61.42
801.297	61.13
801.608	61.05
801.918	61.45
802.229	61.89
802.54	62.01
802.851	61.87
803.161	61.8
803.472	61.98
803.782	62.09
804.093	62.37
804.403	62.24
804.714	62.17
805.024	61.96
805.334	62.01
805.645	62.69
805.955	63
806.265	62.91
806.575	63.13
806.885	63.24
807.195	63.57
807.505	63
807.815	63.74
808.125	63.06
808.435	62.58
808.745	62.18
809.055	61.91
809.365	61.92
809.674	61.64
809.984	61.77
810.294	62.12
810.603	61.81
810.913	61.98
811.222	61.98
811.532	61.77
811.841	61.68
812.151	61.14
812.46	61.11
812.769	61.51
813.079	61.78
813.388	62.24
813.697	62.5
814.006	62.8
814.315	62.32
814.624	62.78
814.933	63.29
815.242	62.94
815.551	63.09
815.86	63.15
816.169	63.59
816.478	63.81
816.786	63.96
817.095	64.64
817.404	65.29
817.712	64.98
818.021	65.02
818.33	64.8
818.638	63.85
818.947	63.25
819.255	62.83
819.563	63.04
819.872	63.15
820.18	62.83
820.488	63.12
820.796	63.09
821.105	63.3
821.413	63.17
821.721	63.28
822.029	63.48
822.337	63.37
822.645	63.37
822.953	63.41
823.26	63.47
823.568	63.33
823.876	63.3
824.184	63.26
824.491	63.36
824.799	63.47
825.107	63.8
825.414	64.24
825.722	64.59
826.029	64.6
826.337	64.54
826.644	64.78
826.951	64.61
827.259	64.62
827.566	64.49
827.873	64.65
828.18	64.91
828.488	65.01
828.795	65.34
829.102	65.46
829.409	65.56
829.716	65.45
830.023	65.38
830.329	65.22
830.636	65.17
830.943	65.13
831.25	64.79
831.557	64.72
831.863	64.04
832.17	63.57
832.476	63.41
832.783	63.65
833.089	63.24
833.396	63.48
833.702	63.83
834.009	64.09
834.315	64.06
834.621	63.91
834.928	63.41
835.234	62.57
835.54	62.4
835.846	62.17
836.152	62.13
836.458	61.95
836.764	62.22
837.07	62.14
837.376	61.85
837.682	62.22
837.988	62.2
838.293	62.14
838.599	61.56
838.905	62.07
839.211	61.68
839.516	61.87
839.822	61.77
840.127	61.96
840.433	61.9
840.738	61.42
841.044	61.18
841.349	62.37
841.654	63.24
841.959	62.79
842.265	63.83
842.57	64.7
842.875	65.81
843.18	64.89
843.485	65.91
843.79	66.54
844.095	66.17
844.4	66.14
844.705	65.98
845.01	67.41
845.315	65.41
845.619	65.07
845.924	63.95
846.229	64.64
846.533	64.41
846.838	64.32
847.142	64.25
847.447	63.72
847.751	62.05
848.056	61.75
848.36	62.87
848.664	60.75
848.969	59.53
849.273	58.88
849.577	57.56
849.881	57.73
850.185	56.84
850.489	57.82
850.794	56.59
851.097	57.81
851.401	57.83
851.705	58.46
852.009	57.61
852.313	59.34
852.617	57.06
852.92	56.2
853.224	56.72
853.528	58.87
853.831	59.26
854.135	59.05
854.438	60.55
854.742	60.28
855.045	61.42
855.349	63.07
855.652	62.18
855.955	66.29
856.259	69.18
856.562	69.29
856.865	67.3
857.168	69.91
857.471	70.02
857.774	69.64
858.077	69.88
858.38	70.17
858.683	68.53
858.986	69.15
859.289	70.84
859.592	68.26
859.894	68.19
860.197	67.1
860.5	66.28
860.802	63.98
861.105	64.31
861.407	64.41
861.71	61.75
862.012	62.48
862.315	60.06
862.617	55.91
862.919	54.47
863.222	55.75
863.524	55.22
863.826	53.92
864.128	55.2
864.43	56.26
864.732	58.02
865.034	58.62
865.336	59.03
865.638	56.36
865.94	56.63
866.242	55.65
866.544	56.88
866.846	57.98
867.147	59.62
867.449	60.84
867.751	61.09
868.052	62.02
868.354	58.82
868.655	61.88
868.957	61.74
869.258	64.36
869.56	63.79
869.861	62.7
870.162	63.7
870.463	60.7
870.765	61.09
871.066	60.54
871.367	59.31
871.668	60.48
871.969	62.03
872.27	62.68
872.571	60.61
872.872	60.08
873.173	60.95
873.473	59.99
873.774	58.71
874.075	59.59
874.376	61.67
874.676	64.02
874.977	61.27
875.277	63.41
875.578	64.4
875.878	64.17
876.179	64.04
876.479	63.88
876.78	66.31
877.08	65.31
877.38	65.61
877.68	67.7
877.981	67.32
878.281	66.89
878.581	67.92
