Data from BU26932_Reflection_00009.txt Node
Date: Tue Nov 19 10:44:34 EST 2019
User: vgr7
Spectrometer: USB2G7710
Scans to average: 3
Trigger mode: 4
Integration Time (sec): 2.000000E-2
Electric dark correction enabled: true
Boxcar width: 10
XAxis mode: Wavelengths
Number of Pixels in Spectrum: 2048
>>>>>Begin Spectral Data<<<<<
177.721	91.26
178.105	65.24
178.488	32.38
178.871	219.35
179.254	-1600
179.636	-877.27
180.019	170.55
180.402	271.43
180.785	1290.91
181.168	165.41
181.55	235.94
181.933	731.15
182.316	166.82
182.698	124.52
183.081	159.77
183.463	78.34
183.846	9.26
184.228	14.73
184.611	54.85
184.993	54.76
185.376	50.84
185.758	72.71
186.14	68.95
186.522	63.1
186.904	68.71
187.287	60.32
187.669	66.41
188.051	53.48
188.433	47.17
188.815	37.72
189.197	26.68
189.579	18.27
189.961	25.43
190.342	41.53
190.724	46.23
191.106	49.84
191.488	52.77
191.869	66.37
192.251	76.59
192.633	65.89
193.014	56.86
193.396	67.71
193.777	71.22
194.159	61.79
194.54	69.11
194.922	84.72
195.303	103.94
195.684	102.37
196.065	117.91
196.447	166.8
196.828	217.82
197.209	224.18
197.59	228.61
197.971	161.27
198.352	144.68
198.733	136.37
199.114	147.63
199.495	141.42
199.876	150.32
200.257	137.38
200.638	137.67
201.018	163.18
201.399	154.48
201.78	146.04
202.16	183.62
202.541	153
202.922	127.15
203.302	91.09
203.683	88.02
204.063	80.69
204.444	61.83
204.824	37.48
205.204	36.76
205.585	32.48
205.965	33.24
206.345	30.48
206.725	38.57
207.106	31.41
207.486	29.04
207.866	25.58
208.246	39.13
208.626	36.15
209.006	19.55
209.386	33.55
209.766	36.25
210.145	40.34
210.525	57.55
210.905	64.69
211.285	80.91
211.664	83.3
212.044	75.91
212.424	80.6
212.803	85.24
213.183	81.17
213.562	98.64
213.942	98.66
214.321	97.49
214.701	84.55
215.08	89.3
215.459	99.82
215.838	99.82
216.218	78.57
216.597	70.56
216.976	78.48
217.355	86.77
217.734	73.55
218.113	71.87
218.492	62.87
218.871	56.4
219.25	59.44
219.629	64.15
220.008	60.23
220.387	41.93
220.766	47.42
221.144	52.29
221.523	48.2
221.902	49.87
222.28	50.62
222.659	58.34
223.037	53.48
223.416	47.96
223.794	49.11
224.173	48.49
224.551	45.32
224.929	48.84
225.308	41.08
225.686	40.65
226.064	36.36
226.442	38.23
226.821	40.37
227.199	33.42
227.577	29.03
227.955	30.81
228.333	36.18
228.711	32.24
229.089	30.74
229.467	29.31
229.845	26.69
230.222	29.04
230.6	27.23
230.978	28.61
231.356	26
231.733	23.12
232.111	22.01
232.488	21.42
232.866	20.31
233.243	17.98
233.621	20.04
233.998	19.71
234.376	18.25
234.753	16.11
235.13	15.89
235.508	15.43
235.885	14.45
236.262	13.33
236.639	12.52
237.016	10.65
237.393	9.85
237.77	9.09
238.147	8.19
238.524	7.61
238.901	6.58
239.278	6.87
239.655	7.23
240.032	7.39
240.409	7.47
240.785	7.1
241.162	7.54
241.539	6.59
241.915	6.36
242.292	6.53
242.668	6.77
243.045	7.01
243.421	7.11
243.798	7.23
244.174	7.06
244.551	7.04
244.927	7.26
245.303	6.91
245.679	7.09
246.056	6.82
246.432	6.62
246.808	6.79
247.184	6.69
247.56	6.43
247.936	6.32
248.312	6.34
248.688	6.26
249.064	6.1
249.44	6.14
249.815	6.3
250.191	6.41
250.567	6.14
250.943	6.21
251.318	6.18
251.694	5.89
252.069	5.98
252.445	6.2
252.82	6.3
253.196	6.72
253.571	6.79
253.947	6.9
254.322	7.48
254.697	7.63
255.073	7.74
255.448	7.56
255.823	7.51
256.198	7.43
256.573	7.33
256.948	7.23
257.323	7.32
257.698	7.08
258.073	6.61
258.448	6.72
258.823	6.47
259.198	6.48
259.573	6.36
259.948	6.36
260.322	6.37
260.697	6.3
261.072	6.28
261.446	6.14
261.821	6.15
262.195	5.95
262.57	5.71
262.944	5.79
263.319	5.92
263.693	5.94
264.067	5.89
264.442	5.82
264.816	5.92
265.19	5.77
265.564	5.8
265.938	5.96
266.313	5.92
266.687	5.84
267.061	5.94
267.435	6.13
267.809	5.91
268.183	5.66
268.556	5.56
268.93	5.7
269.304	5.77
269.678	5.75
270.051	5.71
270.425	5.59
270.799	5.33
271.172	5.2
271.546	5.22
271.919	5.12
272.293	5.2
272.666	5.23
273.04	5.24
273.413	5.29
273.787	5.27
274.16	5.32
274.533	5.36
274.906	5.28
275.279	5.3
275.653	5.47
276.026	5.57
276.399	5.6
276.772	5.43
277.145	5.56
277.518	5.57
277.891	5.71
278.263	6.03
278.636	6.16
279.009	6.39
279.382	6.46
279.755	6.46
280.127	6.42
280.5	6.18
280.872	6.17
281.245	6.05
281.617	6.19
281.99	6.15
282.362	6.23
282.735	6.11
283.107	5.98
283.479	5.89
283.852	5.83
284.224	5.85
284.596	5.95
284.968	5.7
285.34	5.76
285.713	5.73
286.085	5.6
286.457	5.69
286.829	5.65
287.201	5.59
287.572	5.69
287.944	5.81
288.316	5.94
288.688	5.94
289.06	5.94
289.431	6.05
289.803	6.07
290.175	6.11
290.546	6.17
290.918	6.28
291.289	6.26
291.661	6.44
292.032	6.46
292.403	6.46
292.775	6.61
293.146	6.49
293.517	6.37
293.889	6.45
294.26	6.48
294.631	6.56
295.002	6.6
295.373	6.64
295.744	6.67
296.115	6.7
296.486	6.92
296.857	7.05
297.228	6.78
297.599	6.84
297.97	6.84
298.34	6.99
298.711	7.18
299.082	7.31
299.452	7.2
299.823	7.14
300.194	7.29
300.564	7.26
300.935	7.45
301.305	7.63
301.676	7.71
302.046	7.73
302.416	7.87
302.787	8
303.157	8.07
303.527	8.22
303.897	8.16
304.267	8.04
304.637	8.2
305.008	8.55
305.378	8.67
305.748	8.66
306.117	8.71
306.487	8.74
306.857	8.85
307.227	9.07
307.597	9.27
307.967	9.28
308.336	9.52
308.706	9.62
309.076	9.77
309.445	9.98
309.815	10.24
310.184	10.12
310.554	10.21
310.923	10.3
311.293	10.25
311.662	10.51
312.031	10.52
312.401	10.51
312.77	10.59
313.139	10.71
313.508	10.87
313.877	10.91
314.246	11.01
314.616	11.21
314.985	11.32
315.353	11.42
315.722	11.58
316.091	11.56
316.46	11.77
316.829	11.77
317.198	11.8
317.567	11.84
317.935	12.14
318.304	12.36
318.672	12.56
319.041	12.81
319.41	12.78
319.778	12.97
320.147	13.08
320.515	13.13
320.883	13.09
321.252	13.3
321.62	13.5
321.988	13.58
322.357	13.37
322.725	13.42
323.093	13.45
323.461	13.36
323.829	13.67
324.197	13.58
324.565	13.69
324.933	13.57
325.301	13.39
325.669	13.42
326.037	13.25
326.405	13.35
326.772	13.46
327.14	13.46
327.508	13.6
327.875	13.63
328.243	13.58
328.61	13.75
328.978	13.81
329.346	13.79
329.713	13.82
330.08	14.07
330.448	14.23
330.815	14.43
331.182	14.53
331.55	14.44
331.917	14.34
332.284	14.39
332.651	14.57
333.018	14.73
333.385	14.69
333.752	14.94
334.119	14.86
334.486	14.84
334.853	14.97
335.22	15.02
335.587	15
335.954	15.14
336.32	15.09
336.687	15.03
337.054	15.17
337.42	15.18
337.787	15.29
338.153	15.3
338.52	15.28
338.886	15.34
339.253	15.34
339.619	15.62
339.986	15.62
340.352	15.68
340.718	15.73
341.084	15.79
341.451	15.81
341.817	15.79
342.183	15.81
342.549	15.97
342.915	15.96
343.281	16.06
343.647	16.11
344.013	16.19
344.379	16.24
344.745	16.26
345.11	16.27
345.476	16.3
345.842	16.26
346.208	16.34
346.573	16.41
346.939	16.44
347.304	16.35
347.67	16.45
348.035	16.3
348.401	16.32
348.766	16.37
349.132	16.38
349.497	16.37
349.862	16.33
350.228	16.17
350.593	16.24
350.958	16.38
351.323	16.38
351.688	16.43
352.053	16.46
352.418	16.42
352.783	16.44
353.148	16.36
353.513	16.39
353.878	16.31
354.243	16.18
354.608	16.15
354.972	16.14
355.337	16.17
355.702	16.32
356.066	16.34
356.431	16.26
356.795	16.22
357.16	16.3
357.524	16.25
357.889	16.24
358.253	16.16
358.618	16.05
358.982	16.02
359.346	15.89
359.71	15.86
360.075	15.85
360.439	15.84
360.803	15.81
361.167	15.71
361.531	15.68
361.895	15.72
362.259	15.78
362.623	15.77
362.987	15.68
363.351	15.59
363.714	15.58
364.078	15.55
364.442	15.48
364.806	15.36
365.169	15.37
365.533	15.35
365.896	15.41
366.26	15.28
366.623	15.25
366.987	15.28
367.35	15.2
367.714	15.07
368.077	14.99
368.44	14.93
368.803	14.85
369.167	14.73
369.53	14.72
369.893	14.6
370.256	14.5
370.619	14.44
370.982	14.38
371.345	14.22
371.708	14.25
372.071	14.15
372.434	14.05
372.797	13.89
373.159	13.82
373.522	13.66
373.885	13.61
374.247	13.48
374.61	13.33
374.973	13.32
375.335	13.32
375.698	13.19
376.06	13.04
376.423	13.01
376.785	12.91
377.147	12.76
377.51	12.67
377.872	12.56
378.234	12.43
378.596	12.35
378.958	12.28
379.321	12.12
379.683	12.05
380.045	12.01
380.407	11.96
380.769	11.8
381.13	11.65
381.492	11.57
381.854	11.5
382.216	11.44
382.578	11.33
382.939	11.18
383.301	11.12
383.663	11.05
384.024	10.99
384.386	10.97
384.747	10.87
385.109	10.82
385.47	10.78
385.832	10.65
386.193	10.56
386.554	10.47
386.916	10.48
387.277	10.37
387.638	10.32
387.999	10.27
388.36	10.24
388.721	10.2
389.082	10.15
389.443	10.07
389.804	10.02
390.165	9.96
390.526	9.89
390.887	9.84
391.248	9.82
391.609	9.76
391.969	9.7
392.33	9.66
392.691	9.63
393.051	9.57
393.412	9.56
393.772	9.51
394.133	9.44
394.493	9.32
394.854	9.26
395.214	9.14
395.574	9.07
395.935	9.01
396.295	8.93
396.655	8.89
397.015	8.8
397.376	8.7
397.736	8.6
398.096	8.5
398.456	8.42
398.816	8.3
399.176	8.16
399.535	8.1
399.895	8
400.255	7.89
400.615	7.84
400.975	7.75
401.334	7.66
401.694	7.65
402.054	7.6
402.413	7.56
402.773	7.56
403.132	7.5
403.492	7.42
403.851	7.39
404.211	7.36
404.57	7.29
404.929	7.27
405.288	7.23
405.648	7.24
406.007	7.23
406.366	7.2
406.725	7.21
407.084	7.17
407.443	7.15
407.802	7.13
408.161	7.13
408.52	7.09
408.879	7.11
409.238	7.05
409.596	7.02
409.955	7.02
410.314	6.97
410.673	6.96
411.031	6.95
411.39	6.92
411.748	6.88
412.107	6.88
412.465	6.88
412.824	6.85
413.182	6.82
413.54	6.77
413.899	6.74
414.257	6.73
414.615	6.68
414.974	6.66
415.332	6.62
415.69	6.55
416.048	6.52
416.406	6.48
416.764	6.47
417.122	6.43
417.48	6.39
417.838	6.36
418.195	6.33
418.553	6.29
418.911	6.24
419.269	6.2
419.626	6.19
419.984	6.12
420.342	6.1
420.699	6.08
421.057	6.05
421.414	6.03
421.772	6.01
422.129	5.97
422.486	5.95
422.844	5.92
423.201	5.91
423.558	5.89
423.915	5.87
424.273	5.85
424.63	5.84
424.987	5.81
425.344	5.79
425.701	5.76
426.058	5.75
426.415	5.76
426.772	5.76
427.128	5.73
427.485	5.73
427.842	5.73
428.199	5.69
428.555	5.68
428.912	5.65
429.269	5.64
429.625	5.64
429.982	5.64
430.338	5.64
430.695	5.61
431.051	5.59
431.407	5.56
431.764	5.53
432.12	5.53
432.476	5.54
432.832	5.53
433.189	5.53
433.545	5.53
433.901	5.51
434.257	5.5
434.613	5.49
434.969	5.47
435.325	5.46
435.681	5.47
436.036	5.47
436.392	5.49
436.748	5.48
437.104	5.47
437.459	5.47
437.815	5.47
438.171	5.5
438.526	5.51
438.882	5.52
439.237	5.53
439.593	5.53
439.948	5.53
440.304	5.53
440.659	5.53
441.014	5.53
441.369	5.54
441.725	5.53
442.08	5.53
442.435	5.52
442.79	5.51
443.145	5.47
443.5	5.46
443.855	5.44
444.21	5.43
444.565	5.42
444.92	5.41
445.275	5.4
445.629	5.38
445.984	5.37
446.339	5.35
446.693	5.33
447.048	5.31
447.403	5.29
447.757	5.27
448.112	5.26
448.466	5.25
448.82	5.21
449.175	5.21
449.529	5.19
449.883	5.18
450.238	5.17
450.592	5.17
450.946	5.14
451.3	5.14
451.654	5.13
452.008	5.13
452.362	5.09
452.716	5.08
453.07	5.05
453.424	5.04
453.778	5.04
454.132	5.03
454.486	5.03
454.839	5.04
455.193	5.05
455.547	5.02
455.9	5
456.254	5.02
456.607	5.01
456.961	5.01
457.314	5.01
457.668	5.01
458.021	5.03
458.375	5.05
458.728	5.05
459.081	5.07
459.434	5.08
459.787	5.1
460.141	5.12
460.494	5.13
460.847	5.15
461.2	5.16
461.553	5.19
461.906	5.21
462.259	5.21
462.611	5.21
462.964	5.24
463.317	5.3
463.67	5.32
464.022	5.36
464.375	5.4
464.728	5.45
465.08	5.48
465.433	5.52
465.785	5.55
466.138	5.59
466.49	5.61
466.843	5.62
467.195	5.66
467.547	5.69
467.899	5.74
468.252	5.77
468.604	5.79
468.956	5.81
469.308	5.81
469.66	5.85
470.012	5.91
470.364	5.93
470.716	5.95
471.068	5.98
471.42	5.99
471.772	6.01
472.123	6.01
472.475	6.07
472.827	6.07
473.178	6.07
473.53	6.06
473.882	6.09
474.233	6.09
474.585	6.07
474.936	6.07
475.288	6.04
475.639	6.06
475.99	6.06
476.342	6.05
476.693	6.03
477.044	6.02
477.395	5.99
477.746	5.96
478.097	5.94
478.448	5.91
478.8	5.86
479.15	5.82
479.501	5.79
479.852	5.74
480.203	5.72
480.554	5.7
480.905	5.68
481.255	5.64
481.606	5.63
481.957	5.62
482.307	5.61
482.658	5.61
483.009	5.59
483.359	5.58
483.709	5.56
484.06	5.57
484.41	5.56
484.761	5.54
485.111	5.55
485.461	5.54
485.811	5.53
486.162	5.53
486.512	5.53
486.862	5.55
487.212	5.56
487.562	5.56
487.912	5.57
488.262	5.58
488.612	5.59
488.961	5.6
489.311	5.6
489.661	5.61
490.011	5.62
490.36	5.63
490.71	5.65
491.06	5.67
491.409	5.69
491.759	5.71
492.108	5.75
492.458	5.78
492.807	5.82
493.157	5.87
493.506	5.92
493.855	5.97
494.204	6.01
494.554	6.06
494.903	6.11
495.252	6.16
495.601	6.24
495.95	6.3
496.299	6.37
496.648	6.47
496.997	6.55
497.346	6.66
497.695	6.75
498.043	6.86
498.392	6.94
498.741	7.03
499.09	7.11
499.438	7.23
499.787	7.34
500.135	7.46
500.484	7.58
500.832	7.7
501.181	7.86
501.529	8
501.878	8.18
502.226	8.34
502.574	8.54
502.923	8.72
503.271	8.91
503.619	9.13
503.967	9.33
504.315	9.53
504.663	9.73
505.011	9.93
505.359	10.13
505.707	10.41
506.055	10.66
506.403	10.92
506.751	11.16
507.098	11.42
507.446	11.7
507.794	11.97
508.141	12.25
508.489	12.54
508.837	12.8
509.184	13.1
509.531	13.39
509.879	13.68
510.226	13.96
510.574	14.27
510.921	14.57
511.268	14.86
511.616	15.2
511.963	15.53
512.31	15.88
512.657	16.26
513.004	16.6
513.351	16.95
513.698	17.38
514.045	17.77
514.392	18.14
514.739	18.55
515.086	18.94
515.432	19.34
515.779	19.68
516.126	20.09
516.473	20.42
516.819	20.81
517.166	21.16
517.512	21.51
517.859	21.84
518.205	22.14
518.552	22.46
518.898	22.74
519.245	23.04
519.591	23.35
519.937	23.66
520.283	23.96
520.629	24.31
520.976	24.64
521.322	25.01
521.668	25.39
522.014	25.74
522.36	26.13
522.706	26.49
523.052	26.89
523.398	27.28
523.743	27.72
524.089	28.09
524.435	28.49
524.781	28.83
525.126	29.2
525.472	29.54
525.817	29.83
526.163	30.13
526.509	30.37
526.854	30.59
527.199	30.82
527.545	31.07
527.89	31.29
528.235	31.48
528.581	31.69
528.926	31.89
529.271	32.1
529.616	32.28
529.961	32.48
530.306	32.72
530.651	32.92
530.996	33.14
531.341	33.36
531.686	33.59
532.031	33.84
532.376	34.06
532.721	34.29
533.065	34.52
533.41	34.76
533.755	35.01
534.099	35.29
534.444	35.51
534.788	35.74
535.133	35.97
535.477	36.23
535.822	36.47
536.166	36.7
536.51	36.97
536.855	37.26
537.199	37.57
537.543	37.83
537.887	38.11
538.231	38.4
538.576	38.7
538.92	38.95
539.264	39.21
539.608	39.42
539.951	39.63
540.295	39.85
540.639	40.05
540.983	40.25
541.327	40.43
541.671	40.63
542.014	40.78
542.358	40.95
542.701	41.1
543.045	41.26
543.389	41.43
543.732	41.6
544.075	41.8
544.419	41.91
544.762	42.08
545.105	42.27
545.449	42.44
545.792	42.57
546.135	42.76
546.478	42.95
546.821	43.21
547.165	43.38
547.508	43.59
547.851	43.75
548.194	43.95
548.536	44.11
548.879	44.29
549.222	44.47
549.565	44.64
549.908	44.83
550.25	44.96
550.593	45.14
550.936	45.27
551.278	45.43
551.621	45.65
551.963	45.86
552.306	46.03
552.648	46.2
552.991	46.38
553.333	46.49
553.675	46.6
554.017	46.68
554.36	46.92
554.702	47.03
555.044	47.21
555.386	47.32
555.728	47.41
556.07	47.52
556.412	47.64
556.754	47.77
557.096	47.92
557.438	48.17
557.78	48.33
558.121	48.47
558.463	48.58
558.805	48.67
559.147	48.75
559.488	48.86
559.83	48.95
560.171	49.12
560.513	49.23
560.854	49.38
561.196	49.45
561.537	49.46
561.878	49.56
562.22	49.62
562.561	49.68
562.902	49.76
563.243	49.86
563.584	49.93
563.925	50.02
564.266	50.08
564.607	50.06
564.948	50.12
565.289	50.21
565.63	50.28
565.971	50.35
566.312	50.41
566.653	50.48
566.993	50.55
567.334	50.59
567.675	50.68
568.015	50.72
568.356	50.8
568.696	50.92
569.037	50.98
569.377	51.08
569.718	51.19
570.058	51.33
570.398	51.41
570.739	51.53
571.079	51.64
571.419	51.67
571.759	51.79
572.099	51.85
572.439	51.93
572.779	52
573.119	52.09
573.459	52.19
573.799	52.17
574.139	52.25
574.479	52.33
574.819	52.45
575.158	52.52
575.498	52.61
575.838	52.72
576.177	52.81
576.517	52.83
576.856	52.89
577.196	52.86
577.535	52.96
577.875	53.03
578.214	53.02
578.553	53.12
578.893	53.12
579.232	53.15
579.571	53.22
579.91	53.32
580.25	53.34
580.589	53.33
580.928	53.52
581.267	53.65
581.606	53.69
581.945	53.68
582.283	53.81
582.622	53.87
582.961	53.84
583.3	53.88
583.639	53.91
583.977	54
584.316	54.1
584.654	54.13
584.993	54.13
585.332	54.19
585.67	54.23
586.008	54.26
586.347	54.38
586.685	54.3
587.024	54.32
587.362	54.32
587.7	54.46
588.038	54.48
588.376	54.53
588.715	54.59
589.053	54.65
589.391	54.57
589.729	54.51
590.067	54.57
590.404	54.67
590.742	54.78
591.08	54.82
591.418	54.8
591.756	54.76
592.093	54.75
592.431	54.79
592.769	54.81
593.106	54.93
593.444	54.92
593.781	54.96
594.119	55
594.456	55.08
594.793	55.08
595.131	55.07
595.468	54.96
595.805	54.93
596.143	54.95
596.48	54.99
596.817	55.12
597.154	55.15
597.491	55.17
597.828	55.15
598.165	55.22
598.502	55.22
598.839	55.36
599.176	55.42
599.512	55.49
599.849	55.51
600.186	55.47
600.523	55.5
600.859	55.57
601.196	55.62
601.532	55.65
601.869	55.6
602.205	55.61
602.542	55.78
602.878	55.78
603.215	55.76
603.551	55.77
603.887	55.77
604.223	55.78
604.56	55.8
604.896	55.81
605.232	55.77
605.568	55.89
605.904	55.82
606.24	55.83
606.576	55.84
606.912	55.92
607.248	55.98
607.583	56.03
607.919	56.06
608.255	56.01
608.591	56.01
608.926	56.08
609.262	56.07
609.597	56.03
609.933	56.03
610.268	56.11
610.604	56.15
610.939	56.13
611.275	56.17
611.61	56.16
611.945	56.17
612.281	56.19
612.616	56.21
612.951	56.29
613.286	56.33
613.621	56.24
613.956	56.22
614.291	56.24
614.626	56.2
614.961	56.2
615.296	56.22
615.631	56.23
615.966	56.25
616.3	56.34
616.635	56.29
616.97	56.38
617.304	56.42
617.639	56.45
617.973	56.4
618.308	56.35
618.642	56.34
618.977	56.38
619.311	56.38
619.646	56.36
619.98	56.28
620.314	56.32
620.648	56.4
620.983	56.38
621.317	56.42
621.651	56.44
621.985	56.46
622.319	56.51
622.653	56.63
622.987	56.71
623.321	56.69
623.655	56.74
623.988	56.66
624.322	56.65
624.656	56.64
624.99	56.71
625.323	56.75
625.657	56.79
625.99	56.82
626.324	56.85
626.657	56.95
626.991	57.04
627.324	57.09
627.658	57.09
627.991	57.25
628.324	57.21
628.657	57.23
628.991	57.31
629.324	57.31
629.657	57.22
629.99	57.16
630.323	57.19
630.656	57.19
630.989	57.24
631.322	57.18
631.655	57.35
631.987	57.41
632.32	57.46
632.653	57.48
632.986	57.46
633.318	57.5
633.651	57.45
633.984	57.41
634.316	57.37
634.649	57.43
634.981	57.35
635.313	57.47
635.646	57.53
635.978	57.5
636.31	57.53
636.643	57.52
636.975	57.54
637.307	57.6
637.639	57.65
637.971	57.71
638.303	57.84
638.635	57.75
638.967	57.7
639.299	57.69
639.631	57.63
639.963	57.65
640.295	57.73
640.626	57.76
640.958	57.72
641.29	57.76
641.621	57.74
641.953	57.78
642.285	57.74
642.616	57.72
642.948	57.68
643.279	57.73
643.61	57.8
643.942	57.84
644.273	57.81
644.604	57.89
644.936	57.9
645.267	57.81
645.598	57.84
645.929	57.9
646.26	57.87
646.591	58.01
646.922	58.16
647.253	58
647.584	57.96
647.915	58.18
648.245	58.2
648.576	58.2
648.907	58.12
649.238	58.11
649.568	58.04
649.899	58.05
650.229	57.9
650.56	57.86
650.89	57.93
651.221	58.05
651.551	57.96
651.882	57.98
652.212	58.01
652.542	57.92
652.872	57.92
653.203	57.99
653.533	57.94
653.863	57.91
654.193	58.06
654.523	57.99
654.853	57.84
655.183	57.79
655.513	57.85
655.843	57.83
656.172	57.85
656.502	57.99
656.832	58.05
657.162	58.13
657.491	58.24
657.821	58.15
658.15	58.02
658.48	58.1
658.809	58.21
659.139	58.25
659.468	58.36
659.798	58.37
660.127	58.39
660.456	58.41
660.785	58.38
661.115	58.25
661.444	58.34
661.773	58.42
662.102	58.44
662.431	58.47
662.76	58.59
663.089	58.55
663.418	58.52
663.747	58.52
664.076	58.55
664.404	58.57
664.733	58.52
665.062	58.6
665.39	58.54
665.719	58.41
666.048	58.35
666.376	58.36
666.705	58.33
667.033	58.26
667.362	58.25
667.69	58.32
668.018	58.35
668.347	58.31
668.675	58.22
669.003	58.27
669.331	58.26
669.659	58.25
669.987	58.29
670.315	58.42
670.643	58.36
670.971	58.4
671.299	58.39
671.627	58.38
671.955	58.38
672.283	58.4
672.61	58.39
672.938	58.44
673.266	58.57
673.593	58.53
673.921	58.58
674.249	58.53
674.576	58.4
674.904	58.38
675.231	58.49
675.558	58.66
675.886	58.64
676.213	58.67
676.54	58.72
676.867	58.66
677.195	58.62
677.522	58.68
677.849	58.61
678.176	58.71
678.503	58.77
678.83	58.78
679.157	58.89
679.484	58.85
679.81	58.88
680.137	58.77
680.464	58.76
680.791	58.87
681.117	58.83
681.444	58.9
681.771	58.93
682.097	58.77
682.424	58.72
682.75	58.82
683.077	58.82
683.403	58.76
683.729	58.77
684.056	58.64
684.382	58.61
684.708	58.79
685.034	58.69
685.36	58.77
685.686	58.76
686.012	58.65
686.339	58.71
686.664	58.87
686.99	58.84
687.316	58.94
687.642	58.7
687.968	58.83
688.294	58.78
688.619	58.9
688.945	59.01
689.271	59.11
689.596	58.99
689.922	58.9
690.247	58.82
690.573	58.81
690.898	58.95
691.224	59.04
691.549	58.96
691.874	58.95
692.2	58.93
692.525	58.9
692.85	58.99
693.175	59.11
693.5	58.94
693.825	59.11
694.15	59.25
694.475	59.27
694.8	59.1
695.125	59.11
695.45	58.92
695.775	58.94
696.099	59.05
696.424	59.07
696.749	59.14
697.073	59.1
697.398	59.33
697.723	59.23
698.047	59.22
698.372	59.19
698.696	59.15
699.02	59.26
699.345	59.26
699.669	59.32
699.993	59.16
700.318	59.14
700.642	58.97
700.966	58.94
701.29	58.96
701.614	59.19
701.938	59.33
702.262	59.44
702.586	59.48
702.91	59.34
703.234	59.26
703.557	59.26
703.881	59.32
704.205	59.38
704.529	59.37
704.852	59.32
705.176	59.48
705.499	59.55
705.823	59.42
706.146	59.51
706.47	59.24
706.793	59.49
707.117	59.44
707.44	59.4
707.763	59.19
708.086	59.25
708.409	59.17
708.733	59.04
709.056	59.19
709.379	59.18
709.702	59.14
710.025	59.35
710.348	59.29
710.671	59.22
710.993	58.96
711.316	59.09
711.639	59.1
711.962	58.93
712.284	58.91
712.607	58.93
712.93	59.08
713.252	59.29
713.575	59.16
713.897	59.27
714.22	59.36
714.542	59.38
714.864	59.41
715.187	59.44
715.509	59.49
715.831	59.57
716.153	59.58
716.475	59.74
716.798	59.57
717.12	59.87
717.442	60.17
717.764	60.14
718.085	60.29
718.407	60.3
718.729	60.25
719.051	60.33
719.373	60.46
719.695	60.24
720.016	60.05
720.338	60.16
720.659	60.12
720.981	60.21
721.302	60.59
721.624	60.58
721.945	60.56
722.267	60.52
722.588	60.4
722.909	60.39
723.231	60.17
723.552	60.26
723.873	60.03
724.194	59.97
724.515	60.08
724.836	59.96
725.157	60.18
725.478	60.29
725.799	60.32
726.12	60.12
726.441	60.23
726.762	60.41
727.083	60.37
727.403	60.43
727.724	60.3
728.045	60.08
728.365	60.18
728.686	60.19
729.006	60.05
729.327	60.04
729.647	60.01
729.967	60.04
730.288	60.03
730.608	59.97
730.928	60.11
731.249	60.19
731.569	60.12
731.889	59.89
732.209	60.06
732.529	60.11
732.849	60.16
733.169	60.07
733.489	59.95
733.809	59.99
734.129	60.09
734.448	60.21
734.768	60.45
735.088	60.39
735.408	60.25
735.727	60.53
736.047	60.61
736.366	60.66
736.686	60.51
737.005	60.75
737.325	60.68
737.644	60.48
737.963	60.48
738.283	60.68
738.602	60.93
738.921	60.96
739.24	61.16
739.56	61.32
739.879	61.17
740.198	61.3
740.517	61.38
740.836	61.26
741.155	61.22
741.473	60.91
741.792	61
742.111	61.37
742.43	61.42
742.748	61.36
743.067	61.22
743.386	61.51
743.704	61.39
744.023	61.65
744.341	61.61
744.66	61.65
744.978	61.49
745.297	61.26
745.615	60.99
745.933	60.69
746.252	60.64
746.57	60.8
746.888	60.83
747.206	60.87
747.524	60.46
747.842	60.64
748.16	60.75
748.478	60.75
748.796	60.41
749.114	60.17
749.432	60.35
749.749	60.07
750.067	59.93
750.385	60.07
750.703	60.15
751.02	60.26
751.338	60.18
751.655	60.42
751.973	60.64
752.29	60.86
752.608	61.03
752.925	60.84
753.242	61.12
753.56	61.09
753.877	60.98
754.194	61.43
754.511	61.36
754.828	60.95
755.145	60.76
755.462	61.06
755.779	61.25
756.096	61.11
756.413	61.5
756.73	61.53
757.047	61.3
757.364	61.38
757.68	61.42
757.997	61.45
758.314	61.33
758.63	61.19
758.947	61.35
759.264	61.05
759.58	61.42
759.896	61.44
760.213	61.48
760.529	61.24
760.846	61.35
761.162	61.17
761.478	61.43
761.794	61.48
762.11	61.03
762.426	60.92
762.743	60.91
763.059	61.26
763.375	61.49
763.69	61.56
764.006	61.51
764.322	61.44
764.638	61.39
764.954	61.4
765.27	61.45
765.585	61.47
765.901	61.63
766.216	61.58
766.532	61.58
766.848	61.66
767.163	61.76
767.478	61.62
767.794	61.48
768.109	61.54
768.424	61.76
768.74	61.89
769.055	62.09
769.37	62.1
769.685	61.71
770	61.57
770.315	61.64
770.63	61.36
770.945	61.36
771.26	61.52
771.575	61.93
771.89	61.85
772.205	61.46
772.52	61.3
772.834	60.75
773.149	60.77
773.464	60.56
773.778	61.14
774.093	61.12
774.407	61.95
774.722	62.04
775.036	62.08
775.351	62.1
775.665	62.12
775.979	62.33
776.293	62.55
776.608	62.71
776.922	62.58
777.236	62.93
777.55	63.36
777.864	62.97
778.178	61.97
778.492	62.01
778.806	61.99
779.12	62.24
779.434	62.97
779.747	62.57
780.061	62.8
780.375	62.3
780.689	62.59
781.002	62.12
781.316	61.85
781.629	61.74
781.943	62.28
782.256	61.86
782.57	61.9
782.883	61.79
783.196	61.65
783.51	61.68
783.823	61.85
784.136	61.49
784.449	61.96
784.762	62.02
785.075	61.81
785.388	62.18
785.701	62.39
786.014	61.48
786.327	61.73
786.64	61.9
786.953	62.09
787.266	61.94
787.578	62.19
787.891	62.15
788.204	62
788.516	62.25
788.829	62.57
789.141	62.2
789.454	61.95
789.766	62.07
790.079	61.98
790.391	61.88
790.703	62.01
791.016	62.06
791.328	62.62
791.64	62.32
791.952	62.29
792.264	61.66
792.576	62.26
792.888	62.43
793.2	62.49
793.512	62.77
793.824	62.6
794.136	62.96
794.448	63.52
794.76	63.35
795.071	62.88
795.383	63.23
795.695	63.71
796.006	63.98
796.318	64.18
796.629	64.16
796.941	63.68
797.252	63.4
797.564	63.38
797.875	62.95
798.186	63.35
798.497	63.46
798.809	64.06
799.12	64.17
799.431	64.18
799.742	63.77
800.053	63.57
800.364	63.71
800.675	63.68
800.986	63.34
801.297	63.98
801.608	63.92
801.918	63.58
802.229	63.3
802.54	63.31
802.851	63.08
803.161	62.87
803.472	63.29
803.782	63.46
804.093	63.48
804.403	64
804.714	64.44
805.024	63.33
805.334	63.71
805.645	63.44
805.955	63.58
806.265	63.63
806.575	63.3
806.885	63.09
807.195	62.64
807.505	62.66
807.815	62
808.125	62.53
808.435	62.48
808.745	62.45
809.055	62.68
809.365	62.38
809.674	63.05
809.984	62.48
810.294	62.82
810.603	62.42
810.913	62.31
811.222	62.54
811.532	63.67
811.841	62.39
812.151	62.67
812.46	61.67
812.769	61.57
813.079	61.05
813.388	61.24
813.697	60.8
814.006	61.56
814.315	62.51
814.624	62.14
814.933	61.49
815.242	61.66
815.551	61.53
815.86	62.14
816.169	62.11
816.478	63.13
816.786	63.26
817.095	63.02
817.404	62.73
817.712	62
818.021	61.77
818.33	61.86
818.638	61.55
818.947	61.91
819.255	62.21
819.563	62.55
819.872	62.81
820.18	62.91
820.488	62.52
820.796	62.43
821.105	62.39
821.413	62.7
821.721	62.27
822.029	62.3
822.337	62.22
822.645	62.29
822.953	62.14
823.26	62.1
823.568	62.1
823.876	62.06
824.184	62.13
824.491	62.1
824.799	62.38
825.107	62.53
825.414	62.56
825.722	62.22
826.029	62.36
826.337	62.43
826.644	62.53
826.951	62.8
827.259	62.91
827.566	62.88
827.873	62.7
828.18	63.17
828.488	63.07
828.795	62.99
829.102	62.9
829.409	62.97
829.716	63.03
830.023	63.29
830.329	63.6
830.636	63.68
830.943	63.45
831.25	63.07
831.557	63.11
831.863	63.13
832.17	63.49
832.476	62.75
832.783	62.3
833.089	62.38
833.396	61.35
833.702	60.99
834.009	60.66
834.315	60.65
834.621	60.36
834.928	60.87
835.234	61.03
835.54	60.95
835.846	61.4
836.152	61.04
836.458	60.99
836.764	60.93
837.07	60.86
837.376	61.49
837.682	61.64
837.988	61.35
838.293	61.06
838.599	61.3
838.905	61.74
839.211	61.91
839.516	61.7
839.822	62.85
840.127	63.08
840.433	64.07
840.738	64.89
841.044	65.66
841.349	65.14
841.654	64.96
841.959	65.97
842.265	65.73
842.57	65.68
842.875	66.78
843.18	66.54
843.485	66.79
843.79	66.29
844.095	66.89
844.4	67.94
844.705	69.09
845.01	70.11
845.315	71.6
845.619	71.97
845.924	71.77
846.229	72.06
846.533	71.09
846.838	70.94
847.142	70.95
847.447	69.92
847.751	70.35
848.056	71.63
848.36	69.53
848.664	67.22
848.969	68.37
849.273	69
849.577	69.97
849.881	69.89
850.185	69.81
850.489	71.41
850.794	70.92
851.097	70.93
851.401	71.9
851.705	68.35
852.009	67.49
852.313	66.85
852.617	67.13
852.92	70.36
853.224	70.89
853.528	70.61
853.831	71.66
854.135	71.56
854.438	70.01
854.742	70.25
855.045	72.09
855.349	73.02
855.652	71.23
855.955	70.12
856.259	69.8
856.562	72.13
856.865	69.79
857.168	68.68
857.471	68.56
857.774	67.29
858.077	70.15
858.38	70.6
858.683	73.25
858.986	72.03
859.289	71.11
859.592	70.49
859.894	70.97
860.197	69.4
860.5	69.88
860.802	70.84
861.105	72.09
861.407	72.58
861.71	73.72
862.012	71.94
862.315	73.9
862.617	74.12
862.919	73.12
863.222	71.23
863.524	72.68
863.826	72.49
864.128	75.56
864.43	76.99
864.732	77.14
865.034	76.64
865.336	77.15
865.638	76.26
865.94	78.11
866.242	78.98
866.544	81.26
866.846	81.04
867.147	84.01
867.449	83.16
867.751	82.14
868.052	78.83
868.354	80.78
868.655	76.98
868.957	78.26
869.258	77.13
869.56	79.29
869.861	79.5
870.162	78.23
870.463	75.72
870.765	76.07
871.066	76.44
871.367	74.46
871.668	73.85
871.969	72.78
872.27	70.44
872.571	69.16
872.872	68.98
873.173	70.08
873.473	65.15
873.774	66
874.075	65
874.376	67.65
874.676	67.09
874.977	71.33
875.277	71.21
875.578	69.29
875.878	68.37
876.179	67.55
876.479	68.83
876.78	68.55
877.08	66.1
877.38	66.21
877.68	66.86
877.981	67.7
878.281	69.01
878.581	71.21
