Data from BU26846_Reflection_00011.txt Node
Date: Mon Nov 18 16:33:41 EST 2019
User: vgr7
Spectrometer: USB2G7710
Scans to average: 3
Trigger mode: 4
Integration Time (sec): 2.000000E-2
Electric dark correction enabled: true
Boxcar width: 10
XAxis mode: Wavelengths
Number of Pixels in Spectrum: 2048
>>>>>Begin Spectral Data<<<<<
177.721	145.28
178.105	-673.58
178.488	2031.3
178.871	-64.01
179.254	38.04
179.636	-11.3
180.019	33.94
180.402	69.7
180.785	66.4
181.168	64.66
181.55	64.78
181.933	54.87
182.316	85.45
182.698	71.1
183.081	64.43
183.463	82.02
183.846	335.7
184.228	231.89
184.611	300
184.993	515.73
185.376	-590.72
185.758	959.15
186.14	93.82
186.522	115.83
186.904	112.28
187.287	100.39
187.669	125.78
188.051	113.29
188.433	115.52
188.815	97.62
189.197	106.3
189.579	144.04
189.961	502.75
190.342	510.76
190.724	-298.8
191.106	1435.88
191.488	219.01
191.869	76.74
192.251	108.78
192.633	117.41
193.014	108.04
193.396	89.97
193.777	78.24
194.159	88.13
194.54	74.59
194.922	75.17
195.303	64.16
195.684	76.43
196.065	133.52
196.447	161.86
196.828	210.21
197.209	242.15
197.59	201.31
197.971	87.17
198.352	96.28
198.733	91.36
199.114	96.24
199.495	241.01
199.876	-839.7
200.257	-344.18
200.638	-110.32
201.018	-84.82
201.399	-63.17
201.78	-20.95
202.16	-41.6
202.541	-24.18
202.922	-31.4
203.302	-56.83
203.683	-59.69
204.063	-67.99
204.444	-32.06
204.824	-10.73
205.204	-1.49
205.585	-11.2
205.965	-18.96
206.345	-15.23
206.725	-3.85
207.106	-7.25
207.486	-28.62
207.866	-19.66
208.246	10.2
208.626	-63.44
209.006	-65.22
209.386	-68.87
209.766	-133.75
210.145	-58.43
210.525	-124.41
210.905	-83.56
211.285	-101.52
211.664	-43.96
212.044	-67.19
212.424	-111.88
212.803	-207.87
213.183	-284.79
213.562	-154.03
213.942	-190.98
214.321	-174.42
214.701	-202.09
215.08	-374.45
215.459	-306.59
215.838	-174.84
216.218	-198.64
216.597	-198.7
216.976	-136.81
217.355	-124.19
217.734	-42.86
218.113	-13.79
218.492	-9.85
218.871	-251.35
219.25	42.77
219.629	-105.63
220.008	177.84
220.387	-89.19
220.766	89.01
221.144	-309.84
221.523	590.68
221.902	453.76
222.28	988.11
222.659	-165.31
223.037	-62.86
223.416	-67.11
223.794	-77.72
224.173	-36.28
224.551	-20.59
224.929	-40.91
225.308	-19.6
225.686	-42.07
226.064	-30.63
226.442	-22.3
226.821	-15.68
227.199	-16.66
227.577	-8.84
227.955	-10.06
228.333	-9.14
228.711	-5.04
229.089	-2.15
229.467	-6.29
229.845	-5.8
230.222	-8.16
230.6	-9.14
230.978	-8.69
231.356	-9.25
231.733	-9.4
232.111	-8.77
232.488	-7.55
232.866	-5.83
233.243	-5.4
233.621	-1.92
233.998	-1.48
234.376	-3.28
234.753	-4.18
235.13	-3.45
235.508	-3.79
235.885	-0.69
236.262	-2.57
236.639	-3.6
237.016	-3.53
237.393	-0.79
237.77	0.85
238.147	2.7
238.524	2.36
238.901	3.66
239.278	3.21
239.655	4.57
240.032	4.62
240.409	3.87
240.785	5.01
241.162	4.83
241.539	4.99
241.915	4.74
242.292	4.77
242.668	4.96
243.045	4.74
243.421	4.4
243.798	3.99
244.174	4.38
244.551	4.15
244.927	4.09
245.303	4.33
245.679	4.35
246.056	4.01
246.432	4.28
246.808	4.09
247.184	3.99
247.56	3.43
247.936	3.46
248.312	3.47
248.688	3.13
249.064	2.88
249.44	2.87
249.815	2.97
250.191	3.21
250.567	2.99
250.943	3.14
251.318	3.23
251.694	3.22
252.069	3.14
252.445	3.21
252.82	3.31
253.196	2.91
253.571	2.56
253.947	2.65
254.322	2.7
254.697	2.55
255.073	2.54
255.448	2.72
255.823	2.74
256.198	2.74
256.573	2.93
256.948	3.36
257.323	3.28
257.698	3.21
258.073	3.1
258.448	3.06
258.823	2.98
259.198	2.94
259.573	2.95
259.948	2.88
260.322	2.96
260.697	2.77
261.072	2.74
261.446	2.73
261.821	2.66
262.195	2.69
262.57	2.76
262.944	2.73
263.319	2.7
263.693	2.56
264.067	2.62
264.442	2.54
264.816	2.4
265.19	2.35
265.564	2.39
265.938	2.27
266.313	2.3
266.687	2.26
267.061	2.21
267.435	2.09
267.809	1.95
268.183	1.82
268.556	1.96
268.93	2.02
269.304	2.15
269.678	2.18
270.051	2.14
270.425	2.09
270.799	2.22
271.172	2.32
271.546	2.42
271.919	2.38
272.293	2.17
272.666	2.08
273.04	2.22
273.413	2.07
273.787	2.06
274.16	2.1
274.533	2.21
274.906	2.23
275.279	2.42
275.653	2.61
276.026	2.58
276.399	2.68
276.772	2.78
277.145	2.56
277.518	2.66
277.891	2.89
278.263	2.82
278.636	2.79
279.009	2.9
279.382	3.02
279.755	2.96
280.127	3.29
280.5	3.29
280.872	3.15
281.245	3.18
281.617	3.22
281.99	3.27
282.362	3.21
282.735	3.06
283.107	3.22
283.479	3.19
283.852	3.22
284.224	3.29
284.596	3.3
284.968	3.48
285.34	3.44
285.713	3.14
286.085	3.3
286.457	3.36
286.829	3.26
287.201	3.19
287.572	3.09
287.944	2.96
288.316	2.99
288.688	2.98
289.06	3.01
289.431	3.2
289.803	3.22
290.175	3.13
290.546	3.35
290.918	3.23
291.289	3.26
291.661	3.39
292.032	3.27
292.403	3.23
292.775	3.36
293.146	3.41
293.517	3.5
293.889	3.52
294.26	3.62
294.631	3.71
295.002	3.71
295.373	3.8
295.744	3.88
296.115	3.87
296.486	3.95
296.857	3.91
297.228	3.91
297.599	3.86
297.97	3.98
298.34	3.93
298.711	3.96
299.082	4.06
299.452	4.04
299.823	4.14
300.194	4.19
300.564	4.11
300.935	4.2
301.305	4.22
301.676	4.3
302.046	4.32
302.416	4.36
302.787	4.38
303.157	4.53
303.527	4.62
303.897	4.59
304.267	4.67
304.637	4.92
305.008	4.87
305.378	5.01
305.748	5.03
306.117	5.13
306.487	5.12
306.857	5.07
307.227	5.05
307.597	5.2
307.967	5.29
308.336	5.27
308.706	5.29
309.076	5.35
309.445	5.29
309.815	5.23
310.184	5.25
310.554	5.38
310.923	5.39
311.293	5.43
311.662	5.53
312.031	5.51
312.401	5.5
312.77	5.65
313.139	5.72
313.508	5.8
313.877	5.78
314.246	5.9
314.616	5.94
314.985	6.13
315.353	6.02
315.722	6.14
316.091	6.34
316.46	6.28
316.829	6.44
317.198	6.49
317.567	6.69
317.935	6.74
318.304	6.71
318.672	6.87
319.041	7.06
319.41	7.1
319.778	7.19
320.147	7.23
320.515	7.1
320.883	7.04
321.252	7.12
321.62	7.14
321.988	7.17
322.357	7.37
322.725	7.32
323.093	7.59
323.461	7.62
323.829	7.66
324.197	7.71
324.565	7.75
324.933	7.89
325.301	7.84
325.669	7.87
326.037	7.87
326.405	7.79
326.772	7.8
327.14	8.02
327.508	7.97
327.875	7.77
328.243	7.96
328.61	7.94
328.978	8.06
329.346	8.18
329.713	8.15
330.08	8.06
330.448	7.99
330.815	7.86
331.182	7.82
331.55	7.87
331.917	8.03
332.284	8.08
332.651	8.07
333.018	8.2
333.385	8.2
333.752	8.34
334.119	8.48
334.486	8.29
334.853	8.25
335.22	8.34
335.587	8.49
335.954	8.47
336.32	8.54
336.687	8.48
337.054	8.52
337.42	8.64
337.787	8.86
338.153	8.92
338.52	9.01
338.886	9.02
339.253	8.89
339.619	8.92
339.986	8.87
340.352	8.86
340.718	8.67
341.084	8.71
341.451	8.71
341.817	8.71
342.183	8.86
342.549	8.79
342.915	8.86
343.281	8.99
343.647	8.94
344.013	9
344.379	9.07
344.745	9.08
345.11	9.01
345.476	8.88
345.842	8.84
346.208	8.79
346.573	8.95
346.939	9.11
347.304	9.12
347.67	9.15
348.035	9.19
348.401	9.35
348.766	9.41
349.132	9.33
349.497	9.27
349.862	9.24
350.228	9.36
350.593	9.34
350.958	9.34
351.323	9.43
351.688	9.44
352.053	9.44
352.418	9.42
352.783	9.52
353.148	9.51
353.513	9.61
353.878	9.66
354.243	9.62
354.608	9.54
354.972	9.52
355.337	9.51
355.702	9.49
356.066	9.49
356.431	9.46
356.795	9.6
357.16	9.59
357.524	9.57
357.889	9.47
358.253	9.43
358.618	9.46
358.982	9.3
359.346	9.22
359.71	9.19
360.075	9.19
360.439	9.14
360.803	9.08
361.167	9.02
361.531	9.03
361.895	8.96
362.259	8.94
362.623	8.91
362.987	8.93
363.351	8.93
363.714	8.89
364.078	8.83
364.442	8.67
364.806	8.69
365.169	8.67
365.533	8.64
365.896	8.56
366.26	8.43
366.623	8.46
366.987	8.44
367.35	8.37
367.714	8.36
368.077	8.25
368.44	8.26
368.803	8.21
369.167	8.03
369.53	7.9
369.893	7.87
370.256	7.81
370.619	7.66
370.982	7.55
371.345	7.42
371.708	7.41
372.071	7.4
372.434	7.28
372.797	7.17
373.159	7.08
373.522	7.05
373.885	7.04
374.247	6.98
374.61	6.96
374.973	6.87
375.335	6.83
375.698	6.83
376.06	6.74
376.423	6.65
376.785	6.66
377.147	6.64
377.51	6.57
377.872	6.52
378.234	6.51
378.596	6.49
378.958	6.48
379.321	6.41
379.683	6.36
380.045	6.33
380.407	6.3
380.769	6.26
381.13	6.2
381.492	6.1
381.854	6.04
382.216	5.92
382.578	5.86
382.939	5.7
383.301	5.67
383.663	5.63
384.024	5.61
384.386	5.56
384.747	5.57
385.109	5.54
385.47	5.49
385.832	5.4
386.193	5.37
386.554	5.36
386.916	5.31
387.277	5.33
387.638	5.3
387.999	5.25
388.36	5.23
388.721	5.22
389.082	5.21
389.443	5.17
389.804	5.18
390.165	5.16
390.526	5.14
390.887	5.12
391.248	5.09
391.609	5.08
391.969	5.07
392.33	4.96
392.691	4.92
393.051	4.91
393.412	4.89
393.772	4.81
394.133	4.75
394.493	4.76
394.854	4.65
395.214	4.63
395.574	4.63
395.935	4.59
396.295	4.57
396.655	4.54
397.015	4.5
397.376	4.43
397.736	4.39
398.096	4.38
398.456	4.3
398.816	4.26
399.176	4.21
399.535	4.16
399.895	4.15
400.255	4.14
400.615	4.08
400.975	4.09
401.334	4.06
401.694	4.02
402.054	3.94
402.413	3.97
402.773	3.92
403.132	3.87
403.492	3.81
403.851	3.74
404.211	3.71
404.57	3.68
404.929	3.68
405.288	3.68
405.648	3.63
406.007	3.65
406.366	3.63
406.725	3.62
407.084	3.63
407.443	3.63
407.802	3.61
408.161	3.62
408.52	3.58
408.879	3.59
409.238	3.59
409.596	3.58
409.955	3.54
410.314	3.54
410.673	3.52
411.031	3.57
411.39	3.58
411.748	3.56
412.107	3.58
412.465	3.59
412.824	3.58
413.182	3.56
413.54	3.54
413.899	3.52
414.257	3.5
414.615	3.47
414.974	3.47
415.332	3.44
415.69	3.41
416.048	3.4
416.406	3.4
416.764	3.39
417.122	3.39
417.48	3.38
417.838	3.39
418.195	3.38
418.553	3.36
418.911	3.34
419.269	3.35
419.626	3.33
419.984	3.31
420.342	3.28
420.699	3.29
421.057	3.27
421.414	3.25
421.772	3.23
422.129	3.22
422.486	3.19
422.844	3.19
423.201	3.18
423.558	3.16
423.915	3.13
424.273	3.12
424.63	3.1
424.987	3.08
425.344	3.06
425.701	3.05
426.058	3.05
426.415	3.03
426.772	3.01
427.128	2.99
427.485	2.99
427.842	2.98
428.199	2.97
428.555	2.96
428.912	2.98
429.269	2.99
429.625	2.97
429.982	2.97
430.338	2.95
430.695	2.95
431.051	2.94
431.407	2.96
431.764	2.95
432.12	2.95
432.476	2.95
432.832	2.94
433.189	2.94
433.545	2.91
433.901	2.92
434.257	2.93
434.613	2.94
434.969	2.94
435.325	2.96
435.681	2.96
436.036	2.97
436.392	2.94
436.748	2.92
437.104	2.92
437.459	2.92
437.815	2.92
438.171	2.91
438.526	2.93
438.882	2.95
439.237	2.96
439.593	2.97
439.948	2.97
440.304	2.98
440.659	2.98
441.014	2.98
441.369	2.97
441.725	2.97
442.08	2.97
442.435	2.96
442.79	2.94
443.145	2.94
443.5	2.92
443.855	2.93
444.21	2.93
444.565	2.94
444.92	2.94
445.275	2.94
445.629	2.95
445.984	2.94
446.339	2.92
446.693	2.9
447.048	2.89
447.403	2.88
447.757	2.87
448.112	2.85
448.466	2.83
448.82	2.83
449.175	2.82
449.529	2.82
449.883	2.8
450.238	2.81
450.592	2.81
450.946	2.8
451.3	2.77
451.654	2.78
452.008	2.76
452.362	2.73
452.716	2.74
453.07	2.72
453.424	2.73
453.778	2.72
454.132	2.72
454.486	2.72
454.839	2.71
455.193	2.71
455.547	2.72
455.9	2.74
456.254	2.75
456.607	2.75
456.961	2.75
457.314	2.74
457.668	2.72
458.021	2.71
458.375	2.74
458.728	2.77
459.081	2.76
459.434	2.76
459.787	2.79
460.141	2.78
460.494	2.78
460.847	2.78
461.2	2.78
461.553	2.78
461.906	2.78
462.259	2.81
462.611	2.82
462.964	2.82
463.317	2.82
463.67	2.82
464.022	2.82
464.375	2.82
464.728	2.85
465.08	2.88
465.433	2.89
465.785	2.9
466.138	2.9
466.49	2.92
466.843	2.93
467.195	2.92
467.547	2.95
467.899	2.95
468.252	2.95
468.604	2.98
468.956	2.98
469.308	3.01
469.66	3
470.012	3.02
470.364	3.04
470.716	3.04
471.068	3.04
471.42	3.06
471.772	3.1
472.123	3.1
472.475	3.1
472.827	3.1
473.178	3.12
473.53	3.12
473.882	3.14
474.233	3.14
474.585	3.13
474.936	3.14
475.288	3.16
475.639	3.17
475.99	3.17
476.342	3.18
476.693	3.17
477.044	3.19
477.395	3.17
477.746	3.17
478.097	3.16
478.448	3.15
478.8	3.11
479.15	3.08
479.501	3.09
479.852	3.08
480.203	3.07
480.554	3.05
480.905	3.06
481.255	3.05
481.606	3.06
481.957	3.07
482.307	3.07
482.658	3.06
483.009	3.05
483.359	3.04
483.709	3.04
484.06	3.03
484.41	3.03
484.761	3.02
485.111	3.01
485.461	3.02
485.811	3.02
486.162	3.03
486.512	3.02
486.862	3.01
487.212	3
487.562	3.01
487.912	3.01
488.262	2.99
488.612	2.98
488.961	2.98
489.311	2.97
489.661	2.95
490.011	2.94
490.36	2.94
490.71	2.95
491.06	2.95
491.409	2.96
491.759	2.96
492.108	2.97
492.458	2.99
492.807	2.99
493.157	2.99
493.506	3
493.855	3.02
494.204	3.03
494.554	3.06
494.903	3.07
495.252	3.08
495.601	3.12
495.95	3.15
496.299	3.18
496.648	3.21
496.997	3.25
497.346	3.3
497.695	3.33
498.043	3.34
498.392	3.36
498.741	3.4
499.09	3.46
499.438	3.5
499.787	3.54
500.135	3.6
500.484	3.67
500.832	3.72
501.181	3.79
501.529	3.85
501.878	3.93
502.226	4.02
502.574	4.12
502.923	4.2
503.271	4.27
503.619	4.37
503.967	4.48
504.315	4.57
504.663	4.66
505.011	4.8
505.359	4.92
505.707	5.06
506.055	5.2
506.403	5.32
506.751	5.45
507.098	5.59
507.446	5.73
507.794	5.88
508.141	6.03
508.489	6.18
508.837	6.36
509.184	6.54
509.531	6.7
509.879	6.89
510.226	7.08
510.574	7.29
510.921	7.47
511.268	7.68
511.616	7.91
511.963	8.16
512.31	8.37
512.657	8.6
513.004	8.84
513.351	9.13
513.698	9.41
514.045	9.71
514.392	10
514.739	10.31
515.086	10.63
515.432	10.95
515.779	11.26
516.126	11.57
516.473	11.87
516.819	12.16
517.166	12.46
517.512	12.76
517.859	13.05
518.205	13.32
518.552	13.59
518.898	13.86
519.245	14.1
519.591	14.37
519.937	14.68
520.283	14.99
520.629	15.27
520.976	15.6
521.322	15.95
521.668	16.3
522.014	16.67
522.36	17.01
522.706	17.39
523.052	17.78
523.398	18.18
523.743	18.6
524.089	19.02
524.435	19.39
524.781	19.74
525.126	20.07
525.472	20.4
525.817	20.69
526.163	20.99
526.509	21.24
526.854	21.5
527.199	21.72
527.545	21.92
527.89	22.14
528.235	22.37
528.581	22.58
528.926	22.79
529.271	22.99
529.616	23.23
529.961	23.45
530.306	23.69
530.651	23.92
530.996	24.17
531.341	24.41
531.686	24.69
532.031	24.96
532.376	25.22
532.721	25.5
533.065	25.8
533.41	26.07
533.755	26.37
534.099	26.66
534.444	26.94
534.788	27.24
535.133	27.54
535.477	27.81
535.822	28.1
536.166	28.41
536.51	28.74
536.855	29.04
537.199	29.36
537.543	29.71
537.887	30.07
538.231	30.45
538.576	30.79
538.92	31.1
539.264	31.41
539.608	31.68
539.951	31.97
540.295	32.19
540.639	32.47
540.983	32.75
541.327	32.98
541.671	33.24
542.014	33.48
542.358	33.72
542.701	33.92
543.045	34.15
543.389	34.41
543.732	34.65
544.075	34.91
544.419	35.16
544.762	35.39
545.105	35.62
545.449	35.85
545.792	36.13
546.135	36.38
546.478	36.66
546.821	36.96
547.165	37.26
547.508	37.6
547.851	37.86
548.194	38.11
548.536	38.41
548.879	38.69
549.222	38.94
549.565	39.2
549.908	39.51
550.25	39.76
550.593	39.97
550.936	40.17
551.278	40.41
551.621	40.65
551.963	40.91
552.306	41.17
552.648	41.36
552.991	41.61
553.333	41.85
553.675	42.12
554.017	42.34
554.36	42.53
554.702	42.71
555.044	42.91
555.386	43.12
555.728	43.34
556.07	43.52
556.412	43.71
556.754	43.94
557.096	44.11
557.438	44.39
557.78	44.63
558.121	44.86
558.463	45.06
558.805	45.29
559.147	45.49
559.488	45.66
559.83	45.82
560.171	45.97
560.513	46.14
560.854	46.27
561.196	46.4
561.537	46.6
561.878	46.73
562.22	46.9
562.561	47.06
562.902	47.17
563.243	47.32
563.584	47.5
563.925	47.57
564.266	47.76
564.607	47.87
564.948	47.96
565.289	48.08
565.63	48.21
565.971	48.26
566.312	48.32
566.653	48.49
566.993	48.58
567.334	48.65
567.675	48.75
568.015	48.87
568.356	48.99
568.696	49.02
569.037	49.15
569.377	49.24
569.718	49.32
570.058	49.44
570.398	49.54
570.739	49.65
571.079	49.75
571.419	49.87
571.759	49.92
572.099	50.05
572.439	50.12
572.779	50.25
573.119	50.4
573.459	50.53
573.799	50.6
574.139	50.72
574.479	50.83
574.819	50.92
575.158	50.98
575.498	51.1
575.838	51.26
576.177	51.31
576.517	51.42
576.856	51.52
577.196	51.64
577.535	51.7
577.875	51.8
578.214	51.93
578.553	52.01
578.893	52.14
579.232	52.2
579.571	52.34
579.91	52.4
580.25	52.48
580.589	52.57
580.928	52.63
581.267	52.74
581.606	52.87
581.945	52.94
582.283	53.14
582.622	53.24
582.961	53.31
583.3	53.47
583.639	53.61
583.977	53.66
584.316	53.72
584.654	53.87
584.993	53.78
585.332	53.85
585.67	53.95
586.008	54
586.347	53.96
586.685	54.05
587.024	54.15
587.362	54.19
587.7	54.18
588.038	54.24
588.376	54.28
588.715	54.3
589.053	54.44
589.391	54.48
589.729	54.54
590.067	54.56
590.404	54.66
590.742	54.67
591.08	54.77
591.418	54.86
591.756	54.89
592.093	55.08
592.431	55.13
592.769	55.13
593.106	55.22
593.444	55.37
593.781	55.36
594.119	55.37
594.456	55.47
594.793	55.52
595.131	55.62
595.468	55.68
595.805	55.77
596.143	55.79
596.48	55.8
596.817	55.88
597.154	56.01
597.491	56
597.828	55.97
598.165	55.93
598.502	55.97
598.839	56.02
599.176	56.04
599.512	56.11
599.849	56.23
600.186	56.28
600.523	56.39
600.859	56.54
601.196	56.55
601.532	56.54
601.869	56.63
602.205	56.67
602.542	56.78
602.878	56.81
603.215	56.8
603.551	56.84
603.887	56.8
604.223	56.72
604.56	56.72
604.896	56.79
605.232	56.91
605.568	56.95
605.904	56.98
606.24	57.01
606.576	57
606.912	56.98
607.248	57.02
607.583	56.99
607.919	57
608.255	57.07
608.591	57.1
608.926	57.08
609.262	57.06
609.597	57.03
609.933	57.09
610.268	57.19
610.604	57.18
610.939	57.17
611.275	57.23
611.61	57.28
611.945	57.34
612.281	57.34
612.616	57.28
612.951	57.35
613.286	57.46
613.621	57.55
613.956	57.69
614.291	57.67
614.626	57.8
614.961	57.75
615.296	57.83
615.631	57.92
615.966	58
616.3	58.01
616.635	58.05
616.97	57.99
617.304	57.9
617.639	57.97
617.973	58.13
618.308	58.22
618.642	58.24
618.977	58.3
619.311	58.24
619.646	58.42
619.98	58.4
620.314	58.42
620.648	58.45
620.983	58.36
621.317	58.42
621.651	58.4
621.985	58.43
622.319	58.42
622.653	58.48
622.987	58.47
623.321	58.51
623.655	58.54
623.988	58.7
624.322	58.8
624.656	58.79
624.99	58.8
625.323	58.77
625.657	58.85
625.99	58.88
626.324	59
626.657	59.02
626.991	59.1
627.324	59.01
627.658	59.12
627.991	59.17
628.324	59.15
628.657	59.08
628.991	59.17
629.324	59.2
629.657	59.21
629.99	59.21
630.323	59.23
630.656	59.17
630.989	59.02
631.322	59.04
631.655	59.16
631.987	59.2
632.32	59.27
632.653	59.29
632.986	59.3
633.318	59.31
633.651	59.24
633.984	59.11
634.316	59.18
634.649	59.01
634.981	58.99
635.313	59.06
635.646	59.16
635.978	59.2
636.31	59.24
636.643	59.21
636.975	59.31
637.307	59.29
637.639	59.4
637.971	59.52
638.303	59.51
638.635	59.35
638.967	59.28
639.299	59.34
639.631	59.27
639.963	59.24
640.295	59.31
640.626	59.3
640.958	59.33
641.29	59.32
641.621	59.36
641.953	59.34
642.285	59.38
642.616	59.38
642.948	59.33
643.279	59.41
643.61	59.51
643.942	59.56
644.273	59.66
644.604	59.58
644.936	59.63
645.267	59.61
645.598	59.7
645.929	59.86
646.26	59.75
646.591	59.93
646.922	59.93
647.253	59.89
647.584	59.97
647.915	60.12
648.245	60.21
648.576	60.33
648.907	60.33
649.238	60.24
649.568	60.26
649.899	60.26
650.229	60.15
650.56	60.04
650.89	60.02
651.221	60.04
651.551	60.1
651.882	59.99
652.212	60.09
652.542	60.15
652.872	60.05
653.203	60.1
653.533	60.04
653.863	60.01
654.193	60.08
654.523	60.15
654.853	60.24
655.183	60.21
655.513	60.08
655.843	60.16
656.172	60.25
656.502	60.19
656.832	60.19
657.162	60.2
657.491	60.25
657.821	60.23
658.15	60.26
658.48	60.3
658.809	60.34
659.139	60.37
659.468	60.44
659.798	60.41
660.127	60.43
660.456	60.43
660.785	60.54
661.115	60.45
661.444	60.37
661.773	60.25
662.102	60.39
662.431	60.51
662.76	60.46
663.089	60.47
663.418	60.53
663.747	60.55
664.076	60.5
664.404	60.54
664.733	60.5
665.062	60.51
665.39	60.49
665.719	60.5
666.048	60.5
666.376	60.38
666.705	60.46
667.033	60.47
667.362	60.51
667.69	60.58
668.018	60.67
668.347	60.7
668.675	60.75
669.003	60.57
669.331	60.52
669.659	60.56
669.987	60.6
670.315	60.64
670.643	60.68
670.971	60.81
671.299	60.95
671.627	61.16
671.955	61.23
672.283	61.29
672.61	61.3
672.938	61.2
673.266	61.21
673.593	61.28
673.921	61.34
674.249	61.33
674.576	61.29
674.904	61.28
675.231	61.24
675.558	61.17
675.886	61.19
676.213	61.17
676.54	61.22
676.867	61.23
677.195	61.18
677.522	61.16
677.849	61.21
678.176	60.98
678.503	60.85
678.83	60.74
679.157	60.71
679.484	60.78
679.81	60.82
680.137	60.87
680.464	60.89
680.791	60.84
681.117	60.86
681.444	60.8
681.771	60.89
682.097	60.97
682.424	60.96
682.75	60.97
683.077	61
683.403	60.94
683.729	61.03
684.056	60.96
684.382	60.98
684.708	60.95
685.034	61.09
685.36	60.98
685.686	61.05
686.012	61.1
686.339	61.18
686.664	61.17
686.99	61.08
687.316	61.03
687.642	60.91
687.968	60.71
688.294	60.63
688.619	60.53
688.945	60.49
689.271	60.5
689.596	60.45
689.922	60.54
690.247	60.54
690.573	60.44
690.898	60.53
691.224	60.52
691.549	60.39
691.874	60.45
692.2	60.52
692.525	60.45
692.85	60.35
693.175	60.32
693.5	60.37
693.825	60.5
694.15	60.53
694.475	60.83
694.8	60.98
695.125	61.04
695.45	60.93
695.775	60.9
696.099	61
696.424	61.18
696.749	61.22
697.073	61.38
697.398	61.4
697.723	61.43
698.047	61.57
698.372	61.67
698.696	61.58
699.02	61.56
699.345	61.7
699.669	61.84
699.993	61.8
700.318	61.79
700.642	61.87
700.966	61.72
701.29	61.67
701.614	61.68
701.938	61.81
702.262	61.93
702.586	62.05
702.91	62.17
703.234	62.15
703.557	62.1
703.881	61.96
704.205	61.9
704.529	61.91
704.852	61.78
705.176	61.79
705.499	61.58
705.823	61.71
706.146	61.64
706.47	61.55
706.793	61.63
707.117	61.69
707.44	61.61
707.763	61.84
708.086	61.72
708.409	61.72
708.733	61.55
709.056	61.68
709.379	61.67
709.702	61.54
710.025	61.46
710.348	61.53
710.671	61.56
710.993	61.59
711.316	61.36
711.639	61.6
711.962	61.51
712.284	61.75
712.607	61.69
712.93	61.62
713.252	61.62
713.575	61.47
713.897	61.37
714.22	61.41
714.542	61.41
714.864	61.38
715.187	61.4
715.509	61.56
715.831	61.45
716.153	61.45
716.475	61.49
716.798	61.62
717.12	61.52
717.442	61.46
717.764	61.52
718.085	61.83
718.407	61.56
718.729	61.71
719.051	61.55
719.373	61.59
719.695	61.59
720.016	61.44
720.338	61.4
720.659	61.48
720.981	61.28
721.302	61.15
721.624	61.26
721.945	61.27
722.267	61.02
722.588	61.1
722.909	61.18
723.231	61
723.552	61.06
723.873	61.06
724.194	61.25
724.515	61.3
724.836	61.15
725.157	61.07
725.478	60.91
725.799	61.3
726.12	61.36
726.441	61.46
726.762	61.66
727.083	61.65
727.403	61.47
727.724	61.59
728.045	61.63
728.365	61.59
728.686	61.21
729.006	61.46
729.327	61.35
729.647	61.17
729.967	61.21
730.288	61.25
730.608	61.27
730.928	61.31
731.249	61.22
731.569	61.42
731.889	61.67
732.209	61.69
732.529	61.5
732.849	61.51
733.169	61.56
733.489	61.56
733.809	61.58
734.129	61.72
734.448	61.82
734.768	61.83
735.088	61.64
735.408	61.97
735.727	61.69
736.047	61.81
736.366	61.92
736.686	62.28
737.005	62.16
737.325	62.11
737.644	61.91
737.963	61.84
738.283	61.74
738.602	61.64
738.921	61.57
739.24	61.6
739.56	61.53
739.879	61.32
740.198	61.27
740.517	61.14
740.836	61.2
741.155	60.9
741.473	60.78
741.792	60.77
742.111	60.94
742.43	61.19
742.748	61.12
743.067	61.07
743.386	60.77
743.704	60.94
744.023	61.04
744.341	61.13
744.66	61.22
744.978	61.36
745.297	61.64
745.615	61.54
745.933	61.61
746.252	61.55
746.57	61.69
746.888	61.4
747.206	61.52
747.524	61.49
747.842	61.48
748.16	61.99
748.478	62.17
748.796	62.1
749.114	61.93
749.432	61.87
749.749	61.8
750.067	62.02
750.385	61.79
750.703	61.94
751.02	61.92
751.338	61.86
751.655	61.63
751.973	61.32
752.29	61.65
752.608	61.43
752.925	61.35
753.242	61.41
753.56	61.72
753.877	62.05
754.194	62.11
754.511	62.6
754.828	62.55
755.145	62.61
755.462	62.57
755.779	62.64
756.096	62.7
756.413	62.87
756.73	62.77
757.047	62.72
757.364	62.47
757.68	62.65
757.997	62.58
758.314	62.59
758.63	62.5
758.947	62.48
759.264	62.74
759.58	62.89
759.896	62.79
760.213	62.6
760.529	62.21
760.846	62.23
761.162	62.03
761.478	61.87
761.794	61.92
762.11	61.82
762.426	61.82
762.743	61.95
763.059	61.61
763.375	61.56
763.69	61.62
764.006	61.59
764.322	61.82
764.638	61.69
764.954	61.93
765.27	61.87
765.585	61.79
765.901	61.83
766.216	61.9
766.532	61.83
766.848	61.82
767.163	61.81
767.478	61.81
767.794	62.17
768.109	62.07
768.424	62.1
768.74	62.35
769.055	62.47
769.37	62.4
769.685	62.58
770	62.48
770.315	62.48
770.63	62.76
770.945	62.58
771.26	63.1
771.575	63.12
771.89	62.97
772.205	63.44
772.52	63.17
772.834	62.97
773.149	63.55
773.464	63.65
773.778	64.24
774.093	64.25
774.407	63.52
774.722	63.43
775.036	63.68
775.351	63.8
775.665	63.84
775.979	63.6
776.293	63.79
776.608	64.14
776.922	63.89
777.236	63.88
777.55	63.95
777.864	63.77
778.178	63.37
778.492	63.58
778.806	63.3
779.12	63.63
779.434	63.81
779.747	63.36
780.061	63.84
780.375	64.02
780.689	64.24
781.002	64.61
781.316	64.53
781.629	64.62
781.943	64.2
782.256	63.99
782.57	63.65
782.883	63.51
783.196	63.13
783.51	63.04
783.823	62.63
784.136	62.48
784.449	62.42
784.762	62.47
785.075	62.94
785.388	62.95
785.701	62.93
786.014	62.18
786.327	61.97
786.64	61.67
786.953	61.62
787.266	61.32
787.578	61.06
787.891	61.53
788.204	61.38
788.516	61.74
788.829	61.79
789.141	61.98
789.454	62.07
789.766	62.36
790.079	62.87
790.391	63.14
790.703	62.6
791.016	62.65
791.328	63.01
791.64	62.98
791.952	62.96
792.264	62.75
792.576	63.49
792.888	63.22
793.2	63.19
793.512	62.08
793.824	61.87
794.136	61.87
794.448	61.5
794.76	61.56
795.071	60.95
795.383	61.67
795.695	62.11
796.006	62.4
796.318	62.27
796.629	62.42
796.941	62.45
797.252	62.45
797.564	62.47
797.875	61.79
798.186	61.34
798.497	60.76
798.809	60.25
799.12	60.04
799.431	60.34
799.742	60.88
800.053	62.01
800.364	62.16
800.675	62.77
800.986	63.23
801.297	63.18
801.608	63.64
801.918	63.24
802.229	63.38
802.54	63.07
802.851	63.06
803.161	62.84
803.472	63.2
803.782	63.51
804.093	63.49
804.403	63.86
804.714	64.24
805.024	64.84
805.334	65.59
805.645	65.75
805.955	65.82
806.265	65.6
806.575	64.93
806.885	64.68
807.195	64.33
807.505	64.14
807.815	64.12
808.125	64.53
808.435	64.32
808.745	64.84
809.055	65.22
809.365	65.45
809.674	64.74
809.984	64.8
810.294	65.04
810.603	65.44
810.913	65.12
811.222	64.81
811.532	64.35
811.841	65.13
812.151	65.79
812.46	66.17
812.769	66.06
813.079	66.45
813.388	67.27
813.697	67.89
814.006	67.77
814.315	67
814.624	66.53
814.933	65.93
815.242	65.14
815.551	64.92
815.86	65.4
816.169	66.19
816.478	65.8
816.786	65.72
817.095	65.3
817.404	66.15
817.712	66.3
818.021	66.92
818.33	66.38
818.638	65.96
818.947	65.76
819.255	65.36
819.563	65.18
819.872	64.64
820.18	64.74
820.488	64.67
820.796	64.77
821.105	64.71
821.413	64.64
821.721	64.51
822.029	64.57
822.337	64.33
822.645	64.22
822.953	63.93
823.26	63.87
823.568	63.79
823.876	63.71
824.184	63.76
824.491	63.76
824.799	63.65
825.107	63.47
825.414	63.34
825.722	63.31
826.029	63.39
826.337	63.25
826.644	63.03
826.951	62.79
827.259	62.83
827.566	62.64
827.873	62.74
828.18	62.54
828.488	62.23
828.795	62.06
829.102	62.18
829.409	62.55
829.716	62.46
830.023	62.33
830.329	62.16
830.636	62.03
830.943	61.59
831.25	61.29
831.557	61.55
831.863	62.01
832.17	61.85
832.476	61.83
832.783	61.98
833.089	61.93
833.396	62.2
833.702	61.93
834.009	62.18
834.315	62.14
834.621	62.76
834.928	62.95
835.234	62.95
835.54	62.64
835.846	62.2
836.152	62.87
836.458	63.63
836.764	63.75
837.07	63.59
837.376	64.03
837.682	64.44
837.988	64.49
838.293	64.47
838.599	64.75
838.905	64.45
839.211	64.72
839.516	64.62
839.822	65.11
840.127	65.5
840.433	65.46
840.738	65.38
841.044	64.73
841.349	64.85
841.654	65.67
841.959	64.96
842.265	65.39
842.57	62.56
842.875	61.27
843.18	61.12
843.485	62.11
843.79	60.87
844.095	60.55
844.4	60.38
844.705	59.08
845.01	59.68
845.315	59.35
845.619	59.75
845.924	59.98
846.229	59.67
846.533	59.27
846.838	58.04
847.142	58.58
847.447	58.46
847.751	58.3
848.056	56.96
848.36	57.32
848.664	56.95
848.969	59.37
849.273	59.61
849.577	61.25
849.881	59.37
850.185	61.34
850.489	62.95
850.794	61.92
851.097	62.35
851.401	60.03
851.705	60.05
852.009	60.77
852.313	59.27
852.617	59.04
852.92	58.15
853.224	59.75
853.528	59.34
853.831	61.99
854.135	61.73
854.438	61.07
854.742	62.46
855.045	63.45
855.349	60.79
855.652	58.65
855.955	56.52
856.259	57.91
856.562	59.66
856.865	57.83
857.168	59.2
857.471	59.42
857.774	60.4
858.077	62.59
858.38	61.17
858.683	62.25
858.986	60.2
859.289	61.74
859.592	61.22
859.894	62.55
860.197	57.62
860.5	57.2
860.802	57.65
861.105	56.95
861.407	57.69
861.71	58.04
862.012	60.29
862.315	60.47
862.617	59.81
862.919	58.04
863.222	58.07
863.524	58.95
863.826	59.02
864.128	59.9
864.43	57.25
864.732	59.62
865.034	61.07
865.336	62.76
865.638	63.88
865.94	64.72
866.242	61.82
866.544	64.81
866.846	66.28
867.147	68.53
867.449	68.8
867.751	68.94
868.052	71.46
868.354	70.49
868.655	69.72
868.957	71.91
869.258	71.08
869.56	70.7
869.861	70.1
870.162	72.09
870.463	70.74
870.765	74.09
871.066	70.94
871.367	70.13
871.668	70.09
871.969	68.08
872.27	66.68
872.571	69.57
872.872	70.71
873.173	71.1
873.473	72.33
873.774	71.94
874.075	70.41
874.376	70.59
874.676	71.81
874.977	72.86
875.277	70.15
875.578	72.84
875.878	73.98
876.179	73.71
876.479	72.3
876.78	74.17
877.08	72.43
877.38	74.76
877.68	73.75
877.981	75.51
878.281	77.11
878.581	81.3
