Data from BU26844_Reflection_00002.txt Node
Date: Mon Nov 18 16:36:00 EST 2019
User: vgr7
Spectrometer: USB2G7710
Scans to average: 3
Trigger mode: 4
Integration Time (sec): 2.000000E-2
Electric dark correction enabled: true
Boxcar width: 10
XAxis mode: Wavelengths
Number of Pixels in Spectrum: 2048
>>>>>Begin Spectral Data<<<<<
177.721	592.35
178.105	8766.67
178.488	-122.58
178.871	-9733.33
179.254	201.57
179.636	-983.33
180.019	86.16
180.402	44.44
180.785	183.52
181.168	187.9
181.55	143.74
181.933	169.42
182.316	206.53
182.698	234.6
183.081	181.48
183.463	283.71
183.846	313.68
184.228	233.21
184.611	367.76
184.993	999.71
185.376	8978.79
185.758	-416.41
186.14	-311.61
186.522	-271.36
186.904	-807.59
187.287	1397.19
187.669	-308.72
188.051	-346.59
188.433	-220.36
188.815	-94.49
189.197	-79.02
189.579	-74.02
189.961	-80.01
190.342	-107.34
190.724	-58.64
191.106	-58.42
191.488	-45.45
191.869	-22.47
192.251	-40.04
192.633	-64.42
193.014	-77.26
193.396	-102.34
193.777	-110.36
194.159	-110.44
194.54	-81.5
194.922	-73.97
195.303	-74.37
195.684	-97.52
196.065	-67.57
196.447	-56.29
196.828	-79.49
197.209	-85.95
197.59	-86.64
197.971	-75.68
198.352	-59.87
198.733	-91.3
199.114	-74
199.495	-62.57
199.876	-67.55
200.257	-59.82
200.638	-41.58
201.018	-53.94
201.399	-27.42
201.78	-8.73
202.16	-11.11
202.541	-81.01
202.922	-82.5
203.302	-88.18
203.683	-80.78
204.063	-199.37
204.444	-332.4
204.824	-168.24
205.204	-101.93
205.585	-155.69
205.965	-140.18
206.345	-207.63
206.725	-244.86
207.106	-354.35
207.486	-501.12
207.866	-838.19
208.246	-740.67
208.626	-1261.37
209.006	-253.26
209.386	-294.24
209.766	-341.3
210.145	-176.08
210.525	-188.81
210.905	-189.4
211.285	-152.47
211.664	-98.88
212.044	-91.9
212.424	-55.85
212.803	-79.76
213.183	-63.93
213.562	-65.5
213.942	-51.2
214.321	-38.49
214.701	-44.89
215.08	-45.57
215.459	-42.35
215.838	-31.41
216.218	-32.98
216.597	-16.89
216.976	-24.63
217.355	-23.61
217.734	-14.73
218.113	-21.86
218.492	-24.34
218.871	-28.06
219.25	-10.75
219.629	-25.69
220.008	-23
220.387	-29.74
220.766	-32.09
221.144	-43.96
221.523	-35.7
221.902	-35.95
222.28	-37.45
222.659	-19.32
223.037	-15.71
223.416	-27.46
223.794	-43.16
224.173	-35.92
224.551	-34.1
224.929	-26.37
225.308	-23.55
225.686	-26.63
226.064	-21.2
226.442	-16.82
226.821	-9.35
227.199	-15.19
227.577	-12.87
227.955	-15.5
228.333	-14.25
228.711	-10
229.089	-6
229.467	-8.65
229.845	-10.89
230.222	-9.1
230.6	-7.49
230.978	-5.98
231.356	-2.34
231.733	-2.56
232.111	-1.92
232.488	-0.6
232.866	0.51
233.243	2.1
233.621	1.06
233.998	1.79
234.376	0.87
234.753	-0.8
235.13	-0.39
235.508	-0.58
235.885	0.05
236.262	-1.27
236.639	-0.78
237.016	-1.86
237.393	-0.09
237.77	1.03
238.147	2.07
238.524	1.24
238.901	0.92
239.278	1.22
239.655	2.1
240.032	2.24
240.409	1.59
240.785	1.1
241.162	1.14
241.539	1.31
241.915	1.35
242.292	1.76
242.668	1.93
243.045	2.29
243.421	2.77
243.798	3.43
244.174	3.4
244.551	3.24
244.927	3.11
245.303	3.14
245.679	3.18
246.056	3.27
246.432	3.14
246.808	3
247.184	2.8
247.56	2.84
247.936	2.75
248.312	2.99
248.688	2.98
249.064	3.04
249.44	3.14
249.815	3.09
250.191	3.08
250.567	2.99
250.943	2.74
251.318	2.62
251.694	2.3
252.069	2.41
252.445	2.66
252.82	2.97
253.196	2.99
253.571	3.11
253.947	2.8
254.322	3.14
254.697	3.16
255.073	2.92
255.448	2.8
255.823	2.91
256.198	3.01
256.573	3.09
256.948	3.08
257.323	3.15
257.698	3.2
258.073	3.15
258.448	3.24
258.823	3.23
259.198	3.08
259.573	3.14
259.948	3.16
260.322	3.06
260.697	2.96
261.072	2.8
261.446	2.69
261.821	2.72
262.195	2.65
262.57	2.7
262.944	2.84
263.319	2.7
263.693	2.61
264.067	2.41
264.442	2.54
264.816	2.41
265.19	2.31
265.564	2.38
265.938	2.32
266.313	2.31
266.687	2.56
267.061	2.91
267.435	2.91
267.809	2.75
268.183	2.73
268.556	2.86
268.93	2.95
269.304	3.06
269.678	3.11
270.051	3.07
270.425	3.1
270.799	2.99
271.172	3.13
271.546	3.21
271.919	3.25
272.293	3.14
272.666	3.23
273.04	3.37
273.413	3.25
273.787	3.3
274.16	3.25
274.533	3.16
274.906	2.89
275.279	2.8
275.653	2.91
276.026	3.01
276.399	2.86
276.772	2.91
277.145	2.75
277.518	2.83
277.891	2.95
278.263	2.86
278.636	2.83
279.009	2.83
279.382	2.8
279.755	2.8
280.127	2.88
280.5	3.02
280.872	3.02
281.245	2.99
281.617	3.15
281.99	3.24
282.362	3.29
282.735	3.36
283.107	3.37
283.479	3.29
283.852	3.22
284.224	3.38
284.596	3.34
284.968	3.41
285.34	3.34
285.713	3.3
286.085	3.38
286.457	3.61
286.829	3.65
287.201	3.59
287.572	3.62
287.944	3.58
288.316	3.51
288.688	3.48
289.06	3.45
289.431	3.3
289.803	3.17
290.175	3.06
290.546	3.25
290.918	3.32
291.289	3.45
291.661	3.49
292.032	3.46
292.403	3.44
292.775	3.48
293.146	3.46
293.517	3.39
293.889	3.35
294.26	3.23
294.631	3.19
295.002	3.23
295.373	3.33
295.744	3.26
296.115	3.24
296.486	3.23
296.857	3.32
297.228	3.38
297.599	3.42
297.97	3.56
298.34	3.41
298.711	3.45
299.082	3.44
299.452	3.54
299.823	3.61
300.194	3.58
300.564	3.51
300.935	3.63
301.305	3.71
301.676	3.71
302.046	3.68
302.416	3.8
302.787	3.84
303.157	3.68
303.527	3.73
303.897	3.66
304.267	3.77
304.637	3.81
305.008	3.86
305.378	3.98
305.748	3.93
306.117	3.83
306.487	3.81
306.857	3.79
307.227	3.8
307.597	3.64
307.967	3.83
308.336	3.96
308.706	3.89
309.076	3.84
309.445	3.92
309.815	3.94
310.184	3.87
310.554	3.89
310.923	3.93
311.293	3.92
311.662	3.87
312.031	3.8
312.401	3.87
312.77	4.01
313.139	4.06
313.508	3.99
313.877	4.07
314.246	4.17
314.616	4.13
314.985	4.01
315.353	3.89
315.722	3.83
316.091	3.78
316.46	3.77
316.829	3.9
317.198	3.86
317.567	3.98
317.935	3.91
318.304	3.88
318.672	3.78
319.041	4
319.41	4.09
319.778	4.12
320.147	4.01
320.515	3.91
320.883	3.76
321.252	3.8
321.62	3.84
321.988	3.67
322.357	3.74
322.725	3.78
323.093	4.03
323.461	3.96
323.829	3.93
324.197	3.88
324.565	3.75
324.933	3.82
325.301	3.76
325.669	3.79
326.037	3.77
326.405	3.82
326.772	3.75
327.14	3.7
327.508	3.63
327.875	3.6
328.243	3.56
328.61	3.62
328.978	3.79
329.346	3.79
329.713	3.85
330.08	3.86
330.448	3.82
330.815	3.7
331.182	3.67
331.55	3.74
331.917	3.74
332.284	3.73
332.651	3.68
333.018	3.63
333.385	3.72
333.752	3.82
334.119	3.89
334.486	3.89
334.853	3.97
335.22	3.95
335.587	3.94
335.954	3.85
336.32	3.73
336.687	3.58
337.054	3.57
337.42	3.62
337.787	3.62
338.153	3.56
338.52	3.62
338.886	3.62
339.253	3.63
339.619	3.75
339.986	3.83
340.352	3.84
340.718	3.83
341.084	3.73
341.451	3.69
341.817	3.75
342.183	3.76
342.549	3.75
342.915	3.83
343.281	3.84
343.647	3.89
344.013	3.86
344.379	3.91
344.745	3.97
345.11	3.82
345.476	3.8
345.842	3.86
346.208	3.84
346.573	4.04
346.939	4.05
347.304	3.96
347.67	3.83
348.035	3.82
348.401	3.87
348.766	3.95
349.132	4.01
349.497	3.9
349.862	3.95
350.228	3.96
350.593	3.84
350.958	3.82
351.323	3.78
351.688	3.79
352.053	3.81
352.418	3.83
352.783	3.8
353.148	3.74
353.513	3.73
353.878	3.76
354.243	3.68
354.608	3.64
354.972	3.57
355.337	3.72
355.702	3.74
356.066	3.8
356.431	3.75
356.795	3.73
357.16	3.69
357.524	3.54
357.889	3.57
358.253	3.68
358.618	3.71
358.982	3.67
359.346	3.77
359.71	3.73
360.075	3.72
360.439	3.8
360.803	3.86
361.167	3.82
361.531	3.79
361.895	3.75
362.259	3.72
362.623	3.78
362.987	3.77
363.351	3.8
363.714	3.78
364.078	3.75
364.442	3.71
364.806	3.79
365.169	3.81
365.533	3.75
365.896	3.75
366.26	3.76
366.623	3.79
366.987	3.72
367.35	3.81
367.714	3.78
368.077	3.74
368.44	3.77
368.803	3.81
369.167	3.81
369.53	3.8
369.893	3.82
370.256	3.87
370.619	3.84
370.982	3.76
371.345	3.7
371.708	3.74
372.071	3.71
372.434	3.7
372.797	3.73
373.159	3.78
373.522	3.77
373.885	3.75
374.247	3.82
374.61	3.85
374.973	3.82
375.335	3.86
375.698	3.94
376.06	3.89
376.423	3.85
376.785	3.87
377.147	3.9
377.51	3.93
377.872	3.92
378.234	3.92
378.596	3.95
378.958	3.97
379.321	3.98
379.683	4.01
380.045	4.03
380.407	4.01
380.769	4
381.13	3.97
381.492	3.95
381.854	3.94
382.216	3.97
382.578	3.95
382.939	3.89
383.301	3.85
383.663	3.83
384.024	3.88
384.386	3.93
384.747	3.94
385.109	3.91
385.47	3.89
385.832	3.88
386.193	3.92
386.554	3.95
386.916	3.95
387.277	4.01
387.638	3.99
387.999	3.97
388.36	3.95
388.721	3.96
389.082	3.98
389.443	3.97
389.804	3.91
390.165	3.93
390.526	3.96
390.887	3.98
391.248	4.02
391.609	4.03
391.969	3.95
392.33	3.94
392.691	3.99
393.051	3.97
393.412	4.01
393.772	3.98
394.133	3.99
394.493	3.99
394.854	3.97
395.214	3.94
395.574	3.95
395.935	3.97
396.295	3.99
396.655	4.02
397.015	4.06
397.376	4.1
397.736	4.11
398.096	4.09
398.456	4.11
398.816	4.14
399.176	4.11
399.535	4.17
399.895	4.17
400.255	4.16
400.615	4.17
400.975	4.15
401.334	4.16
401.694	4.15
402.054	4.14
402.413	4.09
402.773	4.09
403.132	4.1
403.492	4.1
403.851	4.1
404.211	4.08
404.57	4.01
404.929	4
405.288	3.99
405.648	4.03
406.007	4.02
406.366	4.01
406.725	4.03
407.084	4.01
407.443	4.01
407.802	4.01
408.161	4.02
408.52	4.03
408.879	4.04
409.238	4.04
409.596	4.04
409.955	4.09
410.314	4.12
410.673	4.11
411.031	4.13
411.39	4.09
411.748	4.09
412.107	4.15
412.465	4.13
412.824	4.12
413.182	4.09
413.54	4.1
413.899	4.1
414.257	4.11
414.615	4.12
414.974	4.12
415.332	4.11
415.69	4.09
416.048	4.08
416.406	4.08
416.764	4.06
417.122	4.07
417.48	4.04
417.838	4.05
418.195	4.07
418.553	4.06
418.911	4.08
419.269	4.06
419.626	4.04
419.984	4.05
420.342	4.05
420.699	4.06
421.057	4.04
421.414	4.03
421.772	4.04
422.129	4.02
422.486	4.03
422.844	4.05
423.201	4.04
423.558	4.04
423.915	4.05
424.273	4.06
424.63	4.06
424.987	4.06
425.344	4.07
425.701	4.07
426.058	4.08
426.415	4.07
426.772	4.1
427.128	4.11
427.485	4.12
427.842	4.11
428.199	4.1
428.555	4.12
428.912	4.13
429.269	4.11
429.625	4.13
429.982	4.12
430.338	4.11
430.695	4.13
431.051	4.12
431.407	4.1
431.764	4.11
432.12	4.11
432.476	4.11
432.832	4.07
433.189	4.08
433.545	4.06
433.901	4.05
434.257	4.07
434.613	4.08
434.969	4.09
435.325	4.09
435.681	4.09
436.036	4.09
436.392	4.09
436.748	4.08
437.104	4.08
437.459	4.07
437.815	4.06
438.171	4.07
438.526	4.06
438.882	4.08
439.237	4.08
439.593	4.06
439.948	4.08
440.304	4.09
440.659	4.08
441.014	4.1
441.369	4.11
441.725	4.08
442.08	4.09
442.435	4.09
442.79	4.11
443.145	4.1
443.5	4.09
443.855	4.07
444.21	4.08
444.565	4.08
444.92	4.08
445.275	4.09
445.629	4.09
445.984	4.09
446.339	4.09
446.693	4.09
447.048	4.08
447.403	4.05
447.757	4.06
448.112	4.06
448.466	4.05
448.82	4.05
449.175	4.06
449.529	4.03
449.883	4.02
450.238	3.99
450.592	4
450.946	3.99
451.3	4
451.654	3.98
452.008	4
452.362	3.99
452.716	3.99
453.07	3.98
453.424	4.01
453.778	3.98
454.132	3.96
454.486	3.99
454.839	4
455.193	4.01
455.547	4
455.9	4.02
456.254	4.01
456.607	4.03
456.961	4.02
457.314	4.04
457.668	4.05
458.021	4.05
458.375	4.06
458.728	4.07
459.081	4.09
459.434	4.08
459.787	4.08
460.141	4.09
460.494	4.09
460.847	4.07
461.2	4.09
461.553	4.09
461.906	4.09
462.259	4.1
462.611	4.1
462.964	4.12
463.317	4.11
463.67	4.13
464.022	4.11
464.375	4.12
464.728	4.11
465.08	4.12
465.433	4.14
465.785	4.14
466.138	4.13
466.49	4.12
466.843	4.11
467.195	4.13
467.547	4.15
467.899	4.16
468.252	4.17
468.604	4.17
468.956	4.17
469.308	4.17
469.66	4.17
470.012	4.19
470.364	4.18
470.716	4.18
471.068	4.19
471.42	4.19
471.772	4.2
472.123	4.2
472.475	4.21
472.827	4.21
473.178	4.21
473.53	4.22
473.882	4.24
474.233	4.26
474.585	4.25
474.936	4.23
475.288	4.22
475.639	4.24
475.99	4.24
476.342	4.27
476.693	4.27
477.044	4.27
477.395	4.27
477.746	4.27
478.097	4.27
478.448	4.26
478.8	4.27
479.15	4.26
479.501	4.26
479.852	4.27
480.203	4.28
480.554	4.28
480.905	4.29
481.255	4.3
481.606	4.3
481.957	4.31
482.307	4.31
482.658	4.31
483.009	4.3
483.359	4.31
483.709	4.31
484.06	4.31
484.41	4.31
484.761	4.3
485.111	4.3
485.461	4.31
485.811	4.31
486.162	4.3
486.512	4.31
486.862	4.32
487.212	4.32
487.562	4.32
487.912	4.32
488.262	4.32
488.612	4.32
488.961	4.32
489.311	4.31
489.661	4.32
490.011	4.31
490.36	4.3
490.71	4.29
491.06	4.29
491.409	4.29
491.759	4.29
492.108	4.31
492.458	4.32
492.807	4.3
493.157	4.32
493.506	4.33
493.855	4.32
494.204	4.31
494.554	4.29
494.903	4.29
495.252	4.29
495.601	4.27
495.95	4.28
496.299	4.29
496.648	4.3
496.997	4.32
497.346	4.34
497.695	4.37
498.043	4.38
498.392	4.35
498.741	4.36
499.09	4.38
499.438	4.38
499.787	4.37
500.135	4.4
500.484	4.39
500.832	4.4
501.181	4.42
501.529	4.43
501.878	4.46
502.226	4.46
502.574	4.48
502.923	4.51
503.271	4.52
503.619	4.52
503.967	4.49
504.315	4.49
504.663	4.49
505.011	4.49
505.359	4.51
505.707	4.53
506.055	4.55
506.403	4.57
506.751	4.56
507.098	4.58
507.446	4.6
507.794	4.61
508.141	4.6
508.489	4.61
508.837	4.64
509.184	4.63
509.531	4.64
509.879	4.64
510.226	4.64
510.574	4.67
510.921	4.68
511.268	4.7
511.616	4.7
511.963	4.71
512.31	4.72
512.657	4.72
513.004	4.73
513.351	4.72
513.698	4.73
514.045	4.74
514.392	4.74
514.739	4.71
515.086	4.72
515.432	4.72
515.779	4.72
516.126	4.71
516.473	4.73
516.819	4.73
517.166	4.74
517.512	4.74
517.859	4.73
518.205	4.72
518.552	4.74
518.898	4.74
519.245	4.75
519.591	4.75
519.937	4.73
520.283	4.74
520.629	4.75
520.976	4.73
521.322	4.75
521.668	4.75
522.014	4.78
522.36	4.79
522.706	4.8
523.052	4.83
523.398	4.83
523.743	4.83
524.089	4.84
524.435	4.83
524.781	4.84
525.126	4.84
525.472	4.85
525.817	4.84
526.163	4.85
526.509	4.85
526.854	4.87
527.199	4.89
527.545	4.9
527.89	4.9
528.235	4.91
528.581	4.9
528.926	4.9
529.271	4.9
529.616	4.9
529.961	4.91
530.306	4.9
530.651	4.9
530.996	4.9
531.341	4.89
531.686	4.89
532.031	4.89
532.376	4.9
532.721	4.9
533.065	4.9
533.41	4.91
533.755	4.91
534.099	4.91
534.444	4.9
534.788	4.92
535.133	4.93
535.477	4.93
535.822	4.93
536.166	4.94
536.51	4.93
536.855	4.96
537.199	4.95
537.543	4.96
537.887	4.97
538.231	4.98
538.576	5.01
538.92	5.03
539.264	5.04
539.608	5.04
539.951	5.05
540.295	5.05
540.639	5.05
540.983	5.05
541.327	5.04
541.671	5.06
542.014	5.03
542.358	5.04
542.701	5.03
543.045	5.04
543.389	5.05
543.732	5.04
544.075	5.02
544.419	5.01
544.762	4.99
545.105	5
545.449	4.99
545.792	4.96
546.135	4.95
546.478	4.94
546.821	4.94
547.165	4.95
547.508	4.96
547.851	4.96
548.194	4.94
548.536	4.95
548.879	4.92
549.222	4.93
549.565	4.93
549.908	4.96
550.25	4.95
550.593	4.96
550.936	4.97
551.278	4.96
551.621	4.97
551.963	4.98
552.306	4.98
552.648	4.99
552.991	5.02
553.333	5.02
553.675	5.01
554.017	5.02
554.36	5.01
554.702	5.01
555.044	5.02
555.386	5.03
555.728	5.01
556.07	5.03
556.412	5.03
556.754	5.02
557.096	4.99
557.438	4.99
557.78	4.99
558.121	5.02
558.463	5.02
558.805	5.01
559.147	5.01
559.488	5.02
559.83	5.02
560.171	5
560.513	5.02
560.854	5.03
561.196	5.04
561.537	5.04
561.878	5.01
562.22	4.97
562.561	4.96
562.902	4.96
563.243	4.95
563.584	4.95
563.925	4.94
564.266	4.94
564.607	4.94
564.948	4.93
565.289	4.92
565.63	4.95
565.971	4.94
566.312	4.95
566.653	4.97
566.993	4.99
567.334	5
567.675	5.01
568.015	5.04
568.356	5.06
568.696	5.06
569.037	5.11
569.377	5.16
569.718	5.15
570.058	5.2
570.398	5.19
570.739	5.22
571.079	5.23
571.419	5.23
571.759	5.24
572.099	5.26
572.439	5.26
572.779	5.24
573.119	5.27
573.459	5.29
573.799	5.29
574.139	5.29
574.479	5.27
574.819	5.28
575.158	5.25
575.498	5.22
575.838	5.21
576.177	5.15
576.517	5.13
576.856	5.13
577.196	5.09
577.535	5.09
577.875	5.08
578.214	5.08
578.553	5.07
578.893	5.06
579.232	5.05
579.571	5.07
579.91	5.08
580.25	5.09
580.589	5.05
580.928	5.02
581.267	5.04
581.606	5.05
581.945	5.01
582.283	5
582.622	5.03
582.961	5.11
583.3	5.16
583.639	5.18
583.977	5.23
584.316	5.24
584.654	5.21
584.993	5.21
585.332	5.2
585.67	5.26
586.008	5.27
586.347	5.28
586.685	5.26
587.024	5.25
587.362	5.25
587.7	5.29
588.038	5.27
588.376	5.25
588.715	5.25
589.053	5.32
589.391	5.37
589.729	5.36
590.067	5.34
590.404	5.34
590.742	5.35
591.08	5.31
591.418	5.34
591.756	5.38
592.093	5.36
592.431	5.37
592.769	5.35
593.106	5.34
593.444	5.33
593.781	5.35
594.119	5.35
594.456	5.31
594.793	5.3
595.131	5.31
595.468	5.32
595.805	5.31
596.143	5.24
596.48	5.2
596.817	5.18
597.154	5.2
597.491	5.16
597.828	5.15
598.165	5.16
598.502	5.15
598.839	5.16
599.176	5.16
599.512	5.16
599.849	5.17
600.186	5.22
600.523	5.24
600.859	5.24
601.196	5.26
601.532	5.27
601.869	5.24
602.205	5.26
602.542	5.24
602.878	5.25
603.215	5.31
603.551	5.34
603.887	5.36
604.223	5.31
604.56	5.32
604.896	5.3
605.232	5.32
605.568	5.32
605.904	5.32
606.24	5.33
606.576	5.33
606.912	5.31
607.248	5.27
607.583	5.27
607.919	5.25
608.255	5.25
608.591	5.27
608.926	5.31
609.262	5.32
609.597	5.35
609.933	5.41
610.268	5.35
610.604	5.36
610.939	5.35
611.275	5.34
611.61	5.35
611.945	5.37
612.281	5.36
612.616	5.39
612.951	5.44
613.286	5.47
613.621	5.48
613.956	5.5
614.291	5.51
614.626	5.51
614.961	5.48
615.296	5.45
615.631	5.44
615.966	5.41
616.3	5.45
616.635	5.48
616.97	5.42
617.304	5.46
617.639	5.44
617.973	5.45
618.308	5.47
618.642	5.47
618.977	5.44
619.311	5.45
619.646	5.44
619.98	5.39
620.314	5.38
620.648	5.41
620.983	5.44
621.317	5.44
621.651	5.42
621.985	5.47
622.319	5.5
622.653	5.54
622.987	5.58
623.321	5.54
623.655	5.5
623.988	5.56
624.322	5.55
624.656	5.58
624.99	5.6
625.323	5.63
625.657	5.63
625.99	5.69
626.324	5.69
626.657	5.72
626.991	5.73
627.324	5.75
627.658	5.78
627.991	5.75
628.324	5.73
628.657	5.76
628.991	5.77
629.324	5.75
629.657	5.76
629.99	5.78
630.323	5.79
630.656	5.83
630.989	5.83
631.322	5.84
631.655	5.81
631.987	5.81
632.32	5.85
632.653	5.87
632.986	5.84
633.318	5.85
633.651	5.82
633.984	5.83
634.316	5.79
634.649	5.73
634.981	5.72
635.313	5.75
635.646	5.76
635.978	5.74
636.31	5.76
636.643	5.72
636.975	5.7
637.307	5.67
637.639	5.64
637.971	5.61
638.303	5.6
638.635	5.55
638.967	5.57
639.299	5.51
639.631	5.49
639.963	5.44
640.295	5.46
640.626	5.48
640.958	5.46
641.29	5.45
641.621	5.4
641.953	5.41
642.285	5.4
642.616	5.46
642.948	5.49
643.279	5.49
643.61	5.49
643.942	5.5
644.273	5.48
644.604	5.47
644.936	5.43
645.267	5.47
645.598	5.51
645.929	5.5
646.26	5.58
646.591	5.64
646.922	5.72
647.253	5.72
647.584	5.69
647.915	5.72
648.245	5.76
648.576	5.86
648.907	5.86
649.238	5.83
649.568	5.8
649.899	5.77
650.229	5.76
650.56	5.77
650.89	5.83
651.221	5.94
651.551	5.89
651.882	5.96
652.212	5.98
652.542	5.98
652.872	5.93
653.203	5.82
653.533	5.76
653.863	5.76
654.193	5.72
654.523	5.76
654.853	5.76
655.183	5.82
655.513	5.8
655.843	5.84
656.172	5.91
656.502	5.89
656.832	5.89
657.162	5.93
657.491	5.91
657.821	5.85
658.15	5.75
658.48	5.77
658.809	5.73
659.139	5.68
659.468	5.66
659.798	5.71
660.127	5.73
660.456	5.76
660.785	5.78
661.115	5.78
661.444	5.75
661.773	5.76
662.102	5.7
662.431	5.73
662.76	5.67
663.089	5.66
663.418	5.68
663.747	5.71
664.076	5.73
664.404	5.71
664.733	5.82
665.062	5.88
665.39	5.93
665.719	5.99
666.048	6.08
666.376	6.12
666.705	6.08
667.033	6.14
667.362	6.19
667.69	6.16
668.018	6.2
668.347	6.21
668.675	6.22
669.003	6.26
669.331	6.23
669.659	6.28
669.987	6.27
670.315	6.25
670.643	6.31
670.971	6.36
671.299	6.44
671.627	6.31
671.955	6.27
672.283	6.3
672.61	6.21
672.938	6.13
673.266	6.13
673.593	6.23
673.921	6.19
674.249	6.17
674.576	6.19
674.904	6.13
675.231	6.14
675.558	6.1
675.886	6.08
676.213	6.05
676.54	6.06
676.867	6.11
677.195	6.1
677.522	6.13
677.849	6.02
678.176	6.05
678.503	6.11
678.83	6.2
679.157	6.18
679.484	6.24
679.81	6.25
680.137	6.2
680.464	6.18
680.791	6.2
681.117	6.12
681.444	6.04
681.771	6.08
682.097	6.03
682.424	5.98
682.75	6
683.077	6.01
683.403	5.94
683.729	5.97
684.056	6
684.382	5.95
684.708	5.88
685.034	5.78
685.36	5.72
685.686	5.67
686.012	5.59
686.339	5.57
686.664	5.59
686.99	5.73
687.316	5.76
687.642	5.73
687.968	5.83
688.294	5.97
688.619	5.96
688.945	6
689.271	6.03
689.596	5.85
689.922	5.92
690.247	5.96
690.573	5.85
690.898	5.8
691.224	5.72
691.549	5.79
691.874	5.79
692.2	5.81
692.525	5.88
692.85	5.91
693.175	5.88
693.5	5.84
693.825	5.76
694.15	5.69
694.475	5.71
694.8	5.78
695.125	5.71
695.45	5.78
695.775	5.79
696.099	5.82
696.424	6.03
696.749	5.96
697.073	6.06
697.398	6.19
697.723	6.27
698.047	6.26
698.372	6.25
698.696	6.28
699.02	6.4
699.345	6.34
699.669	6.45
699.993	6.4
700.318	6.47
700.642	6.56
700.966	6.57
701.29	6.6
701.614	6.57
701.938	6.55
702.262	6.59
702.586	6.64
702.91	6.63
703.234	6.6
703.557	6.68
703.881	6.61
704.205	6.5
704.529	6.4
704.852	6.43
705.176	6.48
705.499	6.54
705.823	6.39
706.146	6.35
706.47	6.34
706.793	6.49
707.117	6.51
707.44	6.44
707.763	6.38
708.086	6.39
708.409	6.37
708.733	6.51
709.056	6.45
709.379	6.56
709.702	6.55
710.025	6.5
710.348	6.54
710.671	6.49
710.993	6.57
711.316	6.73
711.639	6.76
711.962	6.78
712.284	6.8
712.607	6.84
712.93	7
713.252	6.98
713.575	7
713.897	6.94
714.22	6.9
714.542	7.03
714.864	6.92
715.187	6.84
715.509	6.79
715.831	6.79
716.153	6.77
716.475	6.8
716.798	6.97
717.12	6.94
717.442	6.91
717.764	6.74
718.085	6.64
718.407	6.6
718.729	6.65
719.051	6.88
719.373	6.86
719.695	6.77
720.016	6.8
720.338	6.77
720.659	6.97
720.981	6.99
721.302	7.13
721.624	7.27
721.945	7.29
722.267	7.38
722.588	7.27
722.909	7.23
723.231	7.26
723.552	7.1
723.873	7.13
724.194	7.24
724.515	7.48
724.836	7.43
725.157	7.54
725.478	7.38
725.799	7.21
726.12	7.21
726.441	7
726.762	7.02
727.083	7.03
727.403	6.92
727.724	7.07
728.045	7.04
728.365	7.04
728.686	7.16
729.006	7.17
729.327	7.21
729.647	7.18
729.967	7.24
730.288	7.32
730.608	7.33
730.928	7.3
731.249	7.17
731.569	7.24
731.889	7.35
732.209	7.39
732.529	7.3
732.849	7.35
733.169	7.47
733.489	7.49
733.809	7.53
734.129	7.41
734.448	7.48
734.768	7.22
735.088	7.32
735.408	7.35
735.727	7.31
736.047	7.57
736.366	7.47
736.686	7.37
737.005	7.21
737.325	7.14
737.644	7.19
737.963	7.43
738.283	7.32
738.602	7.1
738.921	7.22
739.24	7.21
739.56	7.11
739.879	7.33
740.198	7.39
740.517	7.4
740.836	7.6
741.155	7.49
741.473	7.55
741.792	7.58
742.111	7.47
742.43	7.36
742.748	7.02
743.067	7.14
743.386	7.31
743.704	7.43
744.023	7.69
744.341	7.76
744.66	7.85
744.978	7.8
745.297	7.95
745.615	7.93
745.933	8.03
746.252	8.22
746.57	7.9
746.888	7.84
747.206	7.9
747.524	7.83
747.842	7.86
748.16	7.93
748.478	7.88
748.796	7.97
749.114	8.25
749.432	8.54
749.749	8.63
750.067	8.36
750.385	8.31
750.703	8.2
751.02	8.11
751.338	7.93
751.655	8.19
751.973	8.17
752.29	8.26
752.608	8.22
752.925	8.35
753.242	8.72
753.56	8.66
753.877	8.66
754.194	8.46
754.511	8.48
754.828	8.29
755.145	8.16
755.462	8.12
755.779	8.15
756.096	8.07
756.413	8.12
756.73	8.47
757.047	8.34
757.364	8.12
757.68	8.24
757.997	8.26
758.314	8.28
758.63	8.34
758.947	8.28
759.264	8.17
759.58	8.03
759.896	7.77
760.213	7.51
760.529	7.56
760.846	7.88
761.162	7.81
761.478	7.96
761.794	8.12
762.11	8.31
762.426	8.18
762.743	8.11
763.059	7.94
763.375	7.82
763.69	8.05
764.006	8.19
764.322	8.2
764.638	8.24
764.954	8.4
765.27	8.37
765.585	8.46
765.901	8.54
766.216	8.57
766.532	8.54
766.848	8.75
767.163	8.72
767.478	8.46
767.794	8.56
768.109	8.48
768.424	8.5
768.74	8.46
769.055	8.32
769.37	8.59
769.685	8.6
770	8.8
770.315	8.56
770.63	8.42
770.945	8.34
771.26	8.22
771.575	8.09
771.89	8.14
772.205	7.97
772.52	8.13
772.834	8.06
773.149	8.36
773.464	8.24
773.778	8.58
774.093	8.82
774.407	8.79
774.722	8.78
775.036	8.68
775.351	8.39
775.665	8.42
775.979	8.14
776.293	8.25
776.608	7.92
776.922	7.97
777.236	8.01
777.55	7.87
777.864	7.67
778.178	7.56
778.492	7.41
778.806	7.16
779.12	7.21
779.434	6.93
779.747	6.96
780.061	7.28
780.375	6.93
780.689	6.82
781.002	6.75
781.316	6.69
781.629	6.99
781.943	7.02
782.256	7.39
782.57	7.37
782.883	7.44
783.196	7.43
783.51	7.54
783.823	7.64
784.136	7.81
784.449	8.02
784.762	7.96
785.075	8.31
785.388	8.68
785.701	8.43
786.014	8.38
786.327	7.87
786.64	7.96
786.953	8.01
787.266	7.78
787.578	8.11
787.891	8.63
788.204	8.03
788.516	8.44
788.829	8.3
789.141	8.7
789.454	8.75
789.766	8.81
790.079	8.72
790.391	8.62
790.703	8.84
791.016	8.77
791.328	8.97
791.64	8.66
791.952	8.42
792.264	8.47
792.576	8.68
792.888	9.09
793.2	9.2
793.512	9.04
793.824	9.38
794.136	9.15
794.448	8.82
794.76	8.78
795.071	8.63
795.383	8.21
795.695	7.73
796.006	7.75
796.318	8
796.629	8.55
796.941	8.52
797.252	8.32
797.564	8.64
797.875	8.58
798.186	8.36
798.497	8.61
798.809	8.84
799.12	9
799.431	9.09
799.742	9.18
800.053	9.67
800.364	9.81
800.675	9.56
800.986	9.66
801.297	9.93
801.608	10
801.918	10.47
802.229	10.93
802.54	10.93
802.851	11.02
803.161	10.79
803.472	11
803.782	11.08
804.093	11.02
804.403	10.93
804.714	11.34
805.024	11.09
805.334	10.71
805.645	10.73
805.955	10.81
806.265	10.52
806.575	10.21
806.885	10.42
807.195	10.64
807.505	10.97
807.815	11.26
808.125	10.72
808.435	11.11
808.745	11
809.055	11.36
809.365	11.13
809.674	10.61
809.984	10.67
810.294	10.71
810.603	11.16
810.913	11.35
811.222	11.95
811.532	12.42
811.841	13.01
812.151	13.46
812.46	12.46
812.769	11.8
813.079	12.11
813.388	11.73
813.697	11.73
814.006	11.62
814.315	11.24
814.624	11.65
814.933	11.04
815.242	11.17
815.551	11.13
815.86	11.23
816.169	11.87
816.478	11.52
816.786	11.4
817.095	10.79
817.404	11.07
817.712	10.58
818.021	10.45
818.33	10.15
818.638	9.65
818.947	10.52
819.255	11.01
819.563	11.02
819.872	10.99
820.18	11.24
820.488	11.21
820.796	11.23
821.105	11.16
821.413	10.96
821.721	10.88
822.029	10.89
822.337	10.94
822.645	10.96
822.953	10.97
823.26	11.12
823.568	11.02
823.876	10.95
824.184	10.95
824.491	10.93
824.799	10.97
825.107	11.16
825.414	11.15
825.722	11.09
826.029	11.13
826.337	11.24
826.644	11.03
826.951	10.94
827.259	10.9
827.566	11
827.873	11.25
828.18	11.29
828.488	11.34
828.795	11.34
829.102	11.32
829.409	11.6
829.716	11.3
830.023	11.68
830.329	11.83
830.636	12
830.943	12.02
831.25	12.03
831.557	11.64
831.863	11.77
832.17	11.77
832.476	11.37
832.783	11.61
833.089	11.7
833.396	12.13
833.702	12.27
834.009	12.15
834.315	12.13
834.621	11.97
834.928	11.8
835.234	11.78
835.54	11.33
835.846	11.08
836.152	11.72
836.458	11.98
836.764	11.62
837.07	10.86
837.376	10.83
837.682	10.89
837.988	10.91
838.293	10.79
838.599	10.83
838.905	11.24
839.211	10.57
839.516	10.87
839.822	11.09
840.127	11.04
840.433	11.47
840.738	11.76
841.044	11.43
841.349	11.28
841.654	11.81
841.959	12.06
842.265	11.26
842.57	11.3
842.875	10.66
843.18	10.84
843.485	11.54
843.79	11.32
844.095	10.48
844.4	11.51
844.705	11.15
845.01	11.85
845.315	11.2
845.619	10.62
845.924	10.2
846.229	9.43
846.533	8.96
846.838	8.08
847.142	6.34
847.447	6.12
847.751	5.38
848.056	3.56
848.36	5.79
848.664	7.21
848.969	5.09
849.273	3.02
849.577	1.71
849.881	1.8
850.185	2.87
850.489	4.37
850.794	2.14
851.097	1.91
851.401	1.69
851.705	1.23
852.009	3.61
852.313	4.9
852.617	4.23
852.92	6.9
853.224	6.12
853.528	7.18
853.831	7.99
854.135	9.42
854.438	8.22
854.742	5.83
855.045	4.46
855.349	6.12
855.652	7.5
855.955	8.29
856.259	10.31
856.562	10.26
856.865	9.3
857.168	11.35
857.471	11.97
857.774	11.9
858.077	12.61
858.38	13.11
858.683	12.26
858.986	13.67
859.289	12.33
859.592	14.44
859.894	15.23
860.197	14.97
860.5	14.29
860.802	15.93
861.105	16.27
861.407	19.38
861.71	17.81
862.012	17.96
862.315	20.07
862.617	16.17
862.919	16.28
863.222	18.53
863.524	17.76
863.826	20.32
864.128	20.36
864.43	18.18
864.732	17.35
865.034	17.72
865.336	16.07
865.638	15.33
865.94	14.46
866.242	13.41
866.544	13.19
866.846	13.7
867.147	14.98
867.449	14.04
867.751	13.32
868.052	13.52
868.354	13.65
868.655	13.53
868.957	16.4
869.258	17.43
869.56	16.58
869.861	15.24
870.162	14.16
870.463	12.6
870.765	13.59
871.066	13.2
871.367	12.52
871.668	13.09
871.969	15.4
872.27	12.65
872.571	12.39
872.872	14.73
873.173	13.19
873.473	12.7
873.774	13.78
874.075	12.43
874.376	13.13
874.676	14.15
874.977	12.79
875.277	12.36
875.578	11.08
875.878	10.24
876.179	11.98
876.479	10.54
876.78	10.78
877.08	11.95
877.38	11.4
877.68	11.14
877.981	11.02
878.281	7.7
878.581	12.29
