Data from BU26847_Reflection_00002.txt Node
Date: Mon Nov 18 16:40:45 EST 2019
User: vgr7
Spectrometer: USB2G7710
Scans to average: 3
Trigger mode: 4
Integration Time (sec): 2.000000E-2
Electric dark correction enabled: true
Boxcar width: 10
XAxis mode: Wavelengths
Number of Pixels in Spectrum: 2048
>>>>>Begin Spectral Data<<<<<
177.721	39.75
178.105	71.75
178.488	-1272.55
178.871	-188.29
179.254	115.5
179.636	53.2
180.019	-54.35
180.402	118.42
180.785	360.16
181.168	152.08
181.55	342.42
181.933	80.61
182.316	91.11
182.698	102.06
183.081	60.12
183.463	150.55
183.846	119.67
184.228	165.63
184.611	693.94
184.993	322.22
185.376	33.81
185.758	-7455.56
186.14	720.16
186.522	1050.35
186.904	-500.73
187.287	-447.26
187.669	-40.11
188.051	-103.22
188.433	-56.97
188.815	-15.12
189.197	-30.83
189.579	-56.93
189.961	-81.4
190.342	-83.36
190.724	-39.6
191.106	-25.72
191.488	-32.73
191.869	-40.47
192.251	-96.74
192.633	-107.1
193.014	-142.04
193.396	-117.97
193.777	-119.4
194.159	-132.29
194.54	-122.49
194.922	-111.53
195.303	-164.69
195.684	-192.81
196.065	-128.63
196.447	-155.17
196.828	-195.47
197.209	-161.95
197.59	-191.96
197.971	-269.4
198.352	-116.45
198.733	-157.98
199.114	-219.27
199.495	-143.23
199.876	-100.13
200.257	-49.5
200.638	-44.04
201.018	-15.4
201.399	-33.51
201.78	-14.02
202.16	-16.35
202.541	-27.43
202.922	-525.85
203.302	-1371.26
203.683	193.42
204.063	190.43
204.444	180.66
204.824	285.59
205.204	431.85
205.585	409.82
205.965	372.11
206.345	297.09
206.725	233.33
207.106	298.28
207.486	237.77
207.866	264.5
208.246	423.69
208.626	828.02
209.006	427.68
209.386	335.9
209.766	523.57
210.145	475.23
210.525	592.49
210.905	-490.23
211.285	-325.23
211.664	-131.51
212.044	-65.46
212.424	-82.49
212.803	-68.84
213.183	-38.83
213.562	-6.91
213.942	35.61
214.321	66.91
214.701	46.25
215.08	71.01
215.459	43.64
215.838	43.54
216.218	40.4
216.597	68.74
216.976	37.89
217.355	41.95
217.734	46.47
218.113	76.75
218.492	82.97
218.871	91.15
219.25	79.89
219.629	47.85
220.008	38.47
220.387	39.34
220.766	39.11
221.144	45.52
221.523	34.71
221.902	-5.2
222.28	-9.45
222.659	-0.54
223.037	13.87
223.416	6.85
223.794	1.38
224.173	5.77
224.551	12.19
224.929	12.83
225.308	2.6
225.686	0.67
226.064	-3.83
226.442	-8.22
226.821	-6.47
227.199	-0.94
227.577	1.05
227.955	-2.3
228.333	-1.23
228.711	-1.06
229.089	-0.82
229.467	-2.52
229.845	-0.54
230.222	-0.08
230.6	-1.53
230.978	-1.16
231.356	0.62
231.733	-0.04
232.111	-0.82
232.488	-3.43
232.866	-2.39
233.243	-0.36
233.621	-2.42
233.998	-2.38
234.376	-2.33
234.753	-1.99
235.13	-2.46
235.508	-1.15
235.885	-0.12
236.262	0.15
236.639	1.21
237.016	0.98
237.393	2.08
237.77	1.6
238.147	2
238.524	3.24
238.901	3.36
239.278	3.32
239.655	4.42
240.032	4.09
240.409	4.74
240.785	4.76
241.162	4.62
241.539	5.04
241.915	5.02
242.292	4.48
242.668	4.17
243.045	3.93
243.421	3.92
243.798	3.73
244.174	3.68
244.551	3.56
244.927	3.5
245.303	3.68
245.679	3.76
246.056	4
246.432	3.93
246.808	3.78
247.184	3.76
247.56	3.6
247.936	3.73
248.312	3.39
248.688	3.39
249.064	3.4
249.44	3.51
249.815	3.33
250.191	3.4
250.567	3.43
250.943	3.44
251.318	3.33
251.694	3.6
252.069	3.69
252.445	3.73
252.82	3.82
253.196	3.74
253.571	3.92
253.947	3.34
254.322	3.45
254.697	3.5
255.073	3.21
255.448	2.89
255.823	2.94
256.198	3.09
256.573	3.18
256.948	3.27
257.323	3.33
257.698	3.47
258.073	3.56
258.448	3.41
258.823	3.38
259.198	3.21
259.573	3.23
259.948	3.05
260.322	3.21
260.697	3.12
261.072	3.1
261.446	3
261.821	3.07
262.195	3.05
262.57	2.97
262.944	3.01
263.319	3.13
263.693	3.02
264.067	3.08
264.442	3.01
264.816	3.01
265.19	2.96
265.564	2.99
265.938	2.85
266.313	3.02
266.687	3.04
267.061	3.44
267.435	3.49
267.809	3.52
268.183	3.53
268.556	3.69
268.93	3.8
269.304	3.89
269.678	3.97
270.051	3.95
270.425	4.04
270.799	4.13
271.172	4
271.546	4.03
271.919	3.86
272.293	4.03
272.666	4.08
273.04	4.08
273.413	4.06
273.787	4.08
274.16	3.92
274.533	3.96
274.906	3.91
275.279	3.72
275.653	3.8
276.026	3.67
276.399	3.67
276.772	3.6
277.145	3.46
277.518	3.39
277.891	3.36
278.263	3.33
278.636	3.42
279.009	3.59
279.382	3.93
279.755	4.07
280.127	3.96
280.5	3.98
280.872	4.07
281.245	3.94
281.617	4.11
281.99	4.37
282.362	4.38
282.735	4.15
283.107	4.29
283.479	4.3
283.852	4.29
284.224	4.26
284.596	4.3
284.968	4.3
285.34	4.45
285.713	4.35
286.085	4.38
286.457	4.32
286.829	4.39
287.201	4.16
287.572	4.04
287.944	4.05
288.316	4
288.688	3.85
289.06	4.02
289.431	3.98
289.803	4.02
290.175	4.09
290.546	4.3
290.918	4.28
291.289	4.4
291.661	4.43
292.032	4.49
292.403	4.56
292.775	4.73
293.146	4.62
293.517	4.77
293.889	4.77
294.26	4.86
294.631	4.9
295.002	4.86
295.373	4.95
295.744	4.95
296.115	4.91
296.486	4.91
296.857	4.77
297.228	4.83
297.599	4.64
297.97	4.59
298.34	4.59
298.711	4.61
299.082	4.46
299.452	4.46
299.823	4.5
300.194	4.47
300.564	4.39
300.935	4.45
301.305	4.57
301.676	4.56
302.046	4.49
302.416	4.44
302.787	4.63
303.157	4.61
303.527	4.45
303.897	4.38
304.267	4.46
304.637	4.66
305.008	4.52
305.378	4.74
305.748	4.79
306.117	4.79
306.487	4.73
306.857	4.95
307.227	4.91
307.597	4.72
307.967	4.61
308.336	4.6
308.706	4.58
309.076	4.45
309.445	4.46
309.815	4.42
310.184	4.45
310.554	4.31
310.923	4.36
311.293	4.54
311.662	4.62
312.031	4.68
312.401	4.62
312.77	4.72
313.139	4.62
313.508	4.58
313.877	4.54
314.246	4.52
314.616	4.49
314.985	4.56
315.353	4.62
315.722	4.71
316.091	4.68
316.46	4.6
316.829	4.56
317.198	4.61
317.567	4.7
317.935	4.5
318.304	4.66
318.672	4.57
319.041	4.5
319.41	4.56
319.778	4.55
320.147	4.54
320.515	4.47
320.883	4.48
321.252	4.52
321.62	4.56
321.988	4.75
322.357	4.6
322.725	4.53
323.093	4.54
323.461	4.66
323.829	4.79
324.197	4.91
324.565	4.94
324.933	4.85
325.301	4.73
325.669	4.87
326.037	4.84
326.405	4.98
326.772	4.92
327.14	4.98
327.508	5
327.875	4.9
328.243	4.9
328.61	5.07
328.978	5.07
329.346	5.16
329.713	5.01
330.08	5.11
330.448	5.12
330.815	5
331.182	4.9
331.55	4.8
331.917	4.75
332.284	4.74
332.651	4.78
333.018	4.84
333.385	4.84
333.752	4.82
334.119	4.81
334.486	5
334.853	4.97
335.22	4.93
335.587	5
335.954	5.12
336.32	4.8
336.687	4.82
337.054	4.66
337.42	4.72
337.787	4.71
338.153	4.73
338.52	4.96
338.886	4.92
339.253	4.92
339.619	4.96
339.986	4.95
340.352	4.87
340.718	4.88
341.084	4.82
341.451	4.96
341.817	4.88
342.183	4.73
342.549	4.69
342.915	4.68
343.281	4.66
343.647	4.67
344.013	4.79
344.379	4.68
344.745	4.76
345.11	4.75
345.476	4.77
345.842	4.78
346.208	4.71
346.573	4.74
346.939	4.76
347.304	4.7
347.67	4.69
348.035	4.76
348.401	4.75
348.766	4.76
349.132	4.7
349.497	4.77
349.862	4.77
350.228	4.72
350.593	4.6
350.958	4.58
351.323	4.56
351.688	4.56
352.053	4.65
352.418	4.67
352.783	4.63
353.148	4.64
353.513	4.58
353.878	4.6
354.243	4.69
354.608	4.69
354.972	4.73
355.337	4.81
355.702	4.79
356.066	4.9
356.431	4.83
356.795	4.85
357.16	4.79
357.524	4.77
357.889	4.79
358.253	4.93
358.618	4.93
358.982	4.89
359.346	4.86
359.71	4.81
360.075	4.78
360.439	4.82
360.803	4.81
361.167	4.79
361.531	4.79
361.895	4.75
362.259	4.75
362.623	4.77
362.987	4.7
363.351	4.74
363.714	4.74
364.078	4.76
364.442	4.68
364.806	4.68
365.169	4.76
365.533	4.75
365.896	4.68
366.26	4.74
366.623	4.71
366.987	4.73
367.35	4.78
367.714	4.8
368.077	4.75
368.44	4.74
368.803	4.81
369.167	4.79
369.53	4.76
369.893	4.81
370.256	4.78
370.619	4.84
370.982	4.71
371.345	4.63
371.708	4.71
372.071	4.77
372.434	4.79
372.797	4.83
373.159	4.79
373.522	4.79
373.885	4.74
374.247	4.78
374.61	4.8
374.973	4.76
375.335	4.72
375.698	4.75
376.06	4.78
376.423	4.71
376.785	4.79
377.147	4.83
377.51	4.82
377.872	4.85
378.234	4.87
378.596	5.02
378.958	5.09
379.321	5.05
379.683	5.06
380.045	5
380.407	4.95
380.769	4.99
381.13	5.03
381.492	5.12
381.854	5.09
382.216	5.12
382.578	5.16
382.939	5.19
383.301	5.18
383.663	5.14
384.024	5.12
384.386	5.1
384.747	5.06
385.109	5.04
385.47	5
385.832	5
386.193	4.96
386.554	4.91
386.916	4.88
387.277	4.87
387.638	4.91
387.999	4.91
388.36	4.94
388.721	4.92
389.082	4.88
389.443	4.88
389.804	4.82
390.165	4.83
390.526	4.8
390.887	4.77
391.248	4.78
391.609	4.81
391.969	4.8
392.33	4.84
392.691	4.9
393.051	4.91
393.412	4.88
393.772	4.88
394.133	4.88
394.493	4.93
394.854	4.93
395.214	4.95
395.574	4.94
395.935	4.91
396.295	4.92
396.655	4.89
397.015	4.93
397.376	4.97
397.736	4.96
398.096	5.02
398.456	5.09
398.816	5.1
399.176	5.09
399.535	5.06
399.895	5.02
400.255	4.98
400.615	5
400.975	5.02
401.334	5.01
401.694	4.99
402.054	4.98
402.413	4.97
402.773	4.95
403.132	4.96
403.492	4.96
403.851	4.95
404.211	4.97
404.57	4.92
404.929	4.92
405.288	4.93
405.648	4.9
406.007	4.89
406.366	4.87
406.725	4.9
407.084	4.93
407.443	4.97
407.802	5.01
408.161	4.97
408.52	4.96
408.879	4.97
409.238	5.01
409.596	5
409.955	5
410.314	5.03
410.673	5
411.031	5.02
411.39	5.02
411.748	5.02
412.107	5.05
412.465	5.08
412.824	5.05
413.182	5.03
413.54	5.02
413.899	5.05
414.257	5.05
414.615	5.02
414.974	4.99
415.332	4.96
415.69	4.98
416.048	4.97
416.406	4.98
416.764	4.96
417.122	4.98
417.48	4.96
417.838	4.96
418.195	4.98
418.553	4.98
418.911	4.99
419.269	4.97
419.626	4.98
419.984	4.96
420.342	4.97
420.699	4.97
421.057	4.99
421.414	4.99
421.772	4.98
422.129	5
422.486	5.01
422.844	5.01
423.201	5.01
423.558	5.02
423.915	5.02
424.273	5.03
424.63	5.03
424.987	5.04
425.344	5.04
425.701	5.06
426.058	5.04
426.415	5.04
426.772	5.04
427.128	5.05
427.485	5.07
427.842	5.06
428.199	5.09
428.555	5.06
428.912	5.06
429.269	5.08
429.625	5.07
429.982	5.04
430.338	5.05
430.695	5.07
431.051	5.04
431.407	5.04
431.764	5.03
432.12	5.03
432.476	5.03
432.832	5.02
433.189	5
433.545	5.01
433.901	5.01
434.257	5.01
434.613	5.01
434.969	5.01
435.325	4.99
435.681	4.98
436.036	4.97
436.392	4.96
436.748	4.95
437.104	4.94
437.459	4.97
437.815	4.97
438.171	4.96
438.526	4.98
438.882	4.99
439.237	5
439.593	5
439.948	5
440.304	5.03
440.659	5.03
441.014	5.04
441.369	5.04
441.725	5.05
442.08	5.06
442.435	5.08
442.79	5.1
443.145	5.11
443.5	5.12
443.855	5.12
444.21	5.13
444.565	5.16
444.92	5.16
445.275	5.15
445.629	5.15
445.984	5.16
446.339	5.15
446.693	5.13
447.048	5.13
447.403	5.12
447.757	5.12
448.112	5.12
448.466	5.13
448.82	5.14
449.175	5.15
449.529	5.12
449.883	5.11
450.238	5.1
450.592	5.1
450.946	5.1
451.3	5.11
451.654	5.1
452.008	5.09
452.362	5.08
452.716	5.1
453.07	5.11
453.424	5.12
453.778	5.11
454.132	5.14
454.486	5.15
454.839	5.16
455.193	5.14
455.547	5.12
455.9	5.11
456.254	5.1
456.607	5.09
456.961	5.11
457.314	5.11
457.668	5.13
458.021	5.11
458.375	5.13
458.728	5.15
459.081	5.16
459.434	5.15
459.787	5.15
460.141	5.14
460.494	5.14
460.847	5.14
461.2	5.13
461.553	5.12
461.906	5.12
462.259	5.12
462.611	5.12
462.964	5.14
463.317	5.14
463.67	5.15
464.022	5.15
464.375	5.14
464.728	5.13
465.08	5.12
465.433	5.13
465.785	5.12
466.138	5.11
466.49	5.09
466.843	5.11
467.195	5.15
467.547	5.13
467.899	5.13
468.252	5.11
468.604	5.14
468.956	5.16
469.308	5.16
469.66	5.14
470.012	5.18
470.364	5.19
470.716	5.2
471.068	5.2
471.42	5.2
471.772	5.22
472.123	5.27
472.475	5.26
472.827	5.26
473.178	5.27
473.53	5.27
473.882	5.26
474.233	5.28
474.585	5.27
474.936	5.29
475.288	5.3
475.639	5.34
475.99	5.31
476.342	5.32
476.693	5.32
477.044	5.34
477.395	5.32
477.746	5.3
478.097	5.28
478.448	5.28
478.8	5.28
479.15	5.25
479.501	5.22
479.852	5.24
480.203	5.28
480.554	5.29
480.905	5.28
481.255	5.29
481.606	5.29
481.957	5.3
482.307	5.3
482.658	5.3
483.009	5.3
483.359	5.31
483.709	5.33
484.06	5.34
484.41	5.35
484.761	5.37
485.111	5.38
485.461	5.39
485.811	5.39
486.162	5.39
486.512	5.41
486.862	5.43
487.212	5.43
487.562	5.43
487.912	5.42
488.262	5.43
488.612	5.43
488.961	5.43
489.311	5.43
489.661	5.43
490.011	5.44
490.36	5.43
490.71	5.43
491.06	5.4
491.409	5.39
491.759	5.39
492.108	5.37
492.458	5.37
492.807	5.37
493.157	5.37
493.506	5.38
493.855	5.37
494.204	5.38
494.554	5.38
494.903	5.36
495.252	5.36
495.601	5.35
495.95	5.36
496.299	5.38
496.648	5.38
496.997	5.39
497.346	5.38
497.695	5.38
498.043	5.38
498.392	5.41
498.741	5.43
499.09	5.4
499.438	5.42
499.787	5.42
500.135	5.43
500.484	5.43
500.832	5.43
501.181	5.44
501.529	5.43
501.878	5.43
502.226	5.45
502.574	5.44
502.923	5.46
503.271	5.46
503.619	5.44
503.967	5.43
504.315	5.42
504.663	5.45
505.011	5.48
505.359	5.46
505.707	5.46
506.055	5.46
506.403	5.47
506.751	5.48
507.098	5.47
507.446	5.51
507.794	5.52
508.141	5.56
508.489	5.56
508.837	5.56
509.184	5.58
509.531	5.6
509.879	5.63
510.226	5.65
510.574	5.67
510.921	5.7
511.268	5.69
511.616	5.7
511.963	5.69
512.31	5.69
512.657	5.72
513.004	5.74
513.351	5.74
513.698	5.77
514.045	5.77
514.392	5.77
514.739	5.74
515.086	5.74
515.432	5.73
515.779	5.73
516.126	5.75
516.473	5.76
516.819	5.75
517.166	5.75
517.512	5.74
517.859	5.73
518.205	5.73
518.552	5.75
518.898	5.78
519.245	5.77
519.591	5.79
519.937	5.77
520.283	5.76
520.629	5.77
520.976	5.78
521.322	5.79
521.668	5.79
522.014	5.81
522.36	5.83
522.706	5.84
523.052	5.87
523.398	5.85
523.743	5.85
524.089	5.86
524.435	5.85
524.781	5.88
525.126	5.9
525.472	5.89
525.817	5.9
526.163	5.9
526.509	5.91
526.854	5.92
527.199	5.94
527.545	5.96
527.89	5.97
528.235	5.97
528.581	5.98
528.926	5.99
529.271	6
529.616	6
529.961	6
530.306	6
530.651	6
530.996	5.99
531.341	6.01
531.686	6
532.031	5.99
532.376	5.98
532.721	6.01
533.065	6
533.41	6.02
533.755	6.01
534.099	6.02
534.444	6.01
534.788	5.98
535.133	5.96
535.477	5.98
535.822	5.97
536.166	5.95
536.51	5.95
536.855	5.95
537.199	5.94
537.543	5.94
537.887	5.94
538.231	5.95
538.576	5.95
538.92	5.99
539.264	5.99
539.608	6.02
539.951	6
540.295	6.01
540.639	6.01
540.983	6.01
541.327	6
541.671	5.99
542.014	6.01
542.358	6.01
542.701	5.99
543.045	6
543.389	6.02
543.732	6.02
544.075	6.03
544.419	6.04
544.762	6.05
545.105	6.06
545.449	6.08
545.792	6.08
546.135	6.07
546.478	6.08
546.821	6.08
547.165	6.09
547.508	6.1
547.851	6.1
548.194	6.1
548.536	6.1
548.879	6.14
549.222	6.18
549.565	6.19
549.908	6.2
550.25	6.2
550.593	6.2
550.936	6.21
551.278	6.19
551.621	6.23
551.963	6.24
552.306	6.23
552.648	6.24
552.991	6.25
553.333	6.26
553.675	6.23
554.017	6.25
554.36	6.25
554.702	6.25
555.044	6.26
555.386	6.26
555.728	6.25
556.07	6.26
556.412	6.22
556.754	6.26
557.096	6.26
557.438	6.27
557.78	6.29
558.121	6.28
558.463	6.29
558.805	6.28
559.147	6.27
559.488	6.29
559.83	6.29
560.171	6.28
560.513	6.31
560.854	6.29
561.196	6.25
561.537	6.25
561.878	6.23
562.22	6.22
562.561	6.21
562.902	6.25
563.243	6.21
563.584	6.22
563.925	6.2
564.266	6.18
564.607	6.18
564.948	6.16
565.289	6.15
565.63	6.17
565.971	6.15
566.312	6.15
566.653	6.14
566.993	6.13
567.334	6.14
567.675	6.13
568.015	6.15
568.356	6.18
568.696	6.2
569.037	6.21
569.377	6.21
569.718	6.22
570.058	6.2
570.398	6.24
570.739	6.24
571.079	6.25
571.419	6.27
571.759	6.29
572.099	6.28
572.439	6.29
572.779	6.28
573.119	6.28
573.459	6.28
573.799	6.3
574.139	6.3
574.479	6.29
574.819	6.27
575.158	6.27
575.498	6.26
575.838	6.24
576.177	6.24
576.517	6.26
576.856	6.29
577.196	6.29
577.535	6.32
577.875	6.33
578.214	6.31
578.553	6.35
578.893	6.33
579.232	6.34
579.571	6.34
579.91	6.36
580.25	6.39
580.589	6.38
580.928	6.37
581.267	6.42
581.606	6.43
581.945	6.48
582.283	6.47
582.622	6.46
582.961	6.46
583.3	6.46
583.639	6.46
583.977	6.48
584.316	6.48
584.654	6.46
584.993	6.44
585.332	6.48
585.67	6.42
586.008	6.42
586.347	6.38
586.685	6.41
587.024	6.42
587.362	6.42
587.7	6.42
588.038	6.46
588.376	6.43
588.715	6.43
589.053	6.43
589.391	6.45
589.729	6.49
590.067	6.5
590.404	6.51
590.742	6.52
591.08	6.5
591.418	6.54
591.756	6.52
592.093	6.55
592.431	6.53
592.769	6.56
593.106	6.6
593.444	6.65
593.781	6.64
594.119	6.65
594.456	6.65
594.793	6.66
595.131	6.63
595.468	6.62
595.805	6.58
596.143	6.6
596.48	6.64
596.817	6.63
597.154	6.64
597.491	6.62
597.828	6.63
598.165	6.64
598.502	6.58
598.839	6.6
599.176	6.56
599.512	6.56
599.849	6.57
600.186	6.54
600.523	6.53
600.859	6.55
601.196	6.57
601.532	6.56
601.869	6.57
602.205	6.59
602.542	6.6
602.878	6.64
603.215	6.65
603.551	6.64
603.887	6.68
604.223	6.67
604.56	6.71
604.896	6.72
605.232	6.73
605.568	6.77
605.904	6.76
606.24	6.79
606.576	6.78
606.912	6.78
607.248	6.82
607.583	6.83
607.919	6.81
608.255	6.8
608.591	6.81
608.926	6.8
609.262	6.83
609.597	6.79
609.933	6.8
610.268	6.79
610.604	6.75
610.939	6.71
611.275	6.7
611.61	6.73
611.945	6.73
612.281	6.68
612.616	6.67
612.951	6.67
613.286	6.71
613.621	6.74
613.956	6.71
614.291	6.72
614.626	6.72
614.961	6.72
615.296	6.7
615.631	6.72
615.966	6.76
616.3	6.75
616.635	6.79
616.97	6.83
617.304	6.83
617.639	6.91
617.973	6.91
618.308	6.9
618.642	6.85
618.977	6.82
619.311	6.91
619.646	6.97
619.98	7.01
620.314	7.01
620.648	7.04
620.983	7.09
621.317	7.06
621.651	7.1
621.985	7.15
622.319	7.15
622.653	7.12
622.987	7.13
623.321	7.11
623.655	7.14
623.988	7.08
624.322	7.13
624.656	7.1
624.99	7.14
625.323	7.15
625.657	7.2
625.99	7.2
626.324	7.14
626.657	7.12
626.991	7.08
627.324	7.05
627.658	7.02
627.991	7.01
628.324	7.03
628.657	6.97
628.991	6.93
629.324	6.98
629.657	6.99
629.99	6.95
630.323	6.97
630.656	6.98
630.989	7.01
631.322	6.98
631.655	6.98
631.987	6.95
632.32	7.01
632.653	6.92
632.986	6.97
633.318	7.02
633.651	6.99
633.984	7.03
634.316	7.02
634.649	7.03
634.981	7.02
635.313	7.05
635.646	7.13
635.978	7.13
636.31	7.09
636.643	7.11
636.975	7.17
637.307	7.17
637.639	7.13
637.971	7.14
638.303	7.15
638.635	7.11
638.967	7.13
639.299	7.17
639.631	7.17
639.963	7.15
640.295	7.17
640.626	7.16
640.958	7.09
641.29	7.16
641.621	7.18
641.953	7.2
642.285	7.2
642.616	7.13
642.948	7.16
643.279	7.16
643.61	7.14
643.942	7.1
644.273	7.08
644.604	7.14
644.936	7.08
645.267	7.09
645.598	7.18
645.929	7.17
646.26	7.09
646.591	7.14
646.922	7.11
647.253	7.11
647.584	7.14
647.915	7.15
648.245	7.08
648.576	7.03
648.907	7.08
649.238	7.01
649.568	7.08
649.899	6.98
650.229	6.98
650.56	7.04
650.89	7.05
651.221	7.11
651.551	7
651.882	7.01
652.212	7
652.542	6.97
652.872	6.91
653.203	6.87
653.533	6.9
653.863	6.95
654.193	6.95
654.523	6.94
654.853	7
655.183	7.01
655.513	7.08
655.843	6.96
656.172	7.04
656.502	6.96
656.832	7.01
657.162	7.14
657.491	7.13
657.821	7.13
658.15	7.11
658.48	7.21
658.809	7.24
659.139	7.2
659.468	7.22
659.798	7.25
660.127	7.3
660.456	7.3
660.785	7.32
661.115	7.3
661.444	7.4
661.773	7.37
662.102	7.37
662.431	7.38
662.76	7.41
663.089	7.41
663.418	7.48
663.747	7.53
664.076	7.37
664.404	7.36
664.733	7.37
665.062	7.39
665.39	7.4
665.719	7.38
666.048	7.51
666.376	7.42
666.705	7.45
667.033	7.43
667.362	7.52
667.69	7.5
668.018	7.52
668.347	7.47
668.675	7.48
669.003	7.55
669.331	7.56
669.659	7.68
669.987	7.61
670.315	7.63
670.643	7.56
670.971	7.64
671.299	7.7
671.627	7.73
671.955	7.73
672.283	7.73
672.61	7.77
672.938	7.76
673.266	7.86
673.593	7.9
673.921	7.95
674.249	7.86
674.576	7.81
674.904	7.82
675.231	7.78
675.558	7.8
675.886	7.83
676.213	7.87
676.54	7.85
676.867	7.96
677.195	7.89
677.522	7.95
677.849	7.93
678.176	7.92
678.503	7.93
678.83	7.96
679.157	7.87
679.484	7.88
679.81	7.88
680.137	7.85
680.464	7.83
680.791	7.84
681.117	7.91
681.444	7.99
681.771	7.96
682.097	8.02
682.424	8.04
682.75	7.98
683.077	8.01
683.403	8.02
683.729	7.97
684.056	8.1
684.382	8.05
684.708	8.04
685.034	8.01
685.36	8
685.686	7.97
686.012	7.98
686.339	8.02
686.664	8.02
686.99	8.12
687.316	8.08
687.642	8.11
687.968	8.1
688.294	8.12
688.619	8.24
688.945	8.15
689.271	8.12
689.596	8.07
689.922	8.1
690.247	8.06
690.573	8.05
690.898	7.97
691.224	8.09
691.549	8.14
691.874	8.21
692.2	8.16
692.525	8.09
692.85	8.28
693.175	8.21
693.5	8.19
693.825	8.16
694.15	8.19
694.475	8.21
694.8	8.26
695.125	8.12
695.45	8.01
695.775	8.1
696.099	8.12
696.424	8.14
696.749	8.13
697.073	8.15
697.398	8.17
697.723	8.22
698.047	8.13
698.372	8.13
698.696	8.1
699.02	8.19
699.345	8.31
699.669	8.29
699.993	8.26
700.318	8.29
700.642	8.28
700.966	8.3
701.29	8.16
701.614	8.06
701.938	8.18
702.262	8.24
702.586	8.21
702.91	8.15
703.234	8.22
703.557	8.3
703.881	8.31
704.205	8.39
704.529	8.36
704.852	8.5
705.176	8.56
705.499	8.57
705.823	8.46
706.146	8.39
706.47	8.29
706.793	8.34
707.117	8.3
707.44	8.19
707.763	8.22
708.086	8.37
708.409	8.42
708.733	8.32
709.056	8.37
709.379	8.53
709.702	8.62
710.025	8.55
710.348	8.41
710.671	8.27
710.993	8.22
711.316	8.25
711.639	8.21
711.962	8.22
712.284	8.15
712.607	8.27
712.93	8.39
713.252	8.37
713.575	8.44
713.897	8.59
714.22	8.68
714.542	8.68
714.864	8.61
715.187	8.74
715.509	8.82
715.831	8.77
716.153	8.74
716.475	8.77
716.798	8.92
717.12	9.01
717.442	9.12
717.764	9.14
718.085	9.14
718.407	9.09
718.729	9.07
719.051	9.2
719.373	9.04
719.695	8.99
720.016	9.16
720.338	9.16
720.659	9.05
720.981	9.02
721.302	9.19
721.624	9.21
721.945	9.19
722.267	9.23
722.588	9.09
722.909	9.04
723.231	8.91
723.552	8.85
723.873	8.78
724.194	8.67
724.515	8.74
724.836	8.78
725.157	8.89
725.478	8.91
725.799	8.81
726.12	8.99
726.441	9.03
726.762	9.09
727.083	9.29
727.403	9.43
727.724	9.59
728.045	9.55
728.365	9.53
728.686	9.35
729.006	9.2
729.327	9.17
729.647	9.26
729.967	9.46
730.288	9.55
730.608	9.59
730.928	9.67
731.249	9.57
731.569	9.7
731.889	9.7
732.209	9.63
732.529	9.49
732.849	9.49
733.169	9.39
733.489	9.21
733.809	9.05
734.129	8.83
734.448	8.79
734.768	8.75
735.088	8.83
735.408	8.99
735.727	9.19
736.047	9.38
736.366	9.39
736.686	9.27
737.005	9.05
737.325	9.06
737.644	9.1
737.963	9.2
738.283	8.96
738.602	9.06
738.921	9.16
739.24	9.53
739.56	9.44
739.879	9.57
740.198	9.64
740.517	9.6
740.836	9.5
741.155	9.48
741.473	9.54
741.792	9.41
742.111	9.42
742.43	9.38
742.748	9.19
743.067	9.02
743.386	8.96
743.704	8.99
744.023	8.94
744.341	8.85
744.66	8.93
744.978	8.98
745.297	9.08
745.615	9.05
745.933	8.8
746.252	9.05
746.57	8.84
746.888	8.85
747.206	8.86
747.524	9.07
747.842	8.91
748.16	8.86
748.478	9.17
748.796	9.28
749.114	9.56
749.432	9.53
749.749	9.63
750.067	9.56
750.385	9.43
750.703	9.38
751.02	9.37
751.338	9.4
751.655	9.31
751.973	9.24
752.29	9.58
752.608	9.65
752.925	9.49
753.242	9.59
753.56	9.5
753.877	9.44
754.194	9.33
754.511	9.73
754.828	9.55
755.145	9.4
755.462	9.28
755.779	9.24
756.096	9.6
756.413	9.65
756.73	9.96
757.047	10.34
757.364	10.45
757.68	10.49
757.997	10.24
758.314	10.37
758.63	10.24
758.947	9.87
759.264	9.81
759.58	9.89
759.896	9.9
760.213	10.08
760.529	10.35
760.846	10.64
761.162	10.46
761.478	10.71
761.794	10.77
762.11	10.65
762.426	10.52
762.743	10.47
763.059	10.38
763.375	10.36
763.69	10.28
764.006	10.43
764.322	10.8
764.638	11.02
764.954	11.09
765.27	11.24
765.585	11.17
765.901	11.43
766.216	11.47
766.532	11.62
766.848	11.6
767.163	11.45
767.478	11.24
767.794	11.1
768.109	11.01
768.424	10.79
768.74	10.95
769.055	10.91
769.37	10.9
769.685	10.88
770	10.86
770.315	11.03
770.63	11.02
770.945	10.6
771.26	10.59
771.575	10.37
771.89	10.44
772.205	10.67
772.52	10.38
772.834	10.02
773.149	9.97
773.464	10.21
773.778	10.42
774.093	10.41
774.407	10.81
774.722	10.86
775.036	11.08
775.351	10.91
775.665	10.88
775.979	10.96
776.293	11.21
776.608	11.7
776.922	11.6
777.236	11.67
777.55	11.53
777.864	11.49
778.178	11.72
778.492	11.5
778.806	11.49
779.12	11.68
779.434	12.12
779.747	11.89
780.061	11.77
780.375	12.05
780.689	12.49
781.002	12.57
781.316	12.36
781.629	12.29
781.943	12.59
782.256	12.62
782.57	12.71
782.883	12.53
783.196	12.2
783.51	12.04
783.823	11.85
784.136	12.16
784.449	12.1
784.762	12.53
785.075	12.39
785.388	12.42
785.701	12.71
786.014	12.42
786.327	12.33
786.64	12.29
786.953	12.05
787.266	11.53
787.578	11.13
787.891	11.29
788.204	11.3
788.516	11.48
788.829	11.48
789.141	11.77
789.454	11.88
789.766	11.84
790.079	11.83
790.391	11.72
790.703	11.91
791.016	11.51
791.328	11.22
791.64	11.75
791.952	11.81
792.264	11.06
792.576	11.2
792.888	11.39
793.2	11.6
793.512	11.79
793.824	12.43
794.136	13.1
794.448	13.34
794.76	13.63
795.071	13.28
795.383	13.04
795.695	12.66
796.006	12.61
796.318	12.2
796.629	12.31
796.941	12.88
797.252	13.11
797.564	13.77
797.875	13.61
798.186	13.25
798.497	13.3
798.809	13.34
799.12	13.75
799.431	13.59
799.742	13.62
800.053	13.18
800.364	12.79
800.675	12.45
800.986	12.13
801.297	11.94
801.608	11.52
801.918	11.48
802.229	11.36
802.54	11.27
802.851	11.58
803.161	11.63
803.472	11.94
803.782	11.74
804.093	11.43
804.403	11.46
804.714	11.39
805.024	11.31
805.334	11.91
805.645	11.38
805.955	11.47
806.265	11.11
806.575	11.22
806.885	11.56
807.195	11.11
807.505	11.59
807.815	11.71
808.125	12.24
808.435	12.67
808.745	13.5
809.055	14.3
809.365	14.18
809.674	14.71
809.984	13.79
810.294	13.01
810.603	13.34
810.913	13.65
811.222	14.11
811.532	14.11
811.841	14.24
812.151	14.83
812.46	14.78
812.769	14.73
813.079	14.91
813.388	14.53
813.697	15.1
814.006	14.11
814.315	14.21
814.624	13.87
814.933	14
815.242	13.41
815.551	13.02
815.86	13.95
816.169	13.11
816.478	13.17
816.786	13.83
817.095	13.82
817.404	13.65
817.712	12.87
818.021	12.82
818.33	12.26
818.638	12.23
818.947	13.16
819.255	13.43
819.563	13.38
819.872	13.23
820.18	13.57
820.488	14.19
820.796	14.15
821.105	14.21
821.413	14.19
821.721	14.27
822.029	14.18
822.337	13.97
822.645	14.07
822.953	13.93
823.26	14.07
823.568	13.87
823.876	13.84
824.184	13.89
824.491	13.94
824.799	14.06
825.107	13.99
825.414	13.93
825.722	13.98
826.029	14.07
826.337	14.32
826.644	14.22
826.951	14.02
827.259	14.04
827.566	14.07
827.873	13.94
828.18	13.82
828.488	13.81
828.795	13.93
829.102	14
829.409	14.19
829.716	14.03
830.023	14.25
830.329	14.3
830.636	14.62
830.943	14.42
831.25	14.1
831.557	14.47
831.863	14.19
832.17	13.89
832.476	14.13
832.783	13.95
833.089	14
833.396	14.27
833.702	14.63
834.009	14.95
834.315	15.41
834.621	15.72
834.928	15.85
835.234	15.5
835.54	15.43
835.846	15
836.152	14.9
836.458	14.99
836.764	15.14
837.07	15.01
837.376	15.32
837.682	15.97
837.988	15.33
838.293	15.4
838.599	16.35
838.905	16.18
839.211	16.25
839.516	15.75
839.822	16.07
840.127	15.04
840.433	14.86
840.738	14.78
841.044	14.65
841.349	14.47
841.654	15.66
841.959	15.6
842.265	16.9
842.57	17.23
842.875	17.11
843.18	16.76
843.485	16.87
843.79	17.47
844.095	16.94
844.4	18.32
844.705	17.32
845.01	15.97
845.315	15.13
845.619	14.86
845.924	15.54
846.229	16.14
846.533	17.11
846.838	16.74
847.142	16.32
847.447	15.13
847.751	15.3
848.056	13.33
848.36	15.23
848.664	14.94
848.969	15.07
849.273	14.05
849.577	14.8
849.881	14.63
850.185	12.69
850.489	14.12
850.794	12.32
851.097	14.06
851.401	13.46
851.705	13.39
852.009	14.22
852.313	14.58
852.617	13.29
852.92	17.17
853.224	17.44
853.528	19.04
853.831	18.91
854.135	19.72
854.438	19.24
854.742	17.84
855.045	18.24
855.349	19.02
855.652	20.47
855.955	20.17
856.259	19.99
856.562	20.12
856.865	20.02
857.168	21.06
857.471	20.62
857.774	23.52
858.077	24.36
858.38	23.32
858.683	22.09
858.986	21.93
859.289	16.86
859.592	16
859.894	15.95
860.197	15.74
860.5	15.13
860.802	17.5
861.105	17.7
861.407	16.02
861.71	15.99
862.012	16.26
862.315	14.98
862.617	13.97
862.919	15.12
863.222	14.86
863.524	15.26
863.826	18.68
864.128	18.08
864.43	17.52
864.732	18.63
865.034	18.45
865.336	16.74
865.638	18.33
865.94	19.65
866.242	18.27
866.544	18.2
866.846	17.62
867.147	16.43
867.449	14.7
867.751	18.43
868.052	17.26
868.354	17.14
868.655	19.84
868.957	20.64
869.258	20.77
869.56	21.6
869.861	21.16
870.162	17.83
870.463	17.1
870.765	17.14
871.066	17.24
871.367	19.72
871.668	19.98
871.969	18.44
872.27	17.04
872.571	16.64
872.872	18.45
873.173	19.69
873.473	18.42
873.774	21.17
874.075	18.17
874.376	13.63
874.676	14.25
874.977	13.02
875.277	13.5
875.578	12.97
875.878	11.66
876.179	11.54
876.479	11.79
876.78	11.1
877.08	11.9
877.38	10.63
877.68	7.57
877.981	8.63
878.281	9.79
878.581	10.72
