Data from BU26846_Reflection_00008.txt Node
Date: Mon Nov 18 16:33:34 EST 2019
User: vgr7
Spectrometer: USB2G7710
Scans to average: 3
Trigger mode: 4
Integration Time (sec): 2.000000E-2
Electric dark correction enabled: true
Boxcar width: 10
XAxis mode: Wavelengths
Number of Pixels in Spectrum: 2048
>>>>>Begin Spectral Data<<<<<
177.721	31.7
178.105	137.74
178.488	733.59
178.871	-13.06
179.254	7.53
179.636	-14.73
180.019	44.41
180.402	15.15
180.785	1.51
181.168	61.13
181.55	61.72
181.933	73.87
182.316	79.63
182.698	78.21
183.081	102.31
183.463	114.26
183.846	440.96
184.228	298.66
184.611	588.52
184.993	2178.65
185.376	-1745.36
185.758	2621.13
186.14	261.93
186.522	237.64
186.904	153.65
187.287	113.57
187.669	172.07
188.051	161.29
188.433	156.58
188.815	125.25
189.197	96.61
189.579	116.61
189.961	322
190.342	454.11
190.724	-378.96
191.106	1558.02
191.488	354
191.869	44.98
192.251	62.86
192.633	52.27
193.014	46.25
193.396	47.77
193.777	33.6
194.159	31.98
194.54	12.36
194.922	-0.94
195.303	15.88
195.684	-7.16
196.065	-78.49
196.447	-51.14
196.828	50.46
197.209	150.68
197.59	213.23
197.971	126.42
198.352	152.87
198.733	120.84
199.114	171.37
199.495	300.52
199.876	-1432.66
200.257	-695.72
200.638	-262.58
201.018	-288
201.399	-167.43
201.78	-93.87
202.16	-118.09
202.541	-101.03
202.922	-120.74
203.302	-91.39
203.683	-111.35
204.063	-173.15
204.444	-99.23
204.824	-93.34
205.204	-90.08
205.585	-99.02
205.965	-78.61
206.345	-56.72
206.725	-60.37
207.106	-67.44
207.486	-87.47
207.866	-105.05
208.246	-171.14
208.626	-159.49
209.006	-79.93
209.386	-100
209.766	-97.26
210.145	-92.73
210.525	-140.95
210.905	-90.64
211.285	-100
211.664	-58.17
212.044	-47
212.424	-100.94
212.803	-110.08
213.183	-143.66
213.562	-115.66
213.942	-226.56
214.321	-217.21
214.701	-185.36
215.08	-257.66
215.459	-171.59
215.838	-92.48
216.218	-52.92
216.597	-61.75
216.976	-122.34
217.355	-44.19
217.734	-54.7
218.113	-43.93
218.492	-0.79
218.871	775.68
219.25	63.58
219.629	69.01
220.008	-193.41
220.387	613.51
220.766	63.89
221.144	1395.08
221.523	-278.88
221.902	-136.77
222.28	-158.74
222.659	-11.46
223.037	-3.13
223.416	-17.99
223.794	6.96
224.173	-13.63
224.551	-3.08
224.929	3.45
225.308	-2.31
225.686	0.09
226.064	-0.69
226.442	-1.03
226.821	-1.47
227.199	-3.64
227.577	-4.66
227.955	-1.08
228.333	2.9
228.711	4.98
229.089	6.25
229.467	5.75
229.845	7.08
230.222	9.14
230.6	9.33
230.978	8.14
231.356	7.96
231.733	5.64
232.111	8.07
232.488	5.97
232.866	7.84
233.243	8.2
233.621	7.69
233.998	8.75
234.376	7.83
234.753	6.9
235.13	7.27
235.508	10.04
235.885	8.31
236.262	6.25
236.639	5.75
237.016	5.37
237.393	7.48
237.77	8.07
238.147	7.97
238.524	8.3
238.901	8.09
239.278	8.17
239.655	7.72
240.032	6.95
240.409	6.63
240.785	6.1
241.162	5.68
241.539	5.74
241.915	5.54
242.292	5.56
242.668	5.27
243.045	4.95
243.421	4.41
243.798	4.34
244.174	4.2
244.551	4.42
244.927	4.07
245.303	3.91
245.679	3.7
246.056	3.72
246.432	3.59
246.808	3.61
247.184	3.21
247.56	3.08
247.936	3.2
248.312	3.13
248.688	3.24
249.064	3.25
249.44	3.15
249.815	3.12
250.191	3.13
250.567	3.02
250.943	2.99
251.318	3.02
251.694	3.12
252.069	3.12
252.445	2.76
252.82	3.07
253.196	3.18
253.571	3.03
253.947	2.8
254.322	2.91
254.697	2.64
255.073	2.55
255.448	2.52
255.823	2.39
256.198	2.4
256.573	2.28
256.948	2.26
257.323	2.46
257.698	2.56
258.073	2.5
258.448	2.44
258.823	2.46
259.198	2.35
259.573	2.23
259.948	2.23
260.322	2.35
260.697	2.2
261.072	2.07
261.446	2.14
261.821	2.14
262.195	2.27
262.57	2.25
262.944	2.22
263.319	2.3
263.693	2.28
264.067	2.3
264.442	2.29
264.816	2.05
265.19	1.76
265.564	1.73
265.938	1.64
266.313	1.97
266.687	2
267.061	2.11
267.435	2.03
267.809	2.12
268.183	2.19
268.556	2.14
268.93	2.2
269.304	2.21
269.678	2.25
270.051	2.07
270.425	2.19
270.799	2.35
271.172	2.24
271.546	2.22
271.919	2.13
272.293	2.09
272.666	2.27
273.04	2.36
273.413	2.32
273.787	2.35
274.16	2.06
274.533	2
274.906	1.99
275.279	2.08
275.653	1.96
276.026	1.85
276.399	1.83
276.772	1.76
277.145	1.78
277.518	1.8
277.891	1.82
278.263	1.68
278.636	1.68
279.009	1.6
279.382	1.79
279.755	1.83
280.127	1.96
280.5	2.04
280.872	2.19
281.245	2.06
281.617	2.16
281.99	2.31
282.362	2.35
282.735	2.21
283.107	2.26
283.479	2.27
283.852	2.35
284.224	2.39
284.596	2.39
284.968	2.42
285.34	2.49
285.713	2.49
286.085	2.63
286.457	2.66
286.829	2.73
287.201	2.7
287.572	2.7
287.944	2.72
288.316	2.72
288.688	2.62
289.06	2.84
289.431	2.77
289.803	2.83
290.175	2.91
290.546	3.2
290.918	3.17
291.289	3.24
291.661	3.18
292.032	3.22
292.403	3.27
292.775	3.33
293.146	3.3
293.517	3.32
293.889	3.31
294.26	3.25
294.631	3.27
295.002	3.28
295.373	3.37
295.744	3.36
296.115	3.4
296.486	3.39
296.857	3.32
297.228	3.45
297.599	3.5
297.97	3.43
298.34	3.42
298.711	3.52
299.082	3.51
299.452	3.57
299.823	3.59
300.194	3.76
300.564	3.72
300.935	3.83
301.305	3.88
301.676	3.94
302.046	4.14
302.416	4.34
302.787	4.44
303.157	4.47
303.527	4.54
303.897	4.7
304.267	4.98
304.637	5.08
305.008	5.08
305.378	5.04
305.748	5.2
306.117	5.15
306.487	5.08
306.857	5.15
307.227	5.29
307.597	5.4
307.967	5.43
308.336	5.5
308.706	5.58
309.076	5.78
309.445	5.84
309.815	5.86
310.184	5.82
310.554	5.88
310.923	5.98
311.293	6.09
311.662	6.01
312.031	5.99
312.401	6.1
312.77	6.2
313.139	6.34
313.508	6.41
313.877	6.56
314.246	6.66
314.616	6.76
314.985	6.82
315.353	6.97
315.722	6.96
316.091	7.02
316.46	7.02
316.829	7.04
317.198	7.19
317.567	7.13
317.935	7.23
318.304	7.33
318.672	7.3
319.041	7.34
319.41	7.57
319.778	7.64
320.147	7.65
320.515	7.75
320.883	7.71
321.252	7.76
321.62	7.75
321.988	7.92
322.357	8.03
322.725	8.15
323.093	8.23
323.461	8.27
323.829	8.45
324.197	8.49
324.565	8.48
324.933	8.52
325.301	8.62
325.669	8.74
326.037	8.67
326.405	8.85
326.772	8.87
327.14	8.94
327.508	9
327.875	9.04
328.243	9.12
328.61	9.16
328.978	9.3
329.346	9.39
329.713	9.32
330.08	9.3
330.448	9.22
330.815	9
331.182	9.17
331.55	9.12
331.917	9.22
332.284	9.35
332.651	9.33
333.018	9.37
333.385	9.26
333.752	9.44
334.119	9.44
334.486	9.48
334.853	9.31
335.22	9.29
335.587	9.39
335.954	9.3
336.32	9.39
336.687	9.29
337.054	9.31
337.42	9.45
337.787	9.56
338.153	9.64
338.52	9.84
338.886	9.72
339.253	9.84
339.619	9.9
339.986	9.91
340.352	10.02
340.718	10.01
341.084	10.11
341.451	10.13
341.817	10.27
342.183	10.18
342.549	10.31
342.915	10.44
343.281	10.51
343.647	10.48
344.013	10.48
344.379	10.52
344.745	10.59
345.11	10.6
345.476	10.64
345.842	10.71
346.208	10.77
346.573	10.81
346.939	10.83
347.304	10.81
347.67	10.79
348.035	10.74
348.401	10.81
348.766	10.71
349.132	10.67
349.497	10.61
349.862	10.76
350.228	10.79
350.593	10.77
350.958	10.78
351.323	10.97
351.688	10.96
352.053	10.98
352.418	11.05
352.783	11.09
353.148	11.08
353.513	11.1
353.878	10.99
354.243	11.19
354.608	11.19
354.972	11.1
355.337	11.06
355.702	11.09
356.066	11.15
356.431	11.23
356.795	11.25
357.16	11.16
357.524	11.03
357.889	10.99
358.253	10.94
358.618	10.84
358.982	10.74
359.346	10.7
359.71	10.66
360.075	10.57
360.439	10.5
360.803	10.45
361.167	10.35
361.531	10.37
361.895	10.22
362.259	10.17
362.623	10.23
362.987	10.26
363.351	10.25
363.714	10.22
364.078	10.2
364.442	10.13
364.806	10.1
365.169	10.08
365.533	10.04
365.896	10.01
366.26	9.98
366.623	9.93
366.987	9.93
367.35	9.89
367.714	9.84
368.077	9.76
368.44	9.69
368.803	9.68
369.167	9.62
369.53	9.63
369.893	9.59
370.256	9.47
370.619	9.4
370.982	9.27
371.345	9.13
371.708	9.02
372.071	8.92
372.434	8.82
372.797	8.83
373.159	8.71
373.522	8.6
373.885	8.54
374.247	8.45
374.61	8.34
374.973	8.29
375.335	8.16
375.698	8.05
376.06	7.98
376.423	7.91
376.785	7.84
377.147	7.74
377.51	7.66
377.872	7.65
378.234	7.54
378.596	7.51
378.958	7.42
379.321	7.37
379.683	7.34
380.045	7.32
380.407	7.19
380.769	7.16
381.13	7.11
381.492	7.02
381.854	6.98
382.216	6.93
382.578	6.86
382.939	6.83
383.301	6.8
383.663	6.7
384.024	6.61
384.386	6.57
384.747	6.5
385.109	6.44
385.47	6.32
385.832	6.26
386.193	6.2
386.554	6.15
386.916	6.09
387.277	6.03
387.638	6.01
387.999	5.97
388.36	5.94
388.721	5.89
389.082	5.83
389.443	5.75
389.804	5.72
390.165	5.65
390.526	5.62
390.887	5.6
391.248	5.58
391.609	5.53
391.969	5.49
392.33	5.42
392.691	5.37
393.051	5.36
393.412	5.32
393.772	5.26
394.133	5.23
394.493	5.18
394.854	5.12
395.214	5.04
395.574	4.99
395.935	4.92
396.295	4.9
396.655	4.83
397.015	4.77
397.376	4.69
397.736	4.61
398.096	4.59
398.456	4.54
398.816	4.5
399.176	4.46
399.535	4.38
399.895	4.31
400.255	4.26
400.615	4.2
400.975	4.17
401.334	4.12
401.694	4.07
402.054	4.02
402.413	3.99
402.773	3.88
403.132	3.86
403.492	3.82
403.851	3.76
404.211	3.77
404.57	3.76
404.929	3.77
405.288	3.77
405.648	3.73
406.007	3.71
406.366	3.7
406.725	3.7
407.084	3.72
407.443	3.73
407.802	3.7
408.161	3.68
408.52	3.65
408.879	3.64
409.238	3.62
409.596	3.63
409.955	3.63
410.314	3.67
410.673	3.63
411.031	3.62
411.39	3.61
411.748	3.58
412.107	3.56
412.465	3.52
412.824	3.49
413.182	3.44
413.54	3.45
413.899	3.42
414.257	3.36
414.615	3.28
414.974	3.26
415.332	3.26
415.69	3.22
416.048	3.21
416.406	3.2
416.764	3.2
417.122	3.16
417.48	3.14
417.838	3.15
418.195	3.14
418.553	3.15
418.911	3.12
419.269	3.11
419.626	3.1
419.984	3.07
420.342	3.05
420.699	3.04
421.057	3.01
421.414	2.97
421.772	2.96
422.129	2.95
422.486	2.94
422.844	2.92
423.201	2.9
423.558	2.88
423.915	2.86
424.273	2.85
424.63	2.84
424.987	2.82
425.344	2.78
425.701	2.77
426.058	2.73
426.415	2.7
426.772	2.69
427.128	2.67
427.485	2.66
427.842	2.66
428.199	2.66
428.555	2.63
428.912	2.64
429.269	2.66
429.625	2.63
429.982	2.62
430.338	2.6
430.695	2.58
431.051	2.58
431.407	2.58
431.764	2.57
432.12	2.57
432.476	2.58
432.832	2.55
433.189	2.56
433.545	2.55
433.901	2.55
434.257	2.54
434.613	2.56
434.969	2.55
435.325	2.52
435.681	2.51
436.036	2.53
436.392	2.54
436.748	2.53
437.104	2.54
437.459	2.55
437.815	2.56
438.171	2.57
438.526	2.6
438.882	2.58
439.237	2.58
439.593	2.59
439.948	2.59
440.304	2.6
440.659	2.61
441.014	2.63
441.369	2.63
441.725	2.64
442.08	2.62
442.435	2.62
442.79	2.63
443.145	2.63
443.5	2.62
443.855	2.62
444.21	2.61
444.565	2.62
444.92	2.61
445.275	2.6
445.629	2.59
445.984	2.57
446.339	2.57
446.693	2.55
447.048	2.53
447.403	2.51
447.757	2.49
448.112	2.47
448.466	2.45
448.82	2.44
449.175	2.45
449.529	2.45
449.883	2.43
450.238	2.43
450.592	2.41
450.946	2.4
451.3	2.38
451.654	2.38
452.008	2.37
452.362	2.36
452.716	2.36
453.07	2.36
453.424	2.35
453.778	2.34
454.132	2.32
454.486	2.32
454.839	2.32
455.193	2.33
455.547	2.34
455.9	2.35
456.254	2.34
456.607	2.33
456.961	2.33
457.314	2.33
457.668	2.33
458.021	2.33
458.375	2.34
458.728	2.35
459.081	2.34
459.434	2.33
459.787	2.34
460.141	2.34
460.494	2.35
460.847	2.37
461.2	2.37
461.553	2.39
461.906	2.41
462.259	2.43
462.611	2.46
462.964	2.47
463.317	2.49
463.67	2.5
464.022	2.49
464.375	2.49
464.728	2.52
465.08	2.53
465.433	2.56
465.785	2.57
466.138	2.59
466.49	2.62
466.843	2.66
467.195	2.67
467.547	2.69
467.899	2.71
468.252	2.72
468.604	2.75
468.956	2.76
469.308	2.78
469.66	2.78
470.012	2.8
470.364	2.79
470.716	2.79
471.068	2.84
471.42	2.88
471.772	2.93
472.123	2.96
472.475	2.97
472.827	2.99
473.178	3.01
473.53	3.03
473.882	3.02
474.233	3.02
474.585	2.99
474.936	3
475.288	3.01
475.639	3.02
475.99	3.03
476.342	3.03
476.693	3.05
477.044	3.06
477.395	3.04
477.746	3.04
478.097	3.04
478.448	3
478.8	2.99
479.15	2.93
479.501	2.9
479.852	2.89
480.203	2.88
480.554	2.85
480.905	2.84
481.255	2.84
481.606	2.82
481.957	2.82
482.307	2.81
482.658	2.8
483.009	2.78
483.359	2.78
483.709	2.77
484.06	2.75
484.41	2.74
484.761	2.73
485.111	2.72
485.461	2.72
485.811	2.72
486.162	2.71
486.512	2.71
486.862	2.72
487.212	2.71
487.562	2.7
487.912	2.71
488.262	2.7
488.612	2.7
488.961	2.7
489.311	2.69
489.661	2.69
490.011	2.69
490.36	2.7
490.71	2.69
491.06	2.69
491.409	2.69
491.759	2.7
492.108	2.71
492.458	2.73
492.807	2.73
493.157	2.74
493.506	2.78
493.855	2.8
494.204	2.81
494.554	2.83
494.903	2.85
495.252	2.86
495.601	2.89
495.95	2.95
496.299	2.99
496.648	3.03
496.997	3.07
497.346	3.13
497.695	3.2
498.043	3.26
498.392	3.31
498.741	3.39
499.09	3.45
499.438	3.53
499.787	3.6
500.135	3.69
500.484	3.78
500.832	3.86
501.181	3.95
501.529	4.04
501.878	4.17
502.226	4.3
502.574	4.43
502.923	4.55
503.271	4.66
503.619	4.8
503.967	4.97
504.315	5.12
504.663	5.29
505.011	5.45
505.359	5.63
505.707	5.82
506.055	6.02
506.403	6.23
506.751	6.44
507.098	6.65
507.446	6.87
507.794	7.08
508.141	7.29
508.489	7.53
508.837	7.78
509.184	8.04
509.531	8.3
509.879	8.57
510.226	8.86
510.574	9.13
510.921	9.39
511.268	9.67
511.616	9.95
511.963	10.26
512.31	10.58
512.657	10.92
513.004	11.27
513.351	11.61
513.698	11.97
514.045	12.34
514.392	12.74
514.739	13.17
515.086	13.59
515.432	14
515.779	14.37
516.126	14.75
516.473	15.1
516.819	15.46
517.166	15.79
517.512	16.12
517.859	16.45
518.205	16.77
518.552	17.09
518.898	17.44
519.245	17.76
519.591	18.04
519.937	18.36
520.283	18.69
520.629	19.03
520.976	19.39
521.322	19.76
521.668	20.14
522.014	20.48
522.36	20.85
522.706	21.21
523.052	21.65
523.398	22.08
523.743	22.52
524.089	22.96
524.435	23.4
524.781	23.79
525.126	24.15
525.472	24.47
525.817	24.8
526.163	25.04
526.509	25.3
526.854	25.54
527.199	25.77
527.545	25.98
527.89	26.18
528.235	26.39
528.581	26.59
528.926	26.78
529.271	26.99
529.616	27.19
529.961	27.41
530.306	27.64
530.651	27.85
530.996	28.08
531.341	28.28
531.686	28.51
532.031	28.71
532.376	28.95
532.721	29.22
533.065	29.44
533.41	29.73
533.755	29.96
534.099	30.22
534.444	30.47
534.788	30.73
535.133	31
535.477	31.23
535.822	31.49
536.166	31.8
536.51	32.05
536.855	32.35
537.199	32.66
537.543	32.95
537.887	33.27
538.231	33.58
538.576	33.86
538.92	34.14
539.264	34.43
539.608	34.69
539.951	34.92
540.295	35.12
540.639	35.3
540.983	35.53
541.327	35.71
541.671	35.92
542.014	36.08
542.358	36.25
542.701	36.43
543.045	36.59
543.389	36.74
543.732	36.95
544.075	37.1
544.419	37.25
544.762	37.41
545.105	37.57
545.449	37.71
545.792	37.93
546.135	38.11
546.478	38.31
546.821	38.51
547.165	38.72
547.508	38.96
547.851	39.19
548.194	39.41
548.536	39.65
548.879	39.87
549.222	40.1
549.565	40.33
549.908	40.59
550.25	40.81
550.593	40.99
550.936	41.17
551.278	41.39
551.621	41.62
551.963	41.8
552.306	42
552.648	42.18
552.991	42.37
553.333	42.54
553.675	42.7
554.017	42.8
554.36	42.91
554.702	43.07
555.044	43.2
555.386	43.27
555.728	43.44
556.07	43.5
556.412	43.64
556.754	43.75
557.096	43.79
557.438	43.91
557.78	44.07
558.121	44.15
558.463	44.28
558.805	44.38
559.147	44.51
559.488	44.57
559.83	44.67
560.171	44.72
560.513	44.84
560.854	44.88
561.196	45.05
561.537	45.18
561.878	45.23
562.22	45.35
562.561	45.43
562.902	45.47
563.243	45.64
563.584	45.73
563.925	45.83
564.266	45.95
564.607	46.06
564.948	46.14
565.289	46.3
565.63	46.42
565.971	46.46
566.312	46.54
566.653	46.63
566.993	46.66
567.334	46.74
567.675	46.79
568.015	46.93
568.356	46.96
568.696	47.01
569.037	47.06
569.377	47.14
569.718	47.23
570.058	47.24
570.398	47.24
570.739	47.3
571.079	47.37
571.419	47.42
571.759	47.47
572.099	47.54
572.439	47.56
572.779	47.59
573.119	47.71
573.459	47.77
573.799	47.83
574.139	47.92
574.479	48.03
574.819	48.07
575.158	48.13
575.498	48.21
575.838	48.31
576.177	48.39
576.517	48.42
576.856	48.51
577.196	48.62
577.535	48.69
577.875	48.8
578.214	48.82
578.553	48.92
578.893	48.99
579.232	49.04
579.571	49.1
579.91	49.14
580.25	49.23
580.589	49.26
580.928	49.34
581.267	49.38
581.606	49.41
581.945	49.53
582.283	49.58
582.622	49.63
582.961	49.69
583.3	49.71
583.639	49.82
583.977	49.89
584.316	49.97
584.654	50.07
584.993	50.02
585.332	50.08
585.67	50.2
586.008	50.23
586.347	50.28
586.685	50.31
587.024	50.3
587.362	50.27
587.7	50.33
588.038	50.38
588.376	50.41
588.715	50.5
589.053	50.54
589.391	50.52
589.729	50.49
590.067	50.45
590.404	50.53
590.742	50.58
591.08	50.59
591.418	50.61
591.756	50.66
592.093	50.77
592.431	50.8
592.769	50.76
593.106	50.77
593.444	50.81
593.781	50.78
594.119	50.86
594.456	50.94
594.793	51.01
595.131	51.03
595.468	51.19
595.805	51.2
596.143	51.23
596.48	51.32
596.817	51.37
597.154	51.45
597.491	51.47
597.828	51.38
598.165	51.38
598.502	51.47
598.839	51.44
599.176	51.41
599.512	51.5
599.849	51.59
600.186	51.65
600.523	51.67
600.859	51.8
601.196	51.77
601.532	51.75
601.869	51.72
602.205	51.75
602.542	51.71
602.878	51.69
603.215	51.7
603.551	51.7
603.887	51.74
604.223	51.72
604.56	51.7
604.896	51.77
605.232	51.76
605.568	51.76
605.904	51.76
606.24	51.83
606.576	51.82
606.912	51.8
607.248	51.82
607.583	51.81
607.919	51.78
608.255	51.83
608.591	51.89
608.926	51.91
609.262	51.99
609.597	52.01
609.933	52.11
610.268	52.13
610.604	52.1
610.939	52.12
611.275	52.2
611.61	52.26
611.945	52.33
612.281	52.4
612.616	52.39
612.951	52.5
613.286	52.51
613.621	52.51
613.956	52.57
614.291	52.6
614.626	52.71
614.961	52.72
615.296	52.76
615.631	52.72
615.966	52.78
616.3	52.76
616.635	52.77
616.97	52.7
617.304	52.68
617.639	52.72
617.973	52.76
618.308	52.79
618.642	52.82
618.977	52.86
619.311	52.85
619.646	52.9
619.98	52.84
620.314	52.93
620.648	53.02
620.983	53.01
621.317	53.04
621.651	53
621.985	52.99
622.319	53.01
622.653	53.1
622.987	53.12
623.321	53.12
623.655	53.15
623.988	53.22
624.322	53.27
624.656	53.28
624.99	53.32
625.323	53.28
625.657	53.37
625.99	53.34
626.324	53.38
626.657	53.42
626.991	53.53
627.324	53.43
627.658	53.49
627.991	53.48
628.324	53.5
628.657	53.52
628.991	53.65
629.324	53.6
629.657	53.6
629.99	53.66
630.323	53.64
630.656	53.61
630.989	53.56
631.322	53.55
631.655	53.67
631.987	53.69
632.32	53.71
632.653	53.56
632.986	53.52
633.318	53.46
633.651	53.38
633.984	53.23
634.316	53.27
634.649	53.18
634.981	53.22
635.313	53.15
635.646	53.21
635.978	53.22
636.31	53.26
636.643	53.16
636.975	53.17
637.307	53.14
637.639	53.21
637.971	53.25
638.303	53.33
638.635	53.22
638.967	53.24
639.299	53.33
639.631	53.37
639.963	53.48
640.295	53.53
640.626	53.54
640.958	53.55
641.29	53.51
641.621	53.55
641.953	53.54
642.285	53.65
642.616	53.58
642.948	53.65
643.279	53.76
643.61	53.91
643.942	53.92
644.273	54.04
644.604	54.01
644.936	54.09
645.267	54.03
645.598	54.05
645.929	54.09
646.26	54
646.591	54.07
646.922	53.99
647.253	54.15
647.584	54.21
647.915	54.27
648.245	54.41
648.576	54.45
648.907	54.42
649.238	54.41
649.568	54.44
649.899	54.37
650.229	54.24
650.56	54.11
650.89	53.99
651.221	53.99
651.551	54.06
651.882	53.97
652.212	53.99
652.542	54.07
652.872	54.02
653.203	54.12
653.533	54.12
653.863	54.06
654.193	53.96
654.523	54.01
654.853	54.12
655.183	54.12
655.513	54.1
655.843	54.16
656.172	54.19
656.502	54.22
656.832	54.24
657.162	54.32
657.491	54.35
657.821	54.41
658.15	54.43
658.48	54.41
658.809	54.48
659.139	54.43
659.468	54.5
659.798	54.46
660.127	54.46
660.456	54.54
660.785	54.73
661.115	54.65
661.444	54.62
661.773	54.6
662.102	54.58
662.431	54.67
662.76	54.59
663.089	54.61
663.418	54.55
663.747	54.45
664.076	54.44
664.404	54.56
664.733	54.61
665.062	54.56
665.39	54.56
665.719	54.52
666.048	54.53
666.376	54.36
666.705	54.32
667.033	54.23
667.362	54.15
667.69	54.01
668.018	54.13
668.347	54.16
668.675	54.17
669.003	54.1
669.331	53.91
669.659	54.04
669.987	53.97
670.315	54.06
670.643	54.15
670.971	54.21
671.299	54.14
671.627	54.07
671.955	54.05
672.283	54.01
672.61	54.01
672.938	54
673.266	54
673.593	54.17
673.921	54.24
674.249	54.18
674.576	54.19
674.904	54.13
675.231	54.08
675.558	54.1
675.886	54.08
676.213	54.17
676.54	54.12
676.867	54.17
677.195	54.17
677.522	54.09
677.849	54.16
678.176	54.14
678.503	54.14
678.83	54.2
679.157	54.25
679.484	54.28
679.81	54.26
680.137	54.29
680.464	54.25
680.791	54.18
681.117	54.37
681.444	54.48
681.771	54.53
682.097	54.61
682.424	54.65
682.75	54.7
683.077	54.66
683.403	54.69
683.729	54.76
684.056	54.65
684.382	54.73
684.708	54.71
685.034	54.76
685.36	54.76
685.686	54.59
686.012	54.59
686.339	54.57
686.664	54.6
686.99	54.56
687.316	54.48
687.642	54.63
687.968	54.52
688.294	54.42
688.619	54.32
688.945	54.35
689.271	54.11
689.596	54.05
689.922	54.12
690.247	53.99
690.573	53.87
690.898	53.91
691.224	53.77
691.549	53.57
691.874	53.71
692.2	53.71
692.525	53.98
692.85	53.93
693.175	54.01
693.5	54.11
693.825	54.16
694.15	54.23
694.475	54.1
694.8	53.84
695.125	53.81
695.45	53.87
695.775	53.87
696.099	53.91
696.424	53.9
696.749	53.87
697.073	54.03
697.398	54.16
697.723	54.25
698.047	54.39
698.372	54.41
698.696	54.28
699.02	54.28
699.345	54.24
699.669	54.27
699.993	54.16
700.318	54.2
700.642	54.25
700.966	54.2
701.29	54.2
701.614	54.47
701.938	54.57
702.262	54.45
702.586	54.45
702.91	54.65
703.234	54.92
703.557	54.93
703.881	54.94
704.205	54.82
704.529	54.72
704.852	54.79
705.176	54.88
705.499	54.89
705.823	55.03
706.146	55.13
706.47	55.14
706.793	55.39
707.117	55.43
707.44	55.5
707.763	55.56
708.086	55.52
708.409	55.57
708.733	55.58
709.056	55.74
709.379	55.75
709.702	55.53
710.025	55.27
710.348	55.29
710.671	55.24
710.993	55.37
711.316	55.47
711.639	55.44
711.962	55.43
712.284	55.38
712.607	55.39
712.93	55.27
713.252	55.19
713.575	55.06
713.897	54.93
714.22	54.87
714.542	54.89
714.864	54.98
715.187	54.89
715.509	54.93
715.831	54.97
716.153	54.94
716.475	55.16
716.798	55.26
717.12	55.26
717.442	55.22
717.764	55.16
718.085	55.34
718.407	55.33
718.729	55.45
719.051	55.51
719.373	55.35
719.695	55.15
720.016	55.16
720.338	55.03
720.659	55.16
720.981	55.14
721.302	54.95
721.624	54.79
721.945	54.79
722.267	54.83
722.588	54.77
722.909	54.73
723.231	54.51
723.552	54.49
723.873	54.62
724.194	54.74
724.515	54.41
724.836	54.11
725.157	53.94
725.478	53.86
725.799	53.96
726.12	54.26
726.441	54.6
726.762	54.84
727.083	54.97
727.403	54.92
727.724	55.13
728.045	55.42
728.365	55.48
728.686	55.27
729.006	55.15
729.327	54.93
729.647	54.89
729.967	54.98
730.288	55.3
730.608	55.23
730.928	55.22
731.249	55.52
731.569	55.65
731.889	55.96
732.209	55.85
732.529	55.85
732.849	55.67
733.169	55.55
733.489	55.51
733.809	55.54
734.129	55.35
734.448	55.37
734.768	55.26
735.088	55.24
735.408	55.3
735.727	55.21
736.047	55.39
736.366	55.6
736.686	55.88
737.005	55.89
737.325	55.83
737.644	55.6
737.963	55.57
738.283	55.34
738.602	55.18
738.921	55.31
739.24	55.47
739.56	55.36
739.879	55.3
740.198	55.15
740.517	55.05
740.836	55.21
741.155	55.11
741.473	55.08
741.792	55.31
742.111	55.67
742.43	55.7
742.748	55.87
743.067	55.72
743.386	55.54
743.704	55.17
744.023	55.33
744.341	55.44
744.66	55.46
744.978	55.64
745.297	55.79
745.615	55.99
745.933	55.79
746.252	55.89
746.57	56.06
746.888	55.89
747.206	55.87
747.524	55.69
747.842	55.47
748.16	55.56
748.478	55.41
748.796	55.08
749.114	55.17
749.432	55.09
749.749	55.26
750.067	54.92
750.385	54.95
750.703	55.31
751.02	55.34
751.338	55.36
751.655	55.28
751.973	54.94
752.29	55.05
752.608	54.91
752.925	55.03
753.242	54.93
753.56	55.06
753.877	55.55
754.194	55.77
754.511	56.07
754.828	55.82
755.145	55.84
755.462	56.15
755.779	56.22
756.096	56.08
756.413	56.06
756.73	56.6
757.047	56.56
757.364	55.89
757.68	56.01
757.997	55.73
758.314	55.92
758.63	55.93
758.947	55.65
759.264	56.05
759.58	55.88
759.896	55.84
760.213	55.87
760.529	55.5
760.846	55.64
761.162	55.37
761.478	55.51
761.794	55.39
762.11	55.36
762.426	55.25
762.743	55.6
763.059	55.57
763.375	55.24
763.69	55.41
764.006	55.35
764.322	55.43
764.638	55.72
764.954	55.58
765.27	55.47
765.585	55.27
765.901	55
766.216	54.99
766.532	54.91
766.848	54.77
767.163	54.7
767.478	54.67
767.794	54.75
768.109	54.5
768.424	54.57
768.74	54.71
769.055	54.84
769.37	54.57
769.685	54.34
770	54.53
770.315	54.44
770.63	54.74
770.945	54.62
771.26	54.85
771.575	55.01
771.89	55.22
772.205	55.68
772.52	55.83
772.834	55.78
773.149	56.22
773.464	56.5
773.778	56.76
774.093	56.63
774.407	56.46
774.722	56.81
775.036	56.98
775.351	56.52
775.665	56.36
775.979	56.37
776.293	56.6
776.608	56.71
776.922	56.75
777.236	56.82
777.55	57.08
777.864	57
778.178	56.6
778.492	56.73
778.806	56.85
779.12	57.27
779.434	57.86
779.747	57.6
780.061	57.99
780.375	57.96
780.689	57.99
781.002	58.32
781.316	58.34
781.629	58.4
781.943	58.51
782.256	58.44
782.57	58.5
782.883	58.63
783.196	58.81
783.51	58.48
783.823	58.44
784.136	58.1
784.449	57.62
784.762	57.92
785.075	58.23
785.388	58.25
785.701	57.38
786.014	56.52
786.327	56.39
786.64	56.29
786.953	56.4
787.266	56.12
787.578	55.85
787.891	55.96
788.204	56.03
788.516	56.24
788.829	56.46
789.141	56.28
789.454	55.7
789.766	55.52
790.079	55.79
790.391	55.96
790.703	55.49
791.016	55.66
791.328	55.87
791.64	55.53
791.952	54.98
792.264	55.21
792.576	55.7
792.888	55.47
793.2	55.42
793.512	55.05
793.824	54.54
794.136	54.81
794.448	54.55
794.76	54.45
795.071	53.94
795.383	53.88
795.695	53.85
796.006	54.24
796.318	54.29
796.629	54.91
796.941	54.56
797.252	55.07
797.564	55.52
797.875	55.4
798.186	55.36
798.497	55.14
798.809	54.81
799.12	54.65
799.431	54.44
799.742	54.14
800.053	54.75
800.364	55.27
800.675	55.43
800.986	55.72
801.297	55.69
801.608	56.41
801.918	56.24
802.229	56.09
802.54	56.39
802.851	55.55
803.161	54.67
803.472	54.88
803.782	55.16
804.093	54.35
804.403	53.91
804.714	53.65
805.024	53.96
805.334	54.22
805.645	54.36
805.955	54.83
806.265	55.13
806.575	54.35
806.885	54.45
807.195	53.86
807.505	54.16
807.815	54.38
808.125	53.55
808.435	53.59
808.745	54.05
809.055	53.41
809.365	54.05
809.674	53.77
809.984	54.25
810.294	54.03
810.603	54.41
810.913	54.76
811.222	55.06
811.532	55.37
811.841	55.99
812.151	56.06
812.46	55.41
812.769	55.37
813.079	56.09
813.388	56.3
813.697	56.44
814.006	55.82
814.315	55.23
814.624	55.21
814.933	55.44
815.242	55.32
815.551	55.53
815.86	55.7
816.169	55.93
816.478	55.42
816.786	54.76
817.095	53.76
817.404	54.34
817.712	54.42
818.021	54.35
818.33	54.06
818.638	53.99
818.947	55.14
819.255	55.19
819.563	55.08
819.872	55.12
820.18	55.63
820.488	55.9
820.796	56.17
821.105	56.71
821.413	56.59
821.721	56.85
822.029	56.84
822.337	56.97
822.645	57.04
822.953	57.07
823.26	57.34
823.568	57.47
823.876	57.33
824.184	57.33
824.491	57.28
824.799	57.22
825.107	57.34
825.414	57.16
825.722	57.15
826.029	57.25
826.337	57.28
826.644	57.17
826.951	57.03
827.259	57.12
827.566	56.79
827.873	56.83
828.18	56.43
828.488	56.67
828.795	56.37
829.102	56.35
829.409	56.42
829.716	55.87
830.023	55.72
830.329	55.8
830.636	55.83
830.943	56.12
831.25	56.01
831.557	55.99
831.863	56.45
832.17	56.3
832.476	56.11
832.783	55.83
833.089	55.9
833.396	56
833.702	55.51
834.009	55.91
834.315	56.04
834.621	56.52
834.928	56.21
835.234	56.39
835.54	55.68
835.846	54.84
836.152	55.54
836.458	56.11
836.764	55.9
837.07	55.47
837.376	55.59
837.682	56.67
837.988	56.3
838.293	56.16
838.599	55.87
838.905	56.56
839.211	57.03
839.516	56.76
839.822	56.75
840.127	57.03
840.433	56.08
840.738	56.46
841.044	55.86
841.349	55.79
841.654	56.25
841.959	56.88
842.265	57.84
842.57	56.83
842.875	55.03
843.18	54.99
843.485	56.85
843.79	55.31
844.095	53.69
844.4	54.48
844.705	52.5
845.01	52.7
845.315	50.72
845.619	49.6
845.924	49.43
846.229	49.92
846.533	49.1
846.838	49.57
847.142	49.37
847.447	49.59
847.751	49.82
848.056	49.54
848.36	49.67
848.664	50.75
848.969	51.15
849.273	54.31
849.577	55.46
849.881	53.81
850.185	57.05
850.489	57.14
850.794	54.79
851.097	57.1
851.401	58.91
851.705	58.23
852.009	60.65
852.313	59.67
852.617	57.72
852.92	59.28
853.224	58.92
853.528	57.64
853.831	56.83
854.135	58.11
854.438	55.78
854.742	56.55
855.045	55.28
855.349	55.26
855.652	53.13
855.955	52.18
856.259	50.81
856.562	48.39
856.865	48.24
857.168	49.11
857.471	48.11
857.774	46.79
858.077	49.64
858.38	50.07
858.683	51.66
858.986	52.38
859.289	52.65
859.592	52.23
859.894	55.2
860.197	55.16
860.5	53.93
860.802	54.94
861.105	55.29
861.407	56
861.71	54.72
862.012	55.55
862.315	55.64
862.617	57.67
862.919	57
863.222	56.85
863.524	58.28
863.826	58.9
864.128	59.41
864.43	57.67
864.732	56.58
865.034	54.59
865.336	54.05
865.638	53.6
865.94	53.04
866.242	48.26
866.544	48.4
866.846	47.58
867.147	48.46
867.449	48.85
867.751	48.26
868.052	50.45
868.354	52.62
868.655	53.09
868.957	53.6
869.258	56.11
869.56	56.23
869.861	54.42
870.162	53.77
870.463	55.26
870.765	55.98
871.066	57.04
871.367	58.74
871.668	62.91
871.969	61.77
872.27	60.88
872.571	64.39
872.872	65.37
873.173	65.44
873.473	64.44
873.774	66.94
874.075	67.59
874.376	69.3
874.676	68.48
874.977	69.11
875.277	68.58
875.578	67.83
875.878	68.41
876.179	70.78
876.479	73.16
876.78	72.9
877.08	73.99
877.38	72.88
877.68	74.34
877.981	70.07
878.281	73.78
878.581	80.92
