Data from BU26851_Reflection_00011.txt Node
Date: Mon Nov 18 16:48:26 EST 2019
User: vgr7
Spectrometer: USB2G7710
Scans to average: 3
Trigger mode: 4
Integration Time (sec): 2.000000E-2
Electric dark correction enabled: true
Boxcar width: 10
XAxis mode: Wavelengths
Number of Pixels in Spectrum: 2048
>>>>>Begin Spectral Data<<<<<
177.721	58.27
178.105	-872.97
178.488	3403.8
178.871	-532.23
179.254	2286.44
179.636	-71.1
180.019	1167.8
180.402	119.44
180.785	-76.98
181.168	-118.28
181.55	-340.56
181.933	45.45
182.316	84.92
182.698	64.26
183.081	104.72
183.463	-487.63
183.846	32.91
184.228	-1351.61
184.611	467.74
184.993	1371.19
185.376	104.21
185.758	249.67
186.14	740.17
186.522	688.42
186.904	-6109.3
187.287	1492.34
187.669	-911.83
188.051	735.47
188.433	-554.14
188.815	-97.12
189.197	-128.22
189.579	-85.79
189.961	-91.94
190.342	-43.7
190.724	10.15
191.106	29.52
191.488	87.85
191.869	-192.04
192.251	89.62
192.633	-2900
193.014	170.87
193.396	-64.14
193.777	-90.33
194.159	-215.25
194.54	-75.64
194.922	283.67
195.303	-41.07
195.684	-546.41
196.065	-202.93
196.447	-427.16
196.828	-506.65
197.209	-811.6
197.59	5582.76
197.971	583.87
198.352	51.14
198.733	-36.07
199.114	-17.73
199.495	-29.39
199.876	-62.72
200.257	-21.19
200.638	29.32
201.018	29.59
201.399	27.44
201.78	-6.05
202.16	-15.03
202.541	-14.11
202.922	-24.26
203.302	-9.74
203.683	-4.18
204.063	-45.63
204.444	-38.62
204.824	14.92
205.204	-17.68
205.585	-33.37
205.965	-45.07
206.345	-231.71
206.725	-528.92
207.106	-1266.86
207.486	971.92
207.866	695.82
208.246	341.58
208.626	442.75
209.006	2170.97
209.386	1608.11
209.766	4798.11
210.145	565.39
210.525	1547.55
210.905	-523.27
211.285	-393.81
211.664	-190.53
212.044	-91.64
212.424	-75.95
212.803	-90.87
213.183	-58.39
213.562	-45.68
213.942	-17.55
214.321	-0.18
214.701	-7.79
215.08	-31.34
215.459	-28.92
215.838	-17.56
216.218	-23.91
216.597	11.19
216.976	38.51
217.355	34.02
217.734	24.24
218.113	34.12
218.492	18.58
218.871	14.68
219.25	16.96
219.629	11.69
220.008	9.48
220.387	13.33
220.766	13.81
221.144	6.13
221.523	-1.22
221.902	-37.34
222.28	-27.54
222.659	-7.17
223.037	15.26
223.416	17.78
223.794	9.72
224.173	12.48
224.551	8.16
224.929	8.8
225.308	19.54
225.686	26.29
226.064	30.17
226.442	29.73
226.821	40.89
227.199	39.79
227.577	36.54
227.955	34.32
228.333	32.87
228.711	33.38
229.089	33.83
229.467	30.22
229.845	32.39
230.222	28.09
230.6	25.17
230.978	23.62
231.356	21.83
231.733	23.79
232.111	23.3
232.488	21.47
232.866	18.1
233.243	15.05
233.621	12.14
233.998	10.63
234.376	11.05
234.753	7.21
235.13	6.68
235.508	4.48
235.885	4.1
236.262	4.27
236.639	4.95
237.016	4.12
237.393	5.82
237.77	5.62
238.147	6.62
238.524	5.2
238.901	5.73
239.278	6.33
239.655	6.07
240.032	5.71
240.409	5.18
240.785	5.29
241.162	5.43
241.539	5.65
241.915	5.17
242.292	4.66
242.668	4.71
243.045	4.49
243.421	5.21
243.798	5.2
244.174	5.02
244.551	4.63
244.927	4.33
245.303	4.27
245.679	4.44
246.056	4.18
246.432	4.29
246.808	4.18
247.184	3.79
247.56	3.8
247.936	3.78
248.312	3.96
248.688	3.94
249.064	3.94
249.44	4.02
249.815	4.1
250.191	4.24
250.567	4.26
250.943	4.45
251.318	4.55
251.694	4.73
252.069	4.73
252.445	4.89
252.82	5.09
253.196	5.09
253.571	4.84
253.947	4.85
254.322	5.16
254.697	4.57
255.073	4.53
255.448	4.23
255.823	4.2
256.198	4.19
256.573	3.98
256.948	3.8
257.323	3.7
257.698	3.64
258.073	3.56
258.448	3.49
258.823	3.45
259.198	3.23
259.573	3.04
259.948	2.98
260.322	3.07
260.697	2.96
261.072	2.76
261.446	2.72
261.821	2.75
262.195	2.8
262.57	2.92
262.944	2.99
263.319	3.02
263.693	3.01
264.067	3.12
264.442	3.22
264.816	3.34
265.19	3.12
265.564	3.29
265.938	3.36
266.313	3.36
266.687	3.5
267.061	3.55
267.435	3.8
267.809	3.89
268.183	3.71
268.556	3.71
268.93	3.78
269.304	3.9
269.678	3.91
270.051	3.89
270.425	3.95
270.799	3.98
271.172	4.05
271.546	4.06
271.919	3.73
272.293	3.58
272.666	3.58
273.04	3.71
273.413	3.62
273.787	3.53
274.16	3.51
274.533	3.38
274.906	3.42
275.279	3.28
275.653	3.37
276.026	3.54
276.399	3.57
276.772	3.7
277.145	3.62
277.518	3.5
277.891	3.42
278.263	3.27
278.636	3.26
279.009	3.21
279.382	3.2
279.755	3.21
280.127	3.66
280.5	3.68
280.872	3.83
281.245	3.8
281.617	4.01
281.99	4.07
282.362	4.03
282.735	3.98
283.107	4.1
283.479	4.09
283.852	3.91
284.224	3.95
284.596	3.69
284.968	3.75
285.34	3.87
285.713	3.78
286.085	3.94
286.457	3.99
286.829	3.95
287.201	3.97
287.572	4.06
287.944	3.87
288.316	3.84
288.688	3.75
289.06	3.65
289.431	3.57
289.803	3.64
290.175	3.65
290.546	3.78
290.918	3.78
291.289	3.63
291.661	3.73
292.032	3.84
292.403	4.05
292.775	4.08
293.146	4.03
293.517	4.11
293.889	4.25
294.26	4.35
294.631	4.46
295.002	4.48
295.373	4.51
295.744	4.59
296.115	4.57
296.486	4.42
296.857	4.63
297.228	4.8
297.599	4.71
297.97	4.89
298.34	4.86
298.711	4.93
299.082	5.03
299.452	5.03
299.823	5.06
300.194	5
300.564	5.03
300.935	5.21
301.305	5.13
301.676	5.13
302.046	5.15
302.416	5.27
302.787	5.43
303.157	5.46
303.527	5.46
303.897	5.55
304.267	5.98
304.637	5.99
305.008	5.89
305.378	6.1
305.748	6.05
306.117	6.13
306.487	6.05
306.857	6.29
307.227	6.44
307.597	6.59
307.967	6.81
308.336	6.9
308.706	6.78
309.076	7.01
309.445	6.99
309.815	7.01
310.184	7.07
310.554	7.07
310.923	7.19
311.293	7.3
311.662	7.48
312.031	7.47
312.401	7.62
312.77	7.7
313.139	7.68
313.508	7.77
313.877	7.7
314.246	7.88
314.616	7.77
314.985	7.79
315.353	7.85
315.722	7.89
316.091	7.94
316.46	8.1
316.829	8.1
317.198	8.24
317.567	8.33
317.935	8.23
318.304	8.26
318.672	8.35
319.041	8.35
319.41	8.41
319.778	8.28
320.147	8.2
320.515	8.26
320.883	8.23
321.252	8.27
321.62	8.41
321.988	8.48
322.357	8.74
322.725	8.8
323.093	8.78
323.461	8.87
323.829	9
324.197	9.08
324.565	9.18
324.933	9.28
325.301	9.23
325.669	9.45
326.037	9.5
326.405	9.64
326.772	9.63
327.14	9.65
327.508	9.85
327.875	9.89
328.243	10.1
328.61	10.33
328.978	10.5
329.346	10.65
329.713	10.61
330.08	10.52
330.448	10.51
330.815	10.48
331.182	10.64
331.55	10.56
331.917	10.75
332.284	10.85
332.651	10.9
333.018	11.1
333.385	11.13
333.752	11.2
334.119	11.14
334.486	11.16
334.853	11.17
335.22	11.15
335.587	11.19
335.954	11.17
336.32	11.2
336.687	11.11
337.054	11.1
337.42	11.21
337.787	11.38
338.153	11.43
338.52	11.55
338.886	11.44
339.253	11.48
339.619	11.37
339.986	11.41
340.352	11.45
340.718	11.37
341.084	11.4
341.451	11.52
341.817	11.53
342.183	11.56
342.549	11.61
342.915	11.74
343.281	11.83
343.647	11.89
344.013	11.9
344.379	11.91
344.745	12.02
345.11	11.99
345.476	11.96
345.842	11.93
346.208	11.86
346.573	11.89
346.939	11.93
347.304	12.01
347.67	11.98
348.035	11.95
348.401	11.96
348.766	11.97
349.132	11.85
349.497	11.85
349.862	12.09
350.228	12.15
350.593	12.04
350.958	12.13
351.323	12.11
351.688	12.1
352.053	12.05
352.418	12.02
352.783	11.96
353.148	11.89
353.513	11.93
353.878	11.99
354.243	12.05
354.608	12.13
354.972	12.13
355.337	12.1
355.702	12.15
356.066	12.21
356.431	12.18
356.795	12.25
357.16	12.24
357.524	12.1
357.889	12.03
358.253	12.1
358.618	12.11
358.982	12.02
359.346	11.94
359.71	11.96
360.075	11.97
360.439	12.04
360.803	12.03
361.167	12.01
361.531	11.97
361.895	11.92
362.259	11.86
362.623	11.79
362.987	11.8
363.351	11.65
363.714	11.61
364.078	11.55
364.442	11.43
364.806	11.45
365.169	11.43
365.533	11.4
365.896	11.32
366.26	11.19
366.623	11.11
366.987	11.07
367.35	11.03
367.714	10.97
368.077	10.79
368.44	10.72
368.803	10.75
369.167	10.61
369.53	10.55
369.893	10.49
370.256	10.43
370.619	10.32
370.982	10.28
371.345	10.23
371.708	10.26
372.071	10.21
372.434	10.05
372.797	9.95
373.159	9.81
373.522	9.77
373.885	9.71
374.247	9.62
374.61	9.57
374.973	9.44
375.335	9.26
375.698	9.2
376.06	9.1
376.423	8.99
376.785	9
377.147	8.94
377.51	8.87
377.872	8.83
378.234	8.73
378.596	8.74
378.958	8.55
379.321	8.44
379.683	8.4
380.045	8.35
380.407	8.27
380.769	8.22
381.13	8.13
381.492	8.04
381.854	7.96
382.216	7.83
382.578	7.77
382.939	7.74
383.301	7.71
383.663	7.64
384.024	7.54
384.386	7.5
384.747	7.45
385.109	7.41
385.47	7.34
385.832	7.33
386.193	7.22
386.554	7.24
386.916	7.12
387.277	7.08
387.638	7.06
387.999	6.99
388.36	6.95
388.721	6.85
389.082	6.82
389.443	6.78
389.804	6.83
390.165	6.76
390.526	6.73
390.887	6.66
391.248	6.66
391.609	6.63
391.969	6.55
392.33	6.46
392.691	6.37
393.051	6.32
393.412	6.27
393.772	6.24
394.133	6.2
394.493	6.17
394.854	6.09
395.214	5.97
395.574	5.93
395.935	5.88
396.295	5.87
396.655	5.8
397.015	5.78
397.376	5.68
397.736	5.65
398.096	5.57
398.456	5.52
398.816	5.46
399.176	5.36
399.535	5.3
399.895	5.27
400.255	5.24
400.615	5.18
400.975	5.12
401.334	5.06
401.694	5
402.054	4.97
402.413	4.92
402.773	4.89
403.132	4.88
403.492	4.88
403.851	4.82
404.211	4.74
404.57	4.7
404.929	4.69
405.288	4.67
405.648	4.64
406.007	4.62
406.366	4.58
406.725	4.59
407.084	4.6
407.443	4.58
407.802	4.55
408.161	4.52
408.52	4.5
408.879	4.46
409.238	4.45
409.596	4.43
409.955	4.43
410.314	4.43
410.673	4.36
411.031	4.32
411.39	4.28
411.748	4.29
412.107	4.26
412.465	4.23
412.824	4.23
413.182	4.21
413.54	4.22
413.899	4.23
414.257	4.21
414.615	4.18
414.974	4.19
415.332	4.16
415.69	4.15
416.048	4.11
416.406	4.08
416.764	4.08
417.122	4.06
417.48	4.02
417.838	4.01
418.195	3.98
418.553	3.98
418.911	3.98
419.269	3.99
419.626	3.98
419.984	3.95
420.342	3.93
420.699	3.91
421.057	3.88
421.414	3.85
421.772	3.83
422.129	3.8
422.486	3.77
422.844	3.77
423.201	3.74
423.558	3.73
423.915	3.73
424.273	3.71
424.63	3.69
424.987	3.7
425.344	3.69
425.701	3.69
426.058	3.67
426.415	3.64
426.772	3.61
427.128	3.59
427.485	3.59
427.842	3.58
428.199	3.58
428.555	3.55
428.912	3.55
429.269	3.52
429.625	3.5
429.982	3.5
430.338	3.5
430.695	3.5
431.051	3.49
431.407	3.48
431.764	3.47
432.12	3.45
432.476	3.43
432.832	3.42
433.189	3.42
433.545	3.43
433.901	3.41
434.257	3.41
434.613	3.43
434.969	3.43
435.325	3.43
435.681	3.43
436.036	3.44
436.392	3.43
436.748	3.42
437.104	3.44
437.459	3.44
437.815	3.43
438.171	3.42
438.526	3.42
438.882	3.43
439.237	3.42
439.593	3.42
439.948	3.41
440.304	3.42
440.659	3.41
441.014	3.4
441.369	3.43
441.725	3.43
442.08	3.42
442.435	3.4
442.79	3.4
443.145	3.39
443.5	3.39
443.855	3.39
444.21	3.39
444.565	3.38
444.92	3.38
445.275	3.38
445.629	3.39
445.984	3.39
446.339	3.38
446.693	3.39
447.048	3.38
447.403	3.38
447.757	3.38
448.112	3.36
448.466	3.35
448.82	3.33
449.175	3.33
449.529	3.32
449.883	3.32
450.238	3.31
450.592	3.3
450.946	3.28
451.3	3.27
451.654	3.25
452.008	3.24
452.362	3.22
452.716	3.23
453.07	3.2
453.424	3.2
453.778	3.19
454.132	3.16
454.486	3.16
454.839	3.15
455.193	3.13
455.547	3.13
455.9	3.14
456.254	3.12
456.607	3.13
456.961	3.13
457.314	3.13
457.668	3.15
458.021	3.16
458.375	3.16
458.728	3.17
459.081	3.19
459.434	3.19
459.787	3.2
460.141	3.18
460.494	3.19
460.847	3.18
461.2	3.18
461.553	3.19
461.906	3.21
462.259	3.22
462.611	3.24
462.964	3.26
463.317	3.27
463.67	3.3
464.022	3.3
464.375	3.3
464.728	3.33
465.08	3.33
465.433	3.35
465.785	3.36
466.138	3.37
466.49	3.38
466.843	3.41
467.195	3.42
467.547	3.45
467.899	3.47
468.252	3.48
468.604	3.52
468.956	3.52
469.308	3.53
469.66	3.53
470.012	3.54
470.364	3.54
470.716	3.55
471.068	3.55
471.42	3.56
471.772	3.58
472.123	3.57
472.475	3.58
472.827	3.55
473.178	3.57
473.53	3.58
473.882	3.59
474.233	3.57
474.585	3.55
474.936	3.54
475.288	3.54
475.639	3.55
475.99	3.56
476.342	3.58
476.693	3.58
477.044	3.59
477.395	3.62
477.746	3.6
478.097	3.58
478.448	3.58
478.8	3.58
479.15	3.55
479.501	3.54
479.852	3.54
480.203	3.54
480.554	3.55
480.905	3.57
481.255	3.56
481.606	3.56
481.957	3.57
482.307	3.57
482.658	3.57
483.009	3.57
483.359	3.57
483.709	3.58
484.06	3.57
484.41	3.57
484.761	3.55
485.111	3.55
485.461	3.55
485.811	3.56
486.162	3.55
486.512	3.57
486.862	3.57
487.212	3.56
487.562	3.57
487.912	3.56
488.262	3.55
488.612	3.54
488.961	3.55
489.311	3.56
489.661	3.56
490.011	3.56
490.36	3.56
490.71	3.56
491.06	3.56
491.409	3.57
491.759	3.57
492.108	3.58
492.458	3.6
492.807	3.61
493.157	3.61
493.506	3.63
493.855	3.64
494.204	3.65
494.554	3.67
494.903	3.66
495.252	3.67
495.601	3.69
495.95	3.74
496.299	3.74
496.648	3.75
496.997	3.77
497.346	3.8
497.695	3.83
498.043	3.85
498.392	3.88
498.741	3.93
499.09	3.98
499.438	4.01
499.787	4.05
500.135	4.11
500.484	4.15
500.832	4.19
501.181	4.23
501.529	4.3
501.878	4.35
502.226	4.42
502.574	4.49
502.923	4.55
503.271	4.61
503.619	4.7
503.967	4.79
504.315	4.83
504.663	4.89
505.011	4.98
505.359	5.03
505.707	5.08
506.055	5.17
506.403	5.24
506.751	5.33
507.098	5.43
507.446	5.51
507.794	5.6
508.141	5.7
508.489	5.79
508.837	5.88
509.184	5.99
509.531	6.1
509.879	6.21
510.226	6.29
510.574	6.39
510.921	6.49
511.268	6.58
511.616	6.74
511.963	6.87
512.31	6.98
512.657	7.13
513.004	7.25
513.351	7.36
513.698	7.49
514.045	7.61
514.392	7.73
514.739	7.87
515.086	8
515.432	8.14
515.779	8.27
516.126	8.42
516.473	8.55
516.819	8.7
517.166	8.82
517.512	8.97
517.859	9.1
518.205	9.22
518.552	9.38
518.898	9.49
519.245	9.6
519.591	9.72
519.937	9.85
520.283	10.01
520.629	10.19
520.976	10.36
521.322	10.51
521.668	10.7
522.014	10.88
522.36	11.07
522.706	11.25
523.052	11.45
523.398	11.66
523.743	11.88
524.089	12.09
524.435	12.3
524.781	12.51
525.126	12.69
525.472	12.86
525.817	12.99
526.163	13.15
526.509	13.3
526.854	13.43
527.199	13.57
527.545	13.7
527.89	13.81
528.235	13.93
528.581	14.09
528.926	14.22
529.271	14.37
529.616	14.5
529.961	14.65
530.306	14.81
530.651	14.97
530.996	15.13
531.341	15.3
531.686	15.48
532.031	15.64
532.376	15.84
532.721	16.06
533.065	16.27
533.41	16.48
533.755	16.7
534.099	16.93
534.444	17.15
534.788	17.36
535.133	17.57
535.477	17.81
535.822	18.04
536.166	18.3
536.51	18.54
536.855	18.84
537.199	19.12
537.543	19.4
537.887	19.68
538.231	19.99
538.576	20.28
538.92	20.59
539.264	20.89
539.608	21.15
539.951	21.37
540.295	21.62
540.639	21.83
540.983	22.06
541.327	22.31
541.671	22.55
542.014	22.79
542.358	23.02
542.701	23.25
543.045	23.48
543.389	23.72
543.732	23.98
544.075	24.23
544.419	24.49
544.762	24.76
545.105	25.03
545.449	25.29
545.792	25.6
546.135	25.88
546.478	26.19
546.821	26.51
547.165	26.88
547.508	27.23
547.851	27.61
548.194	28
548.536	28.32
548.879	28.72
549.222	29.06
549.565	29.44
549.908	29.83
550.25	30.22
550.593	30.59
550.936	30.92
551.278	31.29
551.621	31.67
551.963	32.04
552.306	32.41
552.648	32.8
552.991	33.14
553.333	33.46
553.675	33.81
554.017	34.17
554.36	34.48
554.702	34.79
555.044	35.14
555.386	35.43
555.728	35.78
556.07	36.06
556.412	36.41
556.754	36.72
557.096	37.04
557.438	37.38
557.78	37.71
558.121	38.09
558.463	38.41
558.805	38.78
559.147	39.13
559.488	39.45
559.83	39.77
560.171	40.08
560.513	40.46
560.854	40.77
561.196	41.1
561.537	41.43
561.878	41.74
562.22	42.05
562.561	42.34
562.902	42.61
563.243	42.92
563.584	43.14
563.925	43.49
564.266	43.72
564.607	43.95
564.948	44.19
565.289	44.5
565.63	44.74
565.971	44.97
566.312	45.17
566.653	45.42
566.993	45.65
567.334	45.87
567.675	46.11
568.015	46.35
568.356	46.6
568.696	46.79
569.037	47.06
569.377	47.26
569.718	47.54
570.058	47.74
570.398	47.95
570.739	48.27
571.079	48.46
571.419	48.7
571.759	48.9
572.099	49.14
572.439	49.31
572.779	49.48
573.119	49.69
573.459	49.9
573.799	50.11
574.139	50.33
574.479	50.54
574.819	50.7
575.158	50.85
575.498	50.97
575.838	51.18
576.177	51.3
576.517	51.43
576.856	51.56
577.196	51.73
577.535	51.88
577.875	51.93
578.214	52.08
578.553	52.27
578.893	52.47
579.232	52.62
579.571	52.85
579.91	53.03
580.25	53.23
580.589	53.38
580.928	53.52
581.267	53.71
581.606	53.91
581.945	54.04
582.283	54.23
582.622	54.39
582.961	54.57
583.3	54.71
583.639	54.93
583.977	55.07
584.316	55.23
584.654	55.44
584.993	55.64
585.332	55.84
585.67	55.99
586.008	56.09
586.347	56.14
586.685	56.14
587.024	56.25
587.362	56.26
587.7	56.34
588.038	56.46
588.376	56.54
588.715	56.57
589.053	56.68
589.391	56.83
589.729	56.93
590.067	56.96
590.404	57.05
590.742	57.15
591.08	57.28
591.418	57.37
591.756	57.39
592.093	57.51
592.431	57.53
592.769	57.6
593.106	57.72
593.444	57.89
593.781	58
594.119	58.13
594.456	58.22
594.793	58.34
595.131	58.4
595.468	58.46
595.805	58.58
596.143	58.66
596.48	58.63
596.817	58.75
597.154	58.77
597.491	58.92
597.828	58.99
598.165	58.99
598.502	59.08
598.839	59.16
599.176	59.22
599.512	59.28
599.849	59.36
600.186	59.34
600.523	59.44
600.859	59.51
601.196	59.52
601.532	59.52
601.869	59.57
602.205	59.64
602.542	59.66
602.878	59.73
603.215	59.7
603.551	59.78
603.887	59.77
604.223	59.99
604.56	59.97
604.896	59.96
605.232	60.09
605.568	60.07
605.904	60.06
606.24	60.12
606.576	60.23
606.912	60.3
607.248	60.42
607.583	60.38
607.919	60.46
608.255	60.58
608.591	60.67
608.926	60.72
609.262	60.83
609.597	60.91
609.933	60.94
610.268	61.03
610.604	61.07
610.939	61.16
611.275	61.14
611.61	61.2
611.945	61.23
612.281	61.27
612.616	61.4
612.951	61.52
613.286	61.53
613.621	61.61
613.956	61.56
614.291	61.51
614.626	61.67
614.961	61.67
615.296	61.66
615.631	61.79
615.966	61.89
616.3	61.93
616.635	61.94
616.97	61.95
617.304	62.07
617.639	62.17
617.973	62.1
618.308	62.17
618.642	62.17
618.977	62.3
619.311	62.27
619.646	62.4
619.98	62.47
620.314	62.56
620.648	62.5
620.983	62.55
621.317	62.75
621.651	62.76
621.985	62.87
622.319	63.03
622.653	63.08
622.987	63.15
623.321	63.04
623.655	63.11
623.988	63.11
624.322	63.02
624.656	62.95
624.99	62.99
625.323	62.98
625.657	62.99
625.99	62.98
626.324	63.03
626.657	63.02
626.991	63.03
627.324	63.02
627.658	63.06
627.991	63.09
628.324	63.08
628.657	63.01
628.991	62.96
629.324	62.9
629.657	62.96
629.99	62.81
630.323	62.86
630.656	62.79
630.989	62.86
631.322	62.91
631.655	63.07
631.987	63.16
632.32	63.21
632.653	63.32
632.986	63.4
633.318	63.34
633.651	63.37
633.984	63.48
634.316	63.5
634.649	63.62
634.981	63.63
635.313	63.67
635.646	63.76
635.978	63.82
636.31	63.83
636.643	63.75
636.975	63.88
637.307	63.94
637.639	63.98
637.971	64.03
638.303	64.09
638.635	63.99
638.967	64
639.299	64.04
639.631	63.96
639.963	63.94
640.295	64.01
640.626	63.97
640.958	63.92
641.29	64.04
641.621	63.84
641.953	63.95
642.285	63.95
642.616	63.96
642.948	63.87
643.279	63.88
643.61	63.88
643.942	63.93
644.273	64.02
644.604	64.13
644.936	64.13
645.267	64.17
645.598	64.25
645.929	64.22
646.26	64.21
646.591	64.4
646.922	64.44
647.253	64.4
647.584	64.48
647.915	64.42
648.245	64.35
648.576	64.54
648.907	64.55
649.238	64.6
649.568	64.71
649.899	64.79
650.229	64.86
650.56	64.93
650.89	64.93
651.221	64.85
651.551	64.86
651.882	64.93
652.212	65
652.542	65.13
652.872	65.16
653.203	65.18
653.533	65
653.863	64.95
654.193	65.05
654.523	65.02
654.853	64.95
655.183	65.05
655.513	65.01
655.843	64.97
656.172	64.91
656.502	64.89
656.832	64.97
657.162	65.01
657.491	64.94
657.821	64.86
658.15	64.94
658.48	64.99
658.809	64.93
659.139	64.95
659.468	64.83
659.798	64.86
660.127	64.92
660.456	65.14
660.785	65.28
661.115	65.26
661.444	65.34
661.773	65.5
662.102	65.41
662.431	65.51
662.76	65.48
663.089	65.55
663.418	65.61
663.747	65.62
664.076	65.65
664.404	65.85
664.733	66.06
665.062	66.11
665.39	66.02
665.719	65.93
666.048	65.87
666.376	66.06
666.705	66.2
667.033	66.2
667.362	66.13
667.69	66.04
668.018	66.14
668.347	65.94
668.675	65.9
669.003	66
669.331	65.99
669.659	66.04
669.987	66.01
670.315	65.86
670.643	65.88
670.971	65.77
671.299	65.75
671.627	65.63
671.955	65.61
672.283	65.61
672.61	65.76
672.938	65.74
673.266	65.64
673.593	65.6
673.921	65.61
674.249	65.7
674.576	65.71
674.904	65.59
675.231	65.92
675.558	65.99
675.886	65.95
676.213	65.91
676.54	65.99
676.867	66.08
677.195	66.22
677.522	66.24
677.849	66.25
678.176	66.12
678.503	66.1
678.83	66.16
679.157	66.12
679.484	66.08
679.81	66.07
680.137	66.07
680.464	65.91
680.791	65.84
681.117	65.81
681.444	65.8
681.771	65.9
682.097	65.77
682.424	65.83
682.75	65.83
683.077	65.88
683.403	65.7
683.729	65.63
684.056	65.5
684.382	65.38
684.708	65.38
685.034	65.46
685.36	65.53
685.686	65.34
686.012	65.57
686.339	65.69
686.664	65.78
686.99	65.81
687.316	65.83
687.642	65.86
687.968	65.9
688.294	65.95
688.619	66.07
688.945	65.97
689.271	65.91
689.596	66
689.922	66
690.247	66.21
690.573	66.32
690.898	66.47
691.224	66.72
691.549	66.74
691.874	66.68
692.2	66.84
692.525	67.06
692.85	66.98
693.175	66.82
693.5	66.72
693.825	66.74
694.15	66.87
694.475	66.88
694.8	67.08
695.125	67.22
695.45	67.13
695.775	67.35
696.099	67.21
696.424	67.18
696.749	67.1
697.073	67.06
697.398	67.16
697.723	67.15
698.047	67.02
698.372	67.09
698.696	67.04
699.02	67.02
699.345	66.91
699.669	66.91
699.993	66.89
700.318	67.05
700.642	66.87
700.966	66.91
701.29	66.91
701.614	66.72
701.938	66.54
702.262	66.58
702.586	66.49
702.91	66.61
703.234	66.52
703.557	66.79
703.881	66.7
704.205	66.57
704.529	66.78
704.852	66.7
705.176	66.79
705.499	66.8
705.823	66.69
706.146	66.79
706.47	66.86
706.793	66.8
707.117	66.71
707.44	67.02
707.763	67.05
708.086	67.17
708.409	67.14
708.733	67.02
709.056	66.96
709.379	67
709.702	67.18
710.025	67.27
710.348	67.16
710.671	67.31
710.993	67.35
711.316	67.09
711.639	67.14
711.962	66.99
712.284	67.16
712.607	67.17
712.93	67.17
713.252	67.07
713.575	67.2
713.897	67.13
714.22	67.2
714.542	67.24
714.864	67.18
715.187	67.2
715.509	67.51
715.831	67.72
716.153	67.64
716.475	67.4
716.798	67.43
717.12	67.32
717.442	67.22
717.764	67.11
718.085	67.11
718.407	67.15
718.729	67.2
719.051	67.08
719.373	67.16
719.695	67.22
720.016	67.02
720.338	67.3
720.659	67.63
720.981	67.54
721.302	67.51
721.624	67.47
721.945	67.54
722.267	67.35
722.588	67.21
722.909	67.26
723.231	67.31
723.552	67.34
723.873	67.14
724.194	67.24
724.515	67.34
724.836	67.32
725.157	67.48
725.478	67.45
725.799	67.51
726.12	67.36
726.441	67.36
726.762	67.88
727.083	67.63
727.403	67.3
727.724	67.32
728.045	67.39
728.365	67.26
728.686	67.24
729.006	67.26
729.327	67.29
729.647	67.3
729.967	67.51
730.288	67.39
730.608	67.54
730.928	67.72
731.249	67.65
731.569	67.89
731.889	67.74
732.209	67.62
732.529	67.75
732.849	67.87
733.169	67.77
733.489	67.38
733.809	67.56
734.129	67.51
734.448	67.37
734.768	67.3
735.088	67.46
735.408	67.42
735.727	67.67
736.047	67.56
736.366	67.56
736.686	67.29
737.005	67.24
737.325	67.16
737.644	67.06
737.963	67.16
738.283	67.09
738.602	66.99
738.921	67.12
739.24	67.27
739.56	67.2
739.879	67.2
740.198	67.46
740.517	67.26
740.836	67.4
741.155	67.54
741.473	67.69
741.792	67.77
742.111	67.76
742.43	67.67
742.748	67.98
743.067	67.92
743.386	67.99
743.704	68.37
744.023	68.4
744.341	68.42
744.66	68.74
744.978	68.53
745.297	68.73
745.615	68.66
745.933	68.46
746.252	68.47
746.57	68.55
746.888	68.45
747.206	68.71
747.524	69.04
747.842	69.11
748.16	69.17
748.478	68.96
748.796	69.14
749.114	69.17
749.432	68.86
749.749	68.79
750.067	68.58
750.385	68.4
750.703	68.7
751.02	68.71
751.338	68.4
751.655	68.63
751.973	68.72
752.29	68.95
752.608	69.1
752.925	69.04
753.242	68.8
753.56	68.71
753.877	68.71
754.194	68.53
754.511	68.32
754.828	68.24
755.145	68.53
755.462	68.57
755.779	68.54
756.096	68.79
756.413	69.12
756.73	69.63
757.047	69.79
757.364	69.6
757.68	69.81
757.997	69.3
758.314	69.19
758.63	68.93
758.947	68.77
759.264	68.6
759.58	68.6
759.896	68.96
760.213	69.14
760.529	69.19
760.846	68.93
761.162	69.23
761.478	69.1
761.794	68.81
762.11	68.58
762.426	68.78
762.743	68.84
763.059	68.78
763.375	68.62
763.69	68.63
764.006	68.62
764.322	68.46
764.638	68.72
764.954	68.49
765.27	68.4
765.585	68.49
765.901	68.32
766.216	68.48
766.532	68.26
766.848	68.17
767.163	68.04
767.478	68.21
767.794	68
768.109	68.15
768.424	68.16
768.74	68.34
769.055	67.99
769.37	67.88
769.685	68.05
770	68.2
770.315	68.15
770.63	68.54
770.945	68.69
771.26	68.59
771.575	68.7
771.89	69.18
772.205	69.44
772.52	69.79
772.834	69.41
773.149	69.69
773.464	69.67
773.778	70.03
774.093	70.1
774.407	70.39
774.722	70.45
775.036	70.85
775.351	70.77
775.665	70.9
775.979	70.9
776.293	70.23
776.608	70.19
776.922	69.93
777.236	69.59
777.55	68.57
777.864	68.93
778.178	69.55
778.492	69.1
778.806	68.8
779.12	69.14
779.434	69.24
779.747	68.76
780.061	68.75
780.375	68.45
780.689	68.35
781.002	68.63
781.316	68.88
781.629	68.58
781.943	68.79
782.256	68.54
782.57	68.54
782.883	68.81
783.196	68.54
783.51	68.87
783.823	68.83
784.136	69.78
784.449	69.86
784.762	69.85
785.075	70.47
785.388	70.51
785.701	70.38
786.014	70.11
786.327	70.82
786.64	70.86
786.953	70.86
787.266	70.73
787.578	70.35
787.891	70.21
788.204	70.25
788.516	70.59
788.829	71.04
789.141	70.96
789.454	71.07
789.766	71.35
790.079	71.23
790.391	71.69
790.703	72
791.016	72.08
791.328	71.86
791.64	71.76
791.952	72.24
792.264	72.53
792.576	72.77
792.888	71.95
793.2	71.97
793.512	72.14
793.824	72.79
794.136	72.69
794.448	72.65
794.76	72.08
795.071	71.42
795.383	70.89
795.695	70.66
796.006	70.53
796.318	70.35
796.629	70.53
796.941	69.92
797.252	69.56
797.564	69.38
797.875	69.63
798.186	69.73
798.497	69.17
798.809	68.51
799.12	68.95
799.431	69.21
799.742	69.25
800.053	69.27
800.364	68.71
800.675	68.46
800.986	67.97
801.297	68.65
801.608	68.2
801.918	68.38
802.229	68.52
802.54	68.61
802.851	68.33
803.161	68.23
803.472	68.1
803.782	68.39
804.093	68.52
804.403	67.89
804.714	67.61
805.024	67.22
805.334	66.95
805.645	66.71
805.955	67.43
806.265	68.28
806.575	67.27
806.885	67.45
807.195	68.12
807.505	68.25
807.815	68.18
808.125	69.37
808.435	69.37
808.745	69.33
809.055	69.39
809.365	69.32
809.674	68.88
809.984	69.33
810.294	68.6
810.603	68.84
810.913	69.25
811.222	68.93
811.532	69.1
811.841	69.86
812.151	69.93
812.46	69.22
812.769	67.96
813.079	68.73
813.388	68.72
813.697	68.25
814.006	67.86
814.315	68.6
814.624	67.25
814.933	67.35
815.242	66.93
815.551	66.85
815.86	67.35
816.169	67.19
816.478	66.9
816.786	67.36
817.095	66.94
817.404	67.17
817.712	67.42
818.021	68.44
818.33	68.36
818.638	68.31
818.947	69.28
819.255	69.66
819.563	69.56
819.872	69.5
820.18	69.19
820.488	69.4
820.796	69.29
821.105	69.47
821.413	69.72
821.721	69.99
822.029	70.33
822.337	70.16
822.645	70.1
822.953	70.12
823.26	70
823.568	70.23
823.876	70.26
824.184	70.28
824.491	70.23
824.799	70.25
825.107	70.31
825.414	70.26
825.722	70.38
826.029	70.45
826.337	70.64
826.644	70.85
826.951	70.92
827.259	70.8
827.566	70.61
827.873	70.61
828.18	70.59
828.488	70.19
828.795	70.55
829.102	70.88
829.409	71.36
829.716	71.82
830.023	71.37
830.329	71.12
830.636	71.53
830.943	71.22
831.25	70.98
831.557	70.94
831.863	71.02
832.17	71.06
832.476	71.34
832.783	71.33
833.089	71.36
833.396	71.61
833.702	71.89
834.009	72.39
834.315	71.95
834.621	72.03
834.928	72.38
835.234	72.1
835.54	72.05
835.846	71.9
836.152	71.62
836.458	71.49
836.764	71.52
837.07	71.22
837.376	71.72
837.682	72.46
837.988	72.22
838.293	71.45
838.599	71.66
838.905	71.68
839.211	70.06
839.516	69.68
839.822	69.74
840.127	69.71
840.433	69.76
840.738	70.1
841.044	69.81
841.349	68.8
841.654	68.7
841.959	68.13
842.265	67.29
842.57	67.32
842.875	68.01
843.18	68.63
843.485	68.88
843.79	67.11
844.095	65.89
844.4	67.5
844.705	68.04
845.01	66.73
845.315	67
845.619	69.59
845.924	70.69
846.229	68.91
846.533	70.32
846.838	70.9
847.142	72.33
847.447	73.44
847.751	74.59
848.056	74.58
848.36	76
848.664	76.88
848.969	76.45
849.273	77.3
849.577	75.47
849.881	75.33
850.185	78.2
850.489	78.23
850.794	76.12
851.097	76.05
851.401	75.5
851.705	74.4
852.009	72.47
852.313	71.83
852.617	72.85
852.92	70.78
853.224	70.88
853.528	70.38
853.831	67.7
854.135	69.66
854.438	71.26
854.742	72.67
855.045	71.02
855.349	70.78
855.652	69.11
855.955	68.81
856.259	68.65
856.562	69.28
856.865	70.17
857.168	71.84
857.471	71.99
857.774	72.81
858.077	73.74
858.38	75.97
858.683	74.41
858.986	74.21
859.289	73.66
859.592	75.04
859.894	74.1
860.197	76.49
860.5	74.35
860.802	72.71
861.105	66.43
861.407	67.4
861.71	69.4
862.012	71.8
862.315	74.82
862.617	75.04
862.919	74.03
863.222	70.08
863.524	71.73
863.826	72.04
864.128	74.6
864.43	73.94
864.732	72.89
865.034	76.69
865.336	77.93
865.638	75.62
865.94	74.54
866.242	75.02
866.544	72.29
866.846	73.83
867.147	75.63
867.449	81.81
867.751	79.82
868.052	77.45
868.354	75.03
868.655	74.88
868.957	75.64
869.258	73.6
869.56	76.76
869.861	72.41
870.162	70.45
870.463	70.03
870.765	69.42
871.066	70.49
871.367	67.76
871.668	66.68
871.969	68.1
872.27	66.52
872.571	66.49
872.872	70.73
873.173	70.21
873.473	68.7
873.774	66.48
874.075	65.72
874.376	67.16
874.676	68.7
874.977	66.33
875.277	65.24
875.578	66.39
875.878	66.27
876.179	67.9
876.479	69.67
876.78	66.67
877.08	66.12
877.38	64.85
877.68	65.62
877.981	65.87
878.281	67.42
878.581	69.31
