Data from BU26938_Reflection_00003.txt Node
Date: Tue Nov 19 10:42:11 EST 2019
User: vgr7
Spectrometer: USB2G7710
Scans to average: 3
Trigger mode: 4
Integration Time (sec): 2.000000E-2
Electric dark correction enabled: true
Boxcar width: 10
XAxis mode: Wavelengths
Number of Pixels in Spectrum: 2048
>>>>>Begin Spectral Data<<<<<
177.721	104.28
178.105	-976.92
178.488	874.44
178.871	3950
179.254	-61.29
179.636	298.86
180.019	127.3
180.402	-104.76
180.785	468.42
181.168	229.77
181.55	203.9
181.933	110.47
182.316	-107.79
182.698	1003.23
183.081	-40.68
183.463	-22.7
183.846	-129.51
184.228	-684.81
184.611	-2039.53
184.993	-982.35
185.376	-15614.29
185.758	342.9
186.14	450.82
186.522	319.09
186.904	681.4
187.287	218.53
187.669	284.17
188.051	176.64
188.433	344.22
188.815	262.09
189.197	156.84
189.579	135.94
189.961	168.97
190.342	113.11
190.724	233.18
191.106	267.12
191.488	124.72
191.869	73.62
192.251	42.1
192.633	40.43
193.014	44.61
193.396	21.52
193.777	22.11
194.159	-5.98
194.54	0.66
194.922	-1.93
195.303	4.16
195.684	-7.28
196.065	16.28
196.447	8.17
196.828	13.13
197.209	14.47
197.59	16.82
197.971	29.8
198.352	17.79
198.733	5.12
199.114	-2.31
199.495	2.18
199.876	0.37
200.257	-4.52
200.638	-9.46
201.018	-21.35
201.399	-20.82
201.78	-26.25
202.16	-12.54
202.541	-21.45
202.922	-23.06
203.302	-31.59
203.683	-34.55
204.063	-16.84
204.444	-18.88
204.824	-16.62
205.204	-16.37
205.585	6.13
205.965	-37.93
206.345	-1.84
206.725	22.61
207.106	14.83
207.486	-0.25
207.866	13.17
208.246	12.07
208.626	13.01
209.006	23.38
209.386	49.47
209.766	42.54
210.145	54.88
210.525	249.37
210.905	301.04
211.285	153.04
211.664	117.09
212.044	94.29
212.424	75.47
212.803	72.4
213.183	87.26
213.562	59.24
213.942	45.95
214.321	39.35
214.701	14.71
215.08	-18.53
215.459	-14.45
215.838	-44.77
216.218	-15.14
216.597	27.08
216.976	9.09
217.355	-2.85
217.734	-11.43
218.113	-22.21
218.492	-41.78
218.871	-39.22
219.25	-70.3
219.629	-76.78
220.008	-34.48
220.387	-41.99
220.766	-42.54
221.144	-51.67
221.523	-74.98
221.902	-68
222.28	-71.75
222.659	-37.7
223.037	-23.56
223.416	-15.64
223.794	-7.95
224.173	-21.39
224.551	-40.97
224.929	-40.54
225.308	-40.15
225.686	-38.6
226.064	-34.49
226.442	-25.74
226.821	-23.06
227.199	-16.62
227.577	-12.72
227.955	-15.63
228.333	-20.43
228.711	-13.24
229.089	-12.29
229.467	-10.61
229.845	-9.55
230.222	-6.07
230.6	-6.35
230.978	-6.31
231.356	-8.44
231.733	-6.16
232.111	-5.22
232.488	-2.78
232.866	-2.82
233.243	0.06
233.621	2.06
233.998	3.15
234.376	3.51
234.753	4.17
235.13	3.51
235.508	1.19
235.885	2.32
236.262	1.62
236.639	0.68
237.016	1.01
237.393	3.79
237.77	4.94
238.147	4.4
238.524	4.31
238.901	4.61
239.278	4.8
239.655	3.74
240.032	3.6
240.409	3.82
240.785	4.02
241.162	4.1
241.539	3.69
241.915	3.09
242.292	2.88
242.668	2.55
243.045	2.72
243.421	3.4
243.798	3.31
244.174	3.99
244.551	4.02
244.927	3.93
245.303	3.61
245.679	3.51
246.056	3.2
246.432	3.14
246.808	3.37
247.184	3.43
247.56	3.56
247.936	3.6
248.312	3.46
248.688	3.77
249.064	3.59
249.44	3.57
249.815	3.65
250.191	3.86
250.567	3.84
250.943	3.88
251.318	3.55
251.694	3.36
252.069	3.24
252.445	3.06
252.82	3.03
253.196	3.08
253.571	3.09
253.947	3.63
254.322	3.49
254.697	3.19
255.073	3.3
255.448	3.57
255.823	3.71
256.198	3.63
256.573	3.19
256.948	3.13
257.323	3.16
257.698	3.07
258.073	2.86
258.448	2.94
258.823	2.59
259.198	2.75
259.573	2.86
259.948	3
260.322	3.02
260.697	2.97
261.072	2.88
261.446	2.79
261.821	2.52
262.195	2.58
262.57	2.65
262.944	2.55
263.319	2.43
263.693	2.56
264.067	2.72
264.442	2.93
264.816	2.96
265.19	3.03
265.564	3.03
265.938	3.2
266.313	3.2
266.687	3.4
267.061	3.36
267.435	3.51
267.809	3.34
268.183	3.3
268.556	3.43
268.93	3.53
269.304	3.5
269.678	3.79
270.051	3.89
270.425	3.83
270.799	3.78
271.172	3.74
271.546	3.55
271.919	3.49
272.293	3.51
272.666	3.55
273.04	3.42
273.413	3.39
273.787	3.26
274.16	3.18
274.533	3.27
274.906	3.37
275.279	3.22
275.653	3.26
276.026	3.27
276.399	3.2
276.772	3.37
277.145	3.38
277.518	3.25
277.891	3.16
278.263	3.06
278.636	3.24
279.009	3.26
279.382	3.36
279.755	3.41
280.127	3.38
280.5	3.38
280.872	3.51
281.245	3.64
281.617	3.61
281.99	3.7
282.362	3.79
282.735	3.65
283.107	3.76
283.479	3.75
283.852	3.77
284.224	3.74
284.596	3.55
284.968	3.59
285.34	3.57
285.713	3.64
286.085	3.57
286.457	3.54
286.829	3.54
287.201	3.51
287.572	3.59
287.944	3.56
288.316	3.56
288.688	3.61
289.06	3.72
289.431	3.83
289.803	3.81
290.175	3.81
290.546	3.79
290.918	3.75
291.289	3.71
291.661	3.69
292.032	3.72
292.403	3.77
292.775	3.92
293.146	4.02
293.517	3.81
293.889	3.9
294.26	3.88
294.631	3.9
295.002	3.87
295.373	3.77
295.744	3.68
296.115	3.77
296.486	3.77
296.857	3.66
297.228	3.67
297.599	3.61
297.97	3.57
298.34	3.64
298.711	3.61
299.082	3.75
299.452	3.72
299.823	3.63
300.194	3.57
300.564	3.33
300.935	3.35
301.305	3.47
301.676	3.55
302.046	3.54
302.416	3.51
302.787	3.47
303.157	3.5
303.527	3.61
303.897	3.5
304.267	3.46
304.637	3.5
305.008	3.47
305.378	3.59
305.748	3.61
306.117	3.59
306.487	3.62
306.857	3.46
307.227	3.63
307.597	3.64
307.967	3.63
308.336	3.7
308.706	3.69
309.076	3.74
309.445	3.76
309.815	3.79
310.184	3.68
310.554	3.73
310.923	3.77
311.293	3.67
311.662	3.68
312.031	3.66
312.401	3.57
312.77	3.63
313.139	3.59
313.508	3.4
313.877	3.49
314.246	3.53
314.616	3.55
314.985	3.34
315.353	3.49
315.722	3.57
316.091	3.6
316.46	3.6
316.829	3.62
317.198	3.59
317.567	3.66
317.935	3.76
318.304	3.93
318.672	3.97
319.041	4.27
319.41	4.16
319.778	4.2
320.147	4.25
320.515	4.14
320.883	4.11
321.252	4.34
321.62	4.21
321.988	4.12
322.357	4.02
322.725	4.25
323.093	4.19
323.461	4.1
323.829	4.13
324.197	4.16
324.565	4.04
324.933	3.94
325.301	3.79
325.669	3.84
326.037	3.76
326.405	3.61
326.772	3.44
327.14	3.49
327.508	3.43
327.875	3.42
328.243	3.44
328.61	3.55
328.978	3.54
329.346	3.53
329.713	3.56
330.08	3.83
330.448	3.79
330.815	3.93
331.182	3.99
331.55	3.88
331.917	3.77
332.284	3.86
332.651	3.89
333.018	3.95
333.385	3.9
333.752	3.84
334.119	3.94
334.486	3.92
334.853	3.92
335.22	3.9
335.587	3.93
335.954	3.87
336.32	3.69
336.687	3.71
337.054	3.8
337.42	3.71
337.787	3.44
338.153	3.33
338.52	3.24
338.886	3.33
339.253	3.32
339.619	3.38
339.986	3.38
340.352	3.42
340.718	3.44
341.084	3.48
341.451	3.51
341.817	3.55
342.183	3.55
342.549	3.62
342.915	3.71
343.281	3.69
343.647	3.71
344.013	3.76
344.379	3.69
344.745	3.64
345.11	3.59
345.476	3.7
345.842	3.82
346.208	3.85
346.573	3.83
346.939	3.96
347.304	3.92
347.67	3.89
348.035	3.88
348.401	3.87
348.766	3.81
349.132	3.75
349.497	3.74
349.862	3.73
350.228	3.72
350.593	3.72
350.958	3.72
351.323	3.78
351.688	3.85
352.053	3.93
352.418	3.93
352.783	4.01
353.148	4
353.513	3.88
353.878	3.81
354.243	3.81
354.608	3.77
354.972	3.75
355.337	3.87
355.702	3.8
356.066	3.77
356.431	3.75
356.795	3.81
357.16	3.81
357.524	3.8
357.889	3.81
358.253	3.69
358.618	3.65
358.982	3.6
359.346	3.55
359.71	3.5
360.075	3.52
360.439	3.54
360.803	3.58
361.167	3.65
361.531	3.66
361.895	3.64
362.259	3.66
362.623	3.67
362.987	3.56
363.351	3.55
363.714	3.5
364.078	3.56
364.442	3.5
364.806	3.53
365.169	3.55
365.533	3.57
365.896	3.63
366.26	3.71
366.623	3.75
366.987	3.83
367.35	3.89
367.714	3.9
368.077	3.88
368.44	3.91
368.803	3.82
369.167	3.8
369.53	3.79
369.893	3.84
370.256	3.8
370.619	3.81
370.982	3.82
371.345	3.88
371.708	3.9
372.071	3.9
372.434	3.85
372.797	3.88
373.159	3.83
373.522	3.82
373.885	3.76
374.247	3.68
374.61	3.64
374.973	3.56
375.335	3.57
375.698	3.51
376.06	3.44
376.423	3.49
376.785	3.61
377.147	3.55
377.51	3.48
377.872	3.46
378.234	3.45
378.596	3.48
378.958	3.48
379.321	3.42
379.683	3.44
380.045	3.44
380.407	3.45
380.769	3.46
381.13	3.42
381.492	3.38
381.854	3.41
382.216	3.38
382.578	3.42
382.939	3.41
383.301	3.42
383.663	3.4
384.024	3.36
384.386	3.31
384.747	3.31
385.109	3.3
385.47	3.39
385.832	3.38
386.193	3.36
386.554	3.32
386.916	3.38
387.277	3.35
387.638	3.33
387.999	3.34
388.36	3.36
388.721	3.44
389.082	3.49
389.443	3.51
389.804	3.55
390.165	3.56
390.526	3.56
390.887	3.59
391.248	3.62
391.609	3.68
391.969	3.67
392.33	3.69
392.691	3.67
393.051	3.64
393.412	3.68
393.772	3.73
394.133	3.76
394.493	3.74
394.854	3.77
395.214	3.76
395.574	3.73
395.935	3.72
396.295	3.69
396.655	3.69
397.015	3.7
397.376	3.71
397.736	3.7
398.096	3.66
398.456	3.66
398.816	3.66
399.176	3.61
399.535	3.61
399.895	3.59
400.255	3.62
400.615	3.64
400.975	3.65
401.334	3.61
401.694	3.62
402.054	3.62
402.413	3.64
402.773	3.62
403.132	3.63
403.492	3.64
403.851	3.64
404.211	3.61
404.57	3.57
404.929	3.53
405.288	3.53
405.648	3.55
406.007	3.56
406.366	3.56
406.725	3.59
407.084	3.58
407.443	3.59
407.802	3.59
408.161	3.58
408.52	3.58
408.879	3.61
409.238	3.59
409.596	3.6
409.955	3.58
410.314	3.6
410.673	3.6
411.031	3.59
411.39	3.6
411.748	3.63
412.107	3.64
412.465	3.64
412.824	3.61
413.182	3.6
413.54	3.62
413.899	3.6
414.257	3.59
414.615	3.58
414.974	3.61
415.332	3.62
415.69	3.61
416.048	3.59
416.406	3.57
416.764	3.57
417.122	3.56
417.48	3.56
417.838	3.57
418.195	3.55
418.553	3.56
418.911	3.55
419.269	3.54
419.626	3.54
419.984	3.54
420.342	3.55
420.699	3.54
421.057	3.54
421.414	3.54
421.772	3.54
422.129	3.53
422.486	3.52
422.844	3.51
423.201	3.51
423.558	3.51
423.915	3.52
424.273	3.51
424.63	3.52
424.987	3.52
425.344	3.53
425.701	3.52
426.058	3.5
426.415	3.49
426.772	3.5
427.128	3.51
427.485	3.52
427.842	3.53
428.199	3.54
428.555	3.54
428.912	3.56
429.269	3.55
429.625	3.56
429.982	3.57
430.338	3.56
430.695	3.55
431.051	3.56
431.407	3.57
431.764	3.57
432.12	3.59
432.476	3.58
432.832	3.57
433.189	3.57
433.545	3.58
433.901	3.6
434.257	3.6
434.613	3.57
434.969	3.57
435.325	3.57
435.681	3.59
436.036	3.58
436.392	3.56
436.748	3.58
437.104	3.56
437.459	3.56
437.815	3.56
438.171	3.58
438.526	3.58
438.882	3.58
439.237	3.58
439.593	3.57
439.948	3.58
440.304	3.56
440.659	3.57
441.014	3.58
441.369	3.59
441.725	3.59
442.08	3.6
442.435	3.6
442.79	3.62
443.145	3.61
443.5	3.61
443.855	3.6
444.21	3.61
444.565	3.61
444.92	3.62
445.275	3.62
445.629	3.62
445.984	3.63
446.339	3.62
446.693	3.62
447.048	3.62
447.403	3.61
447.757	3.61
448.112	3.61
448.466	3.59
448.82	3.58
449.175	3.57
449.529	3.56
449.883	3.57
450.238	3.54
450.592	3.53
450.946	3.53
451.3	3.55
451.654	3.56
452.008	3.56
452.362	3.55
452.716	3.54
453.07	3.53
453.424	3.52
453.778	3.5
454.132	3.49
454.486	3.48
454.839	3.49
455.193	3.51
455.547	3.52
455.9	3.53
456.254	3.53
456.607	3.54
456.961	3.53
457.314	3.51
457.668	3.53
458.021	3.53
458.375	3.53
458.728	3.54
459.081	3.54
459.434	3.54
459.787	3.55
460.141	3.55
460.494	3.56
460.847	3.56
461.2	3.59
461.553	3.59
461.906	3.61
462.259	3.61
462.611	3.59
462.964	3.59
463.317	3.6
463.67	3.61
464.022	3.61
464.375	3.62
464.728	3.63
465.08	3.63
465.433	3.67
465.785	3.66
466.138	3.66
466.49	3.65
466.843	3.68
467.195	3.69
467.547	3.68
467.899	3.68
468.252	3.69
468.604	3.65
468.956	3.66
469.308	3.65
469.66	3.68
470.012	3.7
470.364	3.69
470.716	3.7
471.068	3.71
471.42	3.7
471.772	3.7
472.123	3.71
472.475	3.69
472.827	3.68
473.178	3.68
473.53	3.68
473.882	3.68
474.233	3.65
474.585	3.63
474.936	3.64
475.288	3.63
475.639	3.63
475.99	3.64
476.342	3.64
476.693	3.66
477.044	3.64
477.395	3.66
477.746	3.65
478.097	3.66
478.448	3.63
478.8	3.66
479.15	3.66
479.501	3.66
479.852	3.67
480.203	3.66
480.554	3.68
480.905	3.67
481.255	3.68
481.606	3.7
481.957	3.71
482.307	3.72
482.658	3.73
483.009	3.75
483.359	3.75
483.709	3.76
484.06	3.76
484.41	3.77
484.761	3.76
485.111	3.77
485.461	3.76
485.811	3.77
486.162	3.77
486.512	3.76
486.862	3.77
487.212	3.78
487.562	3.78
487.912	3.78
488.262	3.78
488.612	3.79
488.961	3.79
489.311	3.78
489.661	3.78
490.011	3.76
490.36	3.75
490.71	3.75
491.06	3.74
491.409	3.74
491.759	3.74
492.108	3.74
492.458	3.72
492.807	3.73
493.157	3.72
493.506	3.73
493.855	3.74
494.204	3.73
494.554	3.72
494.903	3.73
495.252	3.72
495.601	3.74
495.95	3.73
496.299	3.7
496.648	3.73
496.997	3.73
497.346	3.75
497.695	3.74
498.043	3.77
498.392	3.77
498.741	3.78
499.09	3.77
499.438	3.79
499.787	3.8
500.135	3.8
500.484	3.81
500.832	3.81
501.181	3.83
501.529	3.86
501.878	3.87
502.226	3.88
502.574	3.89
502.923	3.85
503.271	3.86
503.619	3.88
503.967	3.87
504.315	3.89
504.663	3.88
505.011	3.88
505.359	3.86
505.707	3.85
506.055	3.86
506.403	3.87
506.751	3.85
507.098	3.87
507.446	3.89
507.794	3.91
508.141	3.9
508.489	3.91
508.837	3.89
509.184	3.91
509.531	3.92
509.879	3.9
510.226	3.93
510.574	3.94
510.921	3.93
511.268	3.94
511.616	3.96
511.963	3.98
512.31	3.98
512.657	4.01
513.004	4.03
513.351	4.02
513.698	4
514.045	4
514.392	4
514.739	4.01
515.086	4.02
515.432	4.03
515.779	4.03
516.126	4.04
516.473	4.03
516.819	4.04
517.166	4.06
517.512	4.05
517.859	4.07
518.205	4.08
518.552	4.08
518.898	4.05
519.245	4.06
519.591	4.05
519.937	4.04
520.283	4.05
520.629	4.06
520.976	4.08
521.322	4.1
521.668	4.1
522.014	4.09
522.36	4.09
522.706	4.09
523.052	4.09
523.398	4.1
523.743	4.11
524.089	4.11
524.435	4.1
524.781	4.12
525.126	4.13
525.472	4.14
525.817	4.15
526.163	4.15
526.509	4.16
526.854	4.16
527.199	4.18
527.545	4.18
527.89	4.18
528.235	4.18
528.581	4.19
528.926	4.21
529.271	4.21
529.616	4.21
529.961	4.22
530.306	4.21
530.651	4.22
530.996	4.24
531.341	4.23
531.686	4.24
532.031	4.23
532.376	4.24
532.721	4.23
533.065	4.24
533.41	4.25
533.755	4.27
534.099	4.28
534.444	4.27
534.788	4.28
535.133	4.28
535.477	4.3
535.822	4.27
536.166	4.26
536.51	4.27
536.855	4.26
537.199	4.26
537.543	4.28
537.887	4.27
538.231	4.25
538.576	4.24
538.92	4.25
539.264	4.25
539.608	4.25
539.951	4.26
540.295	4.24
540.639	4.24
540.983	4.23
541.327	4.23
541.671	4.22
542.014	4.23
542.358	4.23
542.701	4.21
543.045	4.21
543.389	4.21
543.732	4.22
544.075	4.23
544.419	4.23
544.762	4.22
545.105	4.22
545.449	4.23
545.792	4.26
546.135	4.27
546.478	4.28
546.821	4.29
547.165	4.29
547.508	4.29
547.851	4.31
548.194	4.31
548.536	4.31
548.879	4.34
549.222	4.35
549.565	4.34
549.908	4.36
550.25	4.36
550.593	4.38
550.936	4.38
551.278	4.37
551.621	4.37
551.963	4.39
552.306	4.4
552.648	4.39
552.991	4.36
553.333	4.36
553.675	4.39
554.017	4.4
554.36	4.41
554.702	4.39
555.044	4.37
555.386	4.38
555.728	4.37
556.07	4.33
556.412	4.31
556.754	4.31
557.096	4.33
557.438	4.34
557.78	4.3
558.121	4.3
558.463	4.29
558.805	4.3
559.147	4.32
559.488	4.3
559.83	4.32
560.171	4.34
560.513	4.36
560.854	4.34
561.196	4.34
561.537	4.38
561.878	4.41
562.22	4.42
562.561	4.43
562.902	4.41
563.243	4.44
563.584	4.47
563.925	4.49
564.266	4.46
564.607	4.46
564.948	4.49
565.289	4.48
565.63	4.48
565.971	4.49
566.312	4.47
566.653	4.51
566.993	4.5
567.334	4.49
567.675	4.49
568.015	4.47
568.356	4.46
568.696	4.44
569.037	4.44
569.377	4.44
569.718	4.44
570.058	4.46
570.398	4.43
570.739	4.41
571.079	4.42
571.419	4.43
571.759	4.43
572.099	4.44
572.439	4.46
572.779	4.5
573.119	4.47
573.459	4.46
573.799	4.44
574.139	4.42
574.479	4.44
574.819	4.43
575.158	4.43
575.498	4.41
575.838	4.41
576.177	4.39
576.517	4.39
576.856	4.39
577.196	4.39
577.535	4.39
577.875	4.41
578.214	4.4
578.553	4.42
578.893	4.43
579.232	4.4
579.571	4.43
579.91	4.38
580.25	4.41
580.589	4.4
580.928	4.4
581.267	4.44
581.606	4.41
581.945	4.41
582.283	4.45
582.622	4.46
582.961	4.44
583.3	4.46
583.639	4.45
583.977	4.46
584.316	4.47
584.654	4.49
584.993	4.51
585.332	4.52
585.67	4.53
586.008	4.55
586.347	4.61
586.685	4.54
587.024	4.57
587.362	4.54
587.7	4.58
588.038	4.63
588.376	4.62
588.715	4.63
589.053	4.64
589.391	4.61
589.729	4.64
590.067	4.64
590.404	4.63
590.742	4.62
591.08	4.6
591.418	4.61
591.756	4.63
592.093	4.64
592.431	4.64
592.769	4.62
593.106	4.6
593.444	4.55
593.781	4.6
594.119	4.6
594.456	4.6
594.793	4.61
595.131	4.61
595.468	4.61
595.805	4.65
596.143	4.64
596.48	4.69
596.817	4.69
597.154	4.74
597.491	4.74
597.828	4.78
598.165	4.78
598.502	4.77
598.839	4.75
599.176	4.73
599.512	4.75
599.849	4.75
600.186	4.75
600.523	4.78
600.859	4.79
601.196	4.79
601.532	4.8
601.869	4.81
602.205	4.82
602.542	4.84
602.878	4.82
603.215	4.84
603.551	4.81
603.887	4.84
604.223	4.79
604.56	4.8
604.896	4.8
605.232	4.8
605.568	4.84
605.904	4.85
606.24	4.85
606.576	4.86
606.912	4.84
607.248	4.86
607.583	4.85
607.919	4.81
608.255	4.81
608.591	4.84
608.926	4.83
609.262	4.8
609.597	4.78
609.933	4.79
610.268	4.8
610.604	4.83
610.939	4.86
611.275	4.86
611.61	4.85
611.945	4.83
612.281	4.84
612.616	4.83
612.951	4.85
613.286	4.88
613.621	4.87
613.956	4.91
614.291	4.89
614.626	4.9
614.961	4.94
615.296	4.97
615.631	4.98
615.966	5
616.3	5.04
616.635	5.08
616.97	5.07
617.304	5.07
617.639	5.04
617.973	5.01
618.308	5.03
618.642	5.02
618.977	5.04
619.311	5.08
619.646	5.06
619.98	5.02
620.314	4.97
620.648	4.98
620.983	4.97
621.317	5
621.651	5
621.985	5.01
622.319	4.99
622.653	4.98
622.987	4.98
623.321	4.97
623.655	4.96
623.988	4.94
624.322	4.96
624.656	4.94
624.99	4.9
625.323	4.91
625.657	4.94
625.99	4.96
626.324	4.9
626.657	4.91
626.991	4.93
627.324	4.96
627.658	5.01
627.991	5.04
628.324	5.04
628.657	5.05
628.991	5.05
629.324	5.07
629.657	5.09
629.99	5.12
630.323	5.13
630.656	5.13
630.989	5.18
631.322	5.13
631.655	5.15
631.987	5.14
632.32	5.11
632.653	5.1
632.986	5.11
633.318	5.14
633.651	5.15
633.984	5.19
634.316	5.14
634.649	5.1
634.981	5.05
635.313	5.07
635.646	5.06
635.978	5.04
636.31	5.02
636.643	5.01
636.975	4.97
637.307	5.02
637.639	5.03
637.971	5.03
638.303	5.07
638.635	5.05
638.967	5.1
639.299	5.14
639.631	5.13
639.963	5.16
640.295	5.25
640.626	5.29
640.958	5.24
641.29	5.27
641.621	5.31
641.953	5.3
642.285	5.34
642.616	5.36
642.948	5.3
643.279	5.35
643.61	5.37
643.942	5.39
644.273	5.26
644.604	5.28
644.936	5.25
645.267	5.21
645.598	5.28
645.929	5.27
646.26	5.29
646.591	5.32
646.922	5.27
647.253	5.24
647.584	5.19
647.915	5.24
648.245	5.28
648.576	5.26
648.907	5.29
649.238	5.21
649.568	5.21
649.899	5.23
650.229	5.27
650.56	5.27
650.89	5.3
651.221	5.33
651.551	5.27
651.882	5.29
652.212	5.32
652.542	5.25
652.872	5.22
653.203	5.21
653.533	5.23
653.863	5.25
654.193	5.19
654.523	5.23
654.853	5.27
655.183	5.23
655.513	5.28
655.843	5.29
656.172	5.33
656.502	5.33
656.832	5.41
657.162	5.34
657.491	5.35
657.821	5.32
658.15	5.35
658.48	5.44
658.809	5.46
659.139	5.48
659.468	5.54
659.798	5.6
660.127	5.58
660.456	5.59
660.785	5.57
661.115	5.6
661.444	5.53
661.773	5.49
662.102	5.51
662.431	5.52
662.76	5.51
663.089	5.53
663.418	5.54
663.747	5.55
664.076	5.55
664.404	5.52
664.733	5.52
665.062	5.5
665.39	5.43
665.719	5.39
666.048	5.4
666.376	5.42
666.705	5.44
667.033	5.53
667.362	5.5
667.69	5.53
668.018	5.65
668.347	5.65
668.675	5.7
669.003	5.69
669.331	5.68
669.659	5.66
669.987	5.71
670.315	5.75
670.643	5.74
670.971	5.85
671.299	5.9
671.627	5.92
671.955	6
672.283	5.98
672.61	6.01
672.938	6.01
673.266	5.96
673.593	5.95
673.921	5.91
674.249	5.95
674.576	5.99
674.904	5.83
675.231	5.93
675.558	5.88
675.886	5.91
676.213	5.87
676.54	5.92
676.867	5.85
677.195	5.84
677.522	5.83
677.849	5.79
678.176	5.83
678.503	5.81
678.83	5.74
679.157	5.83
679.484	5.84
679.81	5.88
680.137	5.97
680.464	6.01
680.791	6.02
681.117	6.03
681.444	6.04
681.771	6.06
682.097	6.04
682.424	6.07
682.75	6.08
683.077	6.07
683.403	6.11
683.729	6.08
684.056	6.09
684.382	6.1
684.708	6.1
685.034	6.04
685.36	6.04
685.686	6.09
686.012	6.09
686.339	6.1
686.664	6.08
686.99	5.91
687.316	5.82
687.642	5.8
687.968	5.81
688.294	5.71
688.619	5.75
688.945	5.69
689.271	5.75
689.596	5.81
689.922	5.87
690.247	5.88
690.573	5.95
690.898	5.99
691.224	6
691.549	6.07
691.874	6.14
692.2	6.21
692.525	6.18
692.85	6.11
693.175	6.21
693.5	6.2
693.825	6.38
694.15	6.47
694.475	6.63
694.8	6.59
695.125	6.74
695.45	6.67
695.775	6.71
696.099	6.62
696.424	6.55
696.749	6.55
697.073	6.58
697.398	6.6
697.723	6.61
698.047	6.64
698.372	6.54
698.696	6.52
699.02	6.5
699.345	6.57
699.669	6.59
699.993	6.53
700.318	6.51
700.642	6.57
700.966	6.53
701.29	6.44
701.614	6.5
701.938	6.46
702.262	6.51
702.586	6.58
702.91	6.72
703.234	6.76
703.557	6.84
703.881	6.75
704.205	6.82
704.529	6.69
704.852	6.64
705.176	6.75
705.499	6.64
705.823	6.59
706.146	6.59
706.47	6.64
706.793	6.78
707.117	6.9
707.44	6.78
707.763	6.79
708.086	6.76
708.409	6.67
708.733	6.63
709.056	6.82
709.379	6.89
709.702	6.91
710.025	7.03
710.348	6.97
710.671	7.07
710.993	7
711.316	7.09
711.639	7.06
711.962	7.03
712.284	7.06
712.607	7.08
712.93	7.04
713.252	7.16
713.575	7.13
713.897	7.11
714.22	7.08
714.542	7.19
714.864	7.13
715.187	7.16
715.509	7.11
715.831	6.98
716.153	6.84
716.475	6.85
716.798	6.8
717.12	6.89
717.442	6.84
717.764	6.74
718.085	6.75
718.407	6.86
718.729	6.86
719.051	6.98
719.373	6.97
719.695	6.94
720.016	6.81
720.338	6.81
720.659	6.76
720.981	6.79
721.302	6.88
721.624	6.97
721.945	6.94
722.267	7.01
722.588	7.1
722.909	7.04
723.231	6.69
723.552	6.56
723.873	6.45
724.194	6.54
724.515	6.54
724.836	6.44
725.157	6.34
725.478	6.25
725.799	6.11
726.12	6.21
726.441	6.4
726.762	6.37
727.083	6.32
727.403	6.32
727.724	6.28
728.045	6.08
728.365	6.03
728.686	6.11
729.006	6.15
729.327	6.17
729.647	6.24
729.967	6.43
730.288	6.61
730.608	6.67
730.928	6.7
731.249	6.94
731.569	7.14
731.889	7.2
732.209	7.27
732.529	7.39
732.849	7.43
733.169	7.44
733.489	7.33
733.809	7.32
734.129	7.35
734.448	7.48
734.768	7.6
735.088	7.63
735.408	7.56
735.727	7.57
736.047	7.55
736.366	7.65
736.686	7.61
737.005	7.63
737.325	7.53
737.644	7.42
737.963	7.14
738.283	7.18
738.602	7.37
738.921	7.58
739.24	7.63
739.56	7.55
739.879	7.61
740.198	7.87
740.517	8.02
740.836	8.1
741.155	8.16
741.473	8.13
741.792	8.22
742.111	8.48
742.43	8.62
742.748	8.7
743.067	8.73
743.386	8.79
743.704	8.92
744.023	9.16
744.341	9.27
744.66	9.3
744.978	9.16
745.297	8.93
745.615	8.79
745.933	8.93
746.252	9.04
746.57	8.9
746.888	8.98
747.206	8.85
747.524	8.71
747.842	8.41
748.16	8.5
748.478	8.5
748.796	8.65
749.114	8.57
749.432	8.7
749.749	8.48
750.067	8.62
750.385	8.46
750.703	8.31
751.02	8.31
751.338	8.55
751.655	8.38
751.973	8.55
752.29	8.46
752.608	8.35
752.925	8.45
753.242	8.49
753.56	8.38
753.877	8.46
754.194	8.4
754.511	8.74
754.828	8.71
755.145	8.7
755.462	8.52
755.779	8.68
756.096	8.52
756.413	8.83
756.73	9.04
757.047	8.72
757.364	8.72
757.68	8.67
757.997	8.55
758.314	9.01
758.63	8.79
758.947	8.94
759.264	8.86
759.58	8.75
759.896	8.97
760.213	9.12
760.529	8.9
760.846	9.27
761.162	9.09
761.478	8.97
761.794	8.99
762.11	8.9
762.426	8.65
762.743	8.49
763.059	8.59
763.375	8.29
763.69	8.47
764.006	8.48
764.322	8.42
764.638	8.68
764.954	8.7
765.27	8.87
765.585	8.93
765.901	9.06
766.216	9.11
766.532	8.92
766.848	8.92
767.163	9.16
767.478	9.06
767.794	9.36
768.109	9.58
768.424	9.63
768.74	9.75
769.055	10.13
769.37	10.08
769.685	9.91
770	10.22
770.315	10.34
770.63	10.65
770.945	10.99
771.26	10.78
771.575	10.47
771.89	10.34
772.205	10.25
772.52	10.23
772.834	10.2
773.149	10.24
773.464	9.96
773.778	9.82
774.093	9.7
774.407	9.79
774.722	9.29
775.036	9.63
775.351	9.6
775.665	9.37
775.979	9.95
776.293	9.78
776.608	9.69
776.922	9.75
777.236	9.47
777.55	9.44
777.864	9.31
778.178	9.49
778.492	9.69
778.806	9.97
779.12	9.99
779.434	9.87
779.747	10.28
780.061	10.61
780.375	11.05
780.689	11.05
781.002	10.44
781.316	10.83
781.629	10.33
781.943	10.36
782.256	10.15
782.57	9.95
782.883	10.31
783.196	10.29
783.51	10.33
783.823	10.52
784.136	10.33
784.449	10.73
784.762	10.93
785.075	10.9
785.388	10.7
785.701	10.57
786.014	10.55
786.327	10.32
786.64	10.19
786.953	9.7
787.266	9.65
787.578	10.18
787.891	10.09
788.204	10.16
788.516	10.41
788.829	11.05
789.141	11.08
789.454	11.26
789.766	11.68
790.079	11.6
790.391	11.33
790.703	11.57
791.016	11.73
791.328	11.43
791.64	11.52
791.952	11.46
792.264	11.3
792.576	11.4
792.888	11.19
793.2	11.59
793.512	11.67
793.824	11.91
794.136	11.57
794.448	11.98
794.76	12.01
795.071	11.54
795.383	11.44
795.695	10.91
796.006	10.29
796.318	10.17
796.629	10.2
796.941	10.64
797.252	10.55
797.564	10.32
797.875	9.97
798.186	10.32
798.497	10.41
798.809	10.52
799.12	10.57
799.431	10.64
799.742	10.49
800.053	10.5
800.364	10.77
800.675	10.94
800.986	10.68
801.297	11.04
801.608	11.47
801.918	11.24
802.229	11.81
802.54	12.04
802.851	11.81
803.161	12.17
803.472	12.33
803.782	12.8
804.093	12.47
804.403	13.04
804.714	12.6
805.024	12.3
805.334	12.41
805.645	12.81
805.955	13.1
806.265	12.79
806.575	12.67
806.885	12.41
807.195	12.75
807.505	12.32
807.815	12.52
808.125	12.08
808.435	11.76
808.745	11.84
809.055	12.29
809.365	12.8
809.674	12.66
809.984	12.63
810.294	11.94
810.603	11.91
810.913	12.06
811.222	11.81
811.532	11.79
811.841	11.91
812.151	11.5
812.46	11.16
812.769	11.4
813.079	11.71
813.388	11.47
813.697	11.02
814.006	11.28
814.315	10.69
814.624	11.08
814.933	11.22
815.242	11.35
815.551	11.2
815.86	10.69
816.169	9.93
816.478	9.52
816.786	9.76
817.095	9.9
817.404	9.74
817.712	9.52
818.021	10.3
818.33	10.54
818.638	10.67
818.947	10.9
819.255	10.84
819.563	10.98
819.872	10.93
820.18	10.88
820.488	10.94
820.796	10.81
821.105	10.88
821.413	11.22
821.721	10.99
822.029	10.93
822.337	10.97
822.645	11.2
822.953	11.33
823.26	11.36
823.568	11.42
823.876	11.41
824.184	11.59
824.491	11.58
824.799	11.59
825.107	11.49
825.414	11.41
825.722	11.37
826.029	11.32
826.337	11.47
826.644	11.54
826.951	11.48
827.259	11.75
827.566	11.81
827.873	11.69
828.18	11.99
828.488	12.09
828.795	12.2
829.102	12.08
829.409	11.73
829.716	11.77
830.023	11.79
830.329	11.73
830.636	11.55
830.943	11.2
831.25	11.22
831.557	11.51
831.863	11.88
832.17	12.12
832.476	12.02
832.783	12
833.089	12.04
833.396	12.17
833.702	11.78
834.009	11.5
834.315	11.74
834.621	11.35
834.928	11.44
835.234	11.41
835.54	11.51
835.846	11.54
836.152	11.29
836.458	11.06
836.764	11.46
837.07	11.41
837.376	11.62
837.682	11.36
837.988	11.71
838.293	11.47
838.599	11.17
838.905	11.51
839.211	10.98
839.516	10.7
839.822	11.31
840.127	12.03
840.433	12.59
840.738	12.02
841.044	12.45
841.349	11.89
841.654	11.66
841.959	13.31
842.265	14.37
842.57	14.72
842.875	15.41
843.18	15.49
843.485	15.58
843.79	15.23
844.095	16.14
844.4	16.26
844.705	16.35
845.01	17.07
845.315	17.23
845.619	18.66
845.924	18.39
846.229	18.33
846.533	16.85
846.838	15.13
847.142	15
847.447	15.32
847.751	16.35
848.056	16.06
848.36	13.63
848.664	13.65
848.969	14.33
849.273	14.13
849.577	14.52
849.881	16.64
850.185	17.61
850.489	16.59
850.794	16.71
851.097	17.23
851.401	16.27
851.705	16.32
852.009	17.93
852.313	18.09
852.617	17.35
852.92	20.18
853.224	21.74
853.528	22.33
853.831	23.35
854.135	23.9
854.438	25.28
854.742	25.6
855.045	24.41
855.349	22.33
855.652	23.54
855.955	21.97
856.259	21.99
856.562	21.94
856.865	23.26
857.168	24.06
857.471	24.18
857.774	24.82
858.077	25.67
858.38	24.01
858.683	26.76
858.986	25.61
859.289	26.24
859.592	27.06
859.894	26.54
860.197	25.12
860.5	24.74
860.802	23.38
861.105	21.94
861.407	24.02
861.71	24.23
862.012	25.54
862.315	27.15
862.617	27.03
862.919	27.4
863.222	26.84
863.524	24.67
863.826	23.11
864.128	24.03
864.43	24.05
864.732	23.44
865.034	22.81
865.336	23.97
865.638	20.95
865.94	20.37
866.242	22.21
866.544	23.27
866.846	24.8
867.147	25.73
867.449	25.6
867.751	24.46
868.052	25.45
868.354	23
868.655	22.79
868.957	21.51
869.258	22.09
869.56	22.75
869.861	23.6
870.162	24.15
870.463	25.17
870.765	23.32
871.066	23.69
871.367	21.39
871.668	21.82
871.969	19.36
872.27	17.72
872.571	15.25
872.872	13.66
873.173	11.26
873.473	11.57
873.774	11.12
874.075	12.48
874.376	13.28
874.676	15.15
874.977	14.77
875.277	12.46
875.578	12.61
875.878	11.32
876.179	9.7
876.479	9.51
876.78	6.7
877.08	6.99
877.38	5.75
877.68	7.2
877.981	7.32
878.281	11.96
878.581	14.32
