Data from BU26847_Reflection_00010.txt Node
Date: Mon Nov 18 16:41:01 EST 2019
User: vgr7
Spectrometer: USB2G7710
Scans to average: 3
Trigger mode: 4
Integration Time (sec): 2.000000E-2
Electric dark correction enabled: true
Boxcar width: 10
XAxis mode: Wavelengths
Number of Pixels in Spectrum: 2048
>>>>>Begin Spectral Data<<<<<
177.721	105.95
178.105	150.85
178.488	511.76
178.871	-89.19
179.254	169.77
179.636	-6.16
180.019	164.04
180.402	68.42
180.785	-314.63
181.168	318.75
181.55	-172.73
181.933	140
182.316	81.33
182.698	47.37
183.081	23.36
183.463	19.43
183.846	-3.24
184.228	-81.35
184.611	-318.18
184.993	-8900
185.376	-105.67
185.758	4433.33
186.14	-481.4
186.522	-176.6
186.904	352.75
187.287	174.63
187.669	65.36
188.051	14.5
188.433	41.83
188.815	26
189.197	77.04
189.579	59.29
189.961	70.54
190.342	59.64
190.724	45.13
191.106	32
191.488	44.25
191.869	28.99
192.251	-2.87
192.633	17.98
193.014	20.19
193.396	-3.45
193.777	-18.17
194.159	-34.59
194.54	-34.68
194.922	-20.27
195.303	-11.71
195.684	-28.04
196.065	22.61
196.447	37.97
196.828	19.93
197.209	31.1
197.59	22.72
197.971	4.92
198.352	1.67
198.733	-24.24
199.114	-1.74
199.495	7.37
199.876	56.85
200.257	59.58
200.638	66.42
201.018	52.79
201.399	77
201.78	109.66
202.16	115.71
202.541	144.29
202.922	120.41
203.302	341.38
203.683	4.46
204.063	84.23
204.444	96.44
204.824	23.08
205.204	86.67
205.585	37.76
205.965	-100
206.345	-20.82
206.725	-50.52
207.106	8.67
207.486	-3.33
207.866	27.64
208.246	26.05
208.626	93.87
209.006	-5.08
209.386	78.46
209.766	94.48
210.145	61.75
210.525	-17.12
210.905	170.06
211.285	191.89
211.664	128.72
212.044	102.41
212.424	84.55
212.803	60.84
213.183	39.1
213.562	-16.49
213.942	-18.96
214.321	-9.49
214.701	-28.68
215.08	11.3
215.459	3.23
215.838	31.67
216.218	47.64
216.597	58.17
216.976	39.54
217.355	60.77
217.734	98.75
218.113	89.88
218.492	103.48
218.871	72.42
219.25	63.62
219.629	54.67
220.008	91.44
220.387	106.37
220.766	96.03
221.144	99.16
221.523	115.27
221.902	85.18
222.28	99.12
222.659	97.89
223.037	92.15
223.416	91.06
223.794	70.57
224.173	46.84
224.551	38.57
224.929	31.71
225.308	28.29
225.686	21.83
226.064	20.37
226.442	16.32
226.821	18.75
227.199	15.54
227.577	13.11
227.955	6.86
228.333	3.06
228.711	6.44
229.089	11.44
229.467	12.15
229.845	9.97
230.222	10.47
230.6	5.96
230.978	6.79
231.356	9.67
231.733	8.65
232.111	12.03
232.488	14.03
232.866	14.91
233.243	14.42
233.621	11.72
233.998	12.31
234.376	10.85
234.753	9.57
235.13	9.34
235.508	11.99
235.885	13
236.262	11.49
236.639	9.83
237.016	8.33
237.393	9.66
237.77	10.61
238.147	9.02
238.524	8.48
238.901	8.56
239.278	8.23
239.655	8.3
240.032	7.52
240.409	7
240.785	6.34
241.162	6.41
241.539	6.29
241.915	6.04
242.292	5.82
242.668	5.82
243.045	6.12
243.421	5.75
243.798	5.72
244.174	5.78
244.551	5.67
244.927	5.34
245.303	5.31
245.679	5.34
246.056	5.45
246.432	5.25
246.808	5.23
247.184	5.02
247.56	4.78
247.936	4.6
248.312	4.69
248.688	4.79
249.064	4.7
249.44	4.74
249.815	4.64
250.191	4.78
250.567	4.78
250.943	4.94
251.318	4.94
251.694	4.76
252.069	4.72
252.445	4.64
252.82	4.52
253.196	4.38
253.571	4.24
253.947	4.02
254.322	4.56
254.697	4.03
255.073	3.94
255.448	3.92
255.823	4.06
256.198	3.72
256.573	3.66
256.948	3.64
257.323	3.8
257.698	3.95
258.073	3.75
258.448	3.73
258.823	3.45
259.198	3.33
259.573	3.29
259.948	3.37
260.322	3.48
260.697	3.58
261.072	3.55
261.446	3.62
261.821	3.66
262.195	3.59
262.57	3.8
262.944	3.79
263.319	3.87
263.693	3.79
264.067	3.93
264.442	3.92
264.816	3.73
265.19	3.61
265.564	3.56
265.938	3.7
266.313	3.81
266.687	3.86
267.061	4.08
267.435	4.2
267.809	4.07
268.183	4.13
268.556	4.19
268.93	3.99
269.304	4.02
269.678	3.92
270.051	3.98
270.425	3.77
270.799	3.77
271.172	3.81
271.546	3.85
271.919	3.77
272.293	3.88
272.666	4.11
273.04	4.23
273.413	4.1
273.787	4.02
274.16	4.06
274.533	3.95
274.906	3.62
275.279	3.74
275.653	3.75
276.026	3.68
276.399	3.62
276.772	3.71
277.145	3.71
277.518	3.85
277.891	3.92
278.263	4.08
278.636	4.08
279.009	4.1
279.382	4.23
279.755	4.23
280.127	4.31
280.5	4.29
280.872	4.13
281.245	4.12
281.617	4.26
281.99	4.02
282.362	4.11
282.735	4.26
283.107	4.12
283.479	4.21
283.852	4.12
284.224	4.07
284.596	4.1
284.968	4.02
285.34	4.01
285.713	3.91
286.085	3.91
286.457	3.97
286.829	3.94
287.201	3.82
287.572	3.92
287.944	3.82
288.316	3.79
288.688	3.76
289.06	3.73
289.431	3.61
289.803	3.85
290.175	3.89
290.546	3.93
290.918	3.87
291.289	3.84
291.661	3.88
292.032	4.07
292.403	4.02
292.775	4.03
293.146	3.95
293.517	4.12
293.889	4.12
294.26	4.15
294.631	4.19
295.002	4.24
295.373	4.14
295.744	4.2
296.115	4.18
296.486	4.14
296.857	4.32
297.228	4.42
297.599	4.24
297.97	4.11
298.34	4.1
298.711	4.23
299.082	4.28
299.452	4.33
299.823	4.28
300.194	4.31
300.564	4.44
300.935	4.52
301.305	4.44
301.676	4.54
302.046	4.61
302.416	4.74
302.787	4.82
303.157	4.91
303.527	4.76
303.897	4.83
304.267	4.93
304.637	4.97
305.008	5.1
305.378	5.23
305.748	5.43
306.117	5.44
306.487	5.39
306.857	5.35
307.227	5.49
307.597	5.4
307.967	5.37
308.336	5.31
308.706	5.33
309.076	5.19
309.445	5.03
309.815	4.87
310.184	4.72
310.554	4.76
310.923	4.68
311.293	4.85
311.662	4.9
312.031	4.93
312.401	4.74
312.77	4.57
313.139	4.78
313.508	4.72
313.877	4.72
314.246	4.75
314.616	4.83
314.985	4.78
315.353	4.83
315.722	5.06
316.091	5.1
316.46	5.21
316.829	5.38
317.198	5.43
317.567	5.61
317.935	5.81
318.304	5.85
318.672	5.99
319.041	6.04
319.41	6.08
319.778	6.14
320.147	6.4
320.515	6.59
320.883	6.28
321.252	6.37
321.62	6.55
321.988	6.71
322.357	6.65
322.725	6.62
323.093	6.68
323.461	6.65
323.829	6.77
324.197	6.77
324.565	6.66
324.933	6.78
325.301	6.74
325.669	6.81
326.037	6.83
326.405	6.86
326.772	6.93
327.14	7.02
327.508	7.16
327.875	7.01
328.243	7.07
328.61	7.17
328.978	7.27
329.346	7.28
329.713	7.12
330.08	7.25
330.448	7.29
330.815	7.29
331.182	7.2
331.55	7.22
331.917	7.34
332.284	7.65
332.651	7.56
333.018	7.63
333.385	7.48
333.752	7.61
334.119	7.73
334.486	7.66
334.853	7.64
335.22	7.62
335.587	7.86
335.954	7.76
336.32	7.82
336.687	7.86
337.054	7.92
337.42	8.1
337.787	8.1
338.153	8.16
338.52	8.18
338.886	8.33
339.253	8.21
339.619	8.23
339.986	8.16
340.352	8.31
340.718	8.38
341.084	8.41
341.451	8.34
341.817	8.48
342.183	8.42
342.549	8.49
342.915	8.48
343.281	8.37
343.647	8.52
344.013	8.57
344.379	8.42
344.745	8.4
345.11	8.41
345.476	8.38
345.842	8.39
346.208	8.44
346.573	8.43
346.939	8.53
347.304	8.48
347.67	8.38
348.035	8.32
348.401	8.33
348.766	8.34
349.132	8.42
349.497	8.32
349.862	8.48
350.228	8.49
350.593	8.4
350.958	8.41
351.323	8.37
351.688	8.35
352.053	8.52
352.418	8.54
352.783	8.51
353.148	8.56
353.513	8.51
353.878	8.45
354.243	8.49
354.608	8.46
354.972	8.4
355.337	8.5
355.702	8.64
356.066	8.6
356.431	8.57
356.795	8.51
357.16	8.44
357.524	8.28
357.889	8.19
358.253	8.26
358.618	8.34
358.982	8.26
359.346	8.19
359.71	8.17
360.075	8.15
360.439	8.12
360.803	8.09
361.167	8.07
361.531	8.1
361.895	8
362.259	7.99
362.623	7.96
362.987	7.98
363.351	7.96
363.714	7.96
364.078	7.9
364.442	7.83
364.806	7.83
365.169	7.87
365.533	7.83
365.896	7.85
366.26	7.73
366.623	7.77
366.987	7.69
367.35	7.57
367.714	7.56
368.077	7.52
368.44	7.45
368.803	7.38
369.167	7.27
369.53	7.22
369.893	7.25
370.256	7.21
370.619	7.06
370.982	6.86
371.345	6.74
371.708	6.79
372.071	6.77
372.434	6.72
372.797	6.67
373.159	6.62
373.522	6.53
373.885	6.55
374.247	6.5
374.61	6.56
374.973	6.61
375.335	6.53
375.698	6.45
376.06	6.44
376.423	6.43
376.785	6.46
377.147	6.47
377.51	6.39
377.872	6.43
378.234	6.42
378.596	6.46
378.958	6.46
379.321	6.4
379.683	6.36
380.045	6.28
380.407	6.31
380.769	6.26
381.13	6.21
381.492	6.17
381.854	6.12
382.216	6.08
382.578	6.02
382.939	6.02
383.301	6.04
383.663	6.01
384.024	5.97
384.386	5.95
384.747	5.95
385.109	5.92
385.47	5.84
385.832	5.83
386.193	5.83
386.554	5.81
386.916	5.83
387.277	5.79
387.638	5.76
387.999	5.68
388.36	5.7
388.721	5.73
389.082	5.68
389.443	5.64
389.804	5.58
390.165	5.53
390.526	5.47
390.887	5.43
391.248	5.44
391.609	5.42
391.969	5.39
392.33	5.31
392.691	5.26
393.051	5.24
393.412	5.2
393.772	5.12
394.133	5.08
394.493	5
394.854	4.99
395.214	4.97
395.574	4.96
395.935	4.88
396.295	4.84
396.655	4.78
397.015	4.79
397.376	4.77
397.736	4.76
398.096	4.71
398.456	4.69
398.816	4.58
399.176	4.53
399.535	4.51
399.895	4.49
400.255	4.5
400.615	4.45
400.975	4.43
401.334	4.39
401.694	4.37
402.054	4.33
402.413	4.33
402.773	4.28
403.132	4.26
403.492	4.27
403.851	4.22
404.211	4.19
404.57	4.14
404.929	4.13
405.288	4.1
405.648	4.12
406.007	4.09
406.366	4.14
406.725	4.15
407.084	4.12
407.443	4.12
407.802	4.1
408.161	4.1
408.52	4.11
408.879	4.14
409.238	4.17
409.596	4.2
409.955	4.15
410.314	4.2
410.673	4.16
411.031	4.14
411.39	4.16
411.748	4.17
412.107	4.18
412.465	4.14
412.824	4.14
413.182	4.14
413.54	4.15
413.899	4.12
414.257	4.07
414.615	4.05
414.974	4.05
415.332	4.04
415.69	4.02
416.048	4
416.406	3.97
416.764	3.93
417.122	3.93
417.48	3.92
417.838	3.92
418.195	3.92
418.553	3.92
418.911	3.9
419.269	3.91
419.626	3.89
419.984	3.89
420.342	3.89
420.699	3.86
421.057	3.84
421.414	3.83
421.772	3.83
422.129	3.82
422.486	3.8
422.844	3.79
423.201	3.78
423.558	3.78
423.915	3.78
424.273	3.77
424.63	3.77
424.987	3.76
425.344	3.74
425.701	3.73
426.058	3.73
426.415	3.71
426.772	3.7
427.128	3.69
427.485	3.7
427.842	3.68
428.199	3.67
428.555	3.68
428.912	3.69
429.269	3.7
429.625	3.7
429.982	3.69
430.338	3.68
430.695	3.69
431.051	3.69
431.407	3.69
431.764	3.69
432.12	3.65
432.476	3.67
432.832	3.67
433.189	3.67
433.545	3.64
433.901	3.65
434.257	3.66
434.613	3.67
434.969	3.66
435.325	3.66
435.681	3.68
436.036	3.66
436.392	3.68
436.748	3.66
437.104	3.65
437.459	3.64
437.815	3.64
438.171	3.63
438.526	3.62
438.882	3.62
439.237	3.64
439.593	3.65
439.948	3.65
440.304	3.64
440.659	3.63
441.014	3.66
441.369	3.64
441.725	3.62
442.08	3.62
442.435	3.62
442.79	3.61
443.145	3.6
443.5	3.61
443.855	3.58
444.21	3.58
444.565	3.61
444.92	3.62
445.275	3.63
445.629	3.64
445.984	3.64
446.339	3.62
446.693	3.61
447.048	3.61
447.403	3.59
447.757	3.6
448.112	3.59
448.466	3.58
448.82	3.59
449.175	3.6
449.529	3.59
449.883	3.57
450.238	3.58
450.592	3.57
450.946	3.56
451.3	3.56
451.654	3.55
452.008	3.53
452.362	3.53
452.716	3.53
453.07	3.52
453.424	3.51
453.778	3.53
454.132	3.5
454.486	3.49
454.839	3.49
455.193	3.49
455.547	3.48
455.9	3.49
456.254	3.49
456.607	3.49
456.961	3.48
457.314	3.5
457.668	3.5
458.021	3.51
458.375	3.51
458.728	3.51
459.081	3.53
459.434	3.52
459.787	3.53
460.141	3.52
460.494	3.53
460.847	3.54
461.2	3.53
461.553	3.55
461.906	3.57
462.259	3.57
462.611	3.58
462.964	3.61
463.317	3.59
463.67	3.62
464.022	3.61
464.375	3.61
464.728	3.6
465.08	3.62
465.433	3.61
465.785	3.61
466.138	3.63
466.49	3.63
466.843	3.63
467.195	3.64
467.547	3.66
467.899	3.67
468.252	3.66
468.604	3.67
468.956	3.69
469.308	3.71
469.66	3.71
470.012	3.72
470.364	3.74
470.716	3.75
471.068	3.74
471.42	3.74
471.772	3.77
472.123	3.79
472.475	3.78
472.827	3.79
473.178	3.79
473.53	3.8
473.882	3.81
474.233	3.83
474.585	3.81
474.936	3.81
475.288	3.79
475.639	3.8
475.99	3.81
476.342	3.8
476.693	3.78
477.044	3.79
477.395	3.78
477.746	3.76
478.097	3.77
478.448	3.77
478.8	3.77
479.15	3.75
479.501	3.75
479.852	3.75
480.203	3.77
480.554	3.78
480.905	3.77
481.255	3.77
481.606	3.78
481.957	3.78
482.307	3.78
482.658	3.78
483.009	3.77
483.359	3.77
483.709	3.77
484.06	3.78
484.41	3.78
484.761	3.79
485.111	3.79
485.461	3.79
485.811	3.8
486.162	3.8
486.512	3.8
486.862	3.81
487.212	3.81
487.562	3.82
487.912	3.82
488.262	3.81
488.612	3.82
488.961	3.81
489.311	3.83
489.661	3.83
490.011	3.85
490.36	3.85
490.71	3.87
491.06	3.88
491.409	3.88
491.759	3.9
492.108	3.89
492.458	3.9
492.807	3.91
493.157	3.91
493.506	3.94
493.855	3.95
494.204	3.96
494.554	3.96
494.903	3.96
495.252	3.96
495.601	3.98
495.95	4.01
496.299	4.02
496.648	4.01
496.997	4.04
497.346	4.05
497.695	4.07
498.043	4.06
498.392	4.07
498.741	4.1
499.09	4.1
499.438	4.12
499.787	4.18
500.135	4.2
500.484	4.24
500.832	4.25
501.181	4.29
501.529	4.32
501.878	4.37
502.226	4.41
502.574	4.45
502.923	4.48
503.271	4.5
503.619	4.54
503.967	4.6
504.315	4.61
504.663	4.65
505.011	4.69
505.359	4.75
505.707	4.79
506.055	4.84
506.403	4.9
506.751	4.94
507.098	4.96
507.446	5.03
507.794	5.07
508.141	5.12
508.489	5.15
508.837	5.19
509.184	5.23
509.531	5.31
509.879	5.39
510.226	5.46
510.574	5.52
510.921	5.6
511.268	5.64
511.616	5.72
511.963	5.79
512.31	5.88
512.657	5.93
513.004	6.01
513.351	6.08
513.698	6.16
514.045	6.25
514.392	6.34
514.739	6.4
515.086	6.48
515.432	6.56
515.779	6.64
516.126	6.73
516.473	6.81
516.819	6.89
517.166	6.95
517.512	7.02
517.859	7.1
518.205	7.19
518.552	7.27
518.898	7.34
519.245	7.42
519.591	7.48
519.937	7.56
520.283	7.66
520.629	7.74
520.976	7.83
521.322	7.94
521.668	8.02
522.014	8.11
522.36	8.24
522.706	8.36
523.052	8.48
523.398	8.63
523.743	8.75
524.089	8.89
524.435	9.02
524.781	9.14
525.126	9.24
525.472	9.32
525.817	9.41
526.163	9.49
526.509	9.58
526.854	9.68
527.199	9.76
527.545	9.85
527.89	9.92
528.235	9.99
528.581	10.06
528.926	10.14
529.271	10.23
529.616	10.29
529.961	10.36
530.306	10.43
530.651	10.5
530.996	10.58
531.341	10.66
531.686	10.74
532.031	10.82
532.376	10.92
532.721	11.01
533.065	11.13
533.41	11.24
533.755	11.33
534.099	11.43
534.444	11.53
534.788	11.62
535.133	11.71
535.477	11.83
535.822	11.94
536.166	12.05
536.51	12.19
536.855	12.34
537.199	12.49
537.543	12.64
537.887	12.81
538.231	12.98
538.576	13.12
538.92	13.29
539.264	13.47
539.608	13.62
539.951	13.78
540.295	13.92
540.639	14.05
540.983	14.2
541.327	14.33
541.671	14.46
542.014	14.59
542.358	14.74
542.701	14.85
543.045	14.99
543.389	15.12
543.732	15.26
544.075	15.42
544.419	15.55
544.762	15.75
545.105	15.9
545.449	16.08
545.792	16.26
546.135	16.42
546.478	16.61
546.821	16.84
547.165	17.06
547.508	17.29
547.851	17.51
548.194	17.72
548.536	17.93
548.879	18.17
549.222	18.39
549.565	18.6
549.908	18.9
550.25	19.11
550.593	19.39
550.936	19.65
551.278	19.92
551.621	20.19
551.963	20.45
552.306	20.71
552.648	21
552.991	21.3
553.333	21.61
553.675	21.86
554.017	22.1
554.36	22.37
554.702	22.65
555.044	22.91
555.386	23.22
555.728	23.48
556.07	23.81
556.412	24.1
556.754	24.42
557.096	24.66
557.438	25.05
557.78	25.33
558.121	25.6
558.463	25.89
558.805	26.2
559.147	26.5
559.488	26.83
559.83	27.14
560.171	27.38
560.513	27.67
560.854	27.99
561.196	28.3
561.537	28.6
561.878	28.89
562.22	29.17
562.561	29.44
562.902	29.77
563.243	30.02
563.584	30.35
563.925	30.63
564.266	30.93
564.607	31.16
564.948	31.48
565.289	31.76
565.63	32.04
565.971	32.31
566.312	32.57
566.653	32.78
566.993	33.07
567.334	33.36
567.675	33.6
568.015	33.9
568.356	34.17
568.696	34.46
569.037	34.71
569.377	34.99
569.718	35.24
570.058	35.55
570.398	35.86
570.739	36.1
571.079	36.35
571.419	36.63
571.759	36.89
572.099	37.13
572.439	37.34
572.779	37.61
573.119	37.88
573.459	38.13
573.799	38.42
574.139	38.64
574.479	38.85
574.819	39.09
575.158	39.27
575.498	39.47
575.838	39.69
576.177	39.9
576.517	40.2
576.856	40.47
577.196	40.69
577.535	40.89
577.875	41.11
578.214	41.4
578.553	41.67
578.893	41.88
579.232	42.08
579.571	42.42
579.91	42.59
580.25	42.81
580.589	43.02
580.928	43.28
581.267	43.45
581.606	43.72
581.945	43.92
582.283	44.27
582.622	44.54
582.961	44.68
583.3	44.84
583.639	44.97
583.977	45.11
584.316	45.25
584.654	45.47
584.993	45.71
585.332	45.88
585.67	46.03
586.008	46.26
586.347	46.47
586.685	46.6
587.024	46.77
587.362	46.96
587.7	47.19
588.038	47.25
588.376	47.47
588.715	47.64
589.053	47.86
589.391	47.9
589.729	48.07
590.067	48.28
590.404	48.52
590.742	48.7
591.08	48.95
591.418	49.09
591.756	49.27
592.093	49.44
592.431	49.7
592.769	49.81
593.106	49.98
593.444	50.1
593.781	50.21
594.119	50.3
594.456	50.49
594.793	50.56
595.131	50.68
595.468	50.74
595.805	50.83
596.143	50.92
596.48	51.08
596.817	51.15
597.154	51.21
597.491	51.29
597.828	51.35
598.165	51.39
598.502	51.47
598.839	51.49
599.176	51.6
599.512	51.63
599.849	51.78
600.186	51.92
600.523	52.04
600.859	52.25
601.196	52.52
601.532	52.57
601.869	52.69
602.205	52.91
602.542	53.03
602.878	53.11
603.215	53.21
603.551	53.3
603.887	53.35
604.223	53.44
604.56	53.56
604.896	53.69
605.232	53.81
605.568	54
605.904	54.16
606.24	54.24
606.576	54.27
606.912	54.33
607.248	54.38
607.583	54.53
607.919	54.55
608.255	54.5
608.591	54.58
608.926	54.7
609.262	54.76
609.597	54.82
609.933	54.95
610.268	54.94
610.604	55.04
610.939	55.17
611.275	55.26
611.61	55.3
611.945	55.42
612.281	55.44
612.616	55.48
612.951	55.53
613.286	55.61
613.621	55.74
613.956	55.92
614.291	55.93
614.626	55.99
614.961	56.12
615.296	56.25
615.631	56.37
615.966	56.43
616.3	56.48
616.635	56.57
616.97	56.66
617.304	56.81
617.639	56.79
617.973	56.76
618.308	56.75
618.642	56.79
618.977	56.79
619.311	56.87
619.646	56.9
619.98	56.93
620.314	56.97
620.648	57.02
620.983	56.95
621.317	56.95
621.651	56.93
621.985	56.99
622.319	57.05
622.653	56.99
622.987	57.01
623.321	57.05
623.655	57.1
623.988	57.14
624.322	57.26
624.656	57.34
624.99	57.39
625.323	57.53
625.657	57.6
625.99	57.6
626.324	57.6
626.657	57.62
626.991	57.67
627.324	57.7
627.658	57.74
627.991	57.82
628.324	57.99
628.657	58.03
628.991	57.98
629.324	58.01
629.657	58.11
629.99	58.13
630.323	58.11
630.656	58.17
630.989	58.21
631.322	58.2
631.655	58.2
631.987	58.3
632.32	58.39
632.653	58.41
632.986	58.49
633.318	58.51
633.651	58.5
633.984	58.58
634.316	58.56
634.649	58.57
634.981	58.52
635.313	58.47
635.646	58.62
635.978	58.79
636.31	58.82
636.643	58.92
636.975	59.06
637.307	59.18
637.639	59.18
637.971	59.18
638.303	59.18
638.635	59.29
638.967	59.33
639.299	59.34
639.631	59.39
639.963	59.55
640.295	59.77
640.626	59.88
640.958	59.9
641.29	60.02
641.621	60.09
641.953	60.22
642.285	60.26
642.616	60.24
642.948	60.12
643.279	60.11
643.61	60.1
643.942	60.16
644.273	60.08
644.604	60.25
644.936	60.25
645.267	60.28
645.598	60.29
645.929	60.35
646.26	60.28
646.591	60.32
646.922	60.21
647.253	60.12
647.584	60.15
647.915	60.14
648.245	60.22
648.576	60.26
648.907	60.28
649.238	60.33
649.568	60.31
649.899	60.4
650.229	60.37
650.56	60.38
650.89	60.16
651.221	60.21
651.551	60.13
651.882	60.27
652.212	60.3
652.542	60.24
652.872	60.18
653.203	60.21
653.533	60.14
653.863	60.23
654.193	60.41
654.523	60.47
654.853	60.46
655.183	60.5
655.513	60.42
655.843	60.43
656.172	60.44
656.502	60.53
656.832	60.51
657.162	60.74
657.491	60.77
657.821	60.96
658.15	61.04
658.48	61
658.809	60.84
659.139	60.84
659.468	60.85
659.798	60.82
660.127	60.87
660.456	60.96
660.785	60.95
661.115	60.83
661.444	60.8
661.773	60.92
662.102	60.87
662.431	61.02
662.76	61.16
663.089	61.06
663.418	60.98
663.747	61.05
664.076	60.87
664.404	60.92
664.733	60.89
665.062	60.9
665.39	60.99
665.719	61.11
666.048	61.06
666.376	61.09
666.705	61.13
667.033	61.15
667.362	61.2
667.69	61.23
668.018	61.26
668.347	61.25
668.675	61.19
669.003	61.21
669.331	61.14
669.659	61.09
669.987	61.21
670.315	61.19
670.643	61.17
670.971	61.18
671.299	61.21
671.627	61.26
671.955	61.18
672.283	61.19
672.61	61.27
672.938	61.4
673.266	61.45
673.593	61.46
673.921	61.33
674.249	61.33
674.576	61.33
674.904	61.31
675.231	61.34
675.558	61.3
675.886	61.41
676.213	61.52
676.54	61.54
676.867	61.58
677.195	61.52
677.522	61.64
677.849	61.76
678.176	61.74
678.503	61.73
678.83	61.88
679.157	61.97
679.484	61.93
679.81	61.82
680.137	61.76
680.464	61.85
680.791	61.9
681.117	62.02
681.444	62
681.771	61.92
682.097	61.97
682.424	61.99
682.75	61.88
683.077	61.89
683.403	61.98
683.729	61.89
684.056	62.03
684.382	62
684.708	61.93
685.034	61.9
685.36	61.93
685.686	61.8
686.012	61.7
686.339	61.73
686.664	61.86
686.99	61.99
687.316	62.03
687.642	62.16
687.968	62.07
688.294	62.22
688.619	62.42
688.945	62.34
689.271	62.33
689.596	62.28
689.922	62.28
690.247	62.12
690.573	62.18
690.898	62.12
691.224	62.11
691.549	62.31
691.874	62.37
692.2	62.39
692.525	62.37
692.85	62.33
693.175	62.29
693.5	62.22
693.825	62.24
694.15	62.39
694.475	62.41
694.8	62.3
695.125	62.23
695.45	62.22
695.775	62.39
696.099	62.55
696.424	62.61
696.749	62.66
697.073	62.7
697.398	62.71
697.723	62.73
698.047	62.76
698.372	62.69
698.696	62.61
699.02	62.53
699.345	62.76
699.669	62.75
699.993	62.74
700.318	62.92
700.642	62.89
700.966	62.69
701.29	62.63
701.614	62.65
701.938	62.69
702.262	62.76
702.586	62.65
702.91	62.54
703.234	62.5
703.557	62.46
703.881	62.45
704.205	62.54
704.529	62.45
704.852	62.59
705.176	62.68
705.499	62.73
705.823	62.72
706.146	62.55
706.47	62.74
706.793	62.9
707.117	62.7
707.44	62.7
707.763	62.92
708.086	62.9
708.409	62.88
708.733	62.77
709.056	62.63
709.379	62.72
709.702	62.9
710.025	62.99
710.348	62.86
710.671	62.73
710.993	62.76
711.316	62.87
711.639	62.73
711.962	62.43
712.284	62.42
712.607	62.64
712.93	62.75
713.252	62.59
713.575	62.44
713.897	62.59
714.22	62.61
714.542	62.61
714.864	62.69
715.187	62.72
715.509	62.82
715.831	62.92
716.153	62.74
716.475	62.68
716.798	62.72
717.12	62.77
717.442	63.05
717.764	63.05
718.085	63.14
718.407	63.01
718.729	63.31
719.051	63.36
719.373	63.2
719.695	63.04
720.016	63.22
720.338	63.48
720.659	63.47
720.981	63.34
721.302	63.32
721.624	63.47
721.945	63.6
722.267	63.73
722.588	63.43
722.909	63.66
723.231	63.75
723.552	63.96
723.873	64.2
724.194	64.15
724.515	64.24
724.836	64.29
725.157	64.53
725.478	64.63
725.799	64.72
726.12	64.71
726.441	64.76
726.762	64.88
727.083	64.96
727.403	65.11
727.724	65.21
728.045	65.04
728.365	64.86
728.686	64.9
729.006	64.61
729.327	64.8
729.647	64.55
729.967	64.55
730.288	64.51
730.608	64.47
730.928	64.52
731.249	64.33
731.569	64.17
731.889	64.33
732.209	64.17
732.529	64.11
732.849	64.05
733.169	64.2
733.489	63.98
733.809	63.8
734.129	63.45
734.448	63.34
734.768	63.53
735.088	63.71
735.408	63.42
735.727	63.47
736.047	63.33
736.366	63.6
736.686	63.45
737.005	63.16
737.325	62.88
737.644	62.9
737.963	63.14
738.283	63.11
738.602	63
738.921	63.04
739.24	63.42
739.56	63.39
739.879	63.15
740.198	63.06
740.517	62.96
740.836	63.07
741.155	63.41
741.473	63.35
741.792	63.2
742.111	63.49
742.43	63.62
742.748	63.88
743.067	63.96
743.386	64.12
743.704	64.23
744.023	64.34
744.341	63.95
744.66	64.18
744.978	64.68
745.297	64.84
745.615	64.93
745.933	64.44
746.252	64.65
746.57	64.77
746.888	64.85
747.206	65.03
747.524	64.87
747.842	65.09
748.16	65.31
748.478	64.95
748.796	65.12
749.114	65.18
749.432	65.26
749.749	65.5
750.067	65.59
750.385	65.69
750.703	66.3
751.02	66.55
751.338	66.21
751.655	65.87
751.973	65.96
752.29	65.83
752.608	65.9
752.925	65.72
753.242	65.87
753.56	65.98
753.877	66.03
754.194	66.07
754.511	65.7
754.828	65.58
755.145	66.19
755.462	66.1
755.779	66.23
756.096	66.21
756.413	65.79
756.73	65.51
757.047	65.36
757.364	64.91
757.68	64.93
757.997	64.87
758.314	65.18
758.63	65.1
758.947	65.05
759.264	65.16
759.58	65.17
759.896	65.06
760.213	65.28
760.529	65.29
760.846	65.52
761.162	65.55
761.478	65.19
761.794	64.98
762.11	65.07
762.426	64.84
762.743	64.69
763.059	64.87
763.375	64.95
763.69	64.82
764.006	65
764.322	65.35
764.638	65.38
764.954	65.2
765.27	65.03
765.585	65.23
765.901	65.44
766.216	65.48
766.532	65.62
766.848	65.65
767.163	65.57
767.478	65.39
767.794	65.57
768.109	66.17
768.424	66.3
768.74	66.16
769.055	66.37
769.37	66.62
769.685	66.3
770	66.59
770.315	66.84
770.63	66.56
770.945	66.36
771.26	66.29
771.575	66.43
771.89	66.64
772.205	66.42
772.52	66.01
772.834	66.22
773.149	65.94
773.464	65.52
773.778	65.5
774.093	65.62
774.407	65.65
774.722	65.32
775.036	65.29
775.351	65.2
775.665	65.37
775.979	65.25
776.293	65.76
776.608	65.53
776.922	65.43
777.236	65.33
777.55	65
777.864	65.25
778.178	65.44
778.492	65.2
778.806	64.95
779.12	65.17
779.434	64.88
779.747	65.17
780.061	65.25
780.375	65.08
780.689	65.34
781.002	64.88
781.316	64.52
781.629	64.87
781.943	64.65
782.256	64.53
782.57	64.73
782.883	64.48
783.196	64.23
783.51	64.44
783.823	64.8
784.136	65.04
784.449	65.32
784.762	65.06
785.075	64.69
785.388	65.18
785.701	65.61
786.014	65.47
786.327	65.06
786.64	65.02
786.953	65.61
787.266	65.41
787.578	65.65
787.891	66.2
788.204	65.8
788.516	66.7
788.829	66.35
789.141	66.39
789.454	66.52
789.766	66.63
790.079	66.86
790.391	66.76
790.703	66.63
791.016	66.62
791.328	66.47
791.64	67.07
791.952	67.21
792.264	66.83
792.576	67.16
792.888	67.23
793.2	67.83
793.512	67.2
793.824	67.03
794.136	67.21
794.448	67.04
794.76	67.61
795.071	66.73
795.383	66.8
795.695	66.43
796.006	65.86
796.318	65.76
796.629	65.57
796.941	65.75
797.252	65.69
797.564	64.74
797.875	64.92
798.186	64.56
798.497	64.85
798.809	64.11
799.12	63.96
799.431	63.96
799.742	63.49
800.053	64.23
800.364	64.1
800.675	63.86
800.986	63.64
801.297	63.07
801.608	63.16
801.918	64.2
802.229	64.52
802.54	64.89
802.851	65.22
803.161	65.33
803.472	64.99
803.782	65.85
804.093	66.49
804.403	66.29
804.714	66.75
805.024	66.03
805.334	67.11
805.645	67.18
805.955	67.65
806.265	68.29
806.575	67.98
806.885	68.39
807.195	68.19
807.505	67.8
807.815	67.67
808.125	68.45
808.435	67.83
808.745	68.38
809.055	68.02
809.365	68.01
809.674	68.11
809.984	68.2
810.294	66.87
810.603	66.93
810.913	67.2
811.222	67.05
811.532	67.53
811.841	67.31
812.151	67.46
812.46	67.32
812.769	67.29
813.079	67.27
813.388	67.4
813.697	67.45
814.006	67.47
814.315	67.65
814.624	67.93
814.933	68.29
815.242	67.59
815.551	67.87
815.86	67.57
816.169	67.13
816.478	67.31
816.786	67.74
817.095	67.9
817.404	67.37
817.712	67.48
818.021	67.22
818.33	67.7
818.638	68.44
818.947	68.84
819.255	68.83
819.563	68.96
819.872	68.51
820.18	68.73
820.488	68.68
820.796	68.5
821.105	67.8
821.413	67.53
821.721	67.48
822.029	67.55
822.337	67.69
822.645	67.76
822.953	67.75
823.26	67.69
823.568	67.62
823.876	67.8
824.184	67.56
824.491	67.7
824.799	67.26
825.107	67.24
825.414	67.32
825.722	67.19
826.029	67.2
826.337	67.15
826.644	67
826.951	67.07
827.259	67.17
827.566	67.43
827.873	67.39
828.18	67.28
828.488	67.29
828.795	67.31
829.102	67.01
829.409	66.67
829.716	66.71
830.023	66.67
830.329	66.59
830.636	67.08
830.943	66.87
831.25	67.47
831.557	66.94
831.863	66.54
832.17	66.13
832.476	65.67
832.783	65.74
833.089	65.72
833.396	65.81
833.702	65.97
834.009	66.22
834.315	66.52
834.621	67.02
834.928	67.29
835.234	67.21
835.54	67.31
835.846	67.71
836.152	67.87
836.458	68.24
836.764	67.87
837.07	67.72
837.376	67.39
837.682	67.22
837.988	67.46
838.293	67.42
838.599	68.28
838.905	68.26
839.211	68.65
839.516	69.08
839.822	68.68
840.127	67.57
840.433	67.59
840.738	67.91
841.044	66.98
841.349	66.87
841.654	67.59
841.959	68.92
842.265	68.78
842.57	68.29
842.875	68.13
843.18	68.07
843.485	67.6
843.79	67.6
844.095	67.58
844.4	67.12
844.705	67.77
845.01	66.44
845.315	66.08
845.619	67.06
845.924	66.76
846.229	68.11
846.533	69.9
846.838	69.6
847.142	67.85
847.447	67.58
847.751	67.28
848.056	67.1
848.36	66.01
848.664	66.26
848.969	67.97
849.273	67.08
849.577	69.42
849.881	71.37
850.185	72.24
850.489	73.1
850.794	74.8
851.097	72.55
851.401	76.28
851.705	79.3
852.009	77.65
852.313	80.18
852.617	80.63
852.92	81.25
853.224	80.43
853.528	81.69
853.831	82.73
854.135	82.2
854.438	81.48
854.742	79.8
855.045	80.72
855.349	82.25
855.652	85.63
855.955	84.54
856.259	83.63
856.562	82.85
856.865	84.74
857.168	84
857.471	87.06
857.774	84.27
858.077	81.11
858.38	81.48
858.683	78.63
858.986	77.21
859.289	76.28
859.592	75.69
859.894	75.82
860.197	74.21
860.5	76.43
860.802	72.62
861.105	75.27
861.407	74.47
861.71	71.85
862.012	71.94
862.315	71.11
862.617	68.03
862.919	69.59
863.222	69.19
863.524	67.73
863.826	68.94
864.128	70.79
864.43	72.88
864.732	70.43
865.034	71.16
865.336	71.44
865.638	72.49
865.94	71.36
866.242	70.43
866.544	72.23
866.846	70.85
867.147	73.47
867.449	73.46
867.751	73.85
868.052	74.97
868.354	70.79
868.655	70.48
868.957	73.6
869.258	71.61
869.56	71.29
869.861	70.81
870.162	68.94
870.463	68.53
870.765	69.91
871.066	71.34
871.367	69.81
871.668	69.99
871.969	68.18
872.27	69.41
872.571	71.98
872.872	72.38
873.173	71.48
873.473	72.14
873.774	73.71
874.075	76.85
874.376	73.83
874.676	78.36
874.977	77.39
875.277	76.26
875.578	78.76
875.878	78.1
876.179	80.91
876.479	79.76
876.78	78.29
877.08	76.47
877.38	78.36
877.68	80.22
877.981	80.4
878.281	81.91
878.581	83.59
