Data from BU26938_Reflection_00013.txt Node
Date: Tue Nov 19 10:42:32 EST 2019
User: vgr7
Spectrometer: USB2G7710
Scans to average: 3
Trigger mode: 4
Integration Time (sec): 2.000000E-2
Electric dark correction enabled: true
Boxcar width: 10
XAxis mode: Wavelengths
Number of Pixels in Spectrum: 2048
>>>>>Begin Spectral Data<<<<<
177.721	-29.55
178.105	253.85
178.488	442.11
178.871	3900
179.254	58.06
179.636	386.93
180.019	180.2
180.402	-71.43
180.785	63.16
181.168	141.98
181.55	15.58
181.933	-59.69
182.316	-179.22
182.698	309.68
183.081	29.66
183.463	84.66
183.846	157.38
184.228	-197.47
184.611	-237.21
184.993	-105.88
185.376	4885.71
185.758	-100.32
186.14	-137.7
186.522	-50.76
186.904	-237.21
187.287	-101.17
187.669	-21.58
188.051	-74.91
188.433	-256.04
188.815	-260.35
189.197	-231.26
189.579	-230.87
189.961	-537.93
190.342	-154.47
190.724	-375.17
191.106	-499.73
191.488	-208.41
191.869	-133.13
192.251	-98.32
192.633	-112.68
193.014	-95.68
193.396	-88.98
193.777	-68.13
194.159	-55.45
194.54	-41.66
194.922	-31.28
195.303	-32.27
195.684	-34.09
196.065	-32.83
196.447	-20.59
196.828	-23.71
197.209	-13.72
197.59	-20.65
197.971	-9.52
198.352	-0.46
198.733	3.25
199.114	-2.09
199.495	-5.17
199.876	2.24
200.257	-14.8
200.638	-5.03
201.018	-11.39
201.399	7.49
201.78	-6
202.16	-33.24
202.541	-33.15
202.922	-35.51
203.302	-60.1
203.683	-63.9
204.063	-55.01
204.444	-54.92
204.824	-67.03
205.204	-72.06
205.585	-79.6
205.965	-154.17
206.345	-116.92
206.725	-109.99
207.106	-63.42
207.486	-55.09
207.866	-71.08
208.246	-58.58
208.626	-91.94
209.006	-127.45
209.386	-189.66
209.766	-142.54
210.145	-124.03
210.525	-288.61
210.905	-230.29
211.285	-67.53
211.664	-66.33
212.044	-93.3
212.424	-97.74
212.803	-103.89
213.183	-126.11
213.562	-73.93
213.942	-42.72
214.321	-41.66
214.701	-71.98
215.08	-80.09
215.459	-77.98
215.838	-87.44
216.218	-99
216.597	-84.25
216.976	-100.07
217.355	-108.83
217.734	-113.27
218.113	-96.83
218.492	-97.27
218.871	-77.92
219.25	-94.76
219.629	-126.48
220.008	-89.08
220.387	-74.32
220.766	-60.43
221.144	-77.78
221.523	-110.68
221.902	-113.67
222.28	-113.02
222.659	-81.04
223.037	-82.34
223.416	-73.66
223.794	-61
224.173	-67.26
224.551	-62.59
224.929	-52.3
225.308	-42.55
225.686	-49.42
226.064	-38.35
226.442	-25.63
226.821	-24.11
227.199	-22.25
227.577	-17.08
227.955	-19.32
228.333	-24.76
228.711	-22.45
229.089	-20.73
229.467	-18.34
229.845	-17.11
230.222	-15.04
230.6	-14.49
230.978	-13.63
231.356	-15.63
231.733	-18.22
232.111	-16.07
232.488	-13.83
232.866	-13.11
233.243	-14.88
233.621	-12.62
233.998	-12.76
234.376	-13.34
234.753	-12.63
235.13	-13.12
235.508	-12.4
235.885	-10.9
236.262	-9.78
236.639	-10.06
237.016	-8.1
237.393	-7.11
237.77	-5.1
238.147	-3.1
238.524	-2.46
238.901	-3.02
239.278	-1.91
239.655	-0.8
240.032	-0.53
240.409	-0.03
240.785	0.09
241.162	1.35
241.539	1.15
241.915	1.14
242.292	1.44
242.668	1.53
243.045	2.13
243.421	2.97
243.798	2.92
244.174	2.99
244.551	3.25
244.927	3.11
245.303	3.42
245.679	3.43
246.056	3.15
246.432	3.17
246.808	3.5
247.184	3.5
247.56	3.28
247.936	3.53
248.312	3.39
248.688	3.55
249.064	3.55
249.44	3.5
249.815	3.58
250.191	3.82
250.567	3.8
250.943	3.75
251.318	3.3
251.694	3.36
252.069	3.53
252.445	3.64
252.82	3.87
253.196	3.82
253.571	3.85
253.947	3.88
254.322	4.33
254.697	4.32
255.073	4.34
255.448	4.54
255.823	4.31
256.198	4.28
256.573	4.41
256.948	4.31
257.323	4.44
257.698	4.33
258.073	3.96
258.448	4.05
258.823	3.97
259.198	4.09
259.573	3.99
259.948	3.99
260.322	3.75
260.697	3.65
261.072	3.55
261.446	3.6
261.821	3.56
262.195	3.41
262.57	3.36
262.944	3.37
263.319	3.31
263.693	3.32
264.067	3.26
264.442	3.16
264.816	3.2
265.19	3.25
265.564	3.3
265.938	3.24
266.313	3.13
266.687	3.16
267.061	3.1
267.435	3.25
267.809	3.25
268.183	3.31
268.556	3.09
268.93	3.18
269.304	2.96
269.678	3.14
270.051	3.23
270.425	3.09
270.799	3.03
271.172	3.07
271.546	3.16
271.919	3.18
272.293	3.12
272.666	3.07
273.04	3.12
273.413	2.87
273.787	2.96
274.16	2.9
274.533	2.91
274.906	2.98
275.279	2.9
275.653	2.8
276.026	3.04
276.399	3.25
276.772	3.31
277.145	3.44
277.518	3.36
277.891	3.21
278.263	3.42
278.636	3.47
279.009	3.53
279.382	3.53
279.755	3.56
280.127	3.62
280.5	3.63
280.872	3.5
281.245	3.76
281.617	3.86
281.99	3.91
282.362	3.91
282.735	3.77
283.107	4.02
283.479	4.16
283.852	4.1
284.224	4.15
284.596	4.13
284.968	4.16
285.34	4.23
285.713	4.26
286.085	4.09
286.457	4.16
286.829	4.17
287.201	4.15
287.572	4.24
287.944	4.19
288.316	4.21
288.688	4.37
289.06	4.39
289.431	4.28
289.803	4.35
290.175	4.41
290.546	4.53
290.918	4.44
291.289	4.31
291.661	4.24
292.032	4.31
292.403	4.27
292.775	4.35
293.146	4.33
293.517	4.46
293.889	4.67
294.26	4.74
294.631	4.83
295.002	4.99
295.373	5.02
295.744	5.21
296.115	5.36
296.486	5.33
296.857	5.31
297.228	5.46
297.599	5.51
297.97	5.53
298.34	5.64
298.711	5.67
299.082	5.84
299.452	5.85
299.823	5.89
300.194	6.1
300.564	6.24
300.935	6.48
301.305	6.4
301.676	6.39
302.046	6.45
302.416	6.58
302.787	6.51
303.157	6.53
303.527	6.6
303.897	6.6
304.267	6.61
304.637	6.7
305.008	6.83
305.378	6.86
305.748	6.92
306.117	6.85
306.487	6.85
306.857	6.91
307.227	7.13
307.597	7.1
307.967	7.18
308.336	7.17
308.706	7.05
309.076	7.3
309.445	7.5
309.815	7.54
310.184	7.48
310.554	7.51
310.923	7.53
311.293	7.5
311.662	7.62
312.031	7.75
312.401	7.81
312.77	7.93
313.139	8.05
313.508	8.09
313.877	8.2
314.246	8.28
314.616	8.29
314.985	8.32
315.353	8.45
315.722	8.5
316.091	8.53
316.46	8.68
316.829	8.59
317.198	8.69
317.567	8.72
317.935	8.83
318.304	9.11
318.672	9.28
319.041	9.52
319.41	9.44
319.778	9.55
320.147	9.65
320.515	9.61
320.883	9.67
321.252	9.79
321.62	10.01
321.988	10.2
322.357	10.28
322.725	10.22
323.093	10.31
323.461	10.32
323.829	10.33
324.197	10.27
324.565	10.44
324.933	10.4
325.301	10.4
325.669	10.49
326.037	10.54
326.405	10.53
326.772	10.46
327.14	10.5
327.508	10.47
327.875	10.51
328.243	10.51
328.61	10.39
328.978	10.4
329.346	10.24
329.713	10.32
330.08	10.53
330.448	10.71
330.815	10.63
331.182	10.72
331.55	10.7
331.917	10.72
332.284	10.73
332.651	10.78
333.018	10.8
333.385	10.94
333.752	10.86
334.119	10.92
334.486	10.95
334.853	10.98
335.22	11
335.587	10.92
335.954	11.02
336.32	11.24
336.687	11.29
337.054	11.32
337.42	11.24
337.787	11.19
338.153	11.24
338.52	11.44
338.886	11.47
339.253	11.55
339.619	11.73
339.986	11.72
340.352	11.65
340.718	11.69
341.084	11.67
341.451	11.68
341.817	11.68
342.183	11.74
342.549	11.82
342.915	11.88
343.281	12.01
343.647	11.94
344.013	11.91
344.379	11.94
344.745	12.05
345.11	12.05
345.476	12.03
345.842	11.93
346.208	11.94
346.573	11.95
346.939	12.08
347.304	12.06
347.67	12.06
348.035	12.17
348.401	12.2
348.766	12.23
349.132	12.31
349.497	12.3
349.862	12.29
350.228	12.23
350.593	12.27
350.958	12.28
351.323	12.28
351.688	12.29
352.053	12.23
352.418	12.24
352.783	12.23
353.148	12.32
353.513	12.46
353.878	12.35
354.243	12.29
354.608	12.24
354.972	12.2
355.337	12.3
355.702	12.25
356.066	12.27
356.431	12.2
356.795	12.13
357.16	12.12
357.524	12.14
357.889	12.22
358.253	12.16
358.618	12.15
358.982	12.14
359.346	12.17
359.71	12.16
360.075	12.17
360.439	12.26
360.803	12.19
361.167	12.04
361.531	12.02
361.895	11.96
362.259	11.94
362.623	11.92
362.987	11.91
363.351	11.85
363.714	11.78
364.078	11.74
364.442	11.72
364.806	11.7
365.169	11.66
365.533	11.55
365.896	11.52
366.26	11.49
366.623	11.46
366.987	11.38
367.35	11.36
367.714	11.31
368.077	11.23
368.44	11.16
368.803	11.2
369.167	11.18
369.53	11.2
369.893	11.16
370.256	11.06
370.619	10.9
370.982	10.91
371.345	10.86
371.708	10.84
372.071	10.8
372.434	10.79
372.797	10.74
373.159	10.72
373.522	10.6
373.885	10.51
374.247	10.4
374.61	10.32
374.973	10.27
375.335	10.21
375.698	10.06
376.06	10.09
376.423	9.98
376.785	9.95
377.147	9.87
377.51	9.82
377.872	9.76
378.234	9.72
378.596	9.65
378.958	9.61
379.321	9.49
379.683	9.47
380.045	9.38
380.407	9.3
380.769	9.25
381.13	9.22
381.492	9.21
381.854	9.18
382.216	9.18
382.578	9.14
382.939	9.07
383.301	9.07
383.663	8.97
384.024	8.95
384.386	8.89
384.747	8.81
385.109	8.68
385.47	8.64
385.832	8.59
386.193	8.51
386.554	8.43
386.916	8.41
387.277	8.35
387.638	8.3
387.999	8.24
388.36	8.2
388.721	8.17
389.082	8.14
389.443	8.09
389.804	8.02
390.165	7.94
390.526	7.87
390.887	7.8
391.248	7.75
391.609	7.68
391.969	7.6
392.33	7.57
392.691	7.55
393.051	7.51
393.412	7.49
393.772	7.46
394.133	7.45
394.493	7.36
394.854	7.25
395.214	7.18
395.574	7.15
395.935	7.06
396.295	7.02
396.655	6.91
397.015	6.88
397.376	6.81
397.736	6.76
398.096	6.69
398.456	6.64
398.816	6.58
399.176	6.52
399.535	6.53
399.895	6.52
400.255	6.45
400.615	6.41
400.975	6.38
401.334	6.3
401.694	6.24
402.054	6.22
402.413	6.21
402.773	6.15
403.132	6.07
403.492	6.05
403.851	5.98
404.211	6
404.57	5.93
404.929	5.87
405.288	5.85
405.648	5.85
406.007	5.82
406.366	5.81
406.725	5.82
407.084	5.75
407.443	5.69
407.802	5.68
408.161	5.65
408.52	5.6
408.879	5.59
409.238	5.54
409.596	5.53
409.955	5.52
410.314	5.51
410.673	5.53
411.031	5.49
411.39	5.5
411.748	5.45
412.107	5.44
412.465	5.44
412.824	5.4
413.182	5.36
413.54	5.34
413.899	5.3
414.257	5.25
414.615	5.24
414.974	5.23
415.332	5.18
415.69	5.18
416.048	5.16
416.406	5.12
416.764	5.11
417.122	5.07
417.48	5.04
417.838	5.01
418.195	4.96
418.553	4.95
418.911	4.92
419.269	4.89
419.626	4.88
419.984	4.84
420.342	4.82
420.699	4.8
421.057	4.77
421.414	4.75
421.772	4.74
422.129	4.71
422.486	4.69
422.844	4.66
423.201	4.64
423.558	4.61
423.915	4.61
424.273	4.59
424.63	4.59
424.987	4.57
425.344	4.55
425.701	4.55
426.058	4.52
426.415	4.49
426.772	4.47
427.128	4.43
427.485	4.42
427.842	4.4
428.199	4.39
428.555	4.39
428.912	4.38
429.269	4.33
429.625	4.31
429.982	4.28
430.338	4.29
430.695	4.26
431.051	4.26
431.407	4.25
431.764	4.24
432.12	4.22
432.476	4.23
432.832	4.24
433.189	4.21
433.545	4.23
433.901	4.24
434.257	4.22
434.613	4.22
434.969	4.23
435.325	4.24
435.681	4.22
436.036	4.23
436.392	4.21
436.748	4.22
437.104	4.24
437.459	4.24
437.815	4.24
438.171	4.25
438.526	4.25
438.882	4.25
439.237	4.25
439.593	4.26
439.948	4.26
440.304	4.25
440.659	4.28
441.014	4.25
441.369	4.24
441.725	4.24
442.08	4.24
442.435	4.23
442.79	4.21
443.145	4.2
443.5	4.19
443.855	4.19
444.21	4.19
444.565	4.18
444.92	4.19
445.275	4.18
445.629	4.17
445.984	4.17
446.339	4.15
446.693	4.14
447.048	4.11
447.403	4.09
447.757	4.09
448.112	4.07
448.466	4.08
448.82	4.07
449.175	4.06
449.529	4.06
449.883	4.06
450.238	4.05
450.592	4.05
450.946	4.03
451.3	4.02
451.654	4
452.008	3.98
452.362	3.97
452.716	3.96
453.07	3.96
453.424	3.94
453.778	3.92
454.132	3.93
454.486	3.94
454.839	3.96
455.193	3.93
455.547	3.92
455.9	3.91
456.254	3.9
456.607	3.91
456.961	3.91
457.314	3.89
457.668	3.88
458.021	3.86
458.375	3.88
458.728	3.87
459.081	3.87
459.434	3.88
459.787	3.89
460.141	3.89
460.494	3.89
460.847	3.89
461.2	3.91
461.553	3.93
461.906	3.94
462.259	3.92
462.611	3.95
462.964	3.96
463.317	3.99
463.67	4.01
464.022	4.02
464.375	4.02
464.728	4.05
465.08	4.07
465.433	4.12
465.785	4.14
466.138	4.17
466.49	4.21
466.843	4.23
467.195	4.25
467.547	4.26
467.899	4.27
468.252	4.28
468.604	4.28
468.956	4.29
469.308	4.3
469.66	4.33
470.012	4.35
470.364	4.36
470.716	4.36
471.068	4.36
471.42	4.37
471.772	4.39
472.123	4.43
472.475	4.47
472.827	4.45
473.178	4.45
473.53	4.46
473.882	4.46
474.233	4.48
474.585	4.47
474.936	4.5
475.288	4.53
475.639	4.57
475.99	4.58
476.342	4.59
476.693	4.59
477.044	4.61
477.395	4.59
477.746	4.61
478.097	4.61
478.448	4.61
478.8	4.63
479.15	4.63
479.501	4.62
479.852	4.59
480.203	4.59
480.554	4.59
480.905	4.58
481.255	4.58
481.606	4.58
481.957	4.58
482.307	4.57
482.658	4.56
483.009	4.54
483.359	4.53
483.709	4.53
484.06	4.51
484.41	4.5
484.761	4.5
485.111	4.5
485.461	4.49
485.811	4.5
486.162	4.48
486.512	4.47
486.862	4.47
487.212	4.48
487.562	4.47
487.912	4.47
488.262	4.46
488.612	4.45
488.961	4.45
489.311	4.43
489.661	4.43
490.011	4.42
490.36	4.42
490.71	4.43
491.06	4.43
491.409	4.45
491.759	4.46
492.108	4.46
492.458	4.46
492.807	4.48
493.157	4.49
493.506	4.51
493.855	4.53
494.204	4.54
494.554	4.56
494.903	4.59
495.252	4.6
495.601	4.64
495.95	4.69
496.299	4.72
496.648	4.78
496.997	4.84
497.346	4.89
497.695	4.94
498.043	4.99
498.392	5.06
498.741	5.13
499.09	5.19
499.438	5.27
499.787	5.34
500.135	5.42
500.484	5.47
500.832	5.56
501.181	5.66
501.529	5.77
501.878	5.85
502.226	5.95
502.574	6.06
502.923	6.17
503.271	6.25
503.619	6.38
503.967	6.49
504.315	6.6
504.663	6.72
505.011	6.83
505.359	6.96
505.707	7.09
506.055	7.21
506.403	7.34
506.751	7.47
507.098	7.61
507.446	7.76
507.794	7.91
508.141	8.06
508.489	8.21
508.837	8.34
509.184	8.52
509.531	8.67
509.879	8.84
510.226	9.01
510.574	9.19
510.921	9.34
511.268	9.5
511.616	9.68
511.963	9.9
512.31	10.11
512.657	10.33
513.004	10.53
513.351	10.76
513.698	11.02
514.045	11.27
514.392	11.54
514.739	11.82
515.086	12.08
515.432	12.33
515.779	12.58
516.126	12.88
516.473	13.13
516.819	13.38
517.166	13.62
517.512	13.84
517.859	14.08
518.205	14.31
518.552	14.54
518.898	14.75
519.245	14.97
519.591	15.18
519.937	15.4
520.283	15.63
520.629	15.87
520.976	16.11
521.322	16.38
521.668	16.64
522.014	16.89
522.36	17.19
522.706	17.49
523.052	17.83
523.398	18.18
523.743	18.53
524.089	18.88
524.435	19.2
524.781	19.51
525.126	19.79
525.472	20.07
525.817	20.34
526.163	20.54
526.509	20.73
526.854	20.94
527.199	21.09
527.545	21.28
527.89	21.44
528.235	21.63
528.581	21.78
528.926	21.96
529.271	22.14
529.616	22.3
529.961	22.48
530.306	22.64
530.651	22.8
530.996	22.98
531.341	23.17
531.686	23.37
532.031	23.55
532.376	23.76
532.721	23.95
533.065	24.16
533.41	24.4
533.755	24.65
534.099	24.87
534.444	25.11
534.788	25.33
535.133	25.59
535.477	25.79
535.822	26.04
536.166	26.29
536.51	26.53
536.855	26.8
537.199	27.05
537.543	27.34
537.887	27.65
538.231	27.92
538.576	28.18
538.92	28.45
539.264	28.72
539.608	28.97
539.951	29.2
540.295	29.41
540.639	29.6
540.983	29.8
541.327	30
541.671	30.21
542.014	30.4
542.358	30.57
542.701	30.77
543.045	30.93
543.389	31.09
543.732	31.26
544.075	31.47
544.419	31.68
544.762	31.89
545.105	32.08
545.449	32.31
545.792	32.54
546.135	32.74
546.478	32.98
546.821	33.21
547.165	33.47
547.508	33.76
547.851	34.08
548.194	34.31
548.536	34.6
548.879	34.86
549.222	35.13
549.565	35.4
549.908	35.67
550.25	35.97
550.593	36.31
550.936	36.63
551.278	36.88
551.621	37.15
551.963	37.37
552.306	37.65
552.648	37.86
552.991	38.05
553.333	38.28
553.675	38.52
554.017	38.71
554.36	38.93
554.702	39.11
555.044	39.29
555.386	39.5
555.728	39.69
556.07	39.88
556.412	40.09
556.754	40.29
557.096	40.51
557.438	40.71
557.78	40.89
558.121	41.12
558.463	41.32
558.805	41.5
559.147	41.72
559.488	41.85
559.83	42.05
560.171	42.29
560.513	42.49
560.854	42.66
561.196	42.85
561.537	43.07
561.878	43.22
562.22	43.39
562.561	43.55
562.902	43.71
563.243	43.92
563.584	44.07
563.925	44.29
564.266	44.39
564.607	44.53
564.948	44.67
565.289	44.78
565.63	44.91
565.971	45.09
566.312	45.24
566.653	45.42
566.993	45.57
567.334	45.67
567.675	45.81
568.015	45.97
568.356	46.07
568.696	46.14
569.037	46.3
569.377	46.37
569.718	46.54
570.058	46.66
570.398	46.78
570.739	46.9
571.079	46.99
571.419	47.12
571.759	47.21
572.099	47.32
572.439	47.43
572.779	47.54
573.119	47.64
573.459	47.74
573.799	47.82
574.139	47.92
574.479	48
574.819	48.1
575.158	48.18
575.498	48.31
575.838	48.46
576.177	48.59
576.517	48.73
576.856	48.84
577.196	48.93
577.535	49.01
577.875	49.11
578.214	49.14
578.553	49.25
578.893	49.41
579.232	49.5
579.571	49.6
579.91	49.74
580.25	49.8
580.589	49.89
580.928	49.96
581.267	50.07
581.606	50.18
581.945	50.3
582.283	50.38
582.622	50.46
582.961	50.6
583.3	50.69
583.639	50.76
583.977	50.77
584.316	50.97
584.654	51.08
584.993	51.17
585.332	51.29
585.67	51.37
586.008	51.37
586.347	51.38
586.685	51.42
587.024	51.47
587.362	51.63
587.7	51.78
588.038	51.93
588.376	51.99
588.715	52.15
589.053	52.29
589.391	52.37
589.729	52.46
590.067	52.42
590.404	52.48
590.742	52.54
591.08	52.65
591.418	52.71
591.756	52.77
592.093	52.79
592.431	52.91
592.769	52.93
593.106	52.99
593.444	53.09
593.781	53.2
594.119	53.28
594.456	53.28
594.793	53.22
595.131	53.22
595.468	53.25
595.805	53.29
596.143	53.18
596.48	53.23
596.817	53.19
597.154	53.2
597.491	53.21
597.828	53.27
598.165	53.3
598.502	53.23
598.839	53.25
599.176	53.32
599.512	53.36
599.849	53.47
600.186	53.57
600.523	53.65
600.859	53.7
601.196	53.62
601.532	53.65
601.869	53.69
602.205	53.79
602.542	53.85
602.878	53.9
603.215	54.01
603.551	54.13
603.887	54.29
604.223	54.39
604.56	54.56
604.896	54.6
605.232	54.64
605.568	54.74
605.904	54.79
606.24	54.81
606.576	54.85
606.912	54.87
607.248	54.92
607.583	55.01
607.919	55
608.255	55.2
608.591	55.21
608.926	55.3
609.262	55.29
609.597	55.27
609.933	55.32
610.268	55.33
610.604	55.28
610.939	55.3
611.275	55.32
611.61	55.23
611.945	55.22
612.281	55.3
612.616	55.38
612.951	55.47
613.286	55.6
613.621	55.68
613.956	55.78
614.291	55.72
614.626	55.65
614.961	55.75
615.296	55.72
615.631	55.83
615.966	55.81
616.3	55.86
616.635	55.94
616.97	55.88
617.304	55.96
617.639	55.99
617.973	56
618.308	56.03
618.642	56.07
618.977	56.19
619.311	56.13
619.646	56.12
619.98	56.05
620.314	56.04
620.648	55.92
620.983	55.91
621.317	55.96
621.651	56.06
621.985	56.07
622.319	56.02
622.653	56.02
622.987	56.12
623.321	56.23
623.655	56.31
623.988	56.38
624.322	56.4
624.656	56.48
624.99	56.52
625.323	56.53
625.657	56.57
625.99	56.57
626.324	56.67
626.657	56.57
626.991	56.66
627.324	56.67
627.658	56.72
627.991	56.74
628.324	56.77
628.657	56.77
628.991	56.78
629.324	56.92
629.657	56.91
629.99	56.92
630.323	56.88
630.656	56.86
630.989	56.86
631.322	56.86
631.655	56.83
631.987	56.88
632.32	56.86
632.653	56.79
632.986	56.87
633.318	56.84
633.651	56.94
633.984	56.95
634.316	56.89
634.649	57.08
634.981	57.14
635.313	57.27
635.646	57.35
635.978	57.31
636.31	57.32
636.643	57.38
636.975	57.4
637.307	57.42
637.639	57.49
637.971	57.58
638.303	57.55
638.635	57.51
638.967	57.42
639.299	57.57
639.631	57.61
639.963	57.6
640.295	57.7
640.626	57.81
640.958	57.81
641.29	57.85
641.621	57.72
641.953	57.66
642.285	57.6
642.616	57.61
642.948	57.67
643.279	57.59
643.61	57.55
643.942	57.65
644.273	57.63
644.604	57.61
644.936	57.63
645.267	57.77
645.598	57.88
645.929	57.97
646.26	58.01
646.591	58.1
646.922	58.11
647.253	58.11
647.584	58
647.915	58.02
648.245	58.02
648.576	58.1
648.907	58.18
649.238	58.16
649.568	58.19
649.899	58.26
650.229	58.43
650.56	58.51
650.89	58.49
651.221	58.63
651.551	58.69
651.882	58.68
652.212	58.68
652.542	58.61
652.872	58.63
653.203	58.57
653.533	58.49
653.863	58.55
654.193	58.38
654.523	58.5
654.853	58.51
655.183	58.59
655.513	58.55
655.843	58.56
656.172	58.69
656.502	58.62
656.832	58.69
657.162	58.74
657.491	58.74
657.821	58.72
658.15	58.61
658.48	58.55
658.809	58.45
659.139	58.43
659.468	58.56
659.798	58.68
660.127	58.7
660.456	58.73
660.785	58.64
661.115	58.77
661.444	58.76
661.773	58.82
662.102	58.81
662.431	58.85
662.76	58.93
663.089	58.9
663.418	58.88
663.747	58.87
664.076	58.78
664.404	58.89
664.733	58.89
665.062	58.95
665.39	58.98
665.719	59.07
666.048	59.1
666.376	59.11
666.705	58.95
667.033	58.96
667.362	59.07
667.69	59.2
668.018	59.2
668.347	59.14
668.675	59.21
669.003	59.39
669.331	59.41
669.659	59.43
669.987	59.5
670.315	59.62
670.643	59.52
670.971	59.42
671.299	59.47
671.627	59.44
671.955	59.41
672.283	59.54
672.61	59.57
672.938	59.61
673.266	59.58
673.593	59.64
673.921	59.79
674.249	59.72
674.576	59.76
674.904	59.78
675.231	59.85
675.558	59.77
675.886	59.7
676.213	59.73
676.54	59.79
676.867	59.8
677.195	59.83
677.522	59.89
677.849	60.04
678.176	59.84
678.503	59.87
678.83	59.96
679.157	59.88
679.484	59.81
679.81	59.85
680.137	59.86
680.464	59.91
680.791	59.87
681.117	59.92
681.444	59.83
681.771	59.78
682.097	59.77
682.424	59.88
682.75	59.84
683.077	59.83
683.403	59.59
683.729	59.55
684.056	59.45
684.382	59.53
684.708	59.53
685.034	59.6
685.36	59.48
685.686	59.5
686.012	59.4
686.339	59.58
686.664	59.63
686.99	59.62
687.316	59.59
687.642	59.58
687.968	59.49
688.294	59.6
688.619	59.64
688.945	59.77
689.271	59.73
689.596	59.7
689.922	59.75
690.247	59.79
690.573	59.79
690.898	59.88
691.224	59.72
691.549	59.57
691.874	59.67
692.2	59.83
692.525	59.77
692.85	59.97
693.175	59.91
693.5	59.9
693.825	59.95
694.15	59.88
694.475	59.93
694.8	60.04
695.125	59.95
695.45	60.07
695.775	60
696.099	59.96
696.424	60.12
696.749	60.24
697.073	60.28
697.398	60.41
697.723	60.5
698.047	60.72
698.372	60.87
698.696	60.87
699.02	60.85
699.345	60.77
699.669	60.63
699.993	60.71
700.318	60.64
700.642	60.59
700.966	60.69
701.29	60.59
701.614	60.53
701.938	60.64
702.262	60.68
702.586	60.6
702.91	60.64
703.234	60.62
703.557	60.48
703.881	60.64
704.205	60.44
704.529	60.26
704.852	60.08
705.176	60.15
705.499	60.08
705.823	60.17
706.146	60.37
706.47	60.62
706.793	60.52
707.117	60.56
707.44	60.45
707.763	60.32
708.086	60.24
708.409	60.28
708.733	60.01
709.056	59.92
709.379	60.13
709.702	60.2
710.025	60.03
710.348	59.95
710.671	59.88
710.993	60.07
711.316	60.21
711.639	60.09
711.962	59.98
712.284	60.16
712.607	60.25
712.93	60.1
713.252	60.08
713.575	60.18
713.897	60.24
714.22	60.54
714.542	60.56
714.864	60.71
715.187	60.7
715.509	60.82
715.831	60.82
716.153	60.75
716.475	60.62
716.798	60.76
717.12	60.98
717.442	60.96
717.764	60.74
718.085	60.71
718.407	60.94
718.729	60.98
719.051	60.73
719.373	60.62
719.695	60.65
720.016	60.6
720.338	60.69
720.659	60.59
720.981	60.38
721.302	60.3
721.624	60.36
721.945	60.29
722.267	60.45
722.588	60.55
722.909	60.8
723.231	60.9
723.552	60.73
723.873	60.8
724.194	60.9
724.515	61.13
724.836	61.15
725.157	61.16
725.478	61.14
725.799	61.43
726.12	61.32
726.441	61.34
726.762	61.19
727.083	60.96
727.403	61.04
727.724	61.08
728.045	60.97
728.365	60.99
728.686	61.13
729.006	60.99
729.327	60.91
729.647	60.68
729.967	60.59
730.288	60.76
730.608	60.43
730.928	60.33
731.249	60.44
731.569	60.61
731.889	60.48
732.209	60.54
732.529	60.39
732.849	60.56
733.169	60.77
733.489	60.76
733.809	60.8
734.129	60.73
734.448	60.95
734.768	61.2
735.088	61.17
735.408	61.13
735.727	61.24
736.047	61.33
736.366	61.44
736.686	61.59
737.005	61.56
737.325	61.62
737.644	61.62
737.963	61.41
738.283	61.21
738.602	61.5
738.921	61.49
739.24	61.52
739.56	61.44
739.879	61.17
740.198	61.08
740.517	61.24
740.836	61.38
741.155	61.41
741.473	61.46
741.792	61.6
742.111	61.56
742.43	61.77
742.748	62
743.067	61.82
743.386	61.75
743.704	61.86
744.023	61.9
744.341	62.09
744.66	61.97
744.978	61.98
745.297	61.45
745.615	61.16
745.933	61.43
746.252	61.72
746.57	62.19
746.888	62.55
747.206	62.43
747.524	62.57
747.842	62.33
748.16	62.65
748.478	62.44
748.796	62.61
749.114	62.47
749.432	62.39
749.749	62.61
750.067	62.52
750.385	62.75
750.703	62.89
751.02	62.93
751.338	62.98
751.655	63.05
751.973	63.18
752.29	63.38
752.608	63.18
752.925	62.66
753.242	62.61
753.56	62.71
753.877	62.57
754.194	62.53
754.511	62.63
754.828	62.27
755.145	62.51
755.462	62.41
755.779	62.1
756.096	62.05
756.413	62.17
756.73	62.32
757.047	62
757.364	62.21
757.68	62.4
757.997	62.74
758.314	62.83
758.63	62.96
758.947	62.96
759.264	62.96
759.58	63.52
759.896	63.3
760.213	63.12
760.529	63.37
760.846	63.26
761.162	63.22
761.478	63.4
761.794	63.44
762.11	63.52
762.426	63.72
762.743	63.75
763.059	63.77
763.375	63.49
763.69	63.59
764.006	63.65
764.322	63.4
764.638	63.36
764.954	63.07
765.27	63.02
765.585	63.17
765.901	63.26
766.216	63.12
766.532	63.16
766.848	63.12
767.163	63.02
767.478	62.98
767.794	62.97
768.109	63.16
768.424	63.17
768.74	63.1
769.055	63.22
769.37	62.9
769.685	62.9
770	63.14
770.315	63.28
770.63	63.28
770.945	63.23
771.26	63.15
771.575	63.14
771.89	63.3
772.205	63.01
772.52	62.71
772.834	62.64
773.149	62.54
773.464	62.94
773.778	62.86
774.093	62.66
774.407	62.49
774.722	62.11
775.036	61.82
775.351	61.78
775.665	61.91
775.979	62.05
776.293	61.55
776.608	61.88
776.922	61.58
777.236	61.34
777.55	61.7
777.864	61.59
778.178	61.97
778.492	61.99
778.806	62.02
779.12	62.47
779.434	62.3
779.747	62.26
780.061	62.58
780.375	63.02
780.689	63.12
781.002	63.33
781.316	63.27
781.629	63.2
781.943	63.18
782.256	63.06
782.57	63.34
782.883	63.65
783.196	63.39
783.51	63.13
783.823	63.12
784.136	62.65
784.449	62.83
784.762	62.44
785.075	62.89
785.388	62.9
785.701	62.2
786.014	62.17
786.327	61.86
786.64	61.34
786.953	60.86
787.266	60.91
787.578	61.23
787.891	61.16
788.204	61.2
788.516	61.61
788.829	61.58
789.141	61.33
789.454	61.07
789.766	61.7
790.079	61.91
790.391	61.71
790.703	61.76
791.016	61.97
791.328	61.66
791.64	61.31
791.952	61.74
792.264	61.42
792.576	61.43
792.888	61.71
793.2	61.65
793.512	61.54
793.824	61.51
794.136	61.39
794.448	61.39
794.76	61.4
795.071	60.78
795.383	61.57
795.695	62.15
796.006	62.26
796.318	61.37
796.629	61.02
796.941	61.19
797.252	62.08
797.564	61.79
797.875	62.59
798.186	62.38
798.497	62.31
798.809	63.1
799.12	63.32
799.431	62.98
799.742	62.84
800.053	63.23
800.364	63.55
800.675	63.17
800.986	63.57
801.297	64.27
801.608	64.74
801.918	63.47
802.229	62.84
802.54	62.59
802.851	62.57
803.161	62.95
803.472	62.86
803.782	62.13
804.093	62.29
804.403	62.49
804.714	62.74
805.024	62.84
805.334	62.65
805.645	62.29
805.955	62.85
806.265	62.7
806.575	62.18
806.885	61.91
807.195	61.82
807.505	61.44
807.815	60.58
808.125	60.54
808.435	60.92
808.745	60.91
809.055	61.56
809.365	61.83
809.674	62.04
809.984	62.26
810.294	61.97
810.603	61.06
810.913	61.14
811.222	61.08
811.532	61.19
811.841	61.02
812.151	61.72
812.46	61.59
812.769	62.39
813.079	62.81
813.388	62.81
813.697	62.7
814.006	63.66
814.315	63.32
814.624	63.75
814.933	62.78
815.242	62.4
815.551	62.14
815.86	61.54
816.169	60.86
816.478	61.14
816.786	61.28
817.095	62.15
817.404	62.33
817.712	62.24
818.021	61.72
818.33	61.6
818.638	61.19
818.947	61.42
819.255	61.23
819.563	61.9
819.872	61.98
820.18	62.23
820.488	61.98
820.796	62.26
821.105	62.25
821.413	62.66
821.721	62.74
822.029	62.8
822.337	63.16
822.645	63.2
822.953	63.14
823.26	63.45
823.568	63.39
823.876	63.34
824.184	63.36
824.491	63.42
824.799	63.66
825.107	63.69
825.414	63.66
825.722	63.63
826.029	63.35
826.337	63.29
826.644	63.22
826.951	63.18
827.259	63.12
827.566	63.06
827.873	63.04
828.18	63.07
828.488	62.91
828.795	62.7
829.102	62.62
829.409	62.52
829.716	61.93
830.023	61.98
830.329	61.86
830.636	61.89
830.943	61.96
831.25	61.72
831.557	61.8
831.863	62.06
832.17	62.11
832.476	62.69
832.783	62.97
833.089	62.92
833.396	63.41
833.702	63.65
834.009	63.86
834.315	63.49
834.621	63.1
834.928	63.24
835.234	63.35
835.54	63.68
835.846	63.91
836.152	64.56
836.458	64.3
836.764	64.26
837.07	63.65
837.376	63.34
837.682	63.8
837.988	63.58
838.293	63.12
838.599	63.27
838.905	62.45
839.211	62.37
839.516	63.05
839.822	61.77
840.127	61.48
840.433	61.5
840.738	61.74
841.044	62.12
841.349	61.26
841.654	60.77
841.959	61.44
842.265	60.73
842.57	60.22
842.875	60.89
843.18	60.89
843.485	62.68
843.79	62.69
844.095	60.91
844.4	60.54
844.705	61.4
845.01	60.6
845.315	61.07
845.619	60.67
845.924	59.14
846.229	60.97
846.533	61.82
846.838	61.4
847.142	62.16
847.447	61.56
847.751	63.44
848.056	65.07
848.36	62.71
848.664	60.32
848.969	59.7
849.273	57.82
849.577	57.11
849.881	55.66
850.185	56.2
850.489	58.22
850.794	58.28
851.097	57.23
851.401	57.27
851.705	56.41
852.009	57.26
852.313	56.25
852.617	53.15
852.92	52.41
853.224	51.61
853.528	49.49
853.831	50.82
854.135	51.09
854.438	50.09
854.742	50.91
855.045	52.42
855.349	51.33
855.652	51.79
855.955	50.79
856.259	50.62
856.562	49.26
856.865	45.37
857.168	46.21
857.471	47.11
857.774	49.83
858.077	49.46
858.38	48.29
858.683	49.5
858.986	49.95
859.289	50.89
859.592	52.61
859.894	54.47
860.197	53.1
860.5	51.17
860.802	51.01
861.105	52.08
861.407	53.52
861.71	54.55
862.012	56.29
862.315	57.05
862.617	56.8
862.919	56.77
863.222	58.77
863.524	58.5
863.826	58.5
864.128	55.55
864.43	59.09
864.732	59.51
865.034	61.59
865.336	62.83
865.638	62.44
865.94	61.68
866.242	60.74
866.544	62.74
866.846	64.81
867.147	63.94
867.449	62.36
867.751	62.41
868.052	62.82
868.354	63.26
868.655	65.04
868.957	65.26
869.258	66.05
869.56	67.56
869.861	66.83
870.162	66.41
870.463	68.76
870.765	66.24
871.066	65.12
871.367	64.12
871.668	64.28
871.969	64.38
872.27	61.62
872.571	62.87
872.872	63.17
873.173	64.62
873.473	65.71
873.774	65.86
874.075	68.24
874.376	65.91
874.676	65.68
874.977	61.79
875.277	63.11
875.578	62.48
875.878	61.88
876.179	62.94
876.479	62.48
876.78	60.76
877.08	60.72
877.38	62.96
877.68	62.94
877.981	63.51
878.281	63.07
878.581	66.97
