Data from BU26932_Reflection_00001.txt Node
Date: Tue Nov 19 10:44:16 EST 2019
User: vgr7
Spectrometer: USB2G7710
Scans to average: 3
Trigger mode: 4
Integration Time (sec): 2.000000E-2
Electric dark correction enabled: true
Boxcar width: 10
XAxis mode: Wavelengths
Number of Pixels in Spectrum: 2048
>>>>>Begin Spectral Data<<<<<
177.721	4.32
178.105	-39.04
178.488	-87.56
178.871	-100
179.254	1700
179.636	247.73
180.019	-77.91
180.402	157.14
180.785	-427.27
181.168	-34.15
181.55	-88.94
181.933	67.21
182.316	63.13
182.698	18.98
183.081	172.89
183.463	60.14
183.846	14.89
184.228	-1.92
184.611	-13.5
184.993	-29.11
185.376	-30.92
185.758	-9.16
186.14	-12.63
186.522	-4.6
186.904	2.5
187.287	7.86
187.669	10.56
188.051	15.41
188.433	11.89
188.815	21.71
189.197	25.16
189.579	31.08
189.961	23.86
190.342	19.4
190.724	17.24
191.106	8
191.488	26.11
191.869	28.35
192.251	39.3
192.633	47.89
193.014	50.05
193.396	48.98
193.777	36.33
194.159	26.48
194.54	11.4
194.922	11.26
195.303	3.02
195.684	-2.88
196.065	-9.62
196.447	-14.18
196.828	-29.12
197.209	-22.11
197.59	-35.37
197.971	-14.7
198.352	-7.56
198.733	-6.87
199.114	-12.54
199.495	-15.09
199.876	-11.06
200.257	-19.92
200.638	-21.67
201.018	-15.52
201.399	-14.09
201.78	-8.04
202.16	-11.95
202.541	5.86
202.922	9.09
203.302	6.6
203.683	25.35
204.063	33.14
204.444	30.83
204.824	24.68
205.204	23.58
205.585	29.63
205.965	15.69
206.345	11.63
206.725	16.7
207.106	28.65
207.486	25.23
207.866	21.92
208.246	30.86
208.626	31.51
209.006	26.79
209.386	23.67
209.766	33.2
210.145	21.46
210.525	13.48
210.905	11.43
211.285	21.11
211.664	8.45
212.044	-6.12
212.424	-0.04
212.803	-6.09
213.183	-13.79
213.562	-19.61
213.942	-13.11
214.321	-3.74
214.701	-0.51
215.08	-18.72
215.459	-5.09
215.838	-1.33
216.218	-9.89
216.597	-0.03
216.976	1.24
217.355	3.46
217.734	-6.6
218.113	13.89
218.492	16.03
218.871	12.55
219.25	10.37
219.629	8.47
220.008	19.39
220.387	17.52
220.766	29.24
221.144	35.43
221.523	36.67
221.902	35.89
222.28	33.79
222.659	34.56
223.037	36.64
223.416	33.5
223.794	30.87
224.173	30.53
224.551	26.52
224.929	24.44
225.308	23.37
225.686	29
226.064	18.68
226.442	20.65
226.821	24.1
227.199	20.98
227.577	21.58
227.955	19.16
228.333	16.49
228.711	13.17
229.089	6.94
229.467	7.21
229.845	6.5
230.222	6.96
230.6	2.05
230.978	2.73
231.356	0.38
231.733	1.04
232.111	1.03
232.488	0.13
232.866	0.12
233.243	0.12
233.621	-0.67
233.998	-0.74
234.376	-0.8
234.753	0.03
235.13	2
235.508	0.78
235.885	2.56
236.262	1.57
236.639	0.52
237.016	1.97
237.393	2.1
237.77	1.07
238.147	0.62
238.524	1.35
238.901	0.03
239.278	0.45
239.655	1.08
240.032	1.42
240.409	1.3
240.785	1.34
241.162	1.24
241.539	1.16
241.915	1.36
242.292	1.44
242.668	1.25
243.045	1.27
243.421	1.87
243.798	1.49
244.174	1.94
244.551	2.53
244.927	2.55
245.303	2.62
245.679	3.05
246.056	3.16
246.432	3.2
246.808	3.37
247.184	3.3
247.56	3.06
247.936	3.05
248.312	3.33
248.688	3.54
249.064	3.6
249.44	3.73
249.815	3.7
250.191	3.31
250.567	3.22
250.943	2.9
251.318	2.79
251.694	2.87
252.069	2.75
252.445	2.48
252.82	2.82
253.196	3.02
253.571	2.69
253.947	2.7
254.322	2.6
254.697	2.76
255.073	2.92
255.448	2.71
255.823	2.73
256.198	2.67
256.573	2.73
256.948	2.76
257.323	2.59
257.698	2.6
258.073	2.81
258.448	2.83
258.823	2.97
259.198	2.85
259.573	2.67
259.948	2.76
260.322	2.7
260.697	2.72
261.072	2.7
261.446	2.81
261.821	2.73
262.195	2.75
262.57	2.73
262.944	2.59
263.319	2.77
263.693	2.82
264.067	2.86
264.442	2.71
264.816	2.58
265.19	2.57
265.564	2.59
265.938	2.77
266.313	2.78
266.687	2.86
267.061	2.76
267.435	2.93
267.809	2.8
268.183	2.88
268.556	2.61
268.93	2.7
269.304	2.65
269.678	2.65
270.051	2.66
270.425	2.82
270.799	2.83
271.172	2.71
271.546	2.76
271.919	2.72
272.293	2.66
272.666	2.8
273.04	2.99
273.413	2.98
273.787	2.79
274.16	2.79
274.533	2.89
274.906	3.04
275.279	3.01
275.653	3.09
276.026	3.06
276.399	3.26
276.772	3.19
277.145	3.23
277.518	3.15
277.891	3.19
278.263	3.15
278.636	3.27
279.009	3.3
279.382	2.99
279.755	2.85
280.127	3.09
280.5	2.84
280.872	2.72
281.245	2.81
281.617	2.81
281.99	2.89
282.362	2.76
282.735	2.72
283.107	2.84
283.479	2.87
283.852	2.81
284.224	2.74
284.596	2.62
284.968	2.52
285.34	2.59
285.713	2.68
286.085	2.56
286.457	2.58
286.829	2.68
287.201	2.86
287.572	2.92
287.944	2.92
288.316	3.05
288.688	3.14
289.06	3.03
289.431	3.1
289.803	3.08
290.175	3.02
290.546	2.99
290.918	2.91
291.289	2.75
291.661	2.8
292.032	2.78
292.403	2.88
292.775	3.04
293.146	3.04
293.517	2.84
293.889	2.92
294.26	2.9
294.631	2.86
295.002	2.86
295.373	2.96
295.744	2.84
296.115	2.87
296.486	2.91
296.857	3.07
297.228	3.02
297.599	2.96
297.97	3.08
298.34	3.19
298.711	3.32
299.082	3.45
299.452	3.53
299.823	3.61
300.194	3.64
300.564	3.53
300.935	3.5
301.305	3.6
301.676	3.54
302.046	3.48
302.416	3.57
302.787	3.53
303.157	3.38
303.527	3.43
303.897	3.33
304.267	3.16
304.637	3.14
305.008	3.2
305.378	3.27
305.748	3.11
306.117	3.07
306.487	2.86
306.857	2.98
307.227	3.11
307.597	3.03
307.967	2.94
308.336	3.01
308.706	2.97
309.076	3.11
309.445	3.23
309.815	3.22
310.184	3.24
310.554	3.13
310.923	3.06
311.293	3.05
311.662	3.11
312.031	3.22
312.401	3.12
312.77	3.09
313.139	3.03
313.508	2.99
313.877	2.97
314.246	3.09
314.616	3.06
314.985	2.92
315.353	2.91
315.722	2.94
316.091	2.92
316.46	3
316.829	2.82
317.198	2.71
317.567	2.84
317.935	2.64
318.304	2.86
318.672	2.98
319.041	2.97
319.41	2.93
319.778	2.89
320.147	2.81
320.515	2.77
320.883	2.78
321.252	2.72
321.62	2.82
321.988	2.92
322.357	2.75
322.725	2.83
323.093	2.88
323.461	2.85
323.829	2.88
324.197	2.85
324.565	2.92
324.933	2.91
325.301	2.78
325.669	2.8
326.037	2.67
326.405	2.73
326.772	2.77
327.14	2.7
327.508	2.67
327.875	2.77
328.243	2.76
328.61	2.9
328.978	3.04
329.346	2.92
329.713	2.87
330.08	2.94
330.448	2.84
330.815	2.82
331.182	2.71
331.55	2.7
331.917	2.74
332.284	2.74
332.651	2.8
333.018	2.76
333.385	2.73
333.752	2.79
334.119	2.8
334.486	2.73
334.853	2.77
335.22	2.82
335.587	2.77
335.954	2.72
336.32	2.62
336.687	2.65
337.054	2.53
337.42	2.42
337.787	2.41
338.153	2.46
338.52	2.47
338.886	2.59
339.253	2.57
339.619	2.64
339.986	2.54
340.352	2.55
340.718	2.63
341.084	2.68
341.451	2.76
341.817	2.84
342.183	2.85
342.549	2.9
342.915	2.87
343.281	2.87
343.647	3
344.013	3.07
344.379	3.02
344.745	3.21
345.11	3.26
345.476	3.34
345.842	3.33
346.208	3.36
346.573	3.33
346.939	3.35
347.304	3.3
347.67	3.43
348.035	3.31
348.401	3.36
348.766	3.38
349.132	3.28
349.497	3.21
349.862	3.17
350.228	3.15
350.593	3.12
350.958	3.09
351.323	2.95
351.688	2.89
352.053	2.91
352.418	2.81
352.783	2.76
353.148	2.64
353.513	2.66
353.878	2.55
354.243	2.54
354.608	2.51
354.972	2.53
355.337	2.47
355.702	2.5
356.066	2.5
356.431	2.49
356.795	2.51
357.16	2.48
357.524	2.55
357.889	2.54
358.253	2.56
358.618	2.62
358.982	2.69
359.346	2.68
359.71	2.69
360.075	2.78
360.439	2.81
360.803	2.86
361.167	2.72
361.531	2.73
361.895	2.69
362.259	2.73
362.623	2.75
362.987	2.76
363.351	2.81
363.714	2.75
364.078	2.78
364.442	2.77
364.806	2.82
365.169	2.79
365.533	2.82
365.896	2.85
366.26	2.8
366.623	2.81
366.987	2.83
367.35	2.84
367.714	2.82
368.077	2.84
368.44	2.86
368.803	2.97
369.167	2.95
369.53	3.01
369.893	2.99
370.256	2.92
370.619	2.89
370.982	2.86
371.345	2.85
371.708	2.89
372.071	2.93
372.434	2.86
372.797	2.85
373.159	2.82
373.522	2.77
373.885	2.82
374.247	2.8
374.61	2.79
374.973	2.82
375.335	2.78
375.698	2.77
376.06	2.71
376.423	2.69
376.785	2.67
377.147	2.65
377.51	2.65
377.872	2.65
378.234	2.68
378.596	2.7
378.958	2.74
379.321	2.67
379.683	2.69
380.045	2.72
380.407	2.75
380.769	2.77
381.13	2.77
381.492	2.74
381.854	2.75
382.216	2.8
382.578	2.77
382.939	2.75
383.301	2.73
383.663	2.73
384.024	2.72
384.386	2.79
384.747	2.82
385.109	2.83
385.47	2.83
385.832	2.79
386.193	2.79
386.554	2.72
386.916	2.73
387.277	2.71
387.638	2.72
387.999	2.72
388.36	2.69
388.721	2.72
389.082	2.74
389.443	2.75
389.804	2.72
390.165	2.71
390.526	2.71
390.887	2.72
391.248	2.72
391.609	2.77
391.969	2.79
392.33	2.77
392.691	2.75
393.051	2.75
393.412	2.76
393.772	2.8
394.133	2.85
394.493	2.82
394.854	2.8
395.214	2.79
395.574	2.8
395.935	2.84
396.295	2.82
396.655	2.82
397.015	2.8
397.376	2.81
397.736	2.79
398.096	2.78
398.456	2.79
398.816	2.78
399.176	2.72
399.535	2.65
399.895	2.64
400.255	2.66
400.615	2.67
400.975	2.66
401.334	2.63
401.694	2.62
402.054	2.63
402.413	2.65
402.773	2.66
403.132	2.62
403.492	2.63
403.851	2.63
404.211	2.64
404.57	2.69
404.929	2.66
405.288	2.7
405.648	2.72
406.007	2.71
406.366	2.72
406.725	2.73
407.084	2.77
407.443	2.8
407.802	2.81
408.161	2.79
408.52	2.82
408.879	2.85
409.238	2.84
409.596	2.86
409.955	2.88
410.314	2.87
410.673	2.9
411.031	2.88
411.39	2.89
411.748	2.89
412.107	2.87
412.465	2.89
412.824	2.87
413.182	2.87
413.54	2.89
413.899	2.87
414.257	2.9
414.615	2.89
414.974	2.88
415.332	2.85
415.69	2.86
416.048	2.88
416.406	2.82
416.764	2.83
417.122	2.82
417.48	2.81
417.838	2.82
418.195	2.82
418.553	2.83
418.911	2.82
419.269	2.82
419.626	2.82
419.984	2.82
420.342	2.83
420.699	2.81
421.057	2.8
421.414	2.81
421.772	2.8
422.129	2.81
422.486	2.81
422.844	2.83
423.201	2.82
423.558	2.82
423.915	2.84
424.273	2.84
424.63	2.84
424.987	2.83
425.344	2.84
425.701	2.83
426.058	2.83
426.415	2.84
426.772	2.83
427.128	2.84
427.485	2.84
427.842	2.83
428.199	2.85
428.555	2.85
428.912	2.86
429.269	2.86
429.625	2.86
429.982	2.85
430.338	2.85
430.695	2.86
431.051	2.85
431.407	2.84
431.764	2.82
432.12	2.84
432.476	2.84
432.832	2.82
433.189	2.82
433.545	2.82
433.901	2.81
434.257	2.81
434.613	2.79
434.969	2.79
435.325	2.8
435.681	2.79
436.036	2.79
436.392	2.81
436.748	2.82
437.104	2.81
437.459	2.81
437.815	2.82
438.171	2.81
438.526	2.81
438.882	2.82
439.237	2.83
439.593	2.83
439.948	2.83
440.304	2.84
440.659	2.85
441.014	2.86
441.369	2.86
441.725	2.87
442.08	2.87
442.435	2.88
442.79	2.88
443.145	2.89
443.5	2.88
443.855	2.86
444.21	2.85
444.565	2.86
444.92	2.87
445.275	2.85
445.629	2.86
445.984	2.87
446.339	2.87
446.693	2.89
447.048	2.89
447.403	2.89
447.757	2.9
448.112	2.89
448.466	2.88
448.82	2.88
449.175	2.88
449.529	2.89
449.883	2.89
450.238	2.89
450.592	2.89
450.946	2.9
451.3	2.92
451.654	2.92
452.008	2.91
452.362	2.92
452.716	2.92
453.07	2.92
453.424	2.91
453.778	2.91
454.132	2.9
454.486	2.91
454.839	2.91
455.193	2.9
455.547	2.91
455.9	2.92
456.254	2.91
456.607	2.9
456.961	2.9
457.314	2.9
457.668	2.9
458.021	2.9
458.375	2.9
458.728	2.89
459.081	2.9
459.434	2.91
459.787	2.92
460.141	2.93
460.494	2.93
460.847	2.94
461.2	2.93
461.553	2.93
461.906	2.92
462.259	2.9
462.611	2.91
462.964	2.93
463.317	2.93
463.67	2.95
464.022	2.95
464.375	2.96
464.728	2.98
465.08	2.97
465.433	2.97
465.785	2.97
466.138	2.98
466.49	2.98
466.843	2.99
467.195	2.99
467.547	2.98
467.899	2.99
468.252	2.98
468.604	2.99
468.956	3.01
469.308	3.01
469.66	3.04
470.012	3.03
470.364	3.01
470.716	3
471.068	2.99
471.42	3.01
471.772	3.01
472.123	3
472.475	3.02
472.827	2.99
473.178	3
473.53	3.01
473.882	3.01
474.233	2.99
474.585	2.98
474.936	2.97
475.288	2.97
475.639	3
475.99	2.97
476.342	2.96
476.693	2.97
477.044	2.96
477.395	2.95
477.746	2.94
478.097	2.96
478.448	2.94
478.8	2.93
479.15	2.94
479.501	2.93
479.852	2.95
480.203	2.98
480.554	2.98
480.905	2.98
481.255	2.99
481.606	3.01
481.957	3.01
482.307	3.01
482.658	3.02
483.009	3.01
483.359	3.02
483.709	3.03
484.06	3.03
484.41	3.03
484.761	3.05
485.111	3.06
485.461	3.06
485.811	3.06
486.162	3.07
486.512	3.07
486.862	3.07
487.212	3.07
487.562	3.07
487.912	3.08
488.262	3.08
488.612	3.07
488.961	3.07
489.311	3.07
489.661	3.07
490.011	3.06
490.36	3.05
490.71	3.05
491.06	3.04
491.409	3.03
491.759	3.03
492.108	3.02
492.458	3.01
492.807	3.01
493.157	3.01
493.506	3.01
493.855	3.01
494.204	3.01
494.554	3.01
494.903	3.02
495.252	3.02
495.601	3.03
495.95	3.04
496.299	3.03
496.648	3.04
496.997	3.04
497.346	3.06
497.695	3.08
498.043	3.11
498.392	3.13
498.741	3.14
499.09	3.15
499.438	3.18
499.787	3.19
500.135	3.2
500.484	3.21
500.832	3.21
501.181	3.21
501.529	3.22
501.878	3.21
502.226	3.18
502.574	3.19
502.923	3.2
503.271	3.21
503.619	3.22
503.967	3.23
504.315	3.23
504.663	3.22
505.011	3.23
505.359	3.21
505.707	3.19
506.055	3.2
506.403	3.21
506.751	3.2
507.098	3.2
507.446	3.21
507.794	3.22
508.141	3.23
508.489	3.24
508.837	3.24
509.184	3.25
509.531	3.26
509.879	3.25
510.226	3.23
510.574	3.23
510.921	3.23
511.268	3.24
511.616	3.24
511.963	3.25
512.31	3.25
512.657	3.26
513.004	3.27
513.351	3.26
513.698	3.27
514.045	3.26
514.392	3.27
514.739	3.27
515.086	3.28
515.432	3.28
515.779	3.28
516.126	3.3
516.473	3.3
516.819	3.31
517.166	3.33
517.512	3.36
517.859	3.37
518.205	3.35
518.552	3.35
518.898	3.37
519.245	3.37
519.591	3.37
519.937	3.37
520.283	3.39
520.629	3.4
520.976	3.37
521.322	3.37
521.668	3.38
522.014	3.4
522.36	3.39
522.706	3.39
523.052	3.39
523.398	3.37
523.743	3.38
524.089	3.38
524.435	3.37
524.781	3.35
525.126	3.35
525.472	3.36
525.817	3.37
526.163	3.38
526.509	3.38
526.854	3.4
527.199	3.4
527.545	3.39
527.89	3.39
528.235	3.41
528.581	3.42
528.926	3.41
529.271	3.39
529.616	3.39
529.961	3.39
530.306	3.4
530.651	3.4
530.996	3.41
531.341	3.41
531.686	3.41
532.031	3.41
532.376	3.41
532.721	3.42
533.065	3.41
533.41	3.4
533.755	3.4
534.099	3.4
534.444	3.4
534.788	3.4
535.133	3.41
535.477	3.41
535.822	3.41
536.166	3.41
536.51	3.44
536.855	3.44
537.199	3.44
537.543	3.43
537.887	3.43
538.231	3.42
538.576	3.41
538.92	3.43
539.264	3.44
539.608	3.45
539.951	3.45
540.295	3.46
540.639	3.47
540.983	3.48
541.327	3.49
541.671	3.49
542.014	3.5
542.358	3.51
542.701	3.51
543.045	3.52
543.389	3.52
543.732	3.52
544.075	3.53
544.419	3.54
544.762	3.55
545.105	3.57
545.449	3.59
545.792	3.6
546.135	3.59
546.478	3.61
546.821	3.63
547.165	3.64
547.508	3.64
547.851	3.64
548.194	3.64
548.536	3.62
548.879	3.62
549.222	3.61
549.565	3.63
549.908	3.62
550.25	3.61
550.593	3.62
550.936	3.6
551.278	3.58
551.621	3.56
551.963	3.56
552.306	3.56
552.648	3.53
552.991	3.52
553.333	3.52
553.675	3.48
554.017	3.46
554.36	3.46
554.702	3.44
555.044	3.45
555.386	3.46
555.728	3.46
556.07	3.47
556.412	3.49
556.754	3.46
557.096	3.45
557.438	3.45
557.78	3.44
558.121	3.44
558.463	3.48
558.805	3.49
559.147	3.5
559.488	3.48
559.83	3.5
560.171	3.49
560.513	3.5
560.854	3.52
561.196	3.53
561.537	3.53
561.878	3.54
562.22	3.53
562.561	3.53
562.902	3.53
563.243	3.53
563.584	3.53
563.925	3.54
564.266	3.54
564.607	3.55
564.948	3.55
565.289	3.55
565.63	3.55
565.971	3.55
566.312	3.52
566.653	3.56
566.993	3.54
567.334	3.57
567.675	3.6
568.015	3.58
568.356	3.6
568.696	3.62
569.037	3.61
569.377	3.6
569.718	3.6
570.058	3.61
570.398	3.61
570.739	3.58
571.079	3.58
571.419	3.57
571.759	3.58
572.099	3.59
572.439	3.59
572.779	3.58
573.119	3.58
573.459	3.6
573.799	3.58
574.139	3.61
574.479	3.6
574.819	3.61
575.158	3.63
575.498	3.61
575.838	3.58
576.177	3.59
576.517	3.6
576.856	3.61
577.196	3.59
577.535	3.58
577.875	3.62
578.214	3.62
578.553	3.62
578.893	3.63
579.232	3.6
579.571	3.63
579.91	3.63
580.25	3.65
580.589	3.65
580.928	3.66
581.267	3.62
581.606	3.62
581.945	3.56
582.283	3.6
582.622	3.59
582.961	3.65
583.3	3.63
583.639	3.65
583.977	3.6
584.316	3.62
584.654	3.63
584.993	3.62
585.332	3.64
585.67	3.69
586.008	3.64
586.347	3.65
586.685	3.62
587.024	3.64
587.362	3.62
587.7	3.65
588.038	3.66
588.376	3.67
588.715	3.66
589.053	3.66
589.391	3.63
589.729	3.68
590.067	3.68
590.404	3.7
590.742	3.67
591.08	3.71
591.418	3.72
591.756	3.75
592.093	3.75
592.431	3.74
592.769	3.74
593.106	3.79
593.444	3.83
593.781	3.86
594.119	3.84
594.456	3.83
594.793	3.79
595.131	3.8
595.468	3.82
595.805	3.83
596.143	3.86
596.48	3.86
596.817	3.85
597.154	3.82
597.491	3.84
597.828	3.86
598.165	3.86
598.502	3.83
598.839	3.82
599.176	3.81
599.512	3.82
599.849	3.79
600.186	3.76
600.523	3.75
600.859	3.78
601.196	3.76
601.532	3.8
601.869	3.83
602.205	3.81
602.542	3.8
602.878	3.84
603.215	3.84
603.551	3.82
603.887	3.8
604.223	3.77
604.56	3.76
604.896	3.77
605.232	3.76
605.568	3.8
605.904	3.75
606.24	3.78
606.576	3.77
606.912	3.79
607.248	3.81
607.583	3.81
607.919	3.8
608.255	3.85
608.591	3.83
608.926	3.84
609.262	3.85
609.597	3.84
609.933	3.84
610.268	3.83
610.604	3.88
610.939	3.89
611.275	3.95
611.61	3.93
611.945	3.91
612.281	3.9
612.616	3.92
612.951	3.98
613.286	3.94
613.621	3.99
613.956	4.06
614.291	4.03
614.626	4.02
614.961	4.02
615.296	3.99
615.631	3.98
615.966	3.95
616.3	3.98
616.635	4.02
616.97	3.99
617.304	3.99
617.639	3.94
617.973	3.91
618.308	3.92
618.642	3.89
618.977	3.91
619.311	3.93
619.646	3.87
619.98	3.85
620.314	3.85
620.648	3.79
620.983	3.72
621.317	3.78
621.651	3.77
621.985	3.77
622.319	3.77
622.653	3.78
622.987	3.81
623.321	3.8
623.655	3.8
623.988	3.83
624.322	3.81
624.656	3.86
624.99	3.86
625.323	3.82
625.657	3.85
625.99	3.86
626.324	3.89
626.657	3.91
626.991	3.92
627.324	3.91
627.658	3.94
627.991	3.97
628.324	3.95
628.657	3.97
628.991	3.93
629.324	3.92
629.657	3.87
629.99	3.91
630.323	3.9
630.656	3.86
630.989	3.84
631.322	3.85
631.655	3.82
631.987	3.83
632.32	3.83
632.653	3.81
632.986	3.78
633.318	3.76
633.651	3.75
633.984	3.75
634.316	3.78
634.649	3.76
634.981	3.74
635.313	3.74
635.646	3.78
635.978	3.79
636.31	3.82
636.643	3.87
636.975	3.85
637.307	3.88
637.639	3.87
637.971	3.86
638.303	3.88
638.635	3.89
638.967	3.85
639.299	3.89
639.631	3.89
639.963	3.94
640.295	3.98
640.626	3.97
640.958	3.99
641.29	3.98
641.621	3.96
641.953	3.94
642.285	3.99
642.616	3.95
642.948	3.95
643.279	3.89
643.61	3.92
643.942	3.92
644.273	3.89
644.604	3.93
644.936	3.93
645.267	3.91
645.598	3.91
645.929	3.93
646.26	3.89
646.591	3.91
646.922	3.93
647.253	3.96
647.584	3.99
647.915	4.01
648.245	4
648.576	4.08
648.907	4.11
649.238	4.11
649.568	4.1
649.899	4.08
650.229	4.17
650.56	4.2
650.89	4.22
651.221	4.21
651.551	4.22
651.882	4.26
652.212	4.21
652.542	4.23
652.872	4.3
653.203	4.37
653.533	4.4
653.863	4.36
654.193	4.33
654.523	4.27
654.853	4.23
655.183	4.3
655.513	4.31
655.843	4.3
656.172	4.35
656.502	4.34
656.832	4.4
657.162	4.36
657.491	4.3
657.821	4.28
658.15	4.29
658.48	4.29
658.809	4.25
659.139	4.34
659.468	4.38
659.798	4.37
660.127	4.39
660.456	4.37
660.785	4.42
661.115	4.43
661.444	4.48
661.773	4.5
662.102	4.44
662.431	4.4
662.76	4.39
663.089	4.39
663.418	4.42
663.747	4.41
664.076	4.43
664.404	4.46
664.733	4.5
665.062	4.57
665.39	4.63
665.719	4.68
666.048	4.73
666.376	4.71
666.705	4.67
667.033	4.68
667.362	4.63
667.69	4.62
668.018	4.63
668.347	4.58
668.675	4.6
669.003	4.67
669.331	4.67
669.659	4.69
669.987	4.62
670.315	4.59
670.643	4.57
670.971	4.62
671.299	4.65
671.627	4.65
671.955	4.53
672.283	4.51
672.61	4.5
672.938	4.47
673.266	4.4
673.593	4.31
673.921	4.22
674.249	4.21
674.576	4.18
674.904	4.11
675.231	4.2
675.558	4.22
675.886	4.23
676.213	4.24
676.54	4.28
676.867	4.26
677.195	4.29
677.522	4.34
677.849	4.37
678.176	4.4
678.503	4.29
678.83	4.38
679.157	4.3
679.484	4.26
679.81	4.2
680.137	4.28
680.464	4.36
680.791	4.42
681.117	4.51
681.444	4.56
681.771	4.61
682.097	4.56
682.424	4.51
682.75	4.52
683.077	4.53
683.403	4.46
683.729	4.43
684.056	4.4
684.382	4.35
684.708	4.29
685.034	4.25
685.36	4.27
685.686	4.3
686.012	4.38
686.339	4.43
686.664	4.41
686.99	4.26
687.316	4.3
687.642	4.32
687.968	4.3
688.294	4.34
688.619	4.33
688.945	4.34
689.271	4.4
689.596	4.32
689.922	4.29
690.247	4.28
690.573	4.3
690.898	4.44
691.224	4.42
691.549	4.48
691.874	4.47
692.2	4.5
692.525	4.42
692.85	4.43
693.175	4.5
693.5	4.48
693.825	4.65
694.15	4.62
694.475	4.63
694.8	4.65
695.125	4.53
695.45	4.47
695.775	4.46
696.099	4.51
696.424	4.56
696.749	4.67
697.073	4.73
697.398	4.76
697.723	4.72
698.047	4.8
698.372	4.79
698.696	4.73
699.02	4.72
699.345	4.78
699.669	4.81
699.993	4.69
700.318	4.79
700.642	4.77
700.966	4.84
701.29	4.86
701.614	4.84
701.938	4.94
702.262	4.99
702.586	5.06
702.91	5.08
703.234	5
703.557	4.9
703.881	4.98
704.205	5.03
704.529	4.97
704.852	4.94
705.176	4.92
705.499	5
705.823	4.96
706.146	4.87
706.47	4.84
706.793	5.09
707.117	5.03
707.44	4.99
707.763	4.94
708.086	4.81
708.409	4.75
708.733	4.69
709.056	4.77
709.379	4.87
709.702	4.82
710.025	5.02
710.348	5.04
710.671	4.94
710.993	4.92
711.316	4.93
711.639	4.9
711.962	4.91
712.284	4.8
712.607	5.01
712.93	5.09
713.252	5.06
713.575	4.93
713.897	4.89
714.22	4.89
714.542	4.99
714.864	4.95
715.187	5.01
715.509	5.02
715.831	4.99
716.153	4.91
716.475	4.9
716.798	4.82
717.12	4.84
717.442	4.85
717.764	4.85
718.085	4.98
718.407	5.04
718.729	4.97
719.051	5.04
719.373	5.1
719.695	5.14
720.016	5.11
720.338	5.14
720.659	5.33
720.981	5.53
721.302	5.5
721.624	5.69
721.945	5.78
722.267	5.84
722.588	5.88
722.909	5.71
723.231	5.76
723.552	5.78
723.873	5.81
724.194	5.87
724.515	5.79
724.836	5.66
725.157	5.58
725.478	5.43
725.799	5.59
726.12	5.26
726.441	5.15
726.762	5.09
727.083	5.12
727.403	5.07
727.724	4.98
728.045	4.95
728.365	4.97
728.686	4.84
729.006	4.74
729.327	4.63
729.647	4.75
729.967	4.64
730.288	4.58
730.608	4.58
730.928	4.74
731.249	4.89
731.569	4.99
731.889	4.9
732.209	5.07
732.529	4.94
732.849	5.01
733.169	5.03
733.489	5.16
733.809	5.2
734.129	5.12
734.448	5.04
734.768	4.96
735.088	4.87
735.408	4.97
735.727	5.12
736.047	5.11
736.366	5.19
736.686	5.23
737.005	5.31
737.325	5.28
737.644	4.99
737.963	4.94
738.283	4.71
738.602	4.95
738.921	5
739.24	4.94
739.56	5.05
739.879	4.96
740.198	4.78
740.517	4.53
740.836	4.52
741.155	4.56
741.473	4.78
741.792	4.83
742.111	5.1
742.43	4.96
742.748	5.21
743.067	5.02
743.386	4.91
743.704	4.88
744.023	4.99
744.341	5.12
744.66	5.09
744.978	5.27
745.297	5.33
745.615	5.05
745.933	5.24
746.252	5.34
746.57	5.73
746.888	5.99
747.206	6.5
747.524	6.62
747.842	6.5
748.16	6.45
748.478	6.37
748.796	6.1
749.114	6.31
749.432	6.17
749.749	6.16
750.067	6.34
750.385	6.48
750.703	6.47
751.02	6.38
751.338	6.27
751.655	6.15
751.973	5.94
752.29	6.17
752.608	6.18
752.925	6.11
753.242	5.98
753.56	5.71
753.877	5.31
754.194	5.36
754.511	5.65
754.828	5.48
755.145	5.44
755.462	5.47
755.779	5.26
756.096	5.39
756.413	5.52
756.73	5.57
757.047	5.4
757.364	5.35
757.68	5.56
757.997	5.63
758.314	5.66
758.63	5.78
758.947	5.8
759.264	5.83
759.58	5.67
759.896	5.68
760.213	5.78
760.529	5.79
760.846	5.79
761.162	5.59
761.478	5.66
761.794	5.88
762.11	5.87
762.426	5.71
762.743	5.47
763.059	5.56
763.375	5.51
763.69	5.63
764.006	5.55
764.322	5.59
764.638	5.54
764.954	5.6
765.27	5.57
765.585	5.53
765.901	5.53
766.216	5.62
766.532	5.5
766.848	5.45
767.163	5.53
767.478	5.53
767.794	5.53
768.109	5.49
768.424	5.42
768.74	5.42
769.055	5.86
769.37	5.95
769.685	5.87
770	6.1
770.315	6.12
770.63	6.35
770.945	6.47
771.26	6.48
771.575	6.54
771.89	6.61
772.205	6.65
772.52	6.7
772.834	6.37
773.149	6.61
773.464	6.86
773.778	6.69
774.093	6.39
774.407	6.83
774.722	6.79
775.036	6.72
775.351	6.9
775.665	6.88
775.979	6.84
776.293	7.04
776.608	6.66
776.922	6.4
777.236	6.36
777.55	5.8
777.864	6.04
778.178	6.1
778.492	6.07
778.806	6.06
779.12	5.96
779.434	6.39
779.747	6.23
780.061	6.28
780.375	6.34
780.689	6.77
781.002	6.42
781.316	6.51
781.629	6.51
781.943	6.29
782.256	5.99
782.57	6.02
782.883	6.14
783.196	6.32
783.51	6.91
783.823	6.43
784.136	6.51
784.449	6.46
784.762	6.61
785.075	6.48
785.388	6.85
785.701	6.25
786.014	5.64
786.327	5.22
786.64	5.15
786.953	5.16
787.266	5
787.578	5.14
787.891	5.29
788.204	5.3
788.516	5.65
788.829	5.53
789.141	5.63
789.454	5.28
789.766	5.4
790.079	5.04
790.391	5.49
790.703	5.76
791.016	5.77
791.328	5.45
791.64	5.78
791.952	5.84
792.264	6.56
792.576	7.4
792.888	7.83
793.2	7.78
793.512	7.53
793.824	7.88
794.136	7.85
794.448	7.64
794.76	7.51
795.071	7.41
795.383	7.63
795.695	7.16
796.006	6.82
796.318	6.63
796.629	6.66
796.941	6.66
797.252	6.69
797.564	6.64
797.875	6.8
798.186	6.99
798.497	6.86
798.809	6.52
799.12	6.04
799.431	6.07
799.742	6.34
800.053	6.4
800.364	5.69
800.675	5.79
800.986	6.15
801.297	6.42
801.608	6.52
801.918	6.66
802.229	7.19
802.54	7.68
802.851	7.73
803.161	7.25
803.472	7.24
803.782	6.68
804.093	6.95
804.403	7.04
804.714	6.98
805.024	6.87
805.334	6.86
805.645	6.72
805.955	6.68
806.265	6.3
806.575	6.56
806.885	7.28
807.195	7.07
807.505	6.75
807.815	6.94
808.125	6.89
808.435	6.72
808.745	6.83
809.055	7.09
809.365	7.32
809.674	7.5
809.984	7.36
810.294	7.83
810.603	7.53
810.913	7.64
811.222	7.09
811.532	7.37
811.841	7.53
812.151	8.11
812.46	8.2
812.769	7.93
813.079	8.47
813.388	8.43
813.697	8.34
814.006	9.22
814.315	9.29
814.624	8.7
814.933	8.66
815.242	8.37
815.551	8.12
815.86	8.2
816.169	8.2
816.478	8.88
816.786	8.88
817.095	8.92
817.404	8.48
817.712	9.05
818.021	8.76
818.33	8.8
818.638	8.82
818.947	8.8
819.255	9.01
819.563	8.73
819.872	8.71
820.18	8.77
820.488	8.6
820.796	8.51
821.105	8.75
821.413	8.59
821.721	8.59
822.029	8.52
822.337	8.51
822.645	8.61
822.953	8.44
823.26	8.52
823.568	8.59
823.876	8.69
824.184	8.52
824.491	8.34
824.799	8.29
825.107	8.3
825.414	8.23
825.722	8.21
826.029	8.15
826.337	8.07
826.644	8.24
826.951	8.05
827.259	8.08
827.566	8.09
827.873	8.29
828.18	8.23
828.488	8.17
828.795	8.03
829.102	7.84
829.409	7.82
829.716	7.56
830.023	7.7
830.329	7.72
830.636	8.04
830.943	8.36
831.25	8.57
831.557	8.65
831.863	8.84
832.17	9
832.476	9.6
832.783	9.79
833.089	9.65
833.396	9.7
833.702	9.71
834.009	9.54
834.315	9.62
834.621	9.93
834.928	10.14
835.234	10.51
835.54	10.6
835.846	10.86
836.152	11.24
836.458	10.94
836.764	11.03
837.07	10.68
837.376	10.63
837.682	10.93
837.988	10.43
838.293	10.68
838.599	10.51
838.905	10.16
839.211	10.3
839.516	10.23
839.822	11.3
840.127	10.96
840.433	10.85
840.738	10.51
841.044	10.39
841.349	10.23
841.654	10.33
841.959	10.82
842.265	10.61
842.57	10.81
842.875	10.41
843.18	10.08
843.485	10.82
843.79	10.76
844.095	9.8
844.4	11.25
844.705	10.55
845.01	11.52
845.315	11.39
845.619	12.45
845.924	11.77
846.229	10.87
846.533	11.01
846.838	10.38
847.142	10.43
847.447	9.08
847.751	10.01
848.056	8.58
848.36	9.25
848.664	9.55
848.969	9.7
849.273	10.16
849.577	10.9
849.881	11.39
850.185	11.5
850.489	12.99
850.794	11.37
851.097	12.75
851.401	11.63
851.705	11.76
852.009	10.64
852.313	10.78
852.617	9.56
852.92	9.13
853.224	10.67
853.528	11.14
853.831	13.8
854.135	14.13
854.438	14.03
854.742	11.92
855.045	11.49
855.349	11.81
855.652	12.32
855.955	12
856.259	9.54
856.562	12.84
856.865	11.17
857.168	11.43
857.471	10.7
857.774	11.17
858.077	10.57
858.38	9.12
858.683	9.99
858.986	12.47
859.289	13.3
859.592	13.55
859.894	13.21
860.197	12.13
860.5	11.77
860.802	13.15
861.105	14.7
861.407	14.43
861.71	13.02
862.012	11.28
862.315	11.74
862.617	13.17
862.919	9.72
863.222	10.77
863.524	9.97
863.826	8.35
864.128	8.54
864.43	9.93
864.732	9.32
865.034	8.7
865.336	5.26
865.638	4.07
865.94	2.2
866.242	3.44
866.544	7.12
866.846	7.53
867.147	8.21
867.449	10.43
867.751	11.89
868.052	11.87
868.354	14.22
868.655	11.84
868.957	11.7
869.258	11.5
869.56	10.65
869.861	12.76
870.162	13.48
870.463	13.99
870.765	14.18
871.066	16.58
871.367	13.24
871.668	14.69
871.969	16.71
872.27	18.03
872.571	18.17
872.872	14.15
873.173	14.38
873.473	11.68
873.774	11.76
874.075	11.58
874.376	11.35
874.676	12.26
874.977	13.77
875.277	14.21
875.578	15.35
875.878	16.58
876.179	15.33
876.479	16.67
876.78	16.2
877.08	15.08
877.38	13.44
877.68	18.62
877.981	19.57
878.281	19.32
878.581	20.16
