Data from BU26944_Reflection_00014.txt Node
Date: Tue Nov 19 10:54:57 EST 2019
User: vgr7
Spectrometer: USB2G7710
Scans to average: 3
Trigger mode: 4
Integration Time (sec): 2.000000E-2
Electric dark correction enabled: true
Boxcar width: 10
XAxis mode: Wavelengths
Number of Pixels in Spectrum: 2048
>>>>>Begin Spectral Data<<<<<
177.721	220.21
178.105	356.64
178.488	248.17
178.871	525.71
179.254	-1240
179.636	-82.57
180.019	-162.68
180.402	-650
180.785	23.53
181.168	72.33
181.55	179.4
181.933	162.98
182.316	130.51
182.698	97.64
183.081	78.35
183.463	166.61
183.846	275.24
184.228	216.97
184.611	-2994.59
184.993	-554.29
185.376	-693.23
185.758	973.49
186.14	1305.26
186.522	-371.56
186.904	-154.22
187.287	-69.34
187.669	-44.8
188.051	-54.94
188.433	-71.8
188.815	-51.76
189.197	-31.06
189.579	-34.63
189.961	-42.26
190.342	-20.01
190.724	-34.89
191.106	-56.57
191.488	-43.88
191.869	-52.98
192.251	-41.55
192.633	-25.75
193.014	-30.59
193.396	-28.66
193.777	-45.75
194.159	-37.86
194.54	-70.62
194.922	-88.09
195.303	-105.75
195.684	-115.65
196.065	-107.55
196.447	-103.13
196.828	-101.74
197.209	-119.31
197.59	-99.81
197.971	-96.17
198.352	-94.85
198.733	-86.99
199.114	-74.57
199.495	-86.07
199.876	-95.84
200.257	-114.45
200.638	-106.6
201.018	-124.57
201.399	-110.83
201.78	-83.83
202.16	-99.16
202.541	-83.09
202.922	-80.04
203.302	-57.05
203.683	-58.97
204.063	-66.88
204.444	-56.34
204.824	-56.23
205.204	-31.43
205.585	-35.98
205.965	-45.56
206.345	-47.82
206.725	-46.38
207.106	-49.41
207.486	-48.54
207.866	-26.02
208.246	19.87
208.626	5.61
209.006	-8.79
209.386	-2.63
209.766	-25.86
210.145	-20.58
210.525	-53.74
210.905	-17.52
211.285	-1.61
211.664	11.53
212.044	14.04
212.424	27.31
212.803	8.43
213.183	15.7
213.562	38.69
213.942	37.22
214.321	28.57
214.701	14.65
215.08	-0.96
215.459	-0.27
215.838	-10.19
216.218	-69.4
216.597	-8.27
216.976	3.31
217.355	-6.39
217.734	-22.82
218.113	-13.5
218.492	-14.95
218.871	-16
219.25	-31.37
219.629	-84.61
220.008	-82.65
220.387	-122.69
220.766	-35.18
221.144	-73.34
221.523	-154.43
221.902	-91.48
222.28	-46.39
222.659	-7.7
223.037	-20.01
223.416	-14
223.794	-15.72
224.173	-19.92
224.551	-14.02
224.929	-13.24
225.308	-12.57
225.686	-11.78
226.064	-6.37
226.442	-0.2
226.821	-3.56
227.199	-1.06
227.577	0.47
227.955	1.47
228.333	-2.08
228.711	-1.64
229.089	-2.34
229.467	-2.06
229.845	-2.85
230.222	-4.45
230.6	-6.82
230.978	-2.45
231.356	-1.39
231.733	0.65
232.111	0.91
232.488	-1.66
232.866	0.01
233.243	-1.91
233.621	-0.6
233.998	-2.1
234.376	-2.41
234.753	-3.14
235.13	-5.26
235.508	-4.81
235.885	-6.02
236.262	-5.37
236.639	-4.82
237.016	-4.51
237.393	-2.28
237.77	-1.19
238.147	0.26
238.524	1.52
238.901	0.66
239.278	0.71
239.655	0.07
240.032	0.35
240.409	0.58
240.785	-0.45
241.162	0.35
241.539	0.43
241.915	0.25
242.292	0.32
242.668	0.9
243.045	1.43
243.421	2.01
243.798	2.17
244.174	2.58
244.551	2.34
244.927	2.49
245.303	2.38
245.679	2.31
246.056	2.25
246.432	2.24
246.808	2.15
247.184	2.46
247.56	2.27
247.936	2.28
248.312	2.57
248.688	2.72
249.064	2.71
249.44	2.76
249.815	2.9
250.191	3.06
250.567	2.85
250.943	2.69
251.318	2.46
251.694	2.38
252.069	2.26
252.445	2.16
252.82	2.23
253.196	2.15
253.571	2.27
253.947	2.01
254.322	1.79
254.697	1.95
255.073	1.67
255.448	1.84
255.823	2
256.198	1.71
256.573	2.02
256.948	1.93
257.323	2.01
257.698	1.99
258.073	1.99
258.448	2.14
258.823	2.13
259.198	2.2
259.573	2.09
259.948	2.07
260.322	2.06
260.697	2.08
261.072	2.15
261.446	2.12
261.821	2.08
262.195	2.1
262.57	2.12
262.944	2.16
263.319	2.24
263.693	2.27
264.067	2.31
264.442	2.31
264.816	2.34
265.19	2.36
265.564	2.62
265.938	2.54
266.313	2.4
266.687	2.53
267.061	2.31
267.435	2.57
267.809	2.66
268.183	2.84
268.556	2.59
268.93	2.82
269.304	2.77
269.678	2.99
270.051	3
270.425	3.05
270.799	2.84
271.172	2.75
271.546	2.78
271.919	2.72
272.293	2.76
272.666	2.95
273.04	2.82
273.413	2.69
273.787	2.76
274.16	2.76
274.533	2.66
274.906	2.93
275.279	2.96
275.653	3
276.026	2.94
276.399	3.23
276.772	3.13
277.145	3.19
277.518	3.04
277.891	3.11
278.263	3.28
278.636	3.43
279.009	3.41
279.382	3.33
279.755	3.44
280.127	3.23
280.5	3.14
280.872	3.09
281.245	3.09
281.617	3.21
281.99	3.23
282.362	3.39
282.735	3.31
283.107	3.33
283.479	3.33
283.852	3.31
284.224	3.18
284.596	3
284.968	2.93
285.34	2.93
285.713	2.98
286.085	2.84
286.457	2.89
286.829	2.93
287.201	3.03
287.572	2.96
287.944	2.95
288.316	2.92
288.688	3.16
289.06	3.12
289.431	3.1
289.803	3.17
290.175	3.01
290.546	3.04
290.918	2.94
291.289	2.84
291.661	2.87
292.032	2.92
292.403	2.96
292.775	3.1
293.146	3.13
293.517	2.99
293.889	3.04
294.26	3.01
294.631	3.17
295.002	3.13
295.373	3.2
295.744	3.32
296.115	3.38
296.486	3.28
296.857	3.38
297.228	3.31
297.599	3.3
297.97	3.43
298.34	3.46
298.711	3.55
299.082	3.63
299.452	3.59
299.823	3.57
300.194	3.64
300.564	3.48
300.935	3.56
301.305	3.75
301.676	3.71
302.046	3.71
302.416	3.66
302.787	3.67
303.157	3.66
303.527	3.7
303.897	3.58
304.267	3.69
304.637	3.61
305.008	3.68
305.378	3.73
305.748	3.72
306.117	3.76
306.487	3.66
306.857	3.76
307.227	3.92
307.597	3.95
307.967	3.95
308.336	4.11
308.706	4.07
309.076	4.12
309.445	4.24
309.815	4.34
310.184	4.26
310.554	4.29
310.923	4.3
311.293	4.38
311.662	4.4
312.031	4.36
312.401	4.37
312.77	4.41
313.139	4.55
313.508	4.54
313.877	4.49
314.246	4.55
314.616	4.55
314.985	4.54
315.353	4.6
315.722	4.78
316.091	4.8
316.46	4.9
316.829	4.77
317.198	4.84
317.567	4.97
317.935	5.2
318.304	5.24
318.672	5.26
319.041	5.29
319.41	5.4
319.778	5.45
320.147	5.5
320.515	5.55
320.883	5.36
321.252	5.43
321.62	5.58
321.988	5.57
322.357	5.59
322.725	5.53
323.093	5.54
323.461	5.58
323.829	5.65
324.197	5.57
324.565	5.72
324.933	5.65
325.301	5.44
325.669	5.41
326.037	5.4
326.405	5.6
326.772	5.56
327.14	5.6
327.508	5.65
327.875	5.72
328.243	5.65
328.61	5.7
328.978	5.65
329.346	5.71
329.713	5.81
330.08	5.87
330.448	5.93
330.815	6.03
331.182	5.88
331.55	5.86
331.917	5.94
332.284	5.94
332.651	5.95
333.018	5.98
333.385	5.96
333.752	5.94
334.119	5.98
334.486	6
334.853	6.06
335.22	6.03
335.587	6.15
335.954	6.28
336.32	6.46
336.687	6.59
337.054	6.47
337.42	6.42
337.787	6.36
338.153	6.43
338.52	6.47
338.886	6.58
339.253	6.63
339.619	6.6
339.986	6.52
340.352	6.56
340.718	6.62
341.084	6.66
341.451	6.73
341.817	6.67
342.183	6.7
342.549	6.64
342.915	6.63
343.281	6.62
343.647	6.62
344.013	6.46
344.379	6.39
344.745	6.45
345.11	6.5
345.476	6.62
345.842	6.62
346.208	6.62
346.573	6.65
346.939	6.66
347.304	6.8
347.67	6.87
348.035	7.02
348.401	7.1
348.766	7.1
349.132	7.11
349.497	7.12
349.862	7.14
350.228	7.21
350.593	7.21
350.958	7.17
351.323	7.08
351.688	7.13
352.053	7.24
352.418	7.23
352.783	7.22
353.148	7.09
353.513	7.11
353.878	7.12
354.243	7.01
354.608	7.01
354.972	6.93
355.337	7.02
355.702	6.89
356.066	6.94
356.431	6.97
356.795	6.95
357.16	6.93
357.524	6.87
357.889	6.84
358.253	6.84
358.618	6.87
358.982	6.89
359.346	6.94
359.71	6.95
360.075	6.97
360.439	7.02
360.803	7.07
361.167	6.98
361.531	6.95
361.895	7.04
362.259	7.05
362.623	7.02
362.987	6.88
363.351	6.91
363.714	6.87
364.078	6.83
364.442	6.82
364.806	6.83
365.169	6.82
365.533	6.87
365.896	6.91
366.26	6.84
366.623	6.81
366.987	6.76
367.35	6.71
367.714	6.63
368.077	6.62
368.44	6.6
368.803	6.63
369.167	6.57
369.53	6.5
369.893	6.47
370.256	6.44
370.619	6.47
370.982	6.33
371.345	6.27
371.708	6.28
372.071	6.19
372.434	6.19
372.797	6.19
373.159	6.14
373.522	6.07
373.885	6.05
374.247	6.02
374.61	6.03
374.973	5.99
375.335	6.03
375.698	5.93
376.06	5.87
376.423	5.82
376.785	5.82
377.147	5.81
377.51	5.72
377.872	5.67
378.234	5.61
378.596	5.57
378.958	5.54
379.321	5.5
379.683	5.5
380.045	5.4
380.407	5.35
380.769	5.27
381.13	5.23
381.492	5.16
381.854	5.17
382.216	5.12
382.578	5.07
382.939	5.03
383.301	4.98
383.663	4.95
384.024	4.94
384.386	4.89
384.747	4.81
385.109	4.78
385.47	4.8
385.832	4.78
386.193	4.83
386.554	4.8
386.916	4.75
387.277	4.7
387.638	4.67
387.999	4.64
388.36	4.64
388.721	4.61
389.082	4.64
389.443	4.6
389.804	4.59
390.165	4.59
390.526	4.56
390.887	4.53
391.248	4.48
391.609	4.48
391.969	4.49
392.33	4.47
392.691	4.46
393.051	4.45
393.412	4.44
393.772	4.41
394.133	4.39
394.493	4.39
394.854	4.37
395.214	4.36
395.574	4.35
395.935	4.29
396.295	4.3
396.655	4.26
397.015	4.25
397.376	4.21
397.736	4.16
398.096	4.15
398.456	4.12
398.816	4.09
399.176	4.02
399.535	3.98
399.895	3.97
400.255	3.94
400.615	3.91
400.975	3.87
401.334	3.83
401.694	3.84
402.054	3.78
402.413	3.8
402.773	3.79
403.132	3.77
403.492	3.79
403.851	3.72
404.211	3.68
404.57	3.65
404.929	3.63
405.288	3.64
405.648	3.6
406.007	3.61
406.366	3.6
406.725	3.59
407.084	3.6
407.443	3.6
407.802	3.6
408.161	3.57
408.52	3.58
408.879	3.58
409.238	3.54
409.596	3.56
409.955	3.52
410.314	3.52
410.673	3.51
411.031	3.48
411.39	3.52
411.748	3.53
412.107	3.5
412.465	3.51
412.824	3.49
413.182	3.48
413.54	3.49
413.899	3.47
414.257	3.46
414.615	3.44
414.974	3.43
415.332	3.42
415.69	3.43
416.048	3.41
416.406	3.4
416.764	3.4
417.122	3.37
417.48	3.37
417.838	3.35
418.195	3.33
418.553	3.33
418.911	3.31
419.269	3.29
419.626	3.29
419.984	3.25
420.342	3.24
420.699	3.23
421.057	3.23
421.414	3.24
421.772	3.24
422.129	3.22
422.486	3.21
422.844	3.2
423.201	3.19
423.558	3.17
423.915	3.16
424.273	3.15
424.63	3.16
424.987	3.17
425.344	3.16
425.701	3.14
426.058	3.14
426.415	3.12
426.772	3.11
427.128	3.09
427.485	3.1
427.842	3.09
428.199	3.09
428.555	3.06
428.912	3.03
429.269	3.03
429.625	3.03
429.982	3.01
430.338	3.04
430.695	3.02
431.051	3.03
431.407	3.01
431.764	3.01
432.12	3.01
432.476	3.01
432.832	3.01
433.189	3.04
433.545	3.02
433.901	3.04
434.257	3.05
434.613	3.04
434.969	3.04
435.325	3.05
435.681	3.05
436.036	3.06
436.392	3.06
436.748	3.05
437.104	3.08
437.459	3.08
437.815	3.06
438.171	3.06
438.526	3.06
438.882	3.09
439.237	3.09
439.593	3.08
439.948	3.06
440.304	3.05
440.659	3.04
441.014	3.04
441.369	3.04
441.725	3.04
442.08	3.05
442.435	3.05
442.79	3.05
443.145	3.05
443.5	3.05
443.855	3.05
444.21	3.05
444.565	3.03
444.92	3.03
445.275	3.03
445.629	3.03
445.984	3.04
446.339	3.02
446.693	3.03
447.048	3.02
447.403	3.02
447.757	3.01
448.112	3.02
448.466	3.03
448.82	3.02
449.175	3.03
449.529	3.02
449.883	3.01
450.238	2.99
450.592	2.99
450.946	2.98
451.3	2.97
451.654	2.95
452.008	2.96
452.362	2.95
452.716	2.94
453.07	2.94
453.424	2.93
453.778	2.92
454.132	2.9
454.486	2.91
454.839	2.91
455.193	2.91
455.547	2.88
455.9	2.89
456.254	2.9
456.607	2.9
456.961	2.91
457.314	2.91
457.668	2.92
458.021	2.92
458.375	2.91
458.728	2.92
459.081	2.92
459.434	2.91
459.787	2.91
460.141	2.93
460.494	2.95
460.847	2.96
461.2	2.98
461.553	2.98
461.906	2.98
462.259	2.98
462.611	2.97
462.964	2.99
463.317	2.98
463.67	2.99
464.022	3
464.375	3
464.728	3.02
465.08	3
465.433	3.01
465.785	3.02
466.138	3.02
466.49	3.02
466.843	3.05
467.195	3.07
467.547	3.06
467.899	3.05
468.252	3.03
468.604	3.02
468.956	3.03
469.308	3.03
469.66	3.04
470.012	3.05
470.364	3.06
470.716	3.07
471.068	3.07
471.42	3.09
471.772	3.09
472.123	3.08
472.475	3.11
472.827	3.12
473.178	3.14
473.53	3.14
473.882	3.16
474.233	3.17
474.585	3.16
474.936	3.15
475.288	3.15
475.639	3.16
475.99	3.15
476.342	3.16
476.693	3.17
477.044	3.19
477.395	3.2
477.746	3.2
478.097	3.19
478.448	3.17
478.8	3.15
479.15	3.14
479.501	3.16
479.852	3.17
480.203	3.16
480.554	3.16
480.905	3.17
481.255	3.17
481.606	3.17
481.957	3.18
482.307	3.19
482.658	3.2
483.009	3.21
483.359	3.22
483.709	3.21
484.06	3.22
484.41	3.22
484.761	3.22
485.111	3.22
485.461	3.23
485.811	3.24
486.162	3.24
486.512	3.25
486.862	3.25
487.212	3.25
487.562	3.25
487.912	3.24
488.262	3.24
488.612	3.25
488.961	3.25
489.311	3.24
489.661	3.24
490.011	3.23
490.36	3.23
490.71	3.23
491.06	3.23
491.409	3.24
491.759	3.23
492.108	3.24
492.458	3.23
492.807	3.22
493.157	3.23
493.506	3.24
493.855	3.25
494.204	3.24
494.554	3.25
494.903	3.27
495.252	3.27
495.601	3.29
495.95	3.3
496.299	3.3
496.648	3.33
496.997	3.35
497.346	3.39
497.695	3.4
498.043	3.44
498.392	3.45
498.741	3.47
499.09	3.5
499.438	3.52
499.787	3.55
500.135	3.58
500.484	3.59
500.832	3.61
501.181	3.63
501.529	3.67
501.878	3.72
502.226	3.76
502.574	3.81
502.923	3.84
503.271	3.88
503.619	3.93
503.967	3.97
504.315	4.01
504.663	4.03
505.011	4.09
505.359	4.11
505.707	4.16
506.055	4.21
506.403	4.25
506.751	4.27
507.098	4.34
507.446	4.39
507.794	4.46
508.141	4.52
508.489	4.57
508.837	4.62
509.184	4.67
509.531	4.71
509.879	4.77
510.226	4.83
510.574	4.91
510.921	4.97
511.268	5.02
511.616	5.1
511.963	5.19
512.31	5.24
512.657	5.32
513.004	5.4
513.351	5.46
513.698	5.55
514.045	5.66
514.392	5.75
514.739	5.85
515.086	5.93
515.432	6.03
515.779	6.1
516.126	6.22
516.473	6.32
516.819	6.41
517.166	6.5
517.512	6.59
517.859	6.66
518.205	6.72
518.552	6.82
518.898	6.89
519.245	6.94
519.591	7.02
519.937	7.14
520.283	7.24
520.629	7.32
520.976	7.42
521.322	7.52
521.668	7.61
522.014	7.72
522.36	7.84
522.706	7.95
523.052	8.09
523.398	8.19
523.743	8.32
524.089	8.46
524.435	8.57
524.781	8.69
525.126	8.8
525.472	8.91
525.817	9
526.163	9.09
526.509	9.17
526.854	9.26
527.199	9.32
527.545	9.39
527.89	9.47
528.235	9.54
528.581	9.61
528.926	9.67
529.271	9.76
529.616	9.83
529.961	9.92
530.306	10
530.651	10.08
530.996	10.16
531.341	10.25
531.686	10.35
532.031	10.44
532.376	10.53
532.721	10.62
533.065	10.71
533.41	10.81
533.755	10.92
534.099	11.01
534.444	11.13
534.788	11.24
535.133	11.35
535.477	11.47
535.822	11.58
536.166	11.74
536.51	11.87
536.855	12.01
537.199	12.12
537.543	12.28
537.887	12.45
538.231	12.6
538.576	12.77
538.92	12.94
539.264	13.1
539.608	13.26
539.951	13.41
540.295	13.56
540.639	13.7
540.983	13.83
541.327	13.97
541.671	14.07
542.014	14.21
542.358	14.32
542.701	14.46
543.045	14.6
543.389	14.72
543.732	14.86
544.075	14.97
544.419	15.13
544.762	15.26
545.105	15.4
545.449	15.56
545.792	15.73
546.135	15.89
546.478	16.07
546.821	16.25
547.165	16.44
547.508	16.63
547.851	16.81
548.194	17.01
548.536	17.23
548.879	17.44
549.222	17.65
549.565	17.85
549.908	18.04
550.25	18.23
550.593	18.46
550.936	18.67
551.278	18.91
551.621	19.14
551.963	19.39
552.306	19.62
552.648	19.85
552.991	20.03
553.333	20.21
553.675	20.39
554.017	20.56
554.36	20.76
554.702	20.98
555.044	21.23
555.386	21.44
555.728	21.68
556.07	21.93
556.412	22.17
556.754	22.44
557.096	22.71
557.438	22.99
557.78	23.21
558.121	23.46
558.463	23.69
558.805	23.93
559.147	24.17
559.488	24.38
559.83	24.64
560.171	24.88
560.513	25.14
560.854	25.42
561.196	25.69
561.537	25.95
561.878	26.17
562.22	26.41
562.561	26.67
562.902	26.88
563.243	27.07
563.584	27.24
563.925	27.42
564.266	27.64
564.607	27.83
564.948	28.06
565.289	28.32
565.63	28.55
565.971	28.77
566.312	28.98
566.653	29.24
566.993	29.43
567.334	29.66
567.675	29.88
568.015	30.06
568.356	30.28
568.696	30.55
569.037	30.78
569.377	30.98
569.718	31.14
570.058	31.37
570.398	31.61
570.739	31.85
571.079	32.12
571.419	32.32
571.759	32.48
572.099	32.64
572.439	32.79
572.779	32.97
573.119	33.15
573.459	33.32
573.799	33.49
574.139	33.64
574.479	33.8
574.819	33.97
575.158	34.15
575.498	34.28
575.838	34.38
576.177	34.54
576.517	34.76
576.856	34.95
577.196	35.14
577.535	35.28
577.875	35.48
578.214	35.62
578.553	35.73
578.893	35.89
579.232	36.08
579.571	36.23
579.91	36.44
580.25	36.63
580.589	36.81
580.928	36.96
581.267	37.13
581.606	37.26
581.945	37.44
582.283	37.63
582.622	37.85
582.961	37.99
583.3	38.15
583.639	38.27
583.977	38.45
584.316	38.53
584.654	38.69
584.993	38.84
585.332	38.95
585.67	39.18
586.008	39.38
586.347	39.53
586.685	39.68
587.024	39.84
587.362	39.93
587.7	40.01
588.038	40.11
588.376	40.24
588.715	40.43
589.053	40.52
589.391	40.62
589.729	40.74
590.067	40.91
590.404	41.03
590.742	41.13
591.08	41.19
591.418	41.31
591.756	41.44
592.093	41.52
592.431	41.66
592.769	41.72
593.106	41.81
593.444	41.88
593.781	41.93
594.119	41.98
594.456	42.06
594.793	42.14
595.131	42.2
595.468	42.31
595.805	42.37
596.143	42.5
596.48	42.58
596.817	42.6
597.154	42.63
597.491	42.65
597.828	42.69
598.165	42.81
598.502	42.9
598.839	42.96
599.176	43.12
599.512	43.25
599.849	43.35
600.186	43.46
600.523	43.52
600.859	43.64
601.196	43.72
601.532	43.83
601.869	43.88
602.205	43.94
602.542	43.97
602.878	44.06
603.215	44.05
603.551	44.09
603.887	44.21
604.223	44.25
604.56	44.34
604.896	44.45
605.232	44.46
605.568	44.56
605.904	44.57
606.24	44.56
606.576	44.6
606.912	44.68
607.248	44.67
607.583	44.79
607.919	44.86
608.255	44.87
608.591	44.91
608.926	45.02
609.262	45.23
609.597	45.36
609.933	45.39
610.268	45.52
610.604	45.58
610.939	45.55
611.275	45.64
611.61	45.67
611.945	45.67
612.281	45.77
612.616	45.73
612.951	45.8
613.286	45.87
613.621	45.88
613.956	45.89
614.291	46.04
614.626	46.11
614.961	46.16
615.296	46.26
615.631	46.36
615.966	46.4
616.3	46.36
616.635	46.32
616.97	46.34
617.304	46.36
617.639	46.45
617.973	46.55
618.308	46.55
618.642	46.72
618.977	46.75
619.311	46.83
619.646	46.92
619.98	47.02
620.314	47
620.648	47
620.983	47.06
621.317	47
621.651	47.07
621.985	47.05
622.319	47.05
622.653	47.05
622.987	47.01
623.321	47.03
623.655	46.98
623.988	47.01
624.322	47.02
624.656	47.07
624.99	47.09
625.323	47.11
625.657	47.09
625.99	47.12
626.324	47.11
626.657	47.15
626.991	47.14
627.324	47.23
627.658	47.34
627.991	47.43
628.324	47.49
628.657	47.56
628.991	47.71
629.324	47.76
629.657	47.81
629.99	47.92
630.323	47.9
630.656	48.09
630.989	48.11
631.322	48.15
631.655	48.15
631.987	48.22
632.32	48.36
632.653	48.33
632.986	48.35
633.318	48.42
633.651	48.46
633.984	48.46
634.316	48.41
634.649	48.39
634.981	48.43
635.313	48.57
635.646	48.53
635.978	48.46
636.31	48.46
636.643	48.47
636.975	48.42
637.307	48.51
637.639	48.46
637.971	48.54
638.303	48.63
638.635	48.64
638.967	48.65
639.299	48.61
639.631	48.62
639.963	48.71
640.295	48.71
640.626	48.66
640.958	48.82
641.29	48.92
641.621	49.02
641.953	48.99
642.285	48.9
642.616	48.81
642.948	48.84
643.279	48.92
643.61	48.87
643.942	48.87
644.273	48.83
644.604	48.76
644.936	48.75
645.267	48.76
645.598	48.8
645.929	48.74
646.26	48.78
646.591	48.78
646.922	48.73
647.253	48.78
647.584	48.79
647.915	48.74
648.245	48.78
648.576	48.73
648.907	48.68
649.238	48.74
649.568	48.82
649.899	48.89
650.229	48.9
650.56	48.91
650.89	49.05
651.221	49.07
651.551	49.18
651.882	49.2
652.212	49.25
652.542	49.28
652.872	49.42
653.203	49.45
653.533	49.47
653.863	49.49
654.193	49.42
654.523	49.49
654.853	49.53
655.183	49.65
655.513	49.63
655.843	49.74
656.172	49.67
656.502	49.65
656.832	49.67
657.162	49.64
657.491	49.74
657.821	49.76
658.15	49.87
658.48	49.97
658.809	50
659.139	50.02
659.468	49.97
659.798	49.91
660.127	49.95
660.456	50
660.785	50
661.115	50.12
661.444	50.17
661.773	50.2
662.102	50.06
662.431	50.17
662.76	50.16
663.089	50.22
663.418	50.31
663.747	50.25
664.076	50.31
664.404	50.25
664.733	50.26
665.062	50.23
665.39	50.11
665.719	50.18
666.048	50.21
666.376	50.28
666.705	50.34
667.033	50.32
667.362	50.33
667.69	50.5
668.018	50.39
668.347	50.37
668.675	50.45
669.003	50.53
669.331	50.51
669.659	50.4
669.987	50.43
670.315	50.39
670.643	50.41
670.971	50.45
671.299	50.64
671.627	50.7
671.955	50.61
672.283	50.63
672.61	50.58
672.938	50.46
673.266	50.42
673.593	50.42
673.921	50.35
674.249	50.41
674.576	50.34
674.904	50.38
675.231	50.43
675.558	50.23
675.886	50.18
676.213	50.19
676.54	50.39
676.867	50.36
677.195	50.49
677.522	50.45
677.849	50.48
678.176	50.45
678.503	50.4
678.83	50.43
679.157	50.56
679.484	50.61
679.81	50.69
680.137	50.9
680.464	50.85
680.791	50.97
681.117	50.96
681.444	51.06
681.771	51.09
682.097	51.2
682.424	51.38
682.75	51.46
683.077	51.4
683.403	51.36
683.729	51.35
684.056	51.29
684.382	51.26
684.708	51.24
685.034	51.13
685.36	51.19
685.686	51.25
686.012	51.24
686.339	51.24
686.664	51.19
686.99	50.98
687.316	51.02
687.642	50.95
687.968	51.04
688.294	51.01
688.619	50.96
688.945	50.78
689.271	50.84
689.596	50.73
689.922	50.83
690.247	50.81
690.573	50.73
690.898	50.91
691.224	51.15
691.549	51.23
691.874	51.32
692.2	51.21
692.525	51.17
692.85	51.06
693.175	51.09
693.5	51.06
693.825	51.11
694.15	51.04
694.475	51.13
694.8	51.12
695.125	51.2
695.45	51.32
695.775	51.47
696.099	51.41
696.424	51.52
696.749	51.45
697.073	51.41
697.398	51.59
697.723	51.52
698.047	51.45
698.372	51.45
698.696	51.52
699.02	51.63
699.345	51.76
699.669	51.85
699.993	51.92
700.318	52
700.642	52.03
700.966	52.14
701.29	52.13
701.614	52.17
701.938	52.11
702.262	52.21
702.586	52.16
702.91	52.11
703.234	52.17
703.557	52.13
703.881	52.23
704.205	52.19
704.529	52.21
704.852	52.15
705.176	52.15
705.499	52.09
705.823	52.04
706.146	52.04
706.47	52.04
706.793	52
707.117	51.92
707.44	51.91
707.763	51.9
708.086	51.89
708.409	51.8
708.733	51.91
709.056	51.85
709.379	52.06
709.702	52.16
710.025	52.17
710.348	52.33
710.671	52.15
710.993	52.12
711.316	52.37
711.639	52.47
711.962	52.53
712.284	52.66
712.607	52.65
712.93	52.61
713.252	52.65
713.575	52.68
713.897	52.8
714.22	52.75
714.542	52.7
714.864	52.78
715.187	52.76
715.509	52.5
715.831	52.57
716.153	52.43
716.475	52.23
716.798	52.25
717.12	52.19
717.442	52.5
717.764	52.68
718.085	52.36
718.407	52.36
718.729	52.35
719.051	52.17
719.373	52.34
719.695	52.24
720.016	52.38
720.338	52.29
720.659	52.35
720.981	52.49
721.302	52.67
721.624	52.74
721.945	52.85
722.267	53.02
722.588	52.91
722.909	52.71
723.231	52.74
723.552	52.7
723.873	52.71
724.194	52.52
724.515	52.56
724.836	52.63
725.157	52.63
725.478	52.65
725.799	52.63
726.12	52.48
726.441	52.79
726.762	52.6
727.083	52.72
727.403	52.4
727.724	52.22
728.045	52.28
728.365	51.92
728.686	51.98
729.006	52.02
729.327	52.14
729.647	52.21
729.967	52.24
730.288	52.16
730.608	52.27
730.928	52.42
731.249	52.37
731.569	52.36
731.889	52.38
732.209	52.15
732.529	52.38
732.849	52.2
733.169	52.14
733.489	52.1
733.809	52.08
734.129	52.35
734.448	52.42
734.768	52.37
735.088	52.71
735.408	52.57
735.727	52.52
736.047	52.4
736.366	52.49
736.686	52.66
737.005	52.77
737.325	52.76
737.644	52.76
737.963	52.84
738.283	52.86
738.602	53.03
738.921	53.2
739.24	53.16
739.56	53.47
739.879	53.3
740.198	53.47
740.517	53.42
740.836	53.42
741.155	53.57
741.473	53.53
741.792	53.35
742.111	53.42
742.43	53.57
742.748	53.59
743.067	53.57
743.386	53.56
743.704	53.65
744.023	53.58
744.341	53.46
744.66	53.25
744.978	53.08
745.297	52.95
745.615	52.98
745.933	52.84
746.252	52.75
746.57	52.74
746.888	52.48
747.206	52.29
747.524	52.02
747.842	51.75
748.16	51.83
748.478	52.08
748.796	51.89
749.114	51.64
749.432	51.7
749.749	51.69
750.067	51.5
750.385	51.38
750.703	51.13
751.02	51.23
751.338	51.14
751.655	51.39
751.973	51.36
752.29	51.06
752.608	51.08
752.925	51.28
753.242	51.61
753.56	51.58
753.877	51.77
754.194	52.04
754.511	52.39
754.828	52.43
755.145	52.4
755.462	52.63
755.779	52.73
756.096	52.63
756.413	52.63
756.73	52.88
757.047	52.8
757.364	52.96
757.68	52.91
757.997	53.26
758.314	53.03
758.63	53.13
758.947	53.54
759.264	53.35
759.58	53.4
759.896	53.49
760.213	53.36
760.529	53.38
760.846	53.27
761.162	53.1
761.478	52.71
761.794	52.79
762.11	52.67
762.426	52.78
762.743	53.07
763.059	53.37
763.375	53.39
763.69	53.56
764.006	53.81
764.322	53.95
764.638	53.76
764.954	54.13
765.27	54.3
765.585	54.16
765.901	54.36
766.216	54.46
766.532	54.27
766.848	54.41
767.163	54.54
767.478	54.76
767.794	54.8
768.109	55.18
768.424	54.98
768.74	55.15
769.055	55.26
769.37	55.04
769.685	54.92
770	54.63
770.315	54.91
770.63	54.81
770.945	54.94
771.26	55.18
771.575	54.96
771.89	54.84
772.205	54.86
772.52	54.91
772.834	54.15
773.149	53.88
773.464	54.06
773.778	53.87
774.093	53.62
774.407	53.95
774.722	54.19
775.036	54.46
775.351	54.48
775.665	54.46
775.979	54.41
776.293	53.79
776.608	53.99
776.922	53.67
777.236	53.63
777.55	53.04
777.864	52.85
778.178	52.91
778.492	52.94
778.806	53.15
779.12	52.9
779.434	53.41
779.747	53.71
780.061	53.79
780.375	53.8
780.689	53.99
781.002	53.91
781.316	53.84
781.629	53.55
781.943	53.3
782.256	53.27
782.57	53.01
782.883	53.03
783.196	52.79
783.51	52.65
783.823	52.55
784.136	52.46
784.449	52.47
784.762	52.56
785.075	52.17
785.388	52.31
785.701	52.46
786.014	52.77
786.327	52.64
786.64	52.47
786.953	52.62
787.266	52.63
787.578	52.8
787.891	52.94
788.204	53.59
788.516	53.88
788.829	53.89
789.141	54.43
789.454	55.06
789.766	55.26
790.079	54.84
790.391	54.9
790.703	55.32
791.016	55.4
791.328	55.15
791.64	55.02
791.952	54.93
792.264	55.2
792.576	54.7
792.888	54.79
793.2	55.03
793.512	55.06
793.824	54.72
794.136	54.26
794.448	53.89
794.76	53.36
795.071	53.73
795.383	53.46
795.695	53.34
796.006	53.47
796.318	53.59
796.629	54.03
796.941	53.89
797.252	53.14
797.564	52.86
797.875	53.18
798.186	53.04
798.497	52.72
798.809	52.95
799.12	52.93
799.431	53.01
799.742	52.97
800.053	53.16
800.364	53.43
800.675	53.61
800.986	53.76
801.297	53.9
801.608	53
801.918	53.24
802.229	52.96
802.54	52.41
802.851	52.9
803.161	52.72
803.472	52.46
803.782	53.01
804.093	52.96
804.403	52.73
804.714	53.39
805.024	53.83
805.334	53.4
805.645	53.87
805.955	54.67
806.265	54.91
806.575	54.52
806.885	54.5
807.195	54.86
807.505	54.46
807.815	54.63
808.125	55.41
808.435	55.89
808.745	56.35
809.055	56.37
809.365	56.05
809.674	56.68
809.984	57.1
810.294	57.41
810.603	57.88
810.913	58.25
811.222	58
811.532	57.84
811.841	58.55
812.151	58.64
812.46	58.02
812.769	58.04
813.079	58.23
813.388	58.08
813.697	57.08
814.006	57.45
814.315	57.01
814.624	56.87
814.933	56.28
815.242	56.07
815.551	57.33
815.86	56.74
816.169	56.06
816.478	56
816.786	56.12
817.095	55.88
817.404	55.47
817.712	55.87
818.021	55.25
818.33	54.46
818.638	54.15
818.947	54.52
819.255	54.39
819.563	54.56
819.872	54.89
820.18	55.02
820.488	55.29
820.796	55.31
821.105	55.16
821.413	55.08
821.721	55.12
822.029	54.96
822.337	55.03
822.645	55.11
822.953	55.2
823.26	55.14
823.568	55.11
823.876	54.97
824.184	54.9
824.491	54.93
824.799	55.09
825.107	55.01
825.414	54.98
825.722	54.84
826.029	54.87
826.337	54.88
826.644	54.92
826.951	54.93
827.259	54.91
827.566	54.76
827.873	54.7
828.18	54.75
828.488	54.55
828.795	54.5
829.102	54.33
829.409	54.22
829.716	54.25
830.023	54.27
830.329	54.41
830.636	54.43
830.943	54.74
831.25	54.38
831.557	54.57
831.863	54.43
832.17	54.4
832.476	53.7
832.783	53.83
833.089	53.89
833.396	53.3
833.702	53.29
834.009	53.79
834.315	54.13
834.621	54.07
834.928	53.81
835.234	54.12
835.54	54.5
835.846	54.46
836.152	54.42
836.458	54.62
836.764	54.61
837.07	54.56
837.376	54.72
837.682	54.81
837.988	54.76
838.293	54.87
838.599	55
838.905	55.87
839.211	55.59
839.516	55.53
839.822	55.89
840.127	56.06
840.433	55.28
840.738	55.11
841.044	54.58
841.349	55.59
841.654	54.61
841.959	53.94
842.265	54
842.57	54.31
842.875	54.28
843.18	54.29
843.485	53.63
843.79	52.72
844.095	52.94
844.4	53.14
844.705	52.68
845.01	53.49
845.315	53.19
845.619	52.44
845.924	52.05
846.229	52.47
846.533	53.76
846.838	54.94
847.142	55.07
847.447	55.67
847.751	55.01
848.056	56.7
848.36	56.96
848.664	57.26
848.969	58.61
849.273	59.69
849.577	58.89
849.881	60.88
850.185	61.39
850.489	62.21
850.794	61.65
851.097	63.35
851.401	62.61
851.705	62.21
852.009	62.9
852.313	62.52
852.617	62.79
852.92	61.45
853.224	63.48
853.528	63.23
853.831	62.09
854.135	60.3
854.438	58.98
854.742	59.62
855.045	59.03
855.349	55.82
855.652	52.98
855.955	54.46
856.259	53.3
856.562	53.27
856.865	51.33
857.168	50.86
857.471	49.92
857.774	50.23
858.077	50.04
858.38	50.46
858.683	52.72
858.986	50.53
859.289	49.21
859.592	48.03
859.894	48.68
860.197	47.53
860.5	49.83
860.802	51.28
861.105	50.75
861.407	51.81
861.71	51.31
862.012	52.28
862.315	53.91
862.617	53.23
862.919	53.71
863.222	56.27
863.524	57.66
863.826	57.9
864.128	57.23
864.43	58.93
864.732	59.25
865.034	59.34
865.336	60.41
865.638	58.32
865.94	57.25
866.242	57.98
866.544	62.58
866.846	63.7
867.147	62.38
867.449	64
867.751	63.34
868.052	63.83
868.354	65.73
868.655	63.33
868.957	63.89
869.258	63.6
869.56	60.97
869.861	60.5
870.162	59.76
870.463	60.36
870.765	58
871.066	56.19
871.367	55.22
871.668	55.98
871.969	57.96
872.27	59.82
872.571	59.39
872.872	55.64
873.173	53.66
873.473	52.47
873.774	52.78
874.075	52.45
874.376	53.15
874.676	51.69
874.977	51.73
875.277	50.45
875.578	50.09
875.878	50.81
876.179	50.37
876.479	49.63
876.78	49.2
877.08	50.16
877.38	51.85
877.68	51.66
877.981	50.96
878.281	51.67
878.581	48.66
