Data from BU26845_Reflection_00003.txt Node
Date: Mon Nov 18 16:27:52 EST 2019
User: vgr7
Spectrometer: USB2G7710
Scans to average: 3
Trigger mode: 4
Integration Time (sec): 2.000000E-2
Electric dark correction enabled: true
Boxcar width: 10
XAxis mode: Wavelengths
Number of Pixels in Spectrum: 2048
>>>>>Begin Spectral Data<<<<<
177.721	-93.67
178.105	-82.66
178.488	-78.55
178.871	-74.72
179.254	15.37
179.636	347.79
180.019	6.98
180.402	160
180.785	211.89
181.168	-2259.38
181.55	-1123.88
181.933	110.63
182.316	183.79
182.698	188.98
183.081	170.05
183.463	207.93
183.846	125.67
184.228	137.82
184.611	148.13
184.993	387.92
185.376	312.19
185.758	-220.49
186.14	-194.31
186.522	-143.03
186.904	-78.73
187.287	-81.41
187.669	-40.97
188.051	-55.95
188.433	-43.84
188.815	-34.82
189.197	-22.25
189.579	-28.05
189.961	-21.33
190.342	-7.98
190.724	1.48
191.106	-0.74
191.488	-0.91
191.869	-1.61
192.251	-1.88
192.633	-0.28
193.014	-2.83
193.396	-6.24
193.777	-2.85
194.159	3.81
194.54	9.36
194.922	6.33
195.303	7.17
195.684	6.76
196.065	13.4
196.447	14.55
196.828	-2.4
197.209	-12.05
197.59	-9.68
197.971	-19.69
198.352	-25.17
198.733	-42.02
199.114	-33.23
199.495	-35.73
199.876	-27.92
200.257	-13.48
200.638	-18.46
201.018	-29.85
201.399	-38.79
201.78	-22.68
202.16	-39.78
202.541	-59.83
202.922	-77.8
203.302	-89.26
203.683	-95.04
204.063	-121.71
204.444	-113.86
204.824	-95.27
205.204	-64.67
205.585	-78.7
205.965	-86.71
206.345	-100.5
206.725	-86.83
207.106	-107.71
207.486	-97.35
207.866	-91.09
208.246	-105.81
208.626	-69.16
209.006	-56.05
209.386	-52.22
209.766	-65
210.145	-47.69
210.525	-18.71
210.905	-12.59
211.285	-9.13
211.664	-7.06
212.044	4.55
212.424	14.15
212.803	7
213.183	6.71
213.562	10.65
213.942	7.6
214.321	8.92
214.701	6.98
215.08	11.55
215.459	1.78
215.838	5.58
216.218	1.12
216.597	-7.69
216.976	-13.67
217.355	-13.23
217.734	-23.26
218.113	-25.72
218.492	-35.83
218.871	-38.57
219.25	-29.5
219.629	-28.51
220.008	-43.93
220.387	-53.98
220.766	-53.21
221.144	-61.49
221.523	-64.15
221.902	-78.95
222.28	-77.55
222.659	-76.2
223.037	-77.85
223.416	-72.52
223.794	-89.78
224.173	-83.56
224.551	-63.11
224.929	-55.03
225.308	-45.24
225.686	-39
226.064	-34.83
226.442	-33.29
226.821	-23.7
227.199	-23.56
227.577	-22.98
227.955	-18.91
228.333	-13.95
228.711	-12.89
229.089	-9.71
229.467	-10.94
229.845	-5.94
230.222	-6.64
230.6	-5.78
230.978	-6.22
231.356	-4.96
231.733	-0.18
232.111	-0.03
232.488	-1.32
232.866	-0.18
233.243	0.29
233.621	0.92
233.998	3.21
234.376	3.19
234.753	-0.36
235.13	-1.94
235.508	-1.43
235.885	-1.42
236.262	-2.33
236.639	-2.41
237.016	-2.94
237.393	-0.52
237.77	-0.62
238.147	1.23
238.524	1.6
238.901	1.25
239.278	1.34
239.655	1.49
240.032	1.66
240.409	1.35
240.785	1.75
241.162	1.65
241.539	1.74
241.915	1.08
242.292	0.58
242.668	0.99
243.045	1.23
243.421	1.5
243.798	1.73
244.174	1.69
244.551	1.75
244.927	1.78
245.303	1.59
245.679	1.38
246.056	1.26
246.432	1.11
246.808	1.28
247.184	1.01
247.56	0.81
247.936	0.84
248.312	0.9
248.688	0.81
249.064	0.94
249.44	0.71
249.815	0.81
250.191	1.17
250.567	1.04
250.943	0.72
251.318	0.71
251.694	0.88
252.069	0.94
252.445	0.87
252.82	0.65
253.196	0.46
253.571	0.6
253.947	0.68
254.322	0.82
254.697	0.32
255.073	0.4
255.448	0.41
255.823	0.47
256.198	0.57
256.573	0.49
256.948	0.55
257.323	0.77
257.698	0.75
258.073	0.79
258.448	0.89
258.823	1.25
259.198	1.08
259.573	0.82
259.948	0.66
260.322	0.63
260.697	0.72
261.072	0.8
261.446	0.82
261.821	0.65
262.195	0.65
262.57	0.81
262.944	0.77
263.319	0.72
263.693	0.76
264.067	0.97
264.442	1.07
264.816	0.97
265.19	1.04
265.564	1.11
265.938	0.85
266.313	0.91
266.687	0.94
267.061	0.95
267.435	1.03
267.809	1.13
268.183	1.22
268.556	1.24
268.93	1.33
269.304	1.42
269.678	1.49
270.051	1.57
270.425	1.65
270.799	1.7
271.172	1.72
271.546	1.8
271.919	1.39
272.293	1.35
272.666	1.52
273.04	1.49
273.413	1.57
273.787	1.76
274.16	1.75
274.533	1.66
274.906	1.68
275.279	1.59
275.653	1.64
276.026	1.66
276.399	1.64
276.772	1.69
277.145	1.39
277.518	1.41
277.891	1.29
278.263	1.51
278.636	1.51
279.009	1.49
279.382	1.54
279.755	1.86
280.127	2.03
280.5	1.82
280.872	1.96
281.245	1.81
281.617	1.88
281.99	1.89
282.362	1.96
282.735	1.95
283.107	2.06
283.479	2.09
283.852	2.01
284.224	1.94
284.596	1.84
284.968	2.16
285.34	2.11
285.713	2.1
286.085	1.98
286.457	2.15
286.829	2.09
287.201	2.05
287.572	2.02
287.944	2.06
288.316	2.19
288.688	2.03
289.06	2.02
289.431	1.94
289.803	1.9
290.175	1.88
290.546	2.03
290.918	2.11
291.289	2.21
291.661	2.16
292.032	2.27
292.403	2.3
292.775	2.24
293.146	2.26
293.517	2.17
293.889	2.06
294.26	2.03
294.631	2.18
295.002	2.14
295.373	2.15
295.744	1.95
296.115	1.86
296.486	1.74
296.857	1.6
297.228	1.59
297.599	1.58
297.97	1.66
298.34	1.52
298.711	1.43
299.082	1.31
299.452	1.47
299.823	1.56
300.194	1.52
300.564	1.49
300.935	1.61
301.305	1.79
301.676	1.81
302.046	1.72
302.416	1.72
302.787	1.7
303.157	1.5
303.527	1.51
303.897	1.39
304.267	1.59
304.637	1.79
305.008	1.88
305.378	2.06
305.748	2.06
306.117	2.09
306.487	2
306.857	2
307.227	1.96
307.597	1.85
307.967	1.85
308.336	1.79
308.706	1.74
309.076	1.63
309.445	1.72
309.815	1.69
310.184	1.58
310.554	1.57
310.923	1.68
311.293	1.65
311.662	1.8
312.031	1.72
312.401	1.72
312.77	1.7
313.139	1.69
313.508	1.53
313.877	1.6
314.246	1.67
314.616	1.72
314.985	1.67
315.353	1.6
315.722	1.57
316.091	1.57
316.46	1.6
316.829	1.58
317.198	1.48
317.567	1.51
317.935	1.49
318.304	1.54
318.672	1.44
319.041	1.59
319.41	1.63
319.778	1.69
320.147	1.66
320.515	1.65
320.883	1.44
321.252	1.66
321.62	1.56
321.988	1.54
322.357	1.57
322.725	1.69
323.093	1.76
323.461	1.86
323.829	2.02
324.197	2.01
324.565	2.09
324.933	2.18
325.301	2.26
325.669	2.29
326.037	2.17
326.405	2.2
326.772	2.16
327.14	2.29
327.508	2.24
327.875	2.32
328.243	2.33
328.61	2.4
328.978	2.4
329.346	2.44
329.713	2.45
330.08	2.48
330.448	2.32
330.815	2.31
331.182	2.19
331.55	2.03
331.917	2.1
332.284	2.05
332.651	1.9
333.018	1.85
333.385	1.87
333.752	2.03
334.119	2.15
334.486	2.17
334.853	1.9
335.22	1.9
335.587	1.89
335.954	1.77
336.32	1.86
336.687	1.78
337.054	1.76
337.42	1.77
337.787	1.68
338.153	1.73
338.52	1.74
338.886	1.77
339.253	1.71
339.619	1.54
339.986	1.58
340.352	1.74
340.718	1.73
341.084	1.8
341.451	1.81
341.817	1.75
342.183	1.73
342.549	1.79
342.915	1.9
343.281	1.85
343.647	1.86
344.013	1.81
344.379	1.81
344.745	1.81
345.11	1.8
345.476	1.85
345.842	1.87
346.208	1.9
346.573	1.92
346.939	2.08
347.304	2.1
347.67	2.07
348.035	1.95
348.401	1.95
348.766	1.94
349.132	1.86
349.497	1.84
349.862	1.92
350.228	1.91
350.593	1.85
350.958	1.96
351.323	1.99
351.688	1.99
352.053	2.05
352.418	2.08
352.783	2.12
353.148	2.04
353.513	1.96
353.878	1.98
354.243	2.05
354.608	2.07
354.972	2.08
355.337	2.2
355.702	2.24
356.066	2.24
356.431	2.23
356.795	2.36
357.16	2.36
357.524	2.21
357.889	2.23
358.253	2.28
358.618	2.24
358.982	2.25
359.346	2.22
359.71	2.2
360.075	2.22
360.439	2.2
360.803	2.27
361.167	2.3
361.531	2.27
361.895	2.18
362.259	2.07
362.623	2.06
362.987	2
363.351	2.03
363.714	2
364.078	1.98
364.442	1.9
364.806	1.91
365.169	1.91
365.533	1.93
365.896	1.86
366.26	1.81
366.623	1.79
366.987	1.77
367.35	1.8
367.714	1.74
368.077	1.74
368.44	1.71
368.803	1.77
369.167	1.73
369.53	1.78
369.893	1.9
370.256	1.96
370.619	1.97
370.982	1.93
371.345	1.9
371.708	1.93
372.071	1.91
372.434	1.91
372.797	2
373.159	1.92
373.522	1.97
373.885	2.01
374.247	2.03
374.61	2.04
374.973	1.96
375.335	1.95
375.698	2.01
376.06	2.02
376.423	1.96
376.785	1.96
377.147	1.99
377.51	1.93
377.872	1.91
378.234	1.96
378.596	1.95
378.958	2
379.321	1.99
379.683	2
380.045	2.01
380.407	1.96
380.769	2.02
381.13	1.98
381.492	2
381.854	2.04
382.216	2.04
382.578	2.1
382.939	2.11
383.301	2.05
383.663	2
384.024	2.02
384.386	2.06
384.747	2.11
385.109	2.1
385.47	2.1
385.832	2.08
386.193	2.18
386.554	2.16
386.916	2.15
387.277	2.18
387.638	2.18
387.999	2.19
388.36	2.19
388.721	2.22
389.082	2.2
389.443	2.15
389.804	2.17
390.165	2.15
390.526	2.19
390.887	2.18
391.248	2.24
391.609	2.25
391.969	2.26
392.33	2.2
392.691	2.2
393.051	2.19
393.412	2.19
393.772	2.09
394.133	2.11
394.493	2.09
394.854	2.05
395.214	2.07
395.574	2.07
395.935	2.08
396.295	2.1
396.655	2.11
397.015	2.13
397.376	2.13
397.736	2.13
398.096	2.15
398.456	2.18
398.816	2.18
399.176	2.15
399.535	2.13
399.895	2.16
400.255	2.2
400.615	2.23
400.975	2.21
401.334	2.25
401.694	2.25
402.054	2.28
402.413	2.29
402.773	2.28
403.132	2.3
403.492	2.29
403.851	2.27
404.211	2.28
404.57	2.27
404.929	2.31
405.288	2.34
405.648	2.31
406.007	2.33
406.366	2.32
406.725	2.37
407.084	2.38
407.443	2.39
407.802	2.36
408.161	2.35
408.52	2.32
408.879	2.33
409.238	2.36
409.596	2.38
409.955	2.37
410.314	2.37
410.673	2.35
411.031	2.38
411.39	2.39
411.748	2.38
412.107	2.39
412.465	2.37
412.824	2.35
413.182	2.33
413.54	2.33
413.899	2.32
414.257	2.3
414.615	2.29
414.974	2.3
415.332	2.3
415.69	2.3
416.048	2.33
416.406	2.35
416.764	2.35
417.122	2.35
417.48	2.35
417.838	2.37
418.195	2.4
418.553	2.41
418.911	2.43
419.269	2.44
419.626	2.44
419.984	2.43
420.342	2.44
420.699	2.44
421.057	2.44
421.414	2.44
421.772	2.43
422.129	2.45
422.486	2.44
422.844	2.45
423.201	2.46
423.558	2.47
423.915	2.47
424.273	2.48
424.63	2.48
424.987	2.48
425.344	2.47
425.701	2.47
426.058	2.46
426.415	2.44
426.772	2.42
427.128	2.42
427.485	2.43
427.842	2.44
428.199	2.46
428.555	2.47
428.912	2.5
429.269	2.51
429.625	2.48
429.982	2.49
430.338	2.5
430.695	2.47
431.051	2.44
431.407	2.43
431.764	2.42
432.12	2.42
432.476	2.42
432.832	2.43
433.189	2.43
433.545	2.42
433.901	2.41
434.257	2.43
434.613	2.42
434.969	2.42
435.325	2.42
435.681	2.41
436.036	2.42
436.392	2.4
436.748	2.4
437.104	2.43
437.459	2.43
437.815	2.43
438.171	2.44
438.526	2.46
438.882	2.47
439.237	2.46
439.593	2.46
439.948	2.46
440.304	2.46
440.659	2.47
441.014	2.48
441.369	2.48
441.725	2.48
442.08	2.49
442.435	2.5
442.79	2.49
443.145	2.5
443.5	2.5
443.855	2.5
444.21	2.5
444.565	2.51
444.92	2.51
445.275	2.52
445.629	2.51
445.984	2.5
446.339	2.49
446.693	2.5
447.048	2.5
447.403	2.5
447.757	2.5
448.112	2.5
448.466	2.49
448.82	2.5
449.175	2.5
449.529	2.5
449.883	2.5
450.238	2.49
450.592	2.49
450.946	2.48
451.3	2.48
451.654	2.49
452.008	2.49
452.362	2.49
452.716	2.48
453.07	2.5
453.424	2.5
453.778	2.51
454.132	2.52
454.486	2.5
454.839	2.49
455.193	2.49
455.547	2.48
455.9	2.5
456.254	2.52
456.607	2.52
456.961	2.51
457.314	2.51
457.668	2.53
458.021	2.51
458.375	2.51
458.728	2.52
459.081	2.52
459.434	2.52
459.787	2.53
460.141	2.54
460.494	2.53
460.847	2.55
461.2	2.55
461.553	2.55
461.906	2.56
462.259	2.58
462.611	2.59
462.964	2.6
463.317	2.61
463.67	2.59
464.022	2.58
464.375	2.61
464.728	2.62
465.08	2.61
465.433	2.63
465.785	2.65
466.138	2.65
466.49	2.64
466.843	2.63
467.195	2.62
467.547	2.62
467.899	2.62
468.252	2.6
468.604	2.6
468.956	2.6
469.308	2.6
469.66	2.59
470.012	2.6
470.364	2.61
470.716	2.61
471.068	2.62
471.42	2.63
471.772	2.62
472.123	2.63
472.475	2.65
472.827	2.65
473.178	2.65
473.53	2.62
473.882	2.63
474.233	2.63
474.585	2.62
474.936	2.64
475.288	2.65
475.639	2.65
475.99	2.65
476.342	2.65
476.693	2.66
477.044	2.68
477.395	2.68
477.746	2.67
478.097	2.66
478.448	2.67
478.8	2.67
479.15	2.65
479.501	2.64
479.852	2.64
480.203	2.63
480.554	2.63
480.905	2.64
481.255	2.65
481.606	2.67
481.957	2.68
482.307	2.67
482.658	2.66
483.009	2.66
483.359	2.66
483.709	2.67
484.06	2.66
484.41	2.66
484.761	2.65
485.111	2.65
485.461	2.65
485.811	2.65
486.162	2.64
486.512	2.65
486.862	2.66
487.212	2.66
487.562	2.67
487.912	2.67
488.262	2.67
488.612	2.67
488.961	2.65
489.311	2.65
489.661	2.64
490.011	2.65
490.36	2.65
490.71	2.65
491.06	2.65
491.409	2.66
491.759	2.65
492.108	2.66
492.458	2.65
492.807	2.65
493.157	2.65
493.506	2.68
493.855	2.66
494.204	2.65
494.554	2.65
494.903	2.64
495.252	2.64
495.601	2.66
495.95	2.66
496.299	2.67
496.648	2.67
496.997	2.67
497.346	2.68
497.695	2.69
498.043	2.69
498.392	2.69
498.741	2.68
499.09	2.7
499.438	2.73
499.787	2.75
500.135	2.77
500.484	2.77
500.832	2.77
501.181	2.79
501.529	2.81
501.878	2.82
502.226	2.83
502.574	2.84
502.923	2.8
503.271	2.8
503.619	2.8
503.967	2.79
504.315	2.79
504.663	2.79
505.011	2.78
505.359	2.8
505.707	2.81
506.055	2.81
506.403	2.8
506.751	2.78
507.098	2.75
507.446	2.75
507.794	2.74
508.141	2.76
508.489	2.75
508.837	2.74
509.184	2.75
509.531	2.75
509.879	2.77
510.226	2.8
510.574	2.81
510.921	2.82
511.268	2.83
511.616	2.84
511.963	2.85
512.31	2.83
512.657	2.85
513.004	2.85
513.351	2.87
513.698	2.87
514.045	2.86
514.392	2.87
514.739	2.86
515.086	2.85
515.432	2.83
515.779	2.82
516.126	2.85
516.473	2.84
516.819	2.84
517.166	2.83
517.512	2.81
517.859	2.81
518.205	2.81
518.552	2.83
518.898	2.82
519.245	2.82
519.591	2.82
519.937	2.79
520.283	2.8
520.629	2.79
520.976	2.79
521.322	2.83
521.668	2.85
522.014	2.88
522.36	2.9
522.706	2.91
523.052	2.92
523.398	2.92
523.743	2.91
524.089	2.92
524.435	2.91
524.781	2.9
525.126	2.91
525.472	2.91
525.817	2.91
526.163	2.91
526.509	2.91
526.854	2.93
527.199	2.93
527.545	2.93
527.89	2.93
528.235	2.94
528.581	2.92
528.926	2.91
529.271	2.9
529.616	2.89
529.961	2.9
530.306	2.91
530.651	2.9
530.996	2.91
531.341	2.92
531.686	2.92
532.031	2.94
532.376	2.95
532.721	2.96
533.065	2.95
533.41	2.95
533.755	2.96
534.099	2.96
534.444	2.98
534.788	2.99
535.133	2.99
535.477	3
535.822	3
536.166	3.01
536.51	3.02
536.855	3.03
537.199	3.03
537.543	3.03
537.887	3.04
538.231	3.02
538.576	3.01
538.92	3.01
539.264	2.99
539.608	2.99
539.951	2.99
540.295	2.97
540.639	2.99
540.983	2.98
541.327	2.98
541.671	2.97
542.014	2.96
542.358	2.95
542.701	2.95
543.045	2.96
543.389	2.96
543.732	2.96
544.075	2.96
544.419	2.97
544.762	2.95
545.105	2.96
545.449	3
545.792	3
546.135	3
546.478	3
546.821	3
547.165	3.01
547.508	3.03
547.851	3.04
548.194	3.03
548.536	3.05
548.879	3.04
549.222	3.07
549.565	3.09
549.908	3.08
550.25	3.08
550.593	3.08
550.936	3.06
551.278	3.08
551.621	3.08
551.963	3.08
552.306	3.07
552.648	3.05
552.991	3.06
553.333	3.1
553.675	3.11
554.017	3.12
554.36	3.12
554.702	3.13
555.044	3.13
555.386	3.17
555.728	3.17
556.07	3.2
556.412	3.19
556.754	3.16
557.096	3.16
557.438	3.15
557.78	3.13
558.121	3.17
558.463	3.15
558.805	3.14
559.147	3.14
559.488	3.12
559.83	3.14
560.171	3.15
560.513	3.16
560.854	3.15
561.196	3.13
561.537	3.12
561.878	3.1
562.22	3.08
562.561	3.04
562.902	3.05
563.243	3.01
563.584	3.03
563.925	3.05
564.266	3.07
564.607	3.09
564.948	3.12
565.289	3.12
565.63	3.12
565.971	3.12
566.312	3.14
566.653	3.14
566.993	3.13
567.334	3.12
567.675	3.11
568.015	3.11
568.356	3.13
568.696	3.13
569.037	3.15
569.377	3.18
569.718	3.2
570.058	3.2
570.398	3.22
570.739	3.22
571.079	3.21
571.419	3.21
571.759	3.2
572.099	3.21
572.439	3.21
572.779	3.19
573.119	3.22
573.459	3.22
573.799	3.23
574.139	3.24
574.479	3.25
574.819	3.24
575.158	3.21
575.498	3.21
575.838	3.22
576.177	3.2
576.517	3.18
576.856	3.19
577.196	3.17
577.535	3.16
577.875	3.19
578.214	3.17
578.553	3.2
578.893	3.21
579.232	3.2
579.571	3.22
579.91	3.24
580.25	3.2
580.589	3.19
580.928	3.21
581.267	3.18
581.606	3.18
581.945	3.17
582.283	3.19
582.622	3.18
582.961	3.19
583.3	3.21
583.639	3.27
583.977	3.26
584.316	3.25
584.654	3.25
584.993	3.19
585.332	3.22
585.67	3.19
586.008	3.18
586.347	3.2
586.685	3.17
587.024	3.17
587.362	3.17
587.7	3.17
588.038	3.2
588.376	3.2
588.715	3.18
589.053	3.2
589.391	3.22
589.729	3.26
590.067	3.23
590.404	3.25
590.742	3.22
591.08	3.2
591.418	3.25
591.756	3.27
592.093	3.32
592.431	3.33
592.769	3.36
593.106	3.36
593.444	3.31
593.781	3.31
594.119	3.33
594.456	3.32
594.793	3.31
595.131	3.27
595.468	3.29
595.805	3.31
596.143	3.3
596.48	3.26
596.817	3.23
597.154	3.27
597.491	3.26
597.828	3.26
598.165	3.26
598.502	3.25
598.839	3.22
599.176	3.18
599.512	3.15
599.849	3.13
600.186	3.14
600.523	3.2
600.859	3.23
601.196	3.23
601.532	3.24
601.869	3.22
602.205	3.22
602.542	3.2
602.878	3.18
603.215	3.2
603.551	3.23
603.887	3.24
604.223	3.22
604.56	3.21
604.896	3.18
605.232	3.23
605.568	3.24
605.904	3.24
606.24	3.27
606.576	3.27
606.912	3.27
607.248	3.25
607.583	3.24
607.919	3.23
608.255	3.2
608.591	3.23
608.926	3.25
609.262	3.29
609.597	3.33
609.933	3.34
610.268	3.34
610.604	3.34
610.939	3.35
611.275	3.35
611.61	3.33
611.945	3.33
612.281	3.32
612.616	3.34
612.951	3.39
613.286	3.37
613.621	3.39
613.956	3.4
614.291	3.43
614.626	3.43
614.961	3.4
615.296	3.36
615.631	3.36
615.966	3.36
616.3	3.34
616.635	3.28
616.97	3.29
617.304	3.23
617.639	3.24
617.973	3.2
618.308	3.19
618.642	3.25
618.977	3.26
619.311	3.22
619.646	3.2
619.98	3.16
620.314	3.17
620.648	3.18
620.983	3.22
621.317	3.19
621.651	3.19
621.985	3.22
622.319	3.26
622.653	3.23
622.987	3.26
623.321	3.24
623.655	3.28
623.988	3.3
624.322	3.32
624.656	3.33
624.99	3.33
625.323	3.35
625.657	3.36
625.99	3.38
626.324	3.38
626.657	3.35
626.991	3.36
627.324	3.34
627.658	3.35
627.991	3.37
628.324	3.37
628.657	3.39
628.991	3.39
629.324	3.42
629.657	3.44
629.99	3.44
630.323	3.46
630.656	3.48
630.989	3.49
631.322	3.53
631.655	3.52
631.987	3.52
632.32	3.51
632.653	3.48
632.986	3.48
633.318	3.49
633.651	3.53
633.984	3.54
634.316	3.56
634.649	3.55
634.981	3.49
635.313	3.54
635.646	3.53
635.978	3.57
636.31	3.54
636.643	3.56
636.975	3.61
637.307	3.62
637.639	3.61
637.971	3.59
638.303	3.53
638.635	3.51
638.967	3.53
639.299	3.55
639.631	3.52
639.963	3.49
640.295	3.56
640.626	3.57
640.958	3.56
641.29	3.58
641.621	3.61
641.953	3.68
642.285	3.63
642.616	3.66
642.948	3.58
643.279	3.58
643.61	3.51
643.942	3.43
644.273	3.4
644.604	3.33
644.936	3.35
645.267	3.43
645.598	3.41
645.929	3.4
646.26	3.38
646.591	3.41
646.922	3.44
647.253	3.4
647.584	3.36
647.915	3.35
648.245	3.3
648.576	3.26
648.907	3.19
649.238	3.19
649.568	3.2
649.899	3.26
650.229	3.29
650.56	3.36
650.89	3.41
651.221	3.41
651.551	3.47
651.882	3.5
652.212	3.45
652.542	3.46
652.872	3.38
653.203	3.41
653.533	3.45
653.863	3.44
654.193	3.39
654.523	3.43
654.853	3.42
655.183	3.43
655.513	3.44
655.843	3.49
656.172	3.51
656.502	3.53
656.832	3.52
657.162	3.48
657.491	3.43
657.821	3.46
658.15	3.45
658.48	3.41
658.809	3.43
659.139	3.39
659.468	3.38
659.798	3.45
660.127	3.52
660.456	3.51
660.785	3.52
661.115	3.58
661.444	3.59
661.773	3.62
662.102	3.67
662.431	3.7
662.76	3.71
663.089	3.71
663.418	3.59
663.747	3.56
664.076	3.65
664.404	3.7
664.733	3.66
665.062	3.71
665.39	3.83
665.719	3.76
666.048	3.9
666.376	3.91
666.705	3.88
667.033	3.74
667.362	3.71
667.69	3.74
668.018	3.72
668.347	3.69
668.675	3.7
669.003	3.7
669.331	3.75
669.659	3.7
669.987	3.61
670.315	3.68
670.643	3.65
670.971	3.64
671.299	3.68
671.627	3.72
671.955	3.72
672.283	3.6
672.61	3.7
672.938	3.67
673.266	3.66
673.593	3.79
673.921	3.8
674.249	3.8
674.576	3.78
674.904	3.8
675.231	3.75
675.558	3.74
675.886	3.74
676.213	3.75
676.54	3.79
676.867	3.87
677.195	3.89
677.522	3.91
677.849	3.88
678.176	3.86
678.503	3.78
678.83	3.73
679.157	3.78
679.484	3.72
679.81	3.71
680.137	3.65
680.464	3.6
680.791	3.7
681.117	3.72
681.444	3.7
681.771	3.75
682.097	3.76
682.424	3.8
682.75	3.72
683.077	3.69
683.403	3.68
683.729	3.7
684.056	3.68
684.382	3.8
684.708	3.79
685.034	3.74
685.36	3.72
685.686	3.73
686.012	3.75
686.339	3.78
686.664	3.77
686.99	3.81
687.316	3.78
687.642	3.77
687.968	3.85
688.294	3.88
688.619	3.79
688.945	3.81
689.271	3.7
689.596	3.73
689.922	3.72
690.247	3.72
690.573	3.63
690.898	3.66
691.224	3.53
691.549	3.55
691.874	3.49
692.2	3.53
692.525	3.6
692.85	3.57
693.175	3.56
693.5	3.6
693.825	3.74
694.15	3.8
694.475	3.72
694.8	3.68
695.125	3.67
695.45	3.67
695.775	3.68
696.099	3.84
696.424	3.89
696.749	3.84
697.073	3.91
697.398	4.06
697.723	4.09
698.047	4.13
698.372	4.09
698.696	4.16
699.02	4.15
699.345	4.11
699.669	4.19
699.993	4.11
700.318	4.13
700.642	4.11
700.966	4.02
701.29	4.06
701.614	4.06
701.938	4.1
702.262	4.16
702.586	4.26
702.91	4.19
703.234	4.14
703.557	4.15
703.881	4.13
704.205	4.11
704.529	3.95
704.852	4.01
705.176	3.98
705.499	4.03
705.823	3.95
706.146	3.95
706.47	3.88
706.793	4.04
707.117	4.15
707.44	4.13
707.763	4.26
708.086	4.16
708.409	4.14
708.733	4.09
709.056	4
709.379	3.97
709.702	3.91
710.025	3.94
710.348	4.01
710.671	3.9
710.993	3.98
711.316	4.04
711.639	4.04
711.962	4.13
712.284	4.07
712.607	4.16
712.93	4.28
713.252	4.25
713.575	4.23
713.897	4.02
714.22	4
714.542	3.94
714.864	3.91
715.187	3.94
715.509	4
715.831	4.14
716.153	4.2
716.475	4.14
716.798	4.31
717.12	4.31
717.442	4.38
717.764	4.23
718.085	4.26
718.407	4.24
718.729	4.27
719.051	4.33
719.373	4.19
719.695	4.07
720.016	4.05
720.338	4.03
720.659	4.08
720.981	4.05
721.302	4.19
721.624	4.33
721.945	4.41
722.267	4.46
722.588	4.33
722.909	4.23
723.231	4.33
723.552	4.04
723.873	4.12
724.194	3.99
724.515	4.01
724.836	4.04
725.157	4.09
725.478	4.08
725.799	4.27
726.12	4.45
726.441	4.55
726.762	4.55
727.083	4.6
727.403	4.63
727.724	4.69
728.045	4.68
728.365	4.69
728.686	4.6
729.006	4.6
729.327	4.75
729.647	4.76
729.967	4.74
730.288	4.97
730.608	4.83
730.928	4.96
731.249	4.89
731.569	4.99
731.889	4.84
732.209	4.74
732.529	4.69
732.849	4.76
733.169	4.64
733.489	4.7
733.809	4.64
734.129	4.7
734.448	4.83
734.768	4.73
735.088	4.85
735.408	4.91
735.727	4.8
736.047	4.73
736.366	4.73
736.686	4.94
737.005	4.8
737.325	4.84
737.644	4.8
737.963	4.84
738.283	4.66
738.602	4.95
738.921	5.15
739.24	5.22
739.56	5.1
739.879	5.24
740.198	5.31
740.517	5.27
740.836	5.32
741.155	5.27
741.473	5.39
741.792	5.26
742.111	5.18
742.43	5.18
742.748	5.19
743.067	5.18
743.386	5.15
743.704	5.1
744.023	5.05
744.341	5.09
744.66	5.31
744.978	5.18
745.297	5.05
745.615	5.04
745.933	4.89
746.252	4.95
746.57	4.86
746.888	4.85
747.206	4.85
747.524	4.65
747.842	4.44
748.16	4.43
748.478	4.39
748.796	4.62
749.114	4.73
749.432	4.5
749.749	4.53
750.067	4.29
750.385	4.48
750.703	4.69
751.02	4.9
751.338	4.81
751.655	5
751.973	5.08
752.29	5.02
752.608	4.93
752.925	5.01
753.242	4.89
753.56	4.82
753.877	4.94
754.194	5.25
754.511	5.49
754.828	5.32
755.145	5.58
755.462	5.5
755.779	5.53
756.096	5.7
756.413	5.62
756.73	5.79
757.047	5.58
757.364	5.32
757.68	5.22
757.997	5.16
758.314	5.43
758.63	5.21
758.947	5.13
759.264	5.11
759.58	4.87
759.896	5.23
760.213	5.21
760.529	5.21
760.846	5.11
761.162	4.99
761.478	5.1
761.794	4.8
762.11	4.73
762.426	4.7
762.743	4.69
763.059	4.89
763.375	4.94
763.69	5.11
764.006	5.26
764.322	5.24
764.638	5.37
764.954	5.35
765.27	5.35
765.585	5.44
765.901	5.51
766.216	5.57
766.532	5.31
766.848	5.42
767.163	5.55
767.478	5.41
767.794	5.48
768.109	5.31
768.424	5.42
768.74	5.45
769.055	5.41
769.37	5.59
769.685	5.43
770	5.32
770.315	4.99
770.63	5.03
770.945	5
771.26	5.19
771.575	4.96
771.89	4.95
772.205	4.96
772.52	5
772.834	5.33
773.149	5.46
773.464	5.17
773.778	5.2
774.093	5.19
774.407	5.43
774.722	5.45
775.036	5.69
775.351	5.91
775.665	5.66
775.979	5.57
776.293	5.68
776.608	5.51
776.922	5.51
777.236	5.37
777.55	5.25
777.864	4.97
778.178	5.03
778.492	5.24
778.806	4.97
779.12	5.05
779.434	4.65
779.747	4.69
780.061	4.73
780.375	4.38
780.689	4.58
781.002	4.45
781.316	4.49
781.629	4.58
781.943	4.44
782.256	4.72
782.57	4.76
782.883	4.94
783.196	5.22
783.51	5.63
783.823	5.58
784.136	5.59
784.449	5.74
784.762	5.68
785.075	5.55
785.388	5.67
785.701	5.29
786.014	5.39
786.327	5.45
786.64	5.46
786.953	5.61
787.266	5.53
787.578	5.37
787.891	5.78
788.204	5.33
788.516	5.34
788.829	5.72
789.141	5.91
789.454	5.57
789.766	5.89
790.079	5.82
790.391	5.72
790.703	6.18
791.016	6.07
791.328	6.32
791.64	6.22
791.952	6.46
792.264	6.64
792.576	6.73
792.888	6.73
793.2	6.84
793.512	6.66
793.824	6.6
794.136	6.51
794.448	6.6
794.76	6.73
795.071	6.43
795.383	6.06
795.695	5.93
796.006	5.69
796.318	5.51
796.629	5.72
796.941	5.84
797.252	5.68
797.564	5.64
797.875	5.73
798.186	5.65
798.497	5.73
798.809	5.85
799.12	5.96
799.431	5.84
799.742	6.23
800.053	6.27
800.364	6.36
800.675	6.31
800.986	5.92
801.297	5.83
801.608	5.88
801.918	5.92
802.229	5.97
802.54	5.84
802.851	5.78
803.161	5.52
803.472	5.38
803.782	5.48
804.093	5.07
804.403	4.54
804.714	4.82
805.024	4.57
805.334	4.78
805.645	4.72
805.955	4.98
806.265	4.92
806.575	4.78
806.885	4.98
807.195	5.47
807.505	6
807.815	6.17
808.125	6.17
808.435	6.28
808.745	6.22
809.055	6.48
809.365	6.26
809.674	5.93
809.984	6.64
810.294	6.46
810.603	6.68
810.913	6.91
811.222	6.95
811.532	7.23
811.841	7.22
812.151	7.66
812.46	7.31
812.769	6.61
813.079	6.44
813.388	6.66
813.697	6.94
814.006	6.64
814.315	6.83
814.624	7.01
814.933	7.43
815.242	7.32
815.551	7.77
815.86	7.75
816.169	7.9
816.478	7.29
816.786	6.93
817.095	6.86
817.404	7.5
817.712	7.7
818.021	7.33
818.33	7.04
818.638	6.9
818.947	7.6
819.255	7.94
819.563	7.91
819.872	7.96
820.18	7.72
820.488	7.74
820.796	7.83
821.105	7.74
821.413	7.7
821.721	7.57
822.029	7.5
822.337	7.44
822.645	7.65
822.953	7.58
823.26	7.71
823.568	7.75
823.876	7.59
824.184	7.53
824.491	7.61
824.799	7.6
825.107	7.72
825.414	7.61
825.722	7.73
826.029	7.93
826.337	7.97
826.644	7.98
826.951	7.97
827.259	7.83
827.566	7.78
827.873	7.65
828.18	7.84
828.488	8.03
828.795	8.26
829.102	8.16
829.409	8.37
829.716	8.38
830.023	8.39
830.329	8.36
830.636	8.48
830.943	8.32
831.25	8.28
831.557	8.02
831.863	7.91
832.17	7.62
832.476	7.7
832.783	7.47
833.089	7.34
833.396	7.36
833.702	7.46
834.009	7.76
834.315	7.64
834.621	7.65
834.928	7.59
835.234	7.53
835.54	7.37
835.846	7.13
836.152	7.02
836.458	7.21
836.764	7.48
837.07	7.43
837.376	7.5
837.682	7.35
837.988	7.17
838.293	6.78
838.599	6.96
838.905	6.53
839.211	6.61
839.516	6.63
839.822	6.6
840.127	6.73
840.433	6.42
840.738	7.03
841.044	6.63
841.349	6.41
841.654	6.16
841.959	6.47
842.265	7.16
842.57	7.28
842.875	6.85
843.18	6.66
843.485	6.59
843.79	5.92
844.095	5.99
844.4	6.29
844.705	6.47
845.01	5.45
845.315	5.7
845.619	5.1
845.924	4.87
846.229	4.81
846.533	4.17
846.838	4.05
847.142	3.22
847.447	2.57
847.751	1.44
848.056	0.16
848.36	0.18
848.664	0.21
848.969	-1.71
849.273	-0.65
849.577	0.44
849.881	2.12
850.185	5.06
850.489	6.42
850.794	7.55
851.097	8.36
851.401	10.16
851.705	9.32
852.009	10.96
852.313	11.47
852.617	12.21
852.92	13.85
853.224	13.63
853.528	13.97
853.831	13.89
854.135	14.28
854.438	16.13
854.742	15.53
855.045	16.62
855.349	17.89
855.652	15.28
855.955	14.04
856.259	10.18
856.562	9.17
856.865	9.51
857.168	8.23
857.471	8.31
857.774	9.07
858.077	10.7
858.38	10.79
858.683	9.8
858.986	10.32
859.289	8.59
859.592	10.36
859.894	10.51
860.197	10.31
860.5	10.7
860.802	8.92
861.105	11.7
861.407	9.02
861.71	9.41
862.012	12.25
862.315	12.3
862.617	13.89
862.919	13.93
863.222	13.65
863.524	14.31
863.826	14.91
864.128	12.96
864.43	10.92
864.732	8.14
865.034	8.78
865.336	8.05
865.638	7.4
865.94	6.87
866.242	6.27
866.544	6.51
866.846	6.9
867.147	8.91
867.449	8.3
867.751	9.74
868.052	10.4
868.354	9.22
868.655	8.38
868.957	7.28
869.258	6.11
869.56	4.74
869.861	2.29
870.162	3.33
870.463	4.51
870.765	4.76
871.066	5.03
871.367	5.14
871.668	3.82
871.969	3.97
872.27	3.08
872.571	3.91
872.872	4.16
873.173	2.91
873.473	1.73
873.774	0.64
874.075	0.78
874.376	0.1
874.676	0.52
874.977	0.06
875.277	2.31
875.578	1.99
875.878	2.62
876.179	4.87
876.479	3.03
876.78	1.64
877.08	1.9
877.38	2.54
877.68	2.41
877.981	3.05
878.281	4.02
878.581	4.57
