Data from BU26942_Reflection_00002.txt Node
Date: Mon Nov 18 16:50:28 EST 2019
User: vgr7
Spectrometer: USB2G7710
Scans to average: 3
Trigger mode: 4
Integration Time (sec): 2.000000E-2
Electric dark correction enabled: true
Boxcar width: 10
XAxis mode: Wavelengths
Number of Pixels in Spectrum: 2048
>>>>>Begin Spectral Data<<<<<
177.721	28.11
178.105	36.34
178.488	-596.68
178.871	-428.17
179.254	401.78
179.636	-823.08
180.019	-1378.87
180.402	230.43
180.785	-21.48
181.168	-48.51
181.55	-22.06
181.933	106.74
182.316	423.08
182.698	283.37
183.081	450.94
183.463	7253.85
183.846	116.01
184.228	139.76
184.611	337.74
184.993	-201.78
185.376	-34.65
185.758	-38.31
186.14	-58.64
186.522	117100
186.904	661.5
187.287	644.4
187.669	-587.15
188.051	-237.18
188.433	-236.81
188.815	-328.57
189.197	-196.23
189.579	-92.62
189.961	-165.28
190.342	-145.6
190.724	-137.13
191.106	-281.95
191.488	-689.47
191.869	-252.78
192.251	-222.21
192.633	-261.64
193.014	-250.03
193.396	-247.29
193.777	-270.7
194.159	-342.79
194.54	-161.74
194.922	-91.57
195.303	-86.38
195.684	-142.59
196.065	-116.4
196.447	-94.89
196.828	-169.71
197.209	-188.78
197.59	-368.65
197.971	-221.03
198.352	-189.91
198.733	-139.95
199.114	-115.17
199.495	-53.25
199.876	-46.13
200.257	-65.17
200.638	-78.32
201.018	-79.98
201.399	-88.29
201.78	-78.32
202.16	-88.36
202.541	-146.24
202.922	-284.72
203.302	-273.48
203.683	-207.93
204.063	-321.84
204.444	-405.34
204.824	-284.71
205.204	-209.54
205.585	-243.2
205.965	-323.4
206.345	-328
206.725	-857.02
207.106	-477.98
207.486	-653.72
207.866	-432.43
208.246	-334.97
208.626	-373.47
209.006	-311.08
209.386	-238.43
209.766	-266.07
210.145	-283.22
210.525	-281.7
210.905	-268.36
211.285	-245.54
211.664	-205.78
212.044	-202.97
212.424	-180.71
212.803	-168.41
213.183	-179.44
213.562	-119.24
213.942	-102.39
214.321	-95.67
214.701	-98.01
215.08	-108.32
215.459	-97.39
215.838	-118
216.218	-137.66
216.597	-93.49
216.976	-87.98
217.355	-96.27
217.734	-94.57
218.113	-80.38
218.492	-81.8
218.871	-103.8
219.25	-102.98
219.629	-106.7
220.008	-87.63
220.387	-74.03
220.766	-71.97
221.144	-86.79
221.523	-146.16
221.902	-175.85
222.28	-175.52
222.659	-130.3
223.037	-121.19
223.416	-85.49
223.794	-66.49
224.173	-44.66
224.551	-37.68
224.929	-36.27
225.308	-31.92
225.686	-23.13
226.064	-21.57
226.442	-17.67
226.821	-7.66
227.199	-9.7
227.577	-2.37
227.955	-8.7
228.333	-9.8
228.711	-7.94
229.089	-3.48
229.467	-2.87
229.845	-4.55
230.222	-5.22
230.6	-5.59
230.978	-4.55
231.356	-6.22
231.733	-6.78
232.111	-7.42
232.488	-7.92
232.866	-8.55
233.243	-9.07
233.621	-11.53
233.998	-9.84
234.376	-9.58
234.753	-9.8
235.13	-8.29
235.508	-9.34
235.885	-8.58
236.262	-7.93
236.639	-7.15
237.016	-6.12
237.393	-3.56
237.77	-1.39
238.147	0.55
238.524	1.61
238.901	1.51
239.278	2.42
239.655	2.96
240.032	3.08
240.409	2.54
240.785	3.19
241.162	3.45
241.539	3.98
241.915	3.66
242.292	3.33
242.668	3.4
243.045	3.38
243.421	3.36
243.798	3.45
244.174	3.72
244.551	3.79
244.927	4.06
245.303	4.11
245.679	4.2
246.056	3.93
246.432	3.57
246.808	3.77
247.184	3.33
247.56	3.14
247.936	3.37
248.312	3.68
248.688	3.85
249.064	3.77
249.44	3.77
249.815	3.71
250.191	3.75
250.567	3.98
250.943	4.33
251.318	4.37
251.694	4.62
252.069	4.5
252.445	4.41
252.82	4.36
253.196	4.18
253.571	3.76
253.947	3.71
254.322	4.12
254.697	3.91
255.073	3.83
255.448	4.09
255.823	3.75
256.198	3.82
256.573	3.76
256.948	4.14
257.323	4.2
257.698	4.33
258.073	4.36
258.448	4.03
258.823	3.97
259.198	3.89
259.573	3.66
259.948	3.54
260.322	3.58
260.697	3.44
261.072	3.4
261.446	3.59
261.821	3.56
262.195	3.58
262.57	3.66
262.944	3.84
263.319	3.78
263.693	3.74
264.067	3.64
264.442	3.63
264.816	3.26
265.19	3.14
265.564	3.23
265.938	2.98
266.313	3.13
266.687	2.98
267.061	3.07
267.435	3.21
267.809	3.27
268.183	3.14
268.556	3.21
268.93	3.26
269.304	3.33
269.678	3.46
270.051	3.34
270.425	3.22
270.799	3.26
271.172	3.37
271.546	3.45
271.919	3.36
272.293	3.32
272.666	3.46
273.04	3.62
273.413	3.49
273.787	3.69
274.16	3.66
274.533	3.79
274.906	3.62
275.279	3.66
275.653	3.84
276.026	3.9
276.399	3.84
276.772	3.83
277.145	3.64
277.518	3.56
277.891	3.6
278.263	3.72
278.636	3.6
279.009	3.45
279.382	3.63
279.755	3.78
280.127	3.94
280.5	4.1
280.872	4.08
281.245	4
281.617	3.97
281.99	3.98
282.362	3.95
282.735	3.97
283.107	3.88
283.479	3.8
283.852	3.81
284.224	3.83
284.596	3.87
284.968	4.07
285.34	4.14
285.713	4.2
286.085	4.23
286.457	4.32
286.829	4.38
287.201	4.28
287.572	4.2
287.944	4.01
288.316	3.84
288.688	3.83
289.06	3.95
289.431	4
289.803	4.07
290.175	4.05
290.546	4.32
290.918	4.35
291.289	4.23
291.661	4.25
292.032	4.37
292.403	4.47
292.775	4.36
293.146	4.42
293.517	4.34
293.889	4.4
294.26	4.35
294.631	4.29
295.002	4.17
295.373	4.14
295.744	4.26
296.115	4.37
296.486	4.31
296.857	4.36
297.228	4.39
297.599	4.32
297.97	4.37
298.34	4.31
298.711	4.39
299.082	4.48
299.452	4.54
299.823	4.52
300.194	4.51
300.564	4.54
300.935	4.52
301.305	4.54
301.676	4.54
302.046	4.51
302.416	4.65
302.787	4.71
303.157	4.81
303.527	4.84
303.897	4.97
304.267	5.06
304.637	5.04
305.008	5.06
305.378	5.29
305.748	5.46
306.117	5.31
306.487	5.32
306.857	5.34
307.227	5.34
307.597	5.29
307.967	5.35
308.336	5.43
308.706	5.42
309.076	5.44
309.445	5.37
309.815	5.34
310.184	5.13
310.554	5.18
310.923	5.07
311.293	5
311.662	4.88
312.031	4.85
312.401	4.81
312.77	4.92
313.139	4.91
313.508	4.71
313.877	4.68
314.246	4.69
314.616	4.69
314.985	4.79
315.353	4.8
315.722	4.62
316.091	4.57
316.46	4.4
316.829	4.51
317.198	4.58
317.567	4.7
317.935	4.89
318.304	4.82
318.672	4.78
319.041	4.86
319.41	4.74
319.778	4.55
320.147	4.52
320.515	4.35
320.883	4.21
321.252	4.29
321.62	4.46
321.988	4.42
322.357	4.42
322.725	4.25
323.093	4.28
323.461	4.36
323.829	4.36
324.197	4.63
324.565	4.49
324.933	4.48
325.301	4.5
325.669	4.45
326.037	4.46
326.405	4.61
326.772	4.65
327.14	4.85
327.508	5.01
327.875	5.01
328.243	5.05
328.61	4.92
328.978	4.96
329.346	4.87
329.713	4.79
330.08	4.78
330.448	4.88
330.815	4.86
331.182	4.98
331.55	5.04
331.917	4.98
332.284	5.1
332.651	5.03
333.018	5.07
333.385	5.04
333.752	5.15
334.119	5.24
334.486	5.08
334.853	5.08
335.22	5.1
335.587	5.15
335.954	5.11
336.32	5.26
336.687	5.17
337.054	5.17
337.42	5.3
337.787	5.4
338.153	5.35
338.52	5.33
338.886	5.08
339.253	4.98
339.619	4.93
339.986	4.88
340.352	4.97
340.718	4.97
341.084	5.01
341.451	5.06
341.817	4.99
342.183	5.06
342.549	5.05
342.915	5.07
343.281	5
343.647	4.98
344.013	4.96
344.379	5.05
344.745	5.1
345.11	5.07
345.476	5.02
345.842	4.98
346.208	4.98
346.573	5
346.939	5.13
347.304	5.06
347.67	4.94
348.035	4.96
348.401	4.9
348.766	4.85
349.132	4.71
349.497	4.71
349.862	4.85
350.228	4.87
350.593	4.84
350.958	4.92
351.323	4.97
351.688	4.91
352.053	4.79
352.418	4.8
352.783	4.8
353.148	4.75
353.513	4.83
353.878	4.84
354.243	4.99
354.608	4.92
354.972	5.04
355.337	5.14
355.702	5.15
356.066	5.26
356.431	5.33
356.795	5.48
357.16	5.55
357.524	5.43
357.889	5.41
358.253	5.41
358.618	5.37
358.982	5.29
359.346	5.24
359.71	5.29
360.075	5.33
360.439	5.37
360.803	5.43
361.167	5.35
361.531	5.4
361.895	5.33
362.259	5.3
362.623	5.26
362.987	5.29
363.351	5.37
363.714	5.37
364.078	5.37
364.442	5.3
364.806	5.3
365.169	5.31
365.533	5.37
365.896	5.36
366.26	5.37
366.623	5.45
366.987	5.55
367.35	5.56
367.714	5.49
368.077	5.51
368.44	5.43
368.803	5.48
369.167	5.39
369.53	5.41
369.893	5.52
370.256	5.51
370.619	5.45
370.982	5.31
371.345	5.26
371.708	5.28
372.071	5.28
372.434	5.21
372.797	5.21
373.159	5.11
373.522	5.18
373.885	5.22
374.247	5.22
374.61	5.19
374.973	5.16
375.335	5.19
375.698	5.13
376.06	5.15
376.423	5.19
376.785	5.26
377.147	5.32
377.51	5.28
377.872	5.29
378.234	5.33
378.596	5.4
378.958	5.38
379.321	5.36
379.683	5.35
380.045	5.32
380.407	5.32
380.769	5.3
381.13	5.25
381.492	5.22
381.854	5.19
382.216	5.22
382.578	5.27
382.939	5.27
383.301	5.27
383.663	5.23
384.024	5.21
384.386	5.2
384.747	5.24
385.109	5.24
385.47	5.21
385.832	5.22
386.193	5.23
386.554	5.2
386.916	5.17
387.277	5.25
387.638	5.28
387.999	5.34
388.36	5.39
388.721	5.46
389.082	5.48
389.443	5.52
389.804	5.51
390.165	5.47
390.526	5.49
390.887	5.5
391.248	5.55
391.609	5.57
391.969	5.62
392.33	5.54
392.691	5.56
393.051	5.64
393.412	5.62
393.772	5.61
394.133	5.65
394.493	5.65
394.854	5.62
395.214	5.63
395.574	5.58
395.935	5.56
396.295	5.56
396.655	5.55
397.015	5.56
397.376	5.58
397.736	5.58
398.096	5.58
398.456	5.59
398.816	5.55
399.176	5.53
399.535	5.49
399.895	5.48
400.255	5.49
400.615	5.46
400.975	5.46
401.334	5.42
401.694	5.43
402.054	5.44
402.413	5.44
402.773	5.4
403.132	5.39
403.492	5.4
403.851	5.38
404.211	5.38
404.57	5.35
404.929	5.33
405.288	5.34
405.648	5.33
406.007	5.33
406.366	5.32
406.725	5.34
407.084	5.36
407.443	5.4
407.802	5.42
408.161	5.39
408.52	5.37
408.879	5.38
409.238	5.36
409.596	5.36
409.955	5.34
410.314	5.38
410.673	5.38
411.031	5.36
411.39	5.33
411.748	5.35
412.107	5.38
412.465	5.36
412.824	5.37
413.182	5.39
413.54	5.39
413.899	5.4
414.257	5.4
414.615	5.37
414.974	5.35
415.332	5.31
415.69	5.31
416.048	5.3
416.406	5.32
416.764	5.31
417.122	5.34
417.48	5.35
417.838	5.35
418.195	5.34
418.553	5.34
418.911	5.35
419.269	5.34
419.626	5.34
419.984	5.35
420.342	5.35
420.699	5.36
421.057	5.35
421.414	5.35
421.772	5.33
422.129	5.34
422.486	5.33
422.844	5.33
423.201	5.33
423.558	5.35
423.915	5.35
424.273	5.35
424.63	5.34
424.987	5.33
425.344	5.33
425.701	5.35
426.058	5.37
426.415	5.38
426.772	5.37
427.128	5.36
427.485	5.37
427.842	5.37
428.199	5.34
428.555	5.35
428.912	5.36
429.269	5.37
429.625	5.37
429.982	5.37
430.338	5.39
430.695	5.39
431.051	5.41
431.407	5.39
431.764	5.4
432.12	5.37
432.476	5.38
432.832	5.34
433.189	5.34
433.545	5.33
433.901	5.3
434.257	5.31
434.613	5.34
434.969	5.34
435.325	5.33
435.681	5.36
436.036	5.39
436.392	5.38
436.748	5.39
437.104	5.38
437.459	5.41
437.815	5.41
438.171	5.42
438.526	5.42
438.882	5.41
439.237	5.42
439.593	5.44
439.948	5.44
440.304	5.47
440.659	5.46
441.014	5.46
441.369	5.47
441.725	5.47
442.08	5.46
442.435	5.46
442.79	5.47
443.145	5.46
443.5	5.45
443.855	5.46
444.21	5.46
444.565	5.48
444.92	5.49
445.275	5.47
445.629	5.45
445.984	5.45
446.339	5.45
446.693	5.43
447.048	5.42
447.403	5.41
447.757	5.4
448.112	5.4
448.466	5.39
448.82	5.38
449.175	5.37
449.529	5.36
449.883	5.33
450.238	5.33
450.592	5.33
450.946	5.32
451.3	5.31
451.654	5.33
452.008	5.32
452.362	5.28
452.716	5.29
453.07	5.3
453.424	5.3
453.778	5.3
454.132	5.3
454.486	5.3
454.839	5.3
455.193	5.29
455.547	5.3
455.9	5.32
456.254	5.32
456.607	5.33
456.961	5.34
457.314	5.33
457.668	5.36
458.021	5.34
458.375	5.35
458.728	5.36
459.081	5.36
459.434	5.33
459.787	5.36
460.141	5.36
460.494	5.36
460.847	5.36
461.2	5.38
461.553	5.38
461.906	5.41
462.259	5.41
462.611	5.45
462.964	5.44
463.317	5.45
463.67	5.48
464.022	5.48
464.375	5.48
464.728	5.49
465.08	5.48
465.433	5.49
465.785	5.5
466.138	5.51
466.49	5.49
466.843	5.54
467.195	5.51
467.547	5.52
467.899	5.53
468.252	5.54
468.604	5.52
468.956	5.52
469.308	5.51
469.66	5.51
470.012	5.5
470.364	5.53
470.716	5.54
471.068	5.52
471.42	5.55
471.772	5.56
472.123	5.59
472.475	5.57
472.827	5.59
473.178	5.58
473.53	5.57
473.882	5.58
474.233	5.56
474.585	5.56
474.936	5.58
475.288	5.58
475.639	5.6
475.99	5.61
476.342	5.64
476.693	5.64
477.044	5.64
477.395	5.64
477.746	5.62
478.097	5.61
478.448	5.63
478.8	5.61
479.15	5.62
479.501	5.6
479.852	5.6
480.203	5.59
480.554	5.59
480.905	5.59
481.255	5.6
481.606	5.6
481.957	5.61
482.307	5.61
482.658	5.62
483.009	5.6
483.359	5.6
483.709	5.61
484.06	5.61
484.41	5.61
484.761	5.6
485.111	5.62
485.461	5.62
485.811	5.61
486.162	5.62
486.512	5.63
486.862	5.64
487.212	5.64
487.562	5.64
487.912	5.65
488.262	5.65
488.612	5.65
488.961	5.65
489.311	5.66
489.661	5.66
490.011	5.66
490.36	5.66
490.71	5.66
491.06	5.65
491.409	5.65
491.759	5.64
492.108	5.65
492.458	5.64
492.807	5.64
493.157	5.64
493.506	5.64
493.855	5.64
494.204	5.63
494.554	5.63
494.903	5.63
495.252	5.63
495.601	5.64
495.95	5.64
496.299	5.65
496.648	5.64
496.997	5.63
497.346	5.63
497.695	5.66
498.043	5.68
498.392	5.69
498.741	5.72
499.09	5.74
499.438	5.76
499.787	5.76
500.135	5.79
500.484	5.8
500.832	5.82
501.181	5.82
501.529	5.84
501.878	5.88
502.226	5.91
502.574	5.93
502.923	5.93
503.271	5.92
503.619	5.94
503.967	5.93
504.315	5.95
504.663	5.94
505.011	5.92
505.359	5.92
505.707	5.96
506.055	5.96
506.403	5.96
506.751	5.97
507.098	5.96
507.446	5.96
507.794	5.97
508.141	5.95
508.489	5.98
508.837	5.99
509.184	5.99
509.531	5.99
509.879	6.02
510.226	6.03
510.574	6.03
510.921	6.02
511.268	6.05
511.616	6.07
511.963	6.08
512.31	6.1
512.657	6.11
513.004	6.11
513.351	6.12
513.698	6.14
514.045	6.14
514.392	6.14
514.739	6.15
515.086	6.16
515.432	6.16
515.779	6.14
516.126	6.14
516.473	6.15
516.819	6.15
517.166	6.12
517.512	6.13
517.859	6.16
518.205	6.18
518.552	6.18
518.898	6.19
519.245	6.2
519.591	6.2
519.937	6.18
520.283	6.17
520.629	6.17
520.976	6.17
521.322	6.18
521.668	6.18
522.014	6.18
522.36	6.18
522.706	6.2
523.052	6.2
523.398	6.21
523.743	6.2
524.089	6.2
524.435	6.2
524.781	6.2
525.126	6.21
525.472	6.21
525.817	6.22
526.163	6.22
526.509	6.24
526.854	6.24
527.199	6.27
527.545	6.27
527.89	6.27
528.235	6.26
528.581	6.27
528.926	6.27
529.271	6.28
529.616	6.28
529.961	6.28
530.306	6.28
530.651	6.29
530.996	6.29
531.341	6.3
531.686	6.31
532.031	6.31
532.376	6.31
532.721	6.3
533.065	6.31
533.41	6.31
533.755	6.29
534.099	6.29
534.444	6.28
534.788	6.29
535.133	6.29
535.477	6.31
535.822	6.3
536.166	6.31
536.51	6.31
536.855	6.31
537.199	6.32
537.543	6.33
537.887	6.32
538.231	6.32
538.576	6.33
538.92	6.32
539.264	6.32
539.608	6.33
539.951	6.34
540.295	6.32
540.639	6.34
540.983	6.35
541.327	6.35
541.671	6.35
542.014	6.34
542.358	6.36
542.701	6.35
543.045	6.36
543.389	6.36
543.732	6.38
544.075	6.38
544.419	6.39
544.762	6.39
545.105	6.42
545.449	6.42
545.792	6.43
546.135	6.42
546.478	6.44
546.821	6.44
547.165	6.45
547.508	6.47
547.851	6.47
548.194	6.47
548.536	6.47
548.879	6.49
549.222	6.5
549.565	6.5
549.908	6.52
550.25	6.52
550.593	6.54
550.936	6.5
551.278	6.52
551.621	6.53
551.963	6.55
552.306	6.53
552.648	6.55
552.991	6.56
553.333	6.59
553.675	6.58
554.017	6.56
554.36	6.58
554.702	6.6
555.044	6.6
555.386	6.61
555.728	6.6
556.07	6.6
556.412	6.58
556.754	6.59
557.096	6.59
557.438	6.58
557.78	6.58
558.121	6.62
558.463	6.62
558.805	6.61
559.147	6.56
559.488	6.54
559.83	6.52
560.171	6.5
560.513	6.52
560.854	6.51
561.196	6.5
561.537	6.5
561.878	6.48
562.22	6.49
562.561	6.5
562.902	6.51
563.243	6.52
563.584	6.54
563.925	6.52
564.266	6.5
564.607	6.49
564.948	6.5
565.289	6.49
565.63	6.48
565.971	6.48
566.312	6.49
566.653	6.5
566.993	6.49
567.334	6.49
567.675	6.5
568.015	6.52
568.356	6.53
568.696	6.55
569.037	6.57
569.377	6.58
569.718	6.59
570.058	6.58
570.398	6.59
570.739	6.59
571.079	6.6
571.419	6.62
571.759	6.63
572.099	6.63
572.439	6.61
572.779	6.61
573.119	6.61
573.459	6.64
573.799	6.66
574.139	6.69
574.479	6.7
574.819	6.68
575.158	6.65
575.498	6.66
575.838	6.64
576.177	6.62
576.517	6.61
576.856	6.62
577.196	6.64
577.535	6.63
577.875	6.62
578.214	6.64
578.553	6.64
578.893	6.64
579.232	6.64
579.571	6.65
579.91	6.65
580.25	6.65
580.589	6.66
580.928	6.66
581.267	6.64
581.606	6.65
581.945	6.64
582.283	6.65
582.622	6.62
582.961	6.63
583.3	6.64
583.639	6.65
583.977	6.62
584.316	6.57
584.654	6.57
584.993	6.59
585.332	6.61
585.67	6.61
586.008	6.62
586.347	6.61
586.685	6.62
587.024	6.63
587.362	6.68
587.7	6.64
588.038	6.63
588.376	6.61
588.715	6.61
589.053	6.67
589.391	6.7
589.729	6.75
590.067	6.73
590.404	6.73
590.742	6.72
591.08	6.7
591.418	6.75
591.756	6.78
592.093	6.78
592.431	6.72
592.769	6.73
593.106	6.74
593.444	6.72
593.781	6.7
594.119	6.7
594.456	6.7
594.793	6.71
595.131	6.7
595.468	6.74
595.805	6.71
596.143	6.69
596.48	6.67
596.817	6.66
597.154	6.67
597.491	6.69
597.828	6.7
598.165	6.71
598.502	6.69
598.839	6.66
599.176	6.63
599.512	6.64
599.849	6.64
600.186	6.66
600.523	6.74
600.859	6.78
601.196	6.79
601.532	6.78
601.869	6.78
602.205	6.81
602.542	6.83
602.878	6.84
603.215	6.86
603.551	6.85
603.887	6.86
604.223	6.88
604.56	6.88
604.896	6.89
605.232	6.87
605.568	6.87
605.904	6.88
606.24	6.9
606.576	6.93
606.912	6.94
607.248	6.92
607.583	6.91
607.919	6.87
608.255	6.85
608.591	6.86
608.926	6.86
609.262	6.84
609.597	6.84
609.933	6.86
610.268	6.88
610.604	6.9
610.939	6.88
611.275	6.82
611.61	6.79
611.945	6.8
612.281	6.8
612.616	6.81
612.951	6.81
613.286	6.82
613.621	6.79
613.956	6.79
614.291	6.77
614.626	6.76
614.961	6.81
615.296	6.82
615.631	6.84
615.966	6.81
616.3	6.81
616.635	6.79
616.97	6.79
617.304	6.77
617.639	6.74
617.973	6.74
618.308	6.78
618.642	6.8
618.977	6.82
619.311	6.83
619.646	6.83
619.98	6.82
620.314	6.79
620.648	6.77
620.983	6.8
621.317	6.8
621.651	6.79
621.985	6.77
622.319	6.75
622.653	6.72
622.987	6.75
623.321	6.74
623.655	6.76
623.988	6.8
624.322	6.77
624.656	6.79
624.99	6.8
625.323	6.85
625.657	6.83
625.99	6.82
626.324	6.89
626.657	6.92
626.991	6.94
627.324	6.98
627.658	7.03
627.991	7.03
628.324	7.02
628.657	7.01
628.991	6.99
629.324	6.99
629.657	7.04
629.99	7.05
630.323	7.07
630.656	7.07
630.989	7.05
631.322	7.06
631.655	7.01
631.987	7.09
632.32	7.08
632.653	7.07
632.986	7.07
633.318	7.06
633.651	7.07
633.984	7.04
634.316	7.06
634.649	7.11
634.981	7.1
635.313	7.15
635.646	7.17
635.978	7.2
636.31	7.22
636.643	7.19
636.975	7.16
637.307	7.18
637.639	7.17
637.971	7.16
638.303	7.17
638.635	7.15
638.967	7.08
639.299	7.13
639.631	7.14
639.963	7.07
640.295	7.07
640.626	7.09
640.958	7.13
641.29	7.1
641.621	7.03
641.953	7.04
642.285	7.05
642.616	7.05
642.948	7.06
643.279	7.1
643.61	7.12
643.942	7.14
644.273	7.15
644.604	7.13
644.936	7.04
645.267	7
645.598	7.05
645.929	7.11
646.26	7.03
646.591	7.03
646.922	7.04
647.253	7.01
647.584	6.97
647.915	6.89
648.245	6.84
648.576	6.88
648.907	6.85
649.238	6.81
649.568	6.81
649.899	6.77
650.229	6.76
650.56	6.79
650.89	6.79
651.221	6.81
651.551	6.76
651.882	6.88
652.212	6.91
652.542	6.92
652.872	6.87
653.203	6.95
653.533	7.01
653.863	7.04
654.193	7.05
654.523	7.05
654.853	7.12
655.183	7.18
655.513	7.07
655.843	7.13
656.172	7.13
656.502	7.14
656.832	7.15
657.162	7.15
657.491	7.13
657.821	7.18
658.15	7.07
658.48	7.1
658.809	7.11
659.139	7.17
659.468	7.22
659.798	7.23
660.127	7.19
660.456	7.16
660.785	7.2
661.115	7.22
661.444	7.23
661.773	7.19
662.102	7.16
662.431	7.26
662.76	7.22
663.089	7.25
663.418	7.22
663.747	7.21
664.076	7.28
664.404	7.24
664.733	7.21
665.062	7.26
665.39	7.25
665.719	7.23
666.048	7.24
666.376	7.21
666.705	7.34
667.033	7.34
667.362	7.41
667.69	7.34
668.018	7.35
668.347	7.39
668.675	7.41
669.003	7.45
669.331	7.5
669.659	7.51
669.987	7.45
670.315	7.48
670.643	7.54
670.971	7.5
671.299	7.57
671.627	7.59
671.955	7.66
672.283	7.65
672.61	7.63
672.938	7.58
673.266	7.61
673.593	7.63
673.921	7.61
674.249	7.57
674.576	7.53
674.904	7.51
675.231	7.49
675.558	7.48
675.886	7.55
676.213	7.48
676.54	7.46
676.867	7.57
677.195	7.54
677.522	7.51
677.849	7.52
678.176	7.57
678.503	7.51
678.83	7.57
679.157	7.56
679.484	7.55
679.81	7.59
680.137	7.51
680.464	7.42
680.791	7.43
681.117	7.4
681.444	7.49
681.771	7.52
682.097	7.47
682.424	7.58
682.75	7.46
683.077	7.47
683.403	7.54
683.729	7.48
684.056	7.46
684.382	7.49
684.708	7.48
685.034	7.39
685.36	7.41
685.686	7.4
686.012	7.43
686.339	7.52
686.664	7.47
686.99	7.64
687.316	7.59
687.642	7.67
687.968	7.69
688.294	7.77
688.619	7.72
688.945	7.74
689.271	7.64
689.596	7.65
689.922	7.66
690.247	7.54
690.573	7.59
690.898	7.65
691.224	7.65
691.549	7.69
691.874	7.58
692.2	7.63
692.525	7.5
692.85	7.65
693.175	7.63
693.5	7.63
693.825	7.54
694.15	7.51
694.475	7.45
694.8	7.45
695.125	7.37
695.45	7.44
695.775	7.46
696.099	7.48
696.424	7.57
696.749	7.48
697.073	7.63
697.398	7.58
697.723	7.58
698.047	7.57
698.372	7.43
698.696	7.6
699.02	7.53
699.345	7.63
699.669	7.63
699.993	7.58
700.318	7.6
700.642	7.6
700.966	7.66
701.29	7.68
701.614	7.62
701.938	7.72
702.262	7.77
702.586	7.78
702.91	7.81
703.234	7.75
703.557	7.82
703.881	7.78
704.205	7.85
704.529	7.83
704.852	7.87
705.176	8.07
705.499	8.02
705.823	8.09
706.146	7.95
706.47	7.88
706.793	7.88
707.117	7.96
707.44	8.03
707.763	8
708.086	7.91
708.409	7.94
708.733	7.9
709.056	7.71
709.379	7.83
709.702	7.74
710.025	7.81
710.348	7.83
710.671	7.67
710.993	7.61
711.316	7.63
711.639	7.6
711.962	7.52
712.284	7.4
712.607	7.31
712.93	7.47
713.252	7.44
713.575	7.48
713.897	7.41
714.22	7.37
714.542	7.43
714.864	7.49
715.187	7.5
715.509	7.44
715.831	7.55
716.153	7.45
716.475	7.57
716.798	7.66
717.12	7.53
717.442	7.67
717.764	7.69
718.085	7.63
718.407	7.7
718.729	7.77
719.051	7.91
719.373	7.94
719.695	7.76
720.016	7.78
720.338	7.59
720.659	7.6
720.981	7.46
721.302	7.5
721.624	7.55
721.945	7.59
722.267	7.65
722.588	7.67
722.909	7.5
723.231	7.28
723.552	7.14
723.873	7.42
724.194	7.3
724.515	7.35
724.836	7.3
725.157	7.34
725.478	7.25
725.799	7.22
726.12	7.3
726.441	7.44
726.762	7.44
727.083	7.52
727.403	7.55
727.724	7.71
728.045	7.71
728.365	7.6
728.686	7.52
729.006	7.52
729.327	7.47
729.647	7.76
729.967	7.87
730.288	7.92
730.608	7.81
730.928	7.87
731.249	7.67
731.569	7.78
731.889	7.73
732.209	7.78
732.529	7.83
732.849	7.9
733.169	7.76
733.489	7.76
733.809	7.76
734.129	7.73
734.448	7.85
734.768	7.83
735.088	7.9
735.408	7.97
735.727	8.11
736.047	8.35
736.366	8.25
736.686	8.18
737.005	8.06
737.325	7.94
737.644	8.01
737.963	8.15
738.283	8.14
738.602	8.22
738.921	8.38
739.24	8.6
739.56	8.43
739.879	8.49
740.198	8.47
740.517	8.68
740.836	8.6
741.155	8.4
741.473	8.43
741.792	8.21
742.111	8.43
742.43	8.4
742.748	8.14
743.067	8.13
743.386	8.36
743.704	8.51
744.023	8.67
744.341	8.65
744.66	8.86
744.978	9.1
745.297	9
745.615	8.9
745.933	8.65
746.252	8.82
746.57	9.01
746.888	9.17
747.206	9.07
747.524	9.26
747.842	9.23
748.16	9.25
748.478	9.49
748.796	9.36
749.114	9.4
749.432	9.24
749.749	9.26
750.067	8.96
750.385	8.9
750.703	9.08
751.02	8.92
751.338	8.87
751.655	8.61
751.973	8.75
752.29	8.72
752.608	8.81
752.925	8.77
753.242	8.83
753.56	8.71
753.877	8.75
754.194	8.54
754.511	8.75
754.828	8.58
755.145	8.68
755.462	8.39
755.779	8.22
756.096	8.46
756.413	8.41
756.73	8.65
757.047	8.54
757.364	8.25
757.68	8.55
757.997	8.54
758.314	8.57
758.63	8.3
758.947	8.49
759.264	8.28
759.58	8.38
759.896	8.38
760.213	8.5
760.529	8.57
760.846	8.95
761.162	8.86
761.478	9.01
761.794	8.75
762.11	9.05
762.426	9.01
762.743	9
763.059	9.18
763.375	9.19
763.69	9.47
764.006	9.65
764.322	9.7
764.638	9.58
764.954	9.78
765.27	9.79
765.585	9.52
765.901	9.6
766.216	9.32
766.532	9.23
766.848	9.04
767.163	9.04
767.478	8.88
767.794	8.87
768.109	8.67
768.424	8.88
768.74	8.78
769.055	8.86
769.37	9.01
769.685	8.65
770	8.65
770.315	8.1
770.63	8.03
770.945	7.83
771.26	8.13
771.575	7.7
771.89	7.93
772.205	7.95
772.52	8.13
772.834	8.62
773.149	8.59
773.464	8.68
773.778	8.71
774.093	8.56
774.407	8.9
774.722	8.84
775.036	8.95
775.351	9
775.665	8.63
775.979	8.41
776.293	8.41
776.608	8.24
776.922	8.35
777.236	8.25
777.55	7.83
777.864	7.7
778.178	7.92
778.492	7.98
778.806	7.87
779.12	7.91
779.434	8.03
779.747	8.01
780.061	8.22
780.375	7.99
780.689	8.01
781.002	7.76
781.316	8.04
781.629	8.25
781.943	8.16
782.256	8.4
782.57	8.4
782.883	8.42
783.196	8.44
783.51	8.79
783.823	9.03
784.136	9.78
784.449	9.5
784.762	9.8
785.075	9.68
785.388	10.02
785.701	9.86
786.014	9.6
786.327	9.65
786.64	9.75
786.953	10.36
787.266	10.31
787.578	10.09
787.891	9.96
788.204	9.76
788.516	10.01
788.829	9.89
789.141	10.22
789.454	10.68
789.766	10.97
790.079	10.9
790.391	10.86
790.703	10.79
791.016	11.24
791.328	11.45
791.64	11.59
791.952	11.76
792.264	11.32
792.576	11.07
792.888	11.08
793.2	11.21
793.512	10.66
793.824	10.47
794.136	10.88
794.448	11.22
794.76	10.93
795.071	10.88
795.383	11.18
795.695	10.76
796.006	10.64
796.318	10.16
796.629	10.31
796.941	9.98
797.252	10.09
797.564	9.82
797.875	9.7
798.186	9.62
798.497	9.53
798.809	9.71
799.12	9.89
799.431	9.57
799.742	9.22
800.053	9.52
800.364	9.75
800.675	9.37
800.986	9.32
801.297	9.06
801.608	9.19
801.918	9.19
802.229	9.17
802.54	9.52
802.851	9.84
803.161	9.89
803.472	10.04
803.782	10.24
804.093	10.03
804.403	9.56
804.714	9.37
805.024	9.5
805.334	10.1
805.645	10.55
805.955	11.11
806.265	11.43
806.575	10.87
806.885	10.74
807.195	10.89
807.505	10.97
807.815	11.51
808.125	11.06
808.435	10.54
808.745	10.12
809.055	9.76
809.365	9.59
809.674	9.84
809.984	10.18
810.294	10.02
810.603	10.63
810.913	11.1
811.222	10.93
811.532	10.96
811.841	10.95
812.151	11.31
812.46	10.7
812.769	10.26
813.079	10.06
813.388	10.15
813.697	10.3
814.006	10.24
814.315	10.19
814.624	10.77
814.933	11.5
815.242	11.85
815.551	12
815.86	12.78
816.169	12.24
816.478	12.02
816.786	11.57
817.095	11.57
817.404	12.08
817.712	12.23
818.021	12.27
818.33	12.14
818.638	11.3
818.947	12.01
819.255	12.05
819.563	12.49
819.872	12.49
820.18	12.51
820.488	12.15
820.796	12.05
821.105	11.73
821.413	11.7
821.721	11.86
822.029	11.95
822.337	11.75
822.645	11.92
822.953	11.86
823.26	11.89
823.568	11.78
823.876	11.61
824.184	11.63
824.491	11.57
824.799	11.56
825.107	11.67
825.414	11.58
825.722	11.67
826.029	11.7
826.337	11.76
826.644	11.68
826.951	11.66
827.259	11.52
827.566	11.68
827.873	11.55
828.18	11.47
828.488	11.18
828.795	11.32
829.102	11.14
829.409	11.35
829.716	11.23
830.023	11.45
830.329	11.15
830.636	11.49
830.943	11.6
831.25	11.75
831.557	11.81
831.863	11.75
832.17	11.41
832.476	11.21
832.783	11.26
833.089	11.5
833.396	11.69
833.702	12.01
834.009	12.21
834.315	12.25
834.621	12.21
834.928	12.66
835.234	12.43
835.54	12.27
835.846	11.99
836.152	12.16
836.458	12.11
836.764	12.17
837.07	11.85
837.376	11.47
837.682	11.03
837.988	10.67
838.293	10.83
838.599	10.84
838.905	10.44
839.211	9.71
839.516	9.18
839.822	9.27
840.127	9.59
840.433	8.89
840.738	9.32
841.044	9.85
841.349	9.63
841.654	10.02
841.959	10.7
842.265	11.41
842.57	12.53
842.875	12.16
843.18	13.52
843.485	13.83
843.79	14.55
844.095	15.59
844.4	15.93
844.705	14.74
845.01	15.94
845.315	16.75
845.619	16.67
845.924	17.05
846.229	17.43
846.533	18.43
846.838	18.89
847.142	17.85
847.447	15.97
847.751	16.5
848.056	14.52
848.36	11.97
848.664	10.9
848.969	7.36
849.273	4.82
849.577	4.41
849.881	3.22
850.185	3.86
850.489	2.97
850.794	2.1
851.097	3.93
851.401	2.95
851.705	1.7
852.009	3.29
852.313	3.04
852.617	2.79
852.92	2.64
853.224	1.58
853.528	2
853.831	3.36
854.135	1.91
854.438	3.38
854.742	5.05
855.045	4.96
855.349	6.06
855.652	6.74
855.955	6.65
856.259	7.16
856.562	5.25
856.865	3.25
857.168	4.01
857.471	4.57
857.774	4.43
858.077	5.07
858.38	6.44
858.683	6.95
858.986	8.59
859.289	7.01
859.592	7.56
859.894	8.2
860.197	9.36
860.5	10.49
860.802	10.06
861.105	9.53
861.407	10.09
861.71	10.77
862.012	12.59
862.315	10.61
862.617	10.07
862.919	10.66
863.222	13.54
863.524	13.57
863.826	12.6
864.128	12.01
864.43	12.05
864.732	10.64
865.034	11.6
865.336	9.44
865.638	7.66
865.94	9.33
866.242	9.08
866.544	8.3
866.846	7.11
867.147	7.03
867.449	9.23
867.751	8.73
868.052	9.74
868.354	9.88
868.655	11.88
868.957	11.45
869.258	10.49
869.56	8.38
869.861	7.82
870.162	9.06
870.463	9.43
870.765	10.91
871.066	10.86
871.367	8.69
871.668	11.4
871.969	13.26
872.27	13.07
872.571	11.73
872.872	11.21
873.173	10.35
873.473	12.47
873.774	9.66
874.075	9.81
874.376	6.99
874.676	7.06
874.977	4.43
875.277	5.68
875.578	8.21
875.878	9.36
876.179	10.64
876.479	9.72
876.78	9.85
877.08	9.45
877.38	9.3
877.68	9.24
877.981	5.99
878.281	6.3
878.581	5.24
