Data from BU26941_Reflection_00005.txt Node
Date: Tue Nov 19 11:03:28 EST 2019
User: vgr7
Spectrometer: USB2G7710
Scans to average: 3
Trigger mode: 4
Integration Time (sec): 2.000000E-2
Electric dark correction enabled: true
Boxcar width: 10
XAxis mode: Wavelengths
Number of Pixels in Spectrum: 2048
>>>>>Begin Spectral Data<<<<<
177.721	32.93
178.105	54.31
178.488	60.23
178.871	95.95
179.254	95.08
179.636	162.7
180.019	127.42
180.402	480
180.785	-347.17
181.168	-14900
181.55	259.9
181.933	543.66
182.316	-91.73
182.698	38.02
183.081	59.46
183.463	-106.59
183.846	-89.08
184.228	681.63
184.611	42.51
184.993	5.97
185.376	-116.76
185.758	44.72
186.14	88.61
186.522	78.94
186.904	106.77
187.287	119.59
187.669	113.04
188.051	108.84
188.433	104.18
188.815	-5.85
189.197	-14.49
189.579	-86.23
189.961	-150.71
190.342	-63.7
190.724	9.92
191.106	-17.25
191.488	65.3
191.869	92.09
192.251	135.01
192.633	151.72
193.014	146.74
193.396	206.23
193.777	172.94
194.159	145.24
194.54	147.57
194.922	279.43
195.303	221.62
195.684	187.03
196.065	85.8
196.447	11.23
196.828	33.99
197.209	-13.27
197.59	18.64
197.971	32.21
198.352	43.12
198.733	11.95
199.114	43.19
199.495	41.04
199.876	-25.15
200.257	-30.36
200.638	-26.83
201.018	-20.95
201.399	-57.55
201.78	-59.9
202.16	-57.95
202.541	-118.78
202.922	-109.65
203.302	-98.4
203.683	-105.53
204.063	-115.58
204.444	-106.02
204.824	-143.31
205.204	-55.33
205.585	-136.55
205.965	-324.01
206.345	-582.88
206.725	-129.78
207.106	-166.31
207.486	-132.17
207.866	-130.51
208.246	-79.76
208.626	-213.95
209.006	-210.47
209.386	-129.12
209.766	-395.92
210.145	-208.72
210.525	-208.96
210.905	-123.66
211.285	-193.73
211.664	-92.54
212.044	-31.36
212.424	-46.78
212.803	-71.09
213.183	-81.32
213.562	-47.76
213.942	0.53
214.321	36.26
214.701	-305.11
215.08	-355.06
215.459	-165.27
215.838	-190.87
216.218	-350.74
216.597	-523.6
216.976	246.62
217.355	16600
217.734	-108.13
218.113	-182.18
218.492	-448.78
218.871	-138.78
219.25	-41.11
219.629	-123.83
220.008	-114.29
220.387	-23.85
220.766	16.05
221.144	-10.15
221.523	22.18
221.902	29.67
222.28	40
222.659	66.85
223.037	45.34
223.416	39.27
223.794	40.59
224.173	46.61
224.551	45.27
224.929	33.54
225.308	38.19
225.686	48.51
226.064	42.08
226.442	41.34
226.821	38.99
227.199	31.5
227.577	33.1
227.955	27.43
228.333	19.86
228.711	11.59
229.089	12.06
229.467	8.52
229.845	8.97
230.222	7.65
230.6	6.44
230.978	9.15
231.356	9.49
231.733	8.69
232.111	6.92
232.488	6.07
232.866	7.53
233.243	5.33
233.621	3.63
233.998	4.21
234.376	3
234.753	2.19
235.13	2.69
235.508	0.35
235.885	-0.32
236.262	1.6
236.639	1.99
237.016	2.74
237.393	3.57
237.77	2.48
238.147	1.85
238.524	1.46
238.901	2.07
239.278	1.64
239.655	2.15
240.032	2.28
240.409	1.96
240.785	1.95
241.162	1.8
241.539	2.02
241.915	1.86
242.292	2.28
242.668	2.97
243.045	3.7
243.421	4.36
243.798	4.29
244.174	4.35
244.551	4.53
244.927	4.1
245.303	3.97
245.679	4.01
246.056	4.27
246.432	4.2
246.808	4.04
247.184	4.05
247.56	3.96
247.936	4.12
248.312	4.41
248.688	4.13
249.064	4.3
249.44	4.15
249.815	4.13
250.191	3.99
250.567	3.83
250.943	3.41
251.318	3.11
251.694	3.09
252.069	2.99
252.445	3.04
252.82	3.47
253.196	3.57
253.571	3.86
253.947	3.9
254.322	3.77
254.697	3.73
255.073	3.91
255.448	3.99
255.823	3.89
256.198	3.78
256.573	3.82
256.948	3.82
257.323	3.8
257.698	4.05
258.073	3.85
258.448	3.78
258.823	3.72
259.198	3.82
259.573	3.73
259.948	3.7
260.322	3.53
260.697	3.39
261.072	3.44
261.446	3.43
261.821	3.24
262.195	3.2
262.57	3.33
262.944	3.38
263.319	3.33
263.693	3.17
264.067	3.07
264.442	3.18
264.816	3.17
265.19	3.31
265.564	3.03
265.938	3.16
266.313	3.19
266.687	3.27
267.061	3.25
267.435	3.4
267.809	3.37
268.183	3.37
268.556	3.23
268.93	3.13
269.304	3
269.678	3.13
270.051	3.16
270.425	3.06
270.799	2.92
271.172	2.88
271.546	3.07
271.919	3.07
272.293	2.95
272.666	2.98
273.04	2.95
273.413	3.01
273.787	3
274.16	2.88
274.533	2.92
274.906	2.87
275.279	2.82
275.653	2.78
276.026	2.95
276.399	3.22
276.772	3.22
277.145	3.2
277.518	3.19
277.891	3.22
278.263	3.21
278.636	3.27
279.009	3.48
279.382	3.2
279.755	3.42
280.127	3.39
280.5	3.38
280.872	3.4
281.245	3.5
281.617	3.56
281.99	3.67
282.362	3.65
282.735	3.55
283.107	3.45
283.479	3.44
283.852	3.44
284.224	3.32
284.596	3.43
284.968	3.33
285.34	3.41
285.713	3.46
286.085	3.41
286.457	3.48
286.829	3.3
287.201	3.41
287.572	3.35
287.944	3.52
288.316	3.52
288.688	3.49
289.06	3.41
289.431	3.37
289.803	3.36
290.175	3.33
290.546	3.39
290.918	3.43
291.289	3.56
291.661	3.6
292.032	3.59
292.403	3.5
292.775	3.68
293.146	3.69
293.517	3.66
293.889	3.67
294.26	3.58
294.631	3.73
295.002	3.74
295.373	3.59
295.744	3.48
296.115	3.29
296.486	3.33
296.857	3.37
297.228	3.28
297.599	3.28
297.97	3.43
298.34	3.43
298.711	3.51
299.082	3.37
299.452	3.39
299.823	3.36
300.194	3.33
300.564	3.17
300.935	3.09
301.305	2.94
301.676	2.89
302.046	2.92
302.416	2.96
302.787	2.97
303.157	3
303.527	3.02
303.897	3.11
304.267	3.04
304.637	2.97
305.008	3.22
305.378	3.26
305.748	3.11
306.117	3.1
306.487	3.09
306.857	3.14
307.227	3.07
307.597	3.04
307.967	3.07
308.336	3.2
308.706	3.14
309.076	3.28
309.445	3.43
309.815	3.36
310.184	3.3
310.554	3.28
310.923	3.21
311.293	3.21
311.662	3.18
312.031	3.18
312.401	3.17
312.77	3.06
313.139	2.96
313.508	2.92
313.877	2.92
314.246	2.92
314.616	2.91
314.985	2.8
315.353	2.87
315.722	2.98
316.091	2.97
316.46	3.05
316.829	3.18
317.198	3.11
317.567	3.25
317.935	3.27
318.304	3.39
318.672	3.4
319.041	3.3
319.41	3.31
319.778	3.26
320.147	3.26
320.515	3.22
320.883	3.34
321.252	3.49
321.62	3.61
321.988	3.58
322.357	3.61
322.725	3.64
323.093	3.55
323.461	3.34
323.829	3.27
324.197	3.19
324.565	3.13
324.933	3.23
325.301	3.09
325.669	2.93
326.037	2.86
326.405	3.02
326.772	3.13
327.14	3.23
327.508	3.23
327.875	3.31
328.243	3.24
328.61	3.14
328.978	3.01
329.346	2.97
329.713	2.93
330.08	3.04
330.448	3.06
330.815	3.02
331.182	3
331.55	3.12
331.917	3.11
332.284	3.13
332.651	2.96
333.018	2.97
333.385	3.02
333.752	2.87
334.119	2.86
334.486	2.87
334.853	2.92
335.22	3.03
335.587	2.93
335.954	3.02
336.32	3.08
336.687	3.22
337.054	3.21
337.42	3.23
337.787	3.06
338.153	3.1
338.52	3.19
338.886	3.28
339.253	3.21
339.619	3.27
339.986	3.28
340.352	3.42
340.718	3.45
341.084	3.5
341.451	3.64
341.817	3.6
342.183	3.53
342.549	3.49
342.915	3.42
343.281	3.47
343.647	3.49
344.013	3.53
344.379	3.43
344.745	3.53
345.11	3.6
345.476	3.7
345.842	3.6
346.208	3.6
346.573	3.62
346.939	3.56
347.304	3.6
347.67	3.6
348.035	3.46
348.401	3.51
348.766	3.36
349.132	3.35
349.497	3.4
349.862	3.35
350.228	3.33
350.593	3.42
350.958	3.55
351.323	3.5
351.688	3.52
352.053	3.66
352.418	3.54
352.783	3.44
353.148	3.45
353.513	3.48
353.878	3.45
354.243	3.35
354.608	3.5
354.972	3.49
355.337	3.4
355.702	3.43
356.066	3.45
356.431	3.54
356.795	3.58
357.16	3.5
357.524	3.55
357.889	3.61
358.253	3.52
358.618	3.44
358.982	3.44
359.346	3.42
359.71	3.35
360.075	3.4
360.439	3.45
360.803	3.4
361.167	3.43
361.531	3.5
361.895	3.53
362.259	3.48
362.623	3.5
362.987	3.54
363.351	3.54
363.714	3.55
364.078	3.56
364.442	3.5
364.806	3.54
365.169	3.52
365.533	3.45
365.896	3.47
366.26	3.42
366.623	3.44
366.987	3.37
367.35	3.35
367.714	3.36
368.077	3.34
368.44	3.34
368.803	3.24
369.167	3.15
369.53	3.18
369.893	3.17
370.256	3.16
370.619	3.17
370.982	3.16
371.345	3.12
371.708	3.07
372.071	3.06
372.434	3.03
372.797	3.1
373.159	3.1
373.522	3.12
373.885	3.17
374.247	3.17
374.61	3.25
374.973	3.26
375.335	3.26
375.698	3.26
376.06	3.22
376.423	3.27
376.785	3.3
377.147	3.3
377.51	3.24
377.872	3.2
378.234	3.13
378.596	3.16
378.958	3.13
379.321	3.16
379.683	3.16
380.045	3.19
380.407	3.14
380.769	3.13
381.13	3.13
381.492	3.1
381.854	3.09
382.216	3.08
382.578	3.08
382.939	3.06
383.301	3.05
383.663	3.1
384.024	3.1
384.386	3.1
384.747	3.06
385.109	3.09
385.47	3.08
385.832	3.12
386.193	3.09
386.554	3.07
386.916	3.05
387.277	3.02
387.638	3
387.999	3.01
388.36	3.01
388.721	3.02
389.082	3.06
389.443	3.11
389.804	3.07
390.165	3.1
390.526	3.09
390.887	3.08
391.248	3.04
391.609	3.07
391.969	3.06
392.33	3.06
392.691	3.07
393.051	3.09
393.412	3.1
393.772	3.18
394.133	3.2
394.493	3.17
394.854	3.23
395.214	3.27
395.574	3.27
395.935	3.29
396.295	3.27
396.655	3.24
397.015	3.19
397.376	3.23
397.736	3.18
398.096	3.17
398.456	3.17
398.816	3.21
399.176	3.17
399.535	3.14
399.895	3.15
400.255	3.16
400.615	3.13
400.975	3.12
401.334	3.05
401.694	3.05
402.054	3.09
402.413	3.06
402.773	3.02
403.132	3.01
403.492	3.01
403.851	3.02
404.211	3.01
404.57	3.03
404.929	3.01
405.288	3.04
405.648	3.07
406.007	3.07
406.366	3.05
406.725	3.08
407.084	3.1
407.443	3.11
407.802	3.06
408.161	3.1
408.52	3.08
408.879	3.09
409.238	3.1
409.596	3.11
409.955	3.11
410.314	3.13
410.673	3.14
411.031	3.13
411.39	3.13
411.748	3.14
412.107	3.14
412.465	3.13
412.824	3.12
413.182	3.1
413.54	3.11
413.899	3.11
414.257	3.1
414.615	3.11
414.974	3.1
415.332	3.13
415.69	3.1
416.048	3.12
416.406	3.11
416.764	3.12
417.122	3.11
417.48	3.11
417.838	3.11
418.195	3.12
418.553	3.11
418.911	3.1
419.269	3.1
419.626	3.08
419.984	3.08
420.342	3.09
420.699	3.08
421.057	3.08
421.414	3.09
421.772	3.09
422.129	3.08
422.486	3.1
422.844	3.1
423.201	3.11
423.558	3.11
423.915	3.12
424.273	3.1
424.63	3.11
424.987	3.12
425.344	3.11
425.701	3.1
426.058	3.1
426.415	3.1
426.772	3.09
427.128	3.1
427.485	3.1
427.842	3.09
428.199	3.09
428.555	3.09
428.912	3.09
429.269	3.08
429.625	3.06
429.982	3.05
430.338	3.03
430.695	3.03
431.051	3.04
431.407	3.03
431.764	3.03
432.12	3.02
432.476	3
432.832	3
433.189	2.99
433.545	2.99
433.901	3
434.257	3
434.613	3.01
434.969	3.02
435.325	3.04
435.681	3.04
436.036	3.04
436.392	3.04
436.748	3.04
437.104	3.06
437.459	3.04
437.815	3.05
438.171	3.06
438.526	3.05
438.882	3.07
439.237	3.07
439.593	3.08
439.948	3.08
440.304	3.06
440.659	3.09
441.014	3.09
441.369	3.1
441.725	3.11
442.08	3.09
442.435	3.1
442.79	3.09
443.145	3.09
443.5	3.09
443.855	3.09
444.21	3.09
444.565	3.1
444.92	3.11
445.275	3.12
445.629	3.12
445.984	3.13
446.339	3.14
446.693	3.14
447.048	3.11
447.403	3.11
447.757	3.12
448.112	3.11
448.466	3.12
448.82	3.1
449.175	3.11
449.529	3.12
449.883	3.11
450.238	3.11
450.592	3.11
450.946	3.12
451.3	3.1
451.654	3.09
452.008	3.1
452.362	3.08
452.716	3.06
453.07	3.04
453.424	3.05
453.778	3.03
454.132	3.02
454.486	3.04
454.839	3.04
455.193	3.05
455.547	3.06
455.9	3.08
456.254	3.09
456.607	3.09
456.961	3.09
457.314	3.08
457.668	3.09
458.021	3.09
458.375	3.09
458.728	3.1
459.081	3.12
459.434	3.12
459.787	3.13
460.141	3.15
460.494	3.16
460.847	3.15
461.2	3.15
461.553	3.17
461.906	3.17
462.259	3.17
462.611	3.15
462.964	3.15
463.317	3.14
463.67	3.15
464.022	3.14
464.375	3.11
464.728	3.11
465.08	3.1
465.433	3.12
465.785	3.12
466.138	3.12
466.49	3.1
466.843	3.1
467.195	3.11
467.547	3.11
467.899	3.1
468.252	3.12
468.604	3.12
468.956	3.12
469.308	3.12
469.66	3.14
470.012	3.15
470.364	3.15
470.716	3.14
471.068	3.13
471.42	3.15
471.772	3.18
472.123	3.2
472.475	3.2
472.827	3.18
473.178	3.19
473.53	3.19
473.882	3.17
474.233	3.18
474.585	3.18
474.936	3.16
475.288	3.15
475.639	3.15
475.99	3.16
476.342	3.16
476.693	3.17
477.044	3.16
477.395	3.16
477.746	3.14
478.097	3.16
478.448	3.15
478.8	3.15
479.15	3.14
479.501	3.13
479.852	3.14
480.203	3.17
480.554	3.18
480.905	3.19
481.255	3.2
481.606	3.21
481.957	3.22
482.307	3.22
482.658	3.23
483.009	3.23
483.359	3.23
483.709	3.22
484.06	3.23
484.41	3.24
484.761	3.24
485.111	3.26
485.461	3.25
485.811	3.25
486.162	3.26
486.512	3.26
486.862	3.27
487.212	3.26
487.562	3.25
487.912	3.25
488.262	3.25
488.612	3.26
488.961	3.24
489.311	3.23
489.661	3.24
490.011	3.24
490.36	3.24
490.71	3.24
491.06	3.24
491.409	3.23
491.759	3.24
492.108	3.23
492.458	3.22
492.807	3.22
493.157	3.23
493.506	3.22
493.855	3.22
494.204	3.22
494.554	3.23
494.903	3.23
495.252	3.24
495.601	3.24
495.95	3.23
496.299	3.24
496.648	3.26
496.997	3.27
497.346	3.27
497.695	3.26
498.043	3.27
498.392	3.28
498.741	3.28
499.09	3.28
499.438	3.3
499.787	3.31
500.135	3.32
500.484	3.34
500.832	3.36
501.181	3.38
501.529	3.41
501.878	3.41
502.226	3.43
502.574	3.44
502.923	3.43
503.271	3.45
503.619	3.45
503.967	3.45
504.315	3.48
504.663	3.49
505.011	3.5
505.359	3.49
505.707	3.51
506.055	3.52
506.403	3.52
506.751	3.5
507.098	3.5
507.446	3.52
507.794	3.5
508.141	3.49
508.489	3.51
508.837	3.5
509.184	3.51
509.531	3.52
509.879	3.52
510.226	3.53
510.574	3.54
510.921	3.55
511.268	3.55
511.616	3.55
511.963	3.55
512.31	3.56
512.657	3.58
513.004	3.56
513.351	3.56
513.698	3.57
514.045	3.59
514.392	3.6
514.739	3.62
515.086	3.63
515.432	3.64
515.779	3.65
516.126	3.67
516.473	3.67
516.819	3.69
517.166	3.7
517.512	3.71
517.859	3.72
518.205	3.71
518.552	3.72
518.898	3.71
519.245	3.71
519.591	3.7
519.937	3.69
520.283	3.72
520.629	3.72
520.976	3.74
521.322	3.75
521.668	3.75
522.014	3.75
522.36	3.75
522.706	3.74
523.052	3.73
523.398	3.71
523.743	3.71
524.089	3.72
524.435	3.71
524.781	3.71
525.126	3.7
525.472	3.73
525.817	3.74
526.163	3.75
526.509	3.76
526.854	3.76
527.199	3.77
527.545	3.77
527.89	3.78
528.235	3.77
528.581	3.78
528.926	3.79
529.271	3.79
529.616	3.79
529.961	3.81
530.306	3.81
530.651	3.81
530.996	3.82
531.341	3.83
531.686	3.84
532.031	3.85
532.376	3.86
532.721	3.86
533.065	3.86
533.41	3.85
533.755	3.85
534.099	3.84
534.444	3.84
534.788	3.84
535.133	3.83
535.477	3.83
535.822	3.82
536.166	3.81
536.51	3.8
536.855	3.81
537.199	3.79
537.543	3.81
537.887	3.82
538.231	3.82
538.576	3.81
538.92	3.82
539.264	3.8
539.608	3.81
539.951	3.8
540.295	3.8
540.639	3.81
540.983	3.82
541.327	3.83
541.671	3.83
542.014	3.85
542.358	3.87
542.701	3.89
543.045	3.88
543.389	3.9
543.732	3.89
544.075	3.89
544.419	3.89
544.762	3.88
545.105	3.9
545.449	3.89
545.792	3.89
546.135	3.88
546.478	3.88
546.821	3.88
547.165	3.9
547.508	3.91
547.851	3.91
548.194	3.91
548.536	3.9
548.879	3.9
549.222	3.89
549.565	3.87
549.908	3.83
550.25	3.83
550.593	3.81
550.936	3.82
551.278	3.84
551.621	3.83
551.963	3.84
552.306	3.81
552.648	3.85
552.991	3.87
553.333	3.88
553.675	3.91
554.017	3.91
554.36	3.94
554.702	3.92
555.044	3.96
555.386	3.96
555.728	3.98
556.07	3.98
556.412	3.97
556.754	3.97
557.096	3.98
557.438	3.98
557.78	3.97
558.121	3.99
558.463	3.99
558.805	4.01
559.147	3.98
559.488	3.97
559.83	3.97
560.171	3.94
560.513	3.95
560.854	3.91
561.196	3.91
561.537	3.89
561.878	3.91
562.22	3.9
562.561	3.89
562.902	3.9
563.243	3.89
563.584	3.91
563.925	3.92
564.266	3.94
564.607	3.95
564.948	3.97
565.289	4
565.63	3.97
565.971	3.99
566.312	3.98
566.653	4.02
566.993	4.01
567.334	4.02
567.675	4.02
568.015	4.04
568.356	4.01
568.696	4.02
569.037	4.03
569.377	4.03
569.718	4.03
570.058	4.04
570.398	4.04
570.739	4.01
571.079	4.01
571.419	4.01
571.759	3.98
572.099	3.97
572.439	3.95
572.779	3.98
573.119	3.95
573.459	3.96
573.799	3.94
574.139	3.94
574.479	3.95
574.819	3.95
575.158	3.96
575.498	3.98
575.838	3.94
576.177	3.93
576.517	3.9
576.856	3.9
577.196	3.88
577.535	3.89
577.875	3.89
578.214	3.9
578.553	3.87
578.893	3.88
579.232	3.9
579.571	3.86
579.91	3.84
580.25	3.87
580.589	3.87
580.928	3.86
581.267	3.85
581.606	3.85
581.945	3.86
582.283	3.87
582.622	3.84
582.961	3.86
583.3	3.84
583.639	3.87
583.977	3.85
584.316	3.86
584.654	3.86
584.993	3.84
585.332	3.86
585.67	3.9
586.008	3.91
586.347	3.9
586.685	3.92
587.024	3.92
587.362	3.89
587.7	3.94
588.038	3.96
588.376	3.96
588.715	3.93
589.053	3.92
589.391	3.89
589.729	3.88
590.067	3.9
590.404	3.91
590.742	3.88
591.08	3.89
591.418	3.92
591.756	3.93
592.093	3.93
592.431	3.93
592.769	3.94
593.106	3.95
593.444	4
593.781	3.99
594.119	4.03
594.456	4.05
594.793	3.99
595.131	3.98
595.468	3.99
595.805	4.02
596.143	4
596.48	4.01
596.817	4.01
597.154	4
597.491	3.97
597.828	3.97
598.165	3.97
598.502	3.93
598.839	3.94
599.176	3.95
599.512	3.95
599.849	3.93
600.186	3.92
600.523	3.91
600.859	3.95
601.196	3.92
601.532	3.9
601.869	3.94
602.205	3.92
602.542	3.91
602.878	3.9
603.215	3.93
603.551	3.95
603.887	3.95
604.223	3.95
604.56	3.99
604.896	4.01
605.232	4
605.568	4.04
605.904	4.04
606.24	4.05
606.576	4.06
606.912	4.07
607.248	4.13
607.583	4.14
607.919	4.11
608.255	4.11
608.591	4.12
608.926	4.09
609.262	4.08
609.597	4.07
609.933	4.09
610.268	4.07
610.604	4.05
610.939	4.08
611.275	4.09
611.61	4.07
611.945	4.05
612.281	4.09
612.616	4.11
612.951	4.13
613.286	4.15
613.621	4.14
613.956	4.16
614.291	4.07
614.626	4.04
614.961	4.07
615.296	4.09
615.631	4.08
615.966	4.11
616.3	4.14
616.635	4.15
616.97	4.13
617.304	4.11
617.639	4.15
617.973	4.12
618.308	4.11
618.642	4.12
618.977	4.1
619.311	4.09
619.646	4.04
619.98	4.02
620.314	3.98
620.648	3.98
620.983	3.96
621.317	3.99
621.651	4.01
621.985	3.98
622.319	3.97
622.653	3.96
622.987	3.95
623.321	3.99
623.655	4.01
623.988	4.05
624.322	4.08
624.656	4.06
624.99	4.07
625.323	4.05
625.657	4.08
625.99	4.1
626.324	4.08
626.657	4.1
626.991	4.1
627.324	4.1
627.658	4.09
627.991	4.11
628.324	4.13
628.657	4.14
628.991	4.15
629.324	4.16
629.657	4.18
629.99	4.2
630.323	4.15
630.656	4.12
630.989	4.08
631.322	4.08
631.655	4.07
631.987	4.09
632.32	4.13
632.653	4.06
632.986	4.07
633.318	4.1
633.651	4.11
633.984	4.08
634.316	4.12
634.649	4.1
634.981	4.07
635.313	4.08
635.646	4.1
635.978	4.19
636.31	4.2
636.643	4.2
636.975	4.16
637.307	4.18
637.639	4.22
637.971	4.21
638.303	4.26
638.635	4.27
638.967	4.24
639.299	4.26
639.631	4.33
639.963	4.36
640.295	4.34
640.626	4.27
640.958	4.31
641.29	4.35
641.621	4.39
641.953	4.38
642.285	4.33
642.616	4.3
642.948	4.24
643.279	4.21
643.61	4.23
643.942	4.27
644.273	4.29
644.604	4.22
644.936	4.26
645.267	4.21
645.598	4.2
645.929	4.22
646.26	4.17
646.591	4.2
646.922	4.15
647.253	4.1
647.584	4.16
647.915	4.13
648.245	4.07
648.576	4.05
648.907	4.05
649.238	4.03
649.568	4.01
649.899	3.97
650.229	4.03
650.56	4.08
650.89	4.09
651.221	4.05
651.551	4.12
651.882	4.08
652.212	4.03
652.542	4.08
652.872	4.07
653.203	4.15
653.533	4.11
653.863	4.18
654.193	4.2
654.523	4.18
654.853	4.23
655.183	4.22
655.513	4.27
655.843	4.31
656.172	4.39
656.502	4.39
656.832	4.31
657.162	4.3
657.491	4.29
657.821	4.27
658.15	4.28
658.48	4.3
658.809	4.32
659.139	4.35
659.468	4.36
659.798	4.38
660.127	4.3
660.456	4.28
660.785	4.21
661.115	4.24
661.444	4.29
661.773	4.27
662.102	4.27
662.431	4.22
662.76	4.24
663.089	4.19
663.418	4.27
663.747	4.33
664.076	4.38
664.404	4.33
664.733	4.32
665.062	4.3
665.39	4.26
665.719	4.31
666.048	4.34
666.376	4.29
666.705	4.31
667.033	4.34
667.362	4.35
667.69	4.41
668.018	4.45
668.347	4.36
668.675	4.34
669.003	4.4
669.331	4.37
669.659	4.37
669.987	4.4
670.315	4.33
670.643	4.32
670.971	4.27
671.299	4.34
671.627	4.32
671.955	4.37
672.283	4.42
672.61	4.41
672.938	4.42
673.266	4.47
673.593	4.38
673.921	4.27
674.249	4.29
674.576	4.29
674.904	4.25
675.231	4.27
675.558	4.37
675.886	4.43
676.213	4.51
676.54	4.53
676.867	4.48
677.195	4.51
677.522	4.59
677.849	4.59
678.176	4.49
678.503	4.49
678.83	4.5
679.157	4.48
679.484	4.42
679.81	4.37
680.137	4.36
680.464	4.39
680.791	4.5
681.117	4.5
681.444	4.5
681.771	4.53
682.097	4.61
682.424	4.55
682.75	4.47
683.077	4.44
683.403	4.46
683.729	4.48
684.056	4.35
684.382	4.33
684.708	4.33
685.034	4.34
685.36	4.37
685.686	4.36
686.012	4.41
686.339	4.45
686.664	4.49
686.99	4.34
687.316	4.4
687.642	4.43
687.968	4.53
688.294	4.47
688.619	4.44
688.945	4.36
689.271	4.39
689.596	4.35
689.922	4.37
690.247	4.32
690.573	4.39
690.898	4.49
691.224	4.5
691.549	4.46
691.874	4.52
692.2	4.54
692.525	4.58
692.85	4.55
693.175	4.67
693.5	4.66
693.825	4.82
694.15	4.75
694.475	4.71
694.8	4.61
695.125	4.68
695.45	4.65
695.775	4.58
696.099	4.65
696.424	4.73
696.749	4.74
697.073	4.71
697.398	4.65
697.723	4.65
698.047	4.66
698.372	4.64
698.696	4.56
699.02	4.53
699.345	4.52
699.669	4.45
699.993	4.32
700.318	4.35
700.642	4.3
700.966	4.32
701.29	4.36
701.614	4.38
701.938	4.3
702.262	4.3
702.586	4.36
702.91	4.31
703.234	4.15
703.557	4.1
703.881	4.09
704.205	4.02
704.529	3.94
704.852	3.82
705.176	3.95
705.499	4.04
705.823	4.08
706.146	4.06
706.47	4.17
706.793	4.27
707.117	4.27
707.44	4.22
707.763	4.27
708.086	4.19
708.409	4.25
708.733	4.28
709.056	4.3
709.379	4.37
709.702	4.44
710.025	4.53
710.348	4.46
710.671	4.44
710.993	4.53
711.316	4.64
711.639	4.74
711.962	4.69
712.284	4.65
712.607	4.65
712.93	4.5
713.252	4.45
713.575	4.45
713.897	4.35
714.22	4.37
714.542	4.43
714.864	4.53
715.187	4.44
715.509	4.43
715.831	4.48
716.153	4.42
716.475	4.37
716.798	4.39
717.12	4.42
717.442	4.48
717.764	4.49
718.085	4.53
718.407	4.47
718.729	4.44
719.051	4.58
719.373	4.68
719.695	4.83
720.016	4.73
720.338	4.69
720.659	4.82
720.981	4.86
721.302	4.94
721.624	4.77
721.945	4.73
722.267	4.82
722.588	4.71
722.909	4.73
723.231	4.58
723.552	4.58
723.873	4.52
724.194	4.52
724.515	4.45
724.836	4.45
725.157	4.74
725.478	4.79
725.799	4.61
726.12	4.59
726.441	4.63
726.762	4.86
727.083	4.96
727.403	4.9
727.724	5.01
728.045	4.91
728.365	5.05
728.686	5.12
729.006	5.19
729.327	5.31
729.647	5.32
729.967	5.45
730.288	5.47
730.608	5.59
730.928	5.64
731.249	5.68
731.569	5.64
731.889	5.44
732.209	5.49
732.529	5.59
732.849	5.6
733.169	5.46
733.489	5.45
733.809	5.35
734.129	5.32
734.448	5.32
734.768	5.3
735.088	5.17
735.408	5.06
735.727	5.05
736.047	4.98
736.366	4.95
736.686	4.92
737.005	4.9
737.325	4.91
737.644	4.88
737.963	4.9
738.283	4.9
738.602	5.02
738.921	5.07
739.24	4.96
739.56	4.86
739.879	4.9
740.198	4.65
740.517	4.63
740.836	4.68
741.155	4.49
741.473	4.58
741.792	4.58
742.111	4.76
742.43	4.74
742.748	4.93
743.067	4.74
743.386	4.64
743.704	4.58
744.023	4.59
744.341	4.79
744.66	4.73
744.978	4.8
745.297	4.68
745.615	4.4
745.933	4.22
746.252	4.32
746.57	4.41
746.888	4.73
747.206	4.85
747.524	4.89
747.842	4.83
748.16	4.74
748.478	5
748.796	5.05
749.114	5.12
749.432	4.87
749.749	5.14
750.067	5.25
750.385	5.31
750.703	5.45
751.02	5.31
751.338	5.21
751.655	5.07
751.973	5.11
752.29	5.15
752.608	5.21
752.925	5.2
753.242	5.28
753.56	4.9
753.877	4.89
754.194	5.05
754.511	5.08
754.828	5.06
755.145	4.95
755.462	4.75
755.779	4.66
756.096	4.82
756.413	4.83
756.73	5.25
757.047	5.39
757.364	5.2
757.68	5.17
757.997	5.33
758.314	5.54
758.63	5.41
758.947	5.42
759.264	5.78
759.58	5.5
759.896	5.49
760.213	5.62
760.529	5.7
760.846	5.65
761.162	5.86
761.478	5.96
761.794	5.97
762.11	6.04
762.426	5.91
762.743	5.88
763.059	5.91
763.375	5.68
763.69	5.65
764.006	5.76
764.322	5.73
764.638	5.75
764.954	5.91
765.27	6.07
765.585	6.27
765.901	6.18
766.216	6.38
766.532	6.5
766.848	6.66
767.163	6.64
767.478	6.46
767.794	6.36
768.109	6.45
768.424	6.53
768.74	6.61
769.055	6.79
769.37	6.96
769.685	6.91
770	6.76
770.315	6.82
770.63	6.56
770.945	6.79
771.26	6.61
771.575	6.18
771.89	5.95
772.205	5.74
772.52	5.67
772.834	5.83
773.149	5.89
773.464	5.86
773.778	5.72
774.093	5.87
774.407	6.1
774.722	5.96
775.036	5.98
775.351	6.37
775.665	6.21
775.979	6.03
776.293	6.08
776.608	6.12
776.922	5.83
777.236	5.89
777.55	5.68
777.864	6
778.178	6.14
778.492	6.24
778.806	6.23
779.12	6.38
779.434	6.62
779.747	6.44
780.061	6.45
780.375	6.43
780.689	6.51
781.002	6.05
781.316	5.73
781.629	5.64
781.943	5.13
782.256	5.32
782.57	5.25
782.883	5.18
783.196	5.36
783.51	5.65
783.823	5.5
784.136	5.33
784.449	5.1
784.762	5.35
785.075	5.57
785.388	5.75
785.701	5.45
786.014	5.1
786.327	5.11
786.64	5.21
786.953	5.47
787.266	5.37
787.578	6.13
787.891	6.2
788.204	5.97
788.516	6.04
788.829	5.85
789.141	6.62
789.454	6.53
789.766	6.44
790.079	6.38
790.391	6.54
790.703	6.49
791.016	6.57
791.328	6.29
791.64	6.17
791.952	6.19
792.264	6.26
792.576	6.41
792.888	6.43
793.2	6.25
793.512	6.42
793.824	6.59
794.136	6.3
794.448	6.55
794.76	6.5
795.071	6.49
795.383	6.58
795.695	5.45
796.006	6.23
796.318	6.12
796.629	6.38
796.941	6.5
797.252	6.46
797.564	6.8
797.875	6.47
798.186	6.51
798.497	6.34
798.809	6.71
799.12	6.27
799.431	6.43
799.742	6.73
800.053	6.21
800.364	6.31
800.675	6.37
800.986	6.15
801.297	6.48
801.608	6.55
801.918	6.5
802.229	7.62
802.54	6.84
802.851	6.97
803.161	6.54
803.472	6.25
803.782	6.71
804.093	6.46
804.403	7.36
804.714	7.51
805.024	7.86
805.334	7.66
805.645	7.83
805.955	7.49
806.265	6.98
806.575	7.11
806.885	7.16
807.195	7.74
807.505	8.04
807.815	7.92
808.125	7.24
808.435	7.61
808.745	6.99
809.055	7.75
809.365	8.01
809.674	7.99
809.984	8.58
810.294	8.55
810.603	8.09
810.913	7.79
811.222	7.35
811.532	6.98
811.841	7.22
812.151	7.64
812.46	7.78
812.769	8.51
813.079	8.9
813.388	8.58
813.697	7.43
814.006	7.36
814.315	7.41
814.624	8.23
814.933	7.7
815.242	7.29
815.551	6.96
815.86	7.87
816.169	7.77
816.478	7.73
816.786	7.75
817.095	7.92
817.404	8.17
817.712	8.63
818.021	8.55
818.33	8.45
818.638	8.27
818.947	8.64
819.255	8.11
819.563	7.99
819.872	7.79
820.18	8.27
820.488	8.2
820.796	8.15
821.105	8.13
821.413	8.05
821.721	8.3
822.029	8.28
822.337	8.01
822.645	8.14
822.953	8.22
823.26	8.22
823.568	8.27
823.876	8.16
824.184	8.18
824.491	8.21
824.799	8.16
825.107	8.14
825.414	7.91
825.722	7.84
826.029	7.85
826.337	7.93
826.644	7.74
826.951	7.71
827.259	7.76
827.566	7.6
827.873	7.67
828.18	7.35
828.488	7.24
828.795	7.29
829.102	7
829.409	6.78
829.716	6.74
830.023	6.86
830.329	6.95
830.636	6.54
830.943	6.39
831.25	6.24
831.557	6.42
831.863	6.98
832.17	7.47
832.476	7.41
832.783	7.54
833.089	7.72
833.396	7.83
833.702	7.72
834.009	8.13
834.315	8.02
834.621	8.25
834.928	8.2
835.234	8.14
835.54	8.39
835.846	8.61
836.152	8.68
836.458	7.84
836.764	7.54
837.07	7.98
837.376	8.19
837.682	8.37
837.988	8.51
838.293	8.24
838.599	7.82
838.905	8.2
839.211	7.55
839.516	7.39
839.822	7.65
840.127	7.15
840.433	6.65
840.738	6.97
841.044	6.87
841.349	6.64
841.654	6.48
841.959	6.74
842.265	6.37
842.57	6
842.875	6.77
843.18	7.06
843.485	6.96
843.79	7.11
844.095	6.54
844.4	5.93
844.705	6.39
845.01	5.69
845.315	4.9
845.619	6.89
845.924	7.04
846.229	6.49
846.533	6.68
846.838	7.34
847.142	7.69
847.447	8.74
847.751	8.62
848.056	7.07
848.36	7.15
848.664	8.12
848.969	6.45
849.273	6.79
849.577	7.26
849.881	6.61
850.185	6.63
850.489	7.7
850.794	6.29
851.097	4.95
851.401	6.14
851.705	7.34
852.009	6.79
852.313	5.83
852.617	7.42
852.92	10.13
853.224	10.95
853.528	10.11
853.831	10.35
854.135	10.65
854.438	12.68
854.742	12.82
855.045	10.57
855.349	11.59
855.652	12.14
855.955	12.26
856.259	12.67
856.562	10.79
856.865	10.55
857.168	12.25
857.471	11.47
857.774	10.48
858.077	9.28
858.38	9.5
858.683	10.04
858.986	9.11
859.289	7.67
859.592	9.27
859.894	9.95
860.197	7.23
860.5	8.77
860.802	8.05
861.105	8.64
861.407	10.3
861.71	10.65
862.012	10.14
862.315	8.99
862.617	8.9
862.919	10.96
863.222	10.38
863.524	9.37
863.826	10.57
864.128	13.93
864.43	14.78
864.732	12.61
865.034	12.49
865.336	13.66
865.638	13.61
865.94	11.19
866.242	11.66
866.544	14.85
866.846	14.25
867.147	15.65
867.449	15.02
867.751	15.66
868.052	15.41
868.354	14.54
868.655	14.69
868.957	15.26
869.258	14.27
869.56	16.69
869.861	18.37
870.162	20.15
870.463	18.48
870.765	19.61
871.066	19.64
871.367	20.32
871.668	16.59
871.969	16.56
872.27	16.18
872.571	14.24
872.872	11.8
873.173	11.74
873.473	8.04
873.774	8.27
874.075	7.84
874.376	8.59
874.676	11.47
874.977	11.98
875.277	10.42
875.578	12.97
875.878	11.61
876.179	10.15
876.479	7.98
876.78	7.64
877.08	5.17
877.38	6.41
877.68	5.62
877.981	8.03
878.281	8.18
878.581	8.67
