Data from BU26945_Reflection_00002.txt Node
Date: Tue Nov 19 10:49:19 EST 2019
User: vgr7
Spectrometer: USB2G7710
Scans to average: 3
Trigger mode: 4
Integration Time (sec): 2.000000E-2
Electric dark correction enabled: true
Boxcar width: 10
XAxis mode: Wavelengths
Number of Pixels in Spectrum: 2048
>>>>>Begin Spectral Data<<<<<
177.721	154.32
178.105	142.76
178.488	188.34
178.871	78.13
179.254	44
179.636	242.86
180.019	197.9
180.402	-270
180.785	37.97
181.168	23.95
181.55	32.2
181.933	44.86
182.316	8.74
182.698	5.64
183.081	28.05
183.463	35.09
183.846	36.76
184.228	55.97
184.611	46.5
184.993	55.06
185.376	56.01
185.758	63.49
186.14	54.77
186.522	49.84
186.904	50.72
187.287	40.22
187.669	46.5
188.051	42.52
188.433	31.78
188.815	28.93
189.197	32.82
189.579	26.54
189.961	12.63
190.342	12.12
190.724	0.87
191.106	-2.04
191.488	7.6
191.869	19.15
192.251	7.52
192.633	12.01
193.014	-16.56
193.396	-40.1
193.777	-36.88
194.159	-43.29
194.54	-50.35
194.922	-77.66
195.303	-103.31
195.684	-80.94
196.065	-76.98
196.447	-78.48
196.828	-44.31
197.209	-54
197.59	-36.26
197.971	-14.83
198.352	-15.21
198.733	-11.69
199.114	-12.06
199.495	-27.14
199.876	-38.26
200.257	-36.01
200.638	-29.59
201.018	-21.26
201.399	-9.86
201.78	-16.51
202.16	-9.94
202.541	-11.79
202.922	-20.26
203.302	-22.03
203.683	-22.25
204.063	-18.24
204.444	-13.4
204.824	-20.2
205.204	-11.36
205.585	-6.61
205.965	-4.23
206.345	10.78
206.725	10.9
207.106	18.67
207.486	24.34
207.866	31.28
208.246	41.37
208.626	27.88
209.006	22.35
209.386	7.03
209.766	10.77
210.145	26.03
210.525	8.45
210.905	24.2
211.285	32.15
211.664	32.57
212.044	27.68
212.424	32.82
212.803	9.09
213.183	1.24
213.562	14.22
213.942	-7.27
214.321	-15.74
214.701	-22.18
215.08	-17.68
215.459	-21.48
215.838	-38.25
216.218	-33.82
216.597	-27.43
216.976	-20.4
217.355	-6.74
217.734	-28.44
218.113	-40.4
218.492	-56
218.871	-82.29
219.25	-90.32
219.629	-115.62
220.008	-87.55
220.387	-90.94
220.766	-53.05
221.144	-61.71
221.523	-86.45
221.902	-39.21
222.28	-23.44
222.659	8.14
223.037	-2.72
223.416	-15.54
223.794	-1.04
224.173	-7.71
224.551	-7.03
224.929	-14.15
225.308	-18.25
225.686	-15.28
226.064	-17.51
226.442	-4.41
226.821	-4.93
227.199	-1.83
227.577	-3.24
227.955	-0.45
228.333	-1.55
228.711	-2.53
229.089	-1.22
229.467	0.01
229.845	-2.27
230.222	-1.17
230.6	-6.06
230.978	-6.01
231.356	-2.58
231.733	-5.08
232.111	-3.98
232.488	-0.65
232.866	1.19
233.243	2.43
233.621	2.57
233.998	4.73
234.376	3.41
234.753	4.65
235.13	3.55
235.508	4.46
235.885	2.79
236.262	4.22
236.639	3.97
237.016	4.86
237.393	6.67
237.77	6.68
238.147	5.33
238.524	6.37
238.901	6.25
239.278	6.12
239.655	7.33
240.032	7.03
240.409	6.48
240.785	6.03
241.162	6.14
241.539	6.13
241.915	5.77
242.292	5
242.668	5.22
243.045	5.9
243.421	6
243.798	5.78
244.174	5.54
244.551	5.61
244.927	5.58
245.303	5.23
245.679	4.99
246.056	5.28
246.432	5.32
246.808	5.42
247.184	5.45
247.56	5.2
247.936	5.25
248.312	5.31
248.688	5.44
249.064	5.25
249.44	5.29
249.815	5.33
250.191	6.03
250.567	5.77
250.943	5.61
251.318	5.35
251.694	5.47
252.069	5.49
252.445	5.62
252.82	5.56
253.196	5.54
253.571	5.37
253.947	5.45
254.322	5.32
254.697	5.08
255.073	4.75
255.448	4.75
255.823	4.82
256.198	4.1
256.573	4.04
256.948	3.98
257.323	3.98
257.698	3.89
258.073	3.42
258.448	3.62
258.823	3.49
259.198	3.65
259.573	3.67
259.948	3.62
260.322	3.53
260.697	3.52
261.072	3.58
261.446	3.81
261.821	3.64
262.195	3.61
262.57	3.62
262.944	3.68
263.319	3.44
263.693	3.48
264.067	3.59
264.442	3.58
264.816	3.62
265.19	3.55
265.564	3.44
265.938	3.49
266.313	3.4
266.687	3.57
267.061	3.45
267.435	3.46
267.809	3.52
268.183	3.46
268.556	3.49
268.93	3.44
269.304	3.29
269.678	3.35
270.051	3.23
270.425	3.31
270.799	3.19
271.172	3.52
271.546	3.61
271.919	3.7
272.293	3.54
272.666	3.66
273.04	3.76
273.413	3.71
273.787	3.62
274.16	3.54
274.533	3.44
274.906	3.51
275.279	3.48
275.653	3.58
276.026	3.44
276.399	3.54
276.772	3.47
277.145	3.55
277.518	3.59
277.891	3.79
278.263	3.85
278.636	4.09
279.009	4.02
279.382	3.76
279.755	3.84
280.127	4.01
280.5	3.79
280.872	3.79
281.245	3.84
281.617	3.93
281.99	3.96
282.362	4.1
282.735	4.01
283.107	3.99
283.479	3.91
283.852	4.02
284.224	3.84
284.596	3.91
284.968	3.86
285.34	3.87
285.713	3.92
286.085	3.71
286.457	3.69
286.829	3.57
287.201	3.52
287.572	3.53
287.944	3.58
288.316	3.79
288.688	3.7
289.06	3.84
289.431	3.79
289.803	3.83
290.175	3.71
290.546	3.74
290.918	3.75
291.289	3.74
291.661	3.87
292.032	3.77
292.403	3.75
292.775	3.8
293.146	3.86
293.517	3.71
293.889	3.84
294.26	3.74
294.631	3.78
295.002	3.72
295.373	3.73
295.744	3.67
296.115	3.58
296.486	3.68
296.857	3.63
297.228	3.64
297.599	3.59
297.97	3.71
298.34	3.78
298.711	3.91
299.082	3.82
299.452	3.65
299.823	3.76
300.194	3.77
300.564	3.69
300.935	3.59
301.305	3.59
301.676	3.5
302.046	3.57
302.416	3.55
302.787	3.56
303.157	3.46
303.527	3.59
303.897	3.53
304.267	3.47
304.637	3.38
305.008	3.45
305.378	3.51
305.748	3.38
306.117	3.32
306.487	3.22
306.857	3.22
307.227	3.39
307.597	3.34
307.967	3.22
308.336	3.25
308.706	3.22
309.076	3.23
309.445	3.29
309.815	3.23
310.184	3.23
310.554	3.18
310.923	3.09
311.293	2.89
311.662	2.88
312.031	2.79
312.401	2.83
312.77	2.91
313.139	2.85
313.508	2.75
313.877	2.8
314.246	2.6
314.616	2.79
314.985	2.64
315.353	2.76
315.722	2.99
316.091	2.92
316.46	3.05
316.829	3.1
317.198	3.07
317.567	3.19
317.935	3.28
318.304	3.61
318.672	3.89
319.041	4.01
319.41	4.01
319.778	3.98
320.147	3.96
320.515	3.85
320.883	3.68
321.252	3.77
321.62	3.79
321.988	3.83
322.357	3.76
322.725	3.73
323.093	3.62
323.461	3.49
323.829	3.44
324.197	3.41
324.565	3.5
324.933	3.61
325.301	3.42
325.669	3.23
326.037	3.07
326.405	2.96
326.772	2.96
327.14	2.93
327.508	2.93
327.875	2.88
328.243	2.81
328.61	3.13
328.978	3.26
329.346	3.14
329.713	3.29
330.08	3.26
330.448	3.35
330.815	3.39
331.182	3.46
331.55	3.45
331.917	3.25
332.284	3.13
332.651	3.09
333.018	3.21
333.385	3.38
333.752	3.4
334.119	3.51
334.486	3.53
334.853	3.62
335.22	3.56
335.587	3.56
335.954	3.58
336.32	3.39
336.687	3.42
337.054	3.41
337.42	3.27
337.787	3.22
338.153	3.28
338.52	3.43
338.886	3.35
339.253	3.41
339.619	3.46
339.986	3.43
340.352	3.44
340.718	3.42
341.084	3.47
341.451	3.51
341.817	3.39
342.183	3.29
342.549	3.21
342.915	3.27
343.281	3.3
343.647	3.27
344.013	3.33
344.379	3.17
344.745	3.25
345.11	3.26
345.476	3.37
345.842	3.35
346.208	3.28
346.573	3.33
346.939	3.37
347.304	3.39
347.67	3.39
348.035	3.38
348.401	3.49
348.766	3.41
349.132	3.45
349.497	3.44
349.862	3.52
350.228	3.64
350.593	3.67
350.958	3.67
351.323	3.72
351.688	3.79
352.053	3.9
352.418	3.86
352.783	3.82
353.148	3.72
353.513	3.77
353.878	3.63
354.243	3.47
354.608	3.42
354.972	3.38
355.337	3.43
355.702	3.42
356.066	3.35
356.431	3.36
356.795	3.36
357.16	3.26
357.524	3.21
357.889	3.18
358.253	3.17
358.618	3.19
358.982	3.21
359.346	3.14
359.71	3.03
360.075	3.12
360.439	3.21
360.803	3.27
361.167	3.15
361.531	3.25
361.895	3.32
362.259	3.39
362.623	3.44
362.987	3.47
363.351	3.46
363.714	3.42
364.078	3.39
364.442	3.31
364.806	3.4
365.169	3.42
365.533	3.4
365.896	3.47
366.26	3.38
366.623	3.3
366.987	3.33
367.35	3.36
367.714	3.24
368.077	3.2
368.44	3.16
368.803	3.23
369.167	3.13
369.53	3.16
369.893	3.09
370.256	3.06
370.619	3
370.982	2.98
371.345	2.99
371.708	3.05
372.071	3.04
372.434	3
372.797	3.02
373.159	3
373.522	2.93
373.885	2.99
374.247	3.01
374.61	2.98
374.973	3
375.335	3.04
375.698	3.03
376.06	2.96
376.423	2.99
376.785	3.08
377.147	3.05
377.51	3.07
377.872	3.13
378.234	3.18
378.596	3.19
378.958	3.21
379.321	3.2
379.683	3.27
380.045	3.27
380.407	3.28
380.769	3.27
381.13	3.26
381.492	3.24
381.854	3.29
382.216	3.33
382.578	3.36
382.939	3.35
383.301	3.35
383.663	3.41
384.024	3.33
384.386	3.32
384.747	3.3
385.109	3.29
385.47	3.29
385.832	3.24
386.193	3.23
386.554	3.21
386.916	3.17
387.277	3.13
387.638	3.14
387.999	3.15
388.36	3.18
388.721	3.2
389.082	3.23
389.443	3.21
389.804	3.2
390.165	3.18
390.526	3.15
390.887	3.19
391.248	3.14
391.609	3.16
391.969	3.13
392.33	3.15
392.691	3.16
393.051	3.13
393.412	3.16
393.772	3.22
394.133	3.21
394.493	3.2
394.854	3.22
395.214	3.25
395.574	3.24
395.935	3.22
396.295	3.24
396.655	3.24
397.015	3.25
397.376	3.3
397.736	3.33
398.096	3.38
398.456	3.37
398.816	3.4
399.176	3.38
399.535	3.4
399.895	3.39
400.255	3.39
400.615	3.4
400.975	3.45
401.334	3.4
401.694	3.4
402.054	3.43
402.413	3.43
402.773	3.4
403.132	3.4
403.492	3.42
403.851	3.39
404.211	3.37
404.57	3.38
404.929	3.36
405.288	3.34
405.648	3.33
406.007	3.33
406.366	3.33
406.725	3.36
407.084	3.36
407.443	3.37
407.802	3.37
408.161	3.39
408.52	3.4
408.879	3.42
409.238	3.42
409.596	3.4
409.955	3.39
410.314	3.4
410.673	3.39
411.031	3.39
411.39	3.42
411.748	3.42
412.107	3.4
412.465	3.35
412.824	3.38
413.182	3.36
413.54	3.36
413.899	3.34
414.257	3.36
414.615	3.35
414.974	3.36
415.332	3.36
415.69	3.3
416.048	3.27
416.406	3.24
416.764	3.26
417.122	3.26
417.48	3.28
417.838	3.3
418.195	3.28
418.553	3.24
418.911	3.23
419.269	3.24
419.626	3.24
419.984	3.26
420.342	3.26
420.699	3.28
421.057	3.28
421.414	3.31
421.772	3.3
422.129	3.28
422.486	3.27
422.844	3.27
423.201	3.29
423.558	3.3
423.915	3.31
424.273	3.31
424.63	3.32
424.987	3.31
425.344	3.3
425.701	3.33
426.058	3.36
426.415	3.36
426.772	3.36
427.128	3.37
427.485	3.34
427.842	3.33
428.199	3.31
428.555	3.33
428.912	3.32
429.269	3.32
429.625	3.32
429.982	3.34
430.338	3.35
430.695	3.34
431.051	3.31
431.407	3.33
431.764	3.34
432.12	3.37
432.476	3.37
432.832	3.38
433.189	3.39
433.545	3.36
433.901	3.36
434.257	3.35
434.613	3.35
434.969	3.36
435.325	3.38
435.681	3.38
436.036	3.34
436.392	3.34
436.748	3.35
437.104	3.37
437.459	3.34
437.815	3.33
438.171	3.34
438.526	3.38
438.882	3.36
439.237	3.34
439.593	3.32
439.948	3.32
440.304	3.31
440.659	3.3
441.014	3.33
441.369	3.32
441.725	3.33
442.08	3.35
442.435	3.36
442.79	3.35
443.145	3.35
443.5	3.36
443.855	3.35
444.21	3.35
444.565	3.36
444.92	3.39
445.275	3.39
445.629	3.38
445.984	3.36
446.339	3.36
446.693	3.4
447.048	3.38
447.403	3.39
447.757	3.4
448.112	3.4
448.466	3.4
448.82	3.42
449.175	3.41
449.529	3.39
449.883	3.39
450.238	3.4
450.592	3.41
450.946	3.42
451.3	3.42
451.654	3.41
452.008	3.41
452.362	3.39
452.716	3.4
453.07	3.42
453.424	3.41
453.778	3.42
454.132	3.38
454.486	3.39
454.839	3.4
455.193	3.42
455.547	3.42
455.9	3.4
456.254	3.4
456.607	3.42
456.961	3.42
457.314	3.45
457.668	3.45
458.021	3.46
458.375	3.45
458.728	3.45
459.081	3.47
459.434	3.46
459.787	3.48
460.141	3.47
460.494	3.47
460.847	3.47
461.2	3.47
461.553	3.49
461.906	3.51
462.259	3.48
462.611	3.46
462.964	3.47
463.317	3.48
463.67	3.48
464.022	3.48
464.375	3.47
464.728	3.46
465.08	3.44
465.433	3.44
465.785	3.47
466.138	3.48
466.49	3.48
466.843	3.48
467.195	3.48
467.547	3.48
467.899	3.49
468.252	3.5
468.604	3.52
468.956	3.51
469.308	3.47
469.66	3.52
470.012	3.54
470.364	3.55
470.716	3.55
471.068	3.57
471.42	3.57
471.772	3.59
472.123	3.58
472.475	3.6
472.827	3.6
473.178	3.6
473.53	3.6
473.882	3.59
474.233	3.59
474.585	3.58
474.936	3.59
475.288	3.56
475.639	3.58
475.99	3.56
476.342	3.58
476.693	3.6
477.044	3.57
477.395	3.56
477.746	3.53
478.097	3.52
478.448	3.51
478.8	3.51
479.15	3.52
479.501	3.52
479.852	3.49
480.203	3.51
480.554	3.52
480.905	3.52
481.255	3.53
481.606	3.54
481.957	3.55
482.307	3.54
482.658	3.55
483.009	3.56
483.359	3.57
483.709	3.57
484.06	3.57
484.41	3.57
484.761	3.57
485.111	3.57
485.461	3.58
485.811	3.58
486.162	3.58
486.512	3.58
486.862	3.59
487.212	3.6
487.562	3.59
487.912	3.59
488.262	3.59
488.612	3.58
488.961	3.59
489.311	3.59
489.661	3.6
490.011	3.59
490.36	3.58
490.71	3.59
491.06	3.59
491.409	3.58
491.759	3.59
492.108	3.61
492.458	3.61
492.807	3.61
493.157	3.62
493.506	3.62
493.855	3.61
494.204	3.6
494.554	3.6
494.903	3.6
495.252	3.61
495.601	3.61
495.95	3.63
496.299	3.63
496.648	3.62
496.997	3.62
497.346	3.63
497.695	3.64
498.043	3.65
498.392	3.65
498.741	3.69
499.09	3.7
499.438	3.71
499.787	3.71
500.135	3.72
500.484	3.75
500.832	3.75
501.181	3.77
501.529	3.78
501.878	3.77
502.226	3.78
502.574	3.78
502.923	3.8
503.271	3.79
503.619	3.79
503.967	3.77
504.315	3.78
504.663	3.77
505.011	3.77
505.359	3.75
505.707	3.75
506.055	3.74
506.403	3.74
506.751	3.7
507.098	3.72
507.446	3.71
507.794	3.71
508.141	3.71
508.489	3.71
508.837	3.7
509.184	3.7
509.531	3.7
509.879	3.7
510.226	3.67
510.574	3.7
510.921	3.69
511.268	3.72
511.616	3.72
511.963	3.73
512.31	3.74
512.657	3.74
513.004	3.75
513.351	3.74
513.698	3.72
514.045	3.73
514.392	3.73
514.739	3.73
515.086	3.72
515.432	3.73
515.779	3.73
516.126	3.75
516.473	3.76
516.819	3.77
517.166	3.77
517.512	3.79
517.859	3.78
518.205	3.78
518.552	3.78
518.898	3.77
519.245	3.76
519.591	3.78
519.937	3.78
520.283	3.76
520.629	3.75
520.976	3.77
521.322	3.78
521.668	3.78
522.014	3.79
522.36	3.81
522.706	3.82
523.052	3.83
523.398	3.81
523.743	3.81
524.089	3.81
524.435	3.8
524.781	3.81
525.126	3.81
525.472	3.81
525.817	3.82
526.163	3.83
526.509	3.85
526.854	3.85
527.199	3.85
527.545	3.86
527.89	3.86
528.235	3.87
528.581	3.86
528.926	3.87
529.271	3.87
529.616	3.85
529.961	3.85
530.306	3.85
530.651	3.85
530.996	3.87
531.341	3.88
531.686	3.89
532.031	3.89
532.376	3.88
532.721	3.91
533.065	3.91
533.41	3.91
533.755	3.9
534.099	3.9
534.444	3.91
534.788	3.92
535.133	3.94
535.477	3.93
535.822	3.93
536.166	3.93
536.51	3.93
536.855	3.95
537.199	3.94
537.543	3.95
537.887	3.95
538.231	3.94
538.576	3.93
538.92	3.93
539.264	3.94
539.608	3.95
539.951	3.95
540.295	3.95
540.639	3.95
540.983	3.95
541.327	3.97
541.671	3.95
542.014	3.97
542.358	3.96
542.701	3.98
543.045	3.98
543.389	3.98
543.732	3.97
544.075	3.98
544.419	3.98
544.762	3.98
545.105	4.01
545.449	4.02
545.792	4.03
546.135	4.03
546.478	4.04
546.821	4.07
547.165	4.06
547.508	4.06
547.851	4.06
548.194	4.04
548.536	4
548.879	4
549.222	3.98
549.565	3.97
549.908	3.97
550.25	3.96
550.593	3.94
550.936	3.96
551.278	3.95
551.621	3.93
551.963	3.93
552.306	3.92
552.648	3.92
552.991	3.93
553.333	3.94
553.675	3.91
554.017	3.88
554.36	3.88
554.702	3.91
555.044	3.91
555.386	3.93
555.728	3.95
556.07	3.93
556.412	3.95
556.754	3.95
557.096	3.92
557.438	3.94
557.78	3.96
558.121	3.95
558.463	3.93
558.805	3.97
559.147	3.96
559.488	3.94
559.83	3.91
560.171	3.86
560.513	3.85
560.854	3.87
561.196	3.85
561.537	3.87
561.878	3.86
562.22	3.86
562.561	3.89
562.902	3.9
563.243	3.93
563.584	3.95
563.925	3.95
564.266	3.97
564.607	3.96
564.948	3.96
565.289	3.96
565.63	3.99
565.971	4.01
566.312	4.02
566.653	4.03
566.993	4.02
567.334	4.06
567.675	4.06
568.015	4.08
568.356	4.12
568.696	4.09
569.037	4.09
569.377	4.07
569.718	4.05
570.058	4.04
570.398	4.04
570.739	4.01
571.079	4
571.419	4
571.759	4.03
572.099	4.01
572.439	4.03
572.779	4.07
573.119	4.06
573.459	4.04
573.799	4.04
574.139	4.07
574.479	4.07
574.819	4.09
575.158	4.1
575.498	4.09
575.838	4.1
576.177	4.11
576.517	4.14
576.856	4.17
577.196	4.17
577.535	4.17
577.875	4.2
578.214	4.23
578.553	4.23
578.893	4.27
579.232	4.31
579.571	4.31
579.91	4.23
580.25	4.22
580.589	4.26
580.928	4.25
581.267	4.25
581.606	4.24
581.945	4.19
582.283	4.16
582.622	4.13
582.961	4.16
583.3	4.16
583.639	4.2
583.977	4.14
584.316	4.18
584.654	4.21
584.993	4.18
585.332	4.2
585.67	4.21
586.008	4.14
586.347	4.15
586.685	4.11
587.024	4.14
587.362	4.12
587.7	4.11
588.038	4.14
588.376	4.1
588.715	4.09
589.053	4.13
589.391	4.16
589.729	4.15
590.067	4.14
590.404	4.1
590.742	4.02
591.08	4.04
591.418	4
591.756	4.03
592.093	4
592.431	3.98
592.769	3.98
593.106	4
593.444	4.02
593.781	4.09
594.119	4.15
594.456	4.17
594.793	4.12
595.131	4.09
595.468	4.15
595.805	4.17
596.143	4.2
596.48	4.2
596.817	4.24
597.154	4.25
597.491	4.25
597.828	4.29
598.165	4.32
598.502	4.31
598.839	4.28
599.176	4.34
599.512	4.35
599.849	4.39
600.186	4.34
600.523	4.3
600.859	4.29
601.196	4.21
601.532	4.23
601.869	4.26
602.205	4.26
602.542	4.24
602.878	4.25
603.215	4.22
603.551	4.23
603.887	4.23
604.223	4.24
604.56	4.25
604.896	4.25
605.232	4.2
605.568	4.22
605.904	4.2
606.24	4.2
606.576	4.2
606.912	4.2
607.248	4.23
607.583	4.23
607.919	4.2
608.255	4.25
608.591	4.23
608.926	4.22
609.262	4.26
609.597	4.27
609.933	4.28
610.268	4.31
610.604	4.29
610.939	4.3
611.275	4.28
611.61	4.29
611.945	4.32
612.281	4.37
612.616	4.38
612.951	4.43
613.286	4.45
613.621	4.44
613.956	4.41
614.291	4.38
614.626	4.44
614.961	4.51
615.296	4.52
615.631	4.55
615.966	4.56
616.3	4.57
616.635	4.53
616.97	4.55
617.304	4.57
617.639	4.57
617.973	4.52
618.308	4.54
618.642	4.51
618.977	4.48
619.311	4.53
619.646	4.51
619.98	4.49
620.314	4.48
620.648	4.46
620.983	4.44
621.317	4.48
621.651	4.48
621.985	4.43
622.319	4.4
622.653	4.45
622.987	4.46
623.321	4.41
623.655	4.48
623.988	4.51
624.322	4.48
624.656	4.46
624.99	4.47
625.323	4.46
625.657	4.52
625.99	4.54
626.324	4.5
626.657	4.5
626.991	4.53
627.324	4.49
627.658	4.53
627.991	4.58
628.324	4.54
628.657	4.48
628.991	4.5
629.324	4.45
629.657	4.35
629.99	4.32
630.323	4.29
630.656	4.21
630.989	4.14
631.322	4.11
631.655	4.16
631.987	4.17
632.32	4.23
632.653	4.2
632.986	4.14
633.318	4.15
633.651	4.18
633.984	4.18
634.316	4.17
634.649	4.14
634.981	4.1
635.313	4.18
635.646	4.22
635.978	4.25
636.31	4.28
636.643	4.34
636.975	4.37
637.307	4.44
637.639	4.48
637.971	4.55
638.303	4.58
638.635	4.55
638.967	4.54
639.299	4.47
639.631	4.46
639.963	4.45
640.295	4.45
640.626	4.4
640.958	4.42
641.29	4.48
641.621	4.53
641.953	4.51
642.285	4.43
642.616	4.45
642.948	4.4
643.279	4.44
643.61	4.41
643.942	4.45
644.273	4.48
644.604	4.48
644.936	4.5
645.267	4.51
645.598	4.51
645.929	4.41
646.26	4.39
646.591	4.39
646.922	4.47
647.253	4.47
647.584	4.56
647.915	4.47
648.245	4.4
648.576	4.35
648.907	4.4
649.238	4.48
649.568	4.42
649.899	4.44
650.229	4.46
650.56	4.48
650.89	4.57
651.221	4.55
651.551	4.54
651.882	4.54
652.212	4.53
652.542	4.54
652.872	4.63
653.203	4.7
653.533	4.66
653.863	4.64
654.193	4.65
654.523	4.57
654.853	4.65
655.183	4.7
655.513	4.77
655.843	4.83
656.172	4.88
656.502	4.9
656.832	4.91
657.162	4.85
657.491	4.9
657.821	4.8
658.15	4.79
658.48	4.81
658.809	4.76
659.139	4.77
659.468	4.85
659.798	4.9
660.127	4.89
660.456	4.91
660.785	4.91
661.115	4.97
661.444	5.02
661.773	5.05
662.102	5.06
662.431	5.01
662.76	4.92
663.089	4.86
663.418	4.91
663.747	4.91
664.076	4.94
664.404	4.95
664.733	4.99
665.062	5.09
665.39	5.06
665.719	5.1
666.048	5.08
666.376	5.08
666.705	5.06
667.033	5.08
667.362	5.08
667.69	5.13
668.018	5.03
668.347	5.02
668.675	4.98
669.003	4.92
669.331	5.01
669.659	5.04
669.987	5.05
670.315	5.04
670.643	4.98
670.971	5.05
671.299	4.98
671.627	4.88
671.955	4.79
672.283	4.81
672.61	4.91
672.938	4.88
673.266	4.73
673.593	4.62
673.921	4.58
674.249	4.62
674.576	4.58
674.904	4.59
675.231	4.63
675.558	4.61
675.886	4.58
676.213	4.55
676.54	4.6
676.867	4.53
677.195	4.52
677.522	4.63
677.849	4.57
678.176	4.65
678.503	4.64
678.83	4.63
679.157	4.64
679.484	4.5
679.81	4.59
680.137	4.72
680.464	4.86
680.791	4.87
681.117	4.94
681.444	4.91
681.771	4.95
682.097	4.99
682.424	5.04
682.75	5.14
683.077	5.09
683.403	5.11
683.729	5.17
684.056	5.18
684.382	5.18
684.708	5.2
685.034	5.12
685.36	5.11
685.686	5.14
686.012	5.2
686.339	5.25
686.664	5.22
686.99	5.12
687.316	5.06
687.642	5.06
687.968	4.97
688.294	4.99
688.619	4.97
688.945	4.9
689.271	4.9
689.596	4.89
689.922	4.93
690.247	4.9
690.573	4.81
690.898	4.89
691.224	4.82
691.549	4.89
691.874	4.92
692.2	4.94
692.525	4.96
692.85	4.97
693.175	5.1
693.5	5.13
693.825	5.26
694.15	5.32
694.475	5.3
694.8	5.25
695.125	5.14
695.45	5.17
695.775	5.06
696.099	5.15
696.424	5.14
696.749	5.25
697.073	5.21
697.398	5.27
697.723	5.22
698.047	5.24
698.372	5.26
698.696	5.26
699.02	5.3
699.345	5.34
699.669	5.34
699.993	5.22
700.318	5.2
700.642	5.12
700.966	5.09
701.29	5.08
701.614	5.17
701.938	5.32
702.262	5.25
702.586	5.36
702.91	5.3
703.234	5.3
703.557	5.2
703.881	5.28
704.205	5.19
704.529	5.2
704.852	5.18
705.176	5.12
705.499	5.03
705.823	5.09
706.146	5
706.47	4.99
706.793	5.28
707.117	5.34
707.44	5.37
707.763	5.42
708.086	5.43
708.409	5.38
708.733	5.33
709.056	5.44
709.379	5.51
709.702	5.51
710.025	5.62
710.348	5.62
710.671	5.61
710.993	5.66
711.316	5.77
711.639	5.76
711.962	5.82
712.284	5.94
712.607	5.97
712.93	5.9
713.252	5.88
713.575	5.58
713.897	5.33
714.22	5.36
714.542	5.37
714.864	5.37
715.187	5.48
715.509	5.49
715.831	5.61
716.153	5.42
716.475	5.36
716.798	5.27
717.12	5.04
717.442	4.93
717.764	4.95
718.085	4.78
718.407	4.9
718.729	4.73
719.051	4.73
719.373	4.78
719.695	4.97
720.016	4.83
720.338	4.94
720.659	5.16
720.981	5.17
721.302	5.16
721.624	5.22
721.945	5.27
722.267	5.27
722.588	5.05
722.909	5.15
723.231	5.22
723.552	5.06
723.873	5.25
724.194	5.25
724.515	5.31
724.836	5.27
725.157	5.23
725.478	5.14
725.799	5.14
726.12	5.11
726.441	5.09
726.762	5.14
727.083	5.15
727.403	5.15
727.724	5.33
728.045	5.28
728.365	5.19
728.686	5.19
729.006	5.36
729.327	5.42
729.647	5.46
729.967	5.45
730.288	5.59
730.608	5.77
730.928	5.8
731.249	5.93
731.569	6.06
731.889	5.99
732.209	6.08
732.529	6.04
732.849	5.98
733.169	5.99
733.489	5.96
733.809	5.81
734.129	5.78
734.448	5.57
734.768	5.43
735.088	5.57
735.408	5.46
735.727	5.51
736.047	5.52
736.366	5.5
736.686	5.4
737.005	5.47
737.325	5.38
737.644	5.28
737.963	5.08
738.283	4.92
738.602	5.04
738.921	5.16
739.24	5.37
739.56	5.54
739.879	5.44
740.198	5.46
740.517	5.86
740.836	5.76
741.155	5.73
741.473	5.92
741.792	5.73
742.111	5.73
742.43	5.61
742.748	5.8
743.067	5.72
743.386	5.97
743.704	5.88
744.023	6.02
744.341	6.28
744.66	6.2
744.978	6.22
745.297	6.15
745.615	6.14
745.933	6.16
746.252	6.31
746.57	6.5
746.888	6.74
747.206	6.52
747.524	6.63
747.842	6.5
748.16	6.51
748.478	6.71
748.796	6.81
749.114	6.84
749.432	6.56
749.749	6.74
750.067	6.43
750.385	6.67
750.703	6.54
751.02	6.53
751.338	6.66
751.655	6.81
751.973	6.7
752.29	6.64
752.608	6.36
752.925	5.93
753.242	5.9
753.56	5.7
753.877	5.87
754.194	5.89
754.511	6.42
754.828	6.18
755.145	6.18
755.462	6.21
755.779	6
756.096	6.01
756.413	5.94
756.73	6.17
757.047	5.82
757.364	5.98
757.68	6.08
757.997	6.4
758.314	6.47
758.63	6.56
758.947	6.67
759.264	6.73
759.58	6.9
759.896	6.83
760.213	6.91
760.529	6.79
760.846	6.94
761.162	6.45
761.478	6.62
761.794	6.68
762.11	6.66
762.426	6.79
762.743	6.91
763.059	7.1
763.375	7
763.69	6.97
764.006	6.88
764.322	6.78
764.638	6.64
764.954	6.6
765.27	6.81
765.585	6.78
765.901	6.8
766.216	6.67
766.532	6.48
766.848	6.46
767.163	6.62
767.478	6.5
767.794	6.71
768.109	6.78
768.424	6.63
768.74	6.63
769.055	6.76
769.37	6.63
769.685	6.46
770	6.58
770.315	6.74
770.63	6.54
770.945	6.78
771.26	6.66
771.575	6.61
771.89	6.37
772.205	6.13
772.52	6.03
772.834	6.38
773.149	6.7
773.464	6.79
773.778	6.55
774.093	6.69
774.407	6.63
774.722	6.6
775.036	6.91
775.351	6.83
775.665	6.76
775.979	6.55
776.293	6.53
776.608	6.46
776.922	6.47
777.236	6.86
777.55	6.85
777.864	6.97
778.178	7.08
778.492	6.99
778.806	7.68
779.12	7.71
779.434	7.82
779.747	7.8
780.061	7.73
780.375	7.61
780.689	7.69
781.002	7.92
781.316	8.06
781.629	7.68
781.943	7.89
782.256	7.71
782.57	7.91
782.883	8.05
783.196	7.98
783.51	8.33
783.823	8.24
784.136	7.88
784.449	8.25
784.762	8.12
785.075	8.03
785.388	7.83
785.701	7.85
786.014	7.26
786.327	7.42
786.64	7.57
786.953	7.6
787.266	7.25
787.578	7.29
787.891	6.99
788.204	7.53
788.516	7.59
788.829	7.69
789.141	8
789.454	7.97
789.766	8.45
790.079	8.03
790.391	7.89
790.703	8.09
791.016	7.5
791.328	7.87
791.64	8.32
791.952	8.37
792.264	8.31
792.576	8.71
792.888	8.71
793.2	8.52
793.512	8.66
793.824	9.3
794.136	9.28
794.448	9.74
794.76	9.51
795.071	9.2
795.383	8.99
795.695	8.99
796.006	8.9
796.318	8.61
796.629	8.75
796.941	9.22
797.252	8.87
797.564	9.08
797.875	8.81
798.186	8.82
798.497	8.65
798.809	8.49
799.12	8.53
799.431	8.42
799.742	8.57
800.053	8.58
800.364	8.38
800.675	8.61
800.986	8.37
801.297	7.92
801.608	8.46
801.918	8.34
802.229	8.4
802.54	8.75
802.851	8.82
803.161	8.62
803.472	8.38
803.782	9.07
804.093	9.17
804.403	9.72
804.714	10.34
805.024	10.14
805.334	10.7
805.645	11.41
805.955	11.62
806.265	11.94
806.575	11.77
806.885	11.71
807.195	11.43
807.505	11.59
807.815	12.24
808.125	11.82
808.435	11.78
808.745	11.67
809.055	11.65
809.365	11.3
809.674	11.3
809.984	11.33
810.294	10.71
810.603	9.46
810.913	8.95
811.222	7.98
811.532	7.93
811.841	8.21
812.151	6.89
812.46	7.32
812.769	6.85
813.079	6.63
813.388	6.59
813.697	6.63
814.006	6.67
814.315	6.78
814.624	6.25
814.933	7.25
815.242	7.11
815.551	7.02
815.86	7.84
816.169	8.39
816.478	8.91
816.786	8.64
817.095	10.15
817.404	10.21
817.712	9.83
818.021	10.31
818.33	9.94
818.638	10.56
818.947	10.29
819.255	9.9
819.563	9.97
819.872	9.66
820.18	9.63
820.488	10
820.796	9.96
821.105	9.97
821.413	9.48
821.721	9.37
822.029	9.35
822.337	9.08
822.645	8.94
822.953	8.83
823.26	8.96
823.568	8.78
823.876	8.61
824.184	8.7
824.491	8.67
824.799	8.74
825.107	8.78
825.414	8.7
825.722	8.84
826.029	8.84
826.337	9.01
826.644	9.08
826.951	8.66
827.259	8.71
827.566	8.81
827.873	9.15
828.18	9.32
828.488	9.31
828.795	9.4
829.102	9.39
829.409	9.27
829.716	9.23
830.023	9.45
830.329	9.46
830.636	9.45
830.943	9.33
831.25	9.38
831.557	8.64
831.863	8.82
832.17	8.67
832.476	8.64
832.783	8.14
833.089	7.9
833.396	8.44
833.702	8.19
834.009	8.41
834.315	7.92
834.621	7.9
834.928	7.87
835.234	8.35
835.54	8.95
835.846	9.18
836.152	9.1
836.458	9.08
836.764	9.34
837.07	9.41
837.376	9.47
837.682	9.06
837.988	9.63
838.293	9.58
838.599	9.55
838.905	9.52
839.211	10.33
839.516	10.54
839.822	9.82
840.127	9.19
840.433	9.05
840.738	8.97
841.044	8.51
841.349	7.89
841.654	6.68
841.959	6.18
842.265	5.85
842.57	6.12
842.875	6.04
843.18	5.97
843.485	5.54
843.79	5.93
844.095	6.13
844.4	6.87
844.705	7.5
845.01	8.93
845.315	9.94
845.619	9.66
845.924	8.68
846.229	11.63
846.533	11.97
846.838	10.14
847.142	9.43
847.447	10
847.751	10.43
848.056	11.5
848.36	11.86
848.664	12.61
848.969	13.38
849.273	13.57
849.577	14.74
849.881	16.21
850.185	15.2
850.489	15
850.794	12.83
851.097	11.19
851.401	10.87
851.705	10.01
852.009	10.21
852.313	9.44
852.617	6.06
852.92	7.46
853.224	8.44
853.528	10.24
853.831	10.08
854.135	11.46
854.438	11.94
854.742	13.27
855.045	12.8
855.349	11.92
855.652	11.58
855.955	8.97
856.259	8.91
856.562	10.22
856.865	10.96
857.168	10.06
857.471	9.09
857.774	8.84
858.077	9.75
858.38	6.99
858.683	10.64
858.986	11.3
859.289	10.18
859.592	11.93
859.894	9.99
860.197	7.88
860.5	8.98
860.802	8.9
861.105	6.66
861.407	6.91
861.71	6.1
862.012	6.87
862.315	8.09
862.617	9.35
862.919	10.19
863.222	11.34
863.524	12.77
863.826	10.9
864.128	10.99
864.43	10.02
864.732	11.64
865.034	10.97
865.336	10.17
865.638	9.5
865.94	10.02
866.242	13.03
866.544	13.47
866.846	11.7
867.147	11.52
867.449	12.27
867.751	12.34
868.052	11.95
868.354	13.27
868.655	14.14
868.957	12.71
869.258	10.97
869.56	9.28
869.861	9.61
870.162	11.22
870.463	11.58
870.765	12.06
871.066	12.41
871.367	10.43
871.668	11.84
871.969	13.62
872.27	12.25
872.571	10.23
872.872	11.22
873.173	11.71
873.473	9.38
873.774	9.03
874.075	11.31
874.376	11.57
874.676	9.3
874.977	10.29
875.277	10.52
875.578	12.13
875.878	12.58
876.179	13.4
876.479	14.08
876.78	12.74
877.08	12.13
877.38	11.98
877.68	13.75
877.981	13.34
878.281	12.76
878.581	13.46
