Data from BU56854_Reflection_00007.txt Node
Date: Mon Nov 18 16:26:54 EST 2019
User: vgr7
Spectrometer: USB2G7710
Scans to average: 3
Trigger mode: 4
Integration Time (sec): 2.000000E-2
Electric dark correction enabled: true
Boxcar width: 10
XAxis mode: Wavelengths
Number of Pixels in Spectrum: 2048
>>>>>Begin Spectral Data<<<<<
177.721	303.1
178.105	123.95
178.488	673.77
178.871	114.2
179.254	15.83
179.636	24.96
180.019	-7.33
180.402	-21.21
180.785	20.85
181.168	51.22
181.55	41.27
181.933	69.8
182.316	79.54
182.698	83.47
183.081	81.27
183.463	82.61
183.846	56.81
184.228	37.8
184.611	43.49
184.993	16.39
185.376	-4.28
185.758	-92.79
186.14	21.63
186.522	78.85
186.904	126.62
187.287	-70.42
187.669	-31.96
188.051	-3017.65
188.433	-138.9
188.815	5.82
189.197	22.22
189.579	19.55
189.961	27.34
190.342	26.9
190.724	19.5
191.106	8.65
191.488	24.5
191.869	6.19
192.251	-6.75
192.633	-15.45
193.014	-19.57
193.396	-35.42
193.777	-32.79
194.159	-23.13
194.54	-27.3
194.922	-44.18
195.303	-32.36
195.684	-27.34
196.065	-20.3
196.447	-24.98
196.828	-35.33
197.209	-28.34
197.59	-19.55
197.971	-28.93
198.352	-36.41
198.733	-29.68
199.114	-18.34
199.495	-11.82
199.876	-8.21
200.257	-7.87
200.638	6.31
201.018	12.06
201.399	14.26
201.78	25.53
202.16	25.04
202.541	26.84
202.922	30.11
203.302	19.57
203.683	10.51
204.063	-6.48
204.444	5.38
204.824	4.59
205.204	-5.45
205.585	-17.39
205.965	-3.19
206.345	8.37
206.725	-6.9
207.106	-17.7
207.486	-58.27
207.866	-55.04
208.246	-32.82
208.626	-22.22
209.006	-11.03
209.386	-32.36
209.766	-78.59
210.145	-59.82
210.525	-16.05
210.905	-3.6
211.285	10.06
211.664	12.89
212.044	19.76
212.424	20.23
212.803	4.26
213.183	9.4
213.562	5.68
213.942	12.86
214.321	12.77
214.701	5.18
215.08	-8.28
215.459	7.11
215.838	0.96
216.218	-8.82
216.597	-9.8
216.976	-9.16
217.355	-7.99
217.734	-0.94
218.113	-1.96
218.492	-3.93
218.871	-4.97
219.25	-6.16
219.629	-9.55
220.008	-10.01
220.387	-1.54
220.766	0.73
221.144	-11.28
221.523	-13.89
221.902	-13.3
222.28	-15.97
222.659	-0.92
223.037	13.1
223.416	-6.29
223.794	-0.65
224.173	2.97
224.551	6.8
224.929	1.71
225.308	13.23
225.686	2.48
226.064	5.78
226.442	5.75
226.821	6.87
227.199	4.29
227.577	4.58
227.955	4.14
228.333	-0.36
228.711	4.29
229.089	10.82
229.467	10.91
229.845	8.79
230.222	8.35
230.6	4.68
230.978	3.52
231.356	7.15
231.733	6.5
232.111	6.94
232.488	4.95
232.866	5.99
233.243	6.35
233.621	8.33
233.998	8.54
234.376	6.78
234.753	7.18
235.13	7.88
235.508	7.73
235.885	7.6
236.262	6.91
236.639	6.06
237.016	4.91
237.393	6.67
237.77	7.88
238.147	7.12
238.524	7.41
238.901	7.41
239.278	6.44
239.655	6.12
240.032	6.12
240.409	5.3
240.785	5.27
241.162	4.71
241.539	4.67
241.915	4.37
242.292	4.14
242.668	3.76
243.045	3.49
243.421	3.59
243.798	3.74
244.174	3.82
244.551	3.78
244.927	3.81
245.303	3.58
245.679	3.3
246.056	3.34
246.432	3.06
246.808	3.04
247.184	3.01
247.56	2.96
247.936	2.85
248.312	2.92
248.688	2.98
249.064	2.95
249.44	2.88
249.815	3.05
250.191	3.4
250.567	3.4
250.943	3.45
251.318	3.54
251.694	3.51
252.069	3.68
252.445	3.62
252.82	3.35
253.196	3.36
253.571	3.24
253.947	3.61
254.322	4.06
254.697	4.13
255.073	4.18
255.448	3.86
255.823	3.93
256.198	4.07
256.573	3.81
256.948	3.89
257.323	3.98
257.698	3.82
258.073	3.49
258.448	3.4
258.823	3.38
259.198	3.07
259.573	3.02
259.948	2.96
260.322	2.92
260.697	2.94
261.072	2.86
261.446	2.8
261.821	2.69
262.195	2.69
262.57	2.63
262.944	2.67
263.319	2.72
263.693	2.47
264.067	2.47
264.442	2.58
264.816	2.44
265.19	2.26
265.564	2.31
265.938	2.35
266.313	2.28
266.687	2.55
267.061	2.96
267.435	2.96
267.809	2.81
268.183	2.95
268.556	2.86
268.93	2.89
269.304	3.01
269.678	2.9
270.051	2.81
270.425	2.75
270.799	2.54
271.172	2.64
271.546	2.79
271.919	2.79
272.293	2.78
272.666	3.04
273.04	3.19
273.413	3.12
273.787	3.25
274.16	3.2
274.533	3.13
274.906	2.93
275.279	2.93
275.653	2.93
276.026	2.82
276.399	2.9
276.772	2.92
277.145	2.91
277.518	2.96
277.891	2.99
278.263	3.05
278.636	3.32
279.009	3.33
279.382	3.45
279.755	3.26
280.127	3.39
280.5	3.06
280.872	3.04
281.245	3.04
281.617	3.19
281.99	3.29
282.362	3.28
282.735	3.2
283.107	3.16
283.479	3.25
283.852	3.3
284.224	3.21
284.596	3.17
284.968	3.22
285.34	3.32
285.713	3.28
286.085	3.24
286.457	3.22
286.829	3.13
287.201	3.21
287.572	3.28
287.944	3.15
288.316	3.18
288.688	3.06
289.06	3.03
289.431	2.9
289.803	2.9
290.175	2.94
290.546	3.13
290.918	3.19
291.289	3.2
291.661	3.31
292.032	3.56
292.403	3.7
292.775	3.79
293.146	3.7
293.517	3.74
293.889	3.89
294.26	3.84
294.631	3.9
295.002	3.78
295.373	3.86
295.744	3.9
296.115	4
296.486	4.03
296.857	4.07
297.228	4.14
297.599	4.17
297.97	4.15
298.34	4.09
298.711	4.2
299.082	4.26
299.452	4.17
299.823	4.18
300.194	4.3
300.564	4.17
300.935	4.26
301.305	4.41
301.676	4.4
302.046	4.52
302.416	4.66
302.787	4.72
303.157	4.74
303.527	4.82
303.897	4.85
304.267	4.93
304.637	4.94
305.008	5
305.378	5.18
305.748	5.25
306.117	5.35
306.487	5.4
306.857	5.34
307.227	5.52
307.597	5.48
307.967	5.4
308.336	5.5
308.706	5.52
309.076	5.45
309.445	5.41
309.815	5.42
310.184	5.42
310.554	5.35
310.923	5.4
311.293	5.43
311.662	5.49
312.031	5.55
312.401	5.64
312.77	5.71
313.139	5.75
313.508	5.75
313.877	5.77
314.246	5.89
314.616	5.9
314.985	5.77
315.353	5.86
315.722	5.84
316.091	5.86
316.46	5.88
316.829	5.91
317.198	6.13
317.567	6.2
317.935	6.08
318.304	6.16
318.672	6.16
319.041	6.36
319.41	6.43
319.778	6.4
320.147	6.42
320.515	6.42
320.883	6.34
321.252	6.48
321.62	6.53
321.988	6.58
322.357	6.77
322.725	6.91
323.093	6.98
323.461	7.04
323.829	7.21
324.197	7.37
324.565	7.36
324.933	7.42
325.301	7.41
325.669	7.63
326.037	7.75
326.405	7.78
326.772	7.7
327.14	7.74
327.508	7.86
327.875	7.87
328.243	7.98
328.61	8.14
328.978	8.14
329.346	8.35
329.713	8.27
330.08	8.42
330.448	8.35
330.815	8.16
331.182	8.33
331.55	8.3
331.917	8.39
332.284	8.57
332.651	8.32
333.018	8.43
333.385	8.38
333.752	8.5
334.119	8.49
334.486	8.54
334.853	8.53
335.22	8.55
335.587	8.6
335.954	8.58
336.32	8.61
336.687	8.67
337.054	8.72
337.42	8.71
337.787	8.61
338.153	8.8
338.52	8.99
338.886	8.98
339.253	9
339.619	8.95
339.986	8.92
340.352	9.13
340.718	9.15
341.084	9.42
341.451	9.54
341.817	9.74
342.183	9.71
342.549	9.78
342.915	9.89
343.281	9.96
343.647	9.95
344.013	9.8
344.379	9.77
344.745	9.66
345.11	9.67
345.476	9.72
345.842	9.7
346.208	9.82
346.573	9.81
346.939	9.92
347.304	9.91
347.67	9.97
348.035	9.84
348.401	9.86
348.766	9.76
349.132	9.7
349.497	9.59
349.862	9.63
350.228	9.54
350.593	9.48
350.958	9.47
351.323	9.59
351.688	9.69
352.053	9.71
352.418	9.8
352.783	9.93
353.148	9.96
353.513	9.96
353.878	10
354.243	10.14
354.608	10.07
354.972	10.11
355.337	10.09
355.702	10.21
356.066	10.32
356.431	10.33
356.795	10.32
357.16	10.38
357.524	10.45
357.889	10.46
358.253	10.49
358.618	10.52
358.982	10.39
359.346	10.3
359.71	10.23
360.075	10.15
360.439	10.06
360.803	10.04
361.167	10.01
361.531	9.91
361.895	9.77
362.259	9.71
362.623	9.65
362.987	9.62
363.351	9.56
363.714	9.45
364.078	9.37
364.442	9.35
364.806	9.31
365.169	9.25
365.533	9.22
365.896	9.09
366.26	8.96
366.623	8.93
366.987	8.89
367.35	8.88
367.714	8.85
368.077	8.82
368.44	8.76
368.803	8.68
369.167	8.54
369.53	8.54
369.893	8.56
370.256	8.54
370.619	8.51
370.982	8.43
371.345	8.33
371.708	8.26
372.071	8.19
372.434	8.11
372.797	8.01
373.159	7.97
373.522	7.97
373.885	8.02
374.247	7.98
374.61	7.97
374.973	7.84
375.335	7.77
375.698	7.72
376.06	7.65
376.423	7.63
376.785	7.62
377.147	7.52
377.51	7.44
377.872	7.37
378.234	7.33
378.596	7.29
378.958	7.23
379.321	7.19
379.683	7.14
380.045	7.08
380.407	7.04
380.769	6.94
381.13	6.86
381.492	6.76
381.854	6.68
382.216	6.62
382.578	6.66
382.939	6.58
383.301	6.47
383.663	6.38
384.024	6.28
384.386	6.26
384.747	6.22
385.109	6.2
385.47	6.15
385.832	6.07
386.193	6.06
386.554	5.97
386.916	5.93
387.277	5.86
387.638	5.81
387.999	5.74
388.36	5.73
388.721	5.68
389.082	5.65
389.443	5.6
389.804	5.55
390.165	5.5
390.526	5.46
390.887	5.43
391.248	5.45
391.609	5.44
391.969	5.4
392.33	5.35
392.691	5.3
393.051	5.26
393.412	5.22
393.772	5.17
394.133	5.15
394.493	5.1
394.854	5.04
395.214	5.01
395.574	4.98
395.935	4.93
396.295	4.91
396.655	4.87
397.015	4.83
397.376	4.78
397.736	4.72
398.096	4.72
398.456	4.69
398.816	4.61
399.176	4.52
399.535	4.45
399.895	4.39
400.255	4.35
400.615	4.3
400.975	4.26
401.334	4.2
401.694	4.18
402.054	4.17
402.413	4.16
402.773	4.12
403.132	4.11
403.492	4.08
403.851	4.08
404.211	4.06
404.57	4.04
404.929	4.03
405.288	3.99
405.648	3.92
406.007	3.92
406.366	3.9
406.725	3.92
407.084	3.9
407.443	3.88
407.802	3.86
408.161	3.86
408.52	3.81
408.879	3.8
409.238	3.78
409.596	3.76
409.955	3.71
410.314	3.7
410.673	3.64
411.031	3.6
411.39	3.57
411.748	3.55
412.107	3.54
412.465	3.53
412.824	3.53
413.182	3.51
413.54	3.48
413.899	3.46
414.257	3.44
414.615	3.43
414.974	3.42
415.332	3.41
415.69	3.36
416.048	3.36
416.406	3.34
416.764	3.31
417.122	3.28
417.48	3.27
417.838	3.26
418.195	3.24
418.553	3.23
418.911	3.21
419.269	3.18
419.626	3.15
419.984	3.12
420.342	3.11
420.699	3.11
421.057	3.09
421.414	3.06
421.772	3.03
422.129	3.01
422.486	2.99
422.844	2.97
423.201	2.96
423.558	2.95
423.915	2.93
424.273	2.92
424.63	2.9
424.987	2.89
425.344	2.87
425.701	2.88
426.058	2.86
426.415	2.86
426.772	2.84
427.128	2.81
427.485	2.81
427.842	2.8
428.199	2.77
428.555	2.77
428.912	2.78
429.269	2.78
429.625	2.79
429.982	2.77
430.338	2.75
430.695	2.75
431.051	2.71
431.407	2.72
431.764	2.7
432.12	2.69
432.476	2.68
432.832	2.69
433.189	2.69
433.545	2.67
433.901	2.64
434.257	2.64
434.613	2.67
434.969	2.68
435.325	2.66
435.681	2.68
436.036	2.68
436.392	2.7
436.748	2.68
437.104	2.65
437.459	2.66
437.815	2.67
438.171	2.68
438.526	2.7
438.882	2.7
439.237	2.73
439.593	2.72
439.948	2.71
440.304	2.7
440.659	2.7
441.014	2.72
441.369	2.72
441.725	2.72
442.08	2.7
442.435	2.69
442.79	2.69
443.145	2.68
443.5	2.66
443.855	2.64
444.21	2.65
444.565	2.66
444.92	2.66
445.275	2.65
445.629	2.64
445.984	2.63
446.339	2.6
446.693	2.58
447.048	2.57
447.403	2.57
447.757	2.56
448.112	2.53
448.466	2.51
448.82	2.5
449.175	2.5
449.529	2.5
449.883	2.49
450.238	2.48
450.592	2.47
450.946	2.46
451.3	2.45
451.654	2.44
452.008	2.42
452.362	2.41
452.716	2.41
453.07	2.41
453.424	2.43
453.778	2.43
454.132	2.43
454.486	2.43
454.839	2.43
455.193	2.42
455.547	2.42
455.9	2.44
456.254	2.45
456.607	2.45
456.961	2.43
457.314	2.42
457.668	2.43
458.021	2.42
458.375	2.43
458.728	2.43
459.081	2.44
459.434	2.43
459.787	2.43
460.141	2.42
460.494	2.42
460.847	2.42
461.2	2.43
461.553	2.44
461.906	2.45
462.259	2.46
462.611	2.47
462.964	2.49
463.317	2.49
463.67	2.5
464.022	2.51
464.375	2.52
464.728	2.54
465.08	2.54
465.433	2.56
465.785	2.56
466.138	2.59
466.49	2.63
466.843	2.65
467.195	2.65
467.547	2.68
467.899	2.69
468.252	2.69
468.604	2.71
468.956	2.72
469.308	2.72
469.66	2.73
470.012	2.74
470.364	2.74
470.716	2.75
471.068	2.75
471.42	2.75
471.772	2.78
472.123	2.8
472.475	2.82
472.827	2.83
473.178	2.84
473.53	2.8
473.882	2.78
474.233	2.79
474.585	2.82
474.936	2.81
475.288	2.8
475.639	2.79
475.99	2.79
476.342	2.79
476.693	2.78
477.044	2.79
477.395	2.8
477.746	2.79
478.097	2.79
478.448	2.78
478.8	2.77
479.15	2.74
479.501	2.73
479.852	2.71
480.203	2.71
480.554	2.71
480.905	2.71
481.255	2.71
481.606	2.71
481.957	2.7
482.307	2.7
482.658	2.69
483.009	2.69
483.359	2.69
483.709	2.69
484.06	2.68
484.41	2.68
484.761	2.67
485.111	2.67
485.461	2.67
485.811	2.67
486.162	2.67
486.512	2.68
486.862	2.68
487.212	2.68
487.562	2.68
487.912	2.67
488.262	2.68
488.612	2.67
488.961	2.68
489.311	2.69
489.661	2.69
490.011	2.71
490.36	2.71
490.71	2.71
491.06	2.71
491.409	2.73
491.759	2.73
492.108	2.74
492.458	2.74
492.807	2.76
493.157	2.77
493.506	2.77
493.855	2.8
494.204	2.8
494.554	2.81
494.903	2.82
495.252	2.86
495.601	2.88
495.95	2.92
496.299	2.94
496.648	2.95
496.997	2.99
497.346	3.02
497.695	3.06
498.043	3.09
498.392	3.11
498.741	3.15
499.09	3.18
499.438	3.23
499.787	3.28
500.135	3.31
500.484	3.37
500.832	3.45
501.181	3.48
501.529	3.56
501.878	3.63
502.226	3.7
502.574	3.75
502.923	3.81
503.271	3.87
503.619	3.95
503.967	4.01
504.315	4.08
504.663	4.18
505.011	4.27
505.359	4.36
505.707	4.48
506.055	4.58
506.403	4.68
506.751	4.78
507.098	4.88
507.446	5
507.794	5.08
508.141	5.17
508.489	5.27
508.837	5.37
509.184	5.48
509.531	5.58
509.879	5.7
510.226	5.81
510.574	5.92
510.921	6.02
511.268	6.15
511.616	6.28
511.963	6.37
512.31	6.47
512.657	6.62
513.004	6.74
513.351	6.88
513.698	7.02
514.045	7.14
514.392	7.32
514.739	7.48
515.086	7.65
515.432	7.82
515.779	7.98
516.126	8.15
516.473	8.29
516.819	8.44
517.166	8.56
517.512	8.72
517.859	8.87
518.205	9.02
518.552	9.17
518.898	9.28
519.245	9.42
519.591	9.57
519.937	9.68
520.283	9.82
520.629	9.96
520.976	10.13
521.322	10.3
521.668	10.45
522.014	10.62
522.36	10.79
522.706	10.97
523.052	11.15
523.398	11.34
523.743	11.59
524.089	11.8
524.435	11.98
524.781	12.18
525.126	12.36
525.472	12.53
525.817	12.66
526.163	12.83
526.509	12.97
526.854	13.1
527.199	13.23
527.545	13.36
527.89	13.48
528.235	13.59
528.581	13.71
528.926	13.84
529.271	13.96
529.616	14.09
529.961	14.21
530.306	14.37
530.651	14.5
530.996	14.63
531.341	14.78
531.686	14.95
532.031	15.11
532.376	15.24
532.721	15.42
533.065	15.6
533.41	15.76
533.755	15.94
534.099	16.12
534.444	16.3
534.788	16.48
535.133	16.67
535.477	16.89
535.822	17.08
536.166	17.26
536.51	17.48
536.855	17.7
537.199	17.94
537.543	18.15
537.887	18.37
538.231	18.63
538.576	18.87
538.92	19.13
539.264	19.36
539.608	19.59
539.951	19.79
540.295	20
540.639	20.21
540.983	20.38
541.327	20.58
541.671	20.77
542.014	20.94
542.358	21.12
542.701	21.32
543.045	21.52
543.389	21.71
543.732	21.91
544.075	22.13
544.419	22.31
544.762	22.53
545.105	22.76
545.449	22.98
545.792	23.2
546.135	23.43
546.478	23.68
546.821	23.96
547.165	24.26
547.508	24.52
547.851	24.8
548.194	25.11
548.536	25.39
548.879	25.68
549.222	25.94
549.565	26.2
549.908	26.43
550.25	26.7
550.593	27
550.936	27.29
551.278	27.55
551.621	27.86
551.963	28.12
552.306	28.39
552.648	28.64
552.991	28.96
553.333	29.22
553.675	29.44
554.017	29.72
554.36	29.87
554.702	30.08
555.044	30.36
555.386	30.6
555.728	30.85
556.07	31.14
556.412	31.4
556.754	31.68
557.096	31.95
557.438	32.25
557.78	32.48
558.121	32.73
558.463	32.93
558.805	33.13
559.147	33.36
559.488	33.61
559.83	33.83
560.171	34.04
560.513	34.27
560.854	34.51
561.196	34.71
561.537	34.97
561.878	35.2
562.22	35.34
562.561	35.5
562.902	35.7
563.243	35.85
563.584	36.03
563.925	36.23
564.266	36.38
564.607	36.54
564.948	36.72
565.289	36.93
565.63	37.11
565.971	37.29
566.312	37.45
566.653	37.63
566.993	37.8
567.334	37.87
567.675	37.99
568.015	38.15
568.356	38.3
568.696	38.43
569.037	38.5
569.377	38.67
569.718	38.84
570.058	38.98
570.398	39.12
570.739	39.31
571.079	39.5
571.419	39.66
571.759	39.74
572.099	39.91
572.439	40.01
572.779	40.18
573.119	40.31
573.459	40.43
573.799	40.54
574.139	40.66
574.479	40.82
574.819	40.96
575.158	41.01
575.498	41.14
575.838	41.25
576.177	41.42
576.517	41.55
576.856	41.66
577.196	41.79
577.535	41.91
577.875	42
578.214	42.05
578.553	42.17
578.893	42.3
579.232	42.39
579.571	42.55
579.91	42.64
580.25	42.72
580.589	42.82
580.928	42.94
581.267	43.08
581.606	43.21
581.945	43.33
582.283	43.44
582.622	43.52
582.961	43.64
583.3	43.8
583.639	43.92
583.977	44.06
584.316	44.14
584.654	44.22
584.993	44.29
585.332	44.34
585.67	44.47
586.008	44.6
586.347	44.64
586.685	44.65
587.024	44.72
587.362	44.84
587.7	44.91
588.038	44.98
588.376	45.02
588.715	45.1
589.053	45.21
589.391	45.37
589.729	45.43
590.067	45.5
590.404	45.5
590.742	45.56
591.08	45.57
591.418	45.66
591.756	45.76
592.093	45.84
592.431	45.92
592.769	45.98
593.106	46.03
593.444	46.05
593.781	46.07
594.119	46.07
594.456	46.1
594.793	46.15
595.131	46.16
595.468	46.21
595.805	46.22
596.143	46.32
596.48	46.33
596.817	46.36
597.154	46.42
597.491	46.49
597.828	46.55
598.165	46.63
598.502	46.64
598.839	46.65
599.176	46.7
599.512	46.74
599.849	46.77
600.186	46.77
600.523	46.84
600.859	46.95
601.196	47.01
601.532	47.02
601.869	47.1
602.205	47.17
602.542	47.17
602.878	47.24
603.215	47.21
603.551	47.24
603.887	47.3
604.223	47.34
604.56	47.37
604.896	47.32
605.232	47.35
605.568	47.39
605.904	47.43
606.24	47.45
606.576	47.44
606.912	47.42
607.248	47.46
607.583	47.5
607.919	47.53
608.255	47.67
608.591	47.8
608.926	47.8
609.262	47.84
609.597	47.93
609.933	47.92
610.268	47.95
610.604	47.95
610.939	48
611.275	48.01
611.61	48
611.945	48.08
612.281	48.11
612.616	48.13
612.951	48.15
613.286	48.18
613.621	48.24
613.956	48.31
614.291	48.36
614.626	48.37
614.961	48.42
615.296	48.29
615.631	48.27
615.966	48.31
616.3	48.35
616.635	48.31
616.97	48.41
617.304	48.37
617.639	48.39
617.973	48.41
618.308	48.34
618.642	48.44
618.977	48.5
619.311	48.49
619.646	48.48
619.98	48.56
620.314	48.58
620.648	48.65
620.983	48.76
621.317	48.84
621.651	48.76
621.985	48.75
622.319	48.83
622.653	48.87
622.987	48.95
623.321	48.99
623.655	49.01
623.988	49.05
624.322	49.16
624.656	49.25
624.99	49.22
625.323	49.34
625.657	49.3
625.99	49.28
626.324	49.32
626.657	49.45
626.991	49.4
627.324	49.35
627.658	49.31
627.991	49.28
628.324	49.28
628.657	49.41
628.991	49.4
629.324	49.47
629.657	49.46
629.99	49.47
630.323	49.5
630.656	49.58
630.989	49.55
631.322	49.56
631.655	49.54
631.987	49.59
632.32	49.61
632.653	49.68
632.986	49.68
633.318	49.77
633.651	49.71
633.984	49.74
634.316	49.88
634.649	49.97
634.981	49.93
635.313	49.85
635.646	49.89
635.978	50.01
636.31	50
636.643	50.07
636.975	50.07
637.307	50.08
637.639	50.1
637.971	50.1
638.303	50.01
638.635	49.89
638.967	49.87
639.299	49.8
639.631	49.78
639.963	49.77
640.295	49.68
640.626	49.81
640.958	49.81
641.29	49.73
641.621	49.69
641.953	49.69
642.285	49.85
642.616	49.81
642.948	49.78
643.279	49.73
643.61	49.66
643.942	49.64
644.273	49.62
644.604	49.6
644.936	49.69
645.267	49.8
645.598	49.92
645.929	50.03
646.26	50.1
646.591	50.14
646.922	50.11
647.253	50.06
647.584	49.9
647.915	49.95
648.245	50.07
648.576	50.12
648.907	50.14
649.238	50.06
649.568	50.12
649.899	49.99
650.229	50.06
650.56	50.05
650.89	50.06
651.221	50.06
651.551	49.96
651.882	49.96
652.212	49.93
652.542	49.98
652.872	49.91
653.203	49.88
653.533	49.86
653.863	49.98
654.193	49.93
654.523	49.98
654.853	50.06
655.183	49.95
655.513	49.86
655.843	49.92
656.172	49.94
656.502	49.92
656.832	49.97
657.162	49.92
657.491	49.93
657.821	50.02
658.15	50.03
658.48	50.15
658.809	50.11
659.139	50.18
659.468	50.19
659.798	50.16
660.127	50.13
660.456	50.21
660.785	50.16
661.115	50.23
661.444	50.22
661.773	50.26
662.102	50.27
662.431	50.38
662.76	50.39
663.089	50.41
663.418	50.46
663.747	50.51
664.076	50.61
664.404	50.64
664.733	50.62
665.062	50.61
665.39	50.62
665.719	50.67
666.048	50.68
666.376	50.7
666.705	50.77
667.033	50.77
667.362	50.62
667.69	50.62
668.018	50.72
668.347	50.74
668.675	50.66
669.003	50.69
669.331	50.76
669.659	50.77
669.987	50.76
670.315	50.81
670.643	50.8
670.971	50.71
671.299	50.83
671.627	50.88
671.955	50.93
672.283	50.93
672.61	50.81
672.938	50.68
673.266	50.61
673.593	50.68
673.921	50.72
674.249	50.75
674.576	50.74
674.904	50.66
675.231	50.65
675.558	50.72
675.886	50.76
676.213	50.7
676.54	50.75
676.867	50.72
677.195	50.76
677.522	50.85
677.849	50.9
678.176	50.77
678.503	50.77
678.83	50.81
679.157	50.7
679.484	50.73
679.81	50.89
680.137	50.81
680.464	50.8
680.791	50.93
681.117	51.01
681.444	51.04
681.771	51.17
682.097	51.2
682.424	51.16
682.75	51.16
683.077	51.17
683.403	51.18
683.729	51.13
684.056	50.97
684.382	50.93
684.708	50.83
685.034	50.87
685.36	50.71
685.686	50.55
686.012	50.54
686.339	50.6
686.664	50.5
686.99	50.64
687.316	50.55
687.642	50.36
687.968	50.35
688.294	50.32
688.619	50.13
688.945	50.07
689.271	49.92
689.596	49.81
689.922	49.75
690.247	49.7
690.573	49.78
690.898	49.83
691.224	49.79
691.549	49.89
691.874	49.93
692.2	50.04
692.525	50.07
692.85	50.17
693.175	50.21
693.5	50.22
693.825	50.12
694.15	50.26
694.475	50.41
694.8	50.32
695.125	50.25
695.45	50.31
695.775	50.34
696.099	50.39
696.424	50.52
696.749	50.63
697.073	50.58
697.398	50.56
697.723	50.69
698.047	50.77
698.372	50.83
698.696	50.71
699.02	50.66
699.345	50.7
699.669	50.6
699.993	50.58
700.318	50.57
700.642	50.61
700.966	50.68
701.29	50.71
701.614	50.7
701.938	50.78
702.262	50.87
702.586	50.79
702.91	50.83
703.234	50.78
703.557	50.79
703.881	50.79
704.205	50.86
704.529	50.71
704.852	50.48
705.176	50.25
705.499	50.29
705.823	50.34
706.146	50.42
706.47	50.4
706.793	50.43
707.117	50.33
707.44	50.31
707.763	50.22
708.086	50.08
708.409	50.33
708.733	50.33
709.056	50.31
709.379	50.39
709.702	50.51
710.025	50.48
710.348	50.44
710.671	50.45
710.993	50.24
711.316	50.32
711.639	50.47
711.962	50.62
712.284	50.58
712.607	50.53
712.93	50.5
713.252	50.7
713.575	50.77
713.897	50.73
714.22	50.78
714.542	50.7
714.864	50.58
715.187	50.44
715.509	50.5
715.831	50.43
716.153	50.51
716.475	50.47
716.798	50.48
717.12	50.46
717.442	50.51
717.764	50.69
718.085	50.61
718.407	50.64
718.729	50.57
719.051	50.7
719.373	50.69
719.695	50.68
720.016	50.61
720.338	50.42
720.659	50.77
720.981	50.76
721.302	50.7
721.624	50.79
721.945	50.67
722.267	50.54
722.588	50.58
722.909	50.44
723.231	50.26
723.552	50.29
723.873	50.4
724.194	50.36
724.515	50.35
724.836	50.39
725.157	50.45
725.478	50.33
725.799	50.41
726.12	50.38
726.441	50.41
726.762	50.51
727.083	50.6
727.403	50.47
727.724	50.66
728.045	50.73
728.365	50.64
728.686	50.64
729.006	50.86
729.327	50.96
729.647	51.08
729.967	51.12
730.288	51.07
730.608	50.76
730.928	50.85
731.249	50.88
731.569	51.02
731.889	50.85
732.209	50.97
732.529	50.91
732.849	51.13
733.169	51.02
733.489	50.87
733.809	50.57
734.129	50.49
734.448	50.29
734.768	50.25
735.088	50.63
735.408	50.63
735.727	50.48
736.047	50.37
736.366	50.13
736.686	50.34
737.005	50.44
737.325	50.67
737.644	50.69
737.963	50.72
738.283	50.43
738.602	50.64
738.921	50.78
739.24	50.48
739.56	50.45
739.879	50.44
740.198	50.7
740.517	51.19
740.836	51.02
741.155	51.18
741.473	51.39
741.792	51.06
742.111	51.4
742.43	51.59
742.748	51.54
743.067	51.84
743.386	51.59
743.704	51.47
744.023	51.58
744.341	51.39
744.66	51.48
744.978	51.45
745.297	51.45
745.615	51.37
745.933	51.59
746.252	51.51
746.57	51.42
746.888	50.94
747.206	50.61
747.524	50.92
747.842	50.79
748.16	50.63
748.478	50.71
748.796	50.29
749.114	50.23
749.432	50.19
749.749	50.15
750.067	50.33
750.385	50.13
750.703	49.89
751.02	49.85
751.338	49.85
751.655	49.94
751.973	49.86
752.29	49.67
752.608	49.8
752.925	49.83
753.242	49.95
753.56	50.07
753.877	50.14
754.194	49.75
754.511	49.72
754.828	49.45
755.145	49.2
755.462	49.29
755.779	49.26
756.096	49.62
756.413	49.76
756.73	49.72
757.047	50.08
757.364	50.16
757.68	50.24
757.997	49.97
758.314	50.02
758.63	49.89
758.947	50.01
759.264	49.97
759.58	50.1
759.896	49.89
760.213	50.07
760.529	49.8
760.846	50.05
761.162	50.39
761.478	50.65
761.794	50.99
762.11	51.09
762.426	51.25
762.743	50.95
763.059	51.04
763.375	51.26
763.69	51.27
764.006	51.35
764.322	51.57
764.638	51.71
764.954	51.85
765.27	51.76
765.585	51.71
765.901	51.61
766.216	51.15
766.532	51.33
766.848	51.43
767.163	51.74
767.478	51.82
767.794	51.61
768.109	51.56
768.424	51.45
768.74	51.58
769.055	51.4
769.37	51.55
769.685	51.49
770	51.03
770.315	51.05
770.63	50.78
770.945	50.52
771.26	50.67
771.575	50.38
771.89	50.65
772.205	50.56
772.52	50.84
772.834	50.98
773.149	51.31
773.464	51.13
773.778	51.02
774.093	51.03
774.407	50.9
774.722	50.82
775.036	50.64
775.351	50.47
775.665	50.17
775.979	50.06
776.293	49.61
776.608	49.26
776.922	49.16
777.236	49.62
777.55	49.38
777.864	49.56
778.178	49.4
778.492	49.83
778.806	49.42
779.12	49.36
779.434	49.49
779.747	49.28
780.061	49.51
780.375	49.97
780.689	50.16
781.002	50.01
781.316	50.3
781.629	50.5
781.943	50.43
782.256	51.09
782.57	51.34
782.883	51.48
783.196	51.98
783.51	51.86
783.823	51.78
784.136	51.96
784.449	51.7
784.762	51.73
785.075	51.42
785.388	52.41
785.701	52.66
786.014	53.3
786.327	53.72
786.64	53.81
786.953	53.6
787.266	53.08
787.578	53.38
787.891	52.78
788.204	52.83
788.516	52.9
788.829	52.33
789.141	52.26
789.454	52.55
789.766	52.76
790.079	52.77
790.391	52.44
790.703	52.4
791.016	52.09
791.328	52.32
791.64	52.29
791.952	52.16
792.264	51.8
792.576	50.96
792.888	50.63
793.2	50.22
793.512	50.37
793.824	50.53
794.136	50.39
794.448	50.74
794.76	50.72
795.071	50.8
795.383	50.59
795.695	50.55
796.006	50.67
796.318	50.14
796.629	50.59
796.941	50.41
797.252	50
797.564	49.91
797.875	49.61
798.186	49.32
798.497	49.51
798.809	49.54
799.12	50.41
799.431	50.27
799.742	50.23
800.053	49.77
800.364	49.79
800.675	49.89
800.986	49.94
801.297	50.21
801.608	50.45
801.918	50.9
802.229	50.95
802.54	50.44
802.851	51.29
803.161	50.7
803.472	50.84
803.782	51.67
804.093	52.02
804.403	52.57
804.714	52.91
805.024	52.22
805.334	51.74
805.645	51.11
805.955	51.23
806.265	50.79
806.575	50.94
806.885	51.05
807.195	50.69
807.505	50.39
807.815	49.78
808.125	49.04
808.435	49.11
808.745	48.84
809.055	49.21
809.365	48.63
809.674	48.69
809.984	48.9
810.294	48.58
810.603	48.55
810.913	48.47
811.222	47.9
811.532	48.24
811.841	48.73
812.151	48.82
812.46	48.27
812.769	49.04
813.079	48.88
813.388	48.52
813.697	48.74
814.006	49.04
814.315	49.11
814.624	49.2
814.933	48.98
815.242	49.57
815.551	49.25
815.86	49.02
816.169	48.69
816.478	48.73
816.786	48.53
817.095	48.29
817.404	47.92
817.712	47.97
818.021	48.49
818.33	48.52
818.638	48.12
818.947	48.76
819.255	48.77
819.563	49.01
819.872	49.15
820.18	49.43
820.488	49.4
820.796	49.69
821.105	50.08
821.413	49.99
821.721	49.8
822.029	49.78
822.337	49.85
822.645	50.05
822.953	50.17
823.26	50.24
823.568	50.2
823.876	50.45
824.184	50.62
824.491	50.55
824.799	50.54
825.107	50.63
825.414	50.72
825.722	50.73
826.029	50.75
826.337	51.03
826.644	50.93
826.951	50.95
827.259	50.88
827.566	50.68
827.873	50.92
828.18	50.93
828.488	50.92
828.795	51.02
829.102	51.11
829.409	50.91
829.716	50.87
830.023	51.32
830.329	51.05
830.636	50.93
830.943	50.91
831.25	50.88
831.557	51.02
831.863	50.75
832.17	50.94
832.476	51.04
832.783	50.73
833.089	51.11
833.396	51.25
833.702	51.34
834.009	51.5
834.315	51.52
834.621	51.72
834.928	52.28
835.234	51.94
835.54	51.66
835.846	51.81
836.152	51.67
836.458	51.26
836.764	51.14
837.07	51.3
837.376	51.01
837.682	50.75
837.988	50.47
838.293	50.86
838.599	50.66
838.905	50.85
839.211	50.45
839.516	50.45
839.822	50.13
840.127	49.93
840.433	50.23
840.738	50.09
841.044	49.8
841.349	48.75
841.654	49.09
841.959	49.46
842.265	49.16
842.57	49.92
842.875	49.52
843.18	50.4
843.485	50.12
843.79	51.29
844.095	53.12
844.4	54.6
844.705	54.01
845.01	55.16
845.315	53.65
845.619	53.04
845.924	51.69
846.229	52.48
846.533	51.93
846.838	51.49
847.142	50.32
847.447	50.77
847.751	52.34
848.056	52.29
848.36	51.25
848.664	51.56
848.969	51.74
849.273	53.67
849.577	51.78
849.881	51.46
850.185	50.36
850.489	50.52
850.794	48.81
851.097	49.63
851.401	47.82
851.705	46.8
852.009	47.33
852.313	48.28
852.617	48.5
852.92	48.88
853.224	47.33
853.528	47.83
853.831	48.09
854.135	45.86
854.438	46.57
854.742	46.4
855.045	45.18
855.349	44.08
855.652	42.6
855.955	43.92
856.259	43.11
856.562	43.42
856.865	42.46
857.168	42.58
857.471	40.98
857.774	40.87
858.077	43.36
858.38	44.51
858.683	43.54
858.986	44.43
859.289	44.73
859.592	45.98
859.894	45.48
860.197	45.43
860.5	45.79
860.802	46.86
861.105	49.97
861.407	52.04
861.71	52.12
862.012	52.57
862.315	52.35
862.617	53.5
862.919	53.21
863.222	51.75
863.524	51.64
863.826	51.93
864.128	53.61
864.43	53.99
864.732	54.3
865.034	55.58
865.336	56.72
865.638	58.05
865.94	56.76
866.242	58.24
866.544	59.25
866.846	62.62
867.147	64.28
867.449	60.89
867.751	59.33
868.052	59.52
868.354	60.75
868.655	60.79
868.957	59.82
869.258	59.12
869.56	59.98
869.861	60.74
870.162	61.51
870.463	61.32
870.765	62.08
871.066	62.21
871.367	61.68
871.668	61.18
871.969	62.42
872.27	62.53
872.571	62.47
872.872	62.4
873.173	57.97
873.473	55.02
873.774	56.53
874.075	57.38
874.376	56.72
874.676	56.88
874.977	56.6
875.277	56.85
875.578	58.12
875.878	58.07
876.179	58.94
876.479	59.03
876.78	58.12
877.08	56.82
877.38	56.81
877.68	57.74
877.981	55.1
878.281	51.78
878.581	54.55
