Data from BU56854_Reflection_00002.txt Node
Date: Mon Nov 18 16:26:43 EST 2019
User: vgr7
Spectrometer: USB2G7710
Scans to average: 3
Trigger mode: 4
Integration Time (sec): 2.000000E-2
Electric dark correction enabled: true
Boxcar width: 10
XAxis mode: Wavelengths
Number of Pixels in Spectrum: 2048
>>>>>Begin Spectral Data<<<<<
177.721	550.19
178.105	405.39
178.488	3837.7
178.871	261.93
179.254	40.09
179.636	57.65
180.019	29.86
180.402	78.79
180.785	9.15
181.168	9.94
181.55	22.77
181.933	48.85
182.316	72.44
182.698	73.2
183.081	78.73
183.463	49.52
183.846	28.81
184.228	31.86
184.611	14.5
184.993	24.95
185.376	68.49
185.758	199.86
186.14	607.84
186.522	571.3
186.904	-1063.5
187.287	-1038.26
187.669	-443.72
188.051	-22488.24
188.433	-762.58
188.815	-279.58
189.197	-258.43
189.579	-185.84
189.961	-189.79
190.342	-170.08
190.724	-146.55
191.106	-168.84
191.488	-154.19
191.869	-117.93
192.251	-126.42
192.633	-108.21
193.014	-95.03
193.396	-83.6
193.777	-74.24
194.159	-71.62
194.54	-77.02
194.922	-52.35
195.303	-55.45
195.684	-60.6
196.065	-31.6
196.447	-44.25
196.828	-49.34
197.209	-62.82
197.59	-58.48
197.971	-60.81
198.352	-41
198.733	-61.44
199.114	-49.41
199.495	-47.84
199.876	-46.4
200.257	-37.88
200.638	-35.24
201.018	-55.31
201.399	-58.62
201.78	-46.02
202.16	-57.61
202.541	-76.23
202.922	-95.81
203.302	-115.4
203.683	-122.52
204.063	-163.74
204.444	-124.52
204.824	-109.05
205.204	-76.22
205.585	-83.44
205.965	-50.18
206.345	-85.72
206.725	-80.24
207.106	-115.45
207.486	-151.67
207.866	-170.79
208.246	-161.61
208.626	-183.51
209.006	-129.79
209.386	-218.37
209.766	-236.03
210.145	-167.19
210.525	-100.81
210.905	-92.68
211.285	-69.25
211.664	-57.78
212.044	-56.65
212.424	-61.52
212.803	-66.25
213.183	-46.31
213.562	-40.63
213.942	-47.63
214.321	-41.91
214.701	-40.1
215.08	-23.31
215.459	-21.7
215.838	-25.53
216.218	-23.62
216.597	-7.7
216.976	-3.56
217.355	5.8
217.734	-5.15
218.113	-8.99
218.492	-13.6
218.871	-18.24
219.25	-21.59
219.629	-26.74
220.008	-25.42
220.387	-21.25
220.766	-13.93
221.144	-23.9
221.523	-27.62
221.902	-35.23
222.28	-35.79
222.659	-22.16
223.037	-20.99
223.416	-20.79
223.794	-23.19
224.173	-23.51
224.551	-26.16
224.929	-29.11
225.308	-20.85
225.686	-9.89
226.064	-4.36
226.442	-5.19
226.821	1.49
227.199	3.81
227.577	4.9
227.955	2.62
228.333	2.7
228.711	2.94
229.089	4.88
229.467	4.83
229.845	3.88
230.222	7
230.6	3.13
230.978	3.24
231.356	3.07
231.733	4.17
232.111	4.04
232.488	3.94
232.866	2.78
233.243	-0.48
233.621	-1.29
233.998	-0.55
234.376	-2.49
234.753	-2.87
235.13	-2.53
235.508	-3.45
235.885	-1.95
236.262	-3.04
236.639	-3.56
237.016	-2.42
237.393	-1.36
237.77	-1.03
238.147	-1.39
238.524	-0.36
238.901	0.7
239.278	1.66
239.655	2.84
240.032	3.63
240.409	3.4
240.785	3.85
241.162	4.07
241.539	4.13
241.915	3.6
242.292	4.28
242.668	4.06
243.045	4.01
243.421	4.11
243.798	3.95
244.174	4.04
244.551	3.75
244.927	3.36
245.303	3.5
245.679	3.7
246.056	3.67
246.432	3.62
246.808	3.48
247.184	2.98
247.56	2.48
247.936	2.31
248.312	2.42
248.688	2.29
249.064	2.4
249.44	2.14
249.815	2.4
250.191	2.48
250.567	2.53
250.943	2.33
251.318	2.45
251.694	2.43
252.069	2.32
252.445	2.61
252.82	2.8
253.196	2.76
253.571	2.59
253.947	2.48
254.322	2.71
254.697	2.67
255.073	2.94
255.448	3.09
255.823	3.1
256.198	3.27
256.573	3.3
256.948	3.3
257.323	3.69
257.698	3.51
258.073	3.36
258.448	3.29
258.823	3.24
259.198	3.19
259.573	3.05
259.948	3.13
260.322	2.96
260.697	2.89
261.072	2.84
261.446	2.94
261.821	2.9
262.195	2.88
262.57	2.95
262.944	2.94
263.319	2.94
263.693	2.97
264.067	2.88
264.442	2.99
264.816	2.98
265.19	2.72
265.564	2.66
265.938	2.52
266.313	2.42
266.687	2.71
267.061	2.78
267.435	2.89
267.809	2.88
268.183	2.77
268.556	2.74
268.93	2.96
269.304	2.78
269.678	2.74
270.051	2.65
270.425	2.52
270.799	2.66
271.172	2.7
271.546	2.62
271.919	2.58
272.293	2.45
272.666	2.4
273.04	2.49
273.413	2.58
273.787	2.7
274.16	2.72
274.533	2.45
274.906	2.43
275.279	2.48
275.653	2.44
276.026	2.46
276.399	2.4
276.772	2.36
277.145	2.46
277.518	2.56
277.891	2.57
278.263	2.58
278.636	2.54
279.009	2.53
279.382	2.66
279.755	2.61
280.127	2.67
280.5	2.73
280.872	2.83
281.245	2.74
281.617	2.75
281.99	2.81
282.362	2.84
282.735	2.75
283.107	2.69
283.479	2.79
283.852	2.9
284.224	3.05
284.596	2.91
284.968	2.97
285.34	3.14
285.713	3.14
286.085	3.09
286.457	3.09
286.829	3.15
287.201	3.08
287.572	3
287.944	3.04
288.316	3.03
288.688	2.98
289.06	2.98
289.431	2.97
289.803	3.05
290.175	3.23
290.546	3.31
290.918	3.35
291.289	3.27
291.661	3.27
292.032	3.27
292.403	3.31
292.775	3.32
293.146	3.08
293.517	3.06
293.889	3.08
294.26	3.03
294.631	2.97
295.002	2.97
295.373	3.1
295.744	3
296.115	2.99
296.486	2.8
296.857	2.82
297.228	2.84
297.599	2.74
297.97	2.67
298.34	2.67
298.711	2.67
299.082	2.66
299.452	2.63
299.823	2.57
300.194	2.61
300.564	2.51
300.935	2.66
301.305	2.63
301.676	2.8
302.046	2.87
302.416	2.84
302.787	2.72
303.157	2.53
303.527	2.57
303.897	2.61
304.267	2.83
304.637	2.98
305.008	3.03
305.378	3.22
305.748	3.22
306.117	3.02
306.487	3.12
306.857	3.07
307.227	3.07
307.597	3.02
307.967	3.03
308.336	3.02
308.706	2.98
309.076	2.99
309.445	2.83
309.815	2.75
310.184	2.66
310.554	2.84
310.923	3.05
311.293	3.03
311.662	3.01
312.031	3.04
312.401	2.94
312.77	2.98
313.139	2.88
313.508	2.85
313.877	2.98
314.246	2.96
314.616	2.9
314.985	2.95
315.353	2.94
315.722	2.87
316.091	2.92
316.46	2.84
316.829	3.01
317.198	3.16
317.567	3.1
317.935	3.13
318.304	3.08
318.672	2.91
319.041	3.07
319.41	3.13
319.778	3.12
320.147	3.24
320.515	3.06
320.883	3.05
321.252	3.2
321.62	3.19
321.988	3.11
322.357	3.17
322.725	3.1
323.093	3.11
323.461	3.13
323.829	3.23
324.197	3.3
324.565	3.16
324.933	3.1
325.301	3.19
325.669	3.33
326.037	3.21
326.405	3.17
326.772	3.06
327.14	3.04
327.508	3.01
327.875	2.84
328.243	2.91
328.61	2.92
328.978	2.78
329.346	2.77
329.713	2.76
330.08	2.8
330.448	2.87
330.815	2.8
331.182	2.77
331.55	2.68
331.917	2.72
332.284	2.71
332.651	2.57
333.018	2.61
333.385	2.45
333.752	2.57
334.119	2.62
334.486	2.62
334.853	2.57
335.22	2.56
335.587	2.63
335.954	2.58
336.32	2.47
336.687	2.44
337.054	2.53
337.42	2.54
337.787	2.62
338.153	2.58
338.52	2.78
338.886	2.73
339.253	2.69
339.619	2.57
339.986	2.63
340.352	2.78
340.718	2.82
341.084	2.91
341.451	2.99
341.817	3.04
342.183	3.02
342.549	2.94
342.915	2.96
343.281	2.91
343.647	2.81
344.013	2.77
344.379	2.75
344.745	2.66
345.11	2.72
345.476	2.7
345.842	2.64
346.208	2.53
346.573	2.53
346.939	2.54
347.304	2.49
347.67	2.36
348.035	2.36
348.401	2.31
348.766	2.39
349.132	2.29
349.497	2.3
349.862	2.32
350.228	2.45
350.593	2.33
350.958	2.36
351.323	2.52
351.688	2.59
352.053	2.61
352.418	2.67
352.783	2.67
353.148	2.53
353.513	2.55
353.878	2.52
354.243	2.65
354.608	2.67
354.972	2.68
355.337	2.75
355.702	2.76
356.066	2.76
356.431	2.59
356.795	2.61
357.16	2.52
357.524	2.52
357.889	2.51
358.253	2.56
358.618	2.58
358.982	2.59
359.346	2.55
359.71	2.58
360.075	2.54
360.439	2.53
360.803	2.57
361.167	2.55
361.531	2.6
361.895	2.53
362.259	2.53
362.623	2.57
362.987	2.62
363.351	2.57
363.714	2.59
364.078	2.64
364.442	2.62
364.806	2.66
365.169	2.68
365.533	2.69
365.896	2.7
366.26	2.73
366.623	2.69
366.987	2.71
367.35	2.71
367.714	2.75
368.077	2.7
368.44	2.76
368.803	2.75
369.167	2.64
369.53	2.6
369.893	2.58
370.256	2.58
370.619	2.49
370.982	2.47
371.345	2.43
371.708	2.47
372.071	2.55
372.434	2.51
372.797	2.51
373.159	2.42
373.522	2.45
373.885	2.47
374.247	2.53
374.61	2.56
374.973	2.53
375.335	2.52
375.698	2.55
376.06	2.48
376.423	2.5
376.785	2.6
377.147	2.64
377.51	2.67
377.872	2.68
378.234	2.71
378.596	2.74
378.958	2.72
379.321	2.69
379.683	2.65
380.045	2.7
380.407	2.66
380.769	2.68
381.13	2.66
381.492	2.57
381.854	2.55
382.216	2.56
382.578	2.58
382.939	2.56
383.301	2.54
383.663	2.56
384.024	2.57
384.386	2.59
384.747	2.58
385.109	2.56
385.47	2.54
385.832	2.52
386.193	2.55
386.554	2.6
386.916	2.58
387.277	2.6
387.638	2.56
387.999	2.57
388.36	2.6
388.721	2.63
389.082	2.65
389.443	2.61
389.804	2.61
390.165	2.63
390.526	2.65
390.887	2.62
391.248	2.63
391.609	2.64
391.969	2.59
392.33	2.59
392.691	2.59
393.051	2.6
393.412	2.63
393.772	2.55
394.133	2.52
394.493	2.57
394.854	2.53
395.214	2.56
395.574	2.58
395.935	2.55
396.295	2.55
396.655	2.57
397.015	2.58
397.376	2.58
397.736	2.59
398.096	2.61
398.456	2.65
398.816	2.67
399.176	2.66
399.535	2.68
399.895	2.7
400.255	2.68
400.615	2.71
400.975	2.7
401.334	2.74
401.694	2.77
402.054	2.74
402.413	2.78
402.773	2.75
403.132	2.73
403.492	2.73
403.851	2.72
404.211	2.72
404.57	2.72
404.929	2.71
405.288	2.69
405.648	2.65
406.007	2.64
406.366	2.65
406.725	2.67
407.084	2.64
407.443	2.61
407.802	2.63
408.161	2.6
408.52	2.58
408.879	2.6
409.238	2.58
409.596	2.6
409.955	2.61
410.314	2.62
410.673	2.6
411.031	2.61
411.39	2.6
411.748	2.6
412.107	2.63
412.465	2.62
412.824	2.6
413.182	2.62
413.54	2.63
413.899	2.59
414.257	2.58
414.615	2.6
414.974	2.61
415.332	2.6
415.69	2.61
416.048	2.62
416.406	2.63
416.764	2.63
417.122	2.64
417.48	2.61
417.838	2.63
418.195	2.66
418.553	2.64
418.911	2.63
419.269	2.63
419.626	2.62
419.984	2.63
420.342	2.65
420.699	2.65
421.057	2.64
421.414	2.64
421.772	2.64
422.129	2.63
422.486	2.63
422.844	2.64
423.201	2.63
423.558	2.63
423.915	2.62
424.273	2.62
424.63	2.62
424.987	2.61
425.344	2.6
425.701	2.59
426.058	2.61
426.415	2.59
426.772	2.58
427.128	2.57
427.485	2.58
427.842	2.57
428.199	2.58
428.555	2.58
428.912	2.6
429.269	2.6
429.625	2.6
429.982	2.6
430.338	2.62
430.695	2.62
431.051	2.6
431.407	2.62
431.764	2.61
432.12	2.59
432.476	2.6
432.832	2.58
433.189	2.57
433.545	2.58
433.901	2.59
434.257	2.58
434.613	2.6
434.969	2.6
435.325	2.59
435.681	2.6
436.036	2.6
436.392	2.6
436.748	2.6
437.104	2.59
437.459	2.59
437.815	2.58
438.171	2.6
438.526	2.61
438.882	2.6
439.237	2.6
439.593	2.63
439.948	2.63
440.304	2.64
440.659	2.64
441.014	2.65
441.369	2.64
441.725	2.64
442.08	2.64
442.435	2.63
442.79	2.63
443.145	2.61
443.5	2.6
443.855	2.6
444.21	2.6
444.565	2.62
444.92	2.64
445.275	2.63
445.629	2.62
445.984	2.61
446.339	2.6
446.693	2.59
447.048	2.56
447.403	2.56
447.757	2.57
448.112	2.57
448.466	2.55
448.82	2.55
449.175	2.56
449.529	2.55
449.883	2.54
450.238	2.53
450.592	2.57
450.946	2.56
451.3	2.56
451.654	2.54
452.008	2.53
452.362	2.52
452.716	2.54
453.07	2.56
453.424	2.58
453.778	2.57
454.132	2.58
454.486	2.59
454.839	2.57
455.193	2.55
455.547	2.56
455.9	2.58
456.254	2.59
456.607	2.6
456.961	2.6
457.314	2.6
457.668	2.61
458.021	2.58
458.375	2.6
458.728	2.61
459.081	2.63
459.434	2.63
459.787	2.63
460.141	2.62
460.494	2.6
460.847	2.61
461.2	2.61
461.553	2.6
461.906	2.61
462.259	2.63
462.611	2.65
462.964	2.65
463.317	2.66
463.67	2.66
464.022	2.66
464.375	2.65
464.728	2.65
465.08	2.65
465.433	2.67
465.785	2.66
466.138	2.64
466.49	2.63
466.843	2.62
467.195	2.63
467.547	2.64
467.899	2.65
468.252	2.62
468.604	2.66
468.956	2.67
469.308	2.68
469.66	2.66
470.012	2.66
470.364	2.67
470.716	2.67
471.068	2.66
471.42	2.66
471.772	2.7
472.123	2.71
472.475	2.7
472.827	2.69
473.178	2.69
473.53	2.71
473.882	2.71
474.233	2.7
474.585	2.67
474.936	2.66
475.288	2.68
475.639	2.68
475.99	2.65
476.342	2.66
476.693	2.64
477.044	2.65
477.395	2.67
477.746	2.65
478.097	2.65
478.448	2.65
478.8	2.65
479.15	2.63
479.501	2.62
479.852	2.63
480.203	2.64
480.554	2.66
480.905	2.67
481.255	2.67
481.606	2.68
481.957	2.69
482.307	2.7
482.658	2.69
483.009	2.69
483.359	2.69
483.709	2.68
484.06	2.69
484.41	2.7
484.761	2.69
485.111	2.69
485.461	2.7
485.811	2.71
486.162	2.72
486.512	2.73
486.862	2.74
487.212	2.74
487.562	2.75
487.912	2.74
488.262	2.74
488.612	2.74
488.961	2.74
489.311	2.74
489.661	2.73
490.011	2.74
490.36	2.75
490.71	2.76
491.06	2.77
491.409	2.76
491.759	2.76
492.108	2.77
492.458	2.77
492.807	2.76
493.157	2.76
493.506	2.75
493.855	2.74
494.204	2.74
494.554	2.75
494.903	2.74
495.252	2.75
495.601	2.75
495.95	2.76
496.299	2.76
496.648	2.76
496.997	2.76
497.346	2.75
497.695	2.76
498.043	2.75
498.392	2.74
498.741	2.75
499.09	2.73
499.438	2.76
499.787	2.77
500.135	2.78
500.484	2.77
500.832	2.78
501.181	2.79
501.529	2.77
501.878	2.77
502.226	2.8
502.574	2.81
502.923	2.81
503.271	2.81
503.619	2.82
503.967	2.83
504.315	2.85
504.663	2.85
505.011	2.85
505.359	2.84
505.707	2.86
506.055	2.89
506.403	2.9
506.751	2.88
507.098	2.87
507.446	2.89
507.794	2.88
508.141	2.9
508.489	2.89
508.837	2.92
509.184	2.91
509.531	2.89
509.879	2.91
510.226	2.92
510.574	2.91
510.921	2.9
511.268	2.89
511.616	2.89
511.963	2.9
512.31	2.9
512.657	2.91
513.004	2.93
513.351	2.92
513.698	2.9
514.045	2.92
514.392	2.92
514.739	2.9
515.086	2.9
515.432	2.88
515.779	2.89
516.126	2.91
516.473	2.92
516.819	2.93
517.166	2.93
517.512	2.93
517.859	2.94
518.205	2.95
518.552	2.96
518.898	2.96
519.245	2.97
519.591	2.96
519.937	2.96
520.283	2.96
520.629	2.97
520.976	3
521.322	3
521.668	3.01
522.014	3.02
522.36	3.03
522.706	3.05
523.052	3.07
523.398	3.07
523.743	3.06
524.089	3.06
524.435	3.05
524.781	3.05
525.126	3.06
525.472	3.06
525.817	3.06
526.163	3.06
526.509	3.06
526.854	3.07
527.199	3.08
527.545	3.07
527.89	3.07
528.235	3.06
528.581	3.07
528.926	3.07
529.271	3.07
529.616	3.08
529.961	3.07
530.306	3.07
530.651	3.06
530.996	3.05
531.341	3.06
531.686	3.06
532.031	3.06
532.376	3.07
532.721	3.06
533.065	3.07
533.41	3.08
533.755	3.08
534.099	3.07
534.444	3.08
534.788	3.1
535.133	3.09
535.477	3.1
535.822	3.09
536.166	3.08
536.51	3.08
536.855	3.08
537.199	3.07
537.543	3.07
537.887	3.07
538.231	3.08
538.576	3.08
538.92	3.08
539.264	3.08
539.608	3.08
539.951	3.08
540.295	3.08
540.639	3.07
540.983	3.08
541.327	3.06
541.671	3.04
542.014	3.04
542.358	3.05
542.701	3.05
543.045	3.05
543.389	3.06
543.732	3.07
544.075	3.08
544.419	3.07
544.762	3.06
545.105	3.05
545.449	3.05
545.792	3.05
546.135	3.05
546.478	3.07
546.821	3.06
547.165	3.04
547.508	3.06
547.851	3.07
548.194	3.07
548.536	3.1
548.879	3.13
549.222	3.11
549.565	3.11
549.908	3.12
550.25	3.11
550.593	3.11
550.936	3.09
551.278	3.08
551.621	3.09
551.963	3.11
552.306	3.14
552.648	3.16
552.991	3.16
553.333	3.15
553.675	3.14
554.017	3.16
554.36	3.18
554.702	3.18
555.044	3.17
555.386	3.19
555.728	3.21
556.07	3.21
556.412	3.22
556.754	3.21
557.096	3.19
557.438	3.22
557.78	3.22
558.121	3.23
558.463	3.26
558.805	3.26
559.147	3.22
559.488	3.23
559.83	3.21
560.171	3.22
560.513	3.23
560.854	3.24
561.196	3.26
561.537	3.27
561.878	3.27
562.22	3.23
562.561	3.21
562.902	3.2
563.243	3.19
563.584	3.2
563.925	3.23
564.266	3.24
564.607	3.21
564.948	3.22
565.289	3.23
565.63	3.23
565.971	3.23
566.312	3.23
566.653	3.23
566.993	3.25
567.334	3.23
567.675	3.24
568.015	3.23
568.356	3.21
568.696	3.22
569.037	3.22
569.377	3.27
569.718	3.29
570.058	3.27
570.398	3.27
570.739	3.3
571.079	3.3
571.419	3.31
571.759	3.34
572.099	3.33
572.439	3.32
572.779	3.31
573.119	3.35
573.459	3.39
573.799	3.38
574.139	3.38
574.479	3.38
574.819	3.37
575.158	3.35
575.498	3.36
575.838	3.33
576.177	3.32
576.517	3.28
576.856	3.29
577.196	3.31
577.535	3.29
577.875	3.27
578.214	3.26
578.553	3.26
578.893	3.22
579.232	3.22
579.571	3.28
579.91	3.29
580.25	3.25
580.589	3.22
580.928	3.25
581.267	3.27
581.606	3.28
581.945	3.28
582.283	3.3
582.622	3.33
582.961	3.36
583.3	3.36
583.639	3.38
583.977	3.37
584.316	3.34
584.654	3.36
584.993	3.39
585.332	3.39
585.67	3.4
586.008	3.41
586.347	3.42
586.685	3.36
587.024	3.38
587.362	3.38
587.7	3.4
588.038	3.41
588.376	3.4
588.715	3.36
589.053	3.39
589.391	3.4
589.729	3.38
590.067	3.39
590.404	3.37
590.742	3.38
591.08	3.36
591.418	3.38
591.756	3.42
592.093	3.39
592.431	3.38
592.769	3.37
593.106	3.38
593.444	3.34
593.781	3.34
594.119	3.34
594.456	3.37
594.793	3.37
595.131	3.35
595.468	3.37
595.805	3.39
596.143	3.39
596.48	3.37
596.817	3.36
597.154	3.34
597.491	3.38
597.828	3.35
598.165	3.4
598.502	3.39
598.839	3.33
599.176	3.34
599.512	3.34
599.849	3.35
600.186	3.36
600.523	3.38
600.859	3.41
601.196	3.39
601.532	3.35
601.869	3.31
602.205	3.3
602.542	3.29
602.878	3.29
603.215	3.28
603.551	3.29
603.887	3.3
604.223	3.32
604.56	3.33
604.896	3.33
605.232	3.33
605.568	3.35
605.904	3.36
606.24	3.37
606.576	3.34
606.912	3.36
607.248	3.36
607.583	3.39
607.919	3.35
608.255	3.36
608.591	3.37
608.926	3.4
609.262	3.41
609.597	3.37
609.933	3.41
610.268	3.39
610.604	3.39
610.939	3.39
611.275	3.35
611.61	3.3
611.945	3.34
612.281	3.3
612.616	3.28
612.951	3.28
613.286	3.27
613.621	3.29
613.956	3.22
614.291	3.2
614.626	3.2
614.961	3.22
615.296	3.21
615.631	3.23
615.966	3.22
616.3	3.22
616.635	3.27
616.97	3.21
617.304	3.25
617.639	3.23
617.973	3.26
618.308	3.29
618.642	3.33
618.977	3.34
619.311	3.33
619.646	3.33
619.98	3.32
620.314	3.33
620.648	3.4
620.983	3.44
621.317	3.45
621.651	3.44
621.985	3.47
622.319	3.5
622.653	3.51
622.987	3.55
623.321	3.52
623.655	3.55
623.988	3.55
624.322	3.55
624.656	3.58
624.99	3.59
625.323	3.59
625.657	3.58
625.99	3.53
626.324	3.52
626.657	3.53
626.991	3.55
627.324	3.54
627.658	3.5
627.991	3.52
628.324	3.55
628.657	3.56
628.991	3.51
629.324	3.48
629.657	3.44
629.99	3.41
630.323	3.46
630.656	3.42
630.989	3.46
631.322	3.45
631.655	3.43
631.987	3.4
632.32	3.37
632.653	3.39
632.986	3.45
633.318	3.49
633.651	3.5
633.984	3.49
634.316	3.52
634.649	3.52
634.981	3.5
635.313	3.45
635.646	3.42
635.978	3.43
636.31	3.44
636.643	3.44
636.975	3.45
637.307	3.42
637.639	3.4
637.971	3.4
638.303	3.42
638.635	3.4
638.967	3.4
639.299	3.54
639.631	3.51
639.963	3.46
640.295	3.52
640.626	3.51
640.958	3.52
641.29	3.51
641.621	3.53
641.953	3.51
642.285	3.54
642.616	3.66
642.948	3.67
643.279	3.69
643.61	3.76
643.942	3.79
644.273	3.76
644.604	3.8
644.936	3.8
645.267	3.77
645.598	3.8
645.929	3.81
646.26	3.68
646.591	3.7
646.922	3.67
647.253	3.64
647.584	3.62
647.915	3.62
648.245	3.66
648.576	3.62
648.907	3.64
649.238	3.61
649.568	3.56
649.899	3.57
650.229	3.57
650.56	3.47
650.89	3.42
651.221	3.48
651.551	3.44
651.882	3.39
652.212	3.46
652.542	3.42
652.872	3.45
653.203	3.43
653.533	3.45
653.863	3.55
654.193	3.51
654.523	3.52
654.853	3.6
655.183	3.52
655.513	3.55
655.843	3.55
656.172	3.58
656.502	3.52
656.832	3.51
657.162	3.52
657.491	3.58
657.821	3.59
658.15	3.55
658.48	3.56
658.809	3.65
659.139	3.61
659.468	3.68
659.798	3.67
660.127	3.73
660.456	3.75
660.785	3.66
661.115	3.72
661.444	3.77
661.773	3.71
662.102	3.69
662.431	3.72
662.76	3.75
663.089	3.74
663.418	3.78
663.747	3.81
664.076	3.82
664.404	3.8
664.733	3.87
665.062	3.95
665.39	3.93
665.719	3.81
666.048	3.81
666.376	3.76
666.705	3.78
667.033	3.74
667.362	3.74
667.69	3.78
668.018	3.71
668.347	3.7
668.675	3.76
669.003	3.79
669.331	3.75
669.659	3.65
669.987	3.63
670.315	3.66
670.643	3.64
670.971	3.58
671.299	3.63
671.627	3.63
671.955	3.51
672.283	3.52
672.61	3.57
672.938	3.5
673.266	3.52
673.593	3.54
673.921	3.55
674.249	3.56
674.576	3.51
674.904	3.6
675.231	3.55
675.558	3.43
675.886	3.46
676.213	3.47
676.54	3.63
676.867	3.7
677.195	3.61
677.522	3.6
677.849	3.72
678.176	3.7
678.503	3.65
678.83	3.73
679.157	3.74
679.484	3.74
679.81	3.74
680.137	3.74
680.464	3.75
680.791	3.68
681.117	3.66
681.444	3.69
681.771	3.64
682.097	3.68
682.424	3.75
682.75	3.7
683.077	3.7
683.403	3.6
683.729	3.51
684.056	3.63
684.382	3.62
684.708	3.58
685.034	3.52
685.36	3.48
685.686	3.42
686.012	3.37
686.339	3.45
686.664	3.5
686.99	3.43
687.316	3.43
687.642	3.51
687.968	3.49
688.294	3.56
688.619	3.5
688.945	3.4
689.271	3.35
689.596	3.36
689.922	3.35
690.247	3.41
690.573	3.56
690.898	3.51
691.224	3.55
691.549	3.55
691.874	3.66
692.2	3.74
692.525	3.73
692.85	3.87
693.175	3.82
693.5	3.8
693.825	3.9
694.15	3.88
694.475	3.84
694.8	3.86
695.125	3.71
695.45	3.76
695.775	3.82
696.099	3.82
696.424	3.85
696.749	3.8
697.073	3.8
697.398	3.76
697.723	3.81
698.047	3.73
698.372	3.67
698.696	3.65
699.02	3.62
699.345	3.65
699.669	3.67
699.993	3.68
700.318	3.65
700.642	3.69
700.966	3.63
701.29	3.7
701.614	3.71
701.938	3.91
702.262	3.97
702.586	4.07
702.91	4.09
703.234	4.25
703.557	4.38
703.881	4.34
704.205	4.36
704.529	4.18
704.852	4.19
705.176	4.15
705.499	4.12
705.823	4.11
706.146	4.14
706.47	4.11
706.793	4.02
707.117	4.09
707.44	4.04
707.763	4.12
708.086	4
708.409	3.97
708.733	3.82
709.056	3.86
709.379	3.86
709.702	3.9
710.025	3.71
710.348	3.67
710.671	3.62
710.993	3.66
711.316	3.76
711.639	3.87
711.962	3.89
712.284	4.02
712.607	3.97
712.93	3.96
713.252	3.9
713.575	4.04
713.897	4.03
714.22	4.09
714.542	4.02
714.864	4.11
715.187	4.13
715.509	4.09
715.831	4.1
716.153	3.95
716.475	3.88
716.798	3.99
717.12	3.9
717.442	3.87
717.764	3.75
718.085	3.72
718.407	3.65
718.729	3.77
719.051	3.56
719.373	3.53
719.695	3.47
720.016	3.5
720.338	3.4
720.659	3.4
720.981	3.22
721.302	3.31
721.624	3.2
721.945	3.38
722.267	3.34
722.588	3.07
722.909	3.13
723.231	3.02
723.552	2.95
723.873	2.92
724.194	3.05
724.515	3.16
724.836	3.21
725.157	3.41
725.478	3.16
725.799	3.36
726.12	3.44
726.441	3.41
726.762	3.47
727.083	3.45
727.403	3.58
727.724	3.79
728.045	3.81
728.365	3.93
728.686	3.67
729.006	3.84
729.327	4.03
729.647	4.14
729.967	4.26
730.288	4.23
730.608	4.28
730.928	4.3
731.249	4.25
731.569	4.33
731.889	4.2
732.209	4.27
732.529	4.21
732.849	4.31
733.169	4.41
733.489	4.34
733.809	4.25
734.129	4.11
734.448	4.1
734.768	4.01
735.088	3.98
735.408	4.16
735.727	4.29
736.047	4.32
736.366	4.17
736.686	4.32
737.005	4.3
737.325	4.24
737.644	4.29
737.963	4.38
738.283	4.18
738.602	4.26
738.921	4.44
739.24	4.5
739.56	4.42
739.879	4.37
740.198	4.42
740.517	4.63
740.836	4.73
741.155	4.68
741.473	4.77
741.792	4.69
742.111	4.64
742.43	4.39
742.748	4.15
743.067	4.22
743.386	4.19
743.704	4.25
744.023	4.42
744.341	4.28
744.66	4.21
744.978	4.07
745.297	3.99
745.615	4
745.933	3.72
746.252	3.58
746.57	3.49
746.888	3.34
747.206	3.03
747.524	2.92
747.842	2.64
748.16	2.62
748.478	2.79
748.796	2.77
749.114	3.07
749.432	3.25
749.749	3.44
750.067	3.46
750.385	3.47
750.703	3.32
751.02	3.51
751.338	3.51
751.655	3.9
751.973	4.05
752.29	4.01
752.608	4.3
752.925	4.43
753.242	4.54
753.56	4.5
753.877	4.66
754.194	5.01
754.511	5.22
754.828	5.05
755.145	4.83
755.462	4.69
755.779	4.44
756.096	4.38
756.413	4.48
756.73	4.33
757.047	4.38
757.364	4.51
757.68	4.39
757.997	4.24
758.314	4.18
758.63	4.16
758.947	4.17
759.264	4.04
759.58	4.04
759.896	4.17
760.213	4.24
760.529	4.22
760.846	4.01
761.162	3.92
761.478	4.11
761.794	4.2
762.11	4.56
762.426	4.57
762.743	4.59
763.059	4.49
763.375	4.64
763.69	4.67
764.006	4.74
764.322	4.8
764.638	4.96
764.954	5.14
765.27	4.95
765.585	4.82
765.901	4.82
766.216	4.75
766.532	4.68
766.848	4.55
767.163	4.79
767.478	4.86
767.794	4.97
768.109	4.74
768.424	4.85
768.74	4.53
769.055	4.51
769.37	4.62
769.685	4.6
770	4.57
770.315	4.4
770.63	4.28
770.945	3.92
771.26	4
771.575	3.73
771.89	3.87
772.205	4.22
772.52	4.42
772.834	4.55
773.149	4.55
773.464	4.94
773.778	5.04
774.093	4.71
774.407	4.73
774.722	5.01
775.036	4.92
775.351	5.1
775.665	4.98
775.979	4.69
776.293	4.55
776.608	4.08
776.922	3.99
777.236	3.91
777.55	4.2
777.864	4.34
778.178	4.39
778.492	4.85
778.806	4.58
779.12	4.62
779.434	4.7
779.747	4.84
780.061	4.99
780.375	4.89
780.689	5.02
781.002	5.12
781.316	5.01
781.629	5.02
781.943	4.83
782.256	4.98
782.57	5.11
782.883	5.07
783.196	5.33
783.51	5.35
783.823	5.24
784.136	5.39
784.449	4.88
784.762	4.76
785.075	4.69
785.388	4.8
785.701	4.49
786.014	4.28
786.327	4.22
786.64	4.4
786.953	4.07
787.266	4.14
787.578	4.28
787.891	4.39
788.204	4.42
788.516	4.69
788.829	4.62
789.141	4.81
789.454	4.6
789.766	5
790.079	4.97
790.391	4.9
790.703	4.83
791.016	4.91
791.328	4.88
791.64	4.87
791.952	4.61
792.264	4.36
792.576	4.19
792.888	4.13
793.2	3.83
793.512	3.53
793.824	3.62
794.136	3.28
794.448	3.68
794.76	3.36
795.071	3.04
795.383	3.37
795.695	2.93
796.006	3.15
796.318	2.55
796.629	2.58
796.941	2.63
797.252	2.76
797.564	3.15
797.875	3.02
798.186	2.27
798.497	2.83
798.809	3.2
799.12	3.42
799.431	3.34
799.742	3.35
800.053	3.89
800.364	3.71
800.675	3.54
800.986	2.8
801.297	3.07
801.608	3.28
801.918	3.06
802.229	3.7
802.54	3.66
802.851	4.23
803.161	4.47
803.472	4.12
803.782	4.18
804.093	3.79
804.403	3.76
804.714	4.44
805.024	3.88
805.334	4.21
805.645	4.13
805.955	4.46
806.265	4.51
806.575	4.58
806.885	5.05
807.195	5.71
807.505	6.38
807.815	6.91
808.125	6.7
808.435	6.56
808.745	6.17
809.055	6.63
809.365	6.21
809.674	6.11
809.984	6.66
810.294	6.75
810.603	7.37
810.913	8.31
811.222	8.1
811.532	8.15
811.841	8.04
812.151	8.89
812.46	8.74
812.769	8.62
813.079	8.35
813.388	7.99
813.697	7.54
814.006	7.12
814.315	6.84
814.624	6.56
814.933	6.65
815.242	6.39
815.551	6.48
815.86	7.54
816.169	8.08
816.478	8.46
816.786	8.46
817.095	8.2
817.404	8.27
817.712	8.21
818.021	8.65
818.33	8.29
818.638	7.57
818.947	7.73
819.255	7.52
819.563	7.28
819.872	7.24
820.18	7.1
820.488	6.92
820.796	6.67
821.105	6.77
821.413	6.9
821.721	6.95
822.029	6.84
822.337	6.58
822.645	6.37
822.953	6.24
823.26	6.17
823.568	6.06
823.876	6
824.184	6.01
824.491	5.87
824.799	5.89
825.107	5.97
825.414	5.88
825.722	6
826.029	6.09
826.337	6.13
826.644	6.14
826.951	6.24
827.259	6.34
827.566	6.45
827.873	6.42
828.18	6.34
828.488	6.17
828.795	6.01
829.102	6.26
829.409	6.3
829.716	6.19
830.023	6.45
830.329	5.99
830.636	6.14
830.943	6.51
831.25	6.82
831.557	6.83
831.863	6.82
832.17	6.25
832.476	5.95
832.783	5.72
833.089	5.95
833.396	5.87
833.702	5.83
834.009	5.91
834.315	5.39
834.621	5.27
834.928	5.76
835.234	5.85
835.54	5.53
835.846	5.81
836.152	5.91
836.458	5.54
836.764	5.93
837.07	5.47
837.376	5.19
837.682	4.79
837.988	4.88
838.293	4.53
838.599	5.07
838.905	5.21
839.211	5.19
839.516	4.83
839.822	5.15
840.127	4.54
840.433	3.61
840.738	4.53
841.044	4.8
841.349	4.27
841.654	4.3
841.959	4.49
842.265	3.66
842.57	4.44
842.875	4.34
843.18	4.78
843.485	5.93
843.79	5.12
844.095	5.35
844.4	4.94
844.705	5.26
845.01	4.27
845.315	4.62
845.619	4.18
845.924	4.12
846.229	4.34
846.533	5.84
846.838	5.78
847.142	5.4
847.447	5.41
847.751	5.31
848.056	5.66
848.36	6.46
848.664	7.68
848.969	4.61
849.273	5.48
849.577	4.59
849.881	2.08
850.185	3.42
850.489	3
850.794	3.15
851.097	3.73
851.401	5.22
851.705	5.29
852.009	7.09
852.313	7.24
852.617	3.92
852.92	2.99
853.224	4.1
853.528	3.45
853.831	4.93
854.135	4.92
854.438	4.01
854.742	2.47
855.045	1.51
855.349	2.18
855.652	2.05
855.955	3.21
856.259	4.87
856.562	5.71
856.865	5.75
857.168	5.93
857.471	4.87
857.774	4.7
858.077	4.87
858.38	5.08
858.683	4.48
858.986	6.02
859.289	5.06
859.592	4.58
859.894	5.68
860.197	4.77
860.5	3.67
860.802	5.05
861.105	4.95
861.407	4.18
861.71	4.85
862.012	4.07
862.315	1.9
862.617	0.08
862.919	-1.55
863.222	-1.87
863.524	-2.46
863.826	-0.89
864.128	-0.38
864.43	-0.25
864.732	0.85
865.034	0.67
865.336	0.05
865.638	2.46
865.94	3.88
866.242	4.1
866.544	4.7
866.846	5.79
867.147	6.62
867.449	7
867.751	8.62
868.052	12.55
868.354	14.23
868.655	14.94
868.957	16.9
869.258	17.81
869.56	18.36
869.861	18.37
870.162	17.59
870.463	17.01
870.765	16.25
871.066	13.58
871.367	12.79
871.668	13.32
871.969	11.5
872.27	11.81
872.571	10.96
872.872	12.55
873.173	11.8
873.473	11.04
873.774	14.51
874.075	14.47
874.376	9.23
874.676	9.66
874.977	8.99
875.277	10.77
875.578	8.75
875.878	9.26
876.179	10.48
876.479	10.91
876.78	10.35
877.08	10.85
877.38	11.35
877.68	14.46
877.981	16.8
878.281	17.59
878.581	15.92
