Data from BU56854_Reflection_00008.txt Node
Date: Mon Nov 18 16:26:57 EST 2019
User: vgr7
Spectrometer: USB2G7710
Scans to average: 3
Trigger mode: 4
Integration Time (sec): 2.000000E-2
Electric dark correction enabled: true
Boxcar width: 10
XAxis mode: Wavelengths
Number of Pixels in Spectrum: 2048
>>>>>Begin Spectral Data<<<<<
177.721	37.9
178.105	82.04
178.488	1477.05
178.871	82.95
179.254	-28.39
179.636	10.85
180.019	-46.65
180.402	63.64
180.785	-114.73
181.168	-82.93
181.55	-30.33
181.933	29.66
182.316	59.92
182.698	41.05
183.081	54.43
183.463	52.89
183.846	25.96
184.228	41.59
184.611	23.34
184.993	-22.45
185.376	14.48
185.758	66.71
186.14	43.57
186.522	27.49
186.904	-14.07
187.287	-35.05
187.669	147.69
188.051	805.88
188.433	74.63
188.815	-7.84
189.197	6.66
189.579	19.1
189.961	9.28
190.342	11.42
190.724	13.1
191.106	16.64
191.488	22.1
191.869	21.61
192.251	34.87
192.633	21.07
193.014	-0.3
193.396	2.72
193.777	-6.41
194.159	-13.97
194.54	-8.93
194.922	-13.93
195.303	-19.3
195.684	-35.8
196.065	-3.26
196.447	-2.52
196.828	-9.18
197.209	-23.65
197.59	-30.31
197.971	-34.01
198.352	-24.47
198.733	-17.74
199.114	-16.07
199.495	-17.6
199.876	-16.22
200.257	-13.19
200.638	-13.04
201.018	-6.85
201.399	0.86
201.78	2.29
202.16	3.01
202.541	5.36
202.922	-2.8
203.302	-13.91
203.683	2.01
204.063	-45.51
204.444	-47.86
204.824	-58.25
205.204	-37.62
205.585	-38.45
205.965	-20.43
206.345	-47.1
206.725	-54.26
207.106	-74.41
207.486	-103.03
207.866	-115.63
208.246	-127.69
208.626	-128.99
209.006	-113.54
209.386	-207.87
209.766	-180.02
210.145	-158.29
210.525	-115.83
210.905	-72.58
211.285	-59.54
211.664	-64.83
212.044	-55.21
212.424	-54.11
212.803	-41.92
213.183	-29.91
213.562	-21.51
213.942	-21.8
214.321	-14.66
214.701	-9.64
215.08	12.08
215.459	15.12
215.838	13.95
216.218	8.97
216.597	12.93
216.976	14.66
217.355	19.73
217.734	16.04
218.113	17.87
218.492	22.94
218.871	7.21
219.25	15.45
219.629	13.07
220.008	7.54
220.387	13.39
220.766	9.77
221.144	-3.4
221.523	3.15
221.902	3.8
222.28	-2.08
222.659	4.2
223.037	-0.1
223.416	-0.52
223.794	0.07
224.173	0.59
224.551	1.43
224.929	1.59
225.308	1.36
225.686	1.8
226.064	3.45
226.442	3.7
226.821	9
227.199	2.98
227.577	2.57
227.955	3.71
228.333	3.05
228.711	9.09
229.089	10.77
229.467	7.41
229.845	4.15
230.222	5.18
230.6	2.38
230.978	0.4
231.356	3.07
231.733	2.71
232.111	4.45
232.488	4.13
232.866	4.84
233.243	4.11
233.621	3.23
233.998	3.35
234.376	1.95
234.753	2.05
235.13	3.16
235.508	3.83
235.885	4.29
236.262	2.76
236.639	-0.02
237.016	1.66
237.393	3.42
237.77	4.66
238.147	5.49
238.524	5.74
238.901	6.52
239.278	5.86
239.655	6.04
240.032	5.35
240.409	5.48
240.785	5.26
241.162	5.22
241.539	5.15
241.915	4.96
242.292	4.79
242.668	4.24
243.045	4.13
243.421	3.88
243.798	3.25
244.174	3.65
244.551	3.72
244.927	3.5
245.303	3.39
245.679	3.27
246.056	3.16
246.432	3.08
246.808	3.03
247.184	2.93
247.56	2.82
247.936	2.81
248.312	2.73
248.688	2.74
249.064	2.66
249.44	2.58
249.815	2.74
250.191	2.89
250.567	3.12
250.943	3.09
251.318	3.29
251.694	3.53
252.069	3.21
252.445	3.26
252.82	3.24
253.196	2.9
253.571	2.92
253.947	2.97
254.322	2.91
254.697	2.79
255.073	2.68
255.448	2.44
255.823	2.82
256.198	2.74
256.573	2.57
256.948	2.78
257.323	2.95
257.698	2.85
258.073	2.78
258.448	2.72
258.823	2.73
259.198	2.41
259.573	2.6
259.948	2.67
260.322	2.82
260.697	2.8
261.072	2.87
261.446	3.09
261.821	2.85
262.195	3.03
262.57	2.95
262.944	3
263.319	3.23
263.693	3.08
264.067	3.1
264.442	3.26
264.816	3.19
265.19	3.04
265.564	3.13
265.938	3.16
266.313	3.13
266.687	3.19
267.061	3.39
267.435	3.27
267.809	3.2
268.183	2.95
268.556	2.96
268.93	2.92
269.304	2.67
269.678	2.82
270.051	2.49
270.425	2.61
270.799	2.6
271.172	2.53
271.546	2.43
271.919	2.36
272.293	2.43
272.666	2.46
273.04	2.49
273.413	2.32
273.787	2.31
274.16	2.34
274.533	2.23
274.906	2.21
275.279	2.19
275.653	2.25
276.026	2.36
276.399	2.3
276.772	2.43
277.145	2.49
277.518	2.57
277.891	2.83
278.263	2.67
278.636	2.67
279.009	2.66
279.382	2.92
279.755	2.94
280.127	2.88
280.5	2.98
280.872	3.16
281.245	3.22
281.617	3.42
281.99	3.47
282.362	3.57
282.735	3.53
283.107	3.49
283.479	3.54
283.852	3.56
284.224	3.59
284.596	3.46
284.968	3.43
285.34	3.45
285.713	3.39
286.085	3.57
286.457	3.68
286.829	3.74
287.201	3.59
287.572	3.55
287.944	3.5
288.316	3.45
288.688	3.37
289.06	3.42
289.431	3.37
289.803	3.4
290.175	3.48
290.546	3.66
290.918	3.72
291.289	3.75
291.661	3.83
292.032	4.03
292.403	4.15
292.775	4.17
293.146	4.12
293.517	4.11
293.889	4.13
294.26	4.1
294.631	4.04
295.002	4.14
295.373	4.1
295.744	4.22
296.115	4.26
296.486	4.2
296.857	4.18
297.228	4.15
297.599	4.13
297.97	4.16
298.34	4.1
298.711	4.1
299.082	4.06
299.452	4.12
299.823	4.18
300.194	4.18
300.564	4.31
300.935	4.43
301.305	4.51
301.676	4.49
302.046	4.59
302.416	4.68
302.787	4.72
303.157	4.96
303.527	4.92
303.897	4.99
304.267	5.32
304.637	5.42
305.008	5.57
305.378	5.61
305.748	5.62
306.117	5.61
306.487	5.81
306.857	5.88
307.227	5.85
307.597	5.72
307.967	5.71
308.336	5.67
308.706	5.71
309.076	5.7
309.445	5.71
309.815	5.63
310.184	5.61
310.554	5.67
310.923	5.5
311.293	5.52
311.662	5.51
312.031	5.36
312.401	5.39
312.77	5.49
313.139	5.5
313.508	5.53
313.877	5.51
314.246	5.4
314.616	5.45
314.985	5.38
315.353	5.32
315.722	5.44
316.091	5.44
316.46	5.51
316.829	5.68
317.198	5.87
317.567	5.89
317.935	5.99
318.304	6.08
318.672	6.34
319.041	6.5
319.41	6.61
319.778	6.7
320.147	6.91
320.515	6.76
320.883	6.77
321.252	6.75
321.62	6.95
321.988	7.08
322.357	7.07
322.725	7.21
323.093	7.46
323.461	7.46
323.829	7.59
324.197	7.71
324.565	7.78
324.933	7.72
325.301	7.79
325.669	7.85
326.037	7.71
326.405	7.8
326.772	7.82
327.14	7.88
327.508	7.97
327.875	7.74
328.243	7.85
328.61	7.92
328.978	7.97
329.346	7.97
329.713	7.89
330.08	8.04
330.448	8.03
330.815	7.91
331.182	7.9
331.55	7.93
331.917	7.83
332.284	7.83
332.651	7.99
333.018	8.17
333.385	8.13
333.752	8.31
334.119	8.33
334.486	8.21
334.853	8.27
335.22	8.15
335.587	8.23
335.954	8.24
336.32	8.26
336.687	8.4
337.054	8.52
337.42	8.73
337.787	8.7
338.153	8.84
338.52	8.99
338.886	9.03
339.253	9.01
339.619	9.01
339.986	8.98
340.352	8.95
340.718	8.86
341.084	9
341.451	9.09
341.817	9.17
342.183	9.21
342.549	9.2
342.915	9.33
343.281	9.46
343.647	9.41
344.013	9.42
344.379	9.4
344.745	9.39
345.11	9.37
345.476	9.37
345.842	9.32
346.208	9.32
346.573	9.38
346.939	9.52
347.304	9.64
347.67	9.6
348.035	9.66
348.401	9.78
348.766	9.77
349.132	9.72
349.497	9.67
349.862	9.79
350.228	9.78
350.593	9.76
350.958	9.74
351.323	9.82
351.688	9.9
352.053	9.86
352.418	9.87
352.783	9.84
353.148	9.8
353.513	9.89
353.878	9.93
354.243	9.93
354.608	9.89
354.972	9.81
355.337	9.91
355.702	9.95
356.066	9.92
356.431	9.86
356.795	9.81
357.16	9.76
357.524	9.65
357.889	9.58
358.253	9.58
358.618	9.61
358.982	9.53
359.346	9.51
359.71	9.49
360.075	9.52
360.439	9.55
360.803	9.55
361.167	9.51
361.531	9.47
361.895	9.44
362.259	9.35
362.623	9.37
362.987	9.26
363.351	9.25
363.714	9.23
364.078	9.2
364.442	9.18
364.806	9.17
365.169	9.19
365.533	9.2
365.896	9.19
366.26	9.09
366.623	9.15
366.987	9.05
367.35	8.97
367.714	8.89
368.077	8.76
368.44	8.74
368.803	8.64
369.167	8.56
369.53	8.45
369.893	8.47
370.256	8.39
370.619	8.28
370.982	8.11
371.345	8.01
371.708	7.99
372.071	7.88
372.434	7.85
372.797	7.78
373.159	7.79
373.522	7.76
373.885	7.71
374.247	7.65
374.61	7.59
374.973	7.59
375.335	7.51
375.698	7.52
376.06	7.47
376.423	7.41
376.785	7.33
377.147	7.37
377.51	7.29
377.872	7.34
378.234	7.36
378.596	7.31
378.958	7.23
379.321	7.17
379.683	7.19
380.045	7.12
380.407	7.08
380.769	6.97
381.13	6.85
381.492	6.83
381.854	6.77
382.216	6.79
382.578	6.74
382.939	6.65
383.301	6.59
383.663	6.51
384.024	6.44
384.386	6.48
384.747	6.41
385.109	6.35
385.47	6.2
385.832	6.16
386.193	6.17
386.554	6.14
386.916	6.06
387.277	6.01
387.638	5.98
387.999	5.93
388.36	5.92
388.721	5.89
389.082	5.82
389.443	5.75
389.804	5.63
390.165	5.56
390.526	5.52
390.887	5.45
391.248	5.46
391.609	5.43
391.969	5.36
392.33	5.27
392.691	5.23
393.051	5.18
393.412	5.16
393.772	5.08
394.133	5.04
394.493	5.04
394.854	5
395.214	4.96
395.574	4.95
395.935	4.92
396.295	4.9
396.655	4.83
397.015	4.81
397.376	4.77
397.736	4.75
398.096	4.75
398.456	4.72
398.816	4.66
399.176	4.63
399.535	4.59
399.895	4.59
400.255	4.53
400.615	4.53
400.975	4.48
401.334	4.46
401.694	4.45
402.054	4.37
402.413	4.35
402.773	4.32
403.132	4.25
403.492	4.22
403.851	4.17
404.211	4.18
404.57	4.17
404.929	4.2
405.288	4.15
405.648	4.11
406.007	4.09
406.366	4.05
406.725	4.06
407.084	4.05
407.443	4.01
407.802	4.04
408.161	4.01
408.52	3.99
408.879	3.96
409.238	3.93
409.596	3.95
409.955	3.92
410.314	3.9
410.673	3.89
411.031	3.88
411.39	3.89
411.748	3.87
412.107	3.84
412.465	3.8
412.824	3.83
413.182	3.79
413.54	3.8
413.899	3.81
414.257	3.79
414.615	3.74
414.974	3.71
415.332	3.68
415.69	3.65
416.048	3.62
416.406	3.58
416.764	3.54
417.122	3.52
417.48	3.51
417.838	3.49
418.195	3.47
418.553	3.44
418.911	3.41
419.269	3.4
419.626	3.37
419.984	3.35
420.342	3.31
420.699	3.31
421.057	3.26
421.414	3.23
421.772	3.21
422.129	3.21
422.486	3.2
422.844	3.2
423.201	3.19
423.558	3.2
423.915	3.2
424.273	3.2
424.63	3.19
424.987	3.17
425.344	3.14
425.701	3.13
426.058	3.13
426.415	3.12
426.772	3.1
427.128	3.1
427.485	3.1
427.842	3.11
428.199	3.1
428.555	3.1
428.912	3.11
429.269	3.1
429.625	3.08
429.982	3.1
430.338	3.05
430.695	3.05
431.051	3.02
431.407	3.01
431.764	3.01
432.12	3.01
432.476	3
432.832	3.01
433.189	3.02
433.545	3
433.901	3
434.257	3
434.613	2.99
434.969	3
435.325	3.01
435.681	3.02
436.036	3.01
436.392	3.01
436.748	2.99
437.104	2.99
437.459	2.97
437.815	2.98
438.171	2.98
438.526	2.99
438.882	2.99
439.237	3
439.593	2.99
439.948	2.99
440.304	2.98
440.659	2.99
441.014	3
441.369	2.99
441.725	2.98
442.08	2.96
442.435	2.94
442.79	2.94
443.145	2.94
443.5	2.94
443.855	2.94
444.21	2.95
444.565	2.95
444.92	2.96
445.275	2.94
445.629	2.93
445.984	2.91
446.339	2.9
446.693	2.88
447.048	2.87
447.403	2.86
447.757	2.86
448.112	2.84
448.466	2.82
448.82	2.81
449.175	2.82
449.529	2.83
449.883	2.84
450.238	2.82
450.592	2.81
450.946	2.79
451.3	2.78
451.654	2.76
452.008	2.77
452.362	2.76
452.716	2.77
453.07	2.77
453.424	2.78
453.778	2.78
454.132	2.76
454.486	2.78
454.839	2.77
455.193	2.74
455.547	2.73
455.9	2.73
456.254	2.75
456.607	2.74
456.961	2.72
457.314	2.71
457.668	2.72
458.021	2.71
458.375	2.71
458.728	2.7
459.081	2.7
459.434	2.68
459.787	2.67
460.141	2.66
460.494	2.66
460.847	2.67
461.2	2.67
461.553	2.67
461.906	2.67
462.259	2.7
462.611	2.73
462.964	2.76
463.317	2.76
463.67	2.75
464.022	2.76
464.375	2.77
464.728	2.77
465.08	2.79
465.433	2.8
465.785	2.81
466.138	2.84
466.49	2.82
466.843	2.85
467.195	2.87
467.547	2.91
467.899	2.9
468.252	2.9
468.604	2.92
468.956	2.95
469.308	2.95
469.66	2.92
470.012	2.93
470.364	2.94
470.716	2.96
471.068	2.97
471.42	2.99
471.772	3.02
472.123	3.04
472.475	3.04
472.827	3.07
473.178	3.08
473.53	3.11
473.882	3.13
474.233	3.13
474.585	3.12
474.936	3.1
475.288	3.11
475.639	3.12
475.99	3.13
476.342	3.11
476.693	3.12
477.044	3.13
477.395	3.14
477.746	3.11
478.097	3.11
478.448	3.09
478.8	3.08
479.15	3.04
479.501	3.04
479.852	3.01
480.203	3.01
480.554	2.99
480.905	2.99
481.255	2.98
481.606	2.98
481.957	2.98
482.307	2.98
482.658	2.97
483.009	2.96
483.359	2.96
483.709	2.95
484.06	2.96
484.41	2.96
484.761	2.94
485.111	2.94
485.461	2.94
485.811	2.95
486.162	2.95
486.512	2.95
486.862	2.95
487.212	2.95
487.562	2.94
487.912	2.94
488.262	2.93
488.612	2.94
488.961	2.94
489.311	2.94
489.661	2.94
490.011	2.95
490.36	2.96
490.71	2.96
491.06	2.97
491.409	2.97
491.759	2.98
492.108	2.99
492.458	3.01
492.807	3.01
493.157	3.02
493.506	3.04
493.855	3.04
494.204	3.05
494.554	3.08
494.903	3.09
495.252	3.12
495.601	3.16
495.95	3.18
496.299	3.19
496.648	3.21
496.997	3.25
497.346	3.27
497.695	3.31
498.043	3.35
498.392	3.39
498.741	3.42
499.09	3.43
499.438	3.46
499.787	3.51
500.135	3.56
500.484	3.59
500.832	3.62
501.181	3.69
501.529	3.76
501.878	3.83
502.226	3.91
502.574	3.97
502.923	4
503.271	4.08
503.619	4.15
503.967	4.24
504.315	4.3
504.663	4.39
505.011	4.46
505.359	4.52
505.707	4.59
506.055	4.68
506.403	4.77
506.751	4.88
507.098	4.96
507.446	5.04
507.794	5.13
508.141	5.23
508.489	5.31
508.837	5.4
509.184	5.49
509.531	5.6
509.879	5.71
510.226	5.82
510.574	5.92
510.921	6.01
511.268	6.09
511.616	6.21
511.963	6.32
512.31	6.44
512.657	6.58
513.004	6.72
513.351	6.85
513.698	6.99
514.045	7.14
514.392	7.27
514.739	7.43
515.086	7.59
515.432	7.75
515.779	7.89
516.126	8.05
516.473	8.2
516.819	8.33
517.166	8.47
517.512	8.6
517.859	8.74
518.205	8.89
518.552	9.06
518.898	9.19
519.245	9.29
519.591	9.43
519.937	9.56
520.283	9.68
520.629	9.87
520.976	10.02
521.322	10.19
521.668	10.38
522.014	10.55
522.36	10.72
522.706	10.92
523.052	11.12
523.398	11.29
523.743	11.5
524.089	11.71
524.435	11.9
524.781	12.09
525.126	12.27
525.472	12.42
525.817	12.58
526.163	12.72
526.509	12.85
526.854	13
527.199	13.13
527.545	13.28
527.89	13.38
528.235	13.51
528.581	13.65
528.926	13.76
529.271	13.9
529.616	14.06
529.961	14.18
530.306	14.32
530.651	14.48
530.996	14.64
531.341	14.8
531.686	14.97
532.031	15.14
532.376	15.32
532.721	15.51
533.065	15.69
533.41	15.89
533.755	16.1
534.099	16.27
534.444	16.48
534.788	16.67
535.133	16.86
535.477	17.08
535.822	17.26
536.166	17.49
536.51	17.71
536.855	17.93
537.199	18.17
537.543	18.44
537.887	18.69
538.231	18.95
538.576	19.2
538.92	19.46
539.264	19.72
539.608	19.94
539.951	20.16
540.295	20.38
540.639	20.61
540.983	20.83
541.327	21.04
541.671	21.23
542.014	21.43
542.358	21.65
542.701	21.82
543.045	22.04
543.389	22.24
543.732	22.46
544.075	22.69
544.419	22.93
544.762	23.16
545.105	23.4
545.449	23.64
545.792	23.93
546.135	24.21
546.478	24.49
546.821	24.79
547.165	25.1
547.508	25.41
547.851	25.69
548.194	26
548.536	26.29
548.879	26.65
549.222	26.95
549.565	27.28
549.908	27.61
550.25	27.91
550.593	28.21
550.936	28.52
551.278	28.81
551.621	29.1
551.963	29.4
552.306	29.72
552.648	30.06
552.991	30.33
553.333	30.61
553.675	30.89
554.017	31.22
554.36	31.55
554.702	31.78
555.044	32.08
555.386	32.36
555.728	32.66
556.07	32.96
556.412	33.21
556.754	33.48
557.096	33.8
557.438	34.1
557.78	34.45
558.121	34.75
558.463	35.07
558.805	35.31
559.147	35.64
559.488	35.92
559.83	36.17
560.171	36.45
560.513	36.69
560.854	36.95
561.196	37.22
561.537	37.41
561.878	37.62
562.22	37.76
562.561	38.01
562.902	38.22
563.243	38.37
563.584	38.65
563.925	38.89
564.266	39.03
564.607	39.22
564.948	39.43
565.289	39.67
565.63	39.88
565.971	40.14
566.312	40.34
566.653	40.53
566.993	40.73
567.334	40.84
567.675	41.05
568.015	41.29
568.356	41.42
568.696	41.66
569.037	41.85
569.377	42.12
569.718	42.32
570.058	42.59
570.398	42.79
570.739	43
571.079	43.24
571.419	43.43
571.759	43.58
572.099	43.73
572.439	43.88
572.779	44.04
573.119	44.19
573.459	44.31
573.799	44.48
574.139	44.62
574.479	44.85
574.819	45.03
575.158	45.14
575.498	45.31
575.838	45.43
576.177	45.59
576.517	45.73
576.856	45.91
577.196	46.05
577.535	46.23
577.875	46.37
578.214	46.5
578.553	46.66
578.893	46.87
579.232	47.07
579.571	47.26
579.91	47.42
580.25	47.53
580.589	47.66
580.928	47.81
581.267	48.05
581.606	48.18
581.945	48.28
582.283	48.39
582.622	48.56
582.961	48.74
583.3	48.9
583.639	49.11
583.977	49.19
584.316	49.25
584.654	49.33
584.993	49.39
585.332	49.46
585.67	49.62
586.008	49.66
586.347	49.75
586.685	49.85
587.024	49.95
587.362	50.11
587.7	50.19
588.038	50.26
588.376	50.27
588.715	50.37
589.053	50.51
589.391	50.7
589.729	50.75
590.067	50.76
590.404	50.89
590.742	50.92
591.08	50.94
591.418	51.02
591.756	51.16
592.093	51.3
592.431	51.35
592.769	51.45
593.106	51.56
593.444	51.53
593.781	51.59
594.119	51.58
594.456	51.63
594.793	51.69
595.131	51.7
595.468	51.82
595.805	51.88
596.143	51.96
596.48	51.97
596.817	52
597.154	52.16
597.491	52.26
597.828	52.33
598.165	52.42
598.502	52.5
598.839	52.51
599.176	52.53
599.512	52.65
599.849	52.68
600.186	52.74
600.523	52.9
600.859	52.91
601.196	52.99
601.532	53.05
601.869	53.12
602.205	53.2
602.542	53.28
602.878	53.35
603.215	53.32
603.551	53.28
603.887	53.37
604.223	53.36
604.56	53.36
604.896	53.41
605.232	53.52
605.568	53.51
605.904	53.6
606.24	53.63
606.576	53.72
606.912	53.78
607.248	53.82
607.583	53.86
607.919	53.97
608.255	54.05
608.591	54.11
608.926	54.2
609.262	54.25
609.597	54.21
609.933	54.24
610.268	54.36
610.604	54.45
610.939	54.52
611.275	54.61
611.61	54.61
611.945	54.6
612.281	54.62
612.616	54.74
612.951	54.79
613.286	54.91
613.621	54.85
613.956	54.87
614.291	54.94
614.626	54.99
614.961	54.98
615.296	55
615.631	55.02
615.966	55
616.3	55.09
616.635	55.21
616.97	55.29
617.304	55.24
617.639	55.35
617.973	55.31
618.308	55.22
618.642	55.34
618.977	55.44
619.311	55.46
619.646	55.58
619.98	55.66
620.314	55.7
620.648	55.73
620.983	55.8
621.317	55.79
621.651	55.76
621.985	55.85
622.319	55.93
622.653	55.97
622.987	56.1
623.321	56.13
623.655	56.02
623.988	56
624.322	56.04
624.656	56.05
624.99	56.07
625.323	56.2
625.657	56.23
625.99	56.15
626.324	56.23
626.657	56.19
626.991	56.18
627.324	56.2
627.658	56.16
627.991	56.22
628.324	56.24
628.657	56.35
628.991	56.29
629.324	56.31
629.657	56.28
629.99	56.27
630.323	56.32
630.656	56.47
630.989	56.51
631.322	56.6
631.655	56.59
631.987	56.7
632.32	56.76
632.653	56.74
632.986	56.79
633.318	56.76
633.651	56.79
633.984	56.76
634.316	56.82
634.649	56.95
634.981	56.89
635.313	56.87
635.646	56.85
635.978	56.93
636.31	56.91
636.643	57.02
636.975	57
637.307	56.92
637.639	56.92
637.971	57
638.303	56.91
638.635	56.86
638.967	56.75
639.299	56.68
639.631	56.64
639.963	56.66
640.295	56.66
640.626	56.66
640.958	56.68
641.29	56.6
641.621	56.53
641.953	56.57
642.285	56.62
642.616	56.64
642.948	56.72
643.279	56.77
643.61	56.79
643.942	56.81
644.273	56.94
644.604	56.87
644.936	56.8
645.267	56.92
645.598	56.99
645.929	57.03
646.26	57.09
646.591	57.19
646.922	57.14
647.253	57.16
647.584	57.08
647.915	57.08
648.245	57.08
648.576	57.11
648.907	57.03
649.238	57
649.568	56.98
649.899	56.83
650.229	56.9
650.56	56.83
650.89	56.81
651.221	56.81
651.551	56.87
651.882	56.9
652.212	56.94
652.542	57.04
652.872	57.08
653.203	57.01
653.533	56.99
653.863	57.17
654.193	57.11
654.523	57.13
654.853	57.15
655.183	57.14
655.513	57.2
655.843	57.33
656.172	57.38
656.502	57.39
656.832	57.41
657.162	57.32
657.491	57.37
657.821	57.41
658.15	57.34
658.48	57.36
658.809	57.4
659.139	57.35
659.468	57.27
659.798	57.17
660.127	57.27
660.456	57.24
660.785	57.16
661.115	57.19
661.444	57.2
661.773	57.24
662.102	57.3
662.431	57.32
662.76	57.28
663.089	57.35
663.418	57.3
663.747	57.37
664.076	57.44
664.404	57.49
664.733	57.54
665.062	57.47
665.39	57.42
665.719	57.45
666.048	57.57
666.376	57.59
666.705	57.76
667.033	57.64
667.362	57.73
667.69	57.76
668.018	57.87
668.347	57.94
668.675	57.9
669.003	58.01
669.331	57.98
669.659	58.02
669.987	57.89
670.315	58.04
670.643	58
670.971	58.03
671.299	58.02
671.627	58.02
671.955	58.13
672.283	58.15
672.61	58.15
672.938	57.95
673.266	57.98
673.593	57.97
673.921	58.09
674.249	57.9
674.576	57.87
674.904	57.76
675.231	57.75
675.558	57.67
675.886	57.51
676.213	57.35
676.54	57.41
676.867	57.43
677.195	57.36
677.522	57.5
677.849	57.48
678.176	57.39
678.503	57.56
678.83	57.6
679.157	57.6
679.484	57.55
679.81	57.6
680.137	57.56
680.464	57.54
680.791	57.54
681.117	57.67
681.444	57.61
681.771	57.68
682.097	57.67
682.424	57.77
682.75	57.87
683.077	58.13
683.403	58.2
683.729	58.25
684.056	58.26
684.382	58.16
684.708	58.17
685.034	58.25
685.36	58.03
685.686	58.04
686.012	57.93
686.339	58.03
686.664	58.07
686.99	58.2
687.316	58.16
687.642	58.13
687.968	58.08
688.294	58.16
688.619	58.17
688.945	58.24
689.271	58.12
689.596	57.92
689.922	57.85
690.247	57.74
690.573	57.65
690.898	57.54
691.224	57.5
691.549	57.43
691.874	57.44
692.2	57.53
692.525	57.55
692.85	57.72
693.175	57.6
693.5	57.57
693.825	57.61
694.15	57.76
694.475	57.65
694.8	57.79
695.125	57.76
695.45	57.73
695.775	57.7
696.099	57.71
696.424	57.87
696.749	57.74
697.073	57.75
697.398	57.79
697.723	57.95
698.047	57.96
698.372	57.98
698.696	57.96
699.02	57.89
699.345	57.84
699.669	57.8
699.993	57.79
700.318	57.73
700.642	57.59
700.966	57.5
701.29	57.65
701.614	57.53
701.938	57.58
702.262	57.53
702.586	57.45
702.91	57.5
703.234	57.38
703.557	57.63
703.881	57.66
704.205	57.77
704.529	57.79
704.852	57.87
705.176	57.87
705.499	57.88
705.823	57.88
706.146	58.08
706.47	58.21
706.793	58.36
707.117	58.32
707.44	58.35
707.763	58.53
708.086	58.41
708.409	58.48
708.733	58.38
709.056	58.46
709.379	58.45
709.702	58.71
710.025	58.76
710.348	58.65
710.671	58.67
710.993	58.52
711.316	58.54
711.639	58.49
711.962	58.54
712.284	58.44
712.607	58.52
712.93	58.26
713.252	58.17
713.575	58.15
713.897	58.1
714.22	58.11
714.542	57.79
714.864	57.6
715.187	57.55
715.509	57.49
715.831	57.57
716.153	57.54
716.475	57.31
716.798	57.52
717.12	57.6
717.442	57.67
717.764	57.87
718.085	57.74
718.407	57.82
718.729	57.64
719.051	57.86
719.373	57.89
719.695	57.97
720.016	57.85
720.338	57.72
720.659	58.09
720.981	58.07
721.302	58.37
721.624	58.73
721.945	58.71
722.267	58.69
722.588	58.55
722.909	58.65
723.231	58.8
723.552	58.66
723.873	58.51
724.194	58.41
724.515	58.3
724.836	58.13
725.157	58.19
725.478	58.46
725.799	58.39
726.12	58.35
726.441	58.2
726.762	58.44
727.083	58.46
727.403	58.55
727.724	58.82
728.045	58.79
728.365	58.53
728.686	58.67
729.006	58.85
729.327	58.99
729.647	59
729.967	58.83
730.288	58.76
730.608	58.69
730.928	58.48
731.249	58.56
731.569	58.82
731.889	58.68
732.209	58.72
732.529	58.8
732.849	58.74
733.169	58.75
733.489	58.7
733.809	58.67
734.129	58.4
734.448	58.24
734.768	58.01
735.088	58.2
735.408	58.03
735.727	58.13
736.047	57.96
736.366	57.92
736.686	58.01
737.005	57.86
737.325	57.95
737.644	58.08
737.963	58.02
738.283	58.14
738.602	58.04
738.921	57.83
739.24	57.53
739.56	57.63
739.879	57.94
740.198	57.68
740.517	57.7
740.836	57.71
741.155	57.61
741.473	57.38
741.792	57.08
742.111	57.37
742.43	57.22
742.748	57.3
743.067	57.49
743.386	57.61
743.704	57.77
744.023	57.83
744.341	57.72
744.66	57.83
744.978	57.64
745.297	57.88
745.615	58.01
745.933	58.24
746.252	58.05
746.57	57.71
746.888	57.64
747.206	57.54
747.524	57.81
747.842	57.87
748.16	58.44
748.478	58.59
748.796	58.31
749.114	58.43
749.432	58.41
749.749	58.25
750.067	58.21
750.385	58.24
750.703	58.35
751.02	58.62
751.338	58.47
751.655	58.3
751.973	58.42
752.29	58.25
752.608	58.24
752.925	58.55
753.242	58.74
753.56	59.1
753.877	59.05
754.194	58.68
754.511	58.59
754.828	58.39
755.145	58.51
755.462	58.82
755.779	58.8
756.096	58.79
756.413	58.75
756.73	58.82
757.047	58.78
757.364	58.6
757.68	58.51
757.997	58.45
758.314	58.74
758.63	58.14
758.947	58.29
759.264	58.43
759.58	58.26
759.896	58.32
760.213	58.3
760.529	58.33
760.846	58.27
761.162	58.38
761.478	58.31
761.794	58.5
762.11	58.38
762.426	58.47
762.743	58.5
763.059	58.59
763.375	58.56
763.69	58.61
764.006	58.67
764.322	58.72
764.638	59.09
764.954	58.97
765.27	59.21
765.585	59.32
765.901	59.12
766.216	58.81
766.532	58.73
766.848	58.7
767.163	58.91
767.478	59.09
767.794	58.99
768.109	59.12
768.424	59
768.74	58.8
769.055	58.96
769.37	59.03
769.685	59.02
770	59
770.315	58.85
770.63	58.72
770.945	58.59
771.26	58.22
771.575	58.23
771.89	58.54
772.205	58.54
772.52	58.54
772.834	59.05
773.149	59.32
773.464	59.12
773.778	58.83
774.093	58.85
774.407	58.81
774.722	58.89
775.036	58.66
775.351	58.8
775.665	58.23
775.979	58.03
776.293	57.62
776.608	57.34
776.922	57.56
777.236	57.75
777.55	57.35
777.864	57.29
778.178	57.45
778.492	57.37
778.806	57.3
779.12	57.54
779.434	57.45
779.747	57.5
780.061	57.76
780.375	57.57
780.689	57.72
781.002	57.5
781.316	57.3
781.629	57.63
781.943	58
782.256	58.53
782.57	58.71
782.883	59
783.196	58.79
783.51	58.7
783.823	58.59
784.136	58.81
784.449	58.97
784.762	58.79
785.075	58.56
785.388	58.13
785.701	58.05
786.014	57.63
786.327	56.87
786.64	56.96
786.953	57.35
787.266	57
787.578	57.34
787.891	57.39
788.204	57.37
788.516	57.33
788.829	56.49
789.141	55.98
789.454	56.49
789.766	56.41
790.079	56.42
790.391	56
790.703	56.32
791.016	55.99
791.328	55.98
791.64	56.03
791.952	56.07
792.264	55.66
792.576	55.9
792.888	55.99
793.2	55.41
793.512	55.06
793.824	55.59
794.136	55.95
794.448	55.93
794.76	55.76
795.071	55.66
795.383	56.33
795.695	56.75
796.006	56.32
796.318	56.42
796.629	56.51
796.941	56.94
797.252	56.81
797.564	56.96
797.875	56.89
798.186	56.81
798.497	56.82
798.809	57.48
799.12	57.77
799.431	58.25
799.742	58.81
800.053	59.26
800.364	58.84
800.675	58.49
800.986	58.34
801.297	58.56
801.608	58.52
801.918	58.21
802.229	58.1
802.54	58.27
802.851	59.1
803.161	58.94
803.472	58.41
803.782	58.56
804.093	58.17
804.403	57.91
804.714	58.16
805.024	58.38
805.334	58.41
805.645	58.27
805.955	58.3
806.265	58
806.575	57.45
806.885	57.58
807.195	57.39
807.505	57.59
807.815	57.39
808.125	56.87
808.435	56.45
808.745	56.42
809.055	56.4
809.365	56
809.674	55.97
809.984	56.46
810.294	56.64
810.603	56.96
810.913	56.9
811.222	56.34
811.532	55.83
811.841	55.84
812.151	55.97
812.46	55.69
812.769	55.35
813.079	55.36
813.388	54.73
813.697	54.43
814.006	54.19
814.315	54.45
814.624	54.61
814.933	54.97
815.242	55.1
815.551	54.94
815.86	54.54
816.169	54.07
816.478	54.14
816.786	53.45
817.095	53.36
817.404	53.92
817.712	54.66
818.021	54.79
818.33	54.51
818.638	54.7
818.947	54.93
819.255	54.81
819.563	55.58
819.872	56.27
820.18	56.72
820.488	56.84
820.796	56.89
821.105	56.89
821.413	57.34
821.721	57.32
822.029	57.18
822.337	57.62
822.645	57.85
822.953	57.97
823.26	58.14
823.568	58.23
823.876	58.29
824.184	58.14
824.491	58.27
824.799	58.4
825.107	58.04
825.414	58.24
825.722	58.77
826.029	58.67
826.337	58.56
826.644	58.52
826.951	58.52
827.259	58.54
827.566	58.72
827.873	58.63
828.18	58.85
828.488	58.99
828.795	58.61
829.102	58.64
829.409	58.6
829.716	58.49
830.023	58.47
830.329	58.52
830.636	58.5
830.943	58.61
831.25	58.65
831.557	59.4
831.863	59.47
832.17	59.28
832.476	59.35
832.783	59.58
833.089	59.69
833.396	60.11
833.702	60.07
834.009	60.1
834.315	59.66
834.621	59.38
834.928	59.48
835.234	59.24
835.54	58.93
835.846	58.69
836.152	58.81
836.458	58.95
836.764	58.29
837.07	58.71
837.376	58.82
837.682	58.37
837.988	58.42
838.293	58.29
838.599	57.93
838.905	58.22
839.211	57.92
839.516	57.54
839.822	57.4
840.127	57.68
840.433	58.06
840.738	58.01
841.044	57.87
841.349	57.4
841.654	58.57
841.959	59.04
842.265	60.79
842.57	60.94
842.875	60.48
843.18	61.27
843.485	61.26
843.79	60.73
844.095	60.82
844.4	62.43
844.705	61.25
845.01	61.89
845.315	61.87
845.619	61.98
845.924	62.71
846.229	61.6
846.533	60.24
846.838	59.51
847.142	59.53
847.447	59.89
847.751	61.42
848.056	61.16
848.36	60.67
848.664	58.15
848.969	57.44
849.273	58.8
849.577	59.44
849.881	58.95
850.185	58.28
850.489	60.24
850.794	57.63
851.097	59.74
851.401	58.68
851.705	57.71
852.009	59.47
852.313	60.29
852.617	61.93
852.92	63.25
853.224	61.54
853.528	63.31
853.831	63
854.135	61.71
854.438	60.56
854.742	60.56
855.045	60.14
855.349	59.78
855.652	57.67
855.955	56.2
856.259	56.04
856.562	58.23
856.865	57.72
857.168	58.69
857.471	57.7
857.774	57.04
858.077	57.33
858.38	55.78
858.683	53.89
858.986	53.84
859.289	55.2
859.592	58.13
859.894	55.68
860.197	55.64
860.5	54.99
860.802	55.78
861.105	56.98
861.407	56.66
861.71	57.96
862.012	57.08
862.315	56.95
862.617	58.45
862.919	55.76
863.222	54.12
863.524	52.79
863.826	52.4
864.128	53.58
864.43	54.48
864.732	55.31
865.034	56.59
865.336	56.34
865.638	54.09
865.94	52.3
866.242	54.85
866.544	55.02
866.846	57.16
867.147	56.24
867.449	53.98
867.751	53.73
868.052	52.11
868.354	54.88
868.655	57.86
868.957	56.73
869.258	57.76
869.56	60.53
869.861	62.93
870.162	63.12
870.463	60.87
870.765	60.39
871.066	59.85
871.367	61.22
871.668	61.78
871.969	61.08
872.27	63.16
872.571	58.96
872.872	59.8
873.173	56.65
873.473	59.7
873.774	59.77
874.075	59.93
874.376	62.99
874.676	64.04
874.977	62.46
875.277	62.99
875.578	61.8
875.878	59.42
876.179	57.98
876.479	58.05
876.78	59.7
877.08	58.77
877.38	58.93
877.68	57.18
877.981	56.23
878.281	58.26
878.581	55.07
