Data from BU56854_Reflection_00006.txt Node
Date: Mon Nov 18 16:26:51 EST 2019
User: vgr7
Spectrometer: USB2G7710
Scans to average: 3
Trigger mode: 4
Integration Time (sec): 2.000000E-2
Electric dark correction enabled: true
Boxcar width: 10
XAxis mode: Wavelengths
Number of Pixels in Spectrum: 2048
>>>>>Begin Spectral Data<<<<<
177.721	-16.43
178.105	64.07
178.488	985.25
178.871	-27.84
179.254	-45.51
179.636	13.08
180.019	-110.41
180.402	118.18
180.785	38.06
181.168	40.9
181.55	22.77
181.933	44.58
182.316	52.4
182.698	65.16
183.081	45.32
183.463	25.97
183.846	3.18
184.228	15.63
184.611	46.93
184.993	68.4
185.376	41.49
185.758	100
186.14	194.04
186.522	281.27
186.904	-401.9
187.287	-478.78
187.669	-195.71
188.051	-11194.12
188.433	-255.18
188.815	-33.72
189.197	-19.48
189.579	-2.47
189.961	-31.04
190.342	-20.99
190.724	-19.23
191.106	-50.05
191.488	-57.84
191.869	-53.65
192.251	-50.43
192.633	-32
193.014	-42.09
193.396	-35.65
193.777	-34.34
194.159	-26.03
194.54	-18.84
194.922	-13.93
195.303	-14.48
195.684	-19.27
196.065	-8.32
196.447	-29.94
196.828	-34.28
197.209	-34.67
197.59	-35
197.971	-35.23
198.352	-29.98
198.733	-44.45
199.114	-35.83
199.495	-43.36
199.876	-43.04
200.257	-49.2
200.638	-52.4
201.018	-52.01
201.399	-49.81
201.78	-32.85
202.16	-52.76
202.541	-87.65
202.922	-105.6
203.302	-127.82
203.683	-122.52
204.063	-154.64
204.444	-108.09
204.824	-128.59
205.204	-111.47
205.585	-118.06
205.965	-101.18
206.345	-140.88
206.725	-114.34
207.106	-139.38
207.486	-158.02
207.866	-160.76
208.246	-142.23
208.626	-153.52
209.006	-115.86
209.386	-214.87
209.766	-254.7
210.145	-187.98
210.525	-110.2
210.905	-91.01
211.285	-83.12
211.664	-67.64
212.044	-71.02
212.424	-64.49
212.803	-55.44
213.183	-38.74
213.562	-35.01
213.942	-26.72
214.321	-15.8
214.701	-16.95
215.08	-9.61
215.459	-8.4
215.838	-13.38
216.218	-13.5
216.597	-1.97
216.976	-1.65
217.355	10.72
217.734	3
218.113	5.59
218.492	12.62
218.871	7.21
219.25	13.03
219.629	4.94
220.008	10.76
220.387	5.11
220.766	5.19
221.144	-12.32
221.523	-22.19
221.902	-19.8
222.28	-31.11
222.659	-35.34
223.037	-31.44
223.416	-30.93
223.794	-40.42
224.173	-36.31
224.551	-34.71
224.929	-34.7
225.308	-36.53
225.686	-30.93
226.064	-26.69
226.442	-23.96
226.821	-17.94
227.199	-16.51
227.577	-11.46
227.955	-12.7
228.333	-9.11
228.711	-8.39
229.089	-2.48
229.467	-3.51
229.845	-5.84
230.222	-4.46
230.6	-2.89
230.978	-3.87
231.356	-2.09
231.733	0.62
232.111	0.96
232.488	1.78
232.866	1.47
233.243	1.91
233.621	1.97
233.998	1.4
234.376	-1.07
234.753	-0.41
235.13	-0.35
235.508	-1.51
235.885	-1.95
236.262	-2.12
236.639	-2.53
237.016	-3.12
237.393	-0.58
237.77	0.39
238.147	1.08
238.524	1.77
238.901	2.46
239.278	2.96
239.655	3.59
240.032	4.52
240.409	4.05
240.785	3.91
241.162	3.9
241.539	4.4
241.915	4.36
242.292	4.79
242.668	4.41
243.045	4.5
243.421	4.6
243.798	4.81
244.174	4.71
244.551	4.76
244.927	4.83
245.303	4.71
245.679	4.78
246.056	4.66
246.432	4.64
246.808	4.85
247.184	4.53
247.56	4.27
247.936	3.91
248.312	3.88
248.688	4.06
249.064	3.91
249.44	3.84
249.815	3.87
250.191	3.92
250.567	3.97
250.943	3.91
251.318	3.97
251.694	4.21
252.069	4.21
252.445	4.24
252.82	4.44
253.196	4.6
253.571	4.74
253.947	4.79
254.322	4.75
254.697	4.21
255.073	4.15
255.448	4.09
255.823	4.18
256.198	4.19
256.573	4.06
256.948	4.21
257.323	4.16
257.698	4.15
258.073	4.08
258.448	3.96
258.823	4.12
259.198	3.97
259.573	3.8
259.948	3.52
260.322	3.61
260.697	3.33
261.072	3.28
261.446	3.13
261.821	3.03
262.195	3.09
262.57	3.14
262.944	3.12
263.319	3.12
263.693	3.09
264.067	3.17
264.442	3.27
264.816	3.19
265.19	3.22
265.564	3.2
265.938	3.21
266.313	3.17
266.687	2.94
267.061	3.05
267.435	3.25
267.809	3.65
268.183	3.49
268.556	3.63
268.93	3.72
269.304	3.88
269.678	4.02
270.051	4.01
270.425	4.1
270.799	4.17
271.172	4.18
271.546	4.15
271.919	3.88
272.293	3.71
272.666	3.78
273.04	3.7
273.413	3.59
273.787	3.66
274.16	3.81
274.533	3.83
274.906	3.73
275.279	3.47
275.653	3.29
276.026	3.29
276.399	3.25
276.772	3.24
277.145	3.1
277.518	3.05
277.891	3.06
278.263	3.04
278.636	3.07
279.009	3.01
279.382	3.09
279.755	3.21
280.127	3.38
280.5	3.37
280.872	3.39
281.245	3.39
281.617	3.26
281.99	3.22
282.362	3.13
282.735	3.18
283.107	3.32
283.479	3.45
283.852	3.41
284.224	3.55
284.596	3.47
284.968	3.49
285.34	3.5
285.713	3.35
286.085	3.3
286.457	3.3
286.829	3.38
287.201	3.41
287.572	3.42
287.944	3.27
288.316	3.32
288.688	3.29
289.06	3.36
289.431	3.38
289.803	3.39
290.175	3.4
290.546	3.41
290.918	3.31
291.289	3.12
291.661	3.12
292.032	3.09
292.403	3.15
292.775	3.21
293.146	3.23
293.517	3.25
293.889	3.3
294.26	3.28
294.631	3.31
295.002	3.14
295.373	3.3
295.744	3.35
296.115	3.32
296.486	3.23
296.857	3.18
297.228	3.2
297.599	3.17
297.97	3.22
298.34	3.23
298.711	3.42
299.082	3.54
299.452	3.59
299.823	3.53
300.194	3.51
300.564	3.41
300.935	3.36
301.305	3.42
301.676	3.5
302.046	3.49
302.416	3.51
302.787	3.57
303.157	3.44
303.527	3.34
303.897	3.29
304.267	3.55
304.637	3.61
305.008	3.63
305.378	3.69
305.748	3.75
306.117	3.72
306.487	3.53
306.857	3.47
307.227	3.52
307.597	3.47
307.967	3.45
308.336	3.51
308.706	3.54
309.076	3.52
309.445	3.38
309.815	3.3
310.184	3.18
310.554	3.24
310.923	3.22
311.293	3.36
311.662	3.31
312.031	3.25
312.401	3.19
312.77	3.37
313.139	3.44
313.508	3.42
313.877	3.45
314.246	3.52
314.616	3.51
314.985	3.48
315.353	3.45
315.722	3.36
316.091	3.29
316.46	3.21
316.829	3.2
317.198	3.23
317.567	3.27
317.935	3.29
318.304	3.33
318.672	3.31
319.041	3.44
319.41	3.39
319.778	3.29
320.147	3.31
320.515	3.12
320.883	3
321.252	3.06
321.62	2.95
321.988	2.79
322.357	2.93
322.725	2.78
323.093	2.89
323.461	3.03
323.829	3.1
324.197	3.12
324.565	3.16
324.933	3.14
325.301	3.16
325.669	3.08
326.037	2.97
326.405	3
326.772	2.81
327.14	2.88
327.508	2.95
327.875	2.92
328.243	2.95
328.61	3.04
328.978	2.9
329.346	3.08
329.713	3.14
330.08	3.08
330.448	3.14
330.815	3.02
331.182	2.9
331.55	2.91
331.917	2.99
332.284	3.05
332.651	3.06
333.018	3.02
333.385	3.17
333.752	3.38
334.119	3.36
334.486	3.36
334.853	3.29
335.22	3.2
335.587	3.13
335.954	3.09
336.32	2.94
336.687	3.03
337.054	2.86
337.42	2.84
337.787	2.94
338.153	3
338.52	3.11
338.886	3.16
339.253	3.08
339.619	3.04
339.986	2.92
340.352	2.95
340.718	2.97
341.084	2.91
341.451	2.85
341.817	2.94
342.183	2.89
342.549	2.93
342.915	2.99
343.281	3.08
343.647	3.09
344.013	3.15
344.379	3.04
344.745	3.13
345.11	3.19
345.476	3.04
345.842	2.98
346.208	2.9
346.573	2.9
346.939	3.01
347.304	3.02
347.67	2.99
348.035	2.99
348.401	2.99
348.766	2.97
349.132	2.91
349.497	2.77
349.862	2.91
350.228	2.93
350.593	2.89
350.958	2.99
351.323	2.95
351.688	2.96
352.053	3.03
352.418	2.98
352.783	2.92
353.148	2.96
353.513	2.99
353.878	3.09
354.243	3.09
354.608	3.17
354.972	3.13
355.337	3.27
355.702	3.29
356.066	3.33
356.431	3.37
356.795	3.42
357.16	3.49
357.524	3.39
357.889	3.31
358.253	3.33
358.618	3.27
358.982	3.29
359.346	3.22
359.71	3.17
360.075	3.22
360.439	3.28
360.803	3.33
361.167	3.35
361.531	3.32
361.895	3.34
362.259	3.27
362.623	3.32
362.987	3.28
363.351	3.26
363.714	3.22
364.078	3.22
364.442	3.19
364.806	3.17
365.169	3.16
365.533	3.21
365.896	3.16
366.26	3.16
366.623	3.15
366.987	3.18
367.35	3.25
367.714	3.18
368.077	3.14
368.44	3.14
368.803	3.12
369.167	3.1
369.53	3.09
369.893	3.1
370.256	3.1
370.619	3.06
370.982	2.97
371.345	2.96
371.708	2.91
372.071	2.88
372.434	2.91
372.797	2.97
373.159	2.95
373.522	3.01
373.885	3.05
374.247	3.06
374.61	3.1
374.973	3.05
375.335	3.09
375.698	3.1
376.06	3.06
376.423	3.04
376.785	3.05
377.147	3
377.51	2.98
377.872	2.98
378.234	3.03
378.596	3.1
378.958	3.09
379.321	3.11
379.683	3.14
380.045	3.12
380.407	3.11
380.769	3.15
381.13	3.1
381.492	3.08
381.854	3.08
382.216	2.98
382.578	3
382.939	2.98
383.301	2.93
383.663	2.91
384.024	2.92
384.386	2.92
384.747	2.93
385.109	2.89
385.47	2.83
385.832	2.81
386.193	2.76
386.554	2.8
386.916	2.77
387.277	2.74
387.638	2.72
387.999	2.72
388.36	2.7
388.721	2.77
389.082	2.76
389.443	2.72
389.804	2.75
390.165	2.72
390.526	2.71
390.887	2.72
391.248	2.72
391.609	2.72
391.969	2.7
392.33	2.71
392.691	2.73
393.051	2.76
393.412	2.8
393.772	2.82
394.133	2.79
394.493	2.8
394.854	2.82
395.214	2.84
395.574	2.82
395.935	2.83
396.295	2.82
396.655	2.79
397.015	2.81
397.376	2.85
397.736	2.85
398.096	2.86
398.456	2.89
398.816	2.89
399.176	2.86
399.535	2.85
399.895	2.83
400.255	2.83
400.615	2.83
400.975	2.77
401.334	2.79
401.694	2.79
402.054	2.81
402.413	2.76
402.773	2.77
403.132	2.78
403.492	2.78
403.851	2.77
404.211	2.77
404.57	2.74
404.929	2.74
405.288	2.75
405.648	2.73
406.007	2.7
406.366	2.71
406.725	2.78
407.084	2.78
407.443	2.79
407.802	2.8
408.161	2.78
408.52	2.78
408.879	2.78
409.238	2.79
409.596	2.76
409.955	2.78
410.314	2.79
410.673	2.77
411.031	2.75
411.39	2.74
411.748	2.74
412.107	2.76
412.465	2.74
412.824	2.73
413.182	2.75
413.54	2.76
413.899	2.72
414.257	2.7
414.615	2.69
414.974	2.69
415.332	2.69
415.69	2.68
416.048	2.69
416.406	2.67
416.764	2.67
417.122	2.68
417.48	2.67
417.838	2.66
418.195	2.68
418.553	2.68
418.911	2.69
419.269	2.71
419.626	2.71
419.984	2.71
420.342	2.71
420.699	2.71
421.057	2.71
421.414	2.72
421.772	2.71
422.129	2.73
422.486	2.72
422.844	2.71
423.201	2.69
423.558	2.69
423.915	2.69
424.273	2.71
424.63	2.7
424.987	2.69
425.344	2.7
425.701	2.69
426.058	2.68
426.415	2.68
426.772	2.66
427.128	2.64
427.485	2.64
427.842	2.66
428.199	2.65
428.555	2.65
428.912	2.68
429.269	2.68
429.625	2.67
429.982	2.66
430.338	2.67
430.695	2.71
431.051	2.71
431.407	2.73
431.764	2.73
432.12	2.73
432.476	2.76
432.832	2.73
433.189	2.73
433.545	2.74
433.901	2.73
434.257	2.75
434.613	2.76
434.969	2.76
435.325	2.75
435.681	2.75
436.036	2.74
436.392	2.73
436.748	2.72
437.104	2.71
437.459	2.73
437.815	2.71
438.171	2.7
438.526	2.7
438.882	2.7
439.237	2.69
439.593	2.68
439.948	2.67
440.304	2.66
440.659	2.67
441.014	2.68
441.369	2.68
441.725	2.68
442.08	2.67
442.435	2.67
442.79	2.66
443.145	2.66
443.5	2.65
443.855	2.64
444.21	2.64
444.565	2.64
444.92	2.65
445.275	2.66
445.629	2.65
445.984	2.66
446.339	2.65
446.693	2.65
447.048	2.65
447.403	2.66
447.757	2.65
448.112	2.65
448.466	2.64
448.82	2.63
449.175	2.63
449.529	2.64
449.883	2.63
450.238	2.62
450.592	2.63
450.946	2.63
451.3	2.65
451.654	2.65
452.008	2.65
452.362	2.64
452.716	2.65
453.07	2.66
453.424	2.65
453.778	2.67
454.132	2.67
454.486	2.68
454.839	2.67
455.193	2.68
455.547	2.68
455.9	2.7
456.254	2.7
456.607	2.7
456.961	2.7
457.314	2.71
457.668	2.73
458.021	2.71
458.375	2.72
458.728	2.71
459.081	2.7
459.434	2.7
459.787	2.71
460.141	2.72
460.494	2.71
460.847	2.72
461.2	2.69
461.553	2.69
461.906	2.68
462.259	2.69
462.611	2.7
462.964	2.69
463.317	2.68
463.67	2.67
464.022	2.68
464.375	2.66
464.728	2.65
465.08	2.66
465.433	2.66
465.785	2.65
466.138	2.65
466.49	2.66
466.843	2.64
467.195	2.64
467.547	2.66
467.899	2.67
468.252	2.66
468.604	2.68
468.956	2.68
469.308	2.69
469.66	2.7
470.012	2.7
470.364	2.69
470.716	2.72
471.068	2.72
471.42	2.72
471.772	2.76
472.123	2.77
472.475	2.74
472.827	2.77
473.178	2.78
473.53	2.79
473.882	2.79
474.233	2.83
474.585	2.79
474.936	2.77
475.288	2.78
475.639	2.8
475.99	2.78
476.342	2.78
476.693	2.79
477.044	2.79
477.395	2.8
477.746	2.8
478.097	2.79
478.448	2.8
478.8	2.79
479.15	2.77
479.501	2.77
479.852	2.78
480.203	2.77
480.554	2.78
480.905	2.78
481.255	2.78
481.606	2.78
481.957	2.8
482.307	2.8
482.658	2.8
483.009	2.8
483.359	2.79
483.709	2.8
484.06	2.79
484.41	2.79
484.761	2.79
485.111	2.8
485.461	2.79
485.811	2.79
486.162	2.79
486.512	2.8
486.862	2.8
487.212	2.8
487.562	2.8
487.912	2.8
488.262	2.8
488.612	2.78
488.961	2.78
489.311	2.78
489.661	2.78
490.011	2.79
490.36	2.78
490.71	2.79
491.06	2.79
491.409	2.79
491.759	2.78
492.108	2.79
492.458	2.78
492.807	2.77
493.157	2.77
493.506	2.77
493.855	2.76
494.204	2.76
494.554	2.75
494.903	2.74
495.252	2.73
495.601	2.75
495.95	2.77
496.299	2.76
496.648	2.76
496.997	2.75
497.346	2.75
497.695	2.74
498.043	2.73
498.392	2.75
498.741	2.76
499.09	2.77
499.438	2.77
499.787	2.8
500.135	2.82
500.484	2.82
500.832	2.83
501.181	2.83
501.529	2.83
501.878	2.86
502.226	2.9
502.574	2.9
502.923	2.87
503.271	2.86
503.619	2.89
503.967	2.89
504.315	2.87
504.663	2.88
505.011	2.89
505.359	2.91
505.707	2.92
506.055	2.91
506.403	2.91
506.751	2.93
507.098	2.91
507.446	2.93
507.794	2.93
508.141	2.94
508.489	2.96
508.837	2.97
509.184	2.98
509.531	2.97
509.879	2.97
510.226	3.02
510.574	3.03
510.921	3.01
511.268	3.03
511.616	3.04
511.963	3.07
512.31	3.08
512.657	3.08
513.004	3.06
513.351	3.08
513.698	3.08
514.045	3.06
514.392	3.05
514.739	3.05
515.086	3.04
515.432	3.03
515.779	3.01
516.126	3.02
516.473	3.02
516.819	3.03
517.166	3.03
517.512	3.01
517.859	3.02
518.205	3
518.552	3.01
518.898	3
519.245	3
519.591	3
519.937	2.98
520.283	2.98
520.629	2.98
520.976	2.99
521.322	3.01
521.668	3.02
522.014	3.02
522.36	3.03
522.706	3.05
523.052	3.05
523.398	3.05
523.743	3.06
524.089	3.05
524.435	3.05
524.781	3.05
525.126	3.06
525.472	3.06
525.817	3.06
526.163	3.08
526.509	3.08
526.854	3.09
527.199	3.1
527.545	3.11
527.89	3.13
528.235	3.13
528.581	3.14
528.926	3.15
529.271	3.15
529.616	3.15
529.961	3.15
530.306	3.16
530.651	3.15
530.996	3.15
531.341	3.16
531.686	3.17
532.031	3.19
532.376	3.19
532.721	3.2
533.065	3.2
533.41	3.19
533.755	3.19
534.099	3.18
534.444	3.18
534.788	3.19
535.133	3.17
535.477	3.16
535.822	3.14
536.166	3.13
536.51	3.14
536.855	3.14
537.199	3.14
537.543	3.13
537.887	3.13
538.231	3.12
538.576	3.11
538.92	3.12
539.264	3.11
539.608	3.12
539.951	3.13
540.295	3.12
540.639	3.13
540.983	3.13
541.327	3.12
541.671	3.11
542.014	3.1
542.358	3.11
542.701	3.12
543.045	3.13
543.389	3.14
543.732	3.13
544.075	3.14
544.419	3.13
544.762	3.12
545.105	3.12
545.449	3.15
545.792	3.15
546.135	3.15
546.478	3.15
546.821	3.14
547.165	3.13
547.508	3.14
547.851	3.16
548.194	3.16
548.536	3.18
548.879	3.21
549.222	3.22
549.565	3.2
549.908	3.2
550.25	3.23
550.593	3.23
550.936	3.2
551.278	3.21
551.621	3.23
551.963	3.26
552.306	3.26
552.648	3.27
552.991	3.29
553.333	3.26
553.675	3.27
554.017	3.26
554.36	3.28
554.702	3.3
555.044	3.31
555.386	3.3
555.728	3.31
556.07	3.31
556.412	3.31
556.754	3.34
557.096	3.36
557.438	3.36
557.78	3.36
558.121	3.42
558.463	3.4
558.805	3.4
559.147	3.37
559.488	3.36
559.83	3.32
560.171	3.31
560.513	3.36
560.854	3.36
561.196	3.36
561.537	3.34
561.878	3.32
562.22	3.31
562.561	3.28
562.902	3.29
563.243	3.28
563.584	3.27
563.925	3.24
564.266	3.23
564.607	3.23
564.948	3.24
565.289	3.24
565.63	3.24
565.971	3.24
566.312	3.24
566.653	3.24
566.993	3.24
567.334	3.23
567.675	3.22
568.015	3.22
568.356	3.22
568.696	3.24
569.037	3.23
569.377	3.23
569.718	3.24
570.058	3.21
570.398	3.2
570.739	3.19
571.079	3.24
571.419	3.25
571.759	3.25
572.099	3.24
572.439	3.23
572.779	3.22
573.119	3.25
573.459	3.26
573.799	3.27
574.139	3.29
574.479	3.3
574.819	3.28
575.158	3.29
575.498	3.31
575.838	3.27
576.177	3.27
576.517	3.26
576.856	3.29
577.196	3.31
577.535	3.33
577.875	3.32
578.214	3.29
578.553	3.27
578.893	3.27
579.232	3.27
579.571	3.3
579.91	3.31
580.25	3.26
580.589	3.25
580.928	3.25
581.267	3.26
581.606	3.27
581.945	3.23
582.283	3.2
582.622	3.17
582.961	3.2
583.3	3.24
583.639	3.29
583.977	3.3
584.316	3.27
584.654	3.27
584.993	3.29
585.332	3.28
585.67	3.3
586.008	3.32
586.347	3.31
586.685	3.31
587.024	3.3
587.362	3.33
587.7	3.36
588.038	3.39
588.376	3.39
588.715	3.38
589.053	3.42
589.391	3.45
589.729	3.53
590.067	3.51
590.404	3.47
590.742	3.45
591.08	3.42
591.418	3.43
591.756	3.44
592.093	3.46
592.431	3.46
592.769	3.47
593.106	3.47
593.444	3.45
593.781	3.43
594.119	3.48
594.456	3.46
594.793	3.44
595.131	3.4
595.468	3.41
595.805	3.37
596.143	3.38
596.48	3.37
596.817	3.34
597.154	3.38
597.491	3.39
597.828	3.38
598.165	3.4
598.502	3.42
598.839	3.44
599.176	3.45
599.512	3.48
599.849	3.48
600.186	3.46
600.523	3.51
600.859	3.54
601.196	3.51
601.532	3.49
601.869	3.48
602.205	3.49
602.542	3.49
602.878	3.53
603.215	3.51
603.551	3.54
603.887	3.54
604.223	3.52
604.56	3.53
604.896	3.55
605.232	3.58
605.568	3.54
605.904	3.52
606.24	3.52
606.576	3.45
606.912	3.42
607.248	3.45
607.583	3.44
607.919	3.43
608.255	3.44
608.591	3.49
608.926	3.5
609.262	3.52
609.597	3.5
609.933	3.5
610.268	3.5
610.604	3.45
610.939	3.45
611.275	3.41
611.61	3.43
611.945	3.39
612.281	3.32
612.616	3.32
612.951	3.34
613.286	3.39
613.621	3.45
613.956	3.47
614.291	3.45
614.626	3.43
614.961	3.42
615.296	3.4
615.631	3.36
615.966	3.38
616.3	3.37
616.635	3.37
616.97	3.36
617.304	3.33
617.639	3.36
617.973	3.35
618.308	3.37
618.642	3.36
618.977	3.39
619.311	3.42
619.646	3.48
619.98	3.47
620.314	3.39
620.648	3.39
620.983	3.4
621.317	3.44
621.651	3.46
621.985	3.52
622.319	3.52
622.653	3.53
622.987	3.57
623.321	3.57
623.655	3.61
623.988	3.68
624.322	3.67
624.656	3.69
624.99	3.67
625.323	3.66
625.657	3.66
625.99	3.67
626.324	3.67
626.657	3.7
626.991	3.72
627.324	3.71
627.658	3.67
627.991	3.66
628.324	3.65
628.657	3.63
628.991	3.61
629.324	3.64
629.657	3.66
629.99	3.63
630.323	3.64
630.656	3.63
630.989	3.64
631.322	3.68
631.655	3.69
631.987	3.74
632.32	3.79
632.653	3.8
632.986	3.77
633.318	3.8
633.651	3.76
633.984	3.78
634.316	3.78
634.649	3.86
634.981	3.86
635.313	3.89
635.646	3.91
635.978	3.93
636.31	3.9
636.643	3.9
636.975	3.94
637.307	3.96
637.639	3.96
637.971	3.89
638.303	3.86
638.635	3.84
638.967	3.81
639.299	3.81
639.631	3.8
639.963	3.8
640.295	3.75
640.626	3.75
640.958	3.77
641.29	3.8
641.621	3.83
641.953	3.75
642.285	3.72
642.616	3.74
642.948	3.7
643.279	3.68
643.61	3.65
643.942	3.64
644.273	3.6
644.604	3.62
644.936	3.59
645.267	3.62
645.598	3.68
645.929	3.77
646.26	3.8
646.591	3.84
646.922	3.85
647.253	3.81
647.584	3.79
647.915	3.68
648.245	3.68
648.576	3.57
648.907	3.72
649.238	3.67
649.568	3.64
649.899	3.64
650.229	3.68
650.56	3.75
650.89	3.68
651.221	3.72
651.551	3.74
651.882	3.8
652.212	3.83
652.542	3.76
652.872	3.67
653.203	3.63
653.533	3.6
653.863	3.64
654.193	3.75
654.523	3.78
654.853	3.82
655.183	3.8
655.513	3.78
655.843	3.72
656.172	3.76
656.502	3.77
656.832	3.77
657.162	3.79
657.491	3.75
657.821	3.76
658.15	3.73
658.48	3.75
658.809	3.71
659.139	3.72
659.468	3.66
659.798	3.61
660.127	3.64
660.456	3.66
660.785	3.68
661.115	3.64
661.444	3.66
661.773	3.65
662.102	3.64
662.431	3.76
662.76	3.72
663.089	3.76
663.418	3.79
663.747	3.79
664.076	3.74
664.404	3.76
664.733	3.83
665.062	3.81
665.39	3.77
665.719	3.78
666.048	3.78
666.376	3.84
666.705	3.88
667.033	3.87
667.362	3.86
667.69	3.82
668.018	3.81
668.347	3.82
668.675	3.85
669.003	3.91
669.331	3.88
669.659	3.91
669.987	3.87
670.315	3.86
670.643	3.82
670.971	3.81
671.299	3.76
671.627	3.75
671.955	3.77
672.283	3.75
672.61	3.75
672.938	3.71
673.266	3.75
673.593	3.87
673.921	3.91
674.249	3.89
674.576	3.84
674.904	3.82
675.231	3.78
675.558	3.8
675.886	3.82
676.213	3.74
676.54	3.71
676.867	3.74
677.195	3.73
677.522	3.83
677.849	3.86
678.176	3.92
678.503	3.93
678.83	3.93
679.157	3.94
679.484	3.93
679.81	3.97
680.137	3.94
680.464	3.85
680.791	3.81
681.117	3.8
681.444	3.83
681.771	3.82
682.097	3.82
682.424	3.82
682.75	3.82
683.077	3.85
683.403	3.92
683.729	3.93
684.056	3.98
684.382	4.04
684.708	4.08
685.034	4.02
685.36	4.02
685.686	4.03
686.012	4.01
686.339	4.1
686.664	4.1
686.99	4.15
687.316	4.16
687.642	4.12
687.968	4.1
688.294	4.16
688.619	4.24
688.945	4.19
689.271	4.1
689.596	4.07
689.922	4.14
690.247	4.15
690.573	4.1
690.898	4.13
691.224	4.08
691.549	4.05
691.874	4.01
692.2	3.96
692.525	4.04
692.85	4.16
693.175	4.17
693.5	4.15
693.825	4.05
694.15	4.07
694.475	3.99
694.8	4.02
695.125	3.94
695.45	3.91
695.775	3.95
696.099	4.01
696.424	3.98
696.749	3.81
697.073	3.69
697.398	3.75
697.723	3.76
698.047	3.67
698.372	3.71
698.696	3.8
699.02	3.81
699.345	3.66
699.669	3.59
699.993	3.52
700.318	3.52
700.642	3.57
700.966	3.6
701.29	3.7
701.614	3.69
701.938	3.8
702.262	3.86
702.586	3.96
702.91	3.89
703.234	3.94
703.557	4.24
703.881	4.29
704.205	4.29
704.529	4.23
704.852	4.32
705.176	4.24
705.499	4.29
705.823	4.24
706.146	4.41
706.47	4.4
706.793	4.43
707.117	4.48
707.44	4.52
707.763	4.52
708.086	4.48
708.409	4.41
708.733	4.42
709.056	4.31
709.379	4.34
709.702	4.37
710.025	4.28
710.348	4.14
710.671	4.25
710.993	4.22
711.316	4.13
711.639	4.17
711.962	4.23
712.284	4.12
712.607	4.23
712.93	4.18
713.252	4.16
713.575	4.18
713.897	3.96
714.22	4.06
714.542	4.12
714.864	4.15
715.187	4.28
715.509	4.23
715.831	4.22
716.153	4.15
716.475	4.18
716.798	4.34
717.12	4.24
717.442	4.11
717.764	4.11
718.085	4.2
718.407	4.2
718.729	4.14
719.051	4.17
719.373	4.05
719.695	4
720.016	4.1
720.338	4.2
720.659	4.47
720.981	4.28
721.302	4.2
721.624	4.23
721.945	4.19
722.267	4.18
722.588	4.44
722.909	4.27
723.231	4.29
723.552	4.09
723.873	4.22
724.194	4.3
724.515	4.62
724.836	4.46
725.157	4.43
725.478	4.45
725.799	4.52
726.12	4.46
726.441	4.5
726.762	4.58
727.083	4.39
727.403	4.3
727.724	4.6
728.045	4.72
728.365	4.74
728.686	4.81
729.006	4.87
729.327	4.6
729.647	4.72
729.967	4.74
730.288	4.78
730.608	4.74
730.928	4.84
731.249	4.53
731.569	4.77
731.889	4.73
732.209	4.78
732.529	4.76
732.849	4.89
733.169	4.93
733.489	4.92
733.809	5.03
734.129	5.08
734.448	4.87
734.768	4.63
735.088	4.68
735.408	4.64
735.727	4.59
736.047	4.79
736.366	4.87
736.686	4.89
737.005	5.08
737.325	5.16
737.644	5.11
737.963	5.29
738.283	5.08
738.602	5.18
738.921	5.2
739.24	5.15
739.56	4.99
739.879	5.06
740.198	5.03
740.517	5.06
740.836	4.89
741.155	4.79
741.473	4.95
741.792	4.84
742.111	5.06
742.43	5.04
742.748	4.84
743.067	4.74
743.386	4.47
743.704	4.43
744.023	4.28
744.341	4.3
744.66	4.35
744.978	4.37
745.297	4.29
745.615	4.36
745.933	4.35
746.252	4.48
746.57	4.17
746.888	3.94
747.206	3.97
747.524	4.08
747.842	4.21
748.16	4.22
748.478	4.22
748.796	4.14
749.114	4.3
749.432	4.41
749.749	4.36
750.067	4.54
750.385	4.27
750.703	4.49
751.02	4.55
751.338	4.43
751.655	4.41
751.973	4.42
752.29	4.54
752.608	4.76
752.925	4.94
753.242	5.27
753.56	5.26
753.877	5.07
754.194	5.21
754.511	5.36
754.828	5.16
755.145	5.17
755.462	4.92
755.779	4.94
756.096	5.25
756.413	5.42
756.73	5.43
757.047	5.43
757.364	5.31
757.68	5.31
757.997	4.92
758.314	4.93
758.63	5.08
758.947	4.77
759.264	4.55
759.58	4.47
759.896	4.56
760.213	4.81
760.529	4.77
760.846	4.66
761.162	4.48
761.478	4.67
761.794	4.71
762.11	4.73
762.426	4.67
762.743	4.48
763.059	4.44
763.375	4.67
763.69	4.69
764.006	4.76
764.322	4.64
764.638	4.92
764.954	5.1
765.27	4.84
765.585	4.85
765.901	5.04
766.216	5.17
766.532	4.95
766.848	4.91
767.163	4.92
767.478	5.02
767.794	5.01
768.109	4.85
768.424	4.83
768.74	4.88
769.055	4.9
769.37	5
769.685	4.75
770	4.79
770.315	4.9
770.63	4.87
770.945	4.82
771.26	5.02
771.575	4.98
771.89	5.31
772.205	5.51
772.52	5.36
772.834	5.05
773.149	5.25
773.464	5.29
773.778	5.52
774.093	5.49
774.407	5.43
774.722	5.41
775.036	5.56
775.351	5.5
775.665	5.35
775.979	5.04
776.293	5.11
776.608	4.71
776.922	4.72
777.236	4.61
777.55	4.55
777.864	4.34
778.178	4.39
778.492	4.56
778.806	4.55
779.12	4.95
779.434	5.17
779.747	5.41
780.061	5.52
780.375	5.57
780.689	5.77
781.002	6.04
781.316	6.56
781.629	6.54
781.943	6.65
782.256	6.61
782.57	6.56
782.883	6.9
783.196	6.93
783.51	7.06
783.823	6.75
784.136	6.87
784.449	6.7
784.762	6.21
785.075	5.81
785.388	5.59
785.701	4.97
786.014	4.73
786.327	4.44
786.64	4.69
786.953	4.55
787.266	4.51
787.578	4.39
787.891	4.36
788.204	4.2
788.516	4.35
788.829	4.36
789.141	4.77
789.454	4.49
789.766	4.96
790.079	5.01
790.391	5.08
790.703	5.32
791.016	5.28
791.328	5.71
791.64	5.71
791.952	5.91
792.264	5.7
792.576	5.58
792.888	5.72
793.2	5.43
793.512	5.27
793.824	5.12
794.136	5.01
794.448	4.52
794.76	4.49
795.071	4.38
795.383	4.47
795.695	4.25
796.006	4.18
796.318	4.2
796.629	4.07
796.941	4.36
797.252	4.49
797.564	4.88
797.875	4.63
798.186	4.42
798.497	4.36
798.809	4.33
799.12	5.02
799.431	4.4
799.742	3.86
800.053	4.15
800.364	4.23
800.675	4.84
800.986	4.86
801.297	5.03
801.608	5.17
801.918	4.92
802.229	4.89
802.54	4.8
802.851	4.56
803.161	4.47
803.472	4.45
803.782	4.27
804.093	4.08
804.403	4.1
804.714	4.25
805.024	3.73
805.334	4.7
805.645	4.18
805.955	4.85
806.265	5.35
806.575	5.32
806.885	5.1
807.195	4.67
807.505	5.04
807.815	5.62
808.125	4.95
808.435	5.25
808.745	5.66
809.055	6.43
809.365	5.7
809.674	5.33
809.984	5.56
810.294	5.52
810.603	5.88
810.913	6.37
811.222	6.81
811.532	7.78
811.841	7.6
812.151	7.9
812.46	8.02
812.769	8.4
813.079	7.95
813.388	8.1
813.697	7.94
814.006	7.63
814.315	6.95
814.624	7.49
814.933	7.41
815.242	7.19
815.551	7.11
815.86	7.03
816.169	6.77
816.478	6.65
816.786	6.58
817.095	6.23
817.404	6.28
817.712	6.26
818.021	5.78
818.33	5.66
818.638	5.55
818.947	5.56
819.255	5.57
819.563	5.68
819.872	5.73
820.18	5.69
820.488	5.67
820.796	5.96
821.105	5.96
821.413	6.05
821.721	5.81
822.029	5.86
822.337	6.14
822.645	6.37
822.953	6.33
823.26	6.26
823.568	6.24
823.876	6.22
824.184	6.11
824.491	6.19
824.799	6.12
825.107	6.01
825.414	6.01
825.722	6.04
826.029	6.06
826.337	6.26
826.644	6.44
826.951	6.55
827.259	6.45
827.566	6.42
827.873	6.56
828.18	6.75
828.488	6.94
828.795	6.75
829.102	6.78
829.409	6.84
829.716	6.84
830.023	6.79
830.329	6.78
830.636	6.99
830.943	7.16
831.25	7.21
831.557	7.47
831.863	7.31
832.17	6.82
832.476	7.26
832.783	7.26
833.089	6.85
833.396	7.25
833.702	7.41
834.009	7.47
834.315	7.64
834.621	7.39
834.928	6.78
835.234	6.96
835.54	6.91
835.846	6.98
836.152	7.17
836.458	7.14
836.764	7.27
837.07	6.76
837.376	6.01
837.682	6.29
837.988	6.43
838.293	6.41
838.599	6.63
838.905	6.08
839.211	5.29
839.516	5.56
839.822	5.27
840.127	4.54
840.433	4.99
840.738	4.73
841.044	5.01
841.349	5.17
841.654	5.39
841.959	4.41
842.265	4.56
842.57	5.03
842.875	5.19
843.18	4.25
843.485	5.75
843.79	6.68
844.095	6.3
844.4	6.02
844.705	5.26
845.01	6.13
845.315	7.05
845.619	6.7
845.924	6.83
846.229	6.3
846.533	7.27
846.838	5.66
847.142	4.77
847.447	4.36
847.751	5.04
848.056	3.26
848.36	5.75
848.664	5.38
848.969	4.31
849.273	4.42
849.577	4.28
849.881	2.24
850.185	1.89
850.489	2.38
850.794	1.75
851.097	3.57
851.401	2.54
851.705	1.11
852.009	3.41
852.313	3.5
852.617	3.26
852.92	4.15
853.224	4.76
853.528	4.45
853.831	4.93
854.135	3.45
854.438	4.01
854.742	2.97
855.045	2.01
855.349	1.35
855.652	1.23
855.955	3.21
856.259	3.23
856.562	4.17
856.865	1.68
857.168	1.77
857.471	0.89
857.774	1.97
858.077	3.18
858.38	2.76
858.683	1.84
858.986	1.06
859.289	1.23
859.592	0.75
859.894	1.95
860.197	1.69
860.5	1.73
860.802	2.78
861.105	2.99
861.407	4.51
861.71	5.69
862.012	5.25
862.315	2.76
862.617	2.14
862.919	0.86
863.222	3.61
863.524	4.23
863.826	4.47
864.128	3.9
864.43	3.92
864.732	3.65
865.034	4.32
865.336	3.56
865.638	1.57
865.94	1.4
866.242	-1.87
866.544	-1.59
866.846	0.17
867.147	0.17
867.449	0.32
867.751	-1.94
868.052	-1.46
868.354	-1.91
868.655	0.25
868.957	1.01
869.258	1.25
869.56	0.46
869.861	-2.7
870.162	-3.42
870.463	-4.62
870.765	-3.55
871.066	-3.11
871.367	-3.92
871.668	-1.63
871.969	-1.33
872.27	0.2
872.571	2.28
872.872	4.21
873.173	2.36
873.473	2.68
873.774	3.36
874.075	5.64
874.376	3.13
874.676	5.86
874.977	4.84
875.277	7.24
875.578	8.1
875.878	7.72
876.179	11.34
876.479	13.38
876.78	14.88
877.08	12.96
877.38	11.65
877.68	12.97
877.981	12.91
878.281	12.64
878.581	12.28
