Data from BU56854_Reflection_00013.txt Node
Date: Mon Nov 18 16:27:09 EST 2019
User: vgr7
Spectrometer: USB2G7710
Scans to average: 3
Trigger mode: 4
Integration Time (sec): 2.000000E-2
Electric dark correction enabled: true
Boxcar width: 10
XAxis mode: Wavelengths
Number of Pixels in Spectrum: 2048
>>>>>Begin Spectral Data<<<<<
177.721	-46.18
178.105	-37.72
178.488	-211.48
178.871	-141.48
179.254	-95.44
179.636	-1.78
180.019	-122.1
180.402	63.64
180.785	-3.92
181.168	-33.21
181.55	2.65
181.933	33.57
182.316	29.44
182.698	-2.28
183.081	5.32
183.463	-1.51
183.846	42.57
184.228	34.56
184.611	61.18
184.993	59.84
185.376	67.74
185.758	190.15
186.14	416.61
186.522	296.37
186.904	-420.91
187.287	-379.1
187.669	-31.96
188.051	-3370.59
188.433	0.63
188.815	44.64
189.197	25.95
189.579	43.82
189.961	19.78
190.342	29.06
190.724	27.59
191.106	29.49
191.488	20.4
191.869	29.71
192.251	14.97
192.633	11.77
193.014	20.83
193.396	22.13
193.777	16.43
194.159	-1.68
194.54	-3.78
194.922	3.51
195.303	-4.64
195.684	2.18
196.065	9.06
196.447	-9.48
196.828	-25.29
197.209	-28.34
197.59	-27.76
197.971	-25.28
198.352	-30.9
198.733	-26.04
199.114	-18.34
199.495	-20.78
199.876	-29.45
200.257	-17.13
200.638	-5.8
201.018	-18.78
201.399	-19.88
201.78	-10.7
202.16	-1.64
202.541	-23.74
202.922	-33.53
203.302	-38.42
203.683	-54.81
204.063	-90.6
204.444	-32.95
204.824	-38.39
205.204	-35.66
205.585	-46.81
205.965	-30.11
206.345	-24.73
206.725	-23.14
207.106	-45.06
207.486	-54.04
207.866	-42.5
208.246	-42.51
208.626	-60.38
209.006	-50.48
209.386	-91.84
209.766	-123.4
210.145	-77.63
210.525	-32.94
210.905	-42.14
211.285	-44.05
211.664	-39.23
212.044	-42.04
212.424	-44.97
212.803	-44.4
213.183	-29.7
213.562	-14.57
213.942	-28.97
214.321	-26.96
214.701	-43.55
215.08	-37.96
215.459	-30.73
215.838	-33.46
216.218	-43.66
216.597	-33.86
216.976	-21.62
217.355	-12.9
217.734	-8.27
218.113	-8.87
218.492	3.22
218.871	1.6
219.25	9.94
219.629	-4.67
220.008	4.46
220.387	-5.31
220.766	-2.33
221.144	-12.17
221.523	-24.75
221.902	-14.2
222.28	-19.71
222.659	-14.98
223.037	-11.27
223.416	-9.67
223.794	-3.23
224.173	-1.54
224.551	-5.68
224.929	-12.95
225.308	-7.68
225.686	-2.78
226.064	-4.83
226.442	-11.53
226.821	-3.73
227.199	-8.56
227.577	-8.67
227.955	-11.18
228.333	-8.36
228.711	-5.1
229.089	-0.37
229.467	-0.88
229.845	-3.63
230.222	-3.89
230.6	-5.36
230.978	-5.73
231.356	-2.5
231.733	-4.14
232.111	-2.7
232.488	-2.3
232.866	0.57
233.243	-1.18
233.621	-2.52
233.998	-1.41
234.376	-1.75
234.753	-2.49
235.13	-0.49
235.508	1.75
235.885	3.85
236.262	3.24
236.639	1.34
237.016	0.7
237.393	2.02
237.77	3.61
238.147	4
238.524	4.89
238.901	5.65
239.278	4.75
239.655	5.46
240.032	5.5
240.409	4.97
240.785	5.15
241.162	5.58
241.539	5.43
241.915	5.22
242.292	4.76
242.668	4.46
243.045	4.51
243.421	4.68
243.798	4.4
244.174	4.71
244.551	5.24
244.927	4.89
245.303	4.82
245.679	4.73
246.056	4.6
246.432	4.47
246.808	4.43
247.184	4.44
247.56	4.29
247.936	4.17
248.312	4.28
248.688	4.16
249.064	4.04
249.44	4.02
249.815	3.98
250.191	4.34
250.567	4.57
250.943	4.45
251.318	4.45
251.694	4.49
252.069	4.23
252.445	3.9
252.82	4.05
253.196	3.82
253.571	3.54
253.947	3.7
254.322	3.68
254.697	3.64
255.073	3.62
255.448	3.67
255.823	3.72
256.198	3.83
256.573	3.74
256.948	4.06
257.323	4.14
257.698	4.35
258.073	4.23
258.448	3.91
258.823	3.73
259.198	3.65
259.573	3.71
259.948	3.7
260.322	3.77
260.697	3.77
261.072	3.92
261.446	4.08
261.821	4.13
262.195	4.31
262.57	4.14
262.944	4.04
263.319	3.91
263.693	3.93
264.067	4.13
264.442	4.14
264.816	3.81
265.19	3.76
265.564	3.55
265.938	3.56
266.313	3.73
266.687	4.09
267.061	4.19
267.435	4.22
267.809	4.07
268.183	3.96
268.556	3.99
268.93	4.02
269.304	3.88
269.678	3.83
270.051	3.79
270.425	3.92
270.799	3.92
271.172	3.97
271.546	3.99
271.919	3.81
272.293	3.89
272.666	3.97
273.04	4.03
273.413	4.05
273.787	4.08
274.16	4.07
274.533	3.89
274.906	3.97
275.279	3.84
275.653	4.03
276.026	4.13
276.399	4.09
276.772	4.07
277.145	4.13
277.518	4.15
277.891	4.2
278.263	4.21
278.636	4.23
279.009	4.37
279.382	4.32
279.755	4.26
280.127	4.24
280.5	4.31
280.872	4.35
281.245	4.34
281.617	4.35
281.99	4.45
282.362	4.46
282.735	4.18
283.107	4.27
283.479	4.36
283.852	4.25
284.224	4.26
284.596	4.27
284.968	4.33
285.34	4.31
285.713	4.15
286.085	4.27
286.457	4.34
286.829	4.27
287.201	4.3
287.572	4.26
287.944	4.32
288.316	4.28
288.688	4.28
289.06	4.3
289.431	4.34
289.803	4.31
290.175	4.3
290.546	4.52
290.918	4.42
291.289	4.47
291.661	4.59
292.032	4.69
292.403	4.78
292.775	4.78
293.146	4.82
293.517	4.85
293.889	4.72
294.26	4.67
294.631	4.72
295.002	4.71
295.373	4.92
295.744	4.93
296.115	4.93
296.486	4.89
296.857	4.99
297.228	5.02
297.599	4.98
297.97	5.09
298.34	5.11
298.711	5.21
299.082	5.11
299.452	5.15
299.823	5.17
300.194	5.2
300.564	5.29
300.935	5.36
301.305	5.48
301.676	5.58
302.046	5.67
302.416	5.91
302.787	6
303.157	5.97
303.527	5.97
303.897	6.18
304.267	6.42
304.637	6.52
305.008	6.65
305.378	6.81
305.748	7.02
306.117	7.04
306.487	7.29
306.857	7.55
307.227	7.71
307.597	7.87
307.967	7.89
308.336	7.97
308.706	8.06
309.076	8.16
309.445	8.29
309.815	8.44
310.184	8.4
310.554	8.52
310.923	8.58
311.293	8.69
311.662	8.69
312.031	8.75
312.401	8.89
312.77	8.95
313.139	9.04
313.508	9.15
313.877	9.34
314.246	9.29
314.616	9.3
314.985	9.53
315.353	9.52
315.722	9.89
316.091	9.94
316.46	9.97
316.829	10.15
317.198	10.28
317.567	10.4
317.935	10.45
318.304	10.51
318.672	10.69
319.041	10.91
319.41	11.24
319.778	11.21
320.147	11.34
320.515	11.5
320.883	11.75
321.252	11.72
321.62	11.81
321.988	11.94
322.357	12.04
322.725	12.11
323.093	12.29
323.461	12.22
323.829	12.25
324.197	12.38
324.565	12.36
324.933	12.36
325.301	12.43
325.669	12.63
326.037	12.77
326.405	12.84
326.772	12.78
327.14	12.82
327.508	12.88
327.875	12.86
328.243	12.93
328.61	12.93
328.978	13.1
329.346	13.14
329.713	13.14
330.08	13.25
330.448	13.19
330.815	13.11
331.182	13.21
331.55	13.4
331.917	13.58
332.284	13.73
332.651	13.9
333.018	13.92
333.385	14.04
333.752	14.14
334.119	14.16
334.486	14.22
334.853	14.19
335.22	14.32
335.587	14.43
335.954	14.37
336.32	14.4
336.687	14.43
337.054	14.53
337.42	14.6
337.787	14.66
338.153	14.71
338.52	14.9
338.886	14.93
339.253	15
339.619	14.98
339.986	15.06
340.352	15.12
340.718	15.16
341.084	15.1
341.451	15.11
341.817	15.22
342.183	15.34
342.549	15.48
342.915	15.59
343.281	15.64
343.647	15.79
344.013	15.87
344.379	15.86
344.745	15.98
345.11	16.06
345.476	16.15
345.842	16.23
346.208	16.19
346.573	16.16
346.939	16.22
347.304	16.25
347.67	16.28
348.035	16.26
348.401	16.35
348.766	16.33
349.132	16.37
349.497	16.4
349.862	16.44
350.228	16.38
350.593	16.37
350.958	16.41
351.323	16.47
351.688	16.52
352.053	16.55
352.418	16.55
352.783	16.64
353.148	16.56
353.513	16.54
353.878	16.61
354.243	16.71
354.608	16.66
354.972	16.73
355.337	16.78
355.702	16.74
356.066	16.8
356.431	16.78
356.795	16.77
357.16	16.67
357.524	16.58
357.889	16.52
358.253	16.44
358.618	16.45
358.982	16.3
359.346	16.19
359.71	16.15
360.075	16.09
360.439	16.04
360.803	16.06
361.167	15.99
361.531	15.93
361.895	15.79
362.259	15.77
362.623	15.66
362.987	15.57
363.351	15.52
363.714	15.4
364.078	15.4
364.442	15.29
364.806	15.25
365.169	15.19
365.533	15.13
365.896	15.04
366.26	14.91
366.623	14.91
366.987	14.83
367.35	14.75
367.714	14.65
368.077	14.54
368.44	14.39
368.803	14.3
369.167	14.16
369.53	14.04
369.893	13.94
370.256	13.91
370.619	13.78
370.982	13.74
371.345	13.61
371.708	13.49
372.071	13.38
372.434	13.27
372.797	13.12
373.159	13.03
373.522	12.95
373.885	12.82
374.247	12.69
374.61	12.6
374.973	12.49
375.335	12.36
375.698	12.25
376.06	12.12
376.423	12.07
376.785	12.01
377.147	12.01
377.51	11.91
377.872	11.75
378.234	11.65
378.596	11.47
378.958	11.37
379.321	11.24
379.683	11.16
380.045	11.1
380.407	11.01
380.769	10.92
381.13	10.79
381.492	10.69
381.854	10.6
382.216	10.45
382.578	10.36
382.939	10.25
383.301	10.09
383.663	9.96
384.024	9.82
384.386	9.77
384.747	9.64
385.109	9.57
385.47	9.5
385.832	9.42
386.193	9.36
386.554	9.27
386.916	9.19
387.277	9.16
387.638	9.08
387.999	9.01
388.36	8.95
388.721	8.92
389.082	8.85
389.443	8.76
389.804	8.68
390.165	8.6
390.526	8.54
390.887	8.5
391.248	8.52
391.609	8.49
391.969	8.37
392.33	8.31
392.691	8.19
393.051	8.11
393.412	8.06
393.772	8
394.133	7.93
394.493	7.84
394.854	7.73
395.214	7.64
395.574	7.6
395.935	7.52
396.295	7.45
396.655	7.35
397.015	7.29
397.376	7.22
397.736	7.14
398.096	7.06
398.456	6.96
398.816	6.86
399.176	6.7
399.535	6.65
399.895	6.55
400.255	6.54
400.615	6.48
400.975	6.4
401.334	6.32
401.694	6.3
402.054	6.28
402.413	6.19
402.773	6.15
403.132	6.07
403.492	6.01
403.851	5.96
404.211	5.95
404.57	5.88
404.929	5.89
405.288	5.87
405.648	5.82
406.007	5.82
406.366	5.77
406.725	5.78
407.084	5.76
407.443	5.72
407.802	5.68
408.161	5.62
408.52	5.57
408.879	5.54
409.238	5.51
409.596	5.45
409.955	5.43
410.314	5.4
410.673	5.37
411.031	5.35
411.39	5.3
411.748	5.26
412.107	5.26
412.465	5.21
412.824	5.16
413.182	5.13
413.54	5.11
413.899	5.09
414.257	5.05
414.615	5.02
414.974	4.99
415.332	4.96
415.69	4.96
416.048	4.93
416.406	4.9
416.764	4.86
417.122	4.85
417.48	4.81
417.838	4.77
418.195	4.74
418.553	4.71
418.911	4.71
419.269	4.66
419.626	4.63
419.984	4.59
420.342	4.57
420.699	4.54
421.057	4.48
421.414	4.44
421.772	4.42
422.129	4.38
422.486	4.37
422.844	4.34
423.201	4.29
423.558	4.26
423.915	4.25
424.273	4.21
424.63	4.19
424.987	4.17
425.344	4.15
425.701	4.13
426.058	4.1
426.415	4.06
426.772	4.04
427.128	4.02
427.485	4.01
427.842	3.99
428.199	3.97
428.555	3.96
428.912	3.97
429.269	3.97
429.625	3.94
429.982	3.9
430.338	3.91
430.695	3.91
431.051	3.92
431.407	3.88
431.764	3.86
432.12	3.85
432.476	3.87
432.832	3.87
433.189	3.88
433.545	3.88
433.901	3.88
434.257	3.88
434.613	3.88
434.969	3.86
435.325	3.83
435.681	3.84
436.036	3.84
436.392	3.84
436.748	3.82
437.104	3.82
437.459	3.84
437.815	3.82
438.171	3.83
438.526	3.82
438.882	3.85
439.237	3.86
439.593	3.86
439.948	3.83
440.304	3.82
440.659	3.81
441.014	3.82
441.369	3.81
441.725	3.8
442.08	3.8
442.435	3.81
442.79	3.83
443.145	3.83
443.5	3.82
443.855	3.82
444.21	3.81
444.565	3.81
444.92	3.79
445.275	3.78
445.629	3.76
445.984	3.75
446.339	3.73
446.693	3.72
447.048	3.7
447.403	3.69
447.757	3.7
448.112	3.68
448.466	3.66
448.82	3.65
449.175	3.66
449.529	3.64
449.883	3.62
450.238	3.59
450.592	3.59
450.946	3.57
451.3	3.53
451.654	3.51
452.008	3.51
452.362	3.48
452.716	3.48
453.07	3.48
453.424	3.47
453.778	3.47
454.132	3.47
454.486	3.47
454.839	3.44
455.193	3.42
455.547	3.42
455.9	3.41
456.254	3.41
456.607	3.4
456.961	3.4
457.314	3.4
457.668	3.41
458.021	3.4
458.375	3.4
458.728	3.42
459.081	3.44
459.434	3.43
459.787	3.45
460.141	3.45
460.494	3.45
460.847	3.46
461.2	3.46
461.553	3.47
461.906	3.49
462.259	3.52
462.611	3.54
462.964	3.55
463.317	3.58
463.67	3.59
464.022	3.6
464.375	3.61
464.728	3.63
465.08	3.65
465.433	3.68
465.785	3.71
466.138	3.72
466.49	3.72
466.843	3.74
467.195	3.78
467.547	3.81
467.899	3.81
468.252	3.82
468.604	3.85
468.956	3.86
469.308	3.89
469.66	3.89
470.012	3.93
470.364	3.96
470.716	3.97
471.068	3.99
471.42	4.04
471.772	4.09
472.123	4.12
472.475	4.15
472.827	4.16
473.178	4.17
473.53	4.17
473.882	4.18
474.233	4.21
474.585	4.21
474.936	4.21
475.288	4.22
475.639	4.23
475.99	4.22
476.342	4.22
476.693	4.21
477.044	4.22
477.395	4.2
477.746	4.18
478.097	4.18
478.448	4.16
478.8	4.12
479.15	4.06
479.501	4.03
479.852	4.02
480.203	4
480.554	4
480.905	4.01
481.255	4.01
481.606	4
481.957	3.99
482.307	3.99
482.658	3.99
483.009	3.97
483.359	3.97
483.709	3.96
484.06	3.96
484.41	3.96
484.761	3.95
485.111	3.93
485.461	3.93
485.811	3.92
486.162	3.92
486.512	3.92
486.862	3.92
487.212	3.91
487.562	3.9
487.912	3.9
488.262	3.88
488.612	3.87
488.961	3.87
489.311	3.86
489.661	3.85
490.011	3.86
490.36	3.88
490.71	3.88
491.06	3.88
491.409	3.89
491.759	3.89
492.108	3.9
492.458	3.92
492.807	3.93
493.157	3.94
493.506	3.97
493.855	4
494.204	4.03
494.554	4.06
494.903	4.1
495.252	4.13
495.601	4.19
495.95	4.24
496.299	4.28
496.648	4.32
496.997	4.38
497.346	4.42
497.695	4.46
498.043	4.51
498.392	4.59
498.741	4.65
499.09	4.71
499.438	4.8
499.787	4.87
500.135	4.96
500.484	5.05
500.832	5.15
501.181	5.23
501.529	5.32
501.878	5.42
502.226	5.53
502.574	5.65
502.923	5.75
503.271	5.87
503.619	6
503.967	6.16
504.315	6.26
504.663	6.39
505.011	6.53
505.359	6.68
505.707	6.83
506.055	6.97
506.403	7.13
506.751	7.27
507.098	7.43
507.446	7.58
507.794	7.75
508.141	7.89
508.489	8.05
508.837	8.22
509.184	8.38
509.531	8.52
509.879	8.69
510.226	8.88
510.574	9.07
510.921	9.24
511.268	9.43
511.616	9.63
511.963	9.85
512.31	10.06
512.657	10.29
513.004	10.49
513.351	10.72
513.698	10.97
514.045	11.21
514.392	11.47
514.739	11.74
515.086	12.01
515.432	12.26
515.779	12.52
516.126	12.79
516.473	13.04
516.819	13.3
517.166	13.53
517.512	13.75
517.859	13.96
518.205	14.18
518.552	14.37
518.898	14.57
519.245	14.74
519.591	14.93
519.937	15.11
520.283	15.32
520.629	15.55
520.976	15.79
521.322	16.03
521.668	16.27
522.014	16.52
522.36	16.75
522.706	17.04
523.052	17.35
523.398	17.63
523.743	17.97
524.089	18.27
524.435	18.52
524.781	18.82
525.126	19.06
525.472	19.31
525.817	19.55
526.163	19.76
526.509	19.97
526.854	20.15
527.199	20.34
527.545	20.52
527.89	20.69
528.235	20.85
528.581	21.03
528.926	21.19
529.271	21.37
529.616	21.53
529.961	21.72
530.306	21.89
530.651	22.07
530.996	22.25
531.341	22.45
531.686	22.67
532.031	22.87
532.376	23.09
532.721	23.31
533.065	23.54
533.41	23.76
533.755	24
534.099	24.25
534.444	24.47
534.788	24.71
535.133	24.94
535.477	25.18
535.822	25.43
536.166	25.68
536.51	25.95
536.855	26.25
537.199	26.53
537.543	26.82
537.887	27.14
538.231	27.43
538.576	27.75
538.92	28.07
539.264	28.34
539.608	28.64
539.951	28.89
540.295	29.12
540.639	29.36
540.983	29.58
541.327	29.82
541.671	30.03
542.014	30.24
542.358	30.46
542.701	30.65
543.045	30.87
543.389	31.09
543.732	31.33
544.075	31.54
544.419	31.78
544.762	32.02
545.105	32.28
545.449	32.52
545.792	32.77
546.135	33.03
546.478	33.27
546.821	33.53
547.165	33.81
547.508	34.13
547.851	34.42
548.194	34.73
548.536	35.05
548.879	35.37
549.222	35.67
549.565	36.01
549.908	36.4
550.25	36.69
550.593	37.02
550.936	37.31
551.278	37.64
551.621	37.93
551.963	38.22
552.306	38.49
552.648	38.79
552.991	39.05
553.333	39.32
553.675	39.63
554.017	39.9
554.36	40.18
554.702	40.4
555.044	40.7
555.386	40.97
555.728	41.16
556.07	41.49
556.412	41.77
556.754	42.02
557.096	42.18
557.438	42.45
557.78	42.75
558.121	43.02
558.463	43.28
558.805	43.53
559.147	43.78
559.488	43.99
559.83	44.23
560.171	44.48
560.513	44.74
560.854	45.01
561.196	45.24
561.537	45.43
561.878	45.69
562.22	45.77
562.561	45.92
562.902	46.1
563.243	46.26
563.584	46.41
563.925	46.61
564.266	46.81
564.607	46.96
564.948	47.11
565.289	47.25
565.63	47.41
565.971	47.54
566.312	47.66
566.653	47.84
566.993	47.97
567.334	48.05
567.675	48.17
568.015	48.29
568.356	48.39
568.696	48.52
569.037	48.56
569.377	48.78
569.718	48.92
570.058	49.09
570.398	49.21
570.739	49.37
571.079	49.55
571.419	49.69
571.759	49.84
572.099	49.97
572.439	50.09
572.779	50.17
573.119	50.32
573.459	50.46
573.799	50.57
574.139	50.71
574.479	50.84
574.819	50.96
575.158	51.11
575.498	51.29
575.838	51.37
576.177	51.52
576.517	51.65
576.856	51.84
577.196	51.94
577.535	52.06
577.875	52.18
578.214	52.2
578.553	52.33
578.893	52.39
579.232	52.51
579.571	52.67
579.91	52.87
580.25	52.97
580.589	53.01
580.928	53.17
581.267	53.32
581.606	53.51
581.945	53.6
582.283	53.53
582.622	53.59
582.961	53.74
583.3	53.86
583.639	53.91
583.977	53.95
584.316	54.03
584.654	54.14
584.993	54.16
585.332	54.26
585.67	54.3
586.008	54.4
586.347	54.46
586.685	54.54
587.024	54.59
587.362	54.71
587.7	54.8
588.038	54.81
588.376	54.77
588.715	54.82
589.053	54.94
589.391	55.1
589.729	55.21
590.067	55.2
590.404	55.24
590.742	55.31
591.08	55.36
591.418	55.45
591.756	55.58
592.093	55.69
592.431	55.68
592.769	55.76
593.106	55.83
593.444	55.84
593.781	55.8
594.119	55.78
594.456	55.75
594.793	55.84
595.131	55.88
595.468	56.01
595.805	56.01
596.143	56.02
596.48	56.09
596.817	56.06
597.154	56.15
597.491	56.23
597.828	56.29
598.165	56.28
598.502	56.28
598.839	56.24
599.176	56.26
599.512	56.39
599.849	56.49
600.186	56.59
600.523	56.64
600.859	56.6
601.196	56.67
601.532	56.72
601.869	56.77
602.205	56.81
602.542	56.81
602.878	56.84
603.215	56.88
603.551	56.85
603.887	56.93
604.223	57
604.56	57.03
604.896	57.06
605.232	57.11
605.568	57.11
605.904	57.11
606.24	57.17
606.576	57.2
606.912	57.2
607.248	57.17
607.583	57.21
607.919	57.36
608.255	57.4
608.591	57.47
608.926	57.46
609.262	57.49
609.597	57.46
609.933	57.56
610.268	57.55
610.604	57.63
610.939	57.68
611.275	57.75
611.61	57.77
611.945	57.74
612.281	57.78
612.616	57.89
612.951	57.98
613.286	57.93
613.621	57.95
613.956	58.02
614.291	58.03
614.626	58.04
614.961	58.04
615.296	58.04
615.631	58.09
615.966	58.07
616.3	58.09
616.635	58.17
616.97	58.17
617.304	58.17
617.639	58.17
617.973	58.1
618.308	57.95
618.642	57.96
618.977	58.09
619.311	58.16
619.646	58.16
619.98	58.17
620.314	58.2
620.648	58.17
620.983	58.07
621.317	58.13
621.651	58.16
621.985	58.21
622.319	58.23
622.653	58.2
622.987	58.34
623.321	58.28
623.655	58.3
623.988	58.27
624.322	58.33
624.656	58.34
624.99	58.38
625.323	58.51
625.657	58.48
625.99	58.44
626.324	58.46
626.657	58.5
626.991	58.54
627.324	58.56
627.658	58.62
627.991	58.72
628.324	58.62
628.657	58.61
628.991	58.54
629.324	58.52
629.657	58.48
629.99	58.49
630.323	58.58
630.656	58.66
630.989	58.77
631.322	58.76
631.655	58.76
631.987	58.78
632.32	58.83
632.653	58.86
632.986	58.81
633.318	58.92
633.651	58.86
633.984	58.83
634.316	58.98
634.649	58.95
634.981	58.89
635.313	58.93
635.646	59.02
635.978	59.09
636.31	59.23
636.643	59.34
636.975	59.32
637.307	59.34
637.639	59.33
637.971	59.27
638.303	59.31
638.635	59.23
638.967	59.23
639.299	59.21
639.631	59.2
639.963	59.25
640.295	59.1
640.626	59.23
640.958	59.31
641.29	59.14
641.621	59.04
641.953	59.1
642.285	59.19
642.616	59.18
642.948	59.2
643.279	59.07
643.61	59.09
643.942	59.12
644.273	59.23
644.604	59.22
644.936	59.21
645.267	59.28
645.598	59.45
645.929	59.49
646.26	59.52
646.591	59.58
646.922	59.56
647.253	59.58
647.584	59.46
647.915	59.47
648.245	59.51
648.576	59.61
648.907	59.54
649.238	59.44
649.568	59.45
649.899	59.41
650.229	59.52
650.56	59.47
650.89	59.34
651.221	59.3
651.551	59.27
651.882	59.38
652.212	59.38
652.542	59.42
652.872	59.31
653.203	59.28
653.533	59.24
653.863	59.4
654.193	59.37
654.523	59.4
654.853	59.47
655.183	59.54
655.513	59.46
655.843	59.54
656.172	59.61
656.502	59.6
656.832	59.62
657.162	59.61
657.491	59.67
657.821	59.7
658.15	59.67
658.48	59.69
658.809	59.58
659.139	59.56
659.468	59.48
659.798	59.63
660.127	59.67
660.456	59.64
660.785	59.64
661.115	59.65
661.444	59.73
661.773	59.65
662.102	59.61
662.431	59.77
662.76	59.72
663.089	59.7
663.418	59.67
663.747	59.72
664.076	59.64
664.404	59.7
664.733	59.79
665.062	59.71
665.39	59.67
665.719	59.76
666.048	59.75
666.376	59.68
666.705	59.61
667.033	59.53
667.362	59.66
667.69	59.55
668.018	59.68
668.347	59.59
668.675	59.63
669.003	59.59
669.331	59.6
669.659	59.6
669.987	59.65
670.315	59.65
670.643	59.61
670.971	59.66
671.299	59.64
671.627	59.51
671.955	59.45
672.283	59.53
672.61	59.42
672.938	59.31
673.266	59.44
673.593	59.52
673.921	59.46
674.249	59.19
674.576	59.18
674.904	59.12
675.231	59.08
675.558	58.97
675.886	58.94
676.213	58.89
676.54	58.99
676.867	58.92
677.195	58.85
677.522	58.81
677.849	58.88
678.176	58.75
678.503	58.86
678.83	58.97
679.157	58.88
679.484	58.82
679.81	58.88
680.137	58.75
680.464	58.7
680.791	58.84
681.117	59.09
681.444	59.11
681.771	59.06
682.097	59.16
682.424	59.31
682.75	59.47
683.077	59.6
683.403	59.49
683.729	59.49
684.056	59.63
684.382	59.73
684.708	59.57
685.034	59.77
685.36	59.81
685.686	59.71
686.012	59.75
686.339	59.84
686.664	59.88
686.99	60.05
687.316	60
687.642	59.88
687.968	59.8
688.294	59.68
688.619	59.77
688.945	59.6
689.271	59.34
689.596	59.1
689.922	59.06
690.247	59.15
690.573	59.22
690.898	59.07
691.224	58.92
691.549	59
691.874	58.95
692.2	58.85
692.525	59
692.85	58.98
693.175	59.03
693.5	59
693.825	58.84
694.15	58.96
694.475	58.85
694.8	58.92
695.125	58.85
695.45	58.87
695.775	59.02
696.099	59.19
696.424	59.28
696.749	59.12
697.073	59.1
697.398	58.96
697.723	59.16
698.047	59.31
698.372	59.48
698.696	59.25
699.02	59.3
699.345	59.17
699.669	59.32
699.993	59.24
700.318	59.25
700.642	59.31
700.966	59.29
701.29	59.36
701.614	59.37
701.938	59.51
702.262	59.41
702.586	59.25
702.91	59.2
703.234	59.22
703.557	59.32
703.881	59.34
704.205	59.52
704.529	59.34
704.852	59.15
705.176	58.9
705.499	59.02
705.823	58.97
706.146	59.15
706.47	59.05
706.793	59.15
707.117	59
707.44	58.95
707.763	58.81
708.086	58.9
708.409	58.72
708.733	58.74
709.056	58.65
709.379	58.75
709.702	58.71
710.025	58.68
710.348	58.61
710.671	58.56
710.993	58.57
711.316	58.63
711.639	58.73
711.962	58.95
712.284	58.92
712.607	58.91
712.93	58.78
713.252	58.85
713.575	58.97
713.897	58.9
714.22	58.87
714.542	59.02
714.864	58.95
715.187	58.95
715.509	58.91
715.831	58.92
716.153	58.83
716.475	58.75
716.798	58.92
717.12	58.96
717.442	58.95
717.764	58.85
718.085	58.72
718.407	58.69
718.729	58.42
719.051	58.67
719.373	58.56
719.695	58.6
720.016	58.37
720.338	58.35
720.659	58.61
720.981	58.88
721.302	58.66
721.624	58.72
721.945	58.89
722.267	58.95
722.588	59.14
722.909	59.33
723.231	59.53
723.552	59.37
723.873	59.23
724.194	59.2
724.515	59.18
724.836	59.35
725.157	59.54
725.478	59.48
725.799	59.4
726.12	59.47
726.441	59.52
726.762	59.52
727.083	59.32
727.403	59.4
727.724	59.33
728.045	59.45
728.365	59.33
728.686	59.17
729.006	59.05
729.327	58.95
729.647	58.69
729.967	58.57
730.288	58.6
730.608	58.55
730.928	58.54
731.249	58.65
731.569	58.63
731.889	58.37
732.209	58.58
732.529	58.59
732.849	58.62
733.169	58.31
733.489	58.46
733.809	58.22
734.129	58.09
734.448	58
734.768	57.91
735.088	58.14
735.408	58.22
735.727	58.48
736.047	58.4
736.366	58.48
736.686	58.59
737.005	58.65
737.325	58.85
737.644	58.77
737.963	58.79
738.283	58.93
738.602	58.95
738.921	59.02
739.24	59
739.56	59.07
739.879	59.35
740.198	59.12
740.517	59.5
740.836	59.56
741.155	59.62
741.473	59.62
741.792	59.51
742.111	59.73
742.43	59.55
742.748	59.63
743.067	59.83
743.386	59.77
743.704	59.65
744.023	59.57
744.341	59.91
744.66	59.87
744.978	59.68
745.297	59.75
745.615	59.43
745.933	59.36
746.252	59.15
746.57	59.16
746.888	58.96
747.206	58.94
747.524	58.82
747.842	58.74
748.16	58.78
748.478	58.66
748.796	58.38
749.114	58.46
749.432	58.58
749.749	58.49
750.067	58.54
750.385	58.55
750.703	58.51
751.02	58.32
751.338	58.3
751.655	58.15
751.973	58.22
752.29	58.28
752.608	58.51
752.925	58.62
753.242	58.46
753.56	58.9
753.877	58.58
754.194	58.28
754.511	58.16
754.828	58.06
755.145	58.22
755.462	57.91
755.779	57.64
756.096	57.49
756.413	57.77
756.73	57.73
757.047	57.73
757.364	57.69
757.68	57.53
757.997	57.3
758.314	57.38
758.63	57.2
758.947	57.4
759.264	57.06
759.58	57.26
759.896	57.29
760.213	57.19
760.529	57.14
760.846	57.55
761.162	57.55
761.478	57.96
761.794	57.89
762.11	58.23
762.426	58.41
762.743	58.56
763.059	58.61
763.375	58.74
763.69	58.75
764.006	58.7
764.322	58.74
764.638	58.84
764.954	59.02
765.27	59.21
765.585	59.09
765.901	59.1
766.216	58.94
766.532	59.12
766.848	59.19
767.163	59.59
767.478	59.5
767.794	59.72
768.109	59.54
768.424	59.7
768.74	59.46
769.055	59.39
769.37	59.45
769.685	59.46
770	59.3
770.315	59.28
770.63	59.19
770.945	59.31
771.26	59.48
771.575	59.03
771.89	58.71
772.205	58.52
772.52	58.69
772.834	58.91
773.149	59.09
773.464	59.01
773.778	59.1
774.093	59.3
774.407	59.24
774.722	59.02
775.036	58.69
775.351	58.96
775.665	59.01
775.979	59.01
776.293	58.54
776.608	58.33
776.922	58.58
777.236	59.03
777.55	59.05
777.864	58.97
778.178	59.43
778.492	59.75
778.806	59.99
779.12	60.06
779.434	60.24
779.747	60.27
780.061	60.21
780.375	59.87
780.689	60.03
781.002	59.82
781.316	59.84
781.629	59.89
781.943	59.79
782.256	59.73
782.57	59.49
782.883	59.61
783.196	59.34
783.51	58.85
783.823	58.49
784.136	58.55
784.449	58.82
784.762	58.42
785.075	58.38
785.388	58.55
785.701	58.7
786.014	58.31
786.327	57.7
786.64	58.16
786.953	58.47
787.266	58.08
787.578	58.12
787.891	57.87
788.204	58.52
788.516	58.64
788.829	58.2
789.141	58.35
789.454	58.27
789.766	58.89
790.079	59.16
790.391	59.21
790.703	59.07
791.016	58.61
791.328	58.95
791.64	58.99
791.952	58.86
792.264	57.81
792.576	57.56
792.888	57.67
793.2	57.14
793.512	56.56
793.824	56.27
794.136	56.36
794.448	56.7
794.76	56.21
795.071	56.23
795.383	57.03
795.695	57.17
796.006	56.78
796.318	56.47
796.629	56.47
796.941	56.28
797.252	55.99
797.564	56.1
797.875	55.86
798.186	55.86
798.497	55.99
798.809	56.82
799.12	56.93
799.431	57.2
799.742	57.45
800.053	57.9
800.364	58.24
800.675	58.71
800.986	58.56
801.297	58.48
801.608	58.61
801.918	57.63
802.229	57.11
802.54	57.73
802.851	58.03
803.161	57.55
803.472	57.62
803.782	58.28
804.093	58.61
804.403	58.69
804.714	58.46
805.024	58.53
805.334	58.17
805.645	58.18
805.955	58.35
806.265	58.05
806.575	57.6
806.885	58.08
807.195	57.7
807.505	57.9
807.815	58.1
808.125	57.53
808.435	58.07
808.745	58.51
809.055	58.15
809.365	58.06
809.674	58.43
809.984	58.73
810.294	58.77
810.603	58.41
810.913	57.87
811.222	57.8
811.532	57.18
811.841	57.86
812.151	57.84
812.46	57.41
812.769	57.37
813.079	57.46
813.388	56.6
813.697	56.2
814.006	56.09
814.315	55.9
814.624	56.35
814.933	56.71
815.242	56.49
815.551	57.25
815.86	56.94
816.169	56.45
816.478	56.7
816.786	56.46
817.095	56.81
817.404	57.58
817.712	58.15
818.021	58.54
818.33	58.03
818.638	58.77
818.947	58.66
819.255	58.54
819.563	58.22
819.872	58.32
820.18	58.44
820.488	58.56
820.796	58.73
821.105	58.6
821.413	58.27
821.721	58.35
822.029	57.93
822.337	58.01
822.645	58.29
822.953	58.34
823.26	58.26
823.568	58.26
823.876	58.56
824.184	58.52
824.491	58.41
824.799	58.48
825.107	58.15
825.414	58.16
825.722	58.35
826.029	58.49
826.337	58.68
826.644	58.73
826.951	58.57
827.259	58.46
827.566	58.45
827.873	58.94
828.18	58.78
828.488	58.93
828.795	58.89
829.102	58.85
829.409	58.94
829.716	58.97
830.023	59.2
830.329	58.88
830.636	58.9
830.943	59.29
831.25	59.23
831.557	59.78
831.863	60.2
832.17	59.86
832.476	60.43
832.783	60.22
833.089	60.27
833.396	60.26
833.702	60.48
834.009	60.96
834.315	60.38
834.621	60.71
834.928	61.19
835.234	61.15
835.54	60.86
835.846	60.4
836.152	60.07
836.458	59.71
836.764	59.27
837.07	58.89
837.376	58.83
837.682	58.51
837.988	58.11
838.293	58.06
838.599	57.74
838.905	57.41
839.211	56.85
839.516	56.87
839.822	57.17
840.127	56.25
840.433	55.96
840.738	55.69
841.044	55.45
841.349	54.73
841.654	55.08
841.959	55.06
842.265	55.27
842.57	56.4
842.875	56.13
843.18	56.41
843.485	56.9
843.79	57.07
844.095	57.5
844.4	58.23
844.705	56.83
845.01	57.24
845.315	56.08
845.619	56.1
845.924	55.4
846.229	55.6
846.533	55.86
846.838	56.07
847.142	55.25
847.447	54.55
847.751	56.28
848.056	56.24
848.36	56.12
848.664	55.73
848.969	56.14
849.273	56.55
849.577	55.16
849.881	53.81
850.185	50.97
850.489	51.76
850.794	49.74
851.097	51.03
851.401	52.4
851.705	52.91
852.009	55.02
852.313	53.97
852.617	52.82
852.92	54.17
853.224	51.75
853.528	53.34
853.831	53.73
854.135	50.77
854.438	50.65
854.742	51.51
855.045	51.61
855.349	51.04
855.652	49.66
855.955	50.16
856.259	51.64
856.562	53.65
856.865	52.31
857.168	53.17
857.471	52.03
857.774	50.42
858.077	50.61
858.38	48.16
858.683	47.98
858.986	49.56
859.289	49.73
859.592	50.65
859.894	49.86
860.197	50.46
860.5	50.16
860.802	48.33
861.105	47.68
861.407	47.55
861.71	47.77
862.012	48.36
862.315	47.72
862.617	48.52
862.919	50.63
863.222	51.41
863.524	49.63
863.826	49.25
864.128	50.7
864.43	50.69
864.732	50.28
865.034	50.89
865.336	50.58
865.638	50.01
865.94	49.31
866.242	49.28
866.544	51.43
866.846	52.35
867.147	54.71
867.449	53.25
867.751	53.19
868.052	53.65
868.354	55.5
868.655	56.15
868.957	52.36
869.258	49.8
869.56	49.01
869.861	50.81
870.162	52.65
870.463	52.26
870.765	52.59
871.066	53.97
871.367	53.54
871.668	51.78
871.969	51.33
872.27	51.59
872.571	53.56
872.872	51.07
873.173	50.03
873.473	51.16
873.774	51.28
874.075	53.5
874.376	50.4
874.676	48.2
874.977	47.44
875.277	50.68
875.578	49.61
875.878	50.24
876.179	50.94
876.479	50.39
876.78	49.5
877.08	48
877.38	47.65
877.68	49.14
877.981	50.65
878.281	50.37
878.581	50.78
