Data from BU56854_Reflection_00001.txt Node
Date: Mon Nov 18 16:26:41 EST 2019
User: vgr7
Spectrometer: USB2G7710
Scans to average: 3
Trigger mode: 4
Integration Time (sec): 2.000000E-2
Electric dark correction enabled: true
Boxcar width: 10
XAxis mode: Wavelengths
Number of Pixels in Spectrum: 2048
>>>>>Begin Spectral Data<<<<<
177.721	105.17
178.105	-1.8
178.488	-63.93
178.871	37.5
179.254	-56.92
179.636	4.9
180.019	-189.05
180.402	66.67
180.785	27.05
181.168	51.22
181.55	14.72
181.933	68.74
182.316	58.25
182.698	63.38
183.081	67.59
183.463	37.18
183.846	41.15
184.228	32.94
184.611	59.71
184.993	38.12
185.376	60.99
185.758	185.99
186.14	538.87
186.522	486.71
186.904	-523.57
187.287	-658.84
187.669	-294.28
188.051	-15194.12
188.433	-386.26
188.815	-99.86
189.197	-84.19
189.579	-92.36
189.961	-67.16
190.342	-88.69
190.724	-78.51
191.106	-92.43
191.488	-81.07
191.869	-36.92
192.251	-52.49
192.633	-47.43
193.014	-67.63
193.396	-78.58
193.777	-73.35
194.159	-66.7
194.54	-45.24
194.922	-46.17
195.303	-45.01
195.684	-31.47
196.065	-12.7
196.447	-17.23
196.828	-27.17
197.209	-32.63
197.59	-18.96
197.971	-22.23
198.352	-19.33
198.733	-18.15
199.114	-6.61
199.495	-26.94
199.876	-33.36
200.257	-34.11
200.638	-20.44
201.018	-22.64
201.399	-20.43
201.78	-27.72
202.16	-43.46
202.541	-91.46
202.922	-104.51
203.302	-132.65
203.683	-155.87
204.063	-214.51
204.444	-168.94
204.824	-183.95
205.204	-138.88
205.585	-168.82
205.965	-135.66
206.345	-176.43
206.725	-148.99
207.106	-175.86
207.486	-198.91
207.866	-219.26
208.246	-193.9
208.626	-217.13
209.006	-153.77
209.386	-233.53
209.766	-188.74
210.145	-117.71
210.525	-58.27
210.905	-51.35
211.285	-41.97
211.664	-39.94
212.044	-28.38
212.424	-13.11
212.803	-7.23
213.183	-11.41
213.562	9.62
213.942	9.78
214.321	4.26
214.701	-10.05
215.08	-11.13
215.459	-15.9
215.838	-28.9
216.218	-20.62
216.597	-18.39
216.976	-25.94
217.355	-23.14
217.734	-20.91
218.113	-20.76
218.492	-29.75
218.871	-29.19
219.25	-21.86
219.629	-24.58
220.008	-21.67
220.387	-29.03
220.766	-31.01
221.144	-40.25
221.523	-51.46
221.902	-50.05
222.28	-47.34
222.659	-45.31
223.037	-43.91
223.416	-37.97
223.794	-28.64
224.173	-32.8
224.551	-27.04
224.929	-18.88
225.308	-4.74
225.686	-10.08
226.064	-9.01
226.442	-4.86
226.821	2.23
227.199	-0.06
227.577	3.61
227.955	1.77
228.333	0.5
228.711	3.8
229.089	6.85
229.467	6.74
229.845	8.11
230.222	9.78
230.6	11.83
230.978	11.23
231.356	11.97
231.733	10.57
232.111	12.37
232.488	10.93
232.866	8.33
233.243	6.62
233.621	6.61
233.998	7.38
234.376	5.27
234.753	3.4
235.13	3.78
235.508	2.64
235.885	2.05
236.262	3.17
236.639	2.59
237.016	1.89
237.393	3.12
237.77	2.25
238.147	2.34
238.524	2.8
238.901	3.49
239.278	4.06
239.655	4.68
240.032	3.74
240.409	3.31
240.785	4.26
241.162	3.59
241.539	3.89
241.915	3.74
242.292	3.98
242.668	3.78
243.045	3.76
243.421	3.91
243.798	3.83
244.174	3.48
244.551	3.27
244.927	3.6
245.303	3.73
245.679	4.01
246.056	3.83
246.432	3.71
246.808	3.65
247.184	3.5
247.56	3.25
247.936	3.45
248.312	3.62
248.688	3.53
249.064	3.55
249.44	3.53
249.815	3.34
250.191	3.63
250.567	3.66
250.943	3.37
251.318	3.33
251.694	3.54
252.069	3.88
252.445	4.06
252.82	3.52
253.196	3.3
253.571	3.03
253.947	3.1
254.322	3.05
254.697	3.13
255.073	2.96
255.448	2.89
255.823	3.04
256.198	3.21
256.573	3.23
256.948	3.21
257.323	3.25
257.698	3.46
258.073	3.33
258.448	3.32
258.823	3.52
259.198	3.51
259.573	3.23
259.948	3.09
260.322	3.09
260.697	3.14
261.072	3.12
261.446	3.16
261.821	3.26
262.195	3.28
262.57	3.14
262.944	3.2
263.319	3.19
263.693	3.04
264.067	2.97
264.442	3.01
264.816	3.17
265.19	3.18
265.564	3.04
265.938	2.93
266.313	2.93
266.687	3.04
267.061	3.08
267.435	3.35
267.809	3.3
268.183	3.17
268.556	3.28
268.93	3.33
269.304	3.34
269.678	3.16
270.051	3
270.425	3.17
270.799	3.08
271.172	3.2
271.546	3.13
271.919	3.03
272.293	3.05
272.666	3.01
273.04	2.85
273.413	2.88
273.787	3
274.16	3.06
274.533	2.91
274.906	3
275.279	2.96
275.653	2.83
276.026	2.8
276.399	2.89
276.772	2.88
277.145	2.85
277.518	3.08
277.891	3.24
278.263	3.13
278.636	3.07
279.009	2.96
279.382	3.1
279.755	3.04
280.127	2.95
280.5	3.13
280.872	3.39
281.245	3.31
281.617	3.48
281.99	3.41
282.362	3.52
282.735	3.37
283.107	3.3
283.479	3.49
283.852	3.53
284.224	3.51
284.596	3.42
284.968	3.4
285.34	3.35
285.713	3.4
286.085	3.45
286.457	3.64
286.829	3.75
287.201	3.76
287.572	3.86
287.944	3.76
288.316	3.7
288.688	3.59
289.06	3.66
289.431	3.47
289.803	3.5
290.175	3.48
290.546	3.55
290.918	3.69
291.289	3.68
291.661	3.75
292.032	3.7
292.403	3.76
292.775	3.86
293.146	3.8
293.517	3.92
293.889	3.96
294.26	3.98
294.631	4.05
295.002	3.93
295.373	3.99
295.744	4.05
296.115	3.98
296.486	3.81
296.857	3.72
297.228	3.83
297.599	3.73
297.97	3.69
298.34	3.73
298.711	3.74
299.082	3.75
299.452	3.83
299.823	3.9
300.194	3.98
300.564	3.8
300.935	3.87
301.305	3.71
301.676	3.67
302.046	3.67
302.416	3.66
302.787	3.72
303.157	3.73
303.527	3.75
303.897	3.8
304.267	4.14
304.637	4.2
305.008	4.2
305.378	4.41
305.748	4.56
306.117	4.53
306.487	4.5
306.857	4.56
307.227	4.53
307.597	4.55
307.967	4.45
308.336	4.63
308.706	4.49
309.076	4.47
309.445	4.52
309.815	4.38
310.184	4.25
310.554	4.21
310.923	4.03
311.293	4.08
311.662	4
312.031	3.87
312.401	3.9
312.77	3.92
313.139	3.94
313.508	3.86
313.877	3.9
314.246	3.8
314.616	3.68
314.985	3.6
315.353	3.49
315.722	3.68
316.091	3.57
316.46	3.64
316.829	3.72
317.198	3.66
317.567	3.73
317.935	3.64
318.304	3.65
318.672	3.74
319.041	3.82
319.41	3.91
319.778	3.9
320.147	4.03
320.515	4.07
320.883	3.96
321.252	4
321.62	3.95
321.988	3.95
322.357	4.04
322.725	4.02
323.093	4.19
323.461	4.11
323.829	4.15
324.197	4.2
324.565	4.15
324.933	4.16
325.301	4.08
325.669	4.13
326.037	4.14
326.405	4.15
326.772	4.06
327.14	4.12
327.508	4.1
327.875	3.83
328.243	3.73
328.61	3.73
328.978	3.68
329.346	3.75
329.713	3.77
330.08	3.76
330.448	3.75
330.815	3.48
331.182	3.37
331.55	3.36
331.917	3.2
332.284	3.17
332.651	3.09
333.018	3.05
333.385	3.02
333.752	3.17
334.119	3.23
334.486	3.13
334.853	3.06
335.22	3.08
335.587	3.2
335.954	3.24
336.32	3.25
336.687	3.31
337.054	3.24
337.42	3.25
337.787	3.33
338.153	3.29
338.52	3.39
338.886	3.36
339.253	3.3
339.619	3.4
339.986	3.4
340.352	3.49
340.718	3.55
341.084	3.61
341.451	3.51
341.817	3.46
342.183	3.52
342.549	3.47
342.915	3.51
343.281	3.44
343.647	3.41
344.013	3.42
344.379	3.34
344.745	3.31
345.11	3.29
345.476	3.31
345.842	3.32
346.208	3.36
346.573	3.45
346.939	3.56
347.304	3.49
347.67	3.59
348.035	3.65
348.401	3.71
348.766	3.74
349.132	3.74
349.497	3.74
349.862	3.84
350.228	3.87
350.593	3.8
350.958	3.98
351.323	4.01
351.688	4.01
352.053	4.04
352.418	4.14
352.783	4.2
353.148	4.05
353.513	4.08
353.878	4.05
354.243	4.03
354.608	4.01
354.972	4.05
355.337	4
355.702	3.94
356.066	3.91
356.431	3.85
356.795	3.87
357.16	3.9
357.524	3.81
357.889	3.82
358.253	3.89
358.618	3.87
358.982	3.82
359.346	3.77
359.71	3.72
360.075	3.68
360.439	3.67
360.803	3.7
361.167	3.72
361.531	3.69
361.895	3.71
362.259	3.66
362.623	3.7
362.987	3.68
363.351	3.67
363.714	3.66
364.078	3.68
364.442	3.63
364.806	3.6
365.169	3.65
365.533	3.65
365.896	3.64
366.26	3.6
366.623	3.65
366.987	3.69
367.35	3.74
367.714	3.74
368.077	3.72
368.44	3.71
368.803	3.69
369.167	3.68
369.53	3.65
369.893	3.77
370.256	3.72
370.619	3.76
370.982	3.76
371.345	3.74
371.708	3.67
372.071	3.78
372.434	3.78
372.797	3.76
373.159	3.7
373.522	3.7
373.885	3.74
374.247	3.69
374.61	3.66
374.973	3.64
375.335	3.64
375.698	3.65
376.06	3.62
376.423	3.61
376.785	3.68
377.147	3.71
377.51	3.65
377.872	3.68
378.234	3.64
378.596	3.65
378.958	3.64
379.321	3.72
379.683	3.63
380.045	3.6
380.407	3.56
380.769	3.6
381.13	3.53
381.492	3.51
381.854	3.53
382.216	3.55
382.578	3.57
382.939	3.57
383.301	3.54
383.663	3.52
384.024	3.52
384.386	3.54
384.747	3.53
385.109	3.5
385.47	3.46
385.832	3.49
386.193	3.5
386.554	3.53
386.916	3.52
387.277	3.54
387.638	3.59
387.999	3.61
388.36	3.61
388.721	3.66
389.082	3.64
389.443	3.62
389.804	3.61
390.165	3.62
390.526	3.62
390.887	3.66
391.248	3.72
391.609	3.69
391.969	3.63
392.33	3.63
392.691	3.67
393.051	3.68
393.412	3.69
393.772	3.65
394.133	3.62
394.493	3.61
394.854	3.62
395.214	3.59
395.574	3.59
395.935	3.58
396.295	3.61
396.655	3.61
397.015	3.6
397.376	3.61
397.736	3.59
398.096	3.6
398.456	3.57
398.816	3.56
399.176	3.57
399.535	3.55
399.895	3.54
400.255	3.52
400.615	3.54
400.975	3.54
401.334	3.58
401.694	3.61
402.054	3.63
402.413	3.64
402.773	3.63
403.132	3.61
403.492	3.64
403.851	3.58
404.211	3.6
404.57	3.61
404.929	3.6
405.288	3.6
405.648	3.58
406.007	3.6
406.366	3.58
406.725	3.6
407.084	3.65
407.443	3.66
407.802	3.67
408.161	3.65
408.52	3.61
408.879	3.61
409.238	3.59
409.596	3.54
409.955	3.52
410.314	3.54
410.673	3.53
411.031	3.51
411.39	3.55
411.748	3.54
412.107	3.56
412.465	3.57
412.824	3.56
413.182	3.58
413.54	3.59
413.899	3.61
414.257	3.62
414.615	3.57
414.974	3.57
415.332	3.59
415.69	3.58
416.048	3.59
416.406	3.58
416.764	3.6
417.122	3.62
417.48	3.63
417.838	3.62
418.195	3.62
418.553	3.62
418.911	3.61
419.269	3.62
419.626	3.59
419.984	3.57
420.342	3.58
420.699	3.55
421.057	3.54
421.414	3.51
421.772	3.51
422.129	3.52
422.486	3.5
422.844	3.5
423.201	3.51
423.558	3.49
423.915	3.48
424.273	3.47
424.63	3.45
424.987	3.44
425.344	3.44
425.701	3.44
426.058	3.44
426.415	3.42
426.772	3.41
427.128	3.42
427.485	3.44
427.842	3.4
428.199	3.44
428.555	3.43
428.912	3.45
429.269	3.45
429.625	3.43
429.982	3.43
430.338	3.39
430.695	3.37
431.051	3.36
431.407	3.37
431.764	3.36
432.12	3.36
432.476	3.35
432.832	3.34
433.189	3.34
433.545	3.32
433.901	3.33
434.257	3.32
434.613	3.33
434.969	3.34
435.325	3.35
435.681	3.33
436.036	3.33
436.392	3.34
436.748	3.34
437.104	3.36
437.459	3.36
437.815	3.37
438.171	3.38
438.526	3.39
438.882	3.4
439.237	3.42
439.593	3.45
439.948	3.47
440.304	3.49
440.659	3.48
441.014	3.49
441.369	3.48
441.725	3.48
442.08	3.46
442.435	3.47
442.79	3.47
443.145	3.46
443.5	3.48
443.855	3.48
444.21	3.48
444.565	3.49
444.92	3.5
445.275	3.49
445.629	3.49
445.984	3.49
446.339	3.46
446.693	3.44
447.048	3.42
447.403	3.42
447.757	3.41
448.112	3.4
448.466	3.39
448.82	3.4
449.175	3.42
449.529	3.41
449.883	3.38
450.238	3.39
450.592	3.4
450.946	3.36
451.3	3.35
451.654	3.35
452.008	3.32
452.362	3.31
452.716	3.31
453.07	3.31
453.424	3.31
453.778	3.33
454.132	3.34
454.486	3.34
454.839	3.34
455.193	3.33
455.547	3.34
455.9	3.34
456.254	3.35
456.607	3.35
456.961	3.38
457.314	3.39
457.668	3.39
458.021	3.38
458.375	3.39
458.728	3.39
459.081	3.39
459.434	3.4
459.787	3.43
460.141	3.43
460.494	3.43
460.847	3.43
461.2	3.42
461.553	3.42
461.906	3.43
462.259	3.44
462.611	3.46
462.964	3.47
463.317	3.47
463.67	3.46
464.022	3.44
464.375	3.41
464.728	3.4
465.08	3.39
465.433	3.4
465.785	3.41
466.138	3.41
466.49	3.42
466.843	3.4
467.195	3.38
467.547	3.4
467.899	3.4
468.252	3.4
468.604	3.44
468.956	3.43
469.308	3.44
469.66	3.41
470.012	3.4
470.364	3.42
470.716	3.43
471.068	3.43
471.42	3.45
471.772	3.48
472.123	3.49
472.475	3.5
472.827	3.51
473.178	3.52
473.53	3.53
473.882	3.55
474.233	3.56
474.585	3.57
474.936	3.54
475.288	3.54
475.639	3.55
475.99	3.52
476.342	3.53
476.693	3.54
477.044	3.55
477.395	3.54
477.746	3.54
478.097	3.52
478.448	3.51
478.8	3.52
479.15	3.53
479.501	3.54
479.852	3.54
480.203	3.54
480.554	3.54
480.905	3.53
481.255	3.53
481.606	3.54
481.957	3.55
482.307	3.56
482.658	3.57
483.009	3.57
483.359	3.57
483.709	3.57
484.06	3.57
484.41	3.58
484.761	3.58
485.111	3.58
485.461	3.58
485.811	3.59
486.162	3.6
486.512	3.59
486.862	3.58
487.212	3.58
487.562	3.58
487.912	3.58
488.262	3.58
488.612	3.58
488.961	3.57
489.311	3.58
489.661	3.58
490.011	3.57
490.36	3.58
490.71	3.58
491.06	3.58
491.409	3.58
491.759	3.56
492.108	3.58
492.458	3.59
492.807	3.58
493.157	3.57
493.506	3.58
493.855	3.59
494.204	3.59
494.554	3.59
494.903	3.59
495.252	3.6
495.601	3.61
495.95	3.61
496.299	3.61
496.648	3.6
496.997	3.6
497.346	3.6
497.695	3.6
498.043	3.61
498.392	3.6
498.741	3.61
499.09	3.61
499.438	3.6
499.787	3.6
500.135	3.62
500.484	3.63
500.832	3.63
501.181	3.62
501.529	3.64
501.878	3.64
502.226	3.65
502.574	3.67
502.923	3.66
503.271	3.65
503.619	3.68
503.967	3.7
504.315	3.69
504.663	3.71
505.011	3.72
505.359	3.73
505.707	3.77
506.055	3.76
506.403	3.79
506.751	3.81
507.098	3.83
507.446	3.85
507.794	3.83
508.141	3.83
508.489	3.84
508.837	3.84
509.184	3.85
509.531	3.87
509.879	3.88
510.226	3.92
510.574	3.93
510.921	3.93
511.268	3.91
511.616	3.92
511.963	3.93
512.31	3.93
512.657	3.95
513.004	3.96
513.351	3.99
513.698	3.99
514.045	3.99
514.392	3.99
514.739	3.99
515.086	4.02
515.432	4.04
515.779	4.03
516.126	4.04
516.473	4.06
516.819	4.06
517.166	4.04
517.512	4.02
517.859	4.03
518.205	4.01
518.552	4.04
518.898	4.03
519.245	4.02
519.591	4.02
519.937	4.01
520.283	4.01
520.629	4
520.976	4.01
521.322	3.99
521.668	3.98
522.014	3.99
522.36	4
522.706	4
523.052	4.02
523.398	4.02
523.743	4.03
524.089	4.02
524.435	4.02
524.781	4.03
525.126	4.05
525.472	4.08
525.817	4.07
526.163	4.07
526.509	4.08
526.854	4.09
527.199	4.1
527.545	4.09
527.89	4.09
528.235	4.1
528.581	4.1
528.926	4.11
529.271	4.1
529.616	4.09
529.961	4.08
530.306	4.08
530.651	4.08
530.996	4.07
531.341	4.08
531.686	4.09
532.031	4.11
532.376	4.11
532.721	4.1
533.065	4.1
533.41	4.12
533.755	4.12
534.099	4.11
534.444	4.1
534.788	4.1
535.133	4.11
535.477	4.11
535.822	4.11
536.166	4.11
536.51	4.11
536.855	4.12
537.199	4.13
537.543	4.14
537.887	4.14
538.231	4.13
538.576	4.13
538.92	4.13
539.264	4.12
539.608	4.12
539.951	4.11
540.295	4.11
540.639	4.1
540.983	4.1
541.327	4.11
541.671	4.11
542.014	4.11
542.358	4.09
542.701	4.1
543.045	4.1
543.389	4.09
543.732	4.09
544.075	4.08
544.419	4.08
544.762	4.08
545.105	4.08
545.449	4.07
545.792	4.08
546.135	4.07
546.478	4.07
546.821	4.04
547.165	4.06
547.508	4.07
547.851	4.08
548.194	4.09
548.536	4.08
548.879	4.09
549.222	4.08
549.565	4.11
549.908	4.12
550.25	4.11
550.593	4.13
550.936	4.12
551.278	4.13
551.621	4.14
551.963	4.17
552.306	4.2
552.648	4.23
552.991	4.26
553.333	4.25
553.675	4.25
554.017	4.28
554.36	4.27
554.702	4.3
555.044	4.27
555.386	4.26
555.728	4.26
556.07	4.26
556.412	4.27
556.754	4.27
557.096	4.24
557.438	4.28
557.78	4.28
558.121	4.29
558.463	4.31
558.805	4.32
559.147	4.28
559.488	4.26
559.83	4.25
560.171	4.2
560.513	4.24
560.854	4.22
561.196	4.22
561.537	4.23
561.878	4.21
562.22	4.22
562.561	4.21
562.902	4.22
563.243	4.21
563.584	4.23
563.925	4.23
564.266	4.23
564.607	4.21
564.948	4.23
565.289	4.23
565.63	4.22
565.971	4.21
566.312	4.22
566.653	4.25
566.993	4.24
567.334	4.25
567.675	4.23
568.015	4.24
568.356	4.24
568.696	4.25
569.037	4.27
569.377	4.28
569.718	4.28
570.058	4.29
570.398	4.29
570.739	4.28
571.079	4.32
571.419	4.33
571.759	4.35
572.099	4.35
572.439	4.34
572.779	4.35
573.119	4.33
573.459	4.36
573.799	4.35
574.139	4.35
574.479	4.35
574.819	4.36
575.158	4.34
575.498	4.33
575.838	4.3
576.177	4.29
576.517	4.31
576.856	4.32
577.196	4.31
577.535	4.29
577.875	4.3
578.214	4.27
578.553	4.27
578.893	4.27
579.232	4.26
579.571	4.32
579.91	4.28
580.25	4.28
580.589	4.26
580.928	4.24
581.267	4.25
581.606	4.24
581.945	4.25
582.283	4.2
582.622	4.21
582.961	4.23
583.3	4.23
583.639	4.19
583.977	4.21
584.316	4.22
584.654	4.24
584.993	4.23
585.332	4.24
585.67	4.25
586.008	4.23
586.347	4.2
586.685	4.15
587.024	4.18
587.362	4.2
587.7	4.21
588.038	4.24
588.376	4.2
588.715	4.19
589.053	4.24
589.391	4.3
589.729	4.31
590.067	4.33
590.404	4.32
590.742	4.38
591.08	4.36
591.418	4.38
591.756	4.39
592.093	4.38
592.431	4.37
592.769	4.38
593.106	4.36
593.444	4.34
593.781	4.33
594.119	4.35
594.456	4.35
594.793	4.36
595.131	4.35
595.468	4.41
595.805	4.43
596.143	4.37
596.48	4.38
596.817	4.36
597.154	4.38
597.491	4.38
597.828	4.35
598.165	4.35
598.502	4.32
598.839	4.35
599.176	4.38
599.512	4.35
599.849	4.34
600.186	4.38
600.523	4.43
600.859	4.48
601.196	4.48
601.532	4.45
601.869	4.44
602.205	4.45
602.542	4.44
602.878	4.42
603.215	4.47
603.551	4.45
603.887	4.47
604.223	4.46
604.56	4.51
604.896	4.51
605.232	4.51
605.568	4.52
605.904	4.5
606.24	4.54
606.576	4.57
606.912	4.57
607.248	4.55
607.583	4.59
607.919	4.54
608.255	4.54
608.591	4.62
608.926	4.62
609.262	4.62
609.597	4.58
609.933	4.6
610.268	4.59
610.604	4.61
610.939	4.56
611.275	4.58
611.61	4.53
611.945	4.53
612.281	4.49
612.616	4.49
612.951	4.47
613.286	4.45
613.621	4.46
613.956	4.42
614.291	4.46
614.626	4.4
614.961	4.39
615.296	4.35
615.631	4.32
615.966	4.32
616.3	4.31
616.635	4.34
616.97	4.33
617.304	4.3
617.639	4.34
617.973	4.39
618.308	4.39
618.642	4.39
618.977	4.41
619.311	4.47
619.646	4.5
619.98	4.51
620.314	4.43
620.648	4.46
620.983	4.53
621.317	4.54
621.651	4.53
621.985	4.61
622.319	4.65
622.653	4.64
622.987	4.68
623.321	4.68
623.655	4.74
623.988	4.8
624.322	4.77
624.656	4.76
624.99	4.75
625.323	4.74
625.657	4.8
625.99	4.77
626.324	4.73
626.657	4.66
626.991	4.68
627.324	4.71
627.658	4.71
627.991	4.74
628.324	4.69
628.657	4.73
628.991	4.71
629.324	4.68
629.657	4.69
629.99	4.7
630.323	4.65
630.656	4.62
630.989	4.6
631.322	4.66
631.655	4.6
631.987	4.59
632.32	4.58
632.653	4.55
632.986	4.57
633.318	4.61
633.651	4.7
633.984	4.68
634.316	4.67
634.649	4.64
634.981	4.6
635.313	4.59
635.646	4.55
635.978	4.53
636.31	4.53
636.643	4.54
636.975	4.47
637.307	4.47
637.639	4.46
637.971	4.43
638.303	4.43
638.635	4.45
638.967	4.44
639.299	4.42
639.631	4.35
639.963	4.27
640.295	4.24
640.626	4.23
640.958	4.28
641.29	4.3
641.621	4.38
641.953	4.34
642.285	4.39
642.616	4.43
642.948	4.45
643.279	4.44
643.61	4.4
643.942	4.42
644.273	4.48
644.604	4.47
644.936	4.46
645.267	4.44
645.598	4.45
645.929	4.49
646.26	4.6
646.591	4.64
646.922	4.62
647.253	4.64
647.584	4.58
647.915	4.54
648.245	4.5
648.576	4.57
648.907	4.56
649.238	4.52
649.568	4.53
649.899	4.58
650.229	4.62
650.56	4.68
650.89	4.71
651.221	4.71
651.551	4.7
651.882	4.69
652.212	4.76
652.542	4.79
652.872	4.8
653.203	4.76
653.533	4.78
653.863	4.88
654.193	4.9
654.523	4.93
654.853	4.94
655.183	4.95
655.513	4.84
655.843	4.8
656.172	4.84
656.502	4.83
656.832	4.81
657.162	4.87
657.491	4.86
657.821	4.86
658.15	4.91
658.48	4.94
658.809	4.98
659.139	4.95
659.468	4.92
659.798	4.94
660.127	4.98
660.456	5.01
660.785	4.98
661.115	5
661.444	4.95
661.773	4.97
662.102	5
662.431	5.03
662.76	5.14
663.089	5.15
663.418	5.15
663.747	5.17
664.076	5.1
664.404	5.05
664.733	5.08
665.062	4.98
665.39	4.96
665.719	4.92
666.048	4.91
666.376	4.85
666.705	4.74
667.033	4.56
667.362	4.62
667.69	4.6
668.018	4.5
668.347	4.57
668.675	4.58
669.003	4.64
669.331	4.67
669.659	4.61
669.987	4.52
670.315	4.45
670.643	4.39
670.971	4.43
671.299	4.57
671.627	4.57
671.955	4.57
672.283	4.57
672.61	4.55
672.938	4.62
673.266	4.72
673.593	4.88
673.921	4.98
674.249	4.9
674.576	4.92
674.904	5.02
675.231	5
675.558	4.92
675.886	4.84
676.213	4.87
676.54	4.95
676.867	5.09
677.195	5.17
677.522	5.17
677.849	5.15
678.176	5.14
678.503	5.09
678.83	5.08
679.157	5.11
679.484	5.08
679.81	5.02
680.137	5.05
680.464	4.99
680.791	4.99
681.117	5
681.444	5.03
681.771	5.03
682.097	5
682.424	5.04
682.75	5.08
683.077	4.98
683.403	5.03
683.729	4.97
684.056	4.99
684.382	5.03
684.708	5.01
685.034	4.97
685.36	5.03
685.686	5.06
686.012	5.01
686.339	5.12
686.664	5.11
686.99	4.97
687.316	4.99
687.642	5.08
687.968	5.01
688.294	5.1
688.619	5.08
688.945	5.1
689.271	5.06
689.596	4.98
689.922	5.02
690.247	4.92
690.573	4.94
690.898	4.91
691.224	5
691.549	5.07
691.874	4.99
692.2	4.96
692.525	5.04
692.85	5.16
693.175	5.15
693.5	5.26
693.825	5.36
694.15	5.34
694.475	5.28
694.8	5.41
695.125	5.32
695.45	5.32
695.775	5.37
696.099	5.39
696.424	5.42
696.749	5.46
697.073	5.42
697.398	5.52
697.723	5.54
698.047	5.44
698.372	5.43
698.696	5.49
699.02	5.5
699.345	5.43
699.669	5.4
699.993	5.45
700.318	5.35
700.642	5.35
700.966	5.38
701.29	5.4
701.614	5.33
701.938	5.37
702.262	5.44
702.586	5.44
702.91	5.37
703.234	5.43
703.557	5.51
703.881	5.65
704.205	5.59
704.529	5.61
704.852	5.61
705.176	5.5
705.499	5.46
705.823	5.47
706.146	5.49
706.47	5.52
706.793	5.33
707.117	5.37
707.44	5.37
707.763	5.29
708.086	5.22
708.409	5.22
708.733	5.24
709.056	5.22
709.379	5.21
709.702	5.26
710.025	5.11
710.348	4.94
710.671	4.73
710.993	4.65
711.316	4.63
711.639	4.71
711.962	4.87
712.284	4.92
712.607	4.87
712.93	4.95
713.252	4.92
713.575	5.02
713.897	5.12
714.22	5.12
714.542	5.19
714.864	5.26
715.187	5.28
715.509	5.17
715.831	5.07
716.153	5.09
716.475	5.27
716.798	5.45
717.12	5.39
717.442	5.41
717.764	5.44
718.085	5.36
718.407	5.34
718.729	5.24
719.051	5.29
719.373	5.21
719.695	5.1
720.016	5.12
720.338	5.24
720.659	5.24
720.981	5.23
721.302	5.26
721.624	5.22
721.945	5.28
722.267	5.31
722.588	5.43
722.909	5.48
723.231	5.29
723.552	5.24
723.873	5.44
724.194	5.63
724.515	5.6
724.836	5.67
725.157	5.69
725.478	5.61
725.799	5.49
726.12	5.48
726.441	5.55
726.762	5.55
727.083	5.53
727.403	5.41
727.724	5.57
728.045	5.56
728.365	5.66
728.686	5.56
729.006	5.49
729.327	5.51
729.647	5.63
729.967	5.62
730.288	5.67
730.608	5.7
730.928	5.7
731.249	5.63
731.569	5.83
731.889	5.85
732.209	5.92
732.529	6.01
732.849	6.14
733.169	6.1
733.489	6.2
733.809	6.18
734.129	6.23
734.448	6.07
734.768	5.96
735.088	5.91
735.408	5.99
735.727	6.16
736.047	6.11
736.366	5.85
736.686	5.93
737.005	5.92
737.325	5.78
737.644	5.84
737.963	6.03
738.283	5.9
738.602	6.02
738.921	6.11
739.24	6.1
739.56	6.13
739.879	6.24
740.198	6.21
740.517	6.18
740.836	6.11
741.155	6.21
741.473	6.35
741.792	6.43
742.111	6.4
742.43	6.31
742.748	6.32
743.067	6.55
743.386	6.61
743.704	6.61
744.023	6.61
744.341	6.45
744.66	6.42
744.978	6.26
745.297	6.05
745.615	5.97
745.933	5.87
746.252	5.89
746.57	5.71
746.888	5.57
747.206	5.61
747.524	5.71
747.842	5.87
748.16	6
748.478	5.92
748.796	6.15
749.114	6.29
749.432	6.3
749.749	6.21
750.067	6.36
750.385	6.33
750.703	6.24
751.02	6.37
751.338	6.25
751.655	6.5
751.973	6.29
752.29	6.19
752.608	6.4
752.925	6.54
753.242	6.54
753.56	6.61
753.877	6.34
754.194	6.35
754.511	6.25
754.828	6.14
755.145	6.27
755.462	5.98
755.779	5.94
756.096	5.88
756.413	6.01
756.73	5.93
757.047	5.9
757.364	6.1
757.68	5.91
757.997	5.95
758.314	5.73
758.63	6.02
758.947	6.08
759.264	5.87
759.58	5.75
759.896	5.88
760.213	5.96
760.529	6.27
760.846	6.19
761.162	6.26
761.478	6.11
761.794	5.86
762.11	6.06
762.426	6.01
762.743	6.15
763.059	6.07
763.375	6.12
763.69	6.21
764.006	6.17
764.322	6.25
764.638	6.42
764.954	6.49
765.27	6.34
765.585	6.38
765.901	6.4
766.216	6.63
766.532	6.65
766.848	6.57
767.163	6.49
767.478	6.69
767.794	6.54
768.109	6.64
768.424	6.78
768.74	6.79
769.055	6.99
769.37	7.01
769.685	6.99
770	6.9
770.315	6.81
770.63	7.03
770.945	7.05
771.26	7.02
771.575	7.21
771.89	7.52
772.205	7.49
772.52	7.54
772.834	7.3
773.149	7.42
773.464	7.45
773.778	7.83
774.093	7.48
774.407	7.31
774.722	7.58
775.036	7.8
775.351	7.64
775.665	7.61
775.979	7.51
776.293	7.49
776.608	7.19
776.922	7.18
777.236	7.03
777.55	7.1
777.864	6.96
778.178	6.9
778.492	6.73
778.806	6.54
779.12	6.43
779.434	6.35
779.747	6.53
780.061	6.72
780.375	6.3
780.689	6.61
781.002	6.77
781.316	6.72
781.629	6.91
781.943	7.09
782.256	6.67
782.57	6.62
782.883	6.88
783.196	7.02
783.51	7.01
783.823	7
784.136	6.71
784.449	6.39
784.762	6.35
785.075	6.59
785.388	6.85
785.701	6.8
786.014	6.55
786.327	6.51
786.64	6.36
786.953	6.36
787.266	5.83
787.578	6.19
787.891	6.19
788.204	5.96
788.516	6.04
788.829	6.38
789.141	6.6
789.454	6.28
789.766	6.68
790.079	6.69
790.391	6.65
790.703	7.01
791.016	7.47
791.328	7.27
791.64	7.28
791.952	7.26
792.264	7.48
792.576	7.42
792.888	6.91
793.2	7.22
793.512	7.34
793.824	7.92
794.136	7.88
794.448	7.65
794.76	7.18
795.071	6.56
795.383	6.29
795.695	5.84
796.006	5.98
796.318	5.59
796.629	5.71
796.941	5.47
797.252	5.43
797.564	5.78
797.875	5.69
798.186	5.36
798.497	5.18
798.809	5.32
799.12	5.47
799.431	5.91
799.742	5.47
800.053	5.76
800.364	5.64
800.675	5.26
800.986	4.97
801.297	5.15
801.608	5.25
801.918	5.27
802.229	5.78
802.54	5.61
802.851	5.71
803.161	5.99
803.472	6.22
803.782	6.35
804.093	5.55
804.403	5.73
804.714	5.84
805.024	6.02
805.334	5.86
805.645	6.03
805.955	5.87
806.265	6.46
806.575	6.09
806.885	6.32
807.195	6.43
807.505	6.96
807.815	7.44
808.125	7.78
808.435	8.41
808.745	7.92
809.055	8.25
809.365	8.2
809.674	8.02
809.984	8.17
810.294	8.11
810.603	8.37
810.913	8.61
811.222	9
811.532	9.38
811.841	10.14
812.151	10.18
812.46	10.26
812.769	9.67
813.079	9.34
813.388	8.81
813.697	8.89
814.006	8.7
814.315	8.43
814.624	7.99
814.933	8.31
815.242	8.61
815.551	8.65
815.86	9.35
816.169	8.74
816.478	8.72
816.786	8.5
817.095	8.72
817.404	8.68
817.712	8.3
818.021	8.02
818.33	7.35
818.638	7.28
818.947	7.93
819.255	8.56
819.563	8.87
819.872	8.87
820.18	8.84
820.488	8.61
820.796	8.75
821.105	8.88
821.413	8.53
821.721	8.57
822.029	8.61
822.337	8.48
822.645	8.54
822.953	8.52
823.26	8.54
823.568	8.55
823.876	8.56
824.184	8.58
824.491	8.57
824.799	8.67
825.107	8.73
825.414	8.6
825.722	8.54
826.029	8.56
826.337	8.69
826.644	8.65
826.951	8.82
827.259	8.7
827.566	8.63
827.873	8.67
828.18	8.71
828.488	8.66
828.795	8.62
829.102	9.03
829.409	9.31
829.716	9.4
830.023	9.22
830.329	9.2
830.636	9.22
830.943	9.21
831.25	9.46
831.557	9.58
831.863	9.42
832.17	9.03
832.476	8.93
832.783	8.72
833.089	8.56
833.396	8.65
833.702	8.71
834.009	9.09
834.315	9.13
834.621	8.78
834.928	8.97
835.234	9.07
835.54	8.51
835.846	8.39
836.152	8.25
836.458	8.28
836.764	8.07
837.07	8.21
837.376	8.31
837.682	7.77
837.988	7.36
838.293	7.34
838.599	7.49
838.905	7.14
839.211	7.05
839.516	7.91
839.822	7.97
840.127	7.9
840.433	7.67
840.738	7.24
841.044	7.13
841.349	6.86
841.654	5.67
841.959	5.42
842.265	4.87
842.57	5.59
842.875	5.94
843.18	6.05
843.485	6.43
843.79	5.82
844.095	5.41
844.4	6.58
844.705	5.93
845.01	6
845.315	6.17
845.619	5.79
845.924	4.76
846.229	4.76
846.533	4.85
846.838	4.5
847.142	4.85
847.447	3.53
847.751	3.77
848.056	5.05
848.36	5.13
848.664	3.89
848.969	2.06
849.273	1.19
849.577	1.31
849.881	0.46
850.185	2.3
850.489	3.72
850.794	2.17
851.097	5.23
851.401	5.16
851.705	3.47
852.009	4.8
852.313	4.42
852.617	2.87
852.92	4.92
853.224	4.7
853.528	4.39
853.831	7.19
854.135	6.34
854.438	6.72
854.742	6.71
855.045	8.05
855.349	8.91
855.652	10.53
855.955	13.16
856.259	11.54
856.562	10.43
856.865	11.13
857.168	9.87
857.471	8.61
857.774	8.4
858.077	10.72
858.38	10.18
858.683	10.52
858.986	12.25
859.289	10.34
859.592	9.37
859.894	10.5
860.197	8.95
860.5	8.64
860.802	6.79
861.105	8.5
861.407	7.28
861.71	6.81
862.012	4.86
862.315	-0.21
862.617	0.54
862.919	0.8
863.222	1.33
863.524	2.5
863.826	1.4
864.128	1.1
864.43	2.48
864.732	3.76
865.034	2.87
865.336	1.39
865.638	2.22
865.94	2.76
866.242	3.11
866.544	3.31
866.846	2.82
867.147	6.16
867.449	4.08
867.751	5.48
868.052	6.43
868.354	6.78
868.655	10.62
868.957	10.71
869.258	10.51
869.56	7.9
869.861	9.79
870.162	8.25
870.463	10.14
870.765	7.11
871.066	5.06
871.367	5.22
871.668	5.56
871.969	4.9
872.27	5.7
872.571	5.9
872.872	7.34
873.173	8.29
873.473	8.61
873.774	9.41
874.075	7.72
874.376	6.54
874.676	8.54
874.977	7.82
875.277	9.59
875.578	9.55
875.878	9.74
876.179	8.49
876.479	10.91
876.78	8.9
877.08	10.54
877.38	10.86
877.68	12.48
877.981	12.76
878.281	11.81
878.581	12.19
