Data from BU56854_Reflection_00015.txt Node
Date: Mon Nov 18 16:27:13 EST 2019
User: vgr7
Spectrometer: USB2G7710
Scans to average: 3
Trigger mode: 4
Integration Time (sec): 2.000000E-2
Electric dark correction enabled: true
Boxcar width: 10
XAxis mode: Wavelengths
Number of Pixels in Spectrum: 2048
>>>>>Begin Spectral Data<<<<<
177.721	132.34
178.105	-55.69
178.488	-1883.61
178.871	105.68
179.254	41.51
179.636	60.62
180.019	101.06
180.402	72.73
180.785	124.09
181.168	90.62
181.55	65.41
181.933	76.2
182.316	144.68
182.698	155.83
183.081	154.18
183.463	129.73
183.846	125.15
184.228	164.36
184.611	176.17
184.993	217.84
185.376	229.78
185.758	489.74
186.14	1338.24
186.522	1402.11
186.904	-1515.97
187.287	-1285.85
187.669	-547.06
188.051	-22076.47
188.433	-849.26
188.815	-231.42
189.197	-205.54
189.579	-139.55
189.961	-151.57
190.342	-117.86
190.724	-111.86
191.106	-118.48
191.488	-114.9
191.869	-81.6
192.251	-74.98
192.633	-54.91
193.014	-57.19
193.396	-57.34
193.777	-59.39
194.159	-62.01
194.54	-44.63
194.922	-57.43
195.303	-46.82
195.684	-54.5
196.065	-46.62
196.447	-57.16
196.828	-71.72
197.209	-67.52
197.59	-67.68
197.971	-65.48
198.352	-45.22
198.733	-52.74
199.114	-45.5
199.495	-48.78
199.876	-45.09
200.257	-50.06
200.638	-54.25
201.018	-66.15
201.399	-80.47
201.78	-75.48
202.16	-84.08
202.541	-129.81
202.922	-131.44
203.302	-197.89
203.683	-195.68
204.063	-213.38
204.444	-153.42
204.824	-157.57
205.204	-127.97
205.585	-155.84
205.965	-127.86
206.345	-197.58
206.725	-177.4
207.106	-217.75
207.486	-269.76
207.866	-300.75
208.246	-270.21
208.626	-292.09
209.006	-233.85
209.386	-343.73
209.766	-381.02
210.145	-297.33
210.525	-175.57
210.905	-146.02
211.285	-105.09
211.664	-92.77
212.044	-88.02
212.424	-95.36
212.803	-86.3
213.183	-77.63
213.562	-44.95
213.942	-37.58
214.321	-25.83
214.701	-22.84
215.08	-24.26
215.459	-12.32
215.838	-8.15
216.218	-12.19
216.597	-2.92
216.976	-4.36
217.355	-1.43
217.734	-2.57
218.113	-1.96
218.492	-4.73
218.871	-9.89
219.25	-8.58
219.629	-14.42
220.008	-20.46
220.387	-27.15
220.766	-29.09
221.144	-43.37
221.523	-53.72
221.902	-55.04
222.28	-53.43
222.659	-46.62
223.037	-33.03
223.416	-35.01
223.794	-46.3
224.173	-45.22
224.551	-40.51
224.929	-42.26
225.308	-31.85
225.686	-24.99
226.064	-22.69
226.442	-18.94
226.821	-13.89
227.199	-15.2
227.577	-15.3
227.955	-12.27
228.333	-10.09
228.711	-6.71
229.089	-2.72
229.467	-4.9
229.845	-5.52
230.222	-5.98
230.6	-6.61
230.978	-10.47
231.356	-6.09
231.733	-4.56
232.111	-3.31
232.488	-4.07
232.866	-2.98
233.243	-2.84
233.621	-3.43
233.998	-0.52
234.376	-0.68
234.753	-0.73
235.13	0.85
235.508	0.14
235.885	-0.05
236.262	-0.27
236.639	-0.58
237.016	0.84
237.393	3.44
237.77	4.44
238.147	4.65
238.524	4.11
238.901	6.53
239.278	5.23
239.655	5.46
240.032	5.57
240.409	5.62
240.785	6.13
241.162	5.35
241.539	5.54
241.915	4.87
242.292	4.28
242.668	4.33
243.045	3.94
243.421	4.04
243.798	4.23
244.174	4.07
244.551	3.81
244.927	3.34
245.303	3.35
245.679	3.65
246.056	3.48
246.432	3.58
246.808	3.36
247.184	3.38
247.56	3.22
247.936	3.08
248.312	3.05
248.688	2.94
249.064	2.93
249.44	2.99
249.815	2.77
250.191	2.98
250.567	3.08
250.943	3.27
251.318	3.38
251.694	3.11
252.069	3.1
252.445	3.24
252.82	3.45
253.196	3.31
253.571	2.87
253.947	3.21
254.322	3.27
254.697	3.46
255.073	3.22
255.448	3.31
255.823	3.67
256.198	3.71
256.573	3.76
256.948	3.96
257.323	4.04
257.698	4.04
258.073	3.99
258.448	3.93
258.823	3.82
259.198	3.7
259.573	3.79
259.948	3.98
260.322	4.1
260.697	3.96
261.072	3.92
261.446	3.97
261.821	3.97
262.195	4.17
262.57	3.94
262.944	4.04
263.319	4.12
263.693	3.93
264.067	4.04
264.442	4.13
264.816	3.97
265.19	3.78
265.564	4.04
265.938	4.07
266.313	3.93
266.687	3.86
267.061	3.9
267.435	3.88
267.809	3.7
268.183	3.52
268.556	3.48
268.93	3.54
269.304	3.53
269.678	3.53
270.051	3.35
270.425	3.36
270.799	3.26
271.172	3.07
271.546	3.17
271.919	2.98
272.293	2.96
272.666	3
273.04	3.21
273.413	3.09
273.787	3.11
274.16	3.06
274.533	3.07
274.906	3.08
275.279	3.19
275.653	3.27
276.026	3.36
276.399	3.54
276.772	3.46
277.145	3.38
277.518	3.42
277.891	3.35
278.263	3.4
278.636	3.43
279.009	3.56
279.382	3.62
279.755	3.66
280.127	3.62
280.5	3.78
280.872	3.77
281.245	3.64
281.617	3.66
281.99	3.92
282.362	3.97
282.735	3.93
283.107	3.78
283.479	3.74
283.852	3.84
284.224	3.72
284.596	3.86
284.968	3.92
285.34	3.94
285.713	4.08
286.085	4.11
286.457	4.17
286.829	4.26
287.201	4.2
287.572	4.23
287.944	4.21
288.316	4.04
288.688	4.01
289.06	4.14
289.431	4.18
289.803	4.23
290.175	4.26
290.546	4.55
290.918	4.66
291.289	4.73
291.661	4.65
292.032	4.79
292.403	4.75
292.775	4.8
293.146	4.76
293.517	4.76
293.889	4.71
294.26	4.82
294.631	4.7
295.002	4.79
295.373	4.95
295.744	5.02
296.115	5.14
296.486	5.11
296.857	5.12
297.228	5.18
297.599	5.04
297.97	5.13
298.34	5.12
298.711	5.17
299.082	5.27
299.452	5.39
299.823	5.48
300.194	5.47
300.564	5.51
300.935	5.59
301.305	5.58
301.676	5.8
302.046	5.81
302.416	6.05
302.787	6.2
303.157	6.21
303.527	6.15
303.897	6.33
304.267	6.61
304.637	6.81
305.008	6.88
305.378	7.13
305.748	7.19
306.117	7.04
306.487	7.21
306.857	7.21
307.227	7.32
307.597	7.35
307.967	7.61
308.336	7.72
308.706	7.86
309.076	8.14
309.445	8.12
309.815	8.22
310.184	8.38
310.554	8.4
310.923	8.52
311.293	8.71
311.662	8.83
312.031	8.88
312.401	8.9
312.77	9.12
313.139	9.22
313.508	9.33
313.877	9.51
314.246	9.65
314.616	9.77
314.985	9.73
315.353	9.74
315.722	9.83
316.091	10
316.46	9.94
316.829	9.9
317.198	9.99
317.567	10.14
317.935	9.95
318.304	10.12
318.672	10.1
319.041	10.25
319.41	10.18
319.778	10.15
320.147	10.3
320.515	10.35
320.883	10.39
321.252	10.64
321.62	10.94
321.988	10.97
322.357	11.13
322.725	11.41
323.093	11.6
323.461	11.69
323.829	11.92
324.197	12.14
324.565	12.1
324.933	12.36
325.301	12.47
325.669	12.53
326.037	12.64
326.405	12.84
326.772	12.94
327.14	13.03
327.508	13.19
327.875	13.18
328.243	13.28
328.61	13.51
328.978	13.48
329.346	13.45
329.713	13.49
330.08	13.62
330.448	13.6
330.815	13.68
331.182	13.72
331.55	13.61
331.917	13.69
332.284	13.9
332.651	13.94
333.018	14
333.385	14.1
333.752	14.13
334.119	14.18
334.486	14.14
334.853	14.35
335.22	14.3
335.587	14.49
335.954	14.52
336.32	14.45
336.687	14.51
337.054	14.57
337.42	14.66
337.787	14.72
338.153	14.78
338.52	14.79
338.886	14.75
339.253	14.86
339.619	15.02
339.986	15.1
340.352	15.12
340.718	15.05
341.084	15.09
341.451	15.26
341.817	15.22
342.183	15.25
342.549	15.24
342.915	15.42
343.281	15.49
343.647	15.36
344.013	15.41
344.379	15.47
344.745	15.47
345.11	15.53
345.476	15.49
345.842	15.56
346.208	15.62
346.573	15.81
346.939	15.85
347.304	15.83
347.67	15.69
348.035	15.78
348.401	15.9
348.766	15.92
349.132	15.83
349.497	15.88
349.862	15.97
350.228	15.98
350.593	15.87
350.958	15.79
351.323	15.94
351.688	15.96
352.053	15.91
352.418	15.91
352.783	15.85
353.148	15.84
353.513	15.86
353.878	15.89
354.243	15.84
354.608	15.75
354.972	15.74
355.337	15.85
355.702	15.84
356.066	15.82
356.431	15.86
356.795	15.85
357.16	15.8
357.524	15.81
357.889	15.79
358.253	15.83
358.618	15.86
358.982	15.76
359.346	15.74
359.71	15.68
360.075	15.63
360.439	15.61
360.803	15.65
361.167	15.55
361.531	15.49
361.895	15.47
362.259	15.47
362.623	15.42
362.987	15.37
363.351	15.24
363.714	15.18
364.078	15.19
364.442	15.09
364.806	15.06
365.169	14.94
365.533	14.88
365.896	14.8
366.26	14.66
366.623	14.65
366.987	14.56
367.35	14.54
367.714	14.43
368.077	14.33
368.44	14.24
368.803	14.17
369.167	14.17
369.53	14.06
369.893	13.99
370.256	13.9
370.619	13.82
370.982	13.74
371.345	13.65
371.708	13.48
372.071	13.41
372.434	13.33
372.797	13.25
373.159	13.13
373.522	12.95
373.885	12.92
374.247	12.77
374.61	12.62
374.973	12.46
375.335	12.41
375.698	12.27
376.06	12.11
376.423	12
376.785	11.89
377.147	11.73
377.51	11.59
377.872	11.46
378.234	11.28
378.596	11.19
378.958	11.05
379.321	10.99
379.683	10.96
380.045	10.87
380.407	10.73
380.769	10.65
381.13	10.68
381.492	10.47
381.854	10.41
382.216	10.38
382.578	10.32
382.939	10.17
383.301	10.08
383.663	9.96
384.024	9.92
384.386	9.8
384.747	9.76
385.109	9.66
385.47	9.63
385.832	9.71
386.193	9.68
386.554	9.64
386.916	9.5
387.277	9.38
387.638	9.27
387.999	9.21
388.36	9.1
388.721	8.97
389.082	8.97
389.443	8.9
389.804	8.76
390.165	8.66
390.526	8.64
390.887	8.59
391.248	8.56
391.609	8.47
391.969	8.39
392.33	8.32
392.691	8.25
393.051	8.12
393.412	7.96
393.772	7.85
394.133	7.82
394.493	7.81
394.854	7.7
395.214	7.63
395.574	7.56
395.935	7.52
396.295	7.46
396.655	7.37
397.015	7.27
397.376	7.22
397.736	7.17
398.096	7.09
398.456	6.99
398.816	6.89
399.176	6.82
399.535	6.75
399.895	6.63
400.255	6.61
400.615	6.61
400.975	6.57
401.334	6.5
401.694	6.41
402.054	6.29
402.413	6.21
402.773	6.17
403.132	6.11
403.492	6.07
403.851	6.01
404.211	5.94
404.57	5.92
404.929	5.9
405.288	5.85
405.648	5.78
406.007	5.77
406.366	5.72
406.725	5.71
407.084	5.69
407.443	5.66
407.802	5.62
408.161	5.55
408.52	5.51
408.879	5.5
409.238	5.44
409.596	5.47
409.955	5.48
410.314	5.46
410.673	5.45
411.031	5.4
411.39	5.41
411.748	5.41
412.107	5.38
412.465	5.36
412.824	5.35
413.182	5.33
413.54	5.28
413.899	5.29
414.257	5.21
414.615	5.15
414.974	5.14
415.332	5.09
415.69	5.07
416.048	5.03
416.406	4.99
416.764	4.98
417.122	4.94
417.48	4.9
417.838	4.87
418.195	4.84
418.553	4.83
418.911	4.79
419.269	4.76
419.626	4.74
419.984	4.69
420.342	4.67
420.699	4.63
421.057	4.6
421.414	4.56
421.772	4.55
422.129	4.54
422.486	4.53
422.844	4.5
423.201	4.48
423.558	4.45
423.915	4.42
424.273	4.4
424.63	4.37
424.987	4.36
425.344	4.34
425.701	4.34
426.058	4.31
426.415	4.29
426.772	4.27
427.128	4.25
427.485	4.23
427.842	4.21
428.199	4.2
428.555	4.17
428.912	4.19
429.269	4.18
429.625	4.12
429.982	4.1
430.338	4.11
430.695	4.11
431.051	4.09
431.407	4.08
431.764	4.07
432.12	4.05
432.476	4.04
432.832	4
433.189	3.97
433.545	3.94
433.901	3.92
434.257	3.9
434.613	3.9
434.969	3.9
435.325	3.88
435.681	3.89
436.036	3.89
436.392	3.88
436.748	3.87
437.104	3.89
437.459	3.88
437.815	3.88
438.171	3.86
438.526	3.89
438.882	3.91
439.237	3.91
439.593	3.93
439.948	3.92
440.304	3.93
440.659	3.94
441.014	3.96
441.369	3.96
441.725	3.95
442.08	3.94
442.435	3.93
442.79	3.92
443.145	3.92
443.5	3.93
443.855	3.91
444.21	3.9
444.565	3.88
444.92	3.89
445.275	3.88
445.629	3.87
445.984	3.84
446.339	3.8
446.693	3.79
447.048	3.76
447.403	3.75
447.757	3.73
448.112	3.7
448.466	3.68
448.82	3.67
449.175	3.67
449.529	3.66
449.883	3.65
450.238	3.62
450.592	3.6
450.946	3.57
451.3	3.56
451.654	3.53
452.008	3.52
452.362	3.5
452.716	3.49
453.07	3.49
453.424	3.51
453.778	3.52
454.132	3.53
454.486	3.51
454.839	3.48
455.193	3.47
455.547	3.48
455.9	3.49
456.254	3.49
456.607	3.49
456.961	3.47
457.314	3.47
457.668	3.49
458.021	3.49
458.375	3.5
458.728	3.52
459.081	3.53
459.434	3.53
459.787	3.53
460.141	3.53
460.494	3.51
460.847	3.5
461.2	3.51
461.553	3.5
461.906	3.54
462.259	3.55
462.611	3.58
462.964	3.59
463.317	3.59
463.67	3.6
464.022	3.6
464.375	3.62
464.728	3.65
465.08	3.66
465.433	3.7
465.785	3.75
466.138	3.74
466.49	3.77
466.843	3.78
467.195	3.78
467.547	3.8
467.899	3.82
468.252	3.84
468.604	3.87
468.956	3.87
469.308	3.89
469.66	3.91
470.012	3.94
470.364	3.97
470.716	3.99
471.068	4.02
471.42	4.03
471.772	4.07
472.123	4.1
472.475	4.14
472.827	4.15
473.178	4.12
473.53	4.15
473.882	4.17
474.233	4.19
474.585	4.21
474.936	4.21
475.288	4.22
475.639	4.23
475.99	4.22
476.342	4.22
476.693	4.22
477.044	4.24
477.395	4.24
477.746	4.23
478.097	4.2
478.448	4.19
478.8	4.18
479.15	4.13
479.501	4.11
479.852	4.09
480.203	4.08
480.554	4.09
480.905	4.08
481.255	4.08
481.606	4.08
481.957	4.08
482.307	4.07
482.658	4.07
483.009	4.05
483.359	4.05
483.709	4.05
484.06	4.03
484.41	4.03
484.761	4.02
485.111	4
485.461	4
485.811	3.99
486.162	3.99
486.512	4
486.862	3.99
487.212	3.99
487.562	3.99
487.912	3.97
488.262	3.96
488.612	3.96
488.961	3.95
489.311	3.94
489.661	3.95
490.011	3.96
490.36	3.97
490.71	3.97
491.06	3.98
491.409	3.99
491.759	4
492.108	4.01
492.458	4.04
492.807	4.05
493.157	4.08
493.506	4.11
493.855	4.13
494.204	4.17
494.554	4.2
494.903	4.22
495.252	4.26
495.601	4.31
495.95	4.35
496.299	4.39
496.648	4.44
496.997	4.48
497.346	4.54
497.695	4.59
498.043	4.66
498.392	4.71
498.741	4.76
499.09	4.81
499.438	4.9
499.787	4.96
500.135	5.05
500.484	5.15
500.832	5.23
501.181	5.32
501.529	5.4
501.878	5.51
502.226	5.61
502.574	5.72
502.923	5.83
503.271	5.96
503.619	6.08
503.967	6.22
504.315	6.36
504.663	6.49
505.011	6.64
505.359	6.77
505.707	6.92
506.055	7.08
506.403	7.24
506.751	7.37
507.098	7.55
507.446	7.71
507.794	7.86
508.141	8.01
508.489	8.18
508.837	8.35
509.184	8.53
509.531	8.73
509.879	8.91
510.226	9.11
510.574	9.25
510.921	9.42
511.268	9.59
511.616	9.79
511.963	9.97
512.31	10.15
512.657	10.35
513.004	10.53
513.351	10.76
513.698	10.99
514.045	11.22
514.392	11.46
514.739	11.71
515.086	11.96
515.432	12.24
515.779	12.49
516.126	12.75
516.473	12.98
516.819	13.2
517.166	13.41
517.512	13.61
517.859	13.83
518.205	14.05
518.552	14.26
518.898	14.45
519.245	14.67
519.591	14.89
519.937	15.1
520.283	15.35
520.629	15.56
520.976	15.8
521.322	16.04
521.668	16.29
522.014	16.53
522.36	16.77
522.706	17.01
523.052	17.28
523.398	17.56
523.743	17.88
524.089	18.18
524.435	18.47
524.781	18.74
525.126	19.03
525.472	19.27
525.817	19.5
526.163	19.68
526.509	19.86
526.854	20.03
527.199	20.19
527.545	20.38
527.89	20.54
528.235	20.72
528.581	20.9
528.926	21.07
529.271	21.25
529.616	21.43
529.961	21.59
530.306	21.79
530.651	21.96
530.996	22.14
531.341	22.34
531.686	22.55
532.031	22.78
532.376	22.97
532.721	23.19
533.065	23.41
533.41	23.64
533.755	23.87
534.099	24.12
534.444	24.36
534.788	24.58
535.133	24.81
535.477	25.05
535.822	25.28
536.166	25.52
536.51	25.78
536.855	26.05
537.199	26.38
537.543	26.66
537.887	26.98
538.231	27.3
538.576	27.64
538.92	27.89
539.264	28.18
539.608	28.43
539.951	28.66
540.295	28.9
540.639	29.15
540.983	29.4
541.327	29.6
541.671	29.82
542.014	30.04
542.358	30.25
542.701	30.47
543.045	30.67
543.389	30.91
543.732	31.17
544.075	31.42
544.419	31.62
544.762	31.87
545.105	32.1
545.449	32.31
545.792	32.55
546.135	32.86
546.478	33.12
546.821	33.45
547.165	33.8
547.508	34.13
547.851	34.45
548.194	34.77
548.536	35.13
548.879	35.47
549.222	35.77
549.565	36.13
549.908	36.44
550.25	36.8
550.593	37.12
550.936	37.4
551.278	37.71
551.621	38.06
551.963	38.37
552.306	38.73
552.648	39.06
552.991	39.36
553.333	39.65
553.675	39.96
554.017	40.23
554.36	40.44
554.702	40.64
555.044	40.97
555.386	41.23
555.728	41.47
556.07	41.76
556.412	41.95
556.754	42.19
557.096	42.48
557.438	42.71
557.78	42.99
558.121	43.28
558.463	43.51
558.805	43.7
559.147	43.99
559.488	44.2
559.83	44.45
560.171	44.71
560.513	44.9
560.854	45.13
561.196	45.34
561.537	45.6
561.878	45.83
562.22	45.95
562.561	46.16
562.902	46.37
563.243	46.55
563.584	46.8
563.925	46.98
564.266	47.15
564.607	47.32
564.948	47.55
565.289	47.7
565.63	47.91
565.971	48.19
566.312	48.31
566.653	48.55
566.993	48.67
567.334	48.77
567.675	48.92
568.015	49.1
568.356	49.28
568.696	49.5
569.037	49.63
569.377	49.88
569.718	50.01
570.058	50.25
570.398	50.39
570.739	50.54
571.079	50.74
571.419	50.83
571.759	51.02
572.099	51.14
572.439	51.25
572.779	51.38
573.119	51.45
573.459	51.58
573.799	51.69
574.139	51.83
574.479	51.96
574.819	52.08
575.158	52.18
575.498	52.29
575.838	52.35
576.177	52.48
576.517	52.52
576.856	52.64
577.196	52.72
577.535	52.87
577.875	53
578.214	53.08
578.553	53.2
578.893	53.24
579.232	53.31
579.571	53.43
579.91	53.52
580.25	53.63
580.589	53.68
580.928	53.81
581.267	53.91
581.606	54.07
581.945	54.19
582.283	54.19
582.622	54.25
582.961	54.36
583.3	54.51
583.639	54.65
583.977	54.83
584.316	54.88
584.654	54.95
584.993	55.05
585.332	55.18
585.67	55.34
586.008	55.47
586.347	55.57
586.685	55.71
587.024	55.79
587.362	55.94
587.7	56.05
588.038	56.04
588.376	56.11
588.715	56.22
589.053	56.29
589.391	56.48
589.729	56.63
590.067	56.68
590.404	56.73
590.742	56.81
591.08	56.77
591.418	56.83
591.756	56.91
592.093	56.93
592.431	56.9
592.769	57
593.106	57.14
593.444	57.1
593.781	57.13
594.119	57.15
594.456	57.14
594.793	57.2
595.131	57.25
595.468	57.31
595.805	57.31
596.143	57.44
596.48	57.46
596.817	57.44
597.154	57.54
597.491	57.63
597.828	57.66
598.165	57.76
598.502	57.77
598.839	57.83
599.176	57.94
599.512	58.05
599.849	58.07
600.186	58.06
600.523	58.2
600.859	58.18
601.196	58.25
601.532	58.31
601.869	58.34
602.205	58.44
602.542	58.45
602.878	58.43
603.215	58.37
603.551	58.43
603.887	58.48
604.223	58.5
604.56	58.46
604.896	58.52
605.232	58.57
605.568	58.59
605.904	58.6
606.24	58.62
606.576	58.59
606.912	58.58
607.248	58.6
607.583	58.61
607.919	58.64
608.255	58.63
608.591	58.62
608.926	58.63
609.262	58.59
609.597	58.61
609.933	58.68
610.268	58.7
610.604	58.65
610.939	58.7
611.275	58.71
611.61	58.77
611.945	58.72
612.281	58.76
612.616	58.76
612.951	58.85
613.286	58.81
613.621	58.88
613.956	58.89
614.291	58.85
614.626	58.96
614.961	59.06
615.296	59.16
615.631	59.21
615.966	59.23
616.3	59.3
616.635	59.33
616.97	59.39
617.304	59.43
617.639	59.5
617.973	59.51
618.308	59.48
618.642	59.52
618.977	59.64
619.311	59.64
619.646	59.72
619.98	59.75
620.314	59.91
620.648	60
620.983	60.09
621.317	60.19
621.651	60.09
621.985	60.13
622.319	60.14
622.653	60.21
622.987	60.36
623.321	60.36
623.655	60.32
623.988	60.33
624.322	60.37
624.656	60.42
624.99	60.41
625.323	60.47
625.657	60.38
625.99	60.32
626.324	60.35
626.657	60.41
626.991	60.44
627.324	60.33
627.658	60.26
627.991	60.25
628.324	60.19
628.657	60.28
628.991	60.21
629.324	60.22
629.657	60.17
629.99	60.17
630.323	60.15
630.656	60.31
630.989	60.31
631.322	60.3
631.655	60.3
631.987	60.38
632.32	60.32
632.653	60.41
632.986	60.46
633.318	60.54
633.651	60.51
633.984	60.42
634.316	60.65
634.649	60.75
634.981	60.72
635.313	60.74
635.646	60.68
635.978	60.81
636.31	60.81
636.643	60.87
636.975	60.87
637.307	60.97
637.639	60.91
637.971	60.92
638.303	61
638.635	60.98
638.967	60.91
639.299	60.94
639.631	60.88
639.963	60.84
640.295	60.74
640.626	60.79
640.958	60.92
641.29	60.67
641.621	60.66
641.953	60.69
642.285	60.67
642.616	60.81
642.948	60.7
643.279	60.8
643.61	60.8
643.942	60.75
644.273	60.72
644.604	60.75
644.936	60.81
645.267	60.77
645.598	60.85
645.929	60.9
646.26	60.97
646.591	61.11
646.922	61.1
647.253	61.1
647.584	61.02
647.915	60.94
648.245	61.11
648.576	61.01
648.907	61.01
649.238	61.03
649.568	61.01
649.899	61
650.229	61.05
650.56	60.92
650.89	60.89
651.221	60.92
651.551	60.94
651.882	60.97
652.212	61.05
652.542	61
652.872	60.9
653.203	60.85
653.533	60.77
653.863	60.85
654.193	60.69
654.523	60.73
654.853	60.73
655.183	60.72
655.513	60.78
655.843	60.88
656.172	61.02
656.502	61.08
656.832	61.15
657.162	61.11
657.491	61.28
657.821	61.2
658.15	61.21
658.48	61.2
658.809	61.13
659.139	61.08
659.468	61.06
659.798	61.09
660.127	61.14
660.456	61.19
660.785	61.15
661.115	61.35
661.444	61.37
661.773	61.45
662.102	61.35
662.431	61.44
662.76	61.46
663.089	61.41
663.418	61.29
663.747	61.37
664.076	61.37
664.404	61.34
664.733	61.6
665.062	61.57
665.39	61.51
665.719	61.7
666.048	61.73
666.376	61.72
666.705	61.77
667.033	61.7
667.362	61.74
667.69	61.82
668.018	61.84
668.347	61.78
668.675	61.73
669.003	61.71
669.331	61.79
669.659	61.67
669.987	61.67
670.315	61.76
670.643	61.62
670.971	61.63
671.299	61.7
671.627	61.64
671.955	61.66
672.283	61.72
672.61	61.52
672.938	61.4
673.266	61.43
673.593	61.51
673.921	61.58
674.249	61.39
674.576	61.42
674.904	61.29
675.231	61.37
675.558	61.33
675.886	61.4
676.213	61.23
676.54	61.41
676.867	61.45
677.195	61.34
677.522	61.27
677.849	61.28
678.176	61.3
678.503	61.34
678.83	61.26
679.157	61.08
679.484	61
679.81	60.97
680.137	60.91
680.464	60.9
680.791	60.97
681.117	61.13
681.444	61
681.771	61.06
682.097	61.06
682.424	61.12
682.75	61.28
683.077	61.32
683.403	61.17
683.729	60.99
684.056	61.06
684.382	61.25
684.708	61.09
685.034	60.92
685.36	60.7
685.686	60.71
686.012	60.87
686.339	60.97
686.664	61.16
686.99	61.23
687.316	61.22
687.642	61.06
687.968	61
688.294	61.05
688.619	60.96
688.945	60.96
689.271	60.76
689.596	60.65
689.922	60.74
690.247	60.71
690.573	60.77
690.898	60.79
691.224	60.69
691.549	60.9
691.874	60.93
692.2	61.02
692.525	61.16
692.85	61.17
693.175	61.19
693.5	61.09
693.825	61.04
694.15	61.01
694.475	60.98
694.8	61.12
695.125	61.15
695.45	61.32
695.775	61.25
696.099	61.21
696.424	61.17
696.749	61.1
697.073	61.24
697.398	61.29
697.723	61.32
698.047	61.39
698.372	61.45
698.696	61.33
699.02	61.27
699.345	61.2
699.669	61.17
699.993	61.22
700.318	61.17
700.642	61.16
700.966	61.2
701.29	61.29
701.614	61.19
701.938	61.24
702.262	61.1
702.586	61.16
702.91	61.35
703.234	61.43
703.557	61.58
703.881	61.54
704.205	61.71
704.529	61.61
704.852	61.49
705.176	61.34
705.499	61.43
705.823	61.55
706.146	61.55
706.47	61.56
706.793	61.5
707.117	61.56
707.44	61.53
707.763	61.35
708.086	61.44
708.409	61.38
708.733	61.18
709.056	61.28
709.379	61.26
709.702	61.12
710.025	60.91
710.348	60.78
710.671	60.72
710.993	60.53
711.316	60.6
711.639	60.61
711.962	60.63
712.284	60.7
712.607	60.6
712.93	60.5
713.252	60.57
713.575	60.73
713.897	60.6
714.22	60.76
714.542	60.82
714.864	60.49
715.187	60.58
715.509	60.72
715.831	60.8
716.153	60.7
716.475	60.76
716.798	61.01
717.12	61.15
717.442	61.15
717.764	61.25
718.085	61.08
718.407	61.17
718.729	61.1
719.051	61.17
719.373	61.31
719.695	61.58
720.016	61.55
720.338	61.29
720.659	61.52
720.981	61.53
721.302	61.62
721.624	62.07
721.945	62.14
722.267	62.07
722.588	61.87
722.909	62.08
723.231	62.17
723.552	61.97
723.873	61.68
724.194	61.62
724.515	61.39
724.836	61.48
725.157	61.4
725.478	61.38
725.799	61.46
726.12	61.43
726.441	61.32
726.762	61.21
727.083	61.25
727.403	61.32
727.724	61.45
728.045	61.35
728.365	61.02
728.686	60.79
729.006	60.84
729.327	60.95
729.647	60.65
729.967	60.57
730.288	60.52
730.608	60.39
730.928	60.34
731.249	60.45
731.569	60.51
731.889	60.58
732.209	60.64
732.529	60.68
732.849	60.85
733.169	60.62
733.489	60.57
733.809	60.4
734.129	60.29
734.448	60.17
734.768	60.22
735.088	60.32
735.408	60.43
735.727	60.5
736.047	60.34
736.366	60.47
736.686	60.44
737.005	60.4
737.325	60.64
737.644	60.85
737.963	60.92
738.283	60.67
738.602	60.67
738.921	60.59
739.24	60.44
739.56	60.1
739.879	59.91
740.198	59.96
740.517	60.12
740.836	60.2
741.155	60.16
741.473	60.11
741.792	60.08
742.111	60.17
742.43	59.91
742.748	59.97
743.067	60.11
743.386	60.19
743.704	60.1
744.023	60.05
744.341	59.79
744.66	59.72
744.978	59.9
745.297	59.57
745.615	59.47
745.933	59.3
746.252	59.52
746.57	59.92
746.888	59.75
747.206	59.82
747.524	59.96
747.842	59.73
748.16	59.81
748.478	59.53
748.796	59.32
749.114	59.35
749.432	59.42
749.749	59.18
750.067	59.29
750.385	59.78
750.703	59.61
751.02	59.71
751.338	59.89
751.655	59.97
751.973	60.14
752.29	60.13
752.608	60.15
752.925	60.31
753.242	60.31
753.56	60.64
753.877	60.59
754.194	60.34
754.511	60.43
754.828	60.38
755.145	60.73
755.462	61.13
755.779	60.91
756.096	61.02
756.413	61.11
756.73	61.06
757.047	60.95
757.364	61.12
757.68	60.95
757.997	60.61
758.314	60.51
758.63	60.51
758.947	60.72
759.264	60.53
759.58	60.53
759.896	60.44
760.213	60.31
760.529	60.21
760.846	60.12
761.162	60.03
761.478	59.93
761.794	60.03
762.11	59.87
762.426	60.15
762.743	59.81
763.059	59.95
763.375	60.16
763.69	60.09
764.006	60.04
764.322	60.39
764.638	60.52
764.954	60.48
765.27	60.51
765.585	60.62
765.901	60.99
766.216	60.7
766.532	61.04
766.848	61.08
767.163	61.06
767.478	61.43
767.794	61.5
768.109	61.69
768.424	61.76
768.74	61.71
769.055	61.91
769.37	62.33
769.685	62.46
770	62.11
770.315	62.39
770.63	62.52
770.945	62.15
771.26	62.11
771.575	61.95
771.89	62.06
772.205	61.29
772.52	61.08
772.834	61.26
773.149	61.23
773.464	61.26
773.778	61.13
774.093	60.69
774.407	60.7
774.722	60.25
775.036	59.77
775.351	59.7
775.665	59.2
775.979	58.73
776.293	58.63
776.608	58.23
776.922	57.82
777.236	57.56
777.55	57.55
777.864	58.04
778.178	58.49
778.492	58.22
778.806	58.71
779.12	59.03
779.434	59.01
779.747	58.3
780.061	58.27
780.375	58.86
780.689	59.08
781.002	59.18
781.316	59.77
781.629	60.31
781.943	60.28
782.256	60.72
782.57	61.09
782.883	60.58
783.196	61.01
783.51	61.43
783.823	61.84
784.136	61.78
784.449	61.4
784.762	60.88
785.075	61.07
785.388	61.33
785.701	61.36
786.014	61.45
786.327	61.53
786.64	61.92
786.953	61.52
787.266	61.08
787.578	61.15
787.891	60.64
788.204	60.26
788.516	60.3
788.829	60
789.141	60.08
789.454	60.3
789.766	60.18
790.079	59.97
790.391	59.28
790.703	59.67
791.016	59.95
791.328	60.64
791.64	60.77
791.952	60.99
792.264	60.23
792.576	59.76
792.888	59.88
793.2	59.8
793.512	60.06
793.824	59.88
794.136	60.04
794.448	60.57
794.76	60.77
795.071	60.57
795.383	60.46
795.695	60.13
796.006	60.24
796.318	60.22
796.629	60.66
796.941	60.88
797.252	60.29
797.564	59.98
797.875	59.54
798.186	59.42
798.497	59.03
798.809	59.33
799.12	59.71
799.431	59.58
799.742	59.29
800.053	59.18
800.364	59.62
800.675	59.49
800.986	59.18
801.297	59.46
801.608	60.01
801.918	59.99
802.229	60.3
802.54	60.11
802.851	60.59
803.161	59.93
803.472	59.97
803.782	60.71
804.093	60.87
804.403	60.48
804.714	60.11
805.024	59.17
805.334	59.25
805.645	59.12
805.955	59.93
806.265	59.72
806.575	59.03
806.885	59.27
807.195	58.59
807.505	58.54
807.815	58
808.125	57.73
808.435	57.92
808.745	58.41
809.055	58.96
809.365	58.32
809.674	57.96
809.984	58.36
810.294	57.81
810.603	57.02
810.913	57.33
811.222	57.85
811.532	58.53
811.841	58.57
812.151	59.1
812.46	58.07
812.769	57.93
813.079	58.3
813.388	57.56
813.697	57.97
814.006	57.69
814.315	58.03
814.624	58.08
814.933	58.56
815.242	57.35
815.551	57.08
815.86	57.34
816.169	57.98
816.478	57.88
816.786	57.9
817.095	58.5
817.404	58.76
817.712	58.46
818.021	59.05
818.33	59.21
818.638	59.14
818.947	59.41
819.255	59.37
819.563	59.58
819.872	59.68
820.18	59.42
820.488	59.59
820.796	59.34
821.105	59.21
821.413	58.92
821.721	59.41
822.029	59.43
822.337	59.5
822.645	59.49
822.953	59.65
823.26	59.82
823.568	59.84
823.876	59.96
824.184	60.15
824.491	60.01
824.799	60.22
825.107	59.95
825.414	60.05
825.722	60.12
826.029	60.05
826.337	60.33
826.644	60.38
826.951	60.45
827.259	60.7
827.566	60.97
827.873	61.14
828.18	60.93
828.488	60.98
828.795	60.94
829.102	61.24
829.409	61.36
829.716	61.19
830.023	61.41
830.329	61.26
830.636	61.2
830.943	61.27
831.25	60.91
831.557	61.71
831.863	61.64
832.17	61.77
832.476	61.83
832.783	61.3
833.089	61.27
833.396	60.88
833.702	60.85
834.009	60.55
834.315	61.13
834.621	61.01
834.928	61.15
835.234	61.34
835.54	61.08
835.846	60.52
836.152	60.93
836.458	60.35
836.764	60.16
837.07	59.35
837.376	59.26
837.682	58.73
837.988	58.2
838.293	58.15
838.599	57.59
838.905	57.66
839.211	57.12
839.516	57.55
839.822	57.82
840.127	57.76
840.433	57.94
840.738	57.06
841.044	57.6
841.349	56.3
841.654	55.86
841.959	55.38
842.265	54.69
842.57	54.3
842.875	54.67
843.18	54.75
843.485	56.28
843.79	57.53
844.095	58.55
844.4	59.89
844.705	60.06
845.01	60.46
845.315	60.2
845.619	61.34
845.924	60.92
846.229	61.38
846.533	60.86
846.838	60.65
847.142	59.55
847.447	58.87
847.751	61.71
848.056	61.89
848.36	61.98
848.664	63.93
848.969	63.48
849.273	63.82
849.577	64.23
849.881	63.68
850.185	62.13
850.489	61.5
850.794	57.65
851.097	56.8
851.401	58.71
851.705	59.83
852.009	60.3
852.313	60.97
852.617	60.63
852.92	60.46
853.224	60.43
853.528	61.17
853.831	59.54
854.135	57.48
854.438	58.47
854.742	57.95
855.045	56.22
855.349	54.51
855.652	54.25
855.955	54.09
856.259	53.61
856.562	53.65
856.865	52.48
857.168	53
857.471	54.45
857.774	53.15
858.077	52.8
858.38	50.99
858.683	51.11
858.986	51.22
859.289	51.89
859.592	49.48
859.894	49.05
860.197	51.28
860.5	50.97
860.802	49.3
861.105	50.3
861.407	49.54
861.71	51.45
862.012	51.39
862.315	50.98
862.617	49.21
862.919	48.56
863.222	48.49
863.524	48.63
863.826	45.9
864.128	44.01
864.43	42.17
864.732	41.73
865.034	40.64
865.336	38.48
865.638	39.29
865.94	41.15
866.242	43.13
866.544	42.28
866.846	43.43
867.147	44.75
867.449	42.36
867.751	44.36
868.052	42.68
868.354	44.41
868.655	44.55
868.957	45.85
869.258	46.57
869.56	48.05
869.861	50
870.162	53.47
870.463	54.73
870.765	54.65
871.066	57.78
871.367	59.11
871.668	60.75
871.969	59.37
872.27	60.96
872.571	58.34
872.872	59.62
873.173	57.97
873.473	58.02
873.774	60.68
874.075	59.53
874.376	58.46
874.676	58.36
874.977	59.44
875.277	60.82
875.578	59.65
875.878	59.75
876.179	59.09
876.479	57.31
876.78	58.21
877.08	60.3
877.38	58.88
877.68	59.44
877.981	61.16
878.281	60.27
878.581	58.82
