Data from BU57994_Reflection_00010.txt Node
Date: Mon Nov 18 16:53:17 EST 2019
User: vgr7
Spectrometer: USB2G7710
Scans to average: 3
Trigger mode: 4
Integration Time (sec): 2.000000E-2
Electric dark correction enabled: true
Boxcar width: 10
XAxis mode: Wavelengths
Number of Pixels in Spectrum: 2048
>>>>>Begin Spectral Data<<<<<
177.721	65.37
178.105	40.65
178.488	-9.67
178.871	28.57
179.254	54.99
179.636	42.27
180.019	13.75
180.402	32.69
180.785	-256.04
181.168	1053.13
181.55	-54.33
181.933	47.51
182.316	28.69
182.698	25.6
183.081	7.1
183.463	-8.23
183.846	-11.4
184.228	-57.83
184.611	-114.23
184.993	-953.69
185.376	169.06
185.758	788.58
186.14	556.19
186.522	185.96
186.904	253.05
187.287	263.37
187.669	146.73
188.051	157.62
188.433	151.56
188.815	97.31
189.197	107.32
189.579	132.09
189.961	130.02
190.342	162.43
190.724	157.97
191.106	122.39
191.488	106.16
191.869	123.84
192.251	139.7
192.633	138.55
193.014	158.78
193.396	195.75
193.777	173.24
194.159	188.93
194.54	224.19
194.922	203.34
195.303	224.17
195.684	252.51
196.065	271.34
196.447	321.06
196.828	355.43
197.209	325.01
197.59	281.94
197.971	244.96
198.352	136.26
198.733	110.24
199.114	120.34
199.495	109.05
199.876	101.71
200.257	85.56
200.638	72.46
201.018	68.01
201.399	65.43
201.78	64.73
202.16	66.15
202.541	45.67
202.922	33.13
203.302	23.13
203.683	17.01
204.063	12.29
204.444	4.18
204.824	-7.19
205.204	-8.86
205.585	-0.28
205.965	8.5
206.345	20.84
206.725	18.56
207.106	8.41
207.486	-1.98
207.866	7.26
208.246	23.59
208.626	67.78
209.006	103.44
209.386	97.51
209.766	67.54
210.145	21.27
210.525	22.99
210.905	33.13
211.285	43.36
211.664	58.73
212.044	56.57
212.424	56.32
212.803	52.89
213.183	60.93
213.562	47.08
213.942	71.08
214.321	56.95
214.701	53.33
215.08	55.99
215.459	45.01
215.838	33.58
216.218	26.88
216.597	17.2
216.976	4.22
217.355	3.27
217.734	3.06
218.113	21.41
218.492	24.31
218.871	17.67
219.25	16.09
219.629	13.72
220.008	13.91
220.387	10.02
220.766	15.3
221.144	9.09
221.523	11.12
221.902	-0.88
222.28	-7.52
222.659	0.91
223.037	10.22
223.416	7.89
223.794	7.16
224.173	11.82
224.551	15.52
224.929	20.2
225.308	23.34
225.686	23.41
226.064	17.28
226.442	19.2
226.821	20.73
227.199	17.12
227.577	12.88
227.955	11.1
228.333	13
228.711	15.46
229.089	21.29
229.467	16.97
229.845	17.09
230.222	17.23
230.6	14.73
230.978	13.41
231.356	14.59
231.733	14.69
232.111	14.52
232.488	14.44
232.866	13.34
233.243	12.4
233.621	11.71
233.998	13.01
234.376	11.31
234.753	9.54
235.13	10.93
235.508	11.66
235.885	12.12
236.262	10.15
236.639	9.71
237.016	7.23
237.393	9.56
237.77	9.8
238.147	9.15
238.524	9.11
238.901	8.53
239.278	8.55
239.655	8.88
240.032	8.31
240.409	7.44
240.785	7.8
241.162	8.06
241.539	8.13
241.915	7.5
242.292	6.96
242.668	6.46
243.045	6.44
243.421	6.39
243.798	6.12
244.174	6.16
244.551	5.82
244.927	5.74
245.303	5.49
245.679	5.31
246.056	5.2
246.432	5.19
246.808	5.27
247.184	5.08
247.56	4.78
247.936	4.9
248.312	5
248.688	4.93
249.064	4.68
249.44	4.5
249.815	4.5
250.191	4.73
250.567	4.87
250.943	4.68
251.318	4.83
251.694	4.9
252.069	4.96
252.445	5.13
252.82	5.24
253.196	5.18
253.571	5.38
253.947	5.42
254.322	5.42
254.697	5.15
255.073	4.87
255.448	4.71
255.823	4.35
256.198	4.52
256.573	4.63
256.948	4.79
257.323	4.96
257.698	4.89
258.073	4.83
258.448	4.85
258.823	4.8
259.198	4.71
259.573	4.43
259.948	4.36
260.322	4.18
260.697	4.13
261.072	4.12
261.446	4.01
261.821	3.99
262.195	4.03
262.57	4.1
262.944	4.2
263.319	4.27
263.693	4.49
264.067	4.41
264.442	4.23
264.816	4.17
265.19	4.02
265.564	4.06
265.938	3.8
266.313	3.78
266.687	4
267.061	3.94
267.435	4.11
267.809	4.03
268.183	4.1
268.556	4.1
268.93	4.02
269.304	4.1
269.678	4.06
270.051	4.09
270.425	4.14
270.799	4.05
271.172	4.14
271.546	3.97
271.919	4
272.293	4.06
272.666	4.01
273.04	4.16
273.413	4.12
273.787	4.23
274.16	4.16
274.533	4.08
274.906	3.98
275.279	3.93
275.653	4.02
276.026	4.05
276.399	3.93
276.772	4.1
277.145	4.07
277.518	4.18
277.891	4.23
278.263	4.05
278.636	4.2
279.009	4.08
279.382	4.22
279.755	4.1
280.127	4.15
280.5	4.08
280.872	3.95
281.245	3.86
281.617	3.99
281.99	4.14
282.362	4.04
282.735	4.16
283.107	4.16
283.479	4.13
283.852	4.17
284.224	4.25
284.596	4.16
284.968	4.18
285.34	4.23
285.713	4.22
286.085	4.33
286.457	4.29
286.829	4.37
287.201	4.36
287.572	4.36
287.944	4.29
288.316	4.35
288.688	4.42
289.06	4.5
289.431	4.62
289.803	4.65
290.175	4.75
290.546	4.72
290.918	4.8
291.289	4.94
291.661	4.95
292.032	4.96
292.403	5.02
292.775	5.05
293.146	4.92
293.517	4.89
293.889	5.01
294.26	5.16
294.631	5.18
295.002	5.23
295.373	5.24
295.744	5.31
296.115	5.3
296.486	5.06
296.857	5.17
297.228	5.15
297.599	5.05
297.97	5.01
298.34	5.04
298.711	5.11
299.082	4.95
299.452	4.94
299.823	5.01
300.194	5.1
300.564	5.04
300.935	5.1
301.305	5.1
301.676	4.96
302.046	4.91
302.416	5
302.787	4.9
303.157	4.97
303.527	4.83
303.897	4.93
304.267	5.25
304.637	5.25
305.008	5.39
305.378	5.69
305.748	5.76
306.117	5.75
306.487	5.78
306.857	6.04
307.227	6.15
307.597	6.2
307.967	6.19
308.336	6.23
308.706	6.34
309.076	6.42
309.445	6.45
309.815	6.48
310.184	6.54
310.554	6.64
310.923	6.67
311.293	6.87
311.662	6.88
312.031	6.93
312.401	6.98
312.77	7.01
313.139	7.03
313.508	7.07
313.877	7.22
314.246	7.27
314.616	7.28
314.985	7.37
315.353	7.38
315.722	7.52
316.091	7.63
316.46	7.62
316.829	7.62
317.198	7.94
317.567	8.11
317.935	8.02
318.304	8.2
318.672	8.35
319.041	8.48
319.41	8.58
319.778	8.68
320.147	8.77
320.515	8.71
320.883	8.62
321.252	8.88
321.62	8.92
321.988	8.91
322.357	8.92
322.725	8.9
323.093	9.16
323.461	9.17
323.829	9.2
324.197	9.36
324.565	9.49
324.933	9.45
325.301	9.44
325.669	9.47
326.037	9.47
326.405	9.62
326.772	9.69
327.14	9.82
327.508	9.93
327.875	9.92
328.243	10
328.61	10.14
328.978	10.16
329.346	10.35
329.713	10.49
330.08	10.74
330.448	10.74
330.815	10.54
331.182	10.66
331.55	10.66
331.917	10.65
332.284	10.74
332.651	10.95
333.018	11.07
333.385	11.32
333.752	11.42
334.119	11.44
334.486	11.5
334.853	11.49
335.22	11.43
335.587	11.47
335.954	11.47
336.32	11.38
336.687	11.33
337.054	11.3
337.42	11.3
337.787	11.24
338.153	11.34
338.52	11.58
338.886	11.51
339.253	11.58
339.619	11.64
339.986	11.7
340.352	11.7
340.718	11.68
341.084	11.72
341.451	11.74
341.817	11.81
342.183	11.73
342.549	11.78
342.915	11.97
343.281	12.12
343.647	12.23
344.013	12.31
344.379	12.33
344.745	12.35
345.11	12.31
345.476	12.37
345.842	12.33
346.208	12.3
346.573	12.42
346.939	12.6
347.304	12.61
347.67	12.58
348.035	12.64
348.401	12.72
348.766	12.66
349.132	12.59
349.497	12.48
349.862	12.56
350.228	12.6
350.593	12.48
350.958	12.36
351.323	12.3
351.688	12.35
352.053	12.46
352.418	12.43
352.783	12.59
353.148	12.53
353.513	12.52
353.878	12.52
354.243	12.51
354.608	12.33
354.972	12.33
355.337	12.33
355.702	12.18
356.066	12.14
356.431	12.06
356.795	12.07
357.16	12.04
357.524	11.98
357.889	11.87
358.253	11.88
358.618	11.89
358.982	11.93
359.346	11.84
359.71	11.79
360.075	11.76
360.439	11.69
360.803	11.69
361.167	11.71
361.531	11.68
361.895	11.62
362.259	11.62
362.623	11.66
362.987	11.65
363.351	11.63
363.714	11.65
364.078	11.6
364.442	11.55
364.806	11.57
365.169	11.58
365.533	11.59
365.896	11.53
366.26	11.48
366.623	11.43
366.987	11.42
367.35	11.29
367.714	11.24
368.077	11.07
368.44	11.04
368.803	10.94
369.167	10.82
369.53	10.72
369.893	10.67
370.256	10.51
370.619	10.38
370.982	10.3
371.345	10.13
371.708	10.11
372.071	10.03
372.434	9.97
372.797	9.89
373.159	9.76
373.522	9.66
373.885	9.59
374.247	9.46
374.61	9.36
374.973	9.28
375.335	9.19
375.698	9.21
376.06	9.1
376.423	9.04
376.785	8.99
377.147	8.98
377.51	8.9
377.872	8.86
378.234	8.81
378.596	8.75
378.958	8.7
379.321	8.62
379.683	8.6
380.045	8.5
380.407	8.37
380.769	8.29
381.13	8.26
381.492	8.21
381.854	8.17
382.216	8.08
382.578	8.03
382.939	7.94
383.301	7.8
383.663	7.71
384.024	7.66
384.386	7.62
384.747	7.55
385.109	7.48
385.47	7.42
385.832	7.43
386.193	7.38
386.554	7.29
386.916	7.26
387.277	7.23
387.638	7.21
387.999	7.23
388.36	7.19
388.721	7.12
389.082	7.07
389.443	7
389.804	6.97
390.165	6.95
390.526	6.93
390.887	6.91
391.248	6.91
391.609	6.85
391.969	6.82
392.33	6.77
392.691	6.78
393.051	6.71
393.412	6.65
393.772	6.59
394.133	6.56
394.493	6.53
394.854	6.43
395.214	6.32
395.574	6.22
395.935	6.17
396.295	6.13
396.655	6.06
397.015	6
397.376	5.97
397.736	5.89
398.096	5.86
398.456	5.81
398.816	5.76
399.176	5.69
399.535	5.58
399.895	5.54
400.255	5.49
400.615	5.44
400.975	5.34
401.334	5.32
401.694	5.26
402.054	5.24
402.413	5.24
402.773	5.2
403.132	5.17
403.492	5.17
403.851	5.12
404.211	5.1
404.57	5.09
404.929	5.06
405.288	5.03
405.648	4.98
406.007	4.95
406.366	4.91
406.725	4.95
407.084	4.97
407.443	4.94
407.802	4.9
408.161	4.89
408.52	4.92
408.879	4.88
409.238	4.91
409.596	4.86
409.955	4.81
410.314	4.83
410.673	4.81
411.031	4.79
411.39	4.79
411.748	4.79
412.107	4.77
412.465	4.77
412.824	4.76
413.182	4.76
413.54	4.75
413.899	4.77
414.257	4.71
414.615	4.68
414.974	4.64
415.332	4.62
415.69	4.58
416.048	4.52
416.406	4.53
416.764	4.47
417.122	4.45
417.48	4.45
417.838	4.42
418.195	4.4
418.553	4.36
418.911	4.34
419.269	4.33
419.626	4.31
419.984	4.28
420.342	4.28
420.699	4.25
421.057	4.23
421.414	4.18
421.772	4.15
422.129	4.14
422.486	4.13
422.844	4.11
423.201	4.1
423.558	4.08
423.915	4.06
424.273	4.05
424.63	4.04
424.987	4.02
425.344	4.01
425.701	4
426.058	3.99
426.415	3.97
426.772	3.93
427.128	3.93
427.485	3.92
427.842	3.89
428.199	3.88
428.555	3.89
428.912	3.91
429.269	3.94
429.625	3.93
429.982	3.91
430.338	3.92
430.695	3.92
431.051	3.93
431.407	3.91
431.764	3.91
432.12	3.9
432.476	3.9
432.832	3.87
433.189	3.87
433.545	3.89
433.901	3.91
434.257	3.91
434.613	3.92
434.969	3.9
435.325	3.89
435.681	3.91
436.036	3.9
436.392	3.87
436.748	3.85
437.104	3.84
437.459	3.84
437.815	3.84
438.171	3.85
438.526	3.84
438.882	3.86
439.237	3.87
439.593	3.88
439.948	3.87
440.304	3.88
440.659	3.88
441.014	3.87
441.369	3.85
441.725	3.85
442.08	3.84
442.435	3.84
442.79	3.84
443.145	3.82
443.5	3.81
443.855	3.8
444.21	3.8
444.565	3.8
444.92	3.82
445.275	3.79
445.629	3.77
445.984	3.76
446.339	3.74
446.693	3.71
447.048	3.71
447.403	3.7
447.757	3.69
448.112	3.68
448.466	3.66
448.82	3.66
449.175	3.66
449.529	3.65
449.883	3.62
450.238	3.62
450.592	3.62
450.946	3.62
451.3	3.62
451.654	3.62
452.008	3.63
452.362	3.6
452.716	3.61
453.07	3.61
453.424	3.6
453.778	3.6
454.132	3.58
454.486	3.56
454.839	3.55
455.193	3.55
455.547	3.54
455.9	3.53
456.254	3.54
456.607	3.54
456.961	3.54
457.314	3.55
457.668	3.55
458.021	3.53
458.375	3.54
458.728	3.55
459.081	3.56
459.434	3.56
459.787	3.58
460.141	3.58
460.494	3.58
460.847	3.59
461.2	3.62
461.553	3.64
461.906	3.67
462.259	3.68
462.611	3.68
462.964	3.69
463.317	3.69
463.67	3.7
464.022	3.7
464.375	3.7
464.728	3.71
465.08	3.74
465.433	3.77
465.785	3.78
466.138	3.78
466.49	3.79
466.843	3.78
467.195	3.78
467.547	3.79
467.899	3.8
468.252	3.8
468.604	3.8
468.956	3.81
469.308	3.82
469.66	3.85
470.012	3.88
470.364	3.91
470.716	3.94
471.068	3.95
471.42	3.96
471.772	4
472.123	4.03
472.475	4.05
472.827	4.05
473.178	4.04
473.53	4.03
473.882	4.02
474.233	4.04
474.585	4.04
474.936	4.02
475.288	4.03
475.639	4.05
475.99	4.04
476.342	4.02
476.693	4.02
477.044	4.02
477.395	4.02
477.746	3.99
478.097	3.99
478.448	3.96
478.8	3.96
479.15	3.91
479.501	3.89
479.852	3.88
480.203	3.87
480.554	3.87
480.905	3.86
481.255	3.88
481.606	3.86
481.957	3.84
482.307	3.85
482.658	3.84
483.009	3.83
483.359	3.84
483.709	3.84
484.06	3.84
484.41	3.83
484.761	3.82
485.111	3.82
485.461	3.82
485.811	3.83
486.162	3.82
486.512	3.83
486.862	3.82
487.212	3.82
487.562	3.82
487.912	3.82
488.262	3.82
488.612	3.81
488.961	3.82
489.311	3.83
489.661	3.83
490.011	3.83
490.36	3.83
490.71	3.84
491.06	3.84
491.409	3.83
491.759	3.84
492.108	3.87
492.458	3.88
492.807	3.89
493.157	3.89
493.506	3.92
493.855	3.94
494.204	3.97
494.554	3.98
494.903	3.99
495.252	4.01
495.601	4.05
495.95	4.08
496.299	4.12
496.648	4.14
496.997	4.19
497.346	4.22
497.695	4.26
498.043	4.29
498.392	4.35
498.741	4.41
499.09	4.44
499.438	4.47
499.787	4.52
500.135	4.58
500.484	4.65
500.832	4.69
501.181	4.74
501.529	4.82
501.878	4.9
502.226	4.98
502.574	5.05
502.923	5.12
503.271	5.16
503.619	5.23
503.967	5.33
504.315	5.4
504.663	5.51
505.011	5.61
505.359	5.7
505.707	5.8
506.055	5.89
506.403	6.02
506.751	6.14
507.098	6.23
507.446	6.37
507.794	6.48
508.141	6.62
508.489	6.74
508.837	6.84
509.184	6.98
509.531	7.09
509.879	7.24
510.226	7.41
510.574	7.57
510.921	7.73
511.268	7.87
511.616	8.05
511.963	8.21
512.31	8.37
512.657	8.55
513.004	8.75
513.351	8.93
513.698	9.12
514.045	9.33
514.392	9.55
514.739	9.74
515.086	9.96
515.432	10.16
515.779	10.37
516.126	10.59
516.473	10.81
516.819	11.03
517.166	11.24
517.512	11.44
517.859	11.66
518.205	11.86
518.552	12.06
518.898	12.23
519.245	12.42
519.591	12.61
519.937	12.8
520.283	13.01
520.629	13.25
520.976	13.47
521.322	13.68
521.668	13.93
522.014	14.18
522.36	14.44
522.706	14.71
523.052	15.03
523.398	15.32
523.743	15.61
524.089	15.93
524.435	16.2
524.781	16.44
525.126	16.67
525.472	16.89
525.817	17.1
526.163	17.3
526.509	17.51
526.854	17.7
527.199	17.87
527.545	18.04
527.89	18.21
528.235	18.39
528.581	18.56
528.926	18.73
529.271	18.92
529.616	19.09
529.961	19.24
530.306	19.41
530.651	19.6
530.996	19.8
531.341	19.99
531.686	20.2
532.031	20.42
532.376	20.64
532.721	20.87
533.065	21.1
533.41	21.35
533.755	21.56
534.099	21.81
534.444	22.06
534.788	22.31
535.133	22.51
535.477	22.73
535.822	22.97
536.166	23.24
536.51	23.49
536.855	23.77
537.199	24.09
537.543	24.37
537.887	24.71
538.231	25
538.576	25.31
538.92	25.61
539.264	25.9
539.608	26.17
539.951	26.43
540.295	26.67
540.639	26.89
540.983	27.12
541.327	27.35
541.671	27.56
542.014	27.78
542.358	28.04
542.701	28.27
543.045	28.48
543.389	28.7
543.732	28.92
544.075	29.19
544.419	29.45
544.762	29.67
545.105	29.88
545.449	30.15
545.792	30.42
546.135	30.69
546.478	30.99
546.821	31.31
547.165	31.6
547.508	31.92
547.851	32.26
548.194	32.6
548.536	32.94
548.879	33.31
549.222	33.58
549.565	33.89
549.908	34.23
550.25	34.58
550.593	34.92
550.936	35.24
551.278	35.49
551.621	35.8
551.963	36.18
552.306	36.53
552.648	36.86
552.991	37.16
553.333	37.46
553.675	37.69
554.017	38.02
554.36	38.31
554.702	38.57
555.044	38.85
555.386	39.15
555.728	39.41
556.07	39.68
556.412	39.99
556.754	40.29
557.096	40.59
557.438	40.88
557.78	41.22
558.121	41.53
558.463	41.88
558.805	42.19
559.147	42.45
559.488	42.7
559.83	42.95
560.171	43.17
560.513	43.42
560.854	43.68
561.196	43.86
561.537	44.16
561.878	44.44
562.22	44.72
562.561	44.93
562.902	45.17
563.243	45.38
563.584	45.58
563.925	45.74
564.266	45.95
564.607	46.14
564.948	46.27
565.289	46.48
565.63	46.62
565.971	46.78
566.312	47.01
566.653	47.22
566.993	47.3
567.334	47.53
567.675	47.75
568.015	47.97
568.356	48.15
568.696	48.24
569.037	48.37
569.377	48.49
569.718	48.64
570.058	48.72
570.398	48.91
570.739	49.13
571.079	49.34
571.419	49.52
571.759	49.69
572.099	49.89
572.439	50.07
572.779	50.24
573.119	50.42
573.459	50.54
573.799	50.68
574.139	50.95
574.479	51.07
574.819	51.15
575.158	51.31
575.498	51.47
575.838	51.67
576.177	51.82
576.517	51.98
576.856	52.19
577.196	52.42
577.535	52.54
577.875	52.68
578.214	52.79
578.553	52.91
578.893	53.07
579.232	53.18
579.571	53.33
579.91	53.54
580.25	53.68
580.589	53.77
580.928	53.97
581.267	54.07
581.606	54.23
581.945	54.46
582.283	54.63
582.622	54.76
582.961	54.9
583.3	55.05
583.639	55.24
583.977	55.36
584.316	55.47
584.654	55.54
584.993	55.56
585.332	55.7
585.67	55.87
586.008	55.98
586.347	56.09
586.685	56.12
587.024	56.18
587.362	56.19
587.7	56.34
588.038	56.43
588.376	56.48
588.715	56.53
589.053	56.54
589.391	56.61
589.729	56.73
590.067	56.85
590.404	56.94
590.742	56.92
591.08	56.89
591.418	56.99
591.756	57.08
592.093	57.18
592.431	57.27
592.769	57.28
593.106	57.36
593.444	57.51
593.781	57.58
594.119	57.65
594.456	57.73
594.793	57.83
595.131	57.81
595.468	57.86
595.805	57.93
596.143	58.07
596.48	58.09
596.817	58.11
597.154	58.21
597.491	58.23
597.828	58.32
598.165	58.5
598.502	58.51
598.839	58.63
599.176	58.74
599.512	58.78
599.849	58.84
600.186	58.84
600.523	58.73
600.859	58.82
601.196	58.89
601.532	58.9
601.869	58.86
602.205	58.87
602.542	59.02
602.878	59.13
603.215	59.12
603.551	59.2
603.887	59.21
604.223	59.16
604.56	59.19
604.896	59.23
605.232	59.23
605.568	59.27
605.904	59.31
606.24	59.38
606.576	59.48
606.912	59.52
607.248	59.65
607.583	59.73
607.919	59.76
608.255	59.76
608.591	59.88
608.926	59.98
609.262	60.14
609.597	60.1
609.933	60.15
610.268	60.19
610.604	60.2
610.939	60.23
611.275	60.31
611.61	60.34
611.945	60.44
612.281	60.49
612.616	60.53
612.951	60.53
613.286	60.57
613.621	60.5
613.956	60.59
614.291	60.64
614.626	60.8
614.961	60.82
615.296	60.83
615.631	60.88
615.966	60.9
616.3	60.88
616.635	60.99
616.97	60.95
617.304	61
617.639	60.99
617.973	61.05
618.308	60.98
618.642	61.04
618.977	61.02
619.311	61.05
619.646	61.04
619.98	61.13
620.314	61.17
620.648	61.24
620.983	61.28
621.317	61.21
621.651	61.28
621.985	61.43
622.319	61.55
622.653	61.54
622.987	61.62
623.321	61.72
623.655	61.67
623.988	61.75
624.322	61.78
624.656	61.9
624.99	61.97
625.323	62.05
625.657	62.11
625.99	62.16
626.324	62.21
626.657	62.31
626.991	62.32
627.324	62.39
627.658	62.46
627.991	62.5
628.324	62.67
628.657	62.59
628.991	62.6
629.324	62.54
629.657	62.51
629.99	62.49
630.323	62.44
630.656	62.46
630.989	62.47
631.322	62.49
631.655	62.4
631.987	62.43
632.32	62.49
632.653	62.46
632.986	62.47
633.318	62.44
633.651	62.45
633.984	62.44
634.316	62.35
634.649	62.38
634.981	62.37
635.313	62.21
635.646	62.32
635.978	62.27
636.31	62.34
636.643	62.49
636.975	62.62
637.307	62.64
637.639	62.74
637.971	62.75
638.303	62.73
638.635	62.75
638.967	62.67
639.299	62.8
639.631	62.85
639.963	62.85
640.295	63.02
640.626	63.04
640.958	63.12
641.29	63.22
641.621	63.22
641.953	63.2
642.285	63.35
642.616	63.4
642.948	63.32
643.279	63.33
643.61	63.32
643.942	63.25
644.273	63.2
644.604	63.19
644.936	63.13
645.267	63.17
645.598	63.3
645.929	63.47
646.26	63.3
646.591	63.3
646.922	63.31
647.253	63.19
647.584	63.16
647.915	63.17
648.245	63.14
648.576	63.05
648.907	63.06
649.238	63
649.568	62.97
649.899	63.09
650.229	63.16
650.56	63.13
650.89	63.2
651.221	63.29
651.551	63.31
651.882	63.37
652.212	63.44
652.542	63.43
652.872	63.35
653.203	63.41
653.533	63.42
653.863	63.42
654.193	63.43
654.523	63.5
654.853	63.47
655.183	63.5
655.513	63.53
655.843	63.47
656.172	63.43
656.502	63.39
656.832	63.41
657.162	63.37
657.491	63.37
657.821	63.39
658.15	63.47
658.48	63.47
658.809	63.55
659.139	63.53
659.468	63.55
659.798	63.68
660.127	63.64
660.456	63.59
660.785	63.67
661.115	63.7
661.444	63.59
661.773	63.6
662.102	63.64
662.431	63.67
662.76	63.73
663.089	63.77
663.418	63.74
663.747	63.53
664.076	63.59
664.404	63.7
664.733	63.68
665.062	63.66
665.39	63.76
665.719	63.67
666.048	63.66
666.376	63.56
666.705	63.47
667.033	63.53
667.362	63.75
667.69	63.8
668.018	63.8
668.347	63.71
668.675	63.88
669.003	63.86
669.331	63.94
669.659	63.92
669.987	64.04
670.315	64.06
670.643	64.32
670.971	64.33
671.299	64.33
671.627	64.28
671.955	64.2
672.283	64.04
672.61	64.02
672.938	63.91
673.266	63.89
673.593	63.86
673.921	63.83
674.249	63.7
674.576	63.68
674.904	63.73
675.231	63.98
675.558	63.69
675.886	63.64
676.213	63.67
676.54	63.66
676.867	63.46
677.195	63.59
677.522	63.6
677.849	63.54
678.176	63.5
678.503	63.65
678.83	63.77
679.157	63.84
679.484	63.83
679.81	63.99
680.137	64.02
680.464	64.07
680.791	64.14
681.117	64.24
681.444	64.27
681.771	64.27
682.097	64.32
682.424	64.39
682.75	64.45
683.077	64.35
683.403	64.59
683.729	64.85
684.056	64.74
684.382	64.84
684.708	65
685.034	65.1
685.36	64.96
685.686	65
686.012	64.96
686.339	65.04
686.664	65.12
686.99	65.15
687.316	65.19
687.642	65.19
687.968	65.2
688.294	65.08
688.619	65.04
688.945	64.95
689.271	65.04
689.596	65.03
689.922	65.08
690.247	64.86
690.573	64.81
690.898	64.88
691.224	64.69
691.549	64.58
691.874	64.5
692.2	64.55
692.525	64.44
692.85	64.55
693.175	64.57
693.5	64.47
693.825	64.56
694.15	64.41
694.475	64.28
694.8	64.11
695.125	64.07
695.45	64
695.775	64.09
696.099	64.16
696.424	63.97
696.749	63.95
697.073	64.02
697.398	64.08
697.723	64.13
698.047	64.25
698.372	64.21
698.696	64.12
699.02	63.96
699.345	63.99
699.669	64.05
699.993	64.11
700.318	64.11
700.642	64.09
700.966	64.09
701.29	64.14
701.614	64.23
701.938	64.32
702.262	64.43
702.586	64.4
702.91	64.38
703.234	64.66
703.557	64.75
703.881	64.63
704.205	64.51
704.529	64.45
704.852	64.37
705.176	64.45
705.499	64.66
705.823	64.92
706.146	64.9
706.47	64.86
706.793	64.84
707.117	64.92
707.44	64.96
707.763	64.93
708.086	64.95
708.409	65.05
708.733	65.04
709.056	65.1
709.379	65.02
709.702	64.85
710.025	64.76
710.348	64.74
710.671	65.04
710.993	65.2
711.316	65.15
711.639	65.29
711.962	65.21
712.284	65.02
712.607	64.93
712.93	64.85
713.252	64.84
713.575	64.84
713.897	64.85
714.22	64.79
714.542	64.88
714.864	64.94
715.187	64.88
715.509	64.84
715.831	64.73
716.153	64.81
716.475	64.84
716.798	64.86
717.12	64.85
717.442	64.68
717.764	64.6
718.085	64.71
718.407	64.4
718.729	64.29
719.051	64.38
719.373	64.45
719.695	64.57
720.016	64.67
720.338	64.75
720.659	64.78
720.981	64.45
721.302	64.64
721.624	64.6
721.945	64.71
722.267	64.87
722.588	65.03
722.909	64.97
723.231	65.29
723.552	65.12
723.873	65.15
724.194	65.17
724.515	65.19
724.836	64.97
725.157	65.22
725.478	65.4
725.799	65.31
726.12	65.25
726.441	65.28
726.762	65.03
727.083	64.7
727.403	64.53
727.724	65.12
728.045	64.96
728.365	64.99
728.686	65.07
729.006	65.04
729.327	64.86
729.647	65.02
729.967	64.75
730.288	65.07
730.608	65.14
730.928	65.12
731.249	65.18
731.569	65.1
731.889	65.22
732.209	65.26
732.529	65.29
732.849	65.44
733.169	65.4
733.489	65.57
733.809	65.78
734.129	65.69
734.448	65.22
734.768	65.36
735.088	65.3
735.408	65.33
735.727	65.5
736.047	65.75
736.366	65.54
736.686	65.75
737.005	65.62
737.325	65.71
737.644	65.71
737.963	65.92
738.283	66.33
738.602	66.36
738.921	66.39
739.24	66.54
739.56	66.36
739.879	66.22
740.198	66.14
740.517	66.24
740.836	66.51
741.155	66.76
741.473	66.55
741.792	66.56
742.111	66.17
742.43	66.17
742.748	65.84
743.067	65.74
743.386	65.4
743.704	65.43
744.023	65.21
744.341	65.63
744.66	65.01
744.978	65.1
745.297	65.1
745.615	65.08
745.933	64.77
746.252	64.8
746.57	64.76
746.888	64.83
747.206	64.9
747.524	64.83
747.842	64.85
748.16	65.06
748.478	65.13
748.796	65.52
749.114	65.06
749.432	64.86
749.749	65.36
750.067	65.72
750.385	65.46
750.703	65.37
751.02	64.97
751.338	65.2
751.655	64.74
751.973	64.71
752.29	64.25
752.608	64.24
752.925	64.25
753.242	64.8
753.56	64.6
753.877	64.42
754.194	64.35
754.511	64.45
754.828	64.48
755.145	64.73
755.462	64.58
755.779	65.05
756.096	65.18
756.413	65.09
756.73	65.3
757.047	65.39
757.364	65.63
757.68	65.69
757.997	65.89
758.314	65.71
758.63	65.43
758.947	65.94
759.264	66.46
759.58	66.53
759.896	66.04
760.213	66.08
760.529	66.07
760.846	65.78
761.162	66.06
761.478	66.05
761.794	66
762.11	65.86
762.426	65.63
762.743	65.91
763.059	65.77
763.375	65.67
763.69	65.78
764.006	65.79
764.322	65.7
764.638	65.58
764.954	66.01
765.27	66.29
765.585	66.17
765.901	66.05
766.216	65.95
766.532	66.02
766.848	66.02
767.163	65.91
767.478	66.07
767.794	65.68
768.109	65.58
768.424	65.28
768.74	65.57
769.055	65.68
769.37	65.78
769.685	65.72
770	65.37
770.315	65.29
770.63	65.08
770.945	65.1
771.26	65.29
771.575	65.14
771.89	64.96
772.205	65.08
772.52	65.02
772.834	65.13
773.149	65.44
773.464	65.19
773.778	65.62
774.093	65.91
774.407	65.77
774.722	65.56
775.036	66.17
775.351	65.82
775.665	65.65
775.979	65.32
776.293	65.62
776.608	66.16
776.922	66.14
777.236	66.42
777.55	66.15
777.864	65.69
778.178	65.45
778.492	65.89
778.806	66.24
779.12	65.79
779.434	65.75
779.747	65.74
780.061	66.3
780.375	66.27
780.689	66.16
781.002	66.97
781.316	66.57
781.629	66.06
781.943	66.57
782.256	66.91
782.57	67.38
782.883	66.99
783.196	66.68
783.51	66.72
783.823	66.75
784.136	67.16
784.449	67.31
784.762	67.35
785.075	66.8
785.388	66.4
785.701	67.13
786.014	67.48
786.327	67.25
786.64	66.82
786.953	66.32
787.266	66.4
787.578	65.84
787.891	66.34
788.204	66.37
788.516	66.29
788.829	65.77
789.141	65.96
789.454	65.95
789.766	66.22
790.079	66.29
790.391	66.33
790.703	66.36
791.016	66.6
791.328	66.86
791.64	67.01
791.952	67.26
792.264	67.27
792.576	67.19
792.888	67.7
793.2	68.25
793.512	68.68
793.824	69.04
794.136	69.33
794.448	68.93
794.76	69.14
795.071	68.45
795.383	68.76
795.695	67.65
796.006	67.9
796.318	67.75
796.629	67.66
796.941	67.2
797.252	67.38
797.564	68.11
797.875	68.09
798.186	68.19
798.497	68.1
798.809	67.77
799.12	68.11
799.431	67.62
799.742	67.54
800.053	67.42
800.364	66.5
800.675	66.23
800.986	66.92
801.297	66.69
801.608	67
801.918	66.27
802.229	67.29
802.54	67.48
802.851	67.43
803.161	67.78
803.472	68.38
803.782	68.35
804.093	67.26
804.403	67.28
804.714	66.85
805.024	66.56
805.334	66.62
805.645	66.31
805.955	66.22
806.265	66.14
806.575	66.42
806.885	67.21
807.195	66.83
807.505	67.22
807.815	68.36
808.125	68.2
808.435	69.4
808.745	69.06
809.055	69.09
809.365	68.79
809.674	68.12
809.984	67.83
810.294	67.91
810.603	68.31
810.913	68.57
811.222	68.7
811.532	68.9
811.841	69.23
812.151	68.98
812.46	69.83
812.769	69.72
813.079	68.67
813.388	68.91
813.697	69.9
814.006	69.72
814.315	68.66
814.624	69.48
814.933	68.69
815.242	69.09
815.551	69.26
815.86	70.27
816.169	69.79
816.478	69.65
816.786	69.4
817.095	70.11
817.404	70.44
817.712	70.51
818.021	70.29
818.33	70.25
818.638	70.09
818.947	69.03
819.255	68.82
819.563	68.75
819.872	68.42
820.18	68.49
820.488	67.86
820.796	67.84
821.105	67.5
821.413	67.71
821.721	67.36
822.029	67.22
822.337	66.95
822.645	67.21
822.953	67.27
823.26	67.02
823.568	66.93
823.876	66.67
824.184	66.65
824.491	66.59
824.799	66.6
825.107	66.52
825.414	66.5
825.722	66.4
826.029	66.45
826.337	66.47
826.644	66.07
826.951	66.01
827.259	65.99
827.566	66.07
827.873	66.17
828.18	66.22
828.488	66.38
828.795	66.13
829.102	66.08
829.409	65.89
829.716	66.18
830.023	66.02
830.329	66.66
830.636	66.83
830.943	66.98
831.25	66.71
831.557	66.67
831.863	66.87
832.17	66.91
832.476	66.97
832.783	66.42
833.089	66.61
833.396	67.47
833.702	67.39
834.009	66.97
834.315	66.52
834.621	66.07
834.928	66.05
835.234	66.45
835.54	66.53
835.846	66.66
836.152	66.78
836.458	66.74
836.764	66.03
837.07	65.68
837.376	65.8
837.682	65.54
837.988	65.95
838.293	66.06
838.599	66.47
838.905	67.33
839.211	68.05
839.516	68.06
839.822	67.65
840.127	67.61
840.433	68.2
840.738	68.17
841.044	69.28
841.349	68.98
841.654	69.15
841.959	68.58
842.265	68.55
842.57	68.71
842.875	69.1
843.18	69.73
843.485	69.59
843.79	69.44
844.095	69.85
844.4	70.47
844.705	70.25
845.01	69.03
845.315	68.08
845.619	68.1
845.924	67.85
846.229	67.4
846.533	67.36
846.838	67.45
847.142	67.34
847.447	66.05
847.751	65.84
848.056	65.52
848.36	67.45
848.664	67.61
848.969	67.81
849.273	69.06
849.577	68.13
849.881	67.72
850.185	68.51
850.489	70.86
850.794	69.47
851.097	70.44
851.401	73.07
851.705	71.24
852.009	71.44
852.313	72.05
852.617	72.9
852.92	74.06
853.224	74.13
853.528	74.6
853.831	77.55
854.135	76.1
854.438	77.38
854.742	76.92
855.045	76.82
855.349	75.15
855.652	74.33
855.955	73.48
856.259	74.41
856.562	75
856.865	71.34
857.168	70.96
857.471	71.04
857.774	70.71
858.077	73.91
858.38	74.74
858.683	75.43
858.986	77.11
859.289	75.08
859.592	76.37
859.894	73.56
860.197	70.69
860.5	70.87
860.802	69.54
861.105	69.16
861.407	70.86
861.71	72.86
862.012	71.51
862.315	71.28
862.617	72.63
862.919	71.09
863.222	72.52
863.524	72.46
863.826	73.37
864.128	74.3
864.43	71.48
864.732	71.8
865.034	72.95
865.336	71.74
865.638	71.83
865.94	72.24
866.242	76.28
866.544	79.16
866.846	79.72
867.147	82.33
867.449	81.83
867.751	78.87
868.052	77.61
868.354	77.84
868.655	81.46
868.957	82.59
869.258	84.4
869.56	84.4
869.861	84.01
870.162	83.83
870.463	81.31
870.765	81.16
871.066	79.75
871.367	78.19
871.668	79.18
871.969	80.02
872.27	78.43
872.571	75.25
872.872	71.49
873.173	70.8
873.473	69.27
873.774	69.11
874.075	71.01
874.376	70.96
874.676	71.81
874.977	68.99
875.277	66.62
875.578	65.21
875.878	65.34
876.179	65.77
876.479	63.86
876.78	63.49
877.08	64.78
877.38	64.72
877.68	65.16
877.981	62.43
878.281	62.73
878.581	61.86
