Data from BU57652_Reflection_00014.txt Node
Date: Tue Nov 19 10:43:30 EST 2019
User: vgr7
Spectrometer: USB2G7710
Scans to average: 3
Trigger mode: 4
Integration Time (sec): 2.000000E-2
Electric dark correction enabled: true
Boxcar width: 10
XAxis mode: Wavelengths
Number of Pixels in Spectrum: 2048
>>>>>Begin Spectral Data<<<<<
177.721	-162.19
178.105	-78.83
178.488	2.8
178.871	9.47
179.254	174.19
179.636	225
180.019	124.45
180.402	25
180.785	-147.54
181.168	-139.86
181.55	2676.92
181.933	-291.09
182.316	-1442.55
182.698	-278.66
183.081	-371.1
183.463	-747.31
183.846	-777.99
184.228	-1390.1
184.611	-446.68
184.993	-167.88
185.376	-91.05
185.758	-81.91
186.14	-77.95
186.522	-49.39
186.904	-51.52
187.287	-44.03
187.669	-20.63
188.051	-35.83
188.433	-72.99
188.815	-76
189.197	-70.94
189.579	-70.23
189.961	-69.95
190.342	-56.36
190.724	-61.54
191.106	-57.17
191.488	-39.77
191.869	-25.55
192.251	-35.4
192.633	-33.41
193.014	-46.64
193.396	-55.52
193.777	-57.27
194.159	-42.18
194.54	-54.63
194.922	-55.19
195.303	-62.11
195.684	-81.21
196.065	-77.42
196.447	-69.12
196.828	-68.36
197.209	-61.24
197.59	-42.11
197.971	-46.11
198.352	-34.53
198.733	-30.64
199.114	-34.8
199.495	-36.01
199.876	-43.17
200.257	-38.78
200.638	-37.07
201.018	-36.42
201.399	-26.66
201.78	-26.14
202.16	-24.41
202.541	-21.98
202.922	-23.68
203.302	-2.64
203.683	-4.83
204.063	-1.49
204.444	8.45
204.824	16.22
205.204	23.33
205.585	17.43
205.965	14.19
206.345	4.57
206.725	11
207.106	28.48
207.486	10.32
207.866	23.62
208.246	27.08
208.626	42.83
209.006	33.5
209.386	38.41
209.766	48.13
210.145	22.94
210.525	-7.1
210.905	57.26
211.285	6.21
211.664	25.44
212.044	22.24
212.424	-0.36
212.803	-23.4
213.183	-46.01
213.562	-31.87
213.942	-24.95
214.321	-22.78
214.701	-28.58
215.08	-42.77
215.459	-21.1
215.838	-25.22
216.218	-29.22
216.597	-31.27
216.976	-31.36
217.355	-26.47
217.734	-35.4
218.113	-22.8
218.492	-18.57
218.871	-18.67
219.25	-23.48
219.629	-35.44
220.008	-36.62
220.387	-39.93
220.766	-34.05
221.144	-23.21
221.523	-26.88
221.902	-16.75
222.28	-9.08
222.659	-6.68
223.037	-16.87
223.416	-19.77
223.794	-10.26
224.173	-10.6
224.551	-9.83
224.929	-11.18
225.308	-14.64
225.686	-16.56
226.064	-23.05
226.442	-14.18
226.821	-11.17
227.199	-5.61
227.577	-2.83
227.955	-2.47
228.333	-4.93
228.711	-2.53
229.089	-3.67
229.467	-3.77
229.845	-4.21
230.222	-0.66
230.6	1.2
230.978	4.35
231.356	3.5
231.733	2.73
232.111	1.22
232.488	1.26
232.866	0.09
233.243	3.05
233.621	6.6
233.998	6.94
234.376	6.55
234.753	5.21
235.13	4.94
235.508	4.02
235.885	5.46
236.262	5.7
236.639	6.08
237.016	4.21
237.393	5.53
237.77	4.39
238.147	2.57
238.524	2.9
238.901	2.83
239.278	2.18
239.655	1.67
240.032	3
240.409	2.7
240.785	3.02
241.162	2.56
241.539	2.15
241.915	2.38
242.292	2.69
242.668	3.12
243.045	4
243.421	4.48
243.798	4.4
244.174	4.53
244.551	4.24
244.927	4.62
245.303	4.46
245.679	4.67
246.056	4.78
246.432	4.73
246.808	4.97
247.184	5.13
247.56	5.27
247.936	5.08
248.312	5.18
248.688	5.24
249.064	5.09
249.44	4.97
249.815	5.21
250.191	4.93
250.567	4.9
250.943	4.42
251.318	4.19
251.694	4.08
252.069	4.02
252.445	4.31
252.82	4.24
253.196	4.45
253.571	4.72
253.947	4.79
254.322	4.66
254.697	4.43
255.073	4.51
255.448	4.43
255.823	4.28
256.198	4.16
256.573	4.24
256.948	4.48
257.323	4.71
257.698	4.52
258.073	4.77
258.448	4.73
258.823	4.55
259.198	4.61
259.573	4.67
259.948	4.84
260.322	4.62
260.697	4.73
261.072	4.59
261.446	4.51
261.821	4.4
262.195	4.33
262.57	4.46
262.944	4.47
263.319	4.65
263.693	4.79
264.067	4.86
264.442	4.77
264.816	4.81
265.19	4.68
265.564	4.63
265.938	4.42
266.313	4.35
266.687	4.41
267.061	4.27
267.435	4.19
267.809	3.84
268.183	3.74
268.556	3.78
268.93	4.07
269.304	4
269.678	4.07
270.051	4.12
270.425	3.96
270.799	3.72
271.172	3.58
271.546	3.7
271.919	3.65
272.293	3.76
272.666	3.77
273.04	3.87
273.413	3.85
273.787	3.92
274.16	3.75
274.533	3.91
274.906	3.99
275.279	3.95
275.653	4.08
276.026	4.17
276.399	4.04
276.772	3.94
277.145	3.81
277.518	3.84
277.891	3.83
278.263	3.97
278.636	4.17
279.009	4.3
279.382	4.11
279.755	4.21
280.127	4.04
280.5	4.03
280.872	3.86
281.245	3.81
281.617	3.76
281.99	3.88
282.362	3.88
282.735	3.83
283.107	3.89
283.479	3.94
283.852	3.98
284.224	4.02
284.596	3.87
284.968	3.82
285.34	3.73
285.713	3.88
286.085	3.78
286.457	3.85
286.829	3.71
287.201	3.7
287.572	3.82
287.944	4.04
288.316	4
288.688	4.13
289.06	4.26
289.431	4.37
289.803	4.58
290.175	4.54
290.546	4.53
290.918	4.6
291.289	4.53
291.661	4.67
292.032	4.65
292.403	4.78
292.775	5.07
293.146	5.28
293.517	5.1
293.889	5.14
294.26	5.1
294.631	5.23
295.002	5.25
295.373	5.2
295.744	5.18
296.115	5.2
296.486	5.2
296.857	5.28
297.228	5.27
297.599	5.2
297.97	5.36
298.34	5.5
298.711	5.53
299.082	5.61
299.452	5.63
299.823	5.68
300.194	5.74
300.564	5.61
300.935	5.68
301.305	5.93
301.676	5.99
302.046	6.04
302.416	6.08
302.787	6.33
303.157	6.56
303.527	6.62
303.897	6.7
304.267	6.85
304.637	7.07
305.008	7.35
305.378	7.5
305.748	7.64
306.117	7.68
306.487	7.87
306.857	7.98
307.227	8.13
307.597	8.36
307.967	8.36
308.336	8.78
308.706	8.76
309.076	8.9
309.445	9.14
309.815	9.41
310.184	9.55
310.554	9.44
310.923	9.31
311.293	9.4
311.662	9.56
312.031	9.63
312.401	9.62
312.77	9.67
313.139	9.72
313.508	9.65
313.877	9.81
314.246	9.78
314.616	10.01
314.985	10.16
315.353	10.38
315.722	10.72
316.091	10.73
316.46	11.01
316.829	11.13
317.198	11.32
317.567	11.37
317.935	11.44
318.304	11.74
318.672	11.93
319.041	12.02
319.41	12
319.778	12.33
320.147	12.45
320.515	12.47
320.883	12.6
321.252	12.66
321.62	12.7
321.988	13.03
322.357	12.99
322.725	13.05
323.093	12.96
323.461	12.94
323.829	12.9
324.197	12.92
324.565	12.91
324.933	12.73
325.301	12.68
325.669	12.83
326.037	12.83
326.405	12.98
326.772	13
327.14	13.23
327.508	13.21
327.875	13.21
328.243	13.3
328.61	13.41
328.978	13.66
329.346	13.77
329.713	13.81
330.08	13.89
330.448	13.95
330.815	14.12
331.182	14.12
331.55	14.2
331.917	14.14
332.284	14.27
332.651	14.35
333.018	14.4
333.385	14.48
333.752	14.65
334.119	14.68
334.486	14.81
334.853	14.78
335.22	14.69
335.587	14.81
335.954	14.9
336.32	15
336.687	14.93
337.054	14.92
337.42	14.93
337.787	15.03
338.153	15.09
338.52	15.09
338.886	15.07
339.253	15.17
339.619	15.29
339.986	15.27
340.352	15.45
340.718	15.56
341.084	15.58
341.451	15.54
341.817	15.62
342.183	15.72
342.549	15.76
342.915	15.87
343.281	15.91
343.647	15.93
344.013	15.81
344.379	15.89
344.745	16.09
345.11	16.1
345.476	16.12
345.842	16.16
346.208	16.18
346.573	16.31
346.939	16.35
347.304	16.4
347.67	16.54
348.035	16.43
348.401	16.33
348.766	16.26
349.132	16.28
349.497	16.22
349.862	16.21
350.228	16.25
350.593	16.23
350.958	16.24
351.323	16.11
351.688	16.15
352.053	16.12
352.418	15.93
352.783	15.84
353.148	15.75
353.513	15.7
353.878	15.67
354.243	15.59
354.608	15.69
354.972	15.7
355.337	15.51
355.702	15.56
356.066	15.58
356.431	15.59
356.795	15.59
357.16	15.66
357.524	15.59
357.889	15.45
358.253	15.37
358.618	15.29
358.982	15.31
359.346	15.31
359.71	15.27
360.075	15.26
360.439	15.26
360.803	15.26
361.167	15.2
361.531	15.17
361.895	15.11
362.259	14.95
362.623	14.86
362.987	14.77
363.351	14.71
363.714	14.64
364.078	14.53
364.442	14.4
364.806	14.22
365.169	14.14
365.533	14.09
365.896	14.08
366.26	13.89
366.623	13.85
366.987	13.74
367.35	13.64
367.714	13.54
368.077	13.46
368.44	13.36
368.803	13.27
369.167	13.18
369.53	13.09
369.893	13.05
370.256	12.9
370.619	12.86
370.982	12.74
371.345	12.64
371.708	12.53
372.071	12.46
372.434	12.39
372.797	12.38
373.159	12.29
373.522	12.12
373.885	12.15
374.247	12.01
374.61	11.92
374.973	11.84
375.335	11.8
375.698	11.59
376.06	11.48
376.423	11.31
376.785	11.15
377.147	11.09
377.51	10.9
377.872	10.85
378.234	10.73
378.596	10.65
378.958	10.6
379.321	10.51
379.683	10.45
380.045	10.34
380.407	10.2
380.769	10.05
381.13	9.95
381.492	9.79
381.854	9.73
382.216	9.65
382.578	9.51
382.939	9.38
383.301	9.31
383.663	9.2
384.024	9.15
384.386	9.12
384.747	9.01
385.109	8.96
385.47	8.8
385.832	8.74
386.193	8.68
386.554	8.53
386.916	8.46
387.277	8.33
387.638	8.27
387.999	8.18
388.36	8.14
388.721	8.09
389.082	8.07
389.443	7.98
389.804	7.92
390.165	7.87
390.526	7.84
390.887	7.8
391.248	7.75
391.609	7.7
391.969	7.65
392.33	7.6
392.691	7.55
393.051	7.52
393.412	7.46
393.772	7.43
394.133	7.39
394.493	7.33
394.854	7.31
395.214	7.25
395.574	7.2
395.935	7.13
396.295	7.05
396.655	6.96
397.015	6.9
397.376	6.82
397.736	6.72
398.096	6.6
398.456	6.53
398.816	6.45
399.176	6.33
399.535	6.23
399.895	6.13
400.255	6.03
400.615	5.97
400.975	5.9
401.334	5.82
401.694	5.76
402.054	5.71
402.413	5.65
402.773	5.6
403.132	5.53
403.492	5.49
403.851	5.47
404.211	5.41
404.57	5.37
404.929	5.29
405.288	5.29
405.648	5.29
406.007	5.25
406.366	5.25
406.725	5.27
407.084	5.28
407.443	5.28
407.802	5.28
408.161	5.28
408.52	5.26
408.879	5.2
409.238	5.2
409.596	5.19
409.955	5.15
410.314	5.12
410.673	5.11
411.031	5.1
411.39	5.06
411.748	5.04
412.107	5
412.465	4.99
412.824	4.97
413.182	4.9
413.54	4.89
413.899	4.84
414.257	4.83
414.615	4.8
414.974	4.74
415.332	4.69
415.69	4.63
416.048	4.6
416.406	4.59
416.764	4.54
417.122	4.5
417.48	4.49
417.838	4.45
418.195	4.44
418.553	4.41
418.911	4.36
419.269	4.33
419.626	4.3
419.984	4.28
420.342	4.26
420.699	4.25
421.057	4.23
421.414	4.23
421.772	4.19
422.129	4.16
422.486	4.16
422.844	4.13
423.201	4.12
423.558	4.1
423.915	4.09
424.273	4.07
424.63	4.06
424.987	4.04
425.344	4.02
425.701	4
426.058	4.01
426.415	4
426.772	4.01
427.128	3.99
427.485	3.96
427.842	3.94
428.199	3.92
428.555	3.89
428.912	3.85
429.269	3.83
429.625	3.78
429.982	3.75
430.338	3.77
430.695	3.74
431.051	3.71
431.407	3.7
431.764	3.69
432.12	3.71
432.476	3.72
432.832	3.73
433.189	3.72
433.545	3.7
433.901	3.69
434.257	3.68
434.613	3.69
434.969	3.69
435.325	3.71
435.681	3.7
436.036	3.7
436.392	3.71
436.748	3.69
437.104	3.71
437.459	3.72
437.815	3.71
438.171	3.71
438.526	3.72
438.882	3.71
439.237	3.71
439.593	3.7
439.948	3.68
440.304	3.68
440.659	3.67
441.014	3.66
441.369	3.66
441.725	3.65
442.08	3.64
442.435	3.64
442.79	3.63
443.145	3.63
443.5	3.62
443.855	3.61
444.21	3.62
444.565	3.61
444.92	3.61
445.275	3.6
445.629	3.59
445.984	3.59
446.339	3.58
446.693	3.57
447.048	3.54
447.403	3.53
447.757	3.5
448.112	3.49
448.466	3.47
448.82	3.45
449.175	3.45
449.529	3.44
449.883	3.43
450.238	3.39
450.592	3.39
450.946	3.38
451.3	3.39
451.654	3.37
452.008	3.34
452.362	3.33
452.716	3.3
453.07	3.29
453.424	3.28
453.778	3.26
454.132	3.25
454.486	3.26
454.839	3.27
455.193	3.27
455.547	3.27
455.9	3.27
456.254	3.28
456.607	3.27
456.961	3.27
457.314	3.27
457.668	3.28
458.021	3.27
458.375	3.26
458.728	3.25
459.081	3.26
459.434	3.27
459.787	3.26
460.141	3.27
460.494	3.28
460.847	3.28
461.2	3.3
461.553	3.31
461.906	3.32
462.259	3.33
462.611	3.34
462.964	3.37
463.317	3.38
463.67	3.38
464.022	3.41
464.375	3.42
464.728	3.44
465.08	3.44
465.433	3.45
465.785	3.47
466.138	3.48
466.49	3.49
466.843	3.53
467.195	3.57
467.547	3.58
467.899	3.6
468.252	3.61
468.604	3.61
468.956	3.64
469.308	3.66
469.66	3.67
470.012	3.69
470.364	3.7
470.716	3.72
471.068	3.75
471.42	3.75
471.772	3.76
472.123	3.8
472.475	3.81
472.827	3.83
473.178	3.85
473.53	3.88
473.882	3.89
474.233	3.87
474.585	3.89
474.936	3.91
475.288	3.9
475.639	3.9
475.99	3.9
476.342	3.88
476.693	3.88
477.044	3.86
477.395	3.85
477.746	3.83
478.097	3.82
478.448	3.79
478.8	3.78
479.15	3.78
479.501	3.76
479.852	3.76
480.203	3.76
480.554	3.76
480.905	3.74
481.255	3.74
481.606	3.76
481.957	3.75
482.307	3.74
482.658	3.74
483.009	3.74
483.359	3.74
483.709	3.75
484.06	3.75
484.41	3.75
484.761	3.75
485.111	3.75
485.461	3.75
485.811	3.76
486.162	3.76
486.512	3.76
486.862	3.74
487.212	3.74
487.562	3.72
487.912	3.73
488.262	3.72
488.612	3.72
488.961	3.7
489.311	3.69
489.661	3.69
490.011	3.69
490.36	3.7
490.71	3.7
491.06	3.69
491.409	3.69
491.759	3.69
492.108	3.69
492.458	3.69
492.807	3.7
493.157	3.7
493.506	3.72
493.855	3.74
494.204	3.75
494.554	3.78
494.903	3.82
495.252	3.84
495.601	3.89
495.95	3.92
496.299	3.96
496.648	4.01
496.997	4.05
497.346	4.1
497.695	4.12
498.043	4.16
498.392	4.2
498.741	4.23
499.09	4.29
499.438	4.34
499.787	4.39
500.135	4.44
500.484	4.49
500.832	4.57
501.181	4.63
501.529	4.71
501.878	4.77
502.226	4.85
502.574	4.92
502.923	4.99
503.271	5.05
503.619	5.11
503.967	5.18
504.315	5.27
504.663	5.35
505.011	5.44
505.359	5.5
505.707	5.61
506.055	5.7
506.403	5.79
506.751	5.9
507.098	6.01
507.446	6.11
507.794	6.21
508.141	6.31
508.489	6.41
508.837	6.53
509.184	6.64
509.531	6.75
509.879	6.85
510.226	6.95
510.574	7.06
510.921	7.19
511.268	7.32
511.616	7.43
511.963	7.55
512.31	7.7
512.657	7.88
513.004	8.01
513.351	8.18
513.698	8.35
514.045	8.51
514.392	8.67
514.739	8.87
515.086	9.04
515.432	9.22
515.779	9.41
516.126	9.58
516.473	9.75
516.819	9.9
517.166	10.06
517.512	10.24
517.859	10.42
518.205	10.6
518.552	10.75
518.898	10.92
519.245	11.1
519.591	11.26
519.937	11.4
520.283	11.57
520.629	11.74
520.976	11.9
521.322	12.1
521.668	12.31
522.014	12.48
522.36	12.69
522.706	12.89
523.052	13.14
523.398	13.38
523.743	13.65
524.089	13.91
524.435	14.15
524.781	14.35
525.126	14.56
525.472	14.72
525.817	14.89
526.163	15.05
526.509	15.19
526.854	15.34
527.199	15.47
527.545	15.6
527.89	15.73
528.235	15.87
528.581	16.01
528.926	16.13
529.271	16.27
529.616	16.41
529.961	16.53
530.306	16.65
530.651	16.78
530.996	16.89
531.341	17.03
531.686	17.19
532.031	17.35
532.376	17.5
532.721	17.69
533.065	17.86
533.41	18.04
533.755	18.25
534.099	18.41
534.444	18.58
534.788	18.75
535.133	18.94
535.477	19.11
535.822	19.27
536.166	19.48
536.51	19.69
536.855	19.92
537.199	20.16
537.543	20.42
537.887	20.69
538.231	20.96
538.576	21.19
538.92	21.42
539.264	21.62
539.608	21.86
539.951	22.03
540.295	22.24
540.639	22.45
540.983	22.6
541.327	22.8
541.671	23.02
542.014	23.24
542.358	23.46
542.701	23.68
543.045	23.88
543.389	24.09
543.732	24.3
544.075	24.52
544.419	24.75
544.762	24.95
545.105	25.17
545.449	25.41
545.792	25.68
546.135	25.98
546.478	26.28
546.821	26.54
547.165	26.88
547.508	27.17
547.851	27.46
548.194	27.79
548.536	28.11
548.879	28.41
549.222	28.67
549.565	28.95
549.908	29.21
550.25	29.52
550.593	29.84
550.936	30.18
551.278	30.47
551.621	30.79
551.963	31.11
552.306	31.46
552.648	31.74
552.991	32.04
553.333	32.29
553.675	32.62
554.017	32.97
554.36	33.25
554.702	33.56
555.044	33.88
555.386	34.15
555.728	34.43
556.07	34.76
556.412	35.11
556.754	35.43
557.096	35.81
557.438	36.14
557.78	36.46
558.121	36.77
558.463	37.14
558.805	37.47
559.147	37.81
559.488	38.08
559.83	38.44
560.171	38.77
560.513	39.13
560.854	39.44
561.196	39.72
561.537	40.04
561.878	40.37
562.22	40.65
562.561	41.01
562.902	41.36
563.243	41.66
563.584	41.91
563.925	42.2
564.266	42.45
564.607	42.75
564.948	43.01
565.289	43.29
565.63	43.48
565.971	43.7
566.312	43.99
566.653	44.22
566.993	44.51
567.334	44.75
567.675	45
568.015	45.23
568.356	45.51
568.696	45.75
569.037	46.01
569.377	46.26
569.718	46.5
570.058	46.69
570.398	46.91
570.739	47.17
571.079	47.44
571.419	47.67
571.759	47.89
572.099	48.14
572.439	48.3
572.779	48.52
573.119	48.78
573.459	48.91
573.799	49.18
574.139	49.34
574.479	49.53
574.819	49.72
575.158	49.95
575.498	50.1
575.838	50.3
576.177	50.5
576.517	50.77
576.856	50.98
577.196	51.19
577.535	51.47
577.875	51.7
578.214	51.85
578.553	52.1
578.893	52.26
579.232	52.44
579.571	52.73
579.91	52.98
580.25	53.18
580.589	53.44
580.928	53.62
581.267	53.84
581.606	54.13
581.945	54.38
582.283	54.51
582.622	54.69
582.961	54.91
583.3	55.07
583.639	55.15
583.977	55.31
584.316	55.51
584.654	55.55
584.993	55.7
585.332	55.89
585.67	55.98
586.008	56.23
586.347	56.34
586.685	56.43
587.024	56.57
587.362	56.76
587.7	56.91
588.038	56.96
588.376	57.04
588.715	57.12
589.053	57.17
589.391	57.33
589.729	57.48
590.067	57.57
590.404	57.67
590.742	57.85
591.08	58.02
591.418	58.1
591.756	58.32
592.093	58.48
592.431	58.61
592.769	58.77
593.106	58.83
593.444	58.96
593.781	59.08
594.119	59.18
594.456	59.15
594.793	59.24
595.131	59.35
595.468	59.5
595.805	59.55
596.143	59.68
596.48	59.8
596.817	59.91
597.154	60
597.491	60.1
597.828	60.06
598.165	60.08
598.502	60.17
598.839	60.24
599.176	60.26
599.512	60.32
599.849	60.41
600.186	60.47
600.523	60.56
600.859	60.63
601.196	60.72
601.532	60.88
601.869	60.95
602.205	61.05
602.542	61.14
602.878	61.28
603.215	61.37
603.551	61.43
603.887	61.48
604.223	61.5
604.56	61.59
604.896	61.76
605.232	61.81
605.568	61.91
605.904	61.89
606.24	61.96
606.576	62.02
606.912	62.05
607.248	62.05
607.583	62.16
607.919	62.17
608.255	62.15
608.591	62.21
608.926	62.23
609.262	62.28
609.597	62.27
609.933	62.26
610.268	62.24
610.604	62.25
610.939	62.38
611.275	62.5
611.61	62.53
611.945	62.42
612.281	62.47
612.616	62.56
612.951	62.69
613.286	62.8
613.621	62.85
613.956	62.94
614.291	63.08
614.626	63.07
614.961	63.16
615.296	63.33
615.631	63.35
615.966	63.48
616.3	63.44
616.635	63.5
616.97	63.59
617.304	63.66
617.639	63.74
617.973	63.7
618.308	63.71
618.642	63.7
618.977	63.84
619.311	63.91
619.646	63.93
619.98	63.93
620.314	63.9
620.648	63.95
620.983	64.03
621.317	64.08
621.651	64.13
621.985	64.24
622.319	64.23
622.653	64.35
622.987	64.33
623.321	64.49
623.655	64.53
623.988	64.52
624.322	64.53
624.656	64.52
624.99	64.46
625.323	64.48
625.657	64.49
625.99	64.47
626.324	64.55
626.657	64.62
626.991	64.66
627.324	64.67
627.658	64.73
627.991	64.72
628.324	64.71
628.657	64.6
628.991	64.58
629.324	64.65
629.657	64.59
629.99	64.56
630.323	64.52
630.656	64.48
630.989	64.56
631.322	64.63
631.655	64.69
631.987	64.65
632.32	64.66
632.653	64.76
632.986	64.85
633.318	64.75
633.651	64.61
633.984	64.59
634.316	64.67
634.649	64.65
634.981	64.62
635.313	64.67
635.646	64.82
635.978	64.77
636.31	64.77
636.643	64.71
636.975	64.8
637.307	64.87
637.639	64.93
637.971	64.83
638.303	64.86
638.635	64.87
638.967	64.94
639.299	64.87
639.631	64.92
639.963	64.88
640.295	64.89
640.626	64.96
640.958	65.01
641.29	65.02
641.621	64.98
641.953	65.03
642.285	65
642.616	64.99
642.948	65.14
643.279	65.16
643.61	65.21
643.942	65.17
644.273	65.11
644.604	65.2
644.936	65.32
645.267	65.17
645.598	65.14
645.929	65.26
646.26	65.43
646.591	65.42
646.922	65.45
647.253	65.55
647.584	65.54
647.915	65.52
648.245	65.55
648.576	65.54
648.907	65.51
649.238	65.63
649.568	65.59
649.899	65.44
650.229	65.54
650.56	65.6
650.89	65.68
651.221	65.79
651.551	65.7
651.882	65.72
652.212	65.85
652.542	65.8
652.872	65.85
653.203	65.89
653.533	65.85
653.863	66.01
654.193	65.89
654.523	65.9
654.853	65.84
655.183	65.92
655.513	65.93
655.843	65.97
656.172	65.88
656.502	66.03
656.832	66.12
657.162	66.06
657.491	65.98
657.821	65.92
658.15	65.91
658.48	66.01
658.809	66.1
659.139	66.12
659.468	66.22
659.798	66.21
660.127	66.18
660.456	66.13
660.785	66.01
661.115	66.13
661.444	66.23
661.773	66.37
662.102	66.26
662.431	66.34
662.76	66.3
663.089	66.29
663.418	66.21
663.747	66.28
664.076	66.18
664.404	66.33
664.733	66.35
665.062	66.41
665.39	66.46
665.719	66.34
666.048	66.37
666.376	66.34
666.705	66.37
667.033	66.33
667.362	66.42
667.69	66.45
668.018	66.45
668.347	66.29
668.675	66.18
669.003	66.2
669.331	66.26
669.659	66.25
669.987	66.18
670.315	66.16
670.643	66.23
670.971	66.41
671.299	66.33
671.627	66.34
671.955	66.35
672.283	66.22
672.61	66.29
672.938	66.17
673.266	66.25
673.593	66.1
673.921	66.04
674.249	66.09
674.576	66.14
674.904	65.93
675.231	65.92
675.558	66.14
675.886	66.18
676.213	66.15
676.54	66.15
676.867	66.3
677.195	66.3
677.522	66.16
677.849	66.15
678.176	66.17
678.503	66.2
678.83	66.07
679.157	66.2
679.484	66.19
679.81	66.23
680.137	66.2
680.464	66.2
680.791	66.24
681.117	66.24
681.444	66.18
681.771	66.21
682.097	66.32
682.424	66.06
682.75	65.93
683.077	65.85
683.403	65.96
683.729	65.87
684.056	65.9
684.382	66
684.708	65.94
685.034	65.86
685.36	65.88
685.686	65.94
686.012	65.92
686.339	65.84
686.664	65.95
686.99	65.86
687.316	65.86
687.642	65.92
687.968	65.82
688.294	65.84
688.619	65.81
688.945	65.79
689.271	65.9
689.596	65.91
689.922	66.03
690.247	66.07
690.573	66.07
690.898	66.08
691.224	65.88
691.549	65.93
691.874	66.07
692.2	66.13
692.525	65.99
692.85	65.92
693.175	65.91
693.5	65.73
693.825	65.79
694.15	65.74
694.475	65.57
694.8	65.54
695.125	65.45
695.45	65.61
695.775	65.49
696.099	65.59
696.424	65.57
696.749	65.58
697.073	65.49
697.398	65.55
697.723	65.59
698.047	65.7
698.372	65.69
698.696	65.74
699.02	65.64
699.345	65.82
699.669	65.79
699.993	65.88
700.318	65.96
700.642	66.08
700.966	66.03
701.29	66.19
701.614	66.26
701.938	66.31
702.262	66.37
702.586	66.42
702.91	66.47
703.234	66.59
703.557	66.51
703.881	66.58
704.205	66.67
704.529	66.63
704.852	66.64
705.176	66.62
705.499	66.68
705.823	66.95
706.146	66.89
706.47	66.93
706.793	67.08
707.117	67.14
707.44	66.86
707.763	67.17
708.086	67.24
708.409	67.18
708.733	67.09
709.056	67.04
709.379	67.3
709.702	67.23
710.025	67.29
710.348	67.32
710.671	67.17
710.993	67.18
711.316	67.34
711.639	67.23
711.962	67.12
712.284	67.1
712.607	66.94
712.93	66.86
713.252	66.88
713.575	66.62
713.897	66.46
714.22	66.57
714.542	66.48
714.864	66.46
715.187	66.64
715.509	66.82
715.831	66.96
716.153	66.74
716.475	66.84
716.798	66.95
717.12	67.09
717.442	67.25
717.764	67.28
718.085	67.27
718.407	67.15
718.729	67.24
719.051	67.19
719.373	67.18
719.695	67.29
720.016	67.29
720.338	67.04
720.659	67.31
720.981	67.15
721.302	67.33
721.624	67.34
721.945	67.26
722.267	67.35
722.588	67.17
722.909	67.08
723.231	66.69
723.552	66.45
723.873	66.31
724.194	66.18
724.515	65.99
724.836	65.92
725.157	66.35
725.478	66.43
725.799	66.5
726.12	66.36
726.441	66.34
726.762	66.16
727.083	66.42
727.403	66.4
727.724	66.63
728.045	66.36
728.365	66.36
728.686	66.38
729.006	66.38
729.327	66.52
729.647	66.51
729.967	66.8
730.288	67.05
730.608	67
730.928	67.16
731.249	67.39
731.569	67.2
731.889	67.13
732.209	67.17
732.529	67.39
732.849	67.51
733.169	67.44
733.489	67.64
733.809	67.73
734.129	67.62
734.448	67.52
734.768	67.63
735.088	67.39
735.408	67.4
735.727	67.47
736.047	67.41
736.366	67.69
736.686	67.49
737.005	67.39
737.325	67.67
737.644	67.63
737.963	67.49
738.283	67.84
738.602	67.79
738.921	67.71
739.24	67.5
739.56	67.63
739.879	67.65
740.198	67.78
740.517	67.77
740.836	67.6
741.155	67.82
741.473	67.9
741.792	68.07
742.111	68.09
742.43	67.9
742.748	67.76
743.067	67.7
743.386	67.86
743.704	67.79
744.023	67.62
744.341	67.69
744.66	67.79
744.978	67.77
745.297	67.58
745.615	67.56
745.933	67.33
746.252	67.29
746.57	67.05
746.888	66.77
747.206	66.72
747.524	67.01
747.842	66.76
748.16	66.72
748.478	66.9
748.796	66.95
749.114	67.12
749.432	67.29
749.749	67.12
750.067	67.14
750.385	67.23
750.703	67.26
751.02	67.04
751.338	66.99
751.655	66.57
751.973	66.62
752.29	66.71
752.608	66.85
752.925	66.46
753.242	67.19
753.56	67.42
753.877	67.39
754.194	67.26
754.511	67.24
754.828	67.18
755.145	67.21
755.462	66.95
755.779	66.76
756.096	66.8
756.413	66.91
756.73	66.87
757.047	66.65
757.364	66.63
757.68	66.86
757.997	66.99
758.314	67.56
758.63	67.76
758.947	67.61
759.264	67.57
759.58	67.86
759.896	67.5
760.213	67.49
760.529	67.45
760.846	67.67
761.162	67.87
761.478	67.82
761.794	67.68
762.11	67.75
762.426	67.63
762.743	67.88
763.059	67.92
763.375	67.99
763.69	67.92
764.006	67.84
764.322	67.77
764.638	67.66
764.954	67.37
765.27	67.24
765.585	67.22
765.901	67.18
766.216	67.14
766.532	67.23
766.848	67.3
767.163	67.73
767.478	67.63
767.794	67.5
768.109	67.24
768.424	67.15
768.74	67.16
769.055	67.57
769.37	67.38
769.685	67.32
770	67.31
770.315	67.66
770.63	67.66
770.945	67.61
771.26	67.76
771.575	68.39
771.89	68.63
772.205	68.88
772.52	68.82
772.834	69.27
773.149	69.26
773.464	68.86
773.778	68.19
774.093	67.95
774.407	68.21
774.722	68.89
775.036	69.28
775.351	68.9
775.665	68.26
775.979	68.17
776.293	68.09
776.608	68.24
776.922	68.38
777.236	68.47
777.55	68.3
777.864	68.1
778.178	67.11
778.492	66.7
778.806	66.42
779.12	66.34
779.434	66.23
779.747	65.94
780.061	65.94
780.375	65.91
780.689	65.74
781.002	65.65
781.316	65.27
781.629	64.94
781.943	65.2
782.256	65.59
782.57	65.44
782.883	65.53
783.196	65.41
783.51	64.81
783.823	64.39
784.136	64.65
784.449	64.61
784.762	64.91
785.075	64.97
785.388	65.36
785.701	65.83
786.014	65.61
786.327	65.94
786.64	65.56
786.953	65.71
787.266	66.27
787.578	65.95
787.891	66.11
788.204	65.68
788.516	65.67
788.829	66.01
789.141	66
789.454	66.19
789.766	66.17
790.079	66.65
790.391	67.46
790.703	67.28
791.016	67.55
791.328	67.3
791.64	67.76
791.952	67.7
792.264	67.16
792.576	67.04
792.888	66.69
793.2	67.1
793.512	67.41
793.824	66.95
794.136	66.88
794.448	67.46
794.76	68.12
795.071	68.38
795.383	67.98
795.695	68.11
796.006	67.55
796.318	67.26
796.629	66.96
796.941	66.57
797.252	66.38
797.564	66.38
797.875	66.15
798.186	66.2
798.497	66.27
798.809	66.79
799.12	66.39
799.431	66.31
799.742	65.91
800.053	65.41
800.364	65.74
800.675	65.74
800.986	64.72
801.297	64.23
801.608	63.68
801.918	63.42
802.229	62.87
802.54	63.77
802.851	63.95
803.161	64.02
803.472	64.09
803.782	64.55
804.093	64.38
804.403	65.33
804.714	65.55
805.024	65.56
805.334	65.16
805.645	65.94
805.955	65.92
806.265	66.09
806.575	66.38
806.885	66.07
807.195	66.6
807.505	66.91
807.815	67.19
808.125	67.84
808.435	68.3
808.745	68.81
809.055	68.38
809.365	67.83
809.674	68.01
809.984	67.43
810.294	66.66
810.603	64.92
810.913	64.73
811.222	64.2
811.532	63.4
811.841	63.26
812.151	62.98
812.46	63.9
812.769	64.18
813.079	63.98
813.388	64.24
813.697	63.96
814.006	64.06
814.315	63.83
814.624	64.51
814.933	64.77
815.242	65.1
815.551	65.31
815.86	65.51
816.169	64.85
816.478	64.91
816.786	65.56
817.095	66.71
817.404	65.8
817.712	66.06
818.021	66.87
818.33	67.15
818.638	67.23
818.947	66.92
819.255	67.15
819.563	67.46
819.872	67.37
820.18	67.37
820.488	67.24
820.796	66.91
821.105	66.5
821.413	66.59
821.721	66.11
822.029	66.21
822.337	66.5
822.645	66.89
822.953	67.2
823.26	67.36
823.568	67.6
823.876	67.85
824.184	67.7
824.491	67.49
824.799	67.49
825.107	67.44
825.414	67.47
825.722	67.35
826.029	67.11
826.337	67.05
826.644	67.13
826.951	67.37
827.259	67.7
827.566	67.55
827.873	67.34
828.18	67.89
828.488	68.15
828.795	67.99
829.102	67.7
829.409	67.48
829.716	67.15
830.023	67.01
830.329	66.72
830.636	67.2
830.943	67.45
831.25	67.25
831.557	67.26
831.863	66.94
832.17	66.84
832.476	67.22
832.783	67.42
833.089	66.88
833.396	66.72
833.702	66.65
834.009	67.25
834.315	68.03
834.621	68.25
834.928	67.04
835.234	67.1
835.54	66.85
835.846	66.75
836.152	66.84
836.458	66.8
836.764	67.79
837.07	67.39
837.376	67.58
837.682	67.34
837.988	67.38
838.293	68.1
838.599	68.22
838.905	68.23
839.211	68.05
839.516	68.42
839.822	68.82
840.127	68.39
840.433	68.51
840.738	67.29
841.044	66.44
841.349	67.55
841.654	66.79
841.959	67.88
842.265	67.93
842.57	67.44
842.875	67.26
843.18	65.51
843.485	64.91
843.79	64.14
844.095	65.31
844.4	65.1
844.705	64.44
845.01	64.1
845.315	64.46
845.619	64.23
845.924	64.54
846.229	62.71
846.533	63.47
846.838	62.99
847.142	62.52
847.447	62.6
847.751	62.2
848.056	64.06
848.36	63.98
848.664	64.65
848.969	65.25
849.273	65.35
849.577	65.65
849.881	64.73
850.185	65.01
850.489	65.83
850.794	65.51
851.097	64.49
851.401	65.29
851.705	64.46
852.009	65.03
852.313	64.19
852.617	65.9
852.92	66.58
853.224	66.85
853.528	67.45
853.831	68.88
854.135	69.05
854.438	68.3
854.742	67.31
855.045	65.31
855.349	65.8
855.652	65.72
855.955	66.28
856.259	67.45
856.562	67.63
856.865	66.04
857.168	64.13
857.471	67.03
857.774	66.66
858.077	65.44
858.38	66.99
858.683	69.8
858.986	69.66
859.289	67.52
859.592	67.01
859.894	67.83
860.197	67.9
860.5	68.82
860.802	68.24
861.105	68.11
861.407	69.82
861.71	69.66
862.012	71.83
862.315	73.24
862.617	74.24
862.919	75.24
863.222	74.95
863.524	77.83
863.826	71.52
864.128	71.53
864.43	72.99
864.732	74.46
865.034	72.47
865.336	69.9
865.638	71.78
865.94	72.07
866.242	70.16
866.544	69.66
866.846	68.41
867.147	69.94
867.449	70.15
867.751	67.88
868.052	68.18
868.354	66.35
868.655	63.75
868.957	62.68
869.258	60.71
869.56	64.37
869.861	64.48
870.162	65.46
870.463	64.21
870.765	62.37
871.066	60.68
871.367	59.4
871.668	61.89
871.969	60.45
872.27	59.88
872.571	60.95
872.872	56.79
873.173	57.57
873.473	55.38
873.774	55.33
874.075	56.85
874.376	55.3
874.676	54.42
874.977	55.17
875.277	52.52
875.578	52.82
875.878	49.28
876.179	48.79
876.479	50.53
876.78	51.65
877.08	53.11
877.38	50.44
877.68	51.18
877.981	48.38
878.281	49.04
878.581	48.46
