Data from BU57650_Reflection_00007.txt Node
Date: Tue Nov 19 11:01:22 EST 2019
User: vgr7
Spectrometer: USB2G7710
Scans to average: 3
Trigger mode: 4
Integration Time (sec): 2.000000E-2
Electric dark correction enabled: true
Boxcar width: 10
XAxis mode: Wavelengths
Number of Pixels in Spectrum: 2048
>>>>>Begin Spectral Data<<<<<
177.721	49.08
178.105	74.03
178.488	-185.05
178.871	-145.95
179.254	-41.38
179.636	-176.79
180.019	167.01
180.402	172.73
180.785	-156.52
181.168	-37.85
181.55	24.66
181.933	55.58
182.316	101.08
182.698	72.68
183.081	3600
183.463	149.41
183.846	101.39
184.228	297.25
184.611	-246.69
184.993	-133.88
185.376	-107.87
185.758	-63.79
186.14	-105.7
186.522	-116.79
186.904	-138.46
187.287	-229.11
187.669	-170.31
188.051	-168.14
188.433	-145.41
188.815	-146.78
189.197	-135.02
189.579	-119.21
189.961	-93.52
190.342	-90.15
190.724	-97.39
191.106	-106.93
191.488	-84.87
191.869	-77
192.251	-72.83
192.633	-64.7
193.014	-56.22
193.396	-50.02
193.777	-47.56
194.159	-42.52
194.54	-41.26
194.922	-36.89
195.303	-25.17
195.684	-25.18
196.065	-25.38
196.447	-18.66
196.828	-11
197.209	-14.24
197.59	-13.87
197.971	-11.19
198.352	-12.77
198.733	-20.47
199.114	-21.23
199.495	-26.89
199.876	-22.15
200.257	-26.35
200.638	-34.63
201.018	-41.16
201.399	-47.21
201.78	-41.71
202.16	-40.35
202.541	-39.63
202.922	-41.96
203.302	-43.39
203.683	-51.59
204.063	-42.94
204.444	-48.94
204.824	-49.9
205.204	-30.63
205.585	-31.64
205.965	-36.6
206.345	-31.45
206.725	-18.59
207.106	-17.81
207.486	-15.7
207.866	-15.73
208.246	-11.51
208.626	-15.22
209.006	-8.12
209.386	-0.77
209.766	-2.75
210.145	-2.75
210.525	-7.61
210.905	-8.41
211.285	-7.52
211.664	0.83
212.044	-6.17
212.424	-6.87
212.803	-4.9
213.183	-17.86
213.562	-17.48
213.942	-18.9
214.321	-21.68
214.701	-23.68
215.08	-30.82
215.459	-26.29
215.838	-42.38
216.218	-44.4
216.597	-40.39
216.976	-61.15
217.355	-58.13
217.734	-68.91
218.113	-73.59
218.492	-65.68
218.871	-64.12
219.25	-72.73
219.629	-77.48
220.008	-77.48
220.387	-68.99
220.766	-69.21
221.144	-63.45
221.523	-72.19
221.902	-67.33
222.28	-47.86
222.659	-35.75
223.037	-35.35
223.416	-32.74
223.794	-26.94
224.173	-28.48
224.551	-24.7
224.929	-18.49
225.308	-18.6
225.686	-16.92
226.064	-15.67
226.442	-11.96
226.821	-11.67
227.199	-5.64
227.577	-5.19
227.955	-1.91
228.333	-5.02
228.711	-6.69
229.089	-4.24
229.467	-1.9
229.845	-0.95
230.222	-3.94
230.6	-5.22
230.978	-6.29
231.356	-6.07
231.733	-4.28
232.111	-3.01
232.488	-3.6
232.866	-1.97
233.243	-2.15
233.621	-2.07
233.998	-2.54
234.376	-3.42
234.753	-3.26
235.13	-3.23
235.508	-2.73
235.885	-2.9
236.262	-3.44
236.639	-2.83
237.016	-2.8
237.393	-0.11
237.77	0.38
238.147	0.43
238.524	1.9
238.901	3.52
239.278	2.55
239.655	1.57
240.032	1.51
240.409	1.58
240.785	0.75
241.162	0.68
241.539	0.63
241.915	1.03
242.292	2.05
242.668	2.38
243.045	3.05
243.421	3.24
243.798	3.47
244.174	3.64
244.551	3.8
244.927	3.9
245.303	3.56
245.679	3.28
246.056	3.21
246.432	2.99
246.808	3.11
247.184	3.09
247.56	3.1
247.936	3.27
248.312	3.43
248.688	3.48
249.064	3.43
249.44	3.51
249.815	3.67
250.191	3.5
250.567	3.71
250.943	3.43
251.318	3.23
251.694	3.2
252.069	3.17
252.445	2.95
252.82	2.96
253.196	2.99
253.571	3.56
253.947	3.41
254.322	3.1
254.697	2.95
255.073	3.16
255.448	3.23
255.823	3.33
256.198	3.22
256.573	3.26
256.948	3.49
257.323	3.59
257.698	3.52
258.073	3.47
258.448	3.18
258.823	3.14
259.198	3.34
259.573	3.07
259.948	3.2
260.322	3.31
260.697	3.27
261.072	3.07
261.446	2.91
261.821	3.03
262.195	3.18
262.57	3.11
262.944	3.16
263.319	3.22
263.693	2.89
264.067	2.95
264.442	3.01
264.816	2.87
265.19	2.74
265.564	2.59
265.938	2.5
266.313	2.6
266.687	2.51
267.061	2.53
267.435	2.69
267.809	2.56
268.183	2.4
268.556	2.57
268.93	2.91
269.304	2.77
269.678	2.88
270.051	2.84
270.425	2.9
270.799	2.73
271.172	2.83
271.546	3.13
271.919	3.16
272.293	3.16
272.666	3.22
273.04	3.21
273.413	3.23
273.787	3.19
274.16	3.1
274.533	3.07
274.906	2.95
275.279	3.03
275.653	3.21
276.026	3.42
276.399	3.32
276.772	3.3
277.145	3.3
277.518	3.16
277.891	3.06
278.263	3.08
278.636	3.18
279.009	3.13
279.382	3.02
279.755	2.83
280.127	2.79
280.5	2.72
280.872	2.83
281.245	3.01
281.617	3.18
281.99	3.35
282.362	3.51
282.735	3.42
283.107	3.36
283.479	3.23
283.852	3.24
284.224	3.15
284.596	3.16
284.968	3.16
285.34	3.22
285.713	3.41
286.085	3.39
286.457	3.43
286.829	3.43
287.201	3.47
287.572	3.63
287.944	3.79
288.316	3.86
288.688	3.88
289.06	3.82
289.431	3.89
289.803	4.07
290.175	4.05
290.546	4.22
290.918	4.19
291.289	4.13
291.661	4.2
292.032	4.33
292.403	4.36
292.775	4.53
293.146	4.62
293.517	4.68
293.889	4.73
294.26	4.86
294.631	4.95
295.002	5.03
295.373	5.01
295.744	5.09
296.115	5.12
296.486	5.27
296.857	5.37
297.228	5.43
297.599	5.28
297.97	5.41
298.34	5.43
298.711	5.55
299.082	5.7
299.452	5.65
299.823	5.81
300.194	5.86
300.564	5.91
300.935	6.06
301.305	6.04
301.676	6.1
302.046	6.23
302.416	6.24
302.787	6.38
303.157	6.62
303.527	6.61
303.897	6.79
304.267	6.8
304.637	6.94
305.008	7.02
305.378	7.25
305.748	7.14
306.117	7.27
306.487	7.45
306.857	7.54
307.227	7.73
307.597	7.74
307.967	7.86
308.336	8.01
308.706	8.14
309.076	8.31
309.445	8.57
309.815	8.61
310.184	8.81
310.554	8.98
310.923	8.9
311.293	8.96
311.662	9.11
312.031	9.19
312.401	9.33
312.77	9.35
313.139	9.39
313.508	9.51
313.877	9.64
314.246	9.76
314.616	9.94
314.985	10.07
315.353	10.25
315.722	10.25
316.091	10.31
316.46	10.38
316.829	10.41
317.198	10.43
317.567	10.68
317.935	10.74
318.304	10.77
318.672	11.03
319.041	11.31
319.41	11.05
319.778	11.2
320.147	11.28
320.515	11.43
320.883	11.33
321.252	11.67
321.62	11.72
321.988	11.78
322.357	11.96
322.725	12.01
323.093	12.13
323.461	12.24
323.829	12.34
324.197	12.43
324.565	12.54
324.933	12.54
325.301	12.46
325.669	12.45
326.037	12.49
326.405	12.31
326.772	12.28
327.14	12.45
327.508	12.47
327.875	12.48
328.243	12.36
328.61	12.5
328.978	12.37
329.346	12.45
329.713	12.5
330.08	12.43
330.448	12.41
330.815	12.42
331.182	12.46
331.55	12.51
331.917	12.41
332.284	12.51
332.651	12.59
333.018	12.62
333.385	12.8
333.752	12.85
334.119	13.03
334.486	13.05
334.853	13.12
335.22	12.9
335.587	12.93
335.954	13.12
336.32	13.21
336.687	13.4
337.054	13.3
337.42	13.31
337.787	13.35
338.153	13.45
338.52	13.47
338.886	13.57
339.253	13.56
339.619	13.69
339.986	13.72
340.352	13.77
340.718	13.81
341.084	13.75
341.451	13.91
341.817	14.02
342.183	14.02
342.549	14.07
342.915	14.29
343.281	14.26
343.647	14.29
344.013	14.24
344.379	14.23
344.745	14.44
345.11	14.45
345.476	14.57
345.842	14.57
346.208	14.61
346.573	14.58
346.939	14.58
347.304	14.54
347.67	14.51
348.035	14.46
348.401	14.35
348.766	14.43
349.132	14.3
349.497	14.26
349.862	14.29
350.228	14.25
350.593	14.19
350.958	14.22
351.323	14.17
351.688	14.17
352.053	14.13
352.418	13.93
352.783	13.86
353.148	13.76
353.513	13.68
353.878	13.55
354.243	13.54
354.608	13.54
354.972	13.52
355.337	13.43
355.702	13.4
356.066	13.39
356.431	13.23
356.795	13.27
357.16	13.17
357.524	13.09
357.889	13.13
358.253	13.06
358.618	13.03
358.982	13.04
359.346	12.97
359.71	12.91
360.075	12.96
360.439	13
360.803	12.97
361.167	12.92
361.531	12.95
361.895	12.83
362.259	12.76
362.623	12.7
362.987	12.74
363.351	12.68
363.714	12.65
364.078	12.69
364.442	12.58
364.806	12.56
365.169	12.55
365.533	12.47
365.896	12.48
366.26	12.37
366.623	12.27
366.987	12.16
367.35	12.07
367.714	11.94
368.077	11.77
368.44	11.67
368.803	11.54
369.167	11.39
369.53	11.37
369.893	11.37
370.256	11.26
370.619	11.09
370.982	11.03
371.345	10.96
371.708	10.8
372.071	10.7
372.434	10.58
372.797	10.48
373.159	10.36
373.522	10.26
373.885	10.23
374.247	10.07
374.61	10.05
374.973	9.96
375.335	9.9
375.698	9.77
376.06	9.66
376.423	9.66
376.785	9.63
377.147	9.56
377.51	9.4
377.872	9.37
378.234	9.33
378.596	9.21
378.958	9.1
379.321	9.05
379.683	8.99
380.045	8.9
380.407	8.83
380.769	8.66
381.13	8.56
381.492	8.43
381.854	8.39
382.216	8.36
382.578	8.3
382.939	8.19
383.301	8.16
383.663	8.08
384.024	7.98
384.386	7.86
384.747	7.76
385.109	7.66
385.47	7.62
385.832	7.52
386.193	7.5
386.554	7.41
386.916	7.3
387.277	7.2
387.638	7.18
387.999	7.04
388.36	7.04
388.721	6.98
389.082	6.96
389.443	6.87
389.804	6.79
390.165	6.71
390.526	6.65
390.887	6.58
391.248	6.52
391.609	6.46
391.969	6.45
392.33	6.38
392.691	6.35
393.051	6.23
393.412	6.2
393.772	6.12
394.133	6.06
394.493	6.02
394.854	5.98
395.214	5.9
395.574	5.87
395.935	5.83
396.295	5.8
396.655	5.75
397.015	5.72
397.376	5.66
397.736	5.61
398.096	5.55
398.456	5.5
398.816	5.47
399.176	5.42
399.535	5.36
399.895	5.33
400.255	5.3
400.615	5.28
400.975	5.22
401.334	5.21
401.694	5.2
402.054	5.18
402.413	5.12
402.773	5.04
403.132	5.04
403.492	4.99
403.851	4.95
404.211	4.9
404.57	4.87
404.929	4.8
405.288	4.77
405.648	4.79
406.007	4.78
406.366	4.76
406.725	4.74
407.084	4.71
407.443	4.73
407.802	4.68
408.161	4.65
408.52	4.61
408.879	4.57
409.238	4.54
409.596	4.54
409.955	4.56
410.314	4.59
410.673	4.56
411.031	4.55
411.39	4.51
411.748	4.48
412.107	4.47
412.465	4.47
412.824	4.44
413.182	4.38
413.54	4.39
413.899	4.37
414.257	4.36
414.615	4.35
414.974	4.34
415.332	4.32
415.69	4.29
416.048	4.28
416.406	4.26
416.764	4.25
417.122	4.2
417.48	4.17
417.838	4.14
418.195	4.12
418.553	4.08
418.911	4.06
419.269	4.04
419.626	4.01
419.984	3.98
420.342	3.96
420.699	3.96
421.057	3.91
421.414	3.89
421.772	3.86
422.129	3.82
422.486	3.78
422.844	3.75
423.201	3.72
423.558	3.7
423.915	3.68
424.273	3.65
424.63	3.62
424.987	3.59
425.344	3.58
425.701	3.55
426.058	3.53
426.415	3.5
426.772	3.49
427.128	3.48
427.485	3.47
427.842	3.45
428.199	3.43
428.555	3.42
428.912	3.38
429.269	3.37
429.625	3.37
429.982	3.39
430.338	3.4
430.695	3.42
431.051	3.41
431.407	3.41
431.764	3.42
432.12	3.44
432.476	3.45
432.832	3.44
433.189	3.43
433.545	3.45
433.901	3.44
434.257	3.43
434.613	3.43
434.969	3.42
435.325	3.43
435.681	3.4
436.036	3.39
436.392	3.41
436.748	3.41
437.104	3.4
437.459	3.39
437.815	3.38
438.171	3.37
438.526	3.38
438.882	3.37
439.237	3.36
439.593	3.35
439.948	3.33
440.304	3.32
440.659	3.32
441.014	3.32
441.369	3.33
441.725	3.33
442.08	3.32
442.435	3.32
442.79	3.33
443.145	3.34
443.5	3.34
443.855	3.33
444.21	3.31
444.565	3.31
444.92	3.31
445.275	3.3
445.629	3.3
445.984	3.29
446.339	3.3
446.693	3.3
447.048	3.27
447.403	3.27
447.757	3.27
448.112	3.27
448.466	3.26
448.82	3.25
449.175	3.24
449.529	3.24
449.883	3.22
450.238	3.21
450.592	3.2
450.946	3.2
451.3	3.19
451.654	3.18
452.008	3.15
452.362	3.14
452.716	3.14
453.07	3.13
453.424	3.11
453.778	3.09
454.132	3.07
454.486	3.08
454.839	3.07
455.193	3.07
455.547	3.07
455.9	3.08
456.254	3.08
456.607	3.07
456.961	3.05
457.314	3.05
457.668	3.04
458.021	3.06
458.375	3.04
458.728	3.05
459.081	3.07
459.434	3.06
459.787	3.06
460.141	3.05
460.494	3.06
460.847	3.08
461.2	3.08
461.553	3.09
461.906	3.1
462.259	3.1
462.611	3.12
462.964	3.14
463.317	3.14
463.67	3.15
464.022	3.16
464.375	3.18
464.728	3.21
465.08	3.23
465.433	3.22
465.785	3.23
466.138	3.25
466.49	3.26
466.843	3.31
467.195	3.32
467.547	3.35
467.899	3.35
468.252	3.35
468.604	3.36
468.956	3.38
469.308	3.39
469.66	3.4
470.012	3.4
470.364	3.38
470.716	3.43
471.068	3.44
471.42	3.46
471.772	3.46
472.123	3.48
472.475	3.48
472.827	3.48
473.178	3.52
473.53	3.51
473.882	3.51
474.233	3.49
474.585	3.5
474.936	3.5
475.288	3.51
475.639	3.52
475.99	3.53
476.342	3.54
476.693	3.54
477.044	3.52
477.395	3.5
477.746	3.51
478.097	3.47
478.448	3.46
478.8	3.45
479.15	3.46
479.501	3.44
479.852	3.43
480.203	3.43
480.554	3.43
480.905	3.43
481.255	3.43
481.606	3.44
481.957	3.45
482.307	3.44
482.658	3.43
483.009	3.43
483.359	3.43
483.709	3.42
484.06	3.42
484.41	3.42
484.761	3.43
485.111	3.43
485.461	3.44
485.811	3.44
486.162	3.44
486.512	3.43
486.862	3.44
487.212	3.44
487.562	3.44
487.912	3.43
488.262	3.43
488.612	3.42
488.961	3.42
489.311	3.42
489.661	3.43
490.011	3.42
490.36	3.43
490.71	3.43
491.06	3.43
491.409	3.43
491.759	3.43
492.108	3.42
492.458	3.42
492.807	3.43
493.157	3.44
493.506	3.45
493.855	3.47
494.204	3.48
494.554	3.51
494.903	3.53
495.252	3.55
495.601	3.57
495.95	3.59
496.299	3.61
496.648	3.64
496.997	3.66
497.346	3.71
497.695	3.73
498.043	3.78
498.392	3.82
498.741	3.86
499.09	3.91
499.438	3.97
499.787	4.01
500.135	4.03
500.484	4.06
500.832	4.09
501.181	4.14
501.529	4.2
501.878	4.24
502.226	4.31
502.574	4.38
502.923	4.44
503.271	4.52
503.619	4.58
503.967	4.62
504.315	4.69
504.663	4.75
505.011	4.84
505.359	4.89
505.707	4.96
506.055	5.04
506.403	5.11
506.751	5.17
507.098	5.24
507.446	5.34
507.794	5.42
508.141	5.5
508.489	5.59
508.837	5.66
509.184	5.74
509.531	5.8
509.879	5.87
510.226	5.94
510.574	6.02
510.921	6.1
511.268	6.19
511.616	6.32
511.963	6.41
512.31	6.5
512.657	6.64
513.004	6.74
513.351	6.86
513.698	6.98
514.045	7.1
514.392	7.23
514.739	7.35
515.086	7.47
515.432	7.62
515.779	7.73
516.126	7.88
516.473	8.02
516.819	8.15
517.166	8.29
517.512	8.42
517.859	8.53
518.205	8.64
518.552	8.76
518.898	8.85
519.245	8.98
519.591	9.07
519.937	9.17
520.283	9.29
520.629	9.44
520.976	9.58
521.322	9.73
521.668	9.86
522.014	10.01
522.36	10.15
522.706	10.31
523.052	10.47
523.398	10.62
523.743	10.81
524.089	11.01
524.435	11.17
524.781	11.34
525.126	11.51
525.472	11.67
525.817	11.81
526.163	11.94
526.509	12.06
526.854	12.19
527.199	12.31
527.545	12.41
527.89	12.5
528.235	12.61
528.581	12.71
528.926	12.83
529.271	12.93
529.616	13.05
529.961	13.16
530.306	13.28
530.651	13.41
530.996	13.52
531.341	13.65
531.686	13.78
532.031	13.89
532.376	14.03
532.721	14.15
533.065	14.3
533.41	14.43
533.755	14.59
534.099	14.74
534.444	14.89
534.788	15.03
535.133	15.19
535.477	15.34
535.822	15.49
536.166	15.65
536.51	15.87
536.855	16.06
537.199	16.27
537.543	16.48
537.887	16.67
538.231	16.87
538.576	17.09
538.92	17.32
539.264	17.54
539.608	17.71
539.951	17.88
540.295	18.07
540.639	18.27
540.983	18.43
541.327	18.6
541.671	18.77
542.014	18.98
542.358	19.14
542.701	19.3
543.045	19.48
543.389	19.67
543.732	19.83
544.075	20.01
544.419	20.19
544.762	20.36
545.105	20.57
545.449	20.77
545.792	20.99
546.135	21.21
546.478	21.44
546.821	21.68
547.165	21.97
547.508	22.2
547.851	22.45
548.194	22.71
548.536	22.96
548.879	23.22
549.222	23.45
549.565	23.72
549.908	24.01
550.25	24.25
550.593	24.52
550.936	24.78
551.278	25.09
551.621	25.34
551.963	25.63
552.306	25.93
552.648	26.23
552.991	26.48
553.333	26.75
553.675	27.05
554.017	27.34
554.36	27.62
554.702	27.87
555.044	28.09
555.386	28.36
555.728	28.66
556.07	28.91
556.412	29.24
556.754	29.47
557.096	29.72
557.438	30.03
557.78	30.33
558.121	30.62
558.463	30.86
558.805	31.17
559.147	31.48
559.488	31.75
559.83	32
560.171	32.29
560.513	32.57
560.854	32.81
561.196	33.05
561.537	33.28
561.878	33.58
562.22	33.91
562.561	34.15
562.902	34.36
563.243	34.62
563.584	34.82
563.925	35.08
564.266	35.34
564.607	35.61
564.948	35.87
565.289	36.1
565.63	36.39
565.971	36.6
566.312	36.79
566.653	37.01
566.993	37.24
567.334	37.46
567.675	37.64
568.015	37.85
568.356	38.1
568.696	38.3
569.037	38.54
569.377	38.74
569.718	38.97
570.058	39.2
570.398	39.4
570.739	39.58
571.079	39.8
571.419	39.99
571.759	40.13
572.099	40.29
572.439	40.48
572.779	40.62
573.119	40.8
573.459	41.01
573.799	41.19
574.139	41.39
574.479	41.54
574.819	41.76
575.158	41.98
575.498	42.16
575.838	42.33
576.177	42.47
576.517	42.72
576.856	42.92
577.196	43.13
577.535	43.32
577.875	43.54
578.214	43.75
578.553	43.97
578.893	44.21
579.232	44.34
579.571	44.54
579.91	44.74
580.25	44.96
580.589	45.13
580.928	45.3
581.267	45.49
581.606	45.71
581.945	45.85
582.283	45.95
582.622	46.06
582.961	46.25
583.3	46.45
583.639	46.49
583.977	46.58
584.316	46.68
584.654	46.82
584.993	46.98
585.332	47.13
585.67	47.37
586.008	47.47
586.347	47.68
586.685	47.74
587.024	47.92
587.362	48
587.7	48.07
588.038	48.23
588.376	48.32
588.715	48.34
589.053	48.44
589.391	48.62
589.729	48.76
590.067	48.86
590.404	48.98
590.742	49.09
591.08	49.27
591.418	49.38
591.756	49.57
592.093	49.61
592.431	49.68
592.769	49.7
593.106	49.8
593.444	49.87
593.781	50.02
594.119	50.05
594.456	50.14
594.793	50.28
595.131	50.33
595.468	50.4
595.805	50.51
596.143	50.54
596.48	50.65
596.817	50.76
597.154	50.81
597.491	50.81
597.828	50.89
598.165	50.92
598.502	51.09
598.839	51.12
599.176	51.2
599.512	51.26
599.849	51.31
600.186	51.41
600.523	51.43
600.859	51.46
601.196	51.47
601.532	51.52
601.869	51.54
602.205	51.62
602.542	51.69
602.878	51.81
603.215	51.9
603.551	51.87
603.887	51.88
604.223	51.92
604.56	52.01
604.896	52.06
605.232	52.07
605.568	52.01
605.904	52.03
606.24	52.14
606.576	52.23
606.912	52.27
607.248	52.36
607.583	52.47
607.919	52.51
608.255	52.64
608.591	52.81
608.926	52.9
609.262	52.95
609.597	53
609.933	53.03
610.268	53.09
610.604	53.23
610.939	53.28
611.275	53.36
611.61	53.46
611.945	53.46
612.281	53.53
612.616	53.67
612.951	53.77
613.286	53.8
613.621	53.85
613.956	53.91
614.291	53.94
614.626	53.96
614.961	54.08
615.296	54.06
615.631	54.05
615.966	54.15
616.3	54.21
616.635	54.24
616.97	54.27
617.304	54.32
617.639	54.3
617.973	54.36
618.308	54.47
618.642	54.48
618.977	54.52
619.311	54.56
619.646	54.65
619.98	54.66
620.314	54.65
620.648	54.72
620.983	54.78
621.317	54.78
621.651	54.85
621.985	54.83
622.319	54.9
622.653	54.96
622.987	54.89
623.321	54.84
623.655	54.87
623.988	54.93
624.322	54.84
624.656	54.81
624.99	54.8
625.323	54.76
625.657	54.71
625.99	54.75
626.324	54.76
626.657	54.69
626.991	54.68
627.324	54.72
627.658	54.69
627.991	54.69
628.324	54.7
628.657	54.67
628.991	54.66
629.324	54.67
629.657	54.57
629.99	54.61
630.323	54.69
630.656	54.65
630.989	54.59
631.322	54.67
631.655	54.78
631.987	54.81
632.32	54.81
632.653	54.83
632.986	54.83
633.318	54.86
633.651	54.89
633.984	54.98
634.316	54.94
634.649	54.97
634.981	55.09
635.313	55.15
635.646	55.21
635.978	55.29
636.31	55.34
636.643	55.4
636.975	55.39
637.307	55.5
637.639	55.55
637.971	55.68
638.303	55.66
638.635	55.74
638.967	55.83
639.299	55.9
639.631	55.92
639.963	55.97
640.295	56.05
640.626	56.05
640.958	56.02
641.29	56.13
641.621	56.13
641.953	56.07
642.285	56.06
642.616	56.02
642.948	56.11
643.279	56.15
643.61	56.21
643.942	56.29
644.273	56.24
644.604	56.36
644.936	56.39
645.267	56.44
645.598	56.34
645.929	56.28
646.26	56.28
646.591	56.25
646.922	56.3
647.253	56.27
647.584	56.34
647.915	56.37
648.245	56.37
648.576	56.44
648.907	56.44
649.238	56.45
649.568	56.65
649.899	56.62
650.229	56.53
650.56	56.54
650.89	56.54
651.221	56.54
651.551	56.52
651.882	56.38
652.212	56.43
652.542	56.41
652.872	56.5
653.203	56.56
653.533	56.54
653.863	56.42
654.193	56.3
654.523	56.25
654.853	56.13
655.183	55.97
655.513	55.95
655.843	55.97
656.172	55.92
656.502	55.86
656.832	55.8
657.162	55.82
657.491	55.84
657.821	55.82
658.15	55.79
658.48	55.78
658.809	55.86
659.139	55.82
659.468	55.85
659.798	55.8
660.127	55.78
660.456	55.83
660.785	55.84
661.115	55.91
661.444	55.93
661.773	56.08
662.102	56.3
662.431	56.35
662.76	56.32
663.089	56.37
663.418	56.36
663.747	56.45
664.076	56.4
664.404	56.46
664.733	56.55
665.062	56.61
665.39	56.71
665.719	56.69
666.048	56.67
666.376	56.71
666.705	56.69
667.033	56.71
667.362	56.68
667.69	56.86
668.018	56.85
668.347	56.84
668.675	56.9
669.003	56.94
669.331	56.92
669.659	57.01
669.987	56.95
670.315	56.91
670.643	56.88
670.971	56.98
671.299	57.1
671.627	57.1
671.955	57.17
672.283	57.04
672.61	57.15
672.938	57.22
673.266	57.21
673.593	57.3
673.921	57.17
674.249	57.25
674.576	57.18
674.904	57.28
675.231	57.23
675.558	57.04
675.886	56.94
676.213	56.84
676.54	56.63
676.867	56.85
677.195	56.87
677.522	56.85
677.849	56.76
678.176	56.58
678.503	56.47
678.83	56.47
679.157	56.41
679.484	56.33
679.81	56.24
680.137	56.25
680.464	56.21
680.791	56.2
681.117	56.26
681.444	56.34
681.771	56.31
682.097	56.37
682.424	56.39
682.75	56.25
683.077	56.21
683.403	56.19
683.729	56.02
684.056	55.85
684.382	55.91
684.708	55.78
685.034	55.81
685.36	55.89
685.686	55.66
686.012	55.64
686.339	55.47
686.664	55.57
686.99	55.46
687.316	55.4
687.642	55.47
687.968	55.43
688.294	55.34
688.619	55.24
688.945	55.18
689.271	55.22
689.596	55.35
689.922	55.54
690.247	55.68
690.573	55.62
690.898	55.81
691.224	55.7
691.549	55.76
691.874	55.65
692.2	55.6
692.525	55.78
692.85	55.9
693.175	56.05
693.5	55.87
693.825	55.95
694.15	55.94
694.475	56.07
694.8	56.02
695.125	56.04
695.45	56.06
695.775	56.02
696.099	56.05
696.424	56.02
696.749	55.87
697.073	55.94
697.398	56.07
697.723	56.19
698.047	56.28
698.372	56.29
698.696	56.34
699.02	56.21
699.345	56.18
699.669	56.1
699.993	56.04
700.318	56.12
700.642	55.97
700.966	55.97
701.29	55.79
701.614	55.82
701.938	55.81
702.262	56.03
702.586	56.12
702.91	56.11
703.234	56.11
703.557	56.03
703.881	56.02
704.205	55.99
704.529	55.78
704.852	55.77
705.176	55.83
705.499	55.98
705.823	56.13
706.146	56.11
706.47	56.12
706.793	56.31
707.117	56.42
707.44	56.7
707.763	56.73
708.086	56.77
708.409	56.69
708.733	56.69
709.056	56.51
709.379	56.42
709.702	56.5
710.025	56.64
710.348	56.66
710.671	56.63
710.993	56.44
711.316	56.51
711.639	56.52
711.962	56.58
712.284	56.42
712.607	56.31
712.93	56.38
713.252	56.54
713.575	56.44
713.897	56.32
714.22	56.31
714.542	56.39
714.864	56.31
715.187	56.25
715.509	56.19
715.831	56.21
716.153	56.17
716.475	55.98
716.798	55.87
717.12	55.89
717.442	55.79
717.764	55.87
718.085	55.82
718.407	55.77
718.729	55.7
719.051	55.86
719.373	55.93
719.695	55.94
720.016	55.91
720.338	55.96
720.659	56.01
720.981	55.89
721.302	55.95
721.624	56.06
721.945	56.19
722.267	56.23
722.588	56.31
722.909	56.42
723.231	56.3
723.552	56.36
723.873	56.6
724.194	56.6
724.515	56.76
724.836	56.66
725.157	56.5
725.478	56.46
725.799	56.38
726.12	56.62
726.441	56.63
726.762	56.57
727.083	56.42
727.403	56.28
727.724	56.49
728.045	56.42
728.365	56.33
728.686	56.28
729.006	56.22
729.327	56.09
729.647	55.85
729.967	55.83
730.288	55.73
730.608	55.51
730.928	55.56
731.249	55.43
731.569	55.59
731.889	55.69
732.209	55.93
732.529	55.78
732.849	55.52
733.169	55.34
733.489	55.25
733.809	55.38
734.129	55.67
734.448	55.52
734.768	55.34
735.088	55.29
735.408	55.3
735.727	55.5
736.047	55.47
736.366	55.58
736.686	55.87
737.005	56.1
737.325	56.04
737.644	56.04
737.963	56.03
738.283	55.88
738.602	55.87
738.921	55.6
739.24	55.55
739.56	55.55
739.879	55.53
740.198	55.66
740.517	55.74
740.836	55.61
741.155	55.59
741.473	55.89
741.792	56.01
742.111	56.27
742.43	56.1
742.748	56.21
743.067	56.33
743.386	56.05
743.704	55.9
744.023	56.12
744.341	56.06
744.66	55.9
744.978	56.07
745.297	56.32
745.615	56.31
745.933	56.12
746.252	56.07
746.57	56.06
746.888	56.12
747.206	55.94
747.524	55.78
747.842	55.71
748.16	55.63
748.478	55.77
748.796	55.4
749.114	55.33
749.432	55.5
749.749	55.28
750.067	55.34
750.385	55.23
750.703	55.14
751.02	55.24
751.338	55.4
751.655	55.21
751.973	54.81
752.29	54.63
752.608	55.04
752.925	55.16
753.242	55.36
753.56	55.12
753.877	55.13
754.194	55.09
754.511	54.96
754.828	54.63
755.145	54.57
755.462	54.59
755.779	54.49
756.096	53.93
756.413	54.13
756.73	54.37
757.047	54.34
757.364	54.54
757.68	54.32
757.997	54.43
758.314	54.29
758.63	54.28
758.947	54.31
759.264	54.2
759.58	54.23
759.896	53.87
760.213	54.01
760.529	53.57
760.846	53.57
761.162	53.75
761.478	53.98
761.794	54.1
762.11	54
762.426	53.9
762.743	54.2
763.059	54.04
763.375	53.96
763.69	54.05
764.006	54.15
764.322	54.4
764.638	54.23
764.954	54.42
765.27	54.64
765.585	54.53
765.901	54.55
766.216	54.15
766.532	54.3
766.848	54.12
767.163	54.37
767.478	54.25
767.794	54.24
768.109	54.23
768.424	54
768.74	53.87
769.055	54.17
769.37	54.07
769.685	54.06
770	53.99
770.315	54.06
770.63	54.12
770.945	53.93
771.26	54.05
771.575	53.83
771.89	53.79
772.205	54.25
772.52	54.14
772.834	54.57
773.149	54.47
773.464	54.86
773.778	55.06
774.093	55.22
774.407	55.17
774.722	55.13
775.036	54.97
775.351	54.93
775.665	54.85
775.979	54.99
776.293	54.99
776.608	55.18
776.922	54.55
777.236	53.58
777.55	53.53
777.864	53.73
778.178	53.79
778.492	53.68
778.806	53.64
779.12	53.45
779.434	53.47
779.747	53.64
780.061	53.29
780.375	53.26
780.689	53.16
781.002	53.33
781.316	53.29
781.629	53.7
781.943	53.9
782.256	54.04
782.57	54.05
782.883	54.14
783.196	53.99
783.51	55.23
783.823	55.86
784.136	55.73
784.449	55.68
784.762	55.84
785.075	55.44
785.388	55.42
785.701	55.78
786.014	55.8
786.327	55.75
786.64	55.66
786.953	55.08
787.266	55.28
787.578	55.01
787.891	54.75
788.204	54.4
788.516	54.75
788.829	54.32
789.141	54.39
789.454	54.15
789.766	53.96
790.079	53.06
790.391	52.78
790.703	52.63
791.016	52.34
791.328	51.99
791.64	52.18
791.952	52.59
792.264	52.72
792.576	52.41
792.888	52.62
793.2	52.19
793.512	52.68
793.824	52.58
794.136	53
794.448	53.16
794.76	53.38
795.071	53.05
795.383	53.09
795.695	52.86
796.006	53.07
796.318	52.94
796.629	53.1
796.941	53.36
797.252	53.66
797.564	54.2
797.875	54.28
798.186	54.19
798.497	53.73
798.809	53.72
799.12	53.93
799.431	53.61
799.742	54.43
800.053	54.23
800.364	54.11
800.675	54.01
800.986	54.58
801.297	54.56
801.608	54.65
801.918	54.86
802.229	54.75
802.54	54.93
802.851	55.15
803.161	55.4
803.472	55.69
803.782	56.52
804.093	55.46
804.403	56.21
804.714	56.36
805.024	56.28
805.334	56.05
805.645	56.4
805.955	56.25
806.265	56.65
806.575	57.09
806.885	57.63
807.195	57.08
807.505	57.03
807.815	57.17
808.125	57.16
808.435	57.41
808.745	57.65
809.055	57.73
809.365	57.91
809.674	57.54
809.984	57.1
810.294	56.32
810.603	56.87
810.913	56.01
811.222	56.4
811.532	56.26
811.841	56.38
812.151	55.89
812.46	55.82
812.769	55.24
813.079	55.54
813.388	55.01
813.697	54.83
814.006	54.27
814.315	54.36
814.624	54.37
814.933	53.8
815.242	53.58
815.551	53.45
815.86	53.31
816.169	54.03
816.478	53.87
816.786	54.06
817.095	54.23
817.404	54.96
817.712	55.01
818.021	55.7
818.33	55.35
818.638	54.8
818.947	54.74
819.255	54.66
819.563	54.14
819.872	53.75
820.18	53.79
820.488	53.76
820.796	53.82
821.105	53.69
821.413	53.88
821.721	53.74
822.029	53.76
822.337	53.8
822.645	53.42
822.953	53.56
823.26	53.47
823.568	53.42
823.876	53.23
824.184	53.15
824.491	52.99
824.799	52.91
825.107	53.08
825.414	53.13
825.722	53.01
826.029	52.96
826.337	53.3
826.644	53.46
826.951	53.42
827.259	53.45
827.566	53.43
827.873	53.06
828.18	53.03
828.488	52.95
828.795	52.88
829.102	53.18
829.409	52.61
829.716	52.58
830.023	52.61
830.329	52.74
830.636	52.66
830.943	52.23
831.25	52.4
831.557	52.39
831.863	52.46
832.17	52.35
832.476	52.47
832.783	51.97
833.089	51.52
833.396	51.6
833.702	51
834.009	51.18
834.315	51.36
834.621	51.44
834.928	51.07
835.234	50.71
835.54	50.47
835.846	51.28
836.152	51.48
836.458	51.83
836.764	51.52
837.07	51.57
837.376	52.16
837.682	52.05
837.988	51.94
838.293	51.77
838.599	52.3
838.905	52.57
839.211	52.75
839.516	53.77
839.822	54.14
840.127	55.05
840.433	55.17
840.738	55.69
841.044	55.7
841.349	57.62
841.654	59.08
841.959	58.37
842.265	58.76
842.57	57.98
842.875	56.34
843.18	56.9
843.485	56.51
843.79	55.78
844.095	56.1
844.4	55.96
844.705	56.59
845.01	56.37
845.315	56.07
845.619	57.22
845.924	55.91
846.229	54.73
846.533	54.04
846.838	53.4
847.142	52.92
847.447	53.09
847.751	51.09
848.056	50.57
848.36	51.82
848.664	50.31
848.969	50.21
849.273	50.89
849.577	50.37
849.881	50.88
850.185	50.65
850.489	49.69
850.794	49.85
851.097	49.69
851.401	48.41
851.705	48.26
852.009	47.4
852.313	47.04
852.617	47.04
852.92	47.62
853.224	49.3
853.528	49.01
853.831	50.08
854.135	49.86
854.438	51.66
854.742	50.93
855.045	50.58
855.349	50.28
855.652	49.34
855.955	49.46
856.259	48.64
856.562	49.06
856.865	50.49
857.168	49.79
857.471	49.37
857.774	50.59
858.077	50.15
858.38	49.12
858.683	49.77
858.986	49.34
859.289	48.5
859.592	46.66
859.894	45.32
860.197	45.49
860.5	45.05
860.802	43.2
861.105	44.26
861.407	45.74
861.71	46.38
862.012	48.19
862.315	47.71
862.617	48.31
862.919	50.21
863.222	48.98
863.524	48.65
863.826	46.02
864.128	46.76
864.43	48.41
864.732	47.61
865.034	48.4
865.336	47.89
865.638	47.88
865.94	50.49
866.242	52
866.544	50.22
866.846	52.43
867.147	52.68
867.449	52.99
867.751	50.6
868.052	48.65
868.354	47.53
868.655	46.82
868.957	47.71
869.258	48.56
869.56	48.47
869.861	50.78
870.162	54.12
870.463	53.42
870.765	53.27
871.066	53.14
871.367	51.18
871.668	51.8
871.969	51.13
872.27	48.12
872.571	49.96
872.872	52.16
873.173	50.08
873.473	48.56
873.774	46.07
874.075	48.73
874.376	52.21
874.676	56.24
874.977	56.7
875.277	56.23
875.578	53.04
875.878	53.82
876.179	53.08
876.479	52.06
876.78	51.57
877.08	50.48
877.38	51.3
877.68	51.88
877.981	53.33
878.281	53.58
878.581	55.88
