Data from BU57653_Reflection_00010.txt Node
Date: Mon Nov 18 16:52:17 EST 2019
User: vgr7
Spectrometer: USB2G7710
Scans to average: 3
Trigger mode: 4
Integration Time (sec): 2.000000E-2
Electric dark correction enabled: true
Boxcar width: 10
XAxis mode: Wavelengths
Number of Pixels in Spectrum: 2048
>>>>>Begin Spectral Data<<<<<
177.721	18.72
178.105	-12.3
178.488	-26.67
178.871	-29.5
179.254	11.28
179.636	71.79
180.019	45.5
180.402	246.67
180.785	77.68
181.168	123.2
181.55	79.14
181.933	128.47
182.316	152.88
182.698	110.01
183.081	115.64
183.463	373.76
183.846	100
184.228	-100.29
184.611	-79.53
184.993	-201
185.376	383.46
185.758	-384.47
186.14	-152.1
186.522	49.07
186.904	55.98
187.287	75.78
187.669	95.62
188.051	68.3
188.433	64.34
188.815	55.59
189.197	54.05
189.579	61.95
189.961	60.02
190.342	26.5
190.724	37.77
191.106	41.05
191.488	40.73
191.869	42.37
192.251	11.23
192.633	23.1
193.014	13.97
193.396	-12.54
193.777	-19.97
194.159	-15.42
194.54	-1.69
194.922	-22.01
195.303	-14.43
195.684	-20.79
196.065	16.25
196.447	25.81
196.828	1.81
197.209	15.54
197.59	-8.12
197.971	-7.23
198.352	5.18
198.733	-0.52
199.114	1.85
199.495	-5.72
199.876	-9.32
200.257	-18.01
200.638	-16.09
201.018	-3.64
201.399	1.59
201.78	22.36
202.16	30.68
202.541	12.58
202.922	13.34
203.302	3.98
203.683	10.2
204.063	-14.12
204.444	-9.74
204.824	17.27
205.204	11.73
205.585	63.83
205.965	116.05
206.345	132.37
206.725	175.39
207.106	810.06
207.486	3181.08
207.866	-171.57
208.246	-744.11
208.626	846.89
209.006	197.74
209.386	181.27
209.766	194.16
210.145	105.71
210.525	83.57
210.905	57.82
211.285	77.57
211.664	87.11
212.044	119.18
212.424	97.86
212.803	106.62
213.183	87.85
213.562	77.85
213.942	68.56
214.321	56.34
214.701	42.42
215.08	40.9
215.459	66.25
215.838	52.7
216.218	63.67
216.597	65.95
216.976	49.02
217.355	74.4
217.734	71.22
218.113	69.05
218.492	87.55
218.871	108.87
219.25	83.51
219.629	65.76
220.008	55.35
220.387	63.83
220.766	49.43
221.144	47.12
221.523	42.92
221.902	43.06
222.28	49.46
222.659	47.06
223.037	40.4
223.416	29.57
223.794	26.57
224.173	24.6
224.551	22.76
224.929	18.99
225.308	11.21
225.686	11.07
226.064	14.79
226.442	11.8
226.821	14.67
227.199	14.45
227.577	15.08
227.955	15.01
228.333	12.97
228.711	14.44
229.089	16.84
229.467	14.58
229.845	13.02
230.222	12.77
230.6	12.25
230.978	16.14
231.356	17.28
231.733	19.22
232.111	18.17
232.488	17.53
232.866	17.84
233.243	16.22
233.621	15.64
233.998	15.54
234.376	15.31
234.753	14
235.13	14.44
235.508	15.02
235.885	13.64
236.262	13.18
236.639	12.18
237.016	11.76
237.393	11.56
237.77	11.39
238.147	10.26
238.524	9.71
238.901	8.53
239.278	7.64
239.655	7.4
240.032	7.14
240.409	6.96
240.785	6.81
241.162	7.35
241.539	7.45
241.915	7.15
242.292	6.92
242.668	6.63
243.045	6.36
243.421	6.32
243.798	6.23
244.174	6.1
244.551	5.87
244.927	5.48
245.303	5.54
245.679	5.48
246.056	5.3
246.432	5.26
246.808	5.35
247.184	5.02
247.56	5.09
247.936	4.96
248.312	4.79
248.688	4.96
249.064	4.8
249.44	4.64
249.815	4.5
250.191	4.8
250.567	4.94
250.943	4.96
251.318	4.76
251.694	4.72
252.069	4.69
252.445	4.95
252.82	5.26
253.196	5.26
253.571	5.2
253.947	5.45
254.322	5.73
254.697	5.58
255.073	5.68
255.448	5.37
255.823	5.61
256.198	5.8
256.573	5.48
256.948	5.5
257.323	5.42
257.698	5.33
258.073	5.22
258.448	5.18
258.823	5.1
259.198	4.93
259.573	4.85
259.948	4.79
260.322	4.7
260.697	4.62
261.072	4.66
261.446	4.58
261.821	4.58
262.195	4.53
262.57	4.41
262.944	4.45
263.319	4.53
263.693	4.38
264.067	4.34
264.442	4.36
264.816	4.16
265.19	4.19
265.564	4.28
265.938	4.15
266.313	4.13
266.687	4.12
267.061	4.21
267.435	4.18
267.809	4.33
268.183	4.37
268.556	4.3
268.93	4.13
269.304	4.14
269.678	4.27
270.051	4.2
270.425	4.34
270.799	4.27
271.172	4.07
271.546	4
271.919	3.93
272.293	4.04
272.666	4.19
273.04	4.14
273.413	4.14
273.787	4.14
274.16	4.12
274.533	4
274.906	4.03
275.279	4.12
275.653	4.03
276.026	4.12
276.399	4.16
276.772	4.25
277.145	4.18
277.518	4
277.891	4
278.263	3.94
278.636	3.97
279.009	4.11
279.382	4.35
279.755	4.38
280.127	4.34
280.5	4.41
280.872	4.37
281.245	4.35
281.617	4.35
281.99	4.41
282.362	4.54
282.735	4.52
283.107	4.55
283.479	4.62
283.852	4.54
284.224	4.58
284.596	4.61
284.968	4.75
285.34	4.81
285.713	4.86
286.085	4.91
286.457	5
286.829	5.07
287.201	5.1
287.572	5.06
287.944	5.08
288.316	5.08
288.688	5.15
289.06	5.22
289.431	5.23
289.803	5.28
290.175	5.3
290.546	5.47
290.918	5.43
291.289	5.48
291.661	5.63
292.032	5.54
292.403	5.62
292.775	5.8
293.146	5.92
293.517	5.92
293.889	6.04
294.26	6.19
294.631	6.21
295.002	6.23
295.373	6.31
295.744	6.39
296.115	6.4
296.486	6.39
296.857	6.45
297.228	6.5
297.599	6.52
297.97	6.62
298.34	6.56
298.711	6.65
299.082	6.67
299.452	6.69
299.823	7.05
300.194	7.2
300.564	7.17
300.935	7.26
301.305	7.35
301.676	7.32
302.046	7.4
302.416	7.55
302.787	7.55
303.157	7.74
303.527	7.78
303.897	7.84
304.267	8.16
304.637	8.31
305.008	8.45
305.378	8.65
305.748	8.75
306.117	8.9
306.487	9.16
306.857	9.3
307.227	9.42
307.597	9.39
307.967	9.33
308.336	9.4
308.706	9.56
309.076	9.75
309.445	9.86
309.815	9.96
310.184	9.96
310.554	10.25
310.923	10.27
311.293	10.37
311.662	10.53
312.031	10.61
312.401	10.59
312.77	10.67
313.139	10.73
313.508	10.88
313.877	10.93
314.246	10.92
314.616	11.03
314.985	11.14
315.353	11.2
315.722	11.44
316.091	11.63
316.46	11.62
316.829	11.67
317.198	11.85
317.567	11.83
317.935	11.97
318.304	11.85
318.672	12.02
319.041	12.32
319.41	12.3
319.778	12.28
320.147	12.56
320.515	12.72
320.883	12.9
321.252	13.09
321.62	13.23
321.988	13.37
322.357	13.58
322.725	13.74
323.093	13.85
323.461	13.94
323.829	14.1
324.197	14.12
324.565	14.17
324.933	14.26
325.301	14.44
325.669	14.44
326.037	14.69
326.405	14.72
326.772	14.68
327.14	14.97
327.508	15.12
327.875	15.1
328.243	15.29
328.61	15.41
328.978	15.4
329.346	15.67
329.713	15.69
330.08	15.64
330.448	15.67
330.815	15.54
331.182	15.63
331.55	15.55
331.917	15.71
332.284	15.93
332.651	15.98
333.018	16.03
333.385	16.14
333.752	16.22
334.119	16.38
334.486	16.35
334.853	16.33
335.22	16.38
335.587	16.68
335.954	16.68
336.32	16.5
336.687	16.54
337.054	16.55
337.42	16.62
337.787	16.73
338.153	16.75
338.52	16.9
338.886	16.83
339.253	16.78
339.619	16.77
339.986	16.83
340.352	16.85
340.718	16.76
341.084	16.69
341.451	16.57
341.817	16.6
342.183	16.6
342.549	16.53
342.915	16.45
343.281	16.3
343.647	16.19
344.013	16.28
344.379	16.4
344.745	16.37
345.11	16.42
345.476	16.42
345.842	16.44
346.208	16.49
346.573	16.59
346.939	16.68
347.304	16.75
347.67	16.63
348.035	16.72
348.401	16.78
348.766	16.84
349.132	16.89
349.497	16.84
349.862	16.93
350.228	17.01
350.593	16.98
350.958	17.05
351.323	17.13
351.688	17.07
352.053	16.93
352.418	16.93
352.783	16.89
353.148	16.76
353.513	16.73
353.878	16.75
354.243	16.71
354.608	16.67
354.972	16.57
355.337	16.55
355.702	16.51
356.066	16.56
356.431	16.51
356.795	16.48
357.16	16.49
357.524	16.44
357.889	16.28
358.253	16.24
358.618	16.07
358.982	15.95
359.346	15.9
359.71	15.82
360.075	15.75
360.439	15.71
360.803	15.7
361.167	15.61
361.531	15.54
361.895	15.44
362.259	15.37
362.623	15.32
362.987	15.25
363.351	15.17
363.714	15.05
364.078	15.02
364.442	14.87
364.806	14.75
365.169	14.6
365.533	14.55
365.896	14.46
366.26	14.39
366.623	14.35
366.987	14.29
367.35	14.19
367.714	14.02
368.077	13.9
368.44	13.83
368.803	13.73
369.167	13.58
369.53	13.46
369.893	13.4
370.256	13.28
370.619	13.13
370.982	12.93
371.345	12.81
371.708	12.63
372.071	12.52
372.434	12.38
372.797	12.31
373.159	12.21
373.522	12.18
373.885	12.09
374.247	11.96
374.61	11.87
374.973	11.75
375.335	11.68
375.698	11.59
376.06	11.41
376.423	11.29
376.785	11.22
377.147	11.09
377.51	10.96
377.872	10.9
378.234	10.86
378.596	10.79
378.958	10.7
379.321	10.61
379.683	10.58
380.045	10.5
380.407	10.41
380.769	10.3
381.13	10.16
381.492	10.04
381.854	9.93
382.216	9.79
382.578	9.7
382.939	9.59
383.301	9.44
383.663	9.35
384.024	9.25
384.386	9.17
384.747	9.09
385.109	9.03
385.47	8.92
385.832	8.8
386.193	8.73
386.554	8.64
386.916	8.58
387.277	8.49
387.638	8.42
387.999	8.35
388.36	8.28
388.721	8.18
389.082	8.14
389.443	8.03
389.804	7.97
390.165	7.88
390.526	7.83
390.887	7.77
391.248	7.72
391.609	7.71
391.969	7.65
392.33	7.61
392.691	7.52
393.051	7.46
393.412	7.43
393.772	7.32
394.133	7.26
394.493	7.22
394.854	7.14
395.214	7.03
395.574	6.95
395.935	6.87
396.295	6.84
396.655	6.73
397.015	6.7
397.376	6.63
397.736	6.59
398.096	6.51
398.456	6.46
398.816	6.42
399.176	6.33
399.535	6.23
399.895	6.17
400.255	6.13
400.615	6.06
400.975	5.97
401.334	5.97
401.694	5.91
402.054	5.88
402.413	5.85
402.773	5.84
403.132	5.79
403.492	5.77
403.851	5.73
404.211	5.76
404.57	5.74
404.929	5.7
405.288	5.65
405.648	5.63
406.007	5.61
406.366	5.57
406.725	5.57
407.084	5.58
407.443	5.54
407.802	5.51
408.161	5.47
408.52	5.46
408.879	5.44
409.238	5.42
409.596	5.38
409.955	5.33
410.314	5.33
410.673	5.3
411.031	5.3
411.39	5.23
411.748	5.16
412.107	5.12
412.465	5.11
412.824	5.07
413.182	5.04
413.54	5
413.899	4.96
414.257	4.92
414.615	4.91
414.974	4.9
415.332	4.85
415.69	4.85
416.048	4.8
416.406	4.73
416.764	4.7
417.122	4.66
417.48	4.63
417.838	4.61
418.195	4.59
418.553	4.55
418.911	4.55
419.269	4.54
419.626	4.53
419.984	4.5
420.342	4.51
420.699	4.48
421.057	4.48
421.414	4.45
421.772	4.43
422.129	4.38
422.486	4.35
422.844	4.34
423.201	4.31
423.558	4.31
423.915	4.31
424.273	4.3
424.63	4.29
424.987	4.29
425.344	4.27
425.701	4.25
426.058	4.25
426.415	4.22
426.772	4.21
427.128	4.18
427.485	4.18
427.842	4.14
428.199	4.13
428.555	4.09
428.912	4.11
429.269	4.1
429.625	4.09
429.982	4.07
430.338	4.04
430.695	4.02
431.051	4.01
431.407	3.99
431.764	3.99
432.12	3.97
432.476	3.96
432.832	3.95
433.189	3.96
433.545	3.94
433.901	3.94
434.257	3.93
434.613	3.94
434.969	3.93
435.325	3.96
435.681	3.96
436.036	3.98
436.392	3.97
436.748	3.95
437.104	3.95
437.459	3.97
437.815	3.99
438.171	4
438.526	4.01
438.882	4.01
439.237	4.02
439.593	4.03
439.948	4.03
440.304	4.02
440.659	4.02
441.014	4.02
441.369	4.01
441.725	3.99
442.08	3.98
442.435	3.97
442.79	3.94
443.145	3.94
443.5	3.93
443.855	3.91
444.21	3.91
444.565	3.9
444.92	3.91
445.275	3.89
445.629	3.89
445.984	3.88
446.339	3.87
446.693	3.85
447.048	3.83
447.403	3.82
447.757	3.81
448.112	3.78
448.466	3.77
448.82	3.77
449.175	3.77
449.529	3.76
449.883	3.76
450.238	3.76
450.592	3.74
450.946	3.71
451.3	3.7
451.654	3.69
452.008	3.69
452.362	3.66
452.716	3.63
453.07	3.62
453.424	3.6
453.778	3.59
454.132	3.58
454.486	3.57
454.839	3.55
455.193	3.56
455.547	3.56
455.9	3.55
456.254	3.55
456.607	3.55
456.961	3.54
457.314	3.51
457.668	3.53
458.021	3.52
458.375	3.54
458.728	3.55
459.081	3.56
459.434	3.57
459.787	3.58
460.141	3.6
460.494	3.6
460.847	3.62
461.2	3.64
461.553	3.65
461.906	3.68
462.259	3.71
462.611	3.71
462.964	3.73
463.317	3.77
463.67	3.8
464.022	3.82
464.375	3.83
464.728	3.87
465.08	3.88
465.433	3.9
465.785	3.92
466.138	3.93
466.49	3.93
466.843	3.94
467.195	3.96
467.547	3.97
467.899	3.99
468.252	3.99
468.604	4.02
468.956	4.02
469.308	4.02
469.66	4.03
470.012	4.05
470.364	4.06
470.716	4.05
471.068	4.05
471.42	4.05
471.772	4.09
472.123	4.11
472.475	4.13
472.827	4.15
473.178	4.14
473.53	4.13
473.882	4.15
474.233	4.17
474.585	4.16
474.936	4.16
475.288	4.17
475.639	4.18
475.99	4.14
476.342	4.15
476.693	4.13
477.044	4.12
477.395	4.11
477.746	4.12
478.097	4.12
478.448	4.11
478.8	4.12
479.15	4.09
479.501	4.06
479.852	4.05
480.203	4.04
480.554	4.04
480.905	4.05
481.255	4.04
481.606	4.03
481.957	4.02
482.307	4.02
482.658	4.01
483.009	4.02
483.359	4.02
483.709	4.02
484.06	4.02
484.41	4.02
484.761	4.03
485.111	4.02
485.461	4.01
485.811	4.02
486.162	4
486.512	4
486.862	4.01
487.212	4.02
487.562	4.02
487.912	4.02
488.262	4.02
488.612	4.03
488.961	4.03
489.311	4.04
489.661	4.04
490.011	4.04
490.36	4.03
490.71	4.03
491.06	4.03
491.409	4.04
491.759	4.05
492.108	4.06
492.458	4.09
492.807	4.1
493.157	4.13
493.506	4.16
493.855	4.19
494.204	4.2
494.554	4.2
494.903	4.21
495.252	4.24
495.601	4.29
495.95	4.32
496.299	4.34
496.648	4.38
496.997	4.44
497.346	4.51
497.695	4.55
498.043	4.61
498.392	4.68
498.741	4.73
499.09	4.76
499.438	4.81
499.787	4.85
500.135	4.9
500.484	4.95
500.832	5.01
501.181	5.07
501.529	5.13
501.878	5.24
502.226	5.35
502.574	5.44
502.923	5.49
503.271	5.58
503.619	5.68
503.967	5.77
504.315	5.86
504.663	5.94
505.011	6.03
505.359	6.14
505.707	6.25
506.055	6.37
506.403	6.49
506.751	6.61
507.098	6.76
507.446	6.89
507.794	7.01
508.141	7.13
508.489	7.26
508.837	7.4
509.184	7.51
509.531	7.64
509.879	7.78
510.226	7.94
510.574	8.05
510.921	8.21
511.268	8.33
511.616	8.47
511.963	8.62
512.31	8.79
512.657	8.94
513.004	9.1
513.351	9.27
513.698	9.44
514.045	9.63
514.392	9.77
514.739	9.94
515.086	10.11
515.432	10.32
515.779	10.48
516.126	10.68
516.473	10.86
516.819	11.03
517.166	11.19
517.512	11.33
517.859	11.49
518.205	11.64
518.552	11.8
518.898	11.96
519.245	12.1
519.591	12.24
519.937	12.39
520.283	12.56
520.629	12.7
520.976	12.89
521.322	13.06
521.668	13.26
522.014	13.44
522.36	13.64
522.706	13.84
523.052	14.07
523.398	14.29
523.743	14.49
524.089	14.75
524.435	14.96
524.781	15.17
525.126	15.37
525.472	15.56
525.817	15.76
526.163	15.92
526.509	16.08
526.854	16.21
527.199	16.35
527.545	16.46
527.89	16.61
528.235	16.72
528.581	16.87
528.926	17.02
529.271	17.17
529.616	17.32
529.961	17.46
530.306	17.6
530.651	17.73
530.996	17.92
531.341	18.06
531.686	18.25
532.031	18.43
532.376	18.62
532.721	18.79
533.065	18.96
533.41	19.14
533.755	19.31
534.099	19.52
534.444	19.72
534.788	19.94
535.133	20.13
535.477	20.35
535.822	20.57
536.166	20.78
536.51	21.01
536.855	21.27
537.199	21.54
537.543	21.8
537.887	22.07
538.231	22.34
538.576	22.64
538.92	22.9
539.264	23.16
539.608	23.4
539.951	23.66
540.295	23.88
540.639	24.1
540.983	24.34
541.327	24.53
541.671	24.76
542.014	24.96
542.358	25.18
542.701	25.39
543.045	25.57
543.389	25.81
543.732	26.05
544.075	26.29
544.419	26.5
544.762	26.76
545.105	27.04
545.449	27.3
545.792	27.51
546.135	27.8
546.478	28.09
546.821	28.41
547.165	28.68
547.508	29.05
547.851	29.41
548.194	29.73
548.536	30.15
548.879	30.47
549.222	30.85
549.565	31.21
549.908	31.52
550.25	31.9
550.593	32.24
550.936	32.59
551.278	32.94
551.621	33.32
551.963	33.68
552.306	34.02
552.648	34.34
552.991	34.7
553.333	35.06
553.675	35.38
554.017	35.67
554.36	36.01
554.702	36.31
555.044	36.64
555.386	37
555.728	37.28
556.07	37.64
556.412	37.96
556.754	38.3
557.096	38.68
557.438	39.07
557.78	39.36
558.121	39.69
558.463	40.01
558.805	40.35
559.147	40.6
559.488	40.91
559.83	41.23
560.171	41.57
560.513	41.85
560.854	42.22
561.196	42.6
561.537	42.93
561.878	43.26
562.22	43.62
562.561	43.86
562.902	44.2
563.243	44.5
563.584	44.82
563.925	45.13
564.266	45.4
564.607	45.67
564.948	45.97
565.289	46.28
565.63	46.55
565.971	46.76
566.312	47.1
566.653	47.39
566.993	47.64
567.334	47.92
567.675	48.22
568.015	48.48
568.356	48.76
568.696	49.03
569.037	49.27
569.377	49.44
569.718	49.74
570.058	49.99
570.398	50.21
570.739	50.43
571.079	50.67
571.419	50.97
571.759	51.22
572.099	51.41
572.439	51.67
572.779	51.94
573.119	52.22
573.459	52.43
573.799	52.67
574.139	52.95
574.479	53.19
574.819	53.33
575.158	53.55
575.498	53.66
575.838	53.85
576.177	54.12
576.517	54.37
576.856	54.62
577.196	54.86
577.535	55.15
577.875	55.41
578.214	55.62
578.553	55.82
578.893	55.95
579.232	56.21
579.571	56.33
579.91	56.47
580.25	56.68
580.589	56.9
580.928	57.07
581.267	57.2
581.606	57.34
581.945	57.56
582.283	57.7
582.622	57.94
582.961	58.16
583.3	58.3
583.639	58.46
583.977	58.63
584.316	58.75
584.654	58.87
584.993	59.02
585.332	59.12
585.67	59.31
586.008	59.52
586.347	59.67
586.685	59.91
587.024	60.15
587.362	60.2
587.7	60.41
588.038	60.51
588.376	60.65
588.715	60.68
589.053	60.82
589.391	60.95
589.729	61.11
590.067	61.26
590.404	61.32
590.742	61.47
591.08	61.56
591.418	61.68
591.756	61.76
592.093	61.8
592.431	61.95
592.769	62.02
593.106	62.13
593.444	62.22
593.781	62.28
594.119	62.29
594.456	62.44
594.793	62.49
595.131	62.58
595.468	62.71
595.805	62.91
596.143	63.03
596.48	63.14
596.817	63.2
597.154	63.19
597.491	63.35
597.828	63.37
598.165	63.41
598.502	63.5
598.839	63.67
599.176	63.84
599.512	63.9
599.849	64.05
600.186	64.13
600.523	64.3
600.859	64.34
601.196	64.53
601.532	64.52
601.869	64.55
602.205	64.63
602.542	64.65
602.878	64.73
603.215	64.78
603.551	64.79
603.887	64.83
604.223	64.96
604.56	64.99
604.896	65.07
605.232	65.16
605.568	65.2
605.904	65.17
606.24	65.21
606.576	65.23
606.912	65.18
607.248	65.19
607.583	65.23
607.919	65.33
608.255	65.29
608.591	65.46
608.926	65.51
609.262	65.57
609.597	65.69
609.933	65.71
610.268	65.73
610.604	65.85
610.939	65.88
611.275	65.95
611.61	65.99
611.945	66.03
612.281	66.11
612.616	66.14
612.951	66.24
613.286	66.33
613.621	66.43
613.956	66.56
614.291	66.62
614.626	66.66
614.961	66.65
615.296	66.62
615.631	66.64
615.966	66.69
616.3	66.77
616.635	66.73
616.97	66.76
617.304	66.83
617.639	66.81
617.973	66.95
618.308	66.88
618.642	66.84
618.977	66.92
619.311	66.95
619.646	66.91
619.98	66.9
620.314	66.9
620.648	66.96
620.983	66.98
621.317	67.14
621.651	67.12
621.985	67.22
622.319	67.3
622.653	67.3
622.987	67.35
623.321	67.33
623.655	67.33
623.988	67.42
624.322	67.51
624.656	67.59
624.99	67.5
625.323	67.5
625.657	67.6
625.99	67.67
626.324	67.62
626.657	67.66
626.991	67.66
627.324	67.66
627.658	67.73
627.991	67.77
628.324	67.69
628.657	67.65
628.991	67.64
629.324	67.67
629.657	67.63
629.99	67.6
630.323	67.69
630.656	67.81
630.989	67.84
631.322	67.85
631.655	67.86
631.987	67.92
632.32	67.97
632.653	68.04
632.986	67.94
633.318	68.02
633.651	68.16
633.984	68.18
634.316	68.24
634.649	68.23
634.981	68.25
635.313	68.25
635.646	68.37
635.978	68.42
636.31	68.44
636.643	68.55
636.975	68.68
637.307	68.67
637.639	68.61
637.971	68.53
638.303	68.5
638.635	68.49
638.967	68.58
639.299	68.58
639.631	68.51
639.963	68.59
640.295	68.65
640.626	68.6
640.958	68.62
641.29	68.67
641.621	68.61
641.953	68.65
642.285	68.8
642.616	68.8
642.948	68.79
643.279	68.91
643.61	68.83
643.942	68.71
644.273	68.72
644.604	68.69
644.936	68.61
645.267	68.54
645.598	68.56
645.929	68.49
646.26	68.55
646.591	68.69
646.922	68.66
647.253	68.68
647.584	68.81
647.915	68.78
648.245	68.75
648.576	68.84
648.907	68.76
649.238	68.65
649.568	68.64
649.899	68.64
650.229	68.69
650.56	68.76
650.89	68.78
651.221	68.86
651.551	69.02
651.882	69.12
652.212	69.17
652.542	69.22
652.872	69.26
653.203	69.29
653.533	69.25
653.863	69.35
654.193	69.32
654.523	69.19
654.853	69.34
655.183	69.34
655.513	69.3
655.843	69.41
656.172	69.61
656.502	69.61
656.832	69.6
657.162	69.63
657.491	69.7
657.821	69.85
658.15	69.91
658.48	69.78
658.809	69.95
659.139	69.89
659.468	69.86
659.798	69.87
660.127	69.77
660.456	69.81
660.785	69.79
661.115	69.71
661.444	69.72
661.773	69.67
662.102	69.76
662.431	69.74
662.76	69.73
663.089	69.6
663.418	69.63
663.747	69.58
664.076	69.31
664.404	69.33
664.733	69.33
665.062	69.2
665.39	69.21
665.719	69.06
666.048	69.18
666.376	69.18
666.705	69.21
667.033	69.27
667.362	69.16
667.69	69.28
668.018	69.32
668.347	69.45
668.675	69.5
669.003	69.39
669.331	69.32
669.659	69.18
669.987	69.07
670.315	69.16
670.643	69.25
670.971	69.39
671.299	69.47
671.627	69.46
671.955	69.46
672.283	69.43
672.61	69.42
672.938	69.4
673.266	69.54
673.593	69.5
673.921	69.53
674.249	69.59
674.576	69.45
674.904	69.49
675.231	69.51
675.558	69.46
675.886	69.65
676.213	69.78
676.54	69.92
676.867	70.04
677.195	70.14
677.522	70.22
677.849	70.41
678.176	70.42
678.503	70.33
678.83	70.4
679.157	70.4
679.484	70.33
679.81	70.28
680.137	70.29
680.464	70.31
680.791	70.37
681.117	70.3
681.444	70.44
681.771	70.52
682.097	70.45
682.424	70.4
682.75	70.2
683.077	70.2
683.403	70.34
683.729	70.36
684.056	70.25
684.382	70.16
684.708	70.12
685.034	69.99
685.36	69.99
685.686	70
686.012	70.09
686.339	70.22
686.664	70.33
686.99	70.03
687.316	70.06
687.642	70.06
687.968	70.08
688.294	69.99
688.619	69.92
688.945	69.73
689.271	69.72
689.596	69.69
689.922	69.64
690.247	69.41
690.573	69.43
690.898	69.26
691.224	69.36
691.549	69.29
691.874	69.28
692.2	69.42
692.525	69.46
692.85	69.44
693.175	69.44
693.5	69.35
693.825	69.56
694.15	69.53
694.475	69.45
694.8	69.38
695.125	69.35
695.45	69.45
695.775	69.62
696.099	69.73
696.424	69.82
696.749	69.68
697.073	69.7
697.398	69.65
697.723	69.73
698.047	69.66
698.372	69.61
698.696	69.59
699.02	69.52
699.345	69.43
699.669	69.39
699.993	69.36
700.318	69.41
700.642	69.35
700.966	69.39
701.29	69.36
701.614	69.42
701.938	69.35
702.262	69.23
702.586	69.27
702.91	69.25
703.234	69.15
703.557	69.22
703.881	69.11
704.205	69.05
704.529	69.08
704.852	69.06
705.176	69.04
705.499	69.09
705.823	68.99
706.146	69.09
706.47	69.16
706.793	69.15
707.117	69.28
707.44	69.32
707.763	69.21
708.086	69.43
708.409	69.33
708.733	69.33
709.056	69.28
709.379	69.43
709.702	69.36
710.025	69.37
710.348	69.59
710.671	69.74
710.993	69.96
711.316	70.03
711.639	70.07
711.962	70.08
712.284	70.16
712.607	70.34
712.93	70.29
713.252	70.19
713.575	70.22
713.897	70.15
714.22	70.17
714.542	70.29
714.864	70.33
715.187	70.4
715.509	70.43
715.831	70.5
716.153	70.33
716.475	70.22
716.798	70.55
717.12	70.53
717.442	70.33
717.764	70.16
718.085	69.97
718.407	70.11
718.729	70.18
719.051	69.82
719.373	69.69
719.695	69.7
720.016	69.83
720.338	69.83
720.659	69.64
720.981	69.57
721.302	69.45
721.624	69.35
721.945	69.36
722.267	69.47
722.588	69.34
722.909	69.39
723.231	69.61
723.552	69.19
723.873	69.1
724.194	69.37
724.515	69.39
724.836	69.5
725.157	69.43
725.478	69.29
725.799	69.51
726.12	69.52
726.441	69.57
726.762	69.44
727.083	69.32
727.403	69.3
727.724	69.25
728.045	69.48
728.365	69.47
728.686	69.5
729.006	69.36
729.327	69.44
729.647	69.31
729.967	69.25
730.288	69.5
730.608	69.54
730.928	69.73
731.249	69.92
731.569	70.05
731.889	70.02
732.209	69.92
732.529	69.89
732.849	69.98
733.169	69.83
733.489	69.95
733.809	69.92
734.129	70.01
734.448	70.21
734.768	69.89
735.088	69.82
735.408	69.93
735.727	69.88
736.047	70.11
736.366	70.11
736.686	70.14
737.005	69.97
737.325	70.08
737.644	69.83
737.963	69.73
738.283	69.49
738.602	69.16
738.921	69.57
739.24	69.75
739.56	69.31
739.879	69.35
740.198	69.08
740.517	69.02
740.836	69.02
741.155	69.05
741.473	69.25
741.792	69.37
742.111	69.09
742.43	69.21
742.748	69.15
743.067	69.26
743.386	69.21
743.704	69.04
744.023	68.82
744.341	68.77
744.66	68.48
744.978	68.81
745.297	69.14
745.615	68.96
745.933	68.93
746.252	69.13
746.57	69.26
746.888	69.62
747.206	69.9
747.524	70.04
747.842	69.87
748.16	69.77
748.478	69.75
748.796	70.25
749.114	70.38
749.432	70.06
749.749	69.83
750.067	69.84
750.385	70.08
750.703	70.23
751.02	70.21
751.338	70.31
751.655	69.84
751.973	69.95
752.29	69.82
752.608	69.52
752.925	69.79
753.242	69.82
753.56	69.69
753.877	69.56
754.194	69.45
754.511	69.45
754.828	69.59
755.145	69.14
755.462	68.58
755.779	68.28
756.096	68.54
756.413	68.64
756.73	68.81
757.047	68.77
757.364	68.95
757.68	68.88
757.997	69.15
758.314	69.23
758.63	68.96
758.947	68.82
759.264	69.3
759.58	69.12
759.896	69.22
760.213	69.28
760.529	69.35
760.846	69.31
761.162	69.28
761.478	69.22
761.794	69.53
762.11	70.29
762.426	70.32
762.743	70.26
763.059	70.2
763.375	70.36
763.69	70.48
764.006	70.34
764.322	70.54
764.638	70.58
764.954	70.76
765.27	70.84
765.585	71.13
765.901	70.87
766.216	70.86
766.532	70.8
766.848	70.78
767.163	70.55
767.478	70.84
767.794	70.84
768.109	70.92
768.424	70.9
768.74	70.26
769.055	70.55
769.37	70.64
769.685	70.74
770	70.48
770.315	70.35
770.63	70.5
770.945	70.44
771.26	70.45
771.575	70.54
771.89	70.58
772.205	70.59
772.52	70.74
772.834	70.73
773.149	70.86
773.464	70.94
773.778	71.51
774.093	71.22
774.407	71.15
774.722	70.78
775.036	70.87
775.351	71
775.665	71.08
775.979	71.3
776.293	71.39
776.608	71.35
776.922	71.31
777.236	70.88
777.55	70.95
777.864	70.79
778.178	70.57
778.492	70.58
778.806	70.31
779.12	70.26
779.434	70.66
779.747	70.72
780.061	70.68
780.375	70.83
780.689	70.7
781.002	71.22
781.316	71.96
781.629	72.19
781.943	72.54
782.256	72.61
782.57	72.19
782.883	72.12
783.196	72.17
783.51	72.19
783.823	72.79
784.136	72.98
784.449	72.98
784.762	73
785.075	73.06
785.388	73.75
785.701	73.75
786.014	73.84
786.327	73.31
786.64	73.3
786.953	73.22
787.266	73.53
787.578	73.52
787.891	72.98
788.204	72.82
788.516	72.66
788.829	72.12
789.141	72.84
789.454	73.34
789.766	73.12
790.079	73.17
790.391	72.32
790.703	72.29
791.016	72.14
791.328	72.24
791.64	72.04
791.952	71.59
792.264	71.37
792.576	70.48
792.888	70.3
793.2	70.3
793.512	69.78
793.824	69.17
794.136	69.01
794.448	69.16
794.76	68.87
795.071	68.63
795.383	69.26
795.695	68.07
796.006	67.78
796.318	67.7
796.629	67.74
796.941	68.41
797.252	68.57
797.564	68.71
797.875	68.85
798.186	69.68
798.497	70.27
798.809	70.05
799.12	70.45
799.431	70.78
799.742	70.85
800.053	70.99
800.364	71.86
800.675	72.17
800.986	72.42
801.297	72.7
801.608	73.16
801.918	73.49
802.229	74.17
802.54	74.06
802.851	74.37
803.161	74.45
803.472	74.61
803.782	74.56
804.093	74.67
804.403	75.02
804.714	74.06
805.024	72.89
805.334	72.75
805.645	72.92
805.955	72.89
806.265	72.81
806.575	73.22
806.885	72.86
807.195	72.46
807.505	71.78
807.815	71.98
808.125	71.39
808.435	70.87
808.745	70.98
809.055	70.98
809.365	71.54
809.674	71.41
809.984	71.32
810.294	71.28
810.603	71.18
810.913	70.09
811.222	70.3
811.532	70.16
811.841	70.81
812.151	70.78
812.46	70.99
812.769	70.63
813.079	70.4
813.388	70.58
813.697	70.98
814.006	71.02
814.315	70.33
814.624	70.48
814.933	70.32
815.242	70.07
815.551	70.46
815.86	69.45
816.169	69.45
816.478	69.36
816.786	68.06
817.095	68.91
817.404	69.21
817.712	69.85
818.021	70.83
818.33	71
818.638	70.99
818.947	70.6
819.255	70.8
819.563	70.68
819.872	70.32
820.18	69.8
820.488	70.54
820.796	70.65
821.105	70.52
821.413	70.24
821.721	69.99
822.029	69.89
822.337	70.25
822.645	70.37
822.953	70.08
823.26	70.24
823.568	70.11
823.876	70.29
824.184	70.19
824.491	69.82
824.799	69.64
825.107	69.73
825.414	69.79
825.722	69.93
826.029	69.99
826.337	70.44
826.644	70.7
826.951	70.44
827.259	70.39
827.566	70.25
827.873	70.56
828.18	70.54
828.488	70.51
828.795	70.33
829.102	70.21
829.409	70.58
829.716	70.8
830.023	70.63
830.329	70.33
830.636	70.48
830.943	70.53
831.25	70.52
831.557	70.87
831.863	71.09
832.17	71.46
832.476	71.27
832.783	70.21
833.089	70.12
833.396	70.61
833.702	70.64
834.009	71.53
834.315	71.19
834.621	71.67
834.928	71.87
835.234	71.9
835.54	72.03
835.846	72.12
836.152	71.86
836.458	71.89
836.764	72.15
837.07	71.58
837.376	71.87
837.682	72.87
837.988	72.11
838.293	71.75
838.599	71.23
838.905	71.48
839.211	71.79
839.516	70.97
839.822	69.75
840.127	69.51
840.433	68.46
840.738	68.84
841.044	69.02
841.349	68.25
841.654	67.86
841.959	68.03
842.265	67.63
842.57	67.75
842.875	67.54
843.18	67.18
843.485	67.32
843.79	68.5
844.095	67.38
844.4	67.93
844.705	68.03
845.01	66.68
845.315	67.12
845.619	68.08
845.924	68.64
846.229	69.26
846.533	70.16
846.838	71.68
847.142	71.36
847.447	71.64
847.751	72.48
848.056	72.06
848.36	71.47
848.664	74.04
848.969	75.85
849.273	74.84
849.577	74.9
849.881	75.86
850.185	73.82
850.489	73.9
850.794	75.42
851.097	76.14
851.401	77.72
851.705	75.71
852.009	73.25
852.313	72.66
852.617	73.76
852.92	73.19
853.224	72.13
853.528	73.33
853.831	71.52
854.135	72.2
854.438	73.52
854.742	74.58
855.045	73.73
855.349	71.13
855.652	73.24
855.955	71.93
856.259	71.05
856.562	72.02
856.865	72.28
857.168	70.55
857.471	70.42
857.774	71.11
858.077	73.42
858.38	74.95
858.683	77.61
858.986	78.26
859.289	82.41
859.592	83.23
859.894	80.33
860.197	82.58
860.5	83.1
860.802	80.5
861.105	79.75
861.407	77.71
861.71	79.45
862.012	78.62
862.315	81.03
862.617	81.61
862.919	82.14
863.222	79.46
863.524	77.47
863.826	79.11
864.128	77.3
864.43	76.56
864.732	76.02
865.034	73.32
865.336	69.64
865.638	67.14
865.94	64.68
866.242	66.17
866.544	66.54
866.846	65.95
867.147	66.82
867.449	66.81
867.751	66.47
868.052	65.22
868.354	64.44
868.655	64.26
868.957	63.35
869.258	63.87
869.56	65.06
869.861	67.56
870.162	64.92
870.463	65.74
870.765	66.15
871.066	67.18
871.367	67.9
871.668	68.07
871.969	64.98
872.27	66.34
872.571	67.35
872.872	66.13
873.173	63.92
873.473	63.99
873.774	64.88
874.075	67.28
874.376	68.11
874.676	67.44
874.977	66.31
875.277	66.75
875.578	66.95
875.878	67.13
876.179	66.26
876.479	67.46
876.78	66.57
877.08	65.41
877.38	63.85
877.68	64.23
877.981	66.46
878.281	69.63
878.581	70.46
