Data from BU57649_Reflection_00003.txt Node
Date: Tue Nov 19 10:55:33 EST 2019
User: vgr7
Spectrometer: USB2G7710
Scans to average: 3
Trigger mode: 4
Integration Time (sec): 2.000000E-2
Electric dark correction enabled: true
Boxcar width: 10
XAxis mode: Wavelengths
Number of Pixels in Spectrum: 2048
>>>>>Begin Spectral Data<<<<<
177.721	-5.47
178.105	0.39
178.488	-1.21
178.871	5.71
179.254	15.83
179.636	39.15
180.019	-8.88
180.402	600
180.785	-729.41
181.168	-7400
181.55	-75.32
181.933	179.88
182.316	311.66
182.698	-132.52
183.081	-99.76
183.463	-33.57
183.846	1.26
184.228	-9.99
184.611	1.63
184.993	0.91
185.376	0.29
185.758	-2.63
186.14	-3.8
186.522	-6.03
186.904	-2.68
187.287	-7.45
187.669	-7.4
188.051	-21.11
188.433	-30.84
188.815	-42.13
189.197	-41.66
189.579	-40.35
189.961	-46.48
190.342	-43.46
190.724	-59.05
191.106	-50.89
191.488	-64.2
191.869	-67.64
192.251	-70.04
192.633	-79.85
193.014	-76.72
193.396	-93.57
193.777	-90.64
194.159	-84.18
194.54	-84.36
194.922	-81.85
195.303	-72.43
195.684	-65.16
196.065	-55.46
196.447	-34.34
196.828	-32.44
197.209	-39.84
197.59	-24.28
197.971	-23.32
198.352	-35.5
198.733	-41.16
199.114	-48.96
199.495	-47.96
199.876	-49.09
200.257	-44.88
200.638	-39.91
201.018	-44.76
201.399	-38.98
201.78	-45.04
202.16	-36.85
202.541	-36.44
202.922	-49.24
203.302	-61.19
203.683	-62.38
204.063	-58.73
204.444	-63.63
204.824	-52.5
205.204	-40.38
205.585	-38.23
205.965	-37.63
206.345	-26.81
206.725	-19.13
207.106	-17.44
207.486	-16.77
207.866	-16.21
208.246	-6.72
208.626	-9.04
209.006	-9.76
209.386	-16.85
209.766	-18.84
210.145	-17.31
210.525	-12.76
210.905	1.88
211.285	11.08
211.664	15.11
212.044	7.62
212.424	18.35
212.803	13.9
213.183	3.36
213.562	1.4
213.942	4.58
214.321	-1.54
214.701	-7.73
215.08	-5.13
215.459	-0.12
215.838	0.26
216.218	-16.94
216.597	-10.39
216.976	-17.6
217.355	-16.06
217.734	-24.58
218.113	-31.83
218.492	-34.03
218.871	-38.82
219.25	-37.46
219.629	-37.4
220.008	-20.37
220.387	-28.41
220.766	-24.22
221.144	-22.82
221.523	-32.69
221.902	-14.22
222.28	-5.79
222.659	10.5
223.037	6.73
223.416	6.66
223.794	13.68
224.173	12.37
224.551	9.29
224.929	10.53
225.308	13.62
225.686	17.5
226.064	17.01
226.442	15.79
226.821	11.5
227.199	7.72
227.577	4.09
227.955	3.02
228.333	1.17
228.711	0.49
229.089	0.02
229.467	0.87
229.845	-2.82
230.222	-4.49
230.6	-10.22
230.978	-7.15
231.356	-8.51
231.733	-9.76
232.111	-8.15
232.488	-7.91
232.866	-5.63
233.243	-6.59
233.621	-4.22
233.998	-3.69
234.376	-5.73
234.753	-3.75
235.13	-2.84
235.508	-2.18
235.885	-2.69
236.262	-2.15
236.639	-0.65
237.016	0.34
237.393	2.16
237.77	3.71
238.147	4.32
238.524	5.1
238.901	3.47
239.278	2.99
239.655	3.43
240.032	3.67
240.409	2.95
240.785	3.2
241.162	3.23
241.539	2.71
241.915	2.66
242.292	3.29
242.668	3.84
243.045	4.12
243.421	4.64
243.798	4.91
244.174	4.96
244.551	5.04
244.927	4.69
245.303	4.46
245.679	4.47
246.056	4.67
246.432	4.76
246.808	5.11
247.184	5.14
247.56	5.21
247.936	5.27
248.312	5.52
248.688	5.52
249.064	5.61
249.44	5.5
249.815	5.55
250.191	5.42
250.567	5.24
250.943	5.07
251.318	4.92
251.694	4.68
252.069	4.88
252.445	4.59
252.82	5.03
253.196	5.09
253.571	4.74
253.947	4.5
254.322	4.62
254.697	4.33
255.073	4.42
255.448	4.09
255.823	4.04
256.198	4.08
256.573	4
256.948	3.99
257.323	4.26
257.698	4.33
258.073	4.23
258.448	4.2
258.823	3.9
259.198	3.9
259.573	4.06
259.948	4.05
260.322	4.04
260.697	4
261.072	3.97
261.446	4.03
261.821	4.01
262.195	3.94
262.57	3.95
262.944	3.92
263.319	4.06
263.693	3.82
264.067	3.77
264.442	3.61
264.816	3.43
265.19	3.18
265.564	3.08
265.938	3.1
266.313	2.88
266.687	3.25
267.061	3.33
267.435	3.33
267.809	3.28
268.183	3.33
268.556	3.22
268.93	3.24
269.304	3.28
269.678	3.45
270.051	3.69
270.425	3.67
270.799	3.6
271.172	3.56
271.546	3.85
271.919	3.86
272.293	4.01
272.666	4.1
273.04	4.23
273.413	4.14
273.787	4.1
274.16	4.26
274.533	4.16
274.906	4.13
275.279	4.12
275.653	4.08
276.026	4.16
276.399	4.26
276.772	4.2
277.145	4.27
277.518	4.15
277.891	3.86
278.263	3.97
278.636	4.18
279.009	4.16
279.382	4.06
279.755	4.07
280.127	4.11
280.5	4.11
280.872	3.94
281.245	4.15
281.617	4.19
281.99	4.13
282.362	4.19
282.735	4.2
283.107	4.15
283.479	4.22
283.852	4.2
284.224	4.3
284.596	4.31
284.968	4.4
285.34	4.38
285.713	4.54
286.085	4.48
286.457	4.44
286.829	4.39
287.201	4.39
287.572	4.35
287.944	4.31
288.316	4.33
288.688	4.49
289.06	4.45
289.431	4.54
289.803	4.65
290.175	4.65
290.546	4.51
290.918	4.52
291.289	4.51
291.661	4.46
292.032	4.37
292.403	4.5
292.775	4.37
293.146	4.37
293.517	4.33
293.889	4.52
294.26	4.49
294.631	4.56
295.002	4.6
295.373	4.66
295.744	4.72
296.115	4.8
296.486	4.76
296.857	4.87
297.228	4.77
297.599	4.72
297.97	4.75
298.34	4.86
298.711	5.07
299.082	4.99
299.452	5.08
299.823	5.09
300.194	5.01
300.564	5.06
300.935	5.14
301.305	5.23
301.676	5.04
302.046	5.07
302.416	5.13
302.787	5.11
303.157	5.12
303.527	5.11
303.897	5.07
304.267	5.04
304.637	4.97
305.008	5.07
305.378	5.17
305.748	5.13
306.117	5.15
306.487	5.09
306.857	5.22
307.227	5.4
307.597	5.45
307.967	5.44
308.336	5.54
308.706	5.61
309.076	5.65
309.445	5.79
309.815	5.82
310.184	5.7
310.554	5.6
310.923	5.63
311.293	5.74
311.662	5.76
312.031	5.84
312.401	5.77
312.77	5.77
313.139	5.69
313.508	5.66
313.877	5.73
314.246	5.6
314.616	5.55
314.985	5.51
315.353	5.43
315.722	5.55
316.091	5.58
316.46	5.6
316.829	5.51
317.198	5.53
317.567	5.6
317.935	5.77
318.304	6.04
318.672	6.02
319.041	5.91
319.41	5.88
319.778	5.82
320.147	5.9
320.515	6.07
320.883	6.02
321.252	6.07
321.62	6.17
321.988	6.12
322.357	6.02
322.725	5.85
323.093	5.99
323.461	5.86
323.829	5.67
324.197	5.57
324.565	5.61
324.933	5.45
325.301	5.22
325.669	5.12
326.037	5.11
326.405	5.04
326.772	5.02
327.14	5.03
327.508	4.99
327.875	4.9
328.243	4.79
328.61	4.86
328.978	4.73
329.346	4.55
329.713	4.64
330.08	4.81
330.448	4.84
330.815	4.7
331.182	4.61
331.55	4.72
331.917	4.82
332.284	4.72
332.651	4.8
333.018	4.91
333.385	4.99
333.752	5
334.119	5.11
334.486	5.14
334.853	5.2
335.22	5.24
335.587	5.25
335.954	5.22
336.32	5.07
336.687	5.19
337.054	5.15
337.42	5.18
337.787	5.15
338.153	5.2
338.52	5.33
338.886	5.48
339.253	5.42
339.619	5.38
339.986	5.4
340.352	5.43
340.718	5.5
341.084	5.49
341.451	5.42
341.817	5.41
342.183	5.34
342.549	5.28
342.915	5.26
343.281	5.31
343.647	5.3
344.013	5.44
344.379	5.47
344.745	5.6
345.11	5.54
345.476	5.45
345.842	5.37
346.208	5.26
346.573	5.15
346.939	5.19
347.304	5.14
347.67	5.08
348.035	5.03
348.401	5.03
348.766	5.03
349.132	5.07
349.497	5.09
349.862	5.08
350.228	5.06
350.593	5.16
350.958	5.24
351.323	5.2
351.688	5.19
352.053	5.21
352.418	5.12
352.783	5.13
353.148	5.22
353.513	5.19
353.878	5.23
354.243	5.27
354.608	5.24
354.972	5.2
355.337	5.3
355.702	5.33
356.066	5.35
356.431	5.28
356.795	5.24
357.16	5.15
357.524	5.2
357.889	5.12
358.253	5.15
358.618	5.04
358.982	5.11
359.346	5.1
359.71	5.06
360.075	5.1
360.439	5.16
360.803	5.17
361.167	5.2
361.531	5.2
361.895	5.21
362.259	5.3
362.623	5.36
362.987	5.33
363.351	5.28
363.714	5.24
364.078	5.29
364.442	5.29
364.806	5.38
365.169	5.36
365.533	5.52
365.896	5.43
366.26	5.49
366.623	5.42
366.987	5.41
367.35	5.45
367.714	5.51
368.077	5.48
368.44	5.45
368.803	5.43
369.167	5.42
369.53	5.44
369.893	5.4
370.256	5.39
370.619	5.41
370.982	5.36
371.345	5.41
371.708	5.44
372.071	5.47
372.434	5.44
372.797	5.52
373.159	5.45
373.522	5.46
373.885	5.51
374.247	5.52
374.61	5.56
374.973	5.51
375.335	5.48
375.698	5.42
376.06	5.4
376.423	5.38
376.785	5.38
377.147	5.33
377.51	5.25
377.872	5.24
378.234	5.27
378.596	5.33
378.958	5.31
379.321	5.24
379.683	5.28
380.045	5.27
380.407	5.19
380.769	5.19
381.13	5.2
381.492	5.17
381.854	5.18
382.216	5.17
382.578	5.17
382.939	5.14
383.301	5.18
383.663	5.22
384.024	5.23
384.386	5.26
384.747	5.27
385.109	5.29
385.47	5.29
385.832	5.22
386.193	5.27
386.554	5.25
386.916	5.31
387.277	5.22
387.638	5.22
387.999	5.23
388.36	5.23
388.721	5.26
389.082	5.25
389.443	5.29
389.804	5.3
390.165	5.34
390.526	5.35
390.887	5.34
391.248	5.35
391.609	5.39
391.969	5.37
392.33	5.36
392.691	5.36
393.051	5.37
393.412	5.39
393.772	5.37
394.133	5.37
394.493	5.34
394.854	5.39
395.214	5.42
395.574	5.41
395.935	5.4
396.295	5.35
396.655	5.34
397.015	5.33
397.376	5.34
397.736	5.3
398.096	5.29
398.456	5.28
398.816	5.27
399.176	5.22
399.535	5.23
399.895	5.24
400.255	5.24
400.615	5.22
400.975	5.24
401.334	5.21
401.694	5.19
402.054	5.19
402.413	5.18
402.773	5.13
403.132	5.13
403.492	5.15
403.851	5.17
404.211	5.17
404.57	5.14
404.929	5.12
405.288	5.13
405.648	5.13
406.007	5.12
406.366	5.12
406.725	5.16
407.084	5.15
407.443	5.14
407.802	5.13
408.161	5.14
408.52	5.13
408.879	5.14
409.238	5.15
409.596	5.16
409.955	5.15
410.314	5.19
410.673	5.18
411.031	5.15
411.39	5.14
411.748	5.16
412.107	5.13
412.465	5.14
412.824	5.12
413.182	5.11
413.54	5.12
413.899	5.11
414.257	5.11
414.615	5.13
414.974	5.16
415.332	5.15
415.69	5.14
416.048	5.13
416.406	5.13
416.764	5.12
417.122	5.13
417.48	5.13
417.838	5.09
418.195	5.09
418.553	5.09
418.911	5.08
419.269	5.09
419.626	5.09
419.984	5.08
420.342	5.08
420.699	5.09
421.057	5.08
421.414	5.07
421.772	5.06
422.129	5.03
422.486	5.01
422.844	5
423.201	5.02
423.558	5
423.915	5
424.273	4.98
424.63	4.97
424.987	4.98
425.344	4.99
425.701	4.99
426.058	4.99
426.415	5.01
426.772	4.99
427.128	5
427.485	4.96
427.842	4.97
428.199	4.96
428.555	4.97
428.912	4.96
429.269	4.97
429.625	4.96
429.982	4.96
430.338	4.98
430.695	4.94
431.051	4.98
431.407	4.95
431.764	4.96
432.12	4.97
432.476	4.96
432.832	4.96
433.189	4.95
433.545	4.95
433.901	4.94
434.257	4.92
434.613	4.91
434.969	4.94
435.325	4.92
435.681	4.92
436.036	4.9
436.392	4.9
436.748	4.91
437.104	4.93
437.459	4.92
437.815	4.93
438.171	4.95
438.526	4.92
438.882	4.93
439.237	4.93
439.593	4.92
439.948	4.91
440.304	4.89
440.659	4.9
441.014	4.9
441.369	4.9
441.725	4.91
442.08	4.91
442.435	4.92
442.79	4.93
443.145	4.93
443.5	4.93
443.855	4.92
444.21	4.91
444.565	4.91
444.92	4.94
445.275	4.91
445.629	4.9
445.984	4.9
446.339	4.9
446.693	4.91
447.048	4.91
447.403	4.9
447.757	4.91
448.112	4.91
448.466	4.92
448.82	4.91
449.175	4.9
449.529	4.9
449.883	4.89
450.238	4.9
450.592	4.89
450.946	4.88
451.3	4.89
451.654	4.87
452.008	4.87
452.362	4.83
452.716	4.82
453.07	4.81
453.424	4.79
453.778	4.79
454.132	4.78
454.486	4.77
454.839	4.76
455.193	4.76
455.547	4.77
455.9	4.76
456.254	4.76
456.607	4.76
456.961	4.76
457.314	4.75
457.668	4.75
458.021	4.73
458.375	4.74
458.728	4.73
459.081	4.73
459.434	4.74
459.787	4.75
460.141	4.77
460.494	4.78
460.847	4.79
461.2	4.79
461.553	4.8
461.906	4.81
462.259	4.82
462.611	4.82
462.964	4.83
463.317	4.81
463.67	4.81
464.022	4.81
464.375	4.81
464.728	4.83
465.08	4.83
465.433	4.87
465.785	4.89
466.138	4.89
466.49	4.89
466.843	4.9
467.195	4.92
467.547	4.91
467.899	4.94
468.252	4.96
468.604	4.96
468.956	4.95
469.308	4.95
469.66	4.96
470.012	5
470.364	5.01
470.716	5.05
471.068	5.07
471.42	5.09
471.772	5.08
472.123	5.1
472.475	5.09
472.827	5.06
473.178	5.05
473.53	5.09
473.882	5.1
474.233	5.11
474.585	5.13
474.936	5.11
475.288	5.08
475.639	5.09
475.99	5.1
476.342	5.12
476.693	5.12
477.044	5.13
477.395	5.11
477.746	5.08
478.097	5.07
478.448	5.06
478.8	5.05
479.15	5.07
479.501	5.06
479.852	5.07
480.203	5.09
480.554	5.09
480.905	5.07
481.255	5.07
481.606	5.07
481.957	5.06
482.307	5.07
482.658	5.08
483.009	5.07
483.359	5.07
483.709	5.07
484.06	5.07
484.41	5.08
484.761	5.09
485.111	5.1
485.461	5.1
485.811	5.1
486.162	5.09
486.512	5.09
486.862	5.09
487.212	5.09
487.562	5.08
487.912	5.09
488.262	5.09
488.612	5.09
488.961	5.09
489.311	5.08
489.661	5.09
490.011	5.08
490.36	5.07
490.71	5.06
491.06	5.05
491.409	5.05
491.759	5.04
492.108	5.02
492.458	5.01
492.807	5.01
493.157	5.01
493.506	5.03
493.855	5.02
494.204	5.02
494.554	5.01
494.903	5.01
495.252	5
495.601	5
495.95	5
496.299	5
496.648	5.02
496.997	5.02
497.346	5.06
497.695	5.09
498.043	5.11
498.392	5.11
498.741	5.12
499.09	5.11
499.438	5.12
499.787	5.16
500.135	5.14
500.484	5.16
500.832	5.14
501.181	5.14
501.529	5.17
501.878	5.18
502.226	5.21
502.574	5.22
502.923	5.23
503.271	5.24
503.619	5.26
503.967	5.27
504.315	5.28
504.663	5.26
505.011	5.27
505.359	5.25
505.707	5.26
506.055	5.26
506.403	5.28
506.751	5.31
507.098	5.33
507.446	5.35
507.794	5.37
508.141	5.39
508.489	5.44
508.837	5.43
509.184	5.43
509.531	5.41
509.879	5.42
510.226	5.42
510.574	5.43
510.921	5.45
511.268	5.45
511.616	5.45
511.963	5.46
512.31	5.46
512.657	5.48
513.004	5.49
513.351	5.47
513.698	5.48
514.045	5.48
514.392	5.47
514.739	5.48
515.086	5.49
515.432	5.49
515.779	5.47
516.126	5.5
516.473	5.5
516.819	5.53
517.166	5.55
517.512	5.54
517.859	5.56
518.205	5.55
518.552	5.55
518.898	5.54
519.245	5.55
519.591	5.56
519.937	5.57
520.283	5.59
520.629	5.6
520.976	5.61
521.322	5.6
521.668	5.58
522.014	5.58
522.36	5.58
522.706	5.57
523.052	5.59
523.398	5.58
523.743	5.58
524.089	5.59
524.435	5.59
524.781	5.62
525.126	5.62
525.472	5.64
525.817	5.64
526.163	5.66
526.509	5.66
526.854	5.65
527.199	5.64
527.545	5.64
527.89	5.65
528.235	5.65
528.581	5.64
528.926	5.64
529.271	5.65
529.616	5.65
529.961	5.67
530.306	5.68
530.651	5.68
530.996	5.68
531.341	5.68
531.686	5.67
532.031	5.67
532.376	5.65
532.721	5.64
533.065	5.64
533.41	5.63
533.755	5.63
534.099	5.65
534.444	5.66
534.788	5.65
535.133	5.65
535.477	5.64
535.822	5.65
536.166	5.67
536.51	5.68
536.855	5.67
537.199	5.67
537.543	5.68
537.887	5.69
538.231	5.69
538.576	5.7
538.92	5.69
539.264	5.69
539.608	5.71
539.951	5.72
540.295	5.72
540.639	5.73
540.983	5.73
541.327	5.73
541.671	5.73
542.014	5.75
542.358	5.76
542.701	5.76
543.045	5.76
543.389	5.77
543.732	5.77
544.075	5.78
544.419	5.77
544.762	5.76
545.105	5.76
545.449	5.76
545.792	5.76
546.135	5.77
546.478	5.77
546.821	5.77
547.165	5.8
547.508	5.81
547.851	5.81
548.194	5.8
548.536	5.81
548.879	5.82
549.222	5.82
549.565	5.81
549.908	5.82
550.25	5.82
550.593	5.81
550.936	5.8
551.278	5.78
551.621	5.78
551.963	5.79
552.306	5.77
552.648	5.78
552.991	5.77
553.333	5.79
553.675	5.82
554.017	5.82
554.36	5.79
554.702	5.77
555.044	5.79
555.386	5.78
555.728	5.76
556.07	5.75
556.412	5.75
556.754	5.74
557.096	5.73
557.438	5.71
557.78	5.68
558.121	5.69
558.463	5.67
558.805	5.68
559.147	5.68
559.488	5.69
559.83	5.67
560.171	5.63
560.513	5.64
560.854	5.63
561.196	5.62
561.537	5.6
561.878	5.6
562.22	5.61
562.561	5.65
562.902	5.66
563.243	5.67
563.584	5.65
563.925	5.69
564.266	5.69
564.607	5.72
564.948	5.74
565.289	5.76
565.63	5.77
565.971	5.79
566.312	5.8
566.653	5.8
566.993	5.8
567.334	5.83
567.675	5.84
568.015	5.81
568.356	5.84
568.696	5.86
569.037	5.88
569.377	5.87
569.718	5.84
570.058	5.84
570.398	5.83
570.739	5.83
571.079	5.8
571.419	5.81
571.759	5.8
572.099	5.79
572.439	5.78
572.779	5.8
573.119	5.79
573.459	5.76
573.799	5.76
574.139	5.77
574.479	5.8
574.819	5.77
575.158	5.8
575.498	5.8
575.838	5.78
576.177	5.76
576.517	5.75
576.856	5.74
577.196	5.77
577.535	5.77
577.875	5.81
578.214	5.81
578.553	5.8
578.893	5.8
579.232	5.81
579.571	5.83
579.91	5.82
580.25	5.83
580.589	5.84
580.928	5.84
581.267	5.86
581.606	5.86
581.945	5.85
582.283	5.85
582.622	5.83
582.961	5.85
583.3	5.88
583.639	5.89
583.977	5.94
584.316	5.95
584.654	5.96
584.993	5.92
585.332	5.95
585.67	5.99
586.008	5.99
586.347	5.97
586.685	5.94
587.024	5.95
587.362	5.95
587.7	5.99
588.038	6.01
588.376	6.03
588.715	6.04
589.053	6.04
589.391	6.01
589.729	6.02
590.067	6.02
590.404	6
590.742	5.97
591.08	5.95
591.418	5.89
591.756	5.9
592.093	5.91
592.431	5.9
592.769	5.86
593.106	5.87
593.444	5.87
593.781	5.87
594.119	5.88
594.456	5.88
594.793	5.84
595.131	5.84
595.468	5.8
595.805	5.79
596.143	5.8
596.48	5.81
596.817	5.81
597.154	5.8
597.491	5.8
597.828	5.82
598.165	5.81
598.502	5.8
598.839	5.8
599.176	5.83
599.512	5.83
599.849	5.87
600.186	5.9
600.523	5.9
600.859	5.92
601.196	5.9
601.532	5.95
601.869	5.95
602.205	5.93
602.542	5.95
602.878	5.94
603.215	5.92
603.551	5.91
603.887	5.87
604.223	5.88
604.56	5.88
604.896	5.91
605.232	5.91
605.568	5.97
605.904	5.91
606.24	5.89
606.576	5.89
606.912	5.87
607.248	5.88
607.583	5.91
607.919	5.9
608.255	5.91
608.591	5.89
608.926	5.87
609.262	5.87
609.597	5.89
609.933	5.93
610.268	5.96
610.604	5.97
610.939	6.02
611.275	6.04
611.61	6.01
611.945	5.99
612.281	6.02
612.616	6
612.951	6.05
613.286	6.04
613.621	6.05
613.956	6.05
614.291	6.05
614.626	6.05
614.961	6.11
615.296	6.11
615.631	6.09
615.966	6.1
616.3	6.15
616.635	6.09
616.97	6.05
617.304	6.03
617.639	6.04
617.973	6.01
618.308	6
618.642	5.99
618.977	5.95
619.311	5.91
619.646	5.88
619.98	5.92
620.314	5.94
620.648	5.95
620.983	5.94
621.317	5.92
621.651	5.93
621.985	5.88
622.319	5.89
622.653	5.88
622.987	5.89
623.321	5.86
623.655	5.9
623.988	5.92
624.322	5.95
624.656	5.95
624.99	5.96
625.323	5.95
625.657	6.01
625.99	6.03
626.324	6.04
626.657	6.04
626.991	6.04
627.324	6.04
627.658	6.04
627.991	6.06
628.324	6.09
628.657	6.03
628.991	6.06
629.324	6.03
629.657	6.08
629.99	6.11
630.323	6.17
630.656	6.15
630.989	6.12
631.322	6.1
631.655	6.12
631.987	6.1
632.32	6.13
632.653	6.11
632.986	6.13
633.318	6.15
633.651	6.17
633.984	6.13
634.316	6.14
634.649	6.15
634.981	6.14
635.313	6.15
635.646	6.2
635.978	6.19
636.31	6.15
636.643	6.11
636.975	6.06
637.307	6.05
637.639	6.05
637.971	6.09
638.303	6.04
638.635	6.03
638.967	6.03
639.299	6.02
639.631	6
639.963	6.01
640.295	5.98
640.626	5.99
640.958	6.02
641.29	5.97
641.621	5.94
641.953	5.92
642.285	5.89
642.616	5.93
642.948	5.96
643.279	5.94
643.61	6
643.942	6.04
644.273	6.01
644.604	6.03
644.936	6.01
645.267	6.11
645.598	6.1
645.929	6.12
646.26	6.08
646.591	6.11
646.922	6.09
647.253	6.1
647.584	6.13
647.915	6.17
648.245	6.26
648.576	6.31
648.907	6.3
649.238	6.25
649.568	6.2
649.899	6.22
650.229	6.31
650.56	6.29
650.89	6.28
651.221	6.28
651.551	6.32
651.882	6.35
652.212	6.27
652.542	6.27
652.872	6.3
653.203	6.31
653.533	6.4
653.863	6.39
654.193	6.38
654.523	6.37
654.853	6.4
655.183	6.43
655.513	6.43
655.843	6.44
656.172	6.52
656.502	6.49
656.832	6.45
657.162	6.45
657.491	6.48
657.821	6.49
658.15	6.52
658.48	6.52
658.809	6.43
659.139	6.41
659.468	6.43
659.798	6.44
660.127	6.46
660.456	6.4
660.785	6.45
661.115	6.53
661.444	6.55
661.773	6.52
662.102	6.5
662.431	6.51
662.76	6.5
663.089	6.48
663.418	6.48
663.747	6.47
664.076	6.48
664.404	6.41
664.733	6.39
665.062	6.35
665.39	6.32
665.719	6.44
666.048	6.44
666.376	6.46
666.705	6.41
667.033	6.36
667.362	6.37
667.69	6.32
668.018	6.28
668.347	6.21
668.675	6.23
669.003	6.2
669.331	6.25
669.659	6.21
669.987	6.23
670.315	6.31
670.643	6.27
670.971	6.32
671.299	6.33
671.627	6.34
671.955	6.32
672.283	6.29
672.61	6.27
672.938	6.32
673.266	6.24
673.593	6.3
673.921	6.34
674.249	6.34
674.576	6.36
674.904	6.32
675.231	6.4
675.558	6.4
675.886	6.41
676.213	6.3
676.54	6.42
676.867	6.41
677.195	6.4
677.522	6.42
677.849	6.33
678.176	6.32
678.503	6.37
678.83	6.38
679.157	6.43
679.484	6.44
679.81	6.47
680.137	6.61
680.464	6.67
680.791	6.66
681.117	6.69
681.444	6.74
681.771	6.8
682.097	6.74
682.424	6.66
682.75	6.68
683.077	6.72
683.403	6.72
683.729	6.69
684.056	6.72
684.382	6.73
684.708	6.8
685.034	6.84
685.36	6.78
685.686	6.87
686.012	6.85
686.339	6.82
686.664	6.82
686.99	6.64
687.316	6.54
687.642	6.56
687.968	6.59
688.294	6.52
688.619	6.39
688.945	6.42
689.271	6.56
689.596	6.52
689.922	6.5
690.247	6.48
690.573	6.62
690.898	6.63
691.224	6.56
691.549	6.51
691.874	6.53
692.2	6.53
692.525	6.51
692.85	6.57
693.175	6.62
693.5	6.65
693.825	6.82
694.15	6.79
694.475	6.7
694.8	6.57
695.125	6.61
695.45	6.74
695.775	6.71
696.099	6.68
696.424	6.71
696.749	6.75
697.073	6.8
697.398	6.71
697.723	6.61
698.047	6.69
698.372	6.71
698.696	6.64
699.02	6.7
699.345	6.61
699.669	6.6
699.993	6.62
700.318	6.62
700.642	6.58
700.966	6.69
701.29	6.76
701.614	6.77
701.938	6.72
702.262	6.62
702.586	6.69
702.91	6.61
703.234	6.51
703.557	6.51
703.881	6.32
704.205	6.38
704.529	6.47
704.852	6.49
705.176	6.56
705.499	6.66
705.823	6.62
706.146	6.67
706.47	6.76
706.793	6.69
707.117	6.69
707.44	6.61
707.763	6.46
708.086	6.36
708.409	6.39
708.733	6.44
709.056	6.51
709.379	6.55
709.702	6.6
710.025	6.77
710.348	6.68
710.671	6.89
710.993	6.94
711.316	7.07
711.639	6.99
711.962	7.08
712.284	6.95
712.607	6.9
712.93	6.95
713.252	6.88
713.575	7.02
713.897	6.95
714.22	6.98
714.542	7.04
714.864	6.95
715.187	6.99
715.509	6.9
715.831	6.92
716.153	6.86
716.475	6.9
716.798	6.82
717.12	6.82
717.442	6.76
717.764	6.72
718.085	6.59
718.407	6.63
718.729	6.49
719.051	6.54
719.373	6.76
719.695	6.67
720.016	6.67
720.338	6.42
720.659	6.38
720.981	6.42
721.302	6.52
721.624	6.71
721.945	6.85
722.267	6.89
722.588	6.88
722.909	6.93
723.231	6.83
723.552	6.81
723.873	7.11
724.194	7.08
724.515	7.01
724.836	7.01
725.157	6.92
725.478	6.88
725.799	7.06
726.12	7.01
726.441	7.04
726.762	7.06
727.083	7.09
727.403	7.25
727.724	7.3
728.045	7.29
728.365	7.41
728.686	7.33
729.006	7.46
729.327	7.46
729.647	7.44
729.967	7.48
730.288	7.5
730.608	7.17
730.928	7.28
731.249	7.37
731.569	7.26
731.889	7.34
732.209	7.41
732.529	7.24
732.849	7.13
733.169	7.15
733.489	7
733.809	7.15
734.129	7.19
734.448	7.07
734.768	6.94
735.088	6.7
735.408	6.7
735.727	6.66
736.047	6.72
736.366	6.55
736.686	6.54
737.005	6.71
737.325	6.75
737.644	6.61
737.963	6.47
738.283	6.68
738.602	6.78
738.921	6.81
739.24	6.99
739.56	7.01
739.879	6.97
740.198	6.93
740.517	6.9
740.836	6.74
741.155	6.87
741.473	7
741.792	7.17
742.111	7.26
742.43	7.26
742.748	7.28
743.067	7.49
743.386	7.43
743.704	7.31
744.023	7.5
744.341	7.64
744.66	7.49
744.978	7.34
745.297	7.13
745.615	6.91
745.933	6.83
746.252	6.8
746.57	6.84
746.888	7.08
747.206	7.1
747.524	7.21
747.842	7.17
748.16	7.2
748.478	7.21
748.796	7.01
749.114	7.23
749.432	6.97
749.749	6.99
750.067	7.08
750.385	7.22
750.703	7.24
751.02	7.17
751.338	7.35
751.655	7.27
751.973	7.49
752.29	7.62
752.608	7.51
752.925	7.61
753.242	7.65
753.56	7.44
753.877	7.42
754.194	7.43
754.511	7.37
754.828	7.29
755.145	7.34
755.462	7.38
755.779	7.18
756.096	7.51
756.413	7.39
756.73	7.61
757.047	7.38
757.364	7.3
757.68	7.48
757.997	7.61
758.314	7.69
758.63	7.69
758.947	7.68
759.264	7.73
759.58	7.76
759.896	7.88
760.213	8.05
760.529	8.05
760.846	8.04
761.162	7.85
761.478	7.97
761.794	7.88
762.11	7.84
762.426	7.68
762.743	7.63
763.059	7.85
763.375	7.88
763.69	8.01
764.006	8.2
764.322	8.09
764.638	8.04
764.954	8.1
765.27	8.07
765.585	8.18
765.901	8.13
766.216	8.14
766.532	7.94
766.848	7.92
767.163	7.98
767.478	7.89
767.794	8.18
768.109	8.13
768.424	8.23
768.74	8.45
769.055	8.77
769.37	8.64
769.685	8.57
770	8.33
770.315	8.25
770.63	7.88
770.945	7.8
771.26	7.89
771.575	7.82
771.89	7.88
772.205	7.85
772.52	7.82
772.834	7.69
773.149	7.8
773.464	7.57
773.778	7.29
774.093	7.57
774.407	7.56
774.722	7.91
775.036	8.08
775.351	8.11
775.665	7.51
775.979	7.41
776.293	7.3
776.608	7.44
776.922	7.09
777.236	7.31
777.55	7.46
777.864	7.48
778.178	7.6
778.492	7.49
778.806	7.38
779.12	7.7
779.434	7.78
779.747	7.93
780.061	8.03
780.375	8.66
780.689	8.56
781.002	8.52
781.316	8.25
781.629	8.27
781.943	7.73
782.256	8.28
782.57	8.42
782.883	8.74
783.196	8.46
783.51	8.8
783.823	8.67
784.136	8.61
784.449	8.69
784.762	8.59
785.075	8.62
785.388	8.53
785.701	8.32
786.014	8.17
786.327	8.32
786.64	8.71
786.953	8.11
787.266	7.94
787.578	7.99
787.891	7.88
788.204	7.76
788.516	7.8
788.829	7.79
789.141	8.1
789.454	8.04
789.766	8.18
790.079	8.18
790.391	8.23
790.703	8.41
791.016	8.22
791.328	8.67
791.64	8.78
791.952	9.35
792.264	9.33
792.576	9.91
792.888	9.76
793.2	9.57
793.512	9.65
793.824	9.72
794.136	9.4
794.448	9.28
794.76	9.38
795.071	9.97
795.383	9.98
795.695	9.77
796.006	9.31
796.318	9.16
796.629	9.48
796.941	9.6
797.252	9.76
797.564	9.57
797.875	8.81
798.186	8.54
798.497	7.97
798.809	8.23
799.12	7.83
799.431	7.56
799.742	7.77
800.053	7.75
800.364	8.1
800.675	8.25
800.986	8.66
801.297	8.39
801.608	8.08
801.918	7.94
802.229	7.85
802.54	7.74
802.851	7.85
803.161	7.38
803.472	7.62
803.782	6.95
804.093	7.27
804.403	7.05
804.714	7.25
805.024	7.38
805.334	7.42
805.645	7.33
805.955	7.58
806.265	7.89
806.575	7.9
806.885	7.55
807.195	7.84
807.505	7.43
807.815	7.54
808.125	7.97
808.435	7.9
808.745	8.03
809.055	8.32
809.365	8.56
809.674	8.82
809.984	8.91
810.294	9.52
810.603	9.09
810.913	9.4
811.222	9.53
811.532	9.19
811.841	9.39
812.151	9.23
812.46	9.39
812.769	8.59
813.079	9.25
813.388	8.95
813.697	8.71
814.006	8.83
814.315	8.6
814.624	8.23
814.933	8.33
815.242	8.42
815.551	8.39
815.86	8.11
816.169	8.05
816.478	6.99
816.786	6.82
817.095	6.69
817.404	6.93
817.712	7.05
818.021	7.73
818.33	7.59
818.638	7.72
818.947	7.92
819.255	8.49
819.563	8.14
819.872	8.41
820.18	8.51
820.488	9.06
820.796	9.34
821.105	9.27
821.413	9.42
821.721	9.22
822.029	9.19
822.337	9.49
822.645	9.59
822.953	9.82
823.26	9.72
823.568	9.92
823.876	9.95
824.184	9.96
824.491	9.91
824.799	9.91
825.107	9.9
825.414	9.87
825.722	9.75
826.029	9.74
826.337	9.84
826.644	10.02
826.951	9.63
827.259	9.61
827.566	9.67
827.873	9.76
828.18	9.98
828.488	10.3
828.795	10.09
829.102	9.87
829.409	9.53
829.716	9.65
830.023	9.56
830.329	9.71
830.636	9.69
830.943	9.26
831.25	9.43
831.557	9.5
831.863	9.54
832.17	9.61
832.476	9.96
832.783	9.92
833.089	9.56
833.396	10.1
833.702	10.1
834.009	10.04
834.315	9.56
834.621	9.3
834.928	9.1
835.234	9.04
835.54	9.11
835.846	9.55
836.152	9.87
836.458	9.71
836.764	9.64
837.07	9.61
837.376	10.12
837.682	9.96
837.988	10
838.293	10.08
838.599	10.26
838.905	10.13
839.211	10.01
839.516	9.78
839.822	9.92
840.127	9.73
840.433	10.14
840.738	10.81
841.044	11.31
841.349	11.02
841.654	11.04
841.959	11.47
842.265	11.64
842.57	10.66
842.875	11.03
843.18	10.96
843.485	11.35
843.79	10.95
844.095	10.66
844.4	11.74
844.705	10.85
845.01	11.46
845.315	11.25
845.619	11.47
845.924	11.55
846.229	11.01
846.533	12.25
846.838	11.07
847.142	10.62
847.447	9.79
847.751	10.46
848.056	10.07
848.36	9.91
848.664	9.3
848.969	10.7
849.273	10.02
849.577	9.31
849.881	8.53
850.185	8.09
850.489	8.05
850.794	7.47
851.097	8.9
851.401	6.98
851.705	6.51
852.009	5.73
852.313	5.83
852.617	5.83
852.92	5.68
853.224	6.44
853.528	5.91
853.831	7.14
854.135	6.31
854.438	6.01
854.742	5.79
855.045	6.26
855.349	4.48
855.652	4.7
855.955	5.44
856.259	5.8
856.562	6.98
856.865	6.26
857.168	5.28
857.471	4.42
857.774	4.82
858.077	4.47
858.38	5.05
858.683	5.4
858.986	3.83
859.289	3.47
859.592	4.02
859.894	4.96
860.197	3.89
860.5	4.28
860.802	4.05
861.105	3.91
861.407	4.21
861.71	3.9
862.012	4.85
862.315	5.19
862.617	4.81
862.919	3.94
863.222	5.63
863.524	3.64
863.826	2.77
864.128	4.81
864.43	6.39
864.732	4.36
865.034	4.15
865.336	7.04
865.638	6.09
865.94	5.55
866.242	2.58
866.544	4.26
866.846	4.49
867.147	7.38
867.449	9.17
867.751	8.07
868.052	6.78
868.354	5.01
868.655	4.14
868.957	5.47
869.258	6.98
869.56	6.47
869.861	7.88
870.162	8.4
870.463	6.72
870.765	5.68
871.066	5.62
871.367	6
871.668	4.3
871.969	3.11
872.27	4.84
872.571	7.86
872.872	7.48
873.173	7.57
873.473	6.99
873.774	6.03
874.075	6.31
874.376	7.03
874.676	8.99
874.977	10.11
875.277	9.13
875.578	8.82
875.878	8.47
876.179	9.46
876.479	10.09
876.78	10.18
877.08	10.89
877.38	13.6
877.68	13.77
877.981	14.44
878.281	16.37
878.581	13.85
