Data from BU57649_Reflection_00001.txt Node
Date: Tue Nov 19 10:55:28 EST 2019
User: vgr7
Spectrometer: USB2G7710
Scans to average: 3
Trigger mode: 4
Integration Time (sec): 2.000000E-2
Electric dark correction enabled: true
Boxcar width: 10
XAxis mode: Wavelengths
Number of Pixels in Spectrum: 2048
>>>>>Begin Spectral Data<<<<<
177.721	16.49
178.105	2.34
178.488	6.9
178.871	42.86
179.254	66.91
179.636	64.5
180.019	81.58
180.402	300
180.785	-17.65
181.168	3225
181.55	-120.78
181.933	58.58
182.316	57.06
182.698	20.97
183.081	0.73
183.463	24.26
183.846	46.8
184.228	57.29
184.611	53.23
184.993	44.42
185.376	28.14
185.758	24.11
186.14	18.83
186.522	11.57
186.904	17.32
187.287	19.77
187.669	17.83
188.051	14.3
188.433	4.73
188.815	-0.25
189.197	5.01
189.579	1.74
189.961	-0.76
190.342	-5
190.724	-10.13
191.106	4.42
191.488	-2.73
191.869	-1.87
192.251	-5.34
192.633	-14.65
193.014	-18.22
193.396	-20.55
193.777	-12.83
194.159	-5.65
194.54	5.37
194.922	17.9
195.303	18.94
195.684	23.37
196.065	28.62
196.447	39.47
196.828	61.41
197.209	57.15
197.59	56.75
197.971	43.33
198.352	50.26
198.733	50.02
199.114	36.66
199.495	45.93
199.876	36.23
200.257	34.26
200.638	24.28
201.018	18.56
201.399	24.48
201.78	20.28
202.16	24.52
202.541	33.61
202.922	28.25
203.302	32.24
203.683	35.66
204.063	28.82
204.444	23.88
204.824	20.36
205.204	17.14
205.585	26.23
205.965	25.05
206.345	22.04
206.725	31.74
207.106	35.79
207.486	30.54
207.866	29
208.246	38.25
208.626	40.15
209.006	45.59
209.386	37.07
209.766	39.1
210.145	38.49
210.525	25.38
210.905	29.89
211.285	28.04
211.664	24.97
212.044	35.84
212.424	43
212.803	33.66
213.183	37.1
213.562	28.95
213.942	40.61
214.321	39.99
214.701	23.28
215.08	16.95
215.459	14.1
215.838	11.02
216.218	2.13
216.597	14.69
216.976	9.2
217.355	16.8
217.734	18.8
218.113	16.04
218.492	26.4
218.871	24.44
219.25	26.52
219.629	24.44
220.008	26.71
220.387	24.11
220.766	39.64
221.144	35.9
221.523	36.81
221.902	26.74
222.28	25.5
222.659	45.11
223.037	37.22
223.416	35.17
223.794	31.35
224.173	28.38
224.551	21.59
224.929	20.25
225.308	15.94
225.686	11.21
226.064	9.4
226.442	9.15
226.821	10.53
227.199	6.42
227.577	9.94
227.955	8.88
228.333	6.52
228.711	3.11
229.089	4.36
229.467	0.52
229.845	0.32
230.222	2.61
230.6	-0.45
230.978	1.83
231.356	3.52
231.733	4.89
232.111	5.74
232.488	5.98
232.866	6.76
233.243	5.92
233.621	6.96
233.998	6.95
234.376	7.59
234.753	6.7
235.13	7.13
235.508	5.87
235.885	3.95
236.262	4.15
236.639	5.14
237.016	5.21
237.393	6.78
237.77	5.69
238.147	3.85
238.524	4.36
238.901	4.49
239.278	3.91
239.655	4.12
240.032	4.16
240.409	3.67
240.785	3.81
241.162	4.23
241.539	4.94
241.915	4.85
242.292	5.05
242.668	4.69
243.045	5.16
243.421	5.06
243.798	5.33
244.174	5.44
244.551	5.74
244.927	5.66
245.303	5.49
245.679	5.63
246.056	6.11
246.432	6.04
246.808	5.92
247.184	5.92
247.56	5.67
247.936	5.55
248.312	5.74
248.688	5.79
249.064	5.58
249.44	5.16
249.815	5.28
250.191	5.13
250.567	5.21
250.943	5.22
251.318	5.19
251.694	5.04
252.069	4.92
252.445	4.66
252.82	4.84
253.196	5.09
253.571	5.05
253.947	4.79
254.322	4.38
254.697	4.36
255.073	4.42
255.448	4.71
255.823	4.92
256.198	4.74
256.573	4.62
256.948	4.9
257.323	5.08
257.698	5.01
258.073	5.05
258.448	5.09
258.823	4.95
259.198	5.05
259.573	5.03
259.948	5.14
260.322	5.13
260.697	5.13
261.072	5.11
261.446	5.08
261.821	5.06
262.195	5.06
262.57	5.18
262.944	5.16
263.319	5.07
263.693	4.97
264.067	5.18
264.442	5.17
264.816	5
265.19	4.85
265.564	4.81
265.938	4.64
266.313	4.54
266.687	4.35
267.061	4.44
267.435	4.64
267.809	4.49
268.183	4.38
268.556	4.04
268.93	4.01
269.304	4.06
269.678	3.96
270.051	4.17
270.425	4.16
270.799	4.12
271.172	4.18
271.546	4.19
271.919	4.05
272.293	4.01
272.666	4.01
273.04	4.13
273.413	4.02
273.787	4.08
274.16	3.96
274.533	4.14
274.906	3.98
275.279	3.78
275.653	3.9
276.026	3.99
276.399	4.35
276.772	4.42
277.145	4.39
277.518	4.41
277.891	4.18
278.263	4.14
278.636	4.35
279.009	4.22
279.382	4.17
279.755	4.23
280.127	4.34
280.5	4.28
280.872	4.27
281.245	4.51
281.617	4.51
281.99	4.72
282.362	4.69
282.735	4.56
283.107	4.66
283.479	4.69
283.852	4.61
284.224	4.51
284.596	4.43
284.968	4.38
285.34	4.41
285.713	4.48
286.085	4.42
286.457	4.38
286.829	4.34
287.201	4.38
287.572	4.32
287.944	4.4
288.316	4.5
288.688	4.55
289.06	4.57
289.431	4.58
289.803	4.57
290.175	4.57
290.546	4.74
290.918	4.75
291.289	4.54
291.661	4.58
292.032	4.43
292.403	4.55
292.775	4.79
293.146	4.81
293.517	4.91
293.889	5.01
294.26	5.02
294.631	5.25
295.002	5.23
295.373	5.38
295.744	5.29
296.115	5.28
296.486	5.21
296.857	5.2
297.228	5.12
297.599	5.07
297.97	5.12
298.34	5.18
298.711	5.28
299.082	5.32
299.452	5.32
299.823	5.41
300.194	5.44
300.564	5.28
300.935	5.38
301.305	5.32
301.676	5.21
302.046	5.12
302.416	4.91
302.787	4.95
303.157	4.75
303.527	4.86
303.897	4.79
304.267	5.03
304.637	4.93
305.008	5.07
305.378	5.18
305.748	5.11
306.117	4.96
306.487	4.93
306.857	5.17
307.227	5.22
307.597	5.31
307.967	5.23
308.336	5.39
308.706	5.4
309.076	5.66
309.445	5.9
309.815	5.98
310.184	6.18
310.554	6.14
310.923	6.15
311.293	6.14
311.662	6.19
312.031	6.08
312.401	6.18
312.77	6.42
313.139	6.46
313.508	6.48
313.877	6.5
314.246	6.42
314.616	6.33
314.985	6.29
315.353	6.34
315.722	6.46
316.091	6.45
316.46	6.47
316.829	6.2
317.198	6.05
317.567	6.21
317.935	6.19
318.304	6.23
318.672	6.24
319.041	6.3
319.41	6.3
319.778	6.22
320.147	6.02
320.515	5.74
320.883	5.48
321.252	5.53
321.62	5.54
321.988	5.68
322.357	5.69
322.725	5.91
323.093	5.83
323.461	5.68
323.829	5.62
324.197	5.6
324.565	5.65
324.933	5.6
325.301	5.4
325.669	5.31
326.037	5.25
326.405	5.38
326.772	5.35
327.14	5.4
327.508	5.34
327.875	5.48
328.243	5.41
328.61	5.44
328.978	5.29
329.346	5.36
329.713	5.37
330.08	5.44
330.448	5.3
330.815	5.34
331.182	5.37
331.55	5.29
331.917	5.22
332.284	5.35
332.651	5.36
333.018	5.45
333.385	5.46
333.752	5.62
334.119	5.67
334.486	5.65
334.853	5.57
335.22	5.59
335.587	5.51
335.954	5.61
336.32	5.7
336.687	5.88
337.054	5.88
337.42	5.85
337.787	5.79
338.153	5.79
338.52	5.79
338.886	5.73
339.253	5.69
339.619	5.63
339.986	5.47
340.352	5.48
340.718	5.49
341.084	5.54
341.451	5.59
341.817	5.54
342.183	5.56
342.549	5.63
342.915	5.59
343.281	5.62
343.647	5.61
344.013	5.55
344.379	5.48
344.745	5.41
345.11	5.34
345.476	5.34
345.842	5.42
346.208	5.36
346.573	5.43
346.939	5.37
347.304	5.5
347.67	5.57
348.035	5.5
348.401	5.44
348.766	5.44
349.132	5.35
349.497	5.34
349.862	5.34
350.228	5.31
350.593	5.36
350.958	5.39
351.323	5.41
351.688	5.43
352.053	5.47
352.418	5.49
352.783	5.46
353.148	5.47
353.513	5.48
353.878	5.51
354.243	5.47
354.608	5.59
354.972	5.51
355.337	5.56
355.702	5.61
356.066	5.73
356.431	5.67
356.795	5.71
357.16	5.67
357.524	5.67
357.889	5.69
358.253	5.7
358.618	5.63
358.982	5.53
359.346	5.54
359.71	5.56
360.075	5.59
360.439	5.64
360.803	5.62
361.167	5.52
361.531	5.46
361.895	5.48
362.259	5.5
362.623	5.46
362.987	5.42
363.351	5.42
363.714	5.31
364.078	5.34
364.442	5.3
364.806	5.41
365.169	5.33
365.533	5.33
365.896	5.32
366.26	5.38
366.623	5.44
366.987	5.45
367.35	5.43
367.714	5.39
368.077	5.38
368.44	5.4
368.803	5.33
369.167	5.33
369.53	5.34
369.893	5.34
370.256	5.36
370.619	5.33
370.982	5.33
371.345	5.43
371.708	5.44
372.071	5.39
372.434	5.23
372.797	5.29
373.159	5.26
373.522	5.24
373.885	5.19
374.247	5.24
374.61	5.27
374.973	5.26
375.335	5.28
375.698	5.21
376.06	5.21
376.423	5.28
376.785	5.28
377.147	5.22
377.51	5.22
377.872	5.2
378.234	5.23
378.596	5.28
378.958	5.25
379.321	5.24
379.683	5.29
380.045	5.33
380.407	5.32
380.769	5.32
381.13	5.36
381.492	5.35
381.854	5.33
382.216	5.34
382.578	5.32
382.939	5.32
383.301	5.39
383.663	5.38
384.024	5.39
384.386	5.36
384.747	5.35
385.109	5.34
385.47	5.39
385.832	5.4
386.193	5.36
386.554	5.28
386.916	5.3
387.277	5.25
387.638	5.25
387.999	5.25
388.36	5.24
388.721	5.24
389.082	5.27
389.443	5.25
389.804	5.21
390.165	5.24
390.526	5.22
390.887	5.19
391.248	5.17
391.609	5.17
391.969	5.19
392.33	5.21
392.691	5.23
393.051	5.19
393.412	5.2
393.772	5.2
394.133	5.2
394.493	5.15
394.854	5.17
395.214	5.14
395.574	5.11
395.935	5.12
396.295	5.1
396.655	5.09
397.015	5.06
397.376	5.04
397.736	5.01
398.096	5.02
398.456	5
398.816	5
399.176	4.98
399.535	4.98
399.895	4.95
400.255	4.93
400.615	4.97
400.975	4.96
401.334	4.94
401.694	4.98
402.054	5
402.413	5
402.773	5.03
403.132	5.03
403.492	5.05
403.851	5.06
404.211	5.06
404.57	5.06
404.929	5.07
405.288	5.09
405.648	5.12
406.007	5.13
406.366	5.15
406.725	5.16
407.084	5.18
407.443	5.2
407.802	5.18
408.161	5.15
408.52	5.13
408.879	5.13
409.238	5.13
409.596	5.14
409.955	5.14
410.314	5.15
410.673	5.16
411.031	5.13
411.39	5.11
411.748	5.09
412.107	5.12
412.465	5.11
412.824	5.08
413.182	5.04
413.54	5.03
413.899	5
414.257	4.99
414.615	4.99
414.974	5
415.332	4.98
415.69	4.99
416.048	4.98
416.406	4.97
416.764	4.95
417.122	4.94
417.48	4.95
417.838	4.94
418.195	4.95
418.553	4.95
418.911	4.95
419.269	4.96
419.626	4.95
419.984	4.95
420.342	4.95
420.699	4.95
421.057	4.95
421.414	4.95
421.772	4.97
422.129	4.96
422.486	4.96
422.844	4.97
423.201	4.97
423.558	4.98
423.915	4.98
424.273	4.98
424.63	4.96
424.987	4.95
425.344	4.96
425.701	4.93
426.058	4.92
426.415	4.91
426.772	4.89
427.128	4.9
427.485	4.9
427.842	4.9
428.199	4.91
428.555	4.9
428.912	4.9
429.269	4.86
429.625	4.85
429.982	4.82
430.338	4.84
430.695	4.84
431.051	4.84
431.407	4.83
431.764	4.85
432.12	4.86
432.476	4.88
432.832	4.88
433.189	4.86
433.545	4.87
433.901	4.89
434.257	4.87
434.613	4.86
434.969	4.84
435.325	4.82
435.681	4.8
436.036	4.81
436.392	4.81
436.748	4.81
437.104	4.83
437.459	4.84
437.815	4.82
438.171	4.79
438.526	4.79
438.882	4.81
439.237	4.8
439.593	4.83
439.948	4.82
440.304	4.81
440.659	4.84
441.014	4.84
441.369	4.83
441.725	4.84
442.08	4.83
442.435	4.84
442.79	4.86
443.145	4.88
443.5	4.88
443.855	4.88
444.21	4.89
444.565	4.86
444.92	4.86
445.275	4.85
445.629	4.87
445.984	4.87
446.339	4.87
446.693	4.87
447.048	4.84
447.403	4.83
447.757	4.81
448.112	4.8
448.466	4.79
448.82	4.77
449.175	4.77
449.529	4.77
449.883	4.76
450.238	4.75
450.592	4.73
450.946	4.72
451.3	4.71
451.654	4.7
452.008	4.71
452.362	4.69
452.716	4.72
453.07	4.68
453.424	4.64
453.778	4.64
454.132	4.63
454.486	4.63
454.839	4.63
455.193	4.66
455.547	4.68
455.9	4.69
456.254	4.7
456.607	4.7
456.961	4.72
457.314	4.71
457.668	4.71
458.021	4.72
458.375	4.74
458.728	4.74
459.081	4.75
459.434	4.75
459.787	4.77
460.141	4.74
460.494	4.77
460.847	4.78
461.2	4.78
461.553	4.79
461.906	4.79
462.259	4.77
462.611	4.78
462.964	4.79
463.317	4.79
463.67	4.81
464.022	4.81
464.375	4.8
464.728	4.82
465.08	4.83
465.433	4.83
465.785	4.83
466.138	4.83
466.49	4.84
466.843	4.85
467.195	4.85
467.547	4.86
467.899	4.87
468.252	4.89
468.604	4.9
468.956	4.91
469.308	4.91
469.66	4.94
470.012	4.95
470.364	4.93
470.716	4.92
471.068	4.93
471.42	4.97
471.772	4.98
472.123	4.98
472.475	4.99
472.827	4.99
473.178	4.98
473.53	4.97
473.882	4.98
474.233	4.97
474.585	4.99
474.936	5
475.288	4.99
475.639	4.99
475.99	4.98
476.342	4.97
476.693	4.98
477.044	4.96
477.395	4.95
477.746	4.97
478.097	4.98
478.448	4.98
478.8	4.98
479.15	4.96
479.501	4.96
479.852	4.96
480.203	4.98
480.554	4.98
480.905	5
481.255	5
481.606	5.02
481.957	5.02
482.307	5.02
482.658	5.02
483.009	5.02
483.359	5.02
483.709	5.02
484.06	5.02
484.41	5.03
484.761	5.03
485.111	5.02
485.461	5.01
485.811	5.01
486.162	5.02
486.512	5.02
486.862	5.02
487.212	5.02
487.562	5
487.912	5.01
488.262	5
488.612	5
488.961	4.99
489.311	4.98
489.661	4.98
490.011	4.98
490.36	4.98
490.71	4.97
491.06	4.96
491.409	4.96
491.759	4.96
492.108	4.97
492.458	4.97
492.807	4.97
493.157	4.97
493.506	4.96
493.855	4.95
494.204	4.94
494.554	4.94
494.903	4.95
495.252	4.91
495.601	4.92
495.95	4.93
496.299	4.94
496.648	4.93
496.997	4.94
497.346	4.94
497.695	4.95
498.043	4.97
498.392	4.99
498.741	5
499.09	5.01
499.438	5
499.787	5
500.135	5.02
500.484	5.02
500.832	5.02
501.181	5.04
501.529	5.07
501.878	5.1
502.226	5.13
502.574	5.18
502.923	5.19
503.271	5.19
503.619	5.19
503.967	5.19
504.315	5.23
504.663	5.22
505.011	5.24
505.359	5.25
505.707	5.25
506.055	5.27
506.403	5.26
506.751	5.29
507.098	5.29
507.446	5.31
507.794	5.34
508.141	5.34
508.489	5.35
508.837	5.34
509.184	5.34
509.531	5.32
509.879	5.31
510.226	5.31
510.574	5.32
510.921	5.31
511.268	5.31
511.616	5.28
511.963	5.29
512.31	5.3
512.657	5.3
513.004	5.3
513.351	5.3
513.698	5.32
514.045	5.32
514.392	5.34
514.739	5.33
515.086	5.32
515.432	5.34
515.779	5.35
516.126	5.37
516.473	5.38
516.819	5.39
517.166	5.41
517.512	5.42
517.859	5.42
518.205	5.41
518.552	5.43
518.898	5.45
519.245	5.45
519.591	5.47
519.937	5.45
520.283	5.46
520.629	5.46
520.976	5.47
521.322	5.49
521.668	5.49
522.014	5.5
522.36	5.49
522.706	5.49
523.052	5.52
523.398	5.52
523.743	5.52
524.089	5.54
524.435	5.55
524.781	5.57
525.126	5.57
525.472	5.6
525.817	5.61
526.163	5.6
526.509	5.61
526.854	5.62
527.199	5.64
527.545	5.65
527.89	5.65
528.235	5.64
528.581	5.63
528.926	5.64
529.271	5.65
529.616	5.66
529.961	5.66
530.306	5.66
530.651	5.66
530.996	5.66
531.341	5.67
531.686	5.67
532.031	5.66
532.376	5.66
532.721	5.65
533.065	5.64
533.41	5.64
533.755	5.65
534.099	5.66
534.444	5.65
534.788	5.66
535.133	5.65
535.477	5.66
535.822	5.66
536.166	5.66
536.51	5.66
536.855	5.67
537.199	5.66
537.543	5.66
537.887	5.67
538.231	5.66
538.576	5.65
538.92	5.65
539.264	5.67
539.608	5.68
539.951	5.69
540.295	5.69
540.639	5.71
540.983	5.7
541.327	5.69
541.671	5.69
542.014	5.69
542.358	5.7
542.701	5.72
543.045	5.71
543.389	5.71
543.732	5.7
544.075	5.7
544.419	5.72
544.762	5.69
545.105	5.69
545.449	5.71
545.792	5.7
546.135	5.7
546.478	5.69
546.821	5.7
547.165	5.7
547.508	5.73
547.851	5.72
548.194	5.71
548.536	5.7
548.879	5.7
549.222	5.72
549.565	5.71
549.908	5.7
550.25	5.7
550.593	5.72
550.936	5.71
551.278	5.73
551.621	5.72
551.963	5.77
552.306	5.78
552.648	5.77
552.991	5.78
553.333	5.75
553.675	5.74
554.017	5.73
554.36	5.76
554.702	5.74
555.044	5.72
555.386	5.73
555.728	5.76
556.07	5.73
556.412	5.69
556.754	5.66
557.096	5.71
557.438	5.72
557.78	5.7
558.121	5.72
558.463	5.7
558.805	5.71
559.147	5.72
559.488	5.71
559.83	5.71
560.171	5.69
560.513	5.73
560.854	5.76
561.196	5.75
561.537	5.73
561.878	5.75
562.22	5.8
562.561	5.8
562.902	5.81
563.243	5.82
563.584	5.85
563.925	5.89
564.266	5.86
564.607	5.85
564.948	5.85
565.289	5.87
565.63	5.87
565.971	5.87
566.312	5.84
566.653	5.83
566.993	5.83
567.334	5.85
567.675	5.85
568.015	5.81
568.356	5.82
568.696	5.82
569.037	5.81
569.377	5.79
569.718	5.79
570.058	5.77
570.398	5.77
570.739	5.74
571.079	5.72
571.419	5.72
571.759	5.69
572.099	5.68
572.439	5.66
572.779	5.68
573.119	5.67
573.459	5.67
573.799	5.66
574.139	5.68
574.479	5.68
574.819	5.71
575.158	5.75
575.498	5.76
575.838	5.75
576.177	5.72
576.517	5.71
576.856	5.69
577.196	5.71
577.535	5.71
577.875	5.71
578.214	5.74
578.553	5.74
578.893	5.78
579.232	5.76
579.571	5.79
579.91	5.76
580.25	5.81
580.589	5.81
580.928	5.83
581.267	5.81
581.606	5.83
581.945	5.76
582.283	5.73
582.622	5.72
582.961	5.76
583.3	5.79
583.639	5.8
583.977	5.83
584.316	5.84
584.654	5.87
584.993	5.9
585.332	5.9
585.67	5.9
586.008	5.93
586.347	5.97
586.685	5.93
587.024	5.97
587.362	5.9
587.7	5.95
588.038	5.98
588.376	5.99
588.715	5.97
589.053	6
589.391	6
589.729	6
590.067	5.99
590.404	5.97
590.742	5.92
591.08	5.95
591.418	5.92
591.756	5.92
592.093	5.93
592.431	5.93
592.769	5.95
593.106	5.92
593.444	5.9
593.781	5.92
594.119	5.91
594.456	5.93
594.793	5.94
595.131	5.94
595.468	5.97
595.805	5.96
596.143	5.97
596.48	5.98
596.817	5.99
597.154	6.01
597.491	6.03
597.828	6.07
598.165	6.04
598.502	6.04
598.839	6.05
599.176	6.03
599.512	6
599.849	5.98
600.186	6
600.523	6.06
600.859	6.06
601.196	6.06
601.532	6.04
601.869	6.04
602.205	6
602.542	5.95
602.878	5.95
603.215	5.95
603.551	5.91
603.887	5.94
604.223	5.92
604.56	5.92
604.896	5.93
605.232	5.95
605.568	5.98
605.904	5.96
606.24	5.95
606.576	5.97
606.912	5.97
607.248	5.96
607.583	5.96
607.919	5.93
608.255	5.93
608.591	5.95
608.926	5.94
609.262	5.95
609.597	5.98
609.933	5.98
610.268	5.97
610.604	5.99
610.939	5.99
611.275	5.98
611.61	5.96
611.945	5.96
612.281	5.96
612.616	5.99
612.951	6.03
613.286	6.06
613.621	6.08
613.956	6.13
614.291	6.12
614.626	6.08
614.961	6.13
615.296	6.13
615.631	6.16
615.966	6.16
616.3	6.19
616.635	6.2
616.97	6.22
617.304	6.2
617.639	6.26
617.973	6.25
618.308	6.26
618.642	6.27
618.977	6.25
619.311	6.27
619.646	6.21
619.98	6.14
620.314	6.15
620.648	6.14
620.983	6.1
621.317	6.16
621.651	6.21
621.985	6.19
622.319	6.2
622.653	6.2
622.987	6.17
623.321	6.15
623.655	6.12
623.988	6.15
624.322	6.12
624.656	6.09
624.99	6.09
625.323	6.11
625.657	6.12
625.99	6.16
626.324	6.13
626.657	6.13
626.991	6.16
627.324	6.15
627.658	6.14
627.991	6.17
628.324	6.15
628.657	6.12
628.991	6.11
629.324	6.08
629.657	6.06
629.99	6.12
630.323	6.11
630.656	6.14
630.989	6.12
631.322	6.19
631.655	6.17
631.987	6.18
632.32	6.15
632.653	6.2
632.986	6.2
633.318	6.2
633.651	6.19
633.984	6.18
634.316	6.24
634.649	6.24
634.981	6.21
635.313	6.19
635.646	6.19
635.978	6.22
636.31	6.26
636.643	6.31
636.975	6.29
637.307	6.3
637.639	6.25
637.971	6.32
638.303	6.28
638.635	6.33
638.967	6.32
639.299	6.37
639.631	6.33
639.963	6.31
640.295	6.3
640.626	6.32
640.958	6.34
641.29	6.34
641.621	6.36
641.953	6.38
642.285	6.43
642.616	6.46
642.948	6.46
643.279	6.42
643.61	6.39
643.942	6.41
644.273	6.38
644.604	6.44
644.936	6.35
645.267	6.34
645.598	6.35
645.929	6.29
646.26	6.27
646.591	6.28
646.922	6.33
647.253	6.29
647.584	6.34
647.915	6.32
648.245	6.27
648.576	6.17
648.907	6.19
649.238	6.09
649.568	6.01
649.899	5.99
650.229	6.07
650.56	6.04
650.89	6.05
651.221	6.09
651.551	6.08
651.882	6.05
652.212	6.1
652.542	6.08
652.872	6.12
653.203	6.14
653.533	6.1
653.863	6.02
654.193	6.04
654.523	5.95
654.853	5.99
655.183	6.04
655.513	6.17
655.843	6.22
656.172	6.3
656.502	6.35
656.832	6.34
657.162	6.26
657.491	6.3
657.821	6.27
658.15	6.28
658.48	6.29
658.809	6.33
659.139	6.37
659.468	6.36
659.798	6.34
660.127	6.32
660.456	6.31
660.785	6.37
661.115	6.37
661.444	6.44
661.773	6.46
662.102	6.44
662.431	6.41
662.76	6.34
663.089	6.29
663.418	6.3
663.747	6.29
664.076	6.33
664.404	6.29
664.733	6.26
665.062	6.23
665.39	6.22
665.719	6.2
666.048	6.19
666.376	6.15
666.705	6.15
667.033	6.14
667.362	6.22
667.69	6.22
668.018	6.23
668.347	6.2
668.675	6.19
669.003	6.17
669.331	6.26
669.659	6.21
669.987	6.3
670.315	6.3
670.643	6.35
670.971	6.36
671.299	6.4
671.627	6.43
671.955	6.53
672.283	6.49
672.61	6.56
672.938	6.59
673.266	6.58
673.593	6.63
673.921	6.56
674.249	6.53
674.576	6.54
674.904	6.56
675.231	6.6
675.558	6.59
675.886	6.61
676.213	6.53
676.54	6.66
676.867	6.57
677.195	6.57
677.522	6.62
677.849	6.54
678.176	6.54
678.503	6.51
678.83	6.46
679.157	6.48
679.484	6.43
679.81	6.38
680.137	6.48
680.464	6.47
680.791	6.56
681.117	6.49
681.444	6.45
681.771	6.5
682.097	6.53
682.424	6.49
682.75	6.47
683.077	6.47
683.403	6.45
683.729	6.53
684.056	6.5
684.382	6.54
684.708	6.64
685.034	6.67
685.36	6.65
685.686	6.66
686.012	6.72
686.339	6.72
686.664	6.72
686.99	6.67
687.316	6.67
687.642	6.61
687.968	6.68
688.294	6.66
688.619	6.59
688.945	6.58
689.271	6.5
689.596	6.53
689.922	6.48
690.247	6.41
690.573	6.41
690.898	6.37
691.224	6.31
691.549	6.33
691.874	6.27
692.2	6.42
692.525	6.4
692.85	6.42
693.175	6.46
693.5	6.5
693.825	6.54
694.15	6.54
694.475	6.61
694.8	6.71
695.125	6.83
695.45	6.83
695.775	6.77
696.099	6.96
696.424	6.94
696.749	6.98
697.073	7
697.398	6.9
697.723	6.94
698.047	6.97
698.372	6.99
698.696	7.01
699.02	6.94
699.345	6.96
699.669	6.92
699.993	6.98
700.318	6.98
700.642	6.94
700.966	7.01
701.29	7.06
701.614	6.99
701.938	6.84
702.262	6.75
702.586	6.76
702.91	6.69
703.234	6.69
703.557	6.7
703.881	6.75
704.205	6.91
704.529	6.93
704.852	6.84
705.176	6.83
705.499	6.71
705.823	6.7
706.146	6.68
706.47	6.68
706.793	6.67
707.117	6.63
707.44	6.74
707.763	6.71
708.086	6.61
708.409	6.48
708.733	6.49
709.056	6.63
709.379	6.67
709.702	6.68
710.025	6.73
710.348	6.65
710.671	6.75
710.993	6.63
711.316	6.62
711.639	6.64
711.962	6.72
712.284	6.8
712.607	6.82
712.93	6.84
713.252	6.84
713.575	6.77
713.897	6.86
714.22	6.73
714.542	6.74
714.864	6.76
715.187	6.88
715.509	6.9
715.831	6.91
716.153	6.81
716.475	6.86
716.798	6.77
717.12	6.9
717.442	6.79
717.764	6.91
718.085	6.96
718.407	7.08
718.729	6.99
719.051	7.01
719.373	7.05
719.695	7.17
720.016	7.13
720.338	7.31
720.659	7.29
720.981	7.32
721.302	7.34
721.624	7.4
721.945	7.47
722.267	7.5
722.588	7.42
722.909	7.65
723.231	7.54
723.552	7.65
723.873	7.62
724.194	7.6
724.515	7.5
724.836	7.36
725.157	7.29
725.478	7.11
725.799	6.99
726.12	6.92
726.441	6.77
726.762	6.84
727.083	6.8
727.403	6.69
727.724	6.79
728.045	7.02
728.365	7.01
728.686	6.94
729.006	7.07
729.327	7.14
729.647	7.04
729.967	7.16
730.288	7.1
730.608	7.06
730.928	7.12
731.249	7.16
731.569	7.26
731.889	7.2
732.209	7.31
732.529	7.39
732.849	7.35
733.169	7.37
733.489	7.34
733.809	7.23
734.129	7.2
734.448	7.13
734.768	6.81
735.088	6.76
735.408	6.85
735.727	6.94
736.047	6.95
736.366	6.85
736.686	6.8
737.005	6.94
737.325	6.95
737.644	6.94
737.963	6.86
738.283	6.81
738.602	6.9
738.921	6.86
739.24	6.89
739.56	7.08
739.879	7.05
740.198	6.88
740.517	6.85
740.836	7.05
741.155	7.13
741.473	7.27
741.792	7.32
742.111	7.33
742.43	7.2
742.748	7.17
743.067	7.23
743.386	7.13
743.704	7.14
744.023	7.15
744.341	6.98
744.66	6.99
744.978	7.07
745.297	7.01
745.615	7.1
745.933	7.36
746.252	7.31
746.57	7.45
746.888	7.76
747.206	7.76
747.524	7.67
747.842	7.58
748.16	7.58
748.478	7.62
748.796	7.49
749.114	7.5
749.432	7.58
749.749	7.68
750.067	7.71
750.385	7.81
750.703	7.81
751.02	8.22
751.338	8.1
751.655	7.87
751.973	7.83
752.29	7.78
752.608	7.36
752.925	7.45
753.242	7.47
753.56	7.13
753.877	7.15
754.194	7.16
754.511	7.08
754.828	7.07
755.145	6.85
755.462	6.98
755.779	6.89
756.096	6.82
756.413	6.84
756.73	7.02
757.047	6.85
757.364	6.73
757.68	6.47
757.997	6.65
758.314	6.86
758.63	6.84
758.947	6.97
759.264	7.15
759.58	7.14
759.896	7.15
760.213	7.2
760.529	7.29
760.846	7.3
761.162	7.28
761.478	7.18
761.794	7.36
762.11	7.4
762.426	7.37
762.743	7.54
763.059	7.51
763.375	7.29
763.69	7.41
764.006	7.62
764.322	7.66
764.638	7.69
764.954	7.68
765.27	7.66
765.585	7.65
765.901	7.66
766.216	7.37
766.532	7.23
766.848	7.23
767.163	7.19
767.478	6.91
767.794	6.96
768.109	6.92
768.424	6.92
768.74	6.79
769.055	7.05
769.37	6.86
769.685	6.8
770	6.87
770.315	6.77
770.63	6.64
770.945	6.52
771.26	6.49
771.575	6.47
771.89	6.39
772.205	6.47
772.52	6.29
772.834	6.58
773.149	6.71
773.464	6.97
773.778	7.14
774.093	7.48
774.407	7.56
774.722	7.56
775.036	7.69
775.351	7.87
775.665	7.74
775.979	7.94
776.293	8.15
776.608	8.29
776.922	8.1
777.236	8.14
777.55	8.27
777.864	8.44
778.178	8.64
778.492	8.82
778.806	8.59
779.12	8.63
779.434	8.87
779.747	8.9
780.061	8.8
780.375	8.52
780.689	8.49
781.002	8.31
781.316	8.34
781.629	8.33
781.943	8.14
782.256	7.86
782.57	7.54
782.883	7.21
783.196	7.08
783.51	7.1
783.823	7.13
784.136	7.02
784.449	6.62
784.762	6.78
785.075	6.99
785.388	7.23
785.701	7.34
786.014	7.09
786.327	7.27
786.64	7.22
786.953	7.24
787.266	7.69
787.578	7.77
787.891	7.95
788.204	7.83
788.516	8.25
788.829	8.48
789.141	8.62
789.454	8.92
789.766	9.28
790.079	9.53
790.391	9.59
790.703	9.63
791.016	9.92
791.328	9.98
791.64	9.73
791.952	9.2
792.264	8.99
792.576	9.3
792.888	9.11
793.2	9.33
793.512	9.49
793.824	9.44
794.136	9.55
794.448	9.59
794.76	10.04
795.071	9.76
795.383	9.46
795.695	9.6
796.006	9.35
796.318	9.23
796.629	9.03
796.941	8.67
797.252	8.47
797.564	8.57
797.875	8.2
798.186	8.21
798.497	8.57
798.809	9.03
799.12	8.63
799.431	8.63
799.742	8.55
800.053	8.32
800.364	7.92
800.675	8.12
800.986	7.98
801.297	7.4
801.608	7.43
801.918	7.85
802.229	7.67
802.54	8
802.851	8.6
803.161	8.58
803.472	8.92
803.782	9.25
804.093	8.83
804.403	8.7
804.714	8.9
805.024	8.72
805.334	8.26
805.645	8.68
805.955	8.51
806.265	8.83
806.575	9.23
806.885	9.51
807.195	9.91
807.505	9.58
807.815	9.64
808.125	9.4
808.435	9.08
808.745	9.02
809.055	9.27
809.365	8.15
809.674	8
809.984	8.39
810.294	8.64
810.603	8.77
810.913	8.82
811.222	8.61
811.532	8.86
811.841	9.6
812.151	9.6
812.46	10.04
812.769	9.73
813.079	9.57
813.388	9.33
813.697	8.7
814.006	9.22
814.315	9.39
814.624	9.46
814.933	9.57
815.242	9.55
815.551	9.85
815.86	9.96
816.169	9.8
816.478	9.69
816.786	9.82
817.095	10.14
817.404	10.19
817.712	10.19
818.021	10.21
818.33	9.8
818.638	9.93
818.947	9.98
819.255	9.7
819.563	9.92
819.872	9.84
820.18	9.83
820.488	9.67
820.796	9.63
821.105	9.79
821.413	9.83
821.721	9.86
822.029	9.68
822.337	9.73
822.645	9.93
822.953	9.82
823.26	9.69
823.568	9.66
823.876	9.51
824.184	9.47
824.491	9.42
824.799	9.45
825.107	9.28
825.414	9.26
825.722	9.33
826.029	9.23
826.337	9.31
826.644	9.4
826.951	9.55
827.259	9.56
827.566	9.54
827.873	9.64
828.18	9.69
828.488	9.61
828.795	9.52
829.102	9.33
829.409	8.98
829.716	9.24
830.023	9.18
830.329	9.63
830.636	9.63
830.943	9.62
831.25	9.66
831.557	9.65
831.863	9.72
832.17	9.6
832.476	9.54
832.783	9.39
833.089	9.22
833.396	8.9
833.702	8.87
834.009	8.87
834.315	8.35
834.621	8.4
834.928	8.2
835.234	8.38
835.54	8.63
835.846	9.18
836.152	8.71
836.458	8.76
836.764	8.48
837.07	8.66
837.376	8.75
837.682	8.37
837.988	8.75
838.293	8.47
838.599	8.44
838.905	8.43
839.211	8.43
839.516	8.02
839.822	8.25
840.127	8.03
840.433	7.59
840.738	8.59
841.044	8.8
841.349	9.32
841.654	9.28
841.959	8.98
842.265	8.93
842.57	9.46
842.875	9.06
843.18	8.5
843.485	8.58
843.79	8.45
844.095	9.37
844.4	8.91
844.705	9.19
845.01	9.17
845.315	9.09
845.619	9.38
845.924	9.07
846.229	9.33
846.533	9.37
846.838	9.44
847.142	7.9
847.447	7.1
847.751	7.11
848.056	7.95
848.36	8.77
848.664	8.77
848.969	7.8
849.273	8.41
849.577	9.42
849.881	9.19
850.185	9.32
850.489	10.41
850.794	11.49
851.097	11.96
851.401	11.8
851.705	11.5
852.009	11.1
852.313	12.86
852.617	11.49
852.92	11.45
853.224	12.31
853.528	11.85
853.831	12.1
854.135	11.8
854.438	11.22
854.742	10.47
855.045	7.87
855.349	8.23
855.652	6.47
855.955	6.9
856.259	6.93
856.562	6.95
856.865	5.4
857.168	4.07
857.471	2.54
857.774	3.95
858.077	3.27
858.38	4.2
858.683	5.53
858.986	6.28
859.289	7.39
859.592	6.44
859.894	6.74
860.197	4.89
860.5	5.44
860.802	4.71
861.105	3.53
861.407	5.75
861.71	5.29
862.012	9.36
862.315	9.33
862.617	8.9
862.919	9.26
863.222	7.6
863.524	7.45
863.826	7.28
864.128	7.48
864.43	9.06
864.732	8.44
865.034	5.9
865.336	6.21
865.638	4.46
865.94	3.92
866.242	4.95
866.544	7.71
866.846	7.01
867.147	9.11
867.449	11.11
867.751	10.21
868.052	7.93
868.354	4.98
868.655	6.48
868.957	8.83
869.258	7.75
869.56	10.53
869.861	9.04
870.162	9.15
870.463	8.03
870.765	9.5
871.066	8.79
871.367	9.15
871.668	9.73
871.969	9.06
872.27	9.56
872.571	8.2
872.872	8.39
873.173	8.47
873.473	6.39
873.774	5.44
874.075	6.66
874.376	8.31
874.676	8.59
874.977	8.07
875.277	6.52
875.578	8.61
875.878	7.45
876.179	8.92
876.479	9.67
876.78	10.35
877.08	8.84
877.38	9.42
877.68	9.55
877.981	8.42
878.281	10.41
878.581	11.11
