Data from BU57994_Reflection_00014.txt Node
Date: Mon Nov 18 16:53:26 EST 2019
User: vgr7
Spectrometer: USB2G7710
Scans to average: 3
Trigger mode: 4
Integration Time (sec): 2.000000E-2
Electric dark correction enabled: true
Boxcar width: 10
XAxis mode: Wavelengths
Number of Pixels in Spectrum: 2048
>>>>>Begin Spectral Data<<<<<
177.721	-58.95
178.105	-98.81
178.488	-99.92
178.871	-150
179.254	-213.11
179.636	-34.1
180.019	-113.49
180.402	86.54
180.785	-17.65
181.168	1115.63
181.55	-81.82
181.933	14.95
182.316	82.84
182.698	89.74
183.081	45.64
183.463	64.06
183.846	118.46
184.228	80.94
184.611	122.13
184.993	1133.56
185.376	-170.58
185.758	-951.9
186.14	-927.19
186.522	-283.03
186.904	-405.2
187.287	-384.91
187.669	-169.38
188.051	-244.12
188.433	-207.69
188.815	-118.16
189.197	-175.75
189.579	-152.31
189.961	-113.13
190.342	-96.53
190.724	-92.12
191.106	-93.26
191.488	-75.5
191.869	-78.67
192.251	-107.56
192.633	-103.89
193.014	-94.83
193.396	-112.97
193.777	-61.75
194.159	-46.92
194.54	-84.94
194.922	-60.29
195.303	-69.72
195.684	-62.37
196.065	-62.28
196.447	-81.57
196.828	-107.63
197.209	-66.13
197.59	-56.95
197.971	-43.49
198.352	-12.68
198.733	-4.07
199.114	0.25
199.495	3.6
199.876	-9.29
200.257	-3.53
200.638	0.3
201.018	-3.93
201.399	-9.08
201.78	-14.89
202.16	-29.29
202.541	-27.37
202.922	-59.26
203.302	-42.45
203.683	-41.37
204.063	-45.5
204.444	-28.6
204.824	-35.29
205.204	-37.63
205.585	-38.72
205.965	-62.33
206.345	-86.35
206.725	-99.73
207.106	-118.82
207.486	-181.5
207.866	-153.46
208.246	-169.58
208.626	-223.32
209.006	-193.86
209.386	-210.22
209.766	-154.99
210.145	-136.54
210.525	-100.7
210.905	-72.44
211.285	-61.48
211.664	-68.94
212.044	-64.03
212.424	-70.39
212.803	-80.55
213.183	-82.51
213.562	-64.9
213.942	-62.27
214.321	-59.01
214.701	-49.1
215.08	-53.12
215.459	-50.82
215.838	-40
216.218	-43.45
216.597	-31.71
216.976	-24.42
217.355	-15.81
217.734	-27.51
218.113	-28.4
218.492	-23.49
218.871	-28.1
219.25	-33.31
219.629	-34.34
220.008	-43.08
220.387	-29.76
220.766	-38.35
221.144	-48.49
221.523	-63.7
221.902	-52.3
222.28	-56.95
222.659	-59.63
223.037	-46.48
223.416	-44.67
223.794	-36.09
224.173	-37.77
224.551	-33.57
224.929	-41.92
225.308	-38.86
225.686	-29.21
226.064	-18.57
226.442	-19.14
226.821	-14.88
227.199	-13.43
227.577	-12.39
227.955	-9.58
228.333	-15.64
228.711	-9.65
229.089	-7.2
229.467	-4.91
229.845	-3.36
230.222	-3.49
230.6	-2.07
230.978	-1.32
231.356	1.41
231.733	0.43
232.111	2.73
232.488	2.16
232.866	1.87
233.243	1.39
233.621	0.9
233.998	0.01
234.376	0.37
234.753	1
235.13	2.37
235.508	3.34
235.885	3.81
236.262	4.88
236.639	4.66
237.016	4.48
237.393	4.29
237.77	4
238.147	4.35
238.524	3.56
238.901	2.68
239.278	2.66
239.655	4.22
240.032	3.86
240.409	3.77
240.785	3.96
241.162	4.32
241.539	4.31
241.915	4.52
242.292	3.95
242.668	3.92
243.045	3.6
243.421	3.77
243.798	3.55
244.174	3.69
244.551	3.85
244.927	3.6
245.303	3.69
245.679	3.76
246.056	3.87
246.432	3.91
246.808	4.3
247.184	4.17
247.56	3.67
247.936	3.66
248.312	3.53
248.688	3.6
249.064	3.36
249.44	3.52
249.815	3.33
250.191	3.5
250.567	3.45
250.943	3.42
251.318	3.07
251.694	3.19
252.069	2.95
252.445	2.71
252.82	2.78
253.196	2.65
253.571	2.57
253.947	2.15
254.322	2.36
254.697	2.25
255.073	2.01
255.448	1.97
255.823	2.04
256.198	2.37
256.573	2.27
256.948	2.54
257.323	2.5
257.698	2.45
258.073	2.45
258.448	2.55
258.823	2.48
259.198	2.59
259.573	2.59
259.948	2.71
260.322	2.71
260.697	2.68
261.072	2.68
261.446	2.64
261.821	2.84
262.195	2.84
262.57	2.78
262.944	2.86
263.319	2.87
263.693	2.92
264.067	3
264.442	3.2
264.816	3.24
265.19	3.18
265.564	3.23
265.938	3.25
266.313	3.15
266.687	3.27
267.061	3.34
267.435	3.2
267.809	3.04
268.183	3.16
268.556	3.17
268.93	3.2
269.304	3.17
269.678	3.11
270.051	2.98
270.425	2.84
270.799	2.85
271.172	2.93
271.546	2.71
271.919	2.46
272.293	2.39
272.666	2.28
273.04	2.39
273.413	2.49
273.787	2.52
274.16	2.44
274.533	2.35
274.906	2.31
275.279	2.36
275.653	2.36
276.026	2.22
276.399	2.18
276.772	2.17
277.145	2.1
277.518	2.12
277.891	2.1
278.263	2.08
278.636	2.05
279.009	2.02
279.382	2.34
279.755	2.5
280.127	2.51
280.5	2.48
280.872	2.56
281.245	2.51
281.617	2.49
281.99	2.58
282.362	2.7
282.735	2.56
283.107	2.63
283.479	2.74
283.852	2.77
284.224	2.81
284.596	2.87
284.968	2.93
285.34	2.86
285.713	2.85
286.085	2.91
286.457	3.01
286.829	3.07
287.201	2.99
287.572	2.86
287.944	2.82
288.316	2.89
288.688	2.68
289.06	2.6
289.431	2.65
289.803	2.75
290.175	2.84
290.546	3.06
290.918	3.16
291.289	3.27
291.661	3.32
292.032	3.34
292.403	3.34
292.775	3.45
293.146	3.58
293.517	3.64
293.889	3.8
294.26	3.81
294.631	3.84
295.002	3.8
295.373	3.95
295.744	3.99
296.115	3.96
296.486	3.97
296.857	4.06
297.228	4.1
297.599	4.08
297.97	4.01
298.34	4.03
298.711	3.93
299.082	3.78
299.452	3.83
299.823	3.94
300.194	4.01
300.564	3.91
300.935	3.95
301.305	4.02
301.676	3.97
302.046	4.03
302.416	4.04
302.787	4.13
303.157	4.16
303.527	4.23
303.897	4.41
304.267	4.65
304.637	4.67
305.008	4.79
305.378	4.88
305.748	5.01
306.117	4.95
306.487	5
306.857	5.25
307.227	5.39
307.597	5.4
307.967	5.38
308.336	5.52
308.706	5.56
309.076	5.59
309.445	5.57
309.815	5.46
310.184	5.4
310.554	5.5
310.923	5.57
311.293	5.67
311.662	5.57
312.031	5.56
312.401	5.63
312.77	5.7
313.139	5.63
313.508	5.66
313.877	5.76
314.246	5.77
314.616	5.68
314.985	5.72
315.353	5.81
315.722	5.94
316.091	6.02
316.46	6.02
316.829	6.19
317.198	6.32
317.567	6.49
317.935	6.71
318.304	6.83
318.672	6.8
319.041	6.88
319.41	7.1
319.778	7.21
320.147	7.27
320.515	7.18
320.883	7.24
321.252	7.31
321.62	7.39
321.988	7.5
322.357	7.44
322.725	7.37
323.093	7.44
323.461	7.43
323.829	7.46
324.197	7.56
324.565	7.5
324.933	7.54
325.301	7.59
325.669	7.6
326.037	7.56
326.405	7.66
326.772	7.62
327.14	7.64
327.508	7.6
327.875	7.57
328.243	7.63
328.61	7.78
328.978	7.83
329.346	8.02
329.713	8.05
330.08	8.27
330.448	8.32
330.815	8.19
331.182	8.24
331.55	8.4
331.917	8.5
332.284	8.57
332.651	8.7
333.018	8.9
333.385	8.91
333.752	9.08
334.119	9.23
334.486	9.27
334.853	9.36
335.22	9.44
335.587	9.61
335.954	9.69
336.32	9.73
336.687	9.74
337.054	9.65
337.42	9.7
337.787	9.75
338.153	9.83
338.52	10.02
338.886	10
339.253	9.87
339.619	9.97
339.986	10
340.352	10.09
340.718	10.14
341.084	10.16
341.451	10.03
341.817	9.95
342.183	9.97
342.549	9.96
342.915	9.92
343.281	9.92
343.647	9.99
344.013	10.03
344.379	10.04
344.745	10.16
345.11	10.15
345.476	10.2
345.842	10.3
346.208	10.27
346.573	10.24
346.939	10.35
347.304	10.32
347.67	10.29
348.035	10.2
348.401	10.16
348.766	10.17
349.132	10.22
349.497	10.18
349.862	10.22
350.228	10.22
350.593	10.24
350.958	10.18
351.323	10.11
351.688	9.98
352.053	9.96
352.418	9.89
352.783	9.9
353.148	9.9
353.513	9.84
353.878	9.77
354.243	9.93
354.608	9.88
354.972	9.8
355.337	9.86
355.702	9.84
356.066	9.84
356.431	9.82
356.795	9.86
357.16	9.89
357.524	9.8
357.889	9.73
358.253	9.79
358.618	9.75
358.982	9.81
359.346	9.86
359.71	9.91
360.075	9.93
360.439	9.92
360.803	9.88
361.167	9.81
361.531	9.83
361.895	9.74
362.259	9.62
362.623	9.6
362.987	9.54
363.351	9.51
363.714	9.44
364.078	9.43
364.442	9.32
364.806	9.28
365.169	9.27
365.533	9.22
365.896	9.11
366.26	9.08
366.623	8.9
366.987	8.82
367.35	8.74
367.714	8.66
368.077	8.62
368.44	8.52
368.803	8.52
369.167	8.36
369.53	8.23
369.893	8.31
370.256	8.22
370.619	8.15
370.982	8.03
371.345	7.98
371.708	7.94
372.071	7.88
372.434	7.77
372.797	7.63
373.159	7.58
373.522	7.57
373.885	7.5
374.247	7.56
374.61	7.51
374.973	7.38
375.335	7.25
375.698	7.15
376.06	7.12
376.423	7.02
376.785	7.06
377.147	7.01
377.51	6.91
377.872	6.91
378.234	6.86
378.596	6.84
378.958	6.79
379.321	6.74
379.683	6.72
380.045	6.71
380.407	6.67
380.769	6.58
381.13	6.48
381.492	6.45
381.854	6.35
382.216	6.28
382.578	6.23
382.939	6.15
383.301	6.15
383.663	6.01
384.024	5.89
384.386	5.86
384.747	5.86
385.109	5.82
385.47	5.74
385.832	5.66
386.193	5.69
386.554	5.6
386.916	5.51
387.277	5.48
387.638	5.46
387.999	5.42
388.36	5.43
388.721	5.39
389.082	5.35
389.443	5.28
389.804	5.22
390.165	5.19
390.526	5.17
390.887	5.07
391.248	5.05
391.609	5.04
391.969	4.93
392.33	4.85
392.691	4.81
393.051	4.75
393.412	4.73
393.772	4.61
394.133	4.62
394.493	4.59
394.854	4.55
395.214	4.48
395.574	4.47
395.935	4.41
396.295	4.42
396.655	4.37
397.015	4.37
397.376	4.36
397.736	4.3
398.096	4.28
398.456	4.28
398.816	4.28
399.176	4.24
399.535	4.26
399.895	4.23
400.255	4.21
400.615	4.22
400.975	4.21
401.334	4.19
401.694	4.14
402.054	4.15
402.413	4.09
402.773	4.08
403.132	4.01
403.492	4.04
403.851	4.03
404.211	4.02
404.57	4
404.929	3.97
405.288	4
405.648	4
406.007	3.97
406.366	3.94
406.725	3.97
407.084	3.96
407.443	3.96
407.802	3.95
408.161	3.92
408.52	3.87
408.879	3.89
409.238	3.91
409.596	3.89
409.955	3.89
410.314	3.89
410.673	3.92
411.031	3.87
411.39	3.83
411.748	3.83
412.107	3.83
412.465	3.81
412.824	3.78
413.182	3.75
413.54	3.77
413.899	3.76
414.257	3.73
414.615	3.69
414.974	3.7
415.332	3.65
415.69	3.62
416.048	3.6
416.406	3.58
416.764	3.54
417.122	3.51
417.48	3.48
417.838	3.47
418.195	3.47
418.553	3.45
418.911	3.43
419.269	3.42
419.626	3.39
419.984	3.38
420.342	3.37
420.699	3.36
421.057	3.34
421.414	3.32
421.772	3.3
422.129	3.29
422.486	3.28
422.844	3.29
423.201	3.28
423.558	3.27
423.915	3.24
424.273	3.24
424.63	3.23
424.987	3.22
425.344	3.21
425.701	3.19
426.058	3.19
426.415	3.18
426.772	3.17
427.128	3.16
427.485	3.16
427.842	3.14
428.199	3.15
428.555	3.15
428.912	3.16
429.269	3.17
429.625	3.17
429.982	3.14
430.338	3.12
430.695	3.14
431.051	3.13
431.407	3.15
431.764	3.14
432.12	3.14
432.476	3.14
432.832	3.14
433.189	3.14
433.545	3.14
433.901	3.14
434.257	3.14
434.613	3.14
434.969	3.15
435.325	3.15
435.681	3.14
436.036	3.12
436.392	3.12
436.748	3.12
437.104	3.12
437.459	3.13
437.815	3.14
438.171	3.13
438.526	3.14
438.882	3.14
439.237	3.15
439.593	3.16
439.948	3.15
440.304	3.16
440.659	3.15
441.014	3.15
441.369	3.13
441.725	3.12
442.08	3.11
442.435	3.1
442.79	3.1
443.145	3.09
443.5	3.07
443.855	3.07
444.21	3.08
444.565	3.08
444.92	3.07
445.275	3.06
445.629	3.04
445.984	3.04
446.339	3.02
446.693	3
447.048	2.98
447.403	2.98
447.757	2.97
448.112	2.96
448.466	2.96
448.82	2.97
449.175	2.98
449.529	2.96
449.883	2.96
450.238	2.94
450.592	2.93
450.946	2.93
451.3	2.9
451.654	2.89
452.008	2.89
452.362	2.88
452.716	2.89
453.07	2.89
453.424	2.9
453.778	2.91
454.132	2.9
454.486	2.89
454.839	2.89
455.193	2.89
455.547	2.91
455.9	2.9
456.254	2.9
456.607	2.89
456.961	2.88
457.314	2.88
457.668	2.89
458.021	2.89
458.375	2.9
458.728	2.92
459.081	2.91
459.434	2.91
459.787	2.91
460.141	2.89
460.494	2.89
460.847	2.89
461.2	2.9
461.553	2.91
461.906	2.92
462.259	2.94
462.611	2.96
462.964	2.97
463.317	2.97
463.67	2.98
464.022	3.01
464.375	3.03
464.728	3.04
465.08	3.06
465.433	3.08
465.785	3.09
466.138	3.09
466.49	3.11
466.843	3.1
467.195	3.13
467.547	3.19
467.899	3.2
468.252	3.2
468.604	3.21
468.956	3.21
469.308	3.23
469.66	3.22
470.012	3.21
470.364	3.2
470.716	3.21
471.068	3.21
471.42	3.19
471.772	3.22
472.123	3.26
472.475	3.27
472.827	3.27
473.178	3.29
473.53	3.28
473.882	3.31
474.233	3.31
474.585	3.31
474.936	3.28
475.288	3.27
475.639	3.28
475.99	3.28
476.342	3.28
476.693	3.28
477.044	3.29
477.395	3.3
477.746	3.31
478.097	3.28
478.448	3.27
478.8	3.28
479.15	3.25
479.501	3.21
479.852	3.21
480.203	3.21
480.554	3.2
480.905	3.19
481.255	3.18
481.606	3.18
481.957	3.19
482.307	3.18
482.658	3.19
483.009	3.19
483.359	3.18
483.709	3.18
484.06	3.17
484.41	3.17
484.761	3.17
485.111	3.16
485.461	3.16
485.811	3.17
486.162	3.16
486.512	3.18
486.862	3.19
487.212	3.18
487.562	3.18
487.912	3.18
488.262	3.18
488.612	3.18
488.961	3.18
489.311	3.17
489.661	3.19
490.011	3.19
490.36	3.19
490.71	3.2
491.06	3.21
491.409	3.22
491.759	3.23
492.108	3.23
492.458	3.25
492.807	3.26
493.157	3.28
493.506	3.3
493.855	3.29
494.204	3.28
494.554	3.3
494.903	3.32
495.252	3.34
495.601	3.37
495.95	3.39
496.299	3.43
496.648	3.45
496.997	3.46
497.346	3.48
497.695	3.5
498.043	3.53
498.392	3.54
498.741	3.57
499.09	3.6
499.438	3.64
499.787	3.69
500.135	3.72
500.484	3.75
500.832	3.8
501.181	3.85
501.529	3.92
501.878	3.97
502.226	4.04
502.574	4.1
502.923	4.13
503.271	4.2
503.619	4.24
503.967	4.3
504.315	4.36
504.663	4.43
505.011	4.51
505.359	4.6
505.707	4.71
506.055	4.79
506.403	4.88
506.751	4.96
507.098	5.05
507.446	5.15
507.794	5.25
508.141	5.35
508.489	5.46
508.837	5.57
509.184	5.69
509.531	5.8
509.879	5.93
510.226	6.08
510.574	6.22
510.921	6.34
511.268	6.48
511.616	6.62
511.963	6.79
512.31	6.94
512.657	7.09
513.004	7.24
513.351	7.41
513.698	7.58
514.045	7.77
514.392	7.94
514.739	8.12
515.086	8.31
515.432	8.48
515.779	8.66
516.126	8.85
516.473	9.04
516.819	9.21
517.166	9.36
517.512	9.51
517.859	9.64
518.205	9.82
518.552	9.99
518.898	10.16
519.245	10.3
519.591	10.45
519.937	10.6
520.283	10.76
520.629	10.97
520.976	11.18
521.322	11.38
521.668	11.6
522.014	11.83
522.36	12.07
522.706	12.31
523.052	12.58
523.398	12.83
523.743	13.1
524.089	13.36
524.435	13.62
524.781	13.85
525.126	14.09
525.472	14.3
525.817	14.49
526.163	14.65
526.509	14.82
526.854	14.99
527.199	15.14
527.545	15.29
527.89	15.43
528.235	15.57
528.581	15.73
528.926	15.89
529.271	16.06
529.616	16.2
529.961	16.35
530.306	16.51
530.651	16.67
530.996	16.84
531.341	17.02
531.686	17.21
532.031	17.43
532.376	17.63
532.721	17.84
533.065	18.05
533.41	18.28
533.755	18.5
534.099	18.72
534.444	18.96
534.788	19.19
535.133	19.39
535.477	19.63
535.822	19.86
536.166	20.09
536.51	20.33
536.855	20.61
537.199	20.91
537.543	21.17
537.887	21.47
538.231	21.75
538.576	22.05
538.92	22.34
539.264	22.62
539.608	22.87
539.951	23.11
540.295	23.34
540.639	23.58
540.983	23.8
541.327	24.05
541.671	24.26
542.014	24.48
542.358	24.7
542.701	24.91
543.045	25.13
543.389	25.35
543.732	25.57
544.075	25.83
544.419	26.06
544.762	26.29
545.105	26.54
545.449	26.79
545.792	27.03
546.135	27.32
546.478	27.59
546.821	27.9
547.165	28.21
547.508	28.56
547.851	28.85
548.194	29.16
548.536	29.46
548.879	29.83
549.222	30.12
549.565	30.47
549.908	30.8
550.25	31.1
550.593	31.42
550.936	31.7
551.278	31.96
551.621	32.25
551.963	32.58
552.306	32.92
552.648	33.27
552.991	33.61
553.333	33.9
553.675	34.16
554.017	34.44
554.36	34.72
554.702	34.93
555.044	35.2
555.386	35.5
555.728	35.77
556.07	36.01
556.412	36.32
556.754	36.56
557.096	36.89
557.438	37.18
557.78	37.44
558.121	37.76
558.463	38.04
558.805	38.36
559.147	38.6
559.488	38.88
559.83	39.1
560.171	39.35
560.513	39.57
560.854	39.86
561.196	40.06
561.537	40.3
561.878	40.56
562.22	40.84
562.561	41.13
562.902	41.39
563.243	41.56
563.584	41.78
563.925	42
564.266	42.16
564.607	42.4
564.948	42.59
565.289	42.83
565.63	43.02
565.971	43.21
566.312	43.44
566.653	43.6
566.993	43.81
567.334	43.99
567.675	44.16
568.015	44.38
568.356	44.53
568.696	44.71
569.037	44.88
569.377	45.05
569.718	45.17
570.058	45.28
570.398	45.53
570.739	45.7
571.079	45.89
571.419	46.04
571.759	46.19
572.099	46.42
572.439	46.52
572.779	46.66
573.119	46.8
573.459	46.98
573.799	47.12
574.139	47.25
574.479	47.38
574.819	47.5
575.158	47.62
575.498	47.86
575.838	48.05
576.177	48.17
576.517	48.29
576.856	48.48
577.196	48.66
577.535	48.73
577.875	48.87
578.214	48.95
578.553	49.12
578.893	49.29
579.232	49.35
579.571	49.53
579.91	49.71
580.25	49.83
580.589	49.91
580.928	50.09
581.267	50.18
581.606	50.39
581.945	50.56
582.283	50.69
582.622	50.79
582.961	50.91
583.3	51.04
583.639	51.17
583.977	51.26
584.316	51.38
584.654	51.49
584.993	51.55
585.332	51.72
585.67	51.83
586.008	51.94
586.347	52.16
586.685	52.26
587.024	52.41
587.362	52.54
587.7	52.68
588.038	52.75
588.376	52.83
588.715	52.83
589.053	52.92
589.391	53.02
589.729	53.11
590.067	53.24
590.404	53.4
590.742	53.43
591.08	53.51
591.418	53.57
591.756	53.74
592.093	53.85
592.431	53.99
592.769	54.06
593.106	54.1
593.444	54.08
593.781	54.15
594.119	54.26
594.456	54.33
594.793	54.39
595.131	54.51
595.468	54.63
595.805	54.79
596.143	54.87
596.48	54.93
596.817	54.94
597.154	54.99
597.491	55.02
597.828	55.14
598.165	55.22
598.502	55.27
598.839	55.32
599.176	55.42
599.512	55.43
599.849	55.46
600.186	55.5
600.523	55.58
600.859	55.69
601.196	55.72
601.532	55.79
601.869	55.78
602.205	55.76
602.542	55.84
602.878	55.84
603.215	55.95
603.551	55.94
603.887	56.05
604.223	56.03
604.56	56.07
604.896	56.13
605.232	56.14
605.568	56.15
605.904	56.28
606.24	56.34
606.576	56.4
606.912	56.48
607.248	56.63
607.583	56.71
607.919	56.73
608.255	56.71
608.591	56.76
608.926	56.89
609.262	56.99
609.597	56.98
609.933	57.1
610.268	57.07
610.604	57.17
610.939	57.18
611.275	57.23
611.61	57.24
611.945	57.29
612.281	57.35
612.616	57.43
612.951	57.35
613.286	57.43
613.621	57.43
613.956	57.46
614.291	57.45
614.626	57.51
614.961	57.56
615.296	57.57
615.631	57.66
615.966	57.56
616.3	57.53
616.635	57.56
616.97	57.42
617.304	57.44
617.639	57.42
617.973	57.44
618.308	57.54
618.642	57.63
618.977	57.54
619.311	57.54
619.646	57.64
619.98	57.72
620.314	57.71
620.648	57.73
620.983	57.78
621.317	57.83
621.651	57.81
621.985	57.83
622.319	57.95
622.653	57.95
622.987	58.07
623.321	58.17
623.655	58.14
623.988	58.26
624.322	58.29
624.656	58.38
624.99	58.46
625.323	58.45
625.657	58.48
625.99	58.59
626.324	58.63
626.657	58.65
626.991	58.63
627.324	58.68
627.658	58.76
627.991	58.82
628.324	58.86
628.657	58.91
628.991	58.83
629.324	58.85
629.657	58.81
629.99	58.78
630.323	58.73
630.656	58.87
630.989	58.89
631.322	58.94
631.655	58.94
631.987	58.86
632.32	58.84
632.653	58.75
632.986	58.81
633.318	58.89
633.651	58.9
633.984	58.9
634.316	58.9
634.649	58.92
634.981	58.91
635.313	58.86
635.646	58.92
635.978	59.06
636.31	59.08
636.643	59.16
636.975	59.36
637.307	59.44
637.639	59.44
637.971	59.47
638.303	59.48
638.635	59.43
638.967	59.51
639.299	59.6
639.631	59.73
639.963	59.72
640.295	59.67
640.626	59.72
640.958	59.84
641.29	59.89
641.621	59.88
641.953	59.86
642.285	59.9
642.616	59.89
642.948	59.87
643.279	59.93
643.61	59.88
643.942	59.7
644.273	59.6
644.604	59.64
644.936	59.6
645.267	59.6
645.598	59.7
645.929	59.8
646.26	59.77
646.591	59.8
646.922	59.79
647.253	59.72
647.584	59.73
647.915	59.64
648.245	59.65
648.576	59.66
648.907	59.69
649.238	59.66
649.568	59.6
649.899	59.7
650.229	59.67
650.56	59.73
650.89	59.78
651.221	59.89
651.551	59.86
651.882	59.85
652.212	59.96
652.542	60.03
652.872	60.03
653.203	60.02
653.533	59.96
653.863	59.8
654.193	59.88
654.523	59.92
654.853	59.99
655.183	59.95
655.513	59.89
655.843	59.92
656.172	59.97
656.502	60.01
656.832	59.92
657.162	59.97
657.491	60.01
657.821	60.04
658.15	60.1
658.48	60.15
658.809	60.19
659.139	60.17
659.468	60.11
659.798	60.14
660.127	60.08
660.456	60.14
660.785	60.29
661.115	60.36
661.444	60.34
661.773	60.23
662.102	60.17
662.431	60.11
662.76	60.13
663.089	60
663.418	59.93
663.747	59.92
664.076	59.85
664.404	59.76
664.733	59.77
665.062	59.79
665.39	59.67
665.719	59.61
666.048	59.53
666.376	59.54
666.705	59.42
667.033	59.5
667.362	59.55
667.69	59.64
668.018	59.5
668.347	59.37
668.675	59.59
669.003	59.77
669.331	59.98
669.659	60.01
669.987	60.06
670.315	60.11
670.643	60.24
670.971	60.24
671.299	60.23
671.627	60.22
671.955	60.08
672.283	60.21
672.61	60.32
672.938	60.23
673.266	60.14
673.593	60.24
673.921	60.41
674.249	60.38
674.576	60.24
674.904	60.32
675.231	60.41
675.558	60.19
675.886	60.16
676.213	60.16
676.54	60.15
676.867	60.27
677.195	60.31
677.522	60.22
677.849	60.27
678.176	60.42
678.503	60.43
678.83	60.48
679.157	60.38
679.484	60.37
679.81	60.4
680.137	60.45
680.464	60.23
680.791	60.07
681.117	60.1
681.444	60.18
681.771	60.3
682.097	60.42
682.424	60.45
682.75	60.36
683.077	60.31
683.403	60.35
683.729	60.38
684.056	60.29
684.382	60.29
684.708	60.23
685.034	60.15
685.36	60.1
685.686	60.15
686.012	60.19
686.339	60.13
686.664	60.38
686.99	60.44
687.316	60.61
687.642	60.69
687.968	60.67
688.294	60.7
688.619	60.63
688.945	60.43
689.271	60.42
689.596	60.26
689.922	60.23
690.247	60.16
690.573	60.09
690.898	60.17
691.224	60.17
691.549	60.18
691.874	60.16
692.2	60.24
692.525	60.16
692.85	60.15
693.175	60.14
693.5	59.85
693.825	59.79
694.15	59.75
694.475	59.65
694.8	59.77
695.125	59.72
695.45	59.55
695.775	59.68
696.099	59.95
696.424	60.01
696.749	59.95
697.073	59.99
697.398	60
697.723	60.09
698.047	60.09
698.372	60.1
698.696	60.08
699.02	59.99
699.345	59.91
699.669	59.88
699.993	60.1
700.318	60.09
700.642	60.17
700.966	60.24
701.29	60.3
701.614	60.11
701.938	60.08
702.262	60.16
702.586	60.13
702.91	59.9
703.234	60.13
703.557	60.32
703.881	60.28
704.205	60.27
704.529	60.34
704.852	60.42
705.176	60.22
705.499	60.23
705.823	60.27
706.146	60.45
706.47	60.42
706.793	60.16
707.117	60.25
707.44	60.2
707.763	60.16
708.086	60.09
708.409	60.37
708.733	60.43
709.056	60.36
709.379	60.46
709.702	60.45
710.025	60.2
710.348	60.03
710.671	60.1
710.993	60.13
711.316	59.99
711.639	59.88
711.962	60.08
712.284	60.17
712.607	60.3
712.93	60.09
713.252	60.24
713.575	60.25
713.897	60.38
714.22	60.33
714.542	60.26
714.864	60.49
715.187	60.23
715.509	60.33
715.831	60.41
716.153	60.25
716.475	60.33
716.798	60.47
717.12	60.57
717.442	60.55
717.764	60.53
718.085	60.4
718.407	60.47
718.729	60.37
719.051	60.6
719.373	60.51
719.695	60.74
720.016	60.63
720.338	60.69
720.659	60.61
720.981	60.7
721.302	60.91
721.624	60.97
721.945	61.17
722.267	61.12
722.588	61.2
722.909	61.44
723.231	61.57
723.552	61.39
723.873	61.45
724.194	61.56
724.515	61.59
724.836	61.62
725.157	61.6
725.478	61.58
725.799	61.37
726.12	61.51
726.441	61.42
726.762	61.45
727.083	61.26
727.403	61.29
727.724	61.19
728.045	61.03
728.365	60.85
728.686	60.69
729.006	60.65
729.327	60.63
729.647	60.51
729.967	60.37
730.288	60.72
730.608	60.43
730.928	60.34
731.249	60.34
731.569	60.35
731.889	60.35
732.209	60.38
732.529	60.25
732.849	60.26
733.169	60.1
733.489	60.21
733.809	60.24
734.129	60.23
734.448	60.33
734.768	60.4
735.088	60.33
735.408	60.63
735.727	60.61
736.047	60.44
736.366	60.22
736.686	60.26
737.005	60
737.325	60.16
737.644	60.21
737.963	60.08
738.283	60.38
738.602	60.58
738.921	60.77
739.24	60.58
739.56	60.35
739.879	60.58
740.198	60.55
740.517	60.75
740.836	60.46
741.155	60.33
741.473	60.3
741.792	60.5
742.111	59.94
742.43	60.13
742.748	60.46
743.067	60.61
743.386	60.66
743.704	60.75
744.023	60.9
744.341	60.99
744.66	60.91
744.978	60.71
745.297	60.64
745.615	60.54
745.933	60.43
746.252	60.58
746.57	60.48
746.888	60.59
747.206	60.31
747.524	60.62
747.842	60.62
748.16	60.61
748.478	60.41
748.796	60.85
749.114	60.62
749.432	60.16
749.749	60.05
750.067	59.94
750.385	59.64
750.703	59.3
751.02	59.2
751.338	59.23
751.655	58.98
751.973	58.9
752.29	58.81
752.608	59.03
752.925	59.11
753.242	59.46
753.56	59.21
753.877	59.18
754.194	58.9
754.511	59.13
754.828	59.16
755.145	58.96
755.462	58.93
755.779	58.92
756.096	59
756.413	58.98
756.73	58.95
757.047	59.19
757.364	59.52
757.68	59.37
757.997	59.59
758.314	59.6
758.63	59.55
758.947	59.89
759.264	60.18
759.58	60.05
759.896	59.95
760.213	60.01
760.529	60.57
760.846	60.54
761.162	60.37
761.478	60.41
761.794	60.47
762.11	60.39
762.426	60.53
762.743	60.61
763.059	60.82
763.375	60.91
763.69	61.02
764.006	61
764.322	60.96
764.638	60.94
764.954	61.11
765.27	61.33
765.585	61.14
765.901	60.96
766.216	60.8
766.532	60.58
766.848	60.43
767.163	59.96
767.478	60.04
767.794	60.02
768.109	59.84
768.424	59.84
768.74	60.07
769.055	60.01
769.37	59.8
769.685	59.6
770	59.71
770.315	59.69
770.63	59.58
770.945	59.52
771.26	59.79
771.575	59.42
771.89	59.06
772.205	59.17
772.52	59.54
772.834	59.91
773.149	59.98
773.464	60.14
773.778	60.78
774.093	60.6
774.407	60.98
774.722	61.06
775.036	61.21
775.351	61.09
775.665	60.79
775.979	61
776.293	61.14
776.608	60.52
776.922	60.27
777.236	60.5
777.55	60.53
777.864	59.86
778.178	60.34
778.492	60.57
778.806	60.43
779.12	59.82
779.434	59.78
779.747	59.92
780.061	60.14
780.375	59.55
780.689	59.7
781.002	59.79
781.316	60.01
781.629	60.09
781.943	59.95
782.256	60.22
782.57	60.47
782.883	60.12
783.196	60.26
783.51	60.26
783.823	60.18
784.136	59.92
784.449	60.25
784.762	60.12
785.075	59.28
785.388	59.36
785.701	60.08
786.014	59.61
786.327	59.66
786.64	59.59
786.953	59.87
787.266	59.78
787.578	59.49
787.891	59.04
788.204	58.61
788.516	58.54
788.829	58.13
789.141	58.14
789.454	58.22
789.766	58.45
790.079	58.48
790.391	58.41
790.703	59.05
791.016	58.89
791.328	58.75
791.64	59.54
791.952	59.94
792.264	59.7
792.576	60.23
792.888	60.05
793.2	59.95
793.512	59.36
793.824	59.89
794.136	59.8
794.448	60.11
794.76	60.35
795.071	60.09
795.383	60.52
795.695	60.21
796.006	60.28
796.318	60.42
796.629	60.21
796.941	60.28
797.252	59.75
797.564	59.82
797.875	60.35
798.186	59.73
798.497	59.02
798.809	58.56
799.12	58.29
799.431	58.4
799.742	58.53
800.053	59.02
800.364	58.78
800.675	58.68
800.986	58.43
801.297	57.96
801.608	57.8
801.918	57.58
802.229	58.03
802.54	58.36
802.851	58.26
803.161	58.97
803.472	58.74
803.782	59.4
804.093	59.52
804.403	59.26
804.714	59.88
805.024	60.29
805.334	60.56
805.645	61.28
805.955	61.14
806.265	61.31
806.575	61.09
806.885	60.89
807.195	60.18
807.505	60.47
807.815	60.54
808.125	61.27
808.435	61.65
808.745	61.01
809.055	61.06
809.365	61.04
809.674	60.78
809.984	60.73
810.294	60.46
810.603	60.46
810.913	60.1
811.222	59.68
811.532	58.72
811.841	59.5
812.151	59.15
812.46	59.41
812.769	58.98
813.079	58.55
813.388	59.29
813.697	60.82
814.006	60.89
814.315	62.06
814.624	62.21
814.933	61.91
815.242	61.89
815.551	61.9
815.86	62.72
816.169	62.8
816.478	62.79
816.786	62.63
817.095	62.93
817.404	63.51
817.712	63.34
818.021	64.02
818.33	63.6
818.638	62.06
818.947	61.58
819.255	61.72
819.563	62.02
819.872	61.09
820.18	61
820.488	61.11
820.796	60.86
821.105	60.85
821.413	60.93
821.721	61.15
822.029	61.36
822.337	61.19
822.645	61.11
822.953	61.18
823.26	61.05
823.568	61.05
823.876	60.82
824.184	61.14
824.491	61.14
824.799	61.08
825.107	61.36
825.414	61.55
825.722	61.41
826.029	61.57
826.337	61.77
826.644	61.55
826.951	61.25
827.259	61.47
827.566	61.28
827.873	61.4
828.18	61.34
828.488	60.95
828.795	60.64
829.102	60.47
829.409	60.47
829.716	60.55
830.023	59.96
830.329	60.08
830.636	59.67
830.943	59.6
831.25	59.14
831.557	59.29
831.863	58.97
832.17	59.15
832.476	58.76
832.783	58.18
833.089	58.49
833.396	59.14
833.702	58.59
834.009	59.28
834.315	59.09
834.621	58.84
834.928	59.15
835.234	59.95
835.54	60.09
835.846	60.09
836.152	60.33
836.458	60.81
836.764	60.93
837.07	60.87
837.376	60.6
837.682	61.07
837.988	61.03
838.293	60.85
838.599	60.75
838.905	60.64
839.211	61.85
839.516	61.97
839.822	61.92
840.127	62.24
840.433	61.57
840.738	61.57
841.044	61.57
841.349	62.08
841.654	61.75
841.959	62.24
842.265	60.8
842.57	61.32
842.875	61.45
843.18	61.66
843.485	61.28
843.79	61.43
844.095	60.75
844.4	60.74
844.705	61.41
845.01	61.15
845.315	62.45
845.619	61.65
845.924	62.34
846.229	61.92
846.533	62.6
846.838	61.44
847.142	59.76
847.447	59.43
847.751	59.69
848.056	58.42
848.36	57.66
848.664	58.17
848.969	56.52
849.273	56.79
849.577	55.97
849.881	55.04
850.185	56.02
850.489	57.32
850.794	55.08
851.097	54.34
851.401	55.07
851.705	53.02
852.009	53.77
852.313	52.02
852.617	51.62
852.92	51.18
853.224	50.37
853.528	51.82
853.831	52.26
854.135	50.05
854.438	50.76
854.742	50.13
855.045	51.25
855.349	51.99
855.652	51.68
855.955	53.39
856.259	53.09
856.562	52.42
856.865	53.23
857.168	52.83
857.471	53.88
857.774	53.56
858.077	55.1
858.38	54.05
858.683	53.71
858.986	53.69
859.289	52.94
859.592	57.15
859.894	54.34
860.197	54.34
860.5	53.85
860.802	52.79
861.105	53.41
861.407	55.07
861.71	56.7
862.012	58.17
862.315	56.67
862.617	58.15
862.919	57.73
863.222	55.79
863.524	57.24
863.826	57.43
864.128	58.7
864.43	57.43
864.732	59.89
865.034	59.16
865.336	59.57
865.638	58.74
865.94	55.8
866.242	60.68
866.544	60.88
866.846	61.16
867.147	59.75
867.449	59.01
867.751	56.51
868.052	54.62
868.354	52.21
868.655	52.06
868.957	52.64
869.258	52.75
869.56	53.79
869.861	53.87
870.162	52.93
870.463	50.82
870.765	51.55
871.066	49.57
871.367	49.51
871.668	51.62
871.969	53.31
872.27	52.03
872.571	48.27
872.872	48.93
873.173	49.35
873.473	52.25
873.774	50.86
874.075	51.16
874.376	48.98
874.676	52.76
874.977	51.28
875.277	51.11
875.578	50.54
875.878	49.95
876.179	50.3
876.479	50.02
876.78	49.82
877.08	48.84
877.38	49.57
877.68	51.15
877.981	47.52
878.281	45.52
878.581	47.24
