Data from BU57652_Reflection_00004.txt Node
Date: Tue Nov 19 10:43:09 EST 2019
User: vgr7
Spectrometer: USB2G7710
Scans to average: 3
Trigger mode: 4
Integration Time (sec): 2.000000E-2
Electric dark correction enabled: true
Boxcar width: 10
XAxis mode: Wavelengths
Number of Pixels in Spectrum: 2048
>>>>>Begin Spectral Data<<<<<
177.721	17.28
178.105	8.76
178.488	23.79
178.871	-9.47
179.254	-87.1
179.636	12.16
180.019	40.98
180.402	25
180.785	103.28
181.168	72.97
181.55	-3207.69
181.933	555.45
182.316	951.06
182.698	217.15
183.081	209.83
183.463	411.38
183.846	233.97
184.228	466.34
184.611	102.46
184.993	51.3
185.376	41.22
185.758	70.41
186.14	57.1
186.522	70.07
186.904	63.99
187.287	71.5
187.669	74.79
188.051	82.79
188.433	79.07
188.815	70.08
189.197	67.09
189.579	44.73
189.961	38.71
190.342	46.73
190.724	37
191.106	34.07
191.488	11.49
191.869	38.93
192.251	28.74
192.633	35.7
193.014	36.16
193.396	31.92
193.777	39.99
194.159	30.41
194.54	27.78
194.922	35.51
195.303	28.28
195.684	28.25
196.065	26.27
196.447	39.37
196.828	46.27
197.209	42.98
197.59	42.26
197.971	44.07
198.352	35.56
198.733	35.36
199.114	47.44
199.495	59.17
199.876	47.98
200.257	60.76
200.638	64.61
201.018	76.65
201.399	72.88
201.78	48.9
202.16	64.07
202.541	51.6
202.922	37.19
203.302	37.81
203.683	42.63
204.063	24.57
204.444	32.3
204.824	30.56
205.204	37.42
205.585	42.44
205.965	18.74
206.345	32.15
206.725	63.34
207.106	67.93
207.486	61.03
207.866	54.64
208.246	59.45
208.626	52.66
209.006	54.45
209.386	54.41
209.766	81.82
210.145	128.97
210.525	165.09
210.905	274.95
211.285	171.15
211.664	96.47
212.044	137.07
212.424	82.41
212.803	76.46
213.183	68.05
213.562	57.51
213.942	67.7
214.321	63.27
214.701	40.89
215.08	24.14
215.459	24.54
215.838	14.57
216.218	17.17
216.597	14.86
216.976	17.32
217.355	19.5
217.734	16.82
218.113	4.5
218.492	-7.92
218.871	-9.34
219.25	-3.49
219.629	-6.38
220.008	-9.07
220.387	-3.49
220.766	4.69
221.144	4.3
221.523	-3.2
221.902	-6
222.28	3.53
222.659	18.15
223.037	20.89
223.416	18.29
223.794	18.2
224.173	4.22
224.551	2.9
224.929	1.46
225.308	6.74
225.686	8.35
226.064	13.77
226.442	18.81
226.821	22.62
227.199	16.48
227.577	15.64
227.955	16.57
228.333	12.47
228.711	11.96
229.089	11.43
229.467	11.42
229.845	11.23
230.222	8.38
230.6	6.74
230.978	6.44
231.356	8.4
231.733	9.19
232.111	9.87
232.488	10.45
232.866	11.44
233.243	7.81
233.621	7.32
233.998	7.83
234.376	7.43
234.753	6.61
235.13	6.13
235.508	5.32
235.885	6.05
236.262	6.9
236.639	7.4
237.016	6.19
237.393	7.12
237.77	7.97
238.147	9.57
238.524	9
238.901	8.97
239.278	8.29
239.655	8.24
240.032	8.11
240.409	8.85
240.785	8.15
241.162	8.85
241.539	8.92
241.915	8.3
242.292	8.52
242.668	8.57
243.045	8.82
243.421	9.17
243.798	9.05
244.174	8.93
244.551	8.72
244.927	8.77
245.303	8.42
245.679	8.2
246.056	8.03
246.432	7.89
246.808	8.16
247.184	8.1
247.56	8.3
247.936	8.31
248.312	7.95
248.688	8.06
249.064	7.97
249.44	7.77
249.815	7.99
250.191	7.71
250.567	7.47
250.943	7.61
251.318	7.49
251.694	7.32
252.069	7.37
252.445	7.55
252.82	7.87
253.196	7.8
253.571	7.8
253.947	7.36
254.322	7.27
254.697	7.23
255.073	7.26
255.448	6.88
255.823	7.05
256.198	7.01
256.573	7.11
256.948	6.99
257.323	7.24
257.698	7.15
258.073	7.15
258.448	7.36
258.823	7.24
259.198	7.24
259.573	7.13
259.948	7.01
260.322	6.84
260.697	6.68
261.072	6.92
261.446	6.92
261.821	6.94
262.195	7.02
262.57	6.93
262.944	7.02
263.319	7.08
263.693	6.93
264.067	6.9
264.442	6.69
264.816	6.72
265.19	6.39
265.564	6.25
265.938	6.3
266.313	6.12
266.687	6.03
267.061	5.94
267.435	6
267.809	6.07
268.183	6.14
268.556	6.11
268.93	5.9
269.304	5.94
269.678	6.1
270.051	6.13
270.425	6.04
270.799	5.84
271.172	5.8
271.546	5.89
271.919	5.99
272.293	6.09
272.666	6.02
273.04	6.15
273.413	6.24
273.787	6.18
274.16	6.22
274.533	6.14
274.906	6.28
275.279	6.12
275.653	6.03
276.026	5.99
276.399	6.04
276.772	6.03
277.145	5.88
277.518	5.8
277.891	5.84
278.263	5.87
278.636	6.14
279.009	6.12
279.382	6.02
279.755	6.01
280.127	5.94
280.5	6.1
280.872	6.23
281.245	6.06
281.617	6.14
281.99	5.99
282.362	6.17
282.735	6.16
283.107	6.26
283.479	6.29
283.852	6.33
284.224	6.33
284.596	6.47
284.968	6.67
285.34	6.6
285.713	6.6
286.085	6.51
286.457	6.42
286.829	6.37
287.201	6.41
287.572	6.45
287.944	6.68
288.316	6.74
288.688	6.84
289.06	7.01
289.431	7.05
289.803	7.23
290.175	7.13
290.546	7.17
290.918	7.28
291.289	7.24
291.661	7.23
292.032	7.26
292.403	7.18
292.775	7.14
293.146	7.41
293.517	7.43
293.889	7.55
294.26	7.59
294.631	7.71
295.002	7.7
295.373	7.76
295.744	7.62
296.115	7.52
296.486	7.57
296.857	7.64
297.228	7.52
297.599	7.52
297.97	7.71
298.34	7.64
298.711	7.83
299.082	7.84
299.452	7.87
299.823	7.94
300.194	8.1
300.564	8.18
300.935	8.14
301.305	8.12
301.676	7.98
302.046	8.14
302.416	8.21
302.787	8.33
303.157	8.42
303.527	8.53
303.897	8.59
304.267	8.4
304.637	8.43
305.008	8.69
305.378	8.74
305.748	8.56
306.117	8.67
306.487	8.48
306.857	8.67
307.227	8.77
307.597	8.78
307.967	8.76
308.336	8.71
308.706	8.72
309.076	8.8
309.445	9.13
309.815	9.08
310.184	9.06
310.554	9.13
310.923	8.99
311.293	8.97
311.662	9.02
312.031	9.16
312.401	9.06
312.77	9.04
313.139	9.09
313.508	9.27
313.877	9.39
314.246	9.42
314.616	9.45
314.985	9.33
315.353	9.27
315.722	9.33
316.091	9.35
316.46	9.35
316.829	9.39
317.198	9.35
317.567	9.38
317.935	9.36
318.304	9.29
318.672	9.44
319.041	9.45
319.41	9.37
319.778	9.28
320.147	9.42
320.515	9.44
320.883	9.32
321.252	9.3
321.62	9.05
321.988	9.07
322.357	9
322.725	9.17
323.093	9.08
323.461	9.16
323.829	9.24
324.197	9.15
324.565	9.16
324.933	9.04
325.301	9.02
325.669	9.18
326.037	9.25
326.405	9.22
326.772	9.25
327.14	9.3
327.508	9.45
327.875	9.46
328.243	9.26
328.61	9.16
328.978	9.06
329.346	9.09
329.713	9.23
330.08	9.39
330.448	9.35
330.815	9.58
331.182	9.58
331.55	9.51
331.917	9.57
332.284	9.6
332.651	9.54
333.018	9.51
333.385	9.42
333.752	9.38
334.119	9.5
334.486	9.44
334.853	9.52
335.22	9.34
335.587	9.24
335.954	9.41
336.32	9.57
336.687	9.61
337.054	9.68
337.42	9.52
337.787	9.22
338.153	9.13
338.52	9.08
338.886	9.01
339.253	9.02
339.619	9.08
339.986	9
340.352	9.17
340.718	9.13
341.084	9.35
341.451	9.41
341.817	9.27
342.183	9.19
342.549	9.2
342.915	9.19
343.281	9.22
343.647	9.24
344.013	9.15
344.379	9.12
344.745	9.03
345.11	9.08
345.476	9.22
345.842	9.28
346.208	9.29
346.573	9.3
346.939	9.24
347.304	9.21
347.67	9.26
348.035	9.14
348.401	9.2
348.766	9.02
349.132	8.94
349.497	8.96
349.862	8.94
350.228	8.91
350.593	8.95
350.958	8.93
351.323	8.97
351.688	9.02
352.053	9.1
352.418	9.15
352.783	9.17
353.148	9.22
353.513	9.17
353.878	9.15
354.243	9.09
354.608	9.16
354.972	9.09
355.337	9.05
355.702	9.06
356.066	8.95
356.431	8.92
356.795	8.96
357.16	9
357.524	9.05
357.889	9.03
358.253	8.96
358.618	8.99
358.982	8.91
359.346	8.95
359.71	8.87
360.075	8.99
360.439	8.97
360.803	8.94
361.167	8.95
361.531	8.88
361.895	8.9
362.259	8.9
362.623	8.95
362.987	8.95
363.351	8.96
363.714	9
364.078	9.05
364.442	9.03
364.806	8.99
365.169	9.02
365.533	9
365.896	9.12
366.26	9.02
366.623	9.02
366.987	8.96
367.35	9.02
367.714	8.94
368.077	8.98
368.44	8.94
368.803	8.89
369.167	8.89
369.53	8.85
369.893	8.85
370.256	8.83
370.619	8.85
370.982	8.87
371.345	8.89
371.708	8.84
372.071	8.76
372.434	8.79
372.797	8.8
373.159	8.85
373.522	8.81
373.885	8.83
374.247	8.84
374.61	8.91
374.973	8.86
375.335	8.83
375.698	8.79
376.06	8.82
376.423	8.85
376.785	8.9
377.147	8.94
377.51	8.9
377.872	8.88
378.234	8.85
378.596	8.93
378.958	8.97
379.321	8.98
379.683	9.04
380.045	9.08
380.407	9.06
380.769	8.97
381.13	8.92
381.492	8.93
381.854	8.99
382.216	8.91
382.578	8.96
382.939	8.98
383.301	8.95
383.663	8.88
384.024	8.94
384.386	8.95
384.747	8.91
385.109	8.96
385.47	8.91
385.832	8.91
386.193	8.84
386.554	8.73
386.916	8.75
387.277	8.7
387.638	8.69
387.999	8.69
388.36	8.73
388.721	8.75
389.082	8.79
389.443	8.77
389.804	8.82
390.165	8.81
390.526	8.82
390.887	8.81
391.248	8.84
391.609	8.8
391.969	8.78
392.33	8.78
392.691	8.72
393.051	8.75
393.412	8.75
393.772	8.75
394.133	8.8
394.493	8.77
394.854	8.79
395.214	8.77
395.574	8.76
395.935	8.73
396.295	8.75
396.655	8.71
397.015	8.67
397.376	8.63
397.736	8.56
398.096	8.56
398.456	8.58
398.816	8.58
399.176	8.53
399.535	8.52
399.895	8.48
400.255	8.5
400.615	8.5
400.975	8.5
401.334	8.5
401.694	8.5
402.054	8.52
402.413	8.52
402.773	8.5
403.132	8.5
403.492	8.5
403.851	8.44
404.211	8.44
404.57	8.47
404.929	8.48
405.288	8.51
405.648	8.46
406.007	8.44
406.366	8.4
406.725	8.4
407.084	8.43
407.443	8.45
407.802	8.43
408.161	8.41
408.52	8.39
408.879	8.37
409.238	8.34
409.596	8.27
409.955	8.24
410.314	8.23
410.673	8.21
411.031	8.2
411.39	8.26
411.748	8.27
412.107	8.23
412.465	8.2
412.824	8.19
413.182	8.19
413.54	8.17
413.899	8.19
414.257	8.2
414.615	8.16
414.974	8.15
415.332	8.15
415.69	8.14
416.048	8.17
416.406	8.11
416.764	8.1
417.122	8.12
417.48	8.13
417.838	8.13
418.195	8.13
418.553	8.12
418.911	8.1
419.269	8.09
419.626	8.08
419.984	8.07
420.342	8.07
420.699	8.05
421.057	8.05
421.414	8.04
421.772	8.04
422.129	8.02
422.486	8.02
422.844	8.03
423.201	8.02
423.558	8
423.915	8.03
424.273	8.01
424.63	8
424.987	7.99
425.344	7.97
425.701	7.96
426.058	7.96
426.415	7.94
426.772	7.92
427.128	7.91
427.485	7.92
427.842	7.91
428.199	7.92
428.555	7.92
428.912	7.89
429.269	7.87
429.625	7.89
429.982	7.87
430.338	7.88
430.695	7.84
431.051	7.81
431.407	7.81
431.764	7.81
432.12	7.81
432.476	7.81
432.832	7.8
433.189	7.8
433.545	7.8
433.901	7.8
434.257	7.82
434.613	7.83
434.969	7.82
435.325	7.83
435.681	7.82
436.036	7.81
436.392	7.81
436.748	7.81
437.104	7.8
437.459	7.79
437.815	7.78
438.171	7.82
438.526	7.82
438.882	7.81
439.237	7.82
439.593	7.8
439.948	7.8
440.304	7.8
440.659	7.79
441.014	7.79
441.369	7.79
441.725	7.79
442.08	7.79
442.435	7.81
442.79	7.78
443.145	7.77
443.5	7.75
443.855	7.75
444.21	7.74
444.565	7.74
444.92	7.73
445.275	7.72
445.629	7.69
445.984	7.68
446.339	7.68
446.693	7.69
447.048	7.68
447.403	7.68
447.757	7.68
448.112	7.66
448.466	7.64
448.82	7.63
449.175	7.6
449.529	7.58
449.883	7.54
450.238	7.53
450.592	7.54
450.946	7.53
451.3	7.53
451.654	7.53
452.008	7.51
452.362	7.5
452.716	7.5
453.07	7.49
453.424	7.49
453.778	7.47
454.132	7.44
454.486	7.42
454.839	7.43
455.193	7.43
455.547	7.45
455.9	7.47
456.254	7.45
456.607	7.46
456.961	7.47
457.314	7.46
457.668	7.45
458.021	7.45
458.375	7.45
458.728	7.43
459.081	7.43
459.434	7.45
459.787	7.47
460.141	7.45
460.494	7.44
460.847	7.47
461.2	7.47
461.553	7.5
461.906	7.51
462.259	7.49
462.611	7.51
462.964	7.52
463.317	7.53
463.67	7.55
464.022	7.54
464.375	7.53
464.728	7.55
465.08	7.55
465.433	7.56
465.785	7.6
466.138	7.62
466.49	7.63
466.843	7.65
467.195	7.66
467.547	7.68
467.899	7.7
468.252	7.69
468.604	7.71
468.956	7.71
469.308	7.71
469.66	7.73
470.012	7.74
470.364	7.73
470.716	7.74
471.068	7.75
471.42	7.78
471.772	7.8
472.123	7.81
472.475	7.83
472.827	7.86
473.178	7.86
473.53	7.86
473.882	7.88
474.233	7.85
474.585	7.85
474.936	7.85
475.288	7.85
475.639	7.86
475.99	7.86
476.342	7.85
476.693	7.86
477.044	7.85
477.395	7.84
477.746	7.84
478.097	7.84
478.448	7.85
478.8	7.86
479.15	7.87
479.501	7.89
479.852	7.9
480.203	7.89
480.554	7.91
480.905	7.9
481.255	7.91
481.606	7.93
481.957	7.93
482.307	7.94
482.658	7.94
483.009	7.93
483.359	7.93
483.709	7.94
484.06	7.95
484.41	7.94
484.761	7.94
485.111	7.94
485.461	7.95
485.811	7.94
486.162	7.93
486.512	7.93
486.862	7.92
487.212	7.91
487.562	7.89
487.912	7.88
488.262	7.87
488.612	7.87
488.961	7.86
489.311	7.84
489.661	7.84
490.011	7.83
490.36	7.83
490.71	7.82
491.06	7.81
491.409	7.8
491.759	7.79
492.108	7.78
492.458	7.77
492.807	7.77
493.157	7.76
493.506	7.76
493.855	7.76
494.204	7.77
494.554	7.77
494.903	7.78
495.252	7.77
495.601	7.79
495.95	7.78
496.299	7.79
496.648	7.8
496.997	7.81
497.346	7.84
497.695	7.85
498.043	7.9
498.392	7.92
498.741	7.95
499.09	7.99
499.438	8.03
499.787	8.05
500.135	8.08
500.484	8.1
500.832	8.14
501.181	8.16
501.529	8.2
501.878	8.26
502.226	8.31
502.574	8.34
502.923	8.37
503.271	8.43
503.619	8.44
503.967	8.47
504.315	8.47
504.663	8.48
505.011	8.51
505.359	8.49
505.707	8.51
506.055	8.53
506.403	8.53
506.751	8.55
507.098	8.56
507.446	8.58
507.794	8.61
508.141	8.62
508.489	8.64
508.837	8.63
509.184	8.63
509.531	8.61
509.879	8.6
510.226	8.63
510.574	8.64
510.921	8.66
511.268	8.67
511.616	8.71
511.963	8.72
512.31	8.73
512.657	8.77
513.004	8.77
513.351	8.77
513.698	8.79
514.045	8.8
514.392	8.83
514.739	8.83
515.086	8.83
515.432	8.84
515.779	8.83
516.126	8.84
516.473	8.86
516.819	8.9
517.166	8.92
517.512	8.89
517.859	8.91
518.205	8.92
518.552	8.92
518.898	8.91
519.245	8.92
519.591	8.91
519.937	8.91
520.283	8.93
520.629	8.95
520.976	8.98
521.322	8.98
521.668	8.98
522.014	9
522.36	9.05
522.706	9.07
523.052	9.09
523.398	9.1
523.743	9.13
524.089	9.15
524.435	9.17
524.781	9.21
525.126	9.21
525.472	9.22
525.817	9.24
526.163	9.26
526.509	9.26
526.854	9.29
527.199	9.31
527.545	9.31
527.89	9.3
528.235	9.31
528.581	9.3
528.926	9.31
529.271	9.32
529.616	9.32
529.961	9.32
530.306	9.32
530.651	9.34
530.996	9.35
531.341	9.35
531.686	9.35
532.031	9.35
532.376	9.35
532.721	9.37
533.065	9.37
533.41	9.37
533.755	9.39
534.099	9.38
534.444	9.37
534.788	9.39
535.133	9.41
535.477	9.41
535.822	9.43
536.166	9.44
536.51	9.43
536.855	9.42
537.199	9.42
537.543	9.43
537.887	9.43
538.231	9.43
538.576	9.42
538.92	9.43
539.264	9.45
539.608	9.46
539.951	9.44
540.295	9.44
540.639	9.45
540.983	9.46
541.327	9.48
541.671	9.47
542.014	9.46
542.358	9.45
542.701	9.47
543.045	9.48
543.389	9.48
543.732	9.49
544.075	9.49
544.419	9.5
544.762	9.5
545.105	9.5
545.449	9.51
545.792	9.52
546.135	9.52
546.478	9.5
546.821	9.51
547.165	9.53
547.508	9.53
547.851	9.53
548.194	9.53
548.536	9.52
548.879	9.52
549.222	9.56
549.565	9.57
549.908	9.52
550.25	9.53
550.593	9.53
550.936	9.52
551.278	9.53
551.621	9.53
551.963	9.54
552.306	9.5
552.648	9.47
552.991	9.49
553.333	9.48
553.675	9.49
554.017	9.49
554.36	9.47
554.702	9.48
555.044	9.48
555.386	9.48
555.728	9.48
556.07	9.51
556.412	9.48
556.754	9.48
557.096	9.51
557.438	9.49
557.78	9.5
558.121	9.52
558.463	9.5
558.805	9.53
559.147	9.55
559.488	9.61
559.83	9.63
560.171	9.65
560.513	9.66
560.854	9.7
561.196	9.7
561.537	9.74
561.878	9.76
562.22	9.81
562.561	9.82
562.902	9.82
563.243	9.82
563.584	9.82
563.925	9.83
564.266	9.84
564.607	9.86
564.948	9.84
565.289	9.86
565.63	9.86
565.971	9.87
566.312	9.86
566.653	9.85
566.993	9.83
567.334	9.85
567.675	9.86
568.015	9.85
568.356	9.84
568.696	9.84
569.037	9.83
569.377	9.78
569.718	9.77
570.058	9.75
570.398	9.75
570.739	9.74
571.079	9.73
571.419	9.7
571.759	9.7
572.099	9.68
572.439	9.67
572.779	9.68
573.119	9.66
573.459	9.66
573.799	9.66
574.139	9.64
574.479	9.64
574.819	9.62
575.158	9.61
575.498	9.6
575.838	9.57
576.177	9.55
576.517	9.57
576.856	9.56
577.196	9.6
577.535	9.59
577.875	9.64
578.214	9.66
578.553	9.66
578.893	9.67
579.232	9.71
579.571	9.71
579.91	9.73
580.25	9.74
580.589	9.72
580.928	9.75
581.267	9.77
581.606	9.73
581.945	9.71
582.283	9.76
582.622	9.78
582.961	9.81
583.3	9.82
583.639	9.84
583.977	9.81
584.316	9.8
584.654	9.79
584.993	9.79
585.332	9.77
585.67	9.84
586.008	9.83
586.347	9.83
586.685	9.82
587.024	9.83
587.362	9.83
587.7	9.9
588.038	9.92
588.376	9.98
588.715	10.04
589.053	10.08
589.391	10.04
589.729	10.04
590.067	10.04
590.404	10.03
590.742	10.04
591.08	10.11
591.418	10.08
591.756	10.11
592.093	10.15
592.431	10.18
592.769	10.17
593.106	10.16
593.444	10.17
593.781	10.2
594.119	10.18
594.456	10.2
594.793	10.16
595.131	10.12
595.468	10.07
595.805	10.06
596.143	10.06
596.48	10.11
596.817	10.11
597.154	10.14
597.491	10.17
597.828	10.14
598.165	10.12
598.502	10.15
598.839	10.14
599.176	10.12
599.512	10.1
599.849	10.09
600.186	10.11
600.523	10.1
600.859	10.1
601.196	10.08
601.532	10.09
601.869	10.1
602.205	10.11
602.542	10.14
602.878	10.15
603.215	10.15
603.551	10.12
603.887	10.13
604.223	10.1
604.56	10.15
604.896	10.18
605.232	10.15
605.568	10.1
605.904	10.07
606.24	10.06
606.576	10.08
606.912	10.1
607.248	10.1
607.583	10.11
607.919	10.11
608.255	10.13
608.591	10.14
608.926	10.12
609.262	10.12
609.597	10.11
609.933	10.09
610.268	10.1
610.604	10.07
610.939	10.09
611.275	10.12
611.61	10.06
611.945	10.03
612.281	10.09
612.616	10.16
612.951	10.23
613.286	10.19
613.621	10.18
613.956	10.16
614.291	10.17
614.626	10.15
614.961	10.17
615.296	10.19
615.631	10.19
615.966	10.23
616.3	10.29
616.635	10.28
616.97	10.29
617.304	10.33
617.639	10.34
617.973	10.3
618.308	10.28
618.642	10.32
618.977	10.29
619.311	10.3
619.646	10.26
619.98	10.25
620.314	10.24
620.648	10.27
620.983	10.31
621.317	10.35
621.651	10.42
621.985	10.41
622.319	10.38
622.653	10.42
622.987	10.38
623.321	10.35
623.655	10.39
623.988	10.37
624.322	10.35
624.656	10.41
624.99	10.45
625.323	10.5
625.657	10.52
625.99	10.58
626.324	10.58
626.657	10.6
626.991	10.62
627.324	10.65
627.658	10.65
627.991	10.66
628.324	10.58
628.657	10.55
628.991	10.53
629.324	10.52
629.657	10.46
629.99	10.46
630.323	10.47
630.656	10.42
630.989	10.46
631.322	10.44
631.655	10.39
631.987	10.34
632.32	10.28
632.653	10.25
632.986	10.2
633.318	10.19
633.651	10.22
633.984	10.21
634.316	10.26
634.649	10.23
634.981	10.2
635.313	10.27
635.646	10.3
635.978	10.33
636.31	10.35
636.643	10.38
636.975	10.44
637.307	10.42
637.639	10.45
637.971	10.4
638.303	10.42
638.635	10.47
638.967	10.56
639.299	10.57
639.631	10.57
639.963	10.58
640.295	10.64
640.626	10.59
640.958	10.59
641.29	10.58
641.621	10.58
641.953	10.49
642.285	10.51
642.616	10.46
642.948	10.46
643.279	10.48
643.61	10.51
643.942	10.47
644.273	10.5
644.604	10.5
644.936	10.58
645.267	10.56
645.598	10.55
645.929	10.45
646.26	10.46
646.591	10.46
646.922	10.5
647.253	10.48
647.584	10.46
647.915	10.44
648.245	10.45
648.576	10.43
648.907	10.57
649.238	10.53
649.568	10.55
649.899	10.57
650.229	10.61
650.56	10.58
650.89	10.65
651.221	10.6
651.551	10.69
651.882	10.64
652.212	10.69
652.542	10.67
652.872	10.77
653.203	10.83
653.533	10.88
653.863	10.88
654.193	10.88
654.523	10.95
654.853	11.01
655.183	11.06
655.513	11.11
655.843	11.09
656.172	11.13
656.502	11.18
656.832	11.22
657.162	11.22
657.491	11.31
657.821	11.24
658.15	11.26
658.48	11.21
658.809	11.24
659.139	11.27
659.468	11.25
659.798	11.23
660.127	11.24
660.456	11.23
660.785	11.21
661.115	11.21
661.444	11.26
661.773	11.22
662.102	11.18
662.431	11.16
662.76	11.07
663.089	11.11
663.418	11.08
663.747	11.04
664.076	11
664.404	10.97
664.733	10.98
665.062	11.07
665.39	11.12
665.719	11.13
666.048	11.07
666.376	11.14
666.705	11.18
667.033	11.12
667.362	11.12
667.69	11.19
668.018	11.13
668.347	11.08
668.675	11.09
669.003	11.04
669.331	11.09
669.659	11.15
669.987	11.09
670.315	11.13
670.643	11.05
670.971	11.13
671.299	11.07
671.627	11.11
671.955	10.95
672.283	10.82
672.61	10.81
672.938	10.91
673.266	10.91
673.593	10.88
673.921	10.88
674.249	10.9
674.576	10.83
674.904	10.88
675.231	10.92
675.558	11.04
675.886	11.07
676.213	11.08
676.54	11.14
676.867	11.22
677.195	11.12
677.522	11.22
677.849	11.2
678.176	11.26
678.503	11.18
678.83	11.23
679.157	11.29
679.484	11.31
679.81	11.27
680.137	11.31
680.464	11.33
680.791	11.36
681.117	11.38
681.444	11.43
681.771	11.4
682.097	11.44
682.424	11.35
682.75	11.34
683.077	11.35
683.403	11.33
683.729	11.26
684.056	11.35
684.382	11.34
684.708	11.32
685.034	11.32
685.36	11.39
685.686	11.49
686.012	11.52
686.339	11.5
686.664	11.51
686.99	11.41
687.316	11.41
687.642	11.45
687.968	11.45
688.294	11.44
688.619	11.53
688.945	11.45
689.271	11.55
689.596	11.6
689.922	11.6
690.247	11.6
690.573	11.62
690.898	11.61
691.224	11.59
691.549	11.58
691.874	11.53
692.2	11.55
692.525	11.51
692.85	11.43
693.175	11.45
693.5	11.44
693.825	11.64
694.15	11.58
694.475	11.53
694.8	11.57
695.125	11.57
695.45	11.49
695.775	11.44
696.099	11.39
696.424	11.36
696.749	11.39
697.073	11.42
697.398	11.47
697.723	11.48
698.047	11.53
698.372	11.5
698.696	11.52
699.02	11.53
699.345	11.56
699.669	11.55
699.993	11.53
700.318	11.53
700.642	11.46
700.966	11.57
701.29	11.65
701.614	11.66
701.938	11.65
702.262	11.7
702.586	11.77
702.91	11.75
703.234	11.84
703.557	11.79
703.881	11.83
704.205	11.81
704.529	11.81
704.852	11.77
705.176	11.85
705.499	11.89
705.823	11.96
706.146	11.99
706.47	12.08
706.793	12.16
707.117	12.22
707.44	12.1
707.763	12
708.086	11.98
708.409	11.97
708.733	11.96
709.056	12.08
709.379	12.28
709.702	12.33
710.025	12.37
710.348	12.48
710.671	12.41
710.993	12.33
711.316	12.46
711.639	12.41
711.962	12.46
712.284	12.57
712.607	12.64
712.93	12.57
713.252	12.61
713.575	12.59
713.897	12.59
714.22	12.62
714.542	12.61
714.864	12.54
715.187	12.52
715.509	12.57
715.831	12.38
716.153	12.26
716.475	12.24
716.798	12.13
717.12	12.1
717.442	12.2
717.764	12.4
718.085	12.4
718.407	12.41
718.729	12.45
719.051	12.34
719.373	12.23
719.695	12.41
720.016	12.52
720.338	12.66
720.659	12.56
720.981	12.62
721.302	12.7
721.624	12.84
721.945	12.79
722.267	12.85
722.588	12.88
722.909	12.88
723.231	12.91
723.552	13.04
723.873	13.04
724.194	12.9
724.515	12.63
724.836	12.48
725.157	12.62
725.478	12.54
725.799	12.4
726.12	12.46
726.441	12.37
726.762	12.19
727.083	12.15
727.403	12.35
727.724	12.46
728.045	12.39
728.365	12.29
728.686	12.3
729.006	12.21
729.327	12.25
729.647	12.28
729.967	12.29
730.288	12.14
730.608	12.19
730.928	12.17
731.249	12.26
731.569	12.33
731.889	12.37
732.209	12.39
732.529	12.56
732.849	12.43
733.169	12.39
733.489	12.5
733.809	12.3
734.129	12.3
734.448	12.26
734.768	12.32
735.088	12.39
735.408	12.38
735.727	12.65
736.047	12.6
736.366	12.54
736.686	12.49
737.005	12.7
737.325	12.64
737.644	12.74
737.963	12.77
738.283	12.66
738.602	12.62
738.921	12.89
739.24	12.94
739.56	12.97
739.879	13.02
740.198	12.85
740.517	12.91
740.836	12.81
741.155	12.84
741.473	12.8
741.792	12.8
742.111	12.86
742.43	12.6
742.748	12.77
743.067	12.84
743.386	12.91
743.704	12.76
744.023	12.96
744.341	13.07
744.66	12.91
744.978	13.11
745.297	13.17
745.615	12.88
745.933	12.83
746.252	12.96
746.57	12.88
746.888	13.25
747.206	13.2
747.524	13.17
747.842	12.89
748.16	13.08
748.478	13.16
748.796	13.36
749.114	13.53
749.432	13.42
749.749	13.37
750.067	13.46
750.385	13.52
750.703	13.29
751.02	13.16
751.338	13.21
751.655	13.08
751.973	13.08
752.29	13.13
752.608	13.03
752.925	13.04
753.242	13.27
753.56	12.93
753.877	13.13
754.194	13.18
754.511	13.21
754.828	13.04
755.145	13.16
755.462	12.89
755.779	12.84
756.096	13.11
756.413	12.96
756.73	12.96
757.047	12.9
757.364	12.98
757.68	13.14
757.997	13.34
758.314	13.34
758.63	13.43
758.947	13.6
759.264	13.8
759.58	13.87
759.896	13.78
760.213	14.1
760.529	14.08
760.846	14.16
761.162	14.46
761.478	14.47
761.794	14.5
762.11	14.59
762.426	14.48
762.743	14.36
763.059	14.45
763.375	14.39
763.69	14.39
764.006	14.41
764.322	14.36
764.638	14.35
764.954	14.4
765.27	14.54
765.585	14.61
765.901	14.48
766.216	14.55
766.532	14.63
766.848	14.43
767.163	14.52
767.478	14.49
767.794	14.36
768.109	14.42
768.424	14.3
768.74	14.53
769.055	14.66
769.37	14.61
769.685	14.85
770	14.88
770.315	14.93
770.63	15.06
770.945	15.39
771.26	15.45
771.575	15.41
771.89	15.1
772.205	14.72
772.52	14.71
772.834	14.62
773.149	14.33
773.464	14.46
773.778	14.22
774.093	14.46
774.407	14.52
774.722	14.58
775.036	14.66
775.351	14.35
775.665	14.52
775.979	14.77
776.293	14.66
776.608	14.52
776.922	14.41
777.236	14.36
777.55	13.92
777.864	13.9
778.178	13.96
778.492	13.93
778.806	14.04
779.12	14.12
779.434	14.09
779.747	14.26
780.061	14.42
780.375	14.64
780.689	14.21
781.002	14.49
781.316	14.64
781.629	14.4
781.943	14.6
782.256	14.27
782.57	14.21
782.883	13.97
783.196	14.14
783.51	14.53
783.823	14.99
784.136	15.08
784.449	14.73
784.762	15.28
785.075	15.26
785.388	15.4
785.701	15.69
786.014	15.49
786.327	15.58
786.64	15.58
786.953	15.71
787.266	16.08
787.578	16.16
787.891	16.07
788.204	16
788.516	15.94
788.829	15.9
789.141	16.1
789.454	16.32
789.766	16.4
790.079	16.46
790.391	15.52
790.703	15.77
791.016	16.3
791.328	16.08
791.64	16.24
791.952	16.18
792.264	15.86
792.576	16.01
792.888	15.95
793.2	15.75
793.512	15.27
793.824	15.36
794.136	14.58
794.448	14.17
794.76	14.49
795.071	14.47
795.383	14.83
795.695	14.48
796.006	14.58
796.318	14.66
796.629	14.32
796.941	14.63
797.252	14.31
797.564	14.06
797.875	13.84
798.186	13.68
798.497	13.68
798.809	14.03
799.12	13.85
799.431	14.02
799.742	14.13
800.053	14.45
800.364	14.53
800.675	15.09
800.986	15.93
801.297	15.95
801.608	15.69
801.918	15.64
802.229	16.07
802.54	16.28
802.851	16.45
803.161	16.63
803.472	16.8
803.782	17.21
804.093	17.29
804.403	17.49
804.714	17.91
805.024	18.07
805.334	17.86
805.645	17.84
805.955	17.56
806.265	17.31
806.575	17.13
806.885	17.16
807.195	17.01
807.505	16.21
807.815	16.15
808.125	16.5
808.435	16.57
808.745	16.19
809.055	15.79
809.365	15.64
809.674	15.89
809.984	15.76
810.294	15.09
810.603	14.49
810.913	14.47
811.222	14.28
811.532	14.14
811.841	14.26
812.151	14.83
812.46	14.84
812.769	15.11
813.079	15.42
813.388	15.33
813.697	14.81
814.006	14.8
814.315	14.5
814.624	14.59
814.933	14.11
815.242	13.97
815.551	13.81
815.86	14.46
816.169	14.38
816.478	14.83
816.786	14.87
817.095	15.52
817.404	15.55
817.712	15.87
818.021	15.87
818.33	15.71
818.638	15.6
818.947	16
819.255	16.06
819.563	16.45
819.872	16.53
820.18	16.98
820.488	17.15
820.796	17.29
821.105	17.26
821.413	17.61
821.721	17.57
822.029	17.56
822.337	17.36
822.645	17.53
822.953	17.36
823.26	17.44
823.568	17.33
823.876	17.24
824.184	17.33
824.491	17.29
824.799	17.31
825.107	17.37
825.414	17.34
825.722	17.33
826.029	17.27
826.337	17.23
826.644	17.2
826.951	17.15
827.259	17.09
827.566	17.03
827.873	16.88
828.18	17.16
828.488	17.43
828.795	17.62
829.102	17.18
829.409	17.41
829.716	17.64
830.023	17.93
830.329	18.09
830.636	17.99
830.943	18.03
831.25	18.27
831.557	18.81
831.863	19.13
832.17	19.7
832.476	19.98
832.783	20.22
833.089	20.34
833.396	20.83
833.702	21.39
834.009	21.61
834.315	21.83
834.621	21.34
834.928	20.99
835.234	20.88
835.54	21.3
835.846	21.26
836.152	21.11
836.458	20.91
836.764	21.4
837.07	21.13
837.376	21.62
837.682	21.13
837.988	20.49
838.293	20.22
838.599	19.58
838.905	19.34
839.211	19.15
839.516	19.26
839.822	19.15
840.127	18.54
840.433	18.77
840.738	18.53
841.044	19.03
841.349	19.46
841.654	18.95
841.959	19.06
842.265	19.1
842.57	19.19
842.875	20.22
843.18	19.24
843.485	19.03
843.79	18.27
844.095	18.51
844.4	18.56
844.705	18.35
845.01	18.49
845.315	17.79
845.619	18.33
845.924	17.3
846.229	16.78
846.533	17.75
846.838	17.73
847.142	17.3
847.447	16.68
847.751	15.45
848.056	15.09
848.36	15.62
848.664	15.18
848.969	14.73
849.273	13.47
849.577	13.8
849.881	15.57
850.185	15.81
850.489	16.33
850.794	17.16
851.097	17
851.401	17.33
851.705	17.35
852.009	16.4
852.313	16.77
852.617	16.33
852.92	15.63
853.224	14.4
853.528	15.21
853.831	17.91
854.135	18.6
854.438	20.3
854.742	19.78
855.045	19.44
855.349	18.93
855.652	18.03
855.955	18.24
856.259	17.08
856.562	17.17
856.865	17.76
857.168	16.83
857.471	18.49
857.774	18.34
858.077	18.91
858.38	19.81
858.683	22.2
858.986	22.89
859.289	22.59
859.592	23.34
859.894	24.04
860.197	21.01
860.5	21.73
860.802	22.37
861.105	20.14
861.407	20.38
861.71	21.84
862.012	23.84
862.315	24.65
862.617	23.28
862.919	24.7
863.222	25.2
863.524	24.72
863.826	22.94
864.128	23.05
864.43	23.63
864.732	23.75
865.034	21.83
865.336	20.82
865.638	21.29
865.94	21.53
866.242	21.72
866.544	22.99
866.846	24.55
867.147	23.78
867.449	25.43
867.751	25.8
868.052	24.52
868.354	24.7
868.655	23.16
868.957	24.18
869.258	22.86
869.56	21.3
869.861	23.59
870.162	24.95
870.463	24.27
870.765	23.32
871.066	22.64
871.367	21.6
871.668	20.43
871.969	18.87
872.27	19.51
872.571	19.08
872.872	18.63
873.173	15.68
873.473	14.67
873.774	15.99
874.075	16.43
874.376	15.08
874.676	14.67
874.977	13.83
875.277	13.37
875.578	12.93
875.878	13.82
876.179	11.59
876.479	10.25
876.78	10.67
877.08	11.26
877.38	10.42
877.68	12.05
877.981	14.54
878.281	15.73
878.581	13.52
