Data from BU57649_Reflection_00013.txt Node
Date: Tue Nov 19 10:55:55 EST 2019
User: vgr7
Spectrometer: USB2G7710
Scans to average: 3
Trigger mode: 4
Integration Time (sec): 2.000000E-2
Electric dark correction enabled: true
Boxcar width: 10
XAxis mode: Wavelengths
Number of Pixels in Spectrum: 2048
>>>>>Begin Spectral Data<<<<<
177.721	2.82
178.105	17.97
178.488	29.33
178.871	46.12
179.254	7.19
179.636	-6.49
180.019	-47.89
180.402	666.67
180.785	-305.88
181.168	6100
181.55	-464.94
181.933	197.63
182.316	219.63
182.698	-50.46
183.081	-99.76
183.463	-70.42
183.846	-71.78
184.228	-48.67
184.611	-30.4
184.993	-19.59
185.376	-10.49
185.758	-13.39
186.14	-6.42
186.522	-0.11
186.904	5.37
187.287	-6.67
187.669	-4.23
188.051	-2.09
188.433	-1.37
188.815	-6.7
189.197	-5.53
189.579	-4.75
189.961	-16.76
190.342	-17.14
190.724	-34.5
191.106	-33.03
191.488	-25.8
191.869	-26.97
192.251	-21.9
192.633	-19.3
193.014	-32.69
193.396	-68.08
193.777	-72.04
194.159	-72.19
194.54	-75.71
194.922	-87.62
195.303	-114.29
195.684	-132.78
196.065	-137.82
196.447	-119.58
196.828	-126.62
197.209	-98.9
197.59	-82.13
197.971	-52.58
198.352	-43.85
198.733	-42.33
199.114	-35.47
199.495	-33.1
199.876	-20.24
200.257	-27.25
200.638	-23.33
201.018	-22.64
201.399	-5.87
201.78	-1.39
202.16	-9.21
202.541	-13.63
202.922	-13.23
203.302	-1.64
203.683	-5.31
204.063	-15.7
204.444	-8.95
204.824	-12.55
205.204	-8.93
205.585	-10.66
205.965	-19.8
206.345	-22.07
206.725	-16.85
207.106	-16.7
207.486	-18.2
207.866	-20.53
208.246	-15.87
208.626	-18.29
209.006	-16.99
209.386	-24.46
209.766	-38.19
210.145	-36.52
210.525	-27.74
210.905	-23.79
211.285	-17.65
211.664	-6.4
212.044	-6.13
212.424	-9.86
212.803	-7.73
213.183	-9.47
213.562	-1.96
213.942	10.01
214.321	15.31
214.701	9.58
215.08	5.99
215.459	7.06
215.838	3.24
216.218	-1.75
216.597	-2.28
216.976	-6.45
217.355	-6.35
217.734	-7.9
218.113	-1.03
218.492	-8.35
218.871	-8.67
219.25	-22.93
219.629	-26
220.008	-21.47
220.387	-17.2
220.766	-1.03
221.144	-8.37
221.523	-22.91
221.902	-34.79
222.28	-41.59
222.659	-25.3
223.037	-25.71
223.416	-24.6
223.794	-11.87
224.173	-11.83
224.551	-6.58
224.929	4.63
225.308	6.34
225.686	12.43
226.064	11.1
226.442	12.51
226.821	11.5
227.199	9.77
227.577	6.68
227.955	9.63
228.333	7.25
228.711	6.51
229.089	9.12
229.467	10.89
229.845	10.52
230.222	11.17
230.6	9.94
230.978	12.96
231.356	13.83
231.733	11.51
232.111	9.69
232.488	7.46
232.866	6.79
233.243	7.49
233.621	7
233.998	6.18
234.376	5.04
234.753	4.4
235.13	6.05
235.508	7.87
235.885	6.03
236.262	4.67
236.639	5.32
237.016	4.64
237.393	3.8
237.77	3.59
238.147	5
238.524	4.79
238.901	4.41
239.278	3.75
239.655	4.29
240.032	4.68
240.409	5.08
240.785	4.26
241.162	4
241.539	3.67
241.915	3.97
242.292	4.13
242.668	4.2
243.045	4.33
243.421	3.87
243.798	3.73
244.174	3.87
244.551	4
244.927	4.14
245.303	4.21
245.679	4.37
246.056	3.95
246.432	4.03
246.808	4.16
247.184	4.2
247.56	4.02
247.936	3.87
248.312	3.76
248.688	3.78
249.064	3.8
249.44	4.13
249.815	3.85
250.191	3.65
250.567	3.5
250.943	3.19
251.318	3.2
251.694	3.14
252.069	3.35
252.445	3.01
252.82	2.79
253.196	2.87
253.571	2.67
253.947	2.87
254.322	2.57
254.697	2.26
255.073	2.38
255.448	2.24
255.823	2.49
256.198	2.49
256.573	2.57
256.948	2.5
257.323	2.22
257.698	2.44
258.073	2.32
258.448	2.5
258.823	2.58
259.198	2.63
259.573	2.63
259.948	2.65
260.322	2.56
260.697	2.6
261.072	2.56
261.446	2.71
261.821	2.66
262.195	2.76
262.57	2.77
262.944	2.6
263.319	2.7
263.693	2.64
264.067	2.55
264.442	2.55
264.816	2.57
265.19	2.47
265.564	2.42
265.938	2.5
266.313	2.23
266.687	2.4
267.061	2.28
267.435	2.36
267.809	2.17
268.183	2.21
268.556	2.24
268.93	2.1
269.304	1.92
269.678	2.01
270.051	1.96
270.425	2.04
270.799	2.04
271.172	2.12
271.546	2.24
271.919	2.25
272.293	2.18
272.666	2.37
273.04	2.58
273.413	2.53
273.787	2.55
274.16	2.84
274.533	2.7
274.906	2.79
275.279	2.89
275.653	3.02
276.026	2.99
276.399	2.82
276.772	2.95
277.145	3.08
277.518	2.87
277.891	2.95
278.263	2.97
278.636	3.11
279.009	3.09
279.382	3.04
279.755	3.14
280.127	3.19
280.5	2.91
280.872	2.84
281.245	2.9
281.617	2.99
281.99	2.93
282.362	3
282.735	3.03
283.107	2.87
283.479	2.82
283.852	2.88
284.224	2.9
284.596	2.86
284.968	2.8
285.34	2.9
285.713	3
286.085	2.9
286.457	2.78
286.829	2.7
287.201	2.63
287.572	2.69
287.944	2.6
288.316	2.65
288.688	2.76
289.06	2.89
289.431	2.98
289.803	3.02
290.175	3.05
290.546	3
290.918	3.11
291.289	3.06
291.661	3.18
292.032	3.23
292.403	3.46
292.775	3.51
293.146	3.5
293.517	3.43
293.889	3.54
294.26	3.74
294.631	3.74
295.002	3.89
295.373	3.93
295.744	4.1
296.115	4.18
296.486	4.1
296.857	4.13
297.228	3.97
297.599	3.87
297.97	4
298.34	4.01
298.711	4.09
299.082	4.06
299.452	3.99
299.823	4.02
300.194	3.86
300.564	3.91
300.935	4.02
301.305	3.95
301.676	4.04
302.046	4.08
302.416	4.13
302.787	4.14
303.157	4.07
303.527	4.27
303.897	4.24
304.267	4.23
304.637	4.14
305.008	4.3
305.378	4.31
305.748	4.03
306.117	4.18
306.487	4.25
306.857	4.42
307.227	4.5
307.597	4.71
307.967	4.72
308.336	4.75
308.706	4.77
309.076	4.91
309.445	4.96
309.815	4.91
310.184	4.98
310.554	4.96
310.923	5.1
311.293	4.97
311.662	5.19
312.031	5.37
312.401	5.45
312.77	5.37
313.139	5.52
313.508	5.79
313.877	5.82
314.246	5.78
314.616	5.81
314.985	5.89
315.353	5.88
315.722	6.08
316.091	6.13
316.46	6.17
316.829	6.16
317.198	6.02
317.567	6.15
317.935	6.23
318.304	6.45
318.672	6.4
319.041	6.44
319.41	6.27
319.778	6.26
320.147	6.22
320.515	6.43
320.883	6.32
321.252	6.25
321.62	6.14
321.988	6.23
322.357	6.29
322.725	6.38
323.093	6.32
323.461	6.31
323.829	6.5
324.197	6.61
324.565	6.53
324.933	6.71
325.301	6.66
325.669	6.67
326.037	6.65
326.405	6.69
326.772	6.87
327.14	6.84
327.508	6.86
327.875	6.87
328.243	6.93
328.61	7.12
328.978	7.17
329.346	7.27
329.713	7.42
330.08	7.49
330.448	7.49
330.815	7.68
331.182	7.68
331.55	7.65
331.917	7.62
332.284	7.82
332.651	7.67
333.018	7.68
333.385	7.61
333.752	7.63
334.119	7.72
334.486	7.6
334.853	7.7
335.22	7.82
335.587	7.86
335.954	7.81
336.32	7.79
336.687	7.71
337.054	7.85
337.42	7.76
337.787	7.73
338.153	7.69
338.52	7.65
338.886	7.76
339.253	7.73
339.619	7.73
339.986	7.7
340.352	7.76
340.718	7.92
341.084	8.05
341.451	8.02
341.817	8.04
342.183	8.07
342.549	8.17
342.915	8.09
343.281	8.24
343.647	8.21
344.013	8.21
344.379	8.34
344.745	8.22
345.11	8.2
345.476	8.31
345.842	8.33
346.208	8.37
346.573	8.3
346.939	8.23
347.304	8.26
347.67	8.28
348.035	8.29
348.401	8.15
348.766	8.11
349.132	8.04
349.497	8
349.862	8.03
350.228	7.94
350.593	7.88
350.958	7.78
351.323	7.76
351.688	7.74
352.053	7.66
352.418	7.62
352.783	7.52
353.148	7.46
353.513	7.38
353.878	7.31
354.243	7.26
354.608	7.32
354.972	7.25
355.337	7.26
355.702	7.24
356.066	7.32
356.431	7.38
356.795	7.37
357.16	7.35
357.524	7.25
357.889	7.2
358.253	7.23
358.618	7.2
358.982	7.23
359.346	7.27
359.71	7.28
360.075	7.35
360.439	7.38
360.803	7.39
361.167	7.39
361.531	7.36
361.895	7.35
362.259	7.3
362.623	7.22
362.987	7.17
363.351	7.14
363.714	7.05
364.078	6.98
364.442	6.93
364.806	6.9
365.169	6.89
365.533	6.87
365.896	6.81
366.26	6.71
366.623	6.63
366.987	6.52
367.35	6.48
367.714	6.35
368.077	6.33
368.44	6.18
368.803	6.15
369.167	6.04
369.53	5.98
369.893	5.97
370.256	5.98
370.619	5.97
370.982	5.91
371.345	5.91
371.708	5.79
372.071	5.71
372.434	5.64
372.797	5.54
373.159	5.5
373.522	5.37
373.885	5.33
374.247	5.33
374.61	5.26
374.973	5.2
375.335	5.25
375.698	5.17
376.06	5.15
376.423	5.13
376.785	5.15
377.147	5.1
377.51	5.05
377.872	5.02
378.234	5.01
378.596	4.96
378.958	4.88
379.321	4.91
379.683	4.94
380.045	4.91
380.407	4.89
380.769	4.85
381.13	4.85
381.492	4.84
381.854	4.79
382.216	4.74
382.578	4.69
382.939	4.62
383.301	4.64
383.663	4.56
384.024	4.47
384.386	4.46
384.747	4.44
385.109	4.4
385.47	4.36
385.832	4.26
386.193	4.19
386.554	4.16
386.916	4.12
387.277	4.04
387.638	4.06
387.999	4.06
388.36	4.04
388.721	4.03
389.082	4.06
389.443	4.02
389.804	4.04
390.165	4.04
390.526	4.02
390.887	3.98
391.248	3.97
391.609	4.01
391.969	3.97
392.33	3.96
392.691	3.92
393.051	3.9
393.412	3.89
393.772	3.87
394.133	3.88
394.493	3.84
394.854	3.87
395.214	3.81
395.574	3.77
395.935	3.75
396.295	3.73
396.655	3.66
397.015	3.65
397.376	3.6
397.736	3.55
398.096	3.48
398.456	3.44
398.816	3.43
399.176	3.35
399.535	3.31
399.895	3.24
400.255	3.25
400.615	3.24
400.975	3.21
401.334	3.21
401.694	3.18
402.054	3.18
402.413	3.14
402.773	3.14
403.132	3.12
403.492	3.08
403.851	3.06
404.211	3.07
404.57	3.04
404.929	3.02
405.288	3.03
405.648	3.05
406.007	3.04
406.366	3.04
406.725	3.02
407.084	3.04
407.443	3.09
407.802	3.06
408.161	3.06
408.52	3.08
408.879	3.05
409.238	3.05
409.596	3.05
409.955	3.05
410.314	3.01
410.673	2.99
411.031	2.98
411.39	2.98
411.748	2.96
412.107	2.95
412.465	2.96
412.824	2.96
413.182	2.93
413.54	2.91
413.899	2.89
414.257	2.92
414.615	2.88
414.974	2.86
415.332	2.86
415.69	2.84
416.048	2.82
416.406	2.82
416.764	2.81
417.122	2.78
417.48	2.76
417.838	2.76
418.195	2.76
418.553	2.75
418.911	2.72
419.269	2.72
419.626	2.72
419.984	2.7
420.342	2.68
420.699	2.67
421.057	2.67
421.414	2.67
421.772	2.64
422.129	2.63
422.486	2.63
422.844	2.63
423.201	2.63
423.558	2.62
423.915	2.62
424.273	2.62
424.63	2.63
424.987	2.64
425.344	2.63
425.701	2.63
426.058	2.64
426.415	2.65
426.772	2.65
427.128	2.67
427.485	2.66
427.842	2.65
428.199	2.64
428.555	2.66
428.912	2.65
429.269	2.66
429.625	2.67
429.982	2.66
430.338	2.65
430.695	2.64
431.051	2.63
431.407	2.63
431.764	2.63
432.12	2.64
432.476	2.65
432.832	2.66
433.189	2.66
433.545	2.67
433.901	2.67
434.257	2.67
434.613	2.64
434.969	2.64
435.325	2.67
435.681	2.67
436.036	2.64
436.392	2.64
436.748	2.64
437.104	2.64
437.459	2.63
437.815	2.64
438.171	2.66
438.526	2.68
438.882	2.69
439.237	2.68
439.593	2.67
439.948	2.66
440.304	2.64
440.659	2.65
441.014	2.65
441.369	2.64
441.725	2.65
442.08	2.64
442.435	2.64
442.79	2.64
443.145	2.64
443.5	2.64
443.855	2.63
444.21	2.63
444.565	2.63
444.92	2.63
445.275	2.6
445.629	2.59
445.984	2.57
446.339	2.56
446.693	2.55
447.048	2.53
447.403	2.52
447.757	2.52
448.112	2.51
448.466	2.49
448.82	2.49
449.175	2.48
449.529	2.49
449.883	2.5
450.238	2.49
450.592	2.49
450.946	2.48
451.3	2.48
451.654	2.44
452.008	2.46
452.362	2.47
452.716	2.48
453.07	2.48
453.424	2.47
453.778	2.46
454.132	2.47
454.486	2.47
454.839	2.48
455.193	2.48
455.547	2.48
455.9	2.48
456.254	2.49
456.607	2.48
456.961	2.48
457.314	2.47
457.668	2.48
458.021	2.46
458.375	2.48
458.728	2.48
459.081	2.5
459.434	2.49
459.787	2.48
460.141	2.49
460.494	2.5
460.847	2.49
461.2	2.51
461.553	2.5
461.906	2.5
462.259	2.49
462.611	2.5
462.964	2.52
463.317	2.51
463.67	2.51
464.022	2.5
464.375	2.49
464.728	2.5
465.08	2.49
465.433	2.51
465.785	2.52
466.138	2.54
466.49	2.56
466.843	2.57
467.195	2.56
467.547	2.55
467.899	2.56
468.252	2.58
468.604	2.55
468.956	2.58
469.308	2.58
469.66	2.6
470.012	2.6
470.364	2.58
470.716	2.61
471.068	2.61
471.42	2.64
471.772	2.66
472.123	2.66
472.475	2.69
472.827	2.7
473.178	2.7
473.53	2.67
473.882	2.67
474.233	2.68
474.585	2.69
474.936	2.7
475.288	2.67
475.639	2.68
475.99	2.68
476.342	2.68
476.693	2.7
477.044	2.68
477.395	2.68
477.746	2.66
478.097	2.66
478.448	2.65
478.8	2.63
479.15	2.63
479.501	2.64
479.852	2.63
480.203	2.61
480.554	2.61
480.905	2.61
481.255	2.62
481.606	2.61
481.957	2.61
482.307	2.62
482.658	2.62
483.009	2.61
483.359	2.62
483.709	2.62
484.06	2.62
484.41	2.62
484.761	2.63
485.111	2.64
485.461	2.64
485.811	2.64
486.162	2.65
486.512	2.64
486.862	2.63
487.212	2.63
487.562	2.64
487.912	2.64
488.262	2.65
488.612	2.65
488.961	2.64
489.311	2.64
489.661	2.64
490.011	2.65
490.36	2.65
490.71	2.65
491.06	2.65
491.409	2.64
491.759	2.63
492.108	2.63
492.458	2.63
492.807	2.64
493.157	2.65
493.506	2.65
493.855	2.68
494.204	2.69
494.554	2.7
494.903	2.71
495.252	2.73
495.601	2.73
495.95	2.73
496.299	2.75
496.648	2.77
496.997	2.77
497.346	2.79
497.695	2.82
498.043	2.85
498.392	2.88
498.741	2.9
499.09	2.93
499.438	2.96
499.787	2.97
500.135	2.99
500.484	3
500.832	3.03
501.181	3.04
501.529	3.06
501.878	3.1
502.226	3.12
502.574	3.15
502.923	3.18
503.271	3.21
503.619	3.23
503.967	3.25
504.315	3.29
504.663	3.3
505.011	3.33
505.359	3.37
505.707	3.42
506.055	3.46
506.403	3.5
506.751	3.52
507.098	3.59
507.446	3.65
507.794	3.7
508.141	3.75
508.489	3.81
508.837	3.85
509.184	3.89
509.531	3.93
509.879	3.99
510.226	4.03
510.574	4.1
510.921	4.17
511.268	4.24
511.616	4.31
511.963	4.37
512.31	4.44
512.657	4.51
513.004	4.55
513.351	4.61
513.698	4.7
514.045	4.8
514.392	4.88
514.739	4.96
515.086	5.04
515.432	5.13
515.779	5.22
516.126	5.33
516.473	5.41
516.819	5.49
517.166	5.59
517.512	5.68
517.859	5.75
518.205	5.82
518.552	5.91
518.898	5.99
519.245	6.08
519.591	6.14
519.937	6.22
520.283	6.3
520.629	6.39
520.976	6.47
521.322	6.57
521.668	6.65
522.014	6.76
522.36	6.86
522.706	6.99
523.052	7.1
523.398	7.2
523.743	7.33
524.089	7.47
524.435	7.6
524.781	7.73
525.126	7.85
525.472	7.97
525.817	8.05
526.163	8.14
526.509	8.23
526.854	8.33
527.199	8.41
527.545	8.49
527.89	8.59
528.235	8.67
528.581	8.74
528.926	8.82
529.271	8.9
529.616	8.99
529.961	9.06
530.306	9.15
530.651	9.23
530.996	9.32
531.341	9.42
531.686	9.5
532.031	9.58
532.376	9.69
532.721	9.78
533.065	9.89
533.41	9.99
533.755	10.12
534.099	10.23
534.444	10.37
534.788	10.47
535.133	10.57
535.477	10.69
535.822	10.81
536.166	10.95
536.51	11.09
536.855	11.23
537.199	11.38
537.543	11.56
537.887	11.74
538.231	11.91
538.576	12.06
538.92	12.25
539.264	12.43
539.608	12.59
539.951	12.76
540.295	12.91
540.639	13.07
540.983	13.2
541.327	13.33
541.671	13.45
542.014	13.62
542.358	13.78
542.701	13.92
543.045	14.09
543.389	14.23
543.732	14.38
544.075	14.55
544.419	14.74
544.762	14.89
545.105	15.05
545.449	15.24
545.792	15.43
546.135	15.63
546.478	15.84
546.821	16.07
547.165	16.27
547.508	16.5
547.851	16.72
548.194	16.98
548.536	17.2
548.879	17.44
549.222	17.68
549.565	17.92
549.908	18.15
550.25	18.39
550.593	18.68
550.936	18.94
551.278	19.22
551.621	19.45
551.963	19.73
552.306	20.03
552.648	20.29
552.991	20.58
553.333	20.8
553.675	21.05
554.017	21.32
554.36	21.59
554.702	21.85
555.044	22.09
555.386	22.35
555.728	22.64
556.07	22.95
556.412	23.2
556.754	23.49
557.096	23.79
557.438	24.05
557.78	24.31
558.121	24.62
558.463	24.87
558.805	25.18
559.147	25.46
559.488	25.74
559.83	26.05
560.171	26.33
560.513	26.59
560.854	26.87
561.196	27.14
561.537	27.46
561.878	27.72
562.22	28.02
562.561	28.25
562.902	28.54
563.243	28.77
563.584	29.06
563.925	29.37
564.266	29.63
564.607	29.91
564.948	30.18
565.289	30.43
565.63	30.67
565.971	30.92
566.312	31.18
566.653	31.4
566.993	31.62
567.334	31.85
567.675	32.15
568.015	32.38
568.356	32.62
568.696	32.82
569.037	33.05
569.377	33.36
569.718	33.65
570.058	33.92
570.398	34.17
570.739	34.37
571.079	34.58
571.419	34.81
571.759	35.03
572.099	35.27
572.439	35.48
572.779	35.74
573.119	35.92
573.459	36.12
573.799	36.34
574.139	36.61
574.479	36.81
574.819	37.03
575.158	37.3
575.498	37.48
575.838	37.74
576.177	38.03
576.517	38.19
576.856	38.42
577.196	38.62
577.535	38.92
577.875	39.18
578.214	39.41
578.553	39.66
578.893	39.92
579.232	40.18
579.571	40.42
579.91	40.69
580.25	40.97
580.589	41.19
580.928	41.51
581.267	41.71
581.606	41.99
581.945	42.18
582.283	42.38
582.622	42.7
582.961	42.89
583.3	43.08
583.639	43.31
583.977	43.46
584.316	43.73
584.654	43.84
584.993	44.01
585.332	44.25
585.67	44.44
586.008	44.64
586.347	44.77
586.685	45
587.024	45.12
587.362	45.23
587.7	45.45
588.038	45.51
588.376	45.64
588.715	45.78
589.053	45.92
589.391	46.04
589.729	46.17
590.067	46.25
590.404	46.33
590.742	46.44
591.08	46.62
591.418	46.72
591.756	46.9
592.093	46.97
592.431	46.99
592.769	47.09
593.106	47.13
593.444	47.25
593.781	47.31
594.119	47.37
594.456	47.51
594.793	47.6
595.131	47.74
595.468	47.86
595.805	47.93
596.143	48.04
596.48	48.18
596.817	48.23
597.154	48.37
597.491	48.46
597.828	48.55
598.165	48.64
598.502	48.66
598.839	48.79
599.176	49
599.512	49.15
599.849	49.26
600.186	49.36
600.523	49.44
600.859	49.48
601.196	49.63
601.532	49.66
601.869	49.77
602.205	49.85
602.542	49.9
602.878	50.01
603.215	50.08
603.551	50.17
603.887	50.24
604.223	50.27
604.56	50.33
604.896	50.34
605.232	50.39
605.568	50.5
605.904	50.47
606.24	50.52
606.576	50.56
606.912	50.58
607.248	50.64
607.583	50.74
607.919	50.84
608.255	50.9
608.591	51.05
608.926	51.14
609.262	51.2
609.597	51.28
609.933	51.39
610.268	51.49
610.604	51.53
610.939	51.63
611.275	51.74
611.61	51.84
611.945	52.02
612.281	52.18
612.616	52.28
612.951	52.39
613.286	52.47
613.621	52.58
613.956	52.68
614.291	52.86
614.626	52.97
614.961	53.12
615.296	53.26
615.631	53.29
615.966	53.32
616.3	53.4
616.635	53.48
616.97	53.47
617.304	53.56
617.639	53.6
617.973	53.68
618.308	53.78
618.642	53.88
618.977	53.94
619.311	53.85
619.646	53.89
619.98	54.05
620.314	54.15
620.648	54.32
620.983	54.49
621.317	54.46
621.651	54.48
621.985	54.52
622.319	54.56
622.653	54.63
622.987	54.7
623.321	54.69
623.655	54.71
623.988	54.74
624.322	54.63
624.656	54.64
624.99	54.58
625.323	54.52
625.657	54.54
625.99	54.57
626.324	54.6
626.657	54.59
626.991	54.49
627.324	54.48
627.658	54.46
627.991	54.44
628.324	54.56
628.657	54.6
628.991	54.57
629.324	54.55
629.657	54.61
629.99	54.61
630.323	54.73
630.656	54.84
630.989	54.92
631.322	55.05
631.655	55.08
631.987	55.16
632.32	55.25
632.653	55.31
632.986	55.3
633.318	55.41
633.651	55.44
633.984	55.6
634.316	55.6
634.649	55.59
634.981	55.65
635.313	55.65
635.646	55.76
635.978	55.84
636.31	55.91
636.643	55.9
636.975	55.97
637.307	56
637.639	55.93
637.971	55.96
638.303	56.12
638.635	56.35
638.967	56.43
639.299	56.51
639.631	56.56
639.963	56.66
640.295	56.69
640.626	56.8
640.958	56.78
641.29	56.82
641.621	56.87
641.953	56.83
642.285	56.85
642.616	56.73
642.948	56.8
643.279	56.77
643.61	56.88
643.942	56.84
644.273	56.76
644.604	56.79
644.936	56.85
645.267	56.76
645.598	56.63
645.929	56.67
646.26	56.59
646.591	56.49
646.922	56.43
647.253	56.44
647.584	56.43
647.915	56.42
648.245	56.42
648.576	56.48
648.907	56.52
649.238	56.55
649.568	56.65
649.899	56.64
650.229	56.68
650.56	56.68
650.89	56.65
651.221	56.69
651.551	56.74
651.882	56.61
652.212	56.7
652.542	56.64
652.872	56.58
653.203	56.58
653.533	56.64
653.863	56.64
654.193	56.63
654.523	56.63
654.853	56.67
655.183	56.73
655.513	56.66
655.843	56.61
656.172	56.72
656.502	56.63
656.832	56.58
657.162	56.61
657.491	56.58
657.821	56.53
658.15	56.54
658.48	56.57
658.809	56.71
659.139	56.69
659.468	56.74
659.798	56.75
660.127	56.79
660.456	56.8
660.785	56.8
661.115	56.86
661.444	56.85
661.773	56.85
662.102	56.86
662.431	57
662.76	57.13
663.089	57.02
663.418	57.05
663.747	57.1
664.076	57.21
664.404	57.35
664.733	57.51
665.062	57.62
665.39	57.65
665.719	57.74
666.048	57.69
666.376	57.7
666.705	57.81
667.033	57.82
667.362	57.86
667.69	58
668.018	58.06
668.347	58.06
668.675	58.14
669.003	58.15
669.331	58.07
669.659	58.03
669.987	58.05
670.315	58.18
670.643	58.32
670.971	58.13
671.299	57.98
671.627	58.02
671.955	58.05
672.283	58.12
672.61	58.06
672.938	58.11
673.266	58.11
673.593	57.94
673.921	57.94
674.249	57.93
674.576	57.82
674.904	57.74
675.231	57.84
675.558	57.78
675.886	57.67
676.213	57.65
676.54	57.6
676.867	57.55
677.195	57.54
677.522	57.47
677.849	57.5
678.176	57.44
678.503	57.42
678.83	57.33
679.157	57.18
679.484	57.1
679.81	56.98
680.137	57
680.464	57.1
680.791	57.07
681.117	57.04
681.444	57.17
681.771	57.23
682.097	57.17
682.424	57.2
682.75	57.25
683.077	57.25
683.403	57.31
683.729	57.38
684.056	57.23
684.382	57.15
684.708	57.17
685.034	57.31
685.36	57.23
685.686	57.27
686.012	57.36
686.339	57.4
686.664	57.44
686.99	57.42
687.316	57.44
687.642	57.5
687.968	57.6
688.294	57.42
688.619	57.21
688.945	57.1
689.271	57.09
689.596	57.2
689.922	57.06
690.247	56.97
690.573	57.05
690.898	57.23
691.224	57.28
691.549	57.25
691.874	57.23
692.2	57.27
692.525	57.3
692.85	57.21
693.175	57.27
693.5	57.29
693.825	57.19
694.15	57.06
694.475	56.97
694.8	56.96
695.125	56.88
695.45	57.04
695.775	57.09
696.099	57.14
696.424	56.94
696.749	57.04
697.073	57.06
697.398	56.81
697.723	56.72
698.047	56.75
698.372	56.83
698.696	56.79
699.02	56.8
699.345	56.82
699.669	56.91
699.993	56.84
700.318	56.74
700.642	56.85
700.966	56.92
701.29	57.04
701.614	56.94
701.938	57.12
702.262	57.15
702.586	57.25
702.91	57.24
703.234	57.56
703.557	57.64
703.881	57.8
704.205	57.98
704.529	58.05
704.852	58.06
705.176	58
705.499	58.07
705.823	58.04
706.146	58.08
706.47	58.29
706.793	58.21
707.117	58.58
707.44	58.58
707.763	58.44
708.086	58.32
708.409	58.39
708.733	58.35
709.056	58.32
709.379	58.44
709.702	58.22
710.025	58.03
710.348	57.96
710.671	57.85
710.993	57.78
711.316	57.69
711.639	57.8
711.962	57.78
712.284	57.66
712.607	57.72
712.93	57.75
713.252	57.34
713.575	57.54
713.897	57.25
714.22	57.1
714.542	57.33
714.864	57.46
715.187	57.45
715.509	57.47
715.831	57.53
716.153	57.26
716.475	57.31
716.798	57.08
717.12	56.94
717.442	56.92
717.764	56.96
718.085	56.88
718.407	56.66
718.729	56.74
719.051	57.08
719.373	56.87
719.695	56.86
720.016	57.09
720.338	56.87
720.659	57
720.981	57.02
721.302	56.84
721.624	56.85
721.945	56.94
722.267	56.94
722.588	56.69
722.909	56.65
723.231	56.95
723.552	57.26
723.873	57.4
724.194	57.36
724.515	57.57
724.836	57.54
725.157	57.69
725.478	57.61
725.799	57.26
726.12	57.26
726.441	57.06
726.762	57.08
727.083	57.06
727.403	57.25
727.724	57.3
728.045	57.34
728.365	57.22
728.686	57.22
729.006	57.18
729.327	57.35
729.647	57.52
729.967	57.52
730.288	57.46
730.608	57.51
730.928	57.59
731.249	57.56
731.569	57.8
731.889	57.79
732.209	57.69
732.529	57.65
732.849	57.63
733.169	57.46
733.489	57.66
733.809	57.58
734.129	57.32
734.448	57.43
734.768	57.3
735.088	57.31
735.408	57.25
735.727	57.3
736.047	57.32
736.366	57.27
736.686	57.16
737.005	57.33
737.325	57.14
737.644	56.77
737.963	56.72
738.283	56.59
738.602	56.49
738.921	56.81
739.24	57.02
739.56	57.11
739.879	57.36
740.198	57.1
740.517	57.41
740.836	57.36
741.155	57.26
741.473	57.2
741.792	56.98
742.111	56.92
742.43	56.74
742.748	56.59
743.067	56.53
743.386	56.45
743.704	56.43
744.023	56.48
744.341	57.08
744.66	57.04
744.978	56.93
745.297	56.85
745.615	56.79
745.933	56.71
746.252	56.95
746.57	57.3
746.888	57.48
747.206	57.26
747.524	57.33
747.842	57.34
748.16	57.69
748.478	58.03
748.796	58.45
749.114	58.59
749.432	58.81
749.749	58.88
750.067	59.09
750.385	58.66
750.703	58.72
751.02	58.69
751.338	58.63
751.655	58.61
751.973	58.83
752.29	58.81
752.608	58.85
752.925	58.58
753.242	58.1
753.56	57.9
753.877	57.85
754.194	58.08
754.511	57.95
754.828	57.77
755.145	57.26
755.462	56.59
755.779	56.58
756.096	56.44
756.413	56.39
756.73	56.3
757.047	56.42
757.364	56.36
757.68	55.9
757.997	55.83
758.314	55.8
758.63	55.83
758.947	55.73
759.264	55.5
759.58	55.32
759.896	55.17
760.213	55.1
760.529	55.07
760.846	54.95
761.162	54.92
761.478	55.07
761.794	55.34
762.11	55.51
762.426	55.53
762.743	55.65
763.059	55.55
763.375	55.42
763.69	55.6
764.006	55.69
764.322	55.77
764.638	55.83
764.954	55.71
765.27	55.64
765.585	55.67
765.901	55.81
766.216	56.14
766.532	56.33
766.848	56.42
767.163	56.46
767.478	56.53
767.794	56.67
768.109	56.63
768.424	56.77
768.74	56.77
769.055	56.91
769.37	56.58
769.685	56.72
770	56.54
770.315	56.67
770.63	56.68
770.945	56.74
771.26	56.53
771.575	56.84
771.89	57.23
772.205	57.37
772.52	57.19
772.834	56.95
773.149	56.77
773.464	56.63
773.778	56.55
774.093	56.44
774.407	56.88
774.722	56.95
775.036	56.8
775.351	56.69
775.665	56.29
775.979	56.56
776.293	56.7
776.608	57.18
776.922	56.79
777.236	56.62
777.55	56.37
777.864	56.52
778.178	56.85
778.492	56.08
778.806	55.91
779.12	55.9
779.434	56.05
779.747	56.14
780.061	56.66
780.375	56.95
780.689	57.21
781.002	56.52
781.316	56.44
781.629	56.43
781.943	56.5
782.256	56.76
782.57	56.84
782.883	56.62
783.196	56.88
783.51	56.98
783.823	57.7
784.136	58.39
784.449	58.59
784.762	57.99
785.075	58.08
785.388	58.2
785.701	58.42
786.014	57.9
786.327	57.94
786.64	57.59
786.953	57.58
787.266	57.27
787.578	57.4
787.891	57.45
788.204	57.16
788.516	57.36
788.829	57.37
789.141	57.33
789.454	57.75
789.766	57.34
790.079	57.27
790.391	56.55
790.703	55.69
791.016	55.64
791.328	56.12
791.64	56.19
791.952	55.95
792.264	55.99
792.576	56.34
792.888	55.9
793.2	55.52
793.512	55.36
793.824	55.41
794.136	55.43
794.448	55.14
794.76	55.49
795.071	55.89
795.383	55.92
795.695	56
796.006	55.07
796.318	55.03
796.629	54.57
796.941	55.15
797.252	55.79
797.564	55.61
797.875	54.79
798.186	54.66
798.497	54.88
798.809	54.79
799.12	54.84
799.431	55.52
799.742	55.17
800.053	54.9
800.364	54.72
800.675	55
800.986	54.64
801.297	54.4
801.608	53.38
801.918	53.72
802.229	53.7
802.54	53.75
802.851	53.91
803.161	54.19
803.472	53.35
803.782	53.92
804.093	54.08
804.403	54.59
804.714	54.7
805.024	54.07
805.334	54.28
805.645	54.07
805.955	54.11
806.265	55.07
806.575	55.85
806.885	55.66
807.195	55.29
807.505	56.2
807.815	56.17
808.125	56.87
808.435	55.87
808.745	56.05
809.055	56.73
809.365	57.22
809.674	57.12
809.984	57.27
810.294	56.38
810.603	56.05
810.913	56.55
811.222	56.55
811.532	56.9
811.841	56.96
812.151	57.21
812.46	56.87
812.769	56.23
813.079	55.58
813.388	55.75
813.697	54.96
814.006	54.12
814.315	54.48
814.624	53.42
814.933	53.64
815.242	52.72
815.551	52.12
815.86	51.28
816.169	51.46
816.478	52.01
816.786	51.61
817.095	51.88
817.404	51.52
817.712	51.63
818.021	51.6
818.33	51.93
818.638	51.94
818.947	52.31
819.255	52.6
819.563	52.31
819.872	52.4
820.18	53.06
820.488	53.36
820.796	53.42
821.105	53.89
821.413	53.94
821.721	54.07
822.029	54.29
822.337	54.49
822.645	54.69
822.953	54.52
823.26	54.72
823.568	54.64
823.876	54.74
824.184	54.79
824.491	54.81
824.799	54.77
825.107	54.81
825.414	54.82
825.722	54.74
826.029	55.12
826.337	55.1
826.644	55.12
826.951	55.14
827.259	54.98
827.566	54.82
827.873	54.89
828.18	54.94
828.488	54.75
828.795	54.37
829.102	54.08
829.409	54
829.716	53.99
830.023	54.23
830.329	54.02
830.636	54.11
830.943	54.2
831.25	53.65
831.557	53.46
831.863	53.29
832.17	53.18
832.476	52.9
832.783	53.01
833.089	52.59
833.396	53.04
833.702	53.44
834.009	53.45
834.315	53.6
834.621	53.53
834.928	53.55
835.234	54.05
835.54	53.64
835.846	53.87
836.152	53.72
836.458	53.5
836.764	53.35
837.07	53.14
837.376	52.96
837.682	53.24
837.988	53.53
838.293	53.9
838.599	54.75
838.905	54.79
839.211	55.17
839.516	56.04
839.822	55.92
840.127	55.82
840.433	56.79
840.738	56.66
841.044	56.76
841.349	57
841.654	56.48
841.959	58.12
842.265	57.81
842.57	57.6
842.875	58.43
843.18	59.38
843.485	59.45
843.79	59.17
844.095	59.28
844.4	59.52
844.705	60.15
845.01	58.63
845.315	57.79
845.619	57.37
845.924	56.01
846.229	55.03
846.533	55.3
846.838	53.95
847.142	52.76
847.447	53.23
847.751	53.6
848.056	52.85
848.36	52.55
848.664	54.36
848.969	54.47
849.273	52.66
849.577	51.03
849.881	52.53
850.185	53.1
850.489	53.57
850.794	52.03
851.097	50.98
851.401	51.82
851.705	51.36
852.009	52.53
852.313	53.85
852.617	53.48
852.92	54.02
853.224	54.27
853.528	56.29
853.831	55.09
854.135	54.54
854.438	53.76
854.742	51.23
855.045	49.47
855.349	50.15
855.652	50.42
855.955	50.54
856.259	49.3
856.562	48.97
856.865	47.06
857.168	49.05
857.471	47.03
857.774	46.86
858.077	47.41
858.38	45.02
858.683	44.58
858.986	44.87
859.289	44.45
859.592	46.1
859.894	44.69
860.197	45.26
860.5	44.81
860.802	45.95
861.105	49.13
861.407	49.89
861.71	50.57
862.012	51.56
862.315	51.37
862.617	50.3
862.919	51.21
863.222	51.5
863.524	48.48
863.826	47.75
864.128	47.72
864.43	47.93
864.732	47.63
865.034	49.64
865.336	48.98
865.638	48.5
865.94	46.75
866.242	48.43
866.544	46.96
866.846	49.45
867.147	51.29
867.449	49.4
867.751	49.74
868.052	50.08
868.354	47.61
868.655	49.94
868.957	49.7
869.258	47.87
869.56	51.45
869.861	51.19
870.162	51.91
870.463	52.93
870.765	53.85
871.066	56.24
871.367	54.07
871.668	55.12
871.969	55.43
872.27	54.46
872.571	51.94
872.872	53.32
873.173	52.44
873.473	51.74
873.774	52.88
874.075	51.79
874.376	50.75
874.676	53.71
874.977	54.73
875.277	53.6
875.578	54.99
875.878	53.46
876.179	55.71
876.479	57.15
876.78	56.47
877.08	55.96
877.38	55.02
877.68	56
877.981	54.54
878.281	54.03
878.581	56.27
