Data from BU57647_Reflection_00011.txt Node
Date: Mon Nov 18 16:49:41 EST 2019
User: vgr7
Spectrometer: USB2G7710
Scans to average: 3
Trigger mode: 4
Integration Time (sec): 2.000000E-2
Electric dark correction enabled: true
Boxcar width: 10
XAxis mode: Wavelengths
Number of Pixels in Spectrum: 2048
>>>>>Begin Spectral Data<<<<<
177.721	23.05
178.105	-29.68
178.488	68.45
178.871	-282.98
179.254	4.33
179.636	-144.57
180.019	-12.85
180.402	-5
180.785	244.77
181.168	100
181.55	219.11
181.933	123.65
182.316	88.42
182.698	109.28
183.081	230.05
183.463	336.71
183.846	-3409.43
184.228	-8627.27
184.611	-487.76
184.993	-97.32
185.376	-81.01
185.758	-100.2
186.14	-132.23
186.522	-72.23
186.904	-56.37
187.287	-134.81
187.669	-152.16
188.051	-140.9
188.433	-57.32
188.815	-14.52
189.197	17.12
189.579	27.46
189.961	-4.29
190.342	-18.27
190.724	39.76
191.106	65.1
191.488	59.83
191.869	79.37
192.251	63.84
192.633	51.98
193.014	38.7
193.396	40.7
193.777	52.35
194.159	143.17
194.54	107.26
194.922	177.12
195.303	118.21
195.684	119.13
196.065	89.2
196.447	87.44
196.828	94.65
197.209	49.5
197.59	48.84
197.971	30.37
198.352	31.08
198.733	20.68
199.114	12.22
199.495	2.41
199.876	-4.16
200.257	-6.56
200.638	3.41
201.018	-16.18
201.399	-14.23
201.78	0.11
202.16	-2.21
202.541	-42.91
202.922	-32.55
203.302	-41.05
203.683	-44.5
204.063	-106.56
204.444	-95.5
204.824	-119.41
205.204	-148.4
205.585	-153.89
205.965	-231.66
206.345	-303.03
206.725	-1853.49
207.106	-2110.53
207.486	981.21
207.866	1139.81
208.246	2971.17
208.626	2512.06
209.006	-1336.07
209.386	5252.94
209.766	-9091.49
210.145	-1586.83
210.525	-171.71
210.905	-171.84
211.285	-148.28
211.664	-131.2
212.044	-103.36
212.424	-94.93
212.803	-91.43
213.183	-121.61
213.562	-98.55
213.942	-72.83
214.321	-49.79
214.701	-34.68
215.08	-15.41
215.459	-5.71
215.838	4.05
216.218	4.81
216.597	15.49
216.976	20.8
217.355	26.26
217.734	25.96
218.113	26.68
218.492	23.26
218.871	27.31
219.25	26.58
219.629	18.76
220.008	3.59
220.387	8.53
220.766	20.04
221.144	7.72
221.523	-4.3
221.902	-11.3
222.28	-24.67
222.659	-26.48
223.037	-48.71
223.416	-56.61
223.794	-63.85
224.173	-55.11
224.551	-61.16
224.929	-62.39
225.308	-48.8
225.686	-41.01
226.064	-37.71
226.442	-36.62
226.821	-26.44
227.199	-27.08
227.577	-21.07
227.955	-13.01
228.333	-11.49
228.711	-12.19
229.089	-7.54
229.467	-3.7
229.845	-4.39
230.222	-2.69
230.6	-2.36
230.978	-3.04
231.356	-0.89
231.733	-0.77
232.111	2.33
232.488	4.86
232.866	2.79
233.243	3.24
233.621	1.81
233.998	5.04
234.376	4.92
234.753	4.78
235.13	5.1
235.508	5.74
235.885	4.55
236.262	3.5
236.639	3.95
237.016	3.94
237.393	3.32
237.77	4.23
238.147	5.07
238.524	5.21
238.901	6.89
239.278	6.97
239.655	7.63
240.032	7.15
240.409	6.69
240.785	7.27
241.162	6.99
241.539	7.18
241.915	6.65
242.292	6.33
242.668	5.8
243.045	6.02
243.421	6.21
243.798	5.97
244.174	5.88
244.551	5.97
244.927	5.84
245.303	5.74
245.679	5.49
246.056	5.23
246.432	5.09
246.808	4.77
247.184	4.47
247.56	4.23
247.936	4.19
248.312	4.18
248.688	4.03
249.064	3.98
249.44	3.78
249.815	3.64
250.191	4.02
250.567	4.2
250.943	3.99
251.318	3.72
251.694	4.03
252.069	3.88
252.445	3.67
252.82	3.95
253.196	4.06
253.571	4.33
253.947	4.42
254.322	4.94
254.697	4.74
255.073	4.54
255.448	4.69
255.823	4.53
256.198	4.71
256.573	4.81
256.948	4.79
257.323	4.89
257.698	5.1
258.073	4.88
258.448	4.62
258.823	4.71
259.198	4.61
259.573	4.42
259.948	4.56
260.322	4.52
260.697	4.44
261.072	4.4
261.446	4.27
261.821	4.24
262.195	3.99
262.57	4.06
262.944	4.1
263.319	4.13
263.693	4.18
264.067	4.06
264.442	4.06
264.816	4.08
265.19	4.12
265.564	4.1
265.938	3.87
266.313	4.1
266.687	4.08
267.061	4.1
267.435	3.93
267.809	3.7
268.183	3.82
268.556	3.72
268.93	3.67
269.304	3.7
269.678	3.78
270.051	3.83
270.425	3.87
270.799	3.92
271.172	3.83
271.546	3.75
271.919	3.54
272.293	3.44
272.666	3.48
273.04	3.4
273.413	3.23
273.787	3.31
274.16	3.16
274.533	3.04
274.906	3.15
275.279	3.35
275.653	3.35
276.026	3.23
276.399	3.08
276.772	3.17
277.145	3.21
277.518	3.03
277.891	2.99
278.263	2.92
278.636	2.96
279.009	3.07
279.382	3.2
279.755	3.27
280.127	3.55
280.5	3.64
280.872	3.66
281.245	3.63
281.617	3.7
281.99	3.81
282.362	3.86
282.735	3.59
283.107	3.54
283.479	3.64
283.852	3.66
284.224	3.87
284.596	3.89
284.968	3.95
285.34	4.18
285.713	4.22
286.085	4.38
286.457	4.47
286.829	4.39
287.201	4.36
287.572	4.46
287.944	4.32
288.316	4.18
288.688	4.05
289.06	4.13
289.431	4.22
289.803	4.28
290.175	4.24
290.546	4.49
290.918	4.44
291.289	4.6
291.661	4.76
292.032	4.75
292.403	4.65
292.775	4.61
293.146	4.51
293.517	4.42
293.889	4.5
294.26	4.38
294.631	4.39
295.002	4.31
295.373	4.27
295.744	4.38
296.115	4.39
296.486	4.45
296.857	4.48
297.228	4.42
297.599	4.43
297.97	4.49
298.34	4.53
298.711	4.71
299.082	4.56
299.452	4.46
299.823	4.57
300.194	4.65
300.564	4.72
300.935	4.8
301.305	4.89
301.676	4.78
302.046	4.92
302.416	5.07
302.787	5.21
303.157	5.23
303.527	5.16
303.897	5.24
304.267	5.37
304.637	5.45
305.008	5.59
305.378	5.73
305.748	6
306.117	6.03
306.487	6.09
306.857	6.29
307.227	6.5
307.597	6.47
307.967	6.43
308.336	6.57
308.706	6.58
309.076	6.6
309.445	6.61
309.815	6.7
310.184	6.66
310.554	6.65
310.923	6.63
311.293	6.77
311.662	6.82
312.031	6.91
312.401	6.96
312.77	7.01
313.139	6.92
313.508	6.89
313.877	6.83
314.246	6.9
314.616	6.88
314.985	6.94
315.353	6.91
315.722	7.19
316.091	7.09
316.46	7.13
316.829	7.26
317.198	7.4
317.567	7.35
317.935	7.42
318.304	7.43
318.672	7.49
319.041	7.56
319.41	7.51
319.778	7.59
320.147	7.6
320.515	7.62
320.883	7.8
321.252	7.81
321.62	7.87
321.988	7.86
322.357	7.83
322.725	7.71
323.093	7.79
323.461	7.69
323.829	7.78
324.197	7.89
324.565	8.03
324.933	8.01
325.301	7.98
325.669	8
326.037	8.05
326.405	8.21
326.772	8.23
327.14	8.4
327.508	8.34
327.875	8.38
328.243	8.48
328.61	8.55
328.978	8.69
329.346	8.85
329.713	8.89
330.08	9.08
330.448	9.04
330.815	8.95
331.182	8.92
331.55	8.99
331.917	9.06
332.284	9.02
332.651	9.02
333.018	9.14
333.385	9.23
333.752	9.35
334.119	9.4
334.486	9.31
334.853	9.34
335.22	9.46
335.587	9.53
335.954	9.55
336.32	9.46
336.687	9.38
337.054	9.36
337.42	9.31
337.787	9.18
338.153	9.26
338.52	9.48
338.886	9.6
339.253	9.45
339.619	9.38
339.986	9.34
340.352	9.37
340.718	9.35
341.084	9.29
341.451	9.31
341.817	9.3
342.183	9.29
342.549	9.22
342.915	9.29
343.281	9.25
343.647	9.26
344.013	9.33
344.379	9.24
344.745	9.32
345.11	9.32
345.476	9.35
345.842	9.33
346.208	9.26
346.573	9.27
346.939	9.38
347.304	9.4
347.67	9.38
348.035	9.46
348.401	9.41
348.766	9.57
349.132	9.53
349.497	9.55
349.862	9.72
350.228	9.71
350.593	9.56
350.958	9.45
351.323	9.42
351.688	9.34
352.053	9.48
352.418	9.45
352.783	9.42
353.148	9.46
353.513	9.44
353.878	9.48
354.243	9.49
354.608	9.5
354.972	9.43
355.337	9.49
355.702	9.49
356.066	9.59
356.431	9.54
356.795	9.51
357.16	9.45
357.524	9.26
357.889	9.21
358.253	9.27
358.618	9.36
358.982	9.23
359.346	9.23
359.71	9.08
360.075	9.01
360.439	9.04
360.803	8.96
361.167	8.93
361.531	8.83
361.895	8.8
362.259	8.74
362.623	8.69
362.987	8.6
363.351	8.5
363.714	8.41
364.078	8.32
364.442	8.23
364.806	8.18
365.169	8.17
365.533	8.1
365.896	7.96
366.26	7.88
366.623	7.87
366.987	7.84
367.35	7.88
367.714	7.84
368.077	7.79
368.44	7.81
368.803	7.72
369.167	7.72
369.53	7.61
369.893	7.57
370.256	7.56
370.619	7.54
370.982	7.46
371.345	7.38
371.708	7.33
372.071	7.32
372.434	7.27
372.797	7.23
373.159	7.23
373.522	7.2
373.885	7.15
374.247	7.11
374.61	7.07
374.973	6.94
375.335	6.91
375.698	6.77
376.06	6.67
376.423	6.68
376.785	6.64
377.147	6.57
377.51	6.48
377.872	6.5
378.234	6.42
378.596	6.36
378.958	6.3
379.321	6.23
379.683	6.17
380.045	6.1
380.407	6.06
380.769	5.95
381.13	5.92
381.492	5.86
381.854	5.8
382.216	5.69
382.578	5.73
382.939	5.64
383.301	5.64
383.663	5.66
384.024	5.57
384.386	5.54
384.747	5.55
385.109	5.54
385.47	5.42
385.832	5.4
386.193	5.4
386.554	5.38
386.916	5.34
387.277	5.32
387.638	5.32
387.999	5.25
388.36	5.27
388.721	5.3
389.082	5.26
389.443	5.21
389.804	5.15
390.165	5.1
390.526	5.09
390.887	5.02
391.248	4.95
391.609	4.96
391.969	4.92
392.33	4.86
392.691	4.83
393.051	4.78
393.412	4.72
393.772	4.64
394.133	4.62
394.493	4.63
394.854	4.59
395.214	4.56
395.574	4.54
395.935	4.46
396.295	4.42
396.655	4.4
397.015	4.4
397.376	4.43
397.736	4.37
398.096	4.36
398.456	4.33
398.816	4.31
399.176	4.24
399.535	4.21
399.895	4.22
400.255	4.17
400.615	4.19
400.975	4.19
401.334	4.21
401.694	4.19
402.054	4.13
402.413	4.12
402.773	4.05
403.132	4.03
403.492	4.05
403.851	4.03
404.211	4.02
404.57	3.99
404.929	3.96
405.288	3.95
405.648	3.92
406.007	3.94
406.366	3.93
406.725	3.94
407.084	3.91
407.443	3.89
407.802	3.91
408.161	3.85
408.52	3.83
408.879	3.82
409.238	3.81
409.596	3.8
409.955	3.78
410.314	3.79
410.673	3.78
411.031	3.75
411.39	3.72
411.748	3.68
412.107	3.68
412.465	3.67
412.824	3.66
413.182	3.63
413.54	3.6
413.899	3.61
414.257	3.6
414.615	3.6
414.974	3.6
415.332	3.58
415.69	3.57
416.048	3.55
416.406	3.54
416.764	3.53
417.122	3.55
417.48	3.52
417.838	3.52
418.195	3.52
418.553	3.52
418.911	3.51
419.269	3.51
419.626	3.49
419.984	3.46
420.342	3.45
420.699	3.44
421.057	3.43
421.414	3.4
421.772	3.38
422.129	3.36
422.486	3.33
422.844	3.32
423.201	3.32
423.558	3.32
423.915	3.31
424.273	3.3
424.63	3.26
424.987	3.25
425.344	3.24
425.701	3.22
426.058	3.21
426.415	3.19
426.772	3.18
427.128	3.18
427.485	3.18
427.842	3.17
428.199	3.17
428.555	3.17
428.912	3.17
429.269	3.16
429.625	3.18
429.982	3.19
430.338	3.19
430.695	3.2
431.051	3.18
431.407	3.18
431.764	3.18
432.12	3.2
432.476	3.21
432.832	3.19
433.189	3.19
433.545	3.19
433.901	3.2
434.257	3.19
434.613	3.18
434.969	3.19
435.325	3.19
435.681	3.19
436.036	3.19
436.392	3.2
436.748	3.2
437.104	3.19
437.459	3.18
437.815	3.17
438.171	3.17
438.526	3.19
438.882	3.18
439.237	3.18
439.593	3.16
439.948	3.16
440.304	3.17
440.659	3.18
441.014	3.17
441.369	3.17
441.725	3.15
442.08	3.16
442.435	3.16
442.79	3.16
443.145	3.15
443.5	3.14
443.855	3.13
444.21	3.12
444.565	3.14
444.92	3.14
445.275	3.14
445.629	3.14
445.984	3.14
446.339	3.12
446.693	3.11
447.048	3.11
447.403	3.11
447.757	3.11
448.112	3.08
448.466	3.07
448.82	3.07
449.175	3.08
449.529	3.08
449.883	3.08
450.238	3.09
450.592	3.08
450.946	3.06
451.3	3.05
451.654	3.05
452.008	3.03
452.362	3.01
452.716	3.01
453.07	3.01
453.424	2.97
453.778	2.98
454.132	2.98
454.486	2.97
454.839	2.96
455.193	2.94
455.547	2.97
455.9	2.99
456.254	3
456.607	2.98
456.961	2.98
457.314	2.97
457.668	2.98
458.021	2.97
458.375	2.98
458.728	2.99
459.081	2.98
459.434	2.96
459.787	2.98
460.141	2.97
460.494	2.98
460.847	2.99
461.2	2.98
461.553	2.98
461.906	2.99
462.259	3.01
462.611	3.03
462.964	3.03
463.317	3.03
463.67	3.04
464.022	3.04
464.375	3.03
464.728	3.04
465.08	3.03
465.433	3.05
465.785	3.04
466.138	3.04
466.49	3.05
466.843	3.05
467.195	3.06
467.547	3.09
467.899	3.09
468.252	3.1
468.604	3.15
468.956	3.16
469.308	3.17
469.66	3.16
470.012	3.17
470.364	3.17
470.716	3.19
471.068	3.19
471.42	3.21
471.772	3.22
472.123	3.24
472.475	3.25
472.827	3.25
473.178	3.26
473.53	3.27
473.882	3.27
474.233	3.31
474.585	3.29
474.936	3.27
475.288	3.27
475.639	3.3
475.99	3.25
476.342	3.25
476.693	3.25
477.044	3.28
477.395	3.24
477.746	3.25
478.097	3.23
478.448	3.22
478.8	3.21
479.15	3.2
479.501	3.2
479.852	3.19
480.203	3.18
480.554	3.17
480.905	3.18
481.255	3.18
481.606	3.17
481.957	3.17
482.307	3.18
482.658	3.17
483.009	3.17
483.359	3.19
483.709	3.2
484.06	3.19
484.41	3.19
484.761	3.2
485.111	3.2
485.461	3.21
485.811	3.2
486.162	3.2
486.512	3.21
486.862	3.2
487.212	3.2
487.562	3.22
487.912	3.22
488.262	3.21
488.612	3.21
488.961	3.21
489.311	3.22
489.661	3.23
490.011	3.23
490.36	3.22
490.71	3.22
491.06	3.21
491.409	3.21
491.759	3.21
492.108	3.21
492.458	3.2
492.807	3.2
493.157	3.21
493.506	3.22
493.855	3.21
494.204	3.23
494.554	3.25
494.903	3.23
495.252	3.25
495.601	3.29
495.95	3.33
496.299	3.34
496.648	3.35
496.997	3.36
497.346	3.4
497.695	3.42
498.043	3.42
498.392	3.45
498.741	3.48
499.09	3.49
499.438	3.52
499.787	3.56
500.135	3.6
500.484	3.65
500.832	3.68
501.181	3.73
501.529	3.76
501.878	3.8
502.226	3.85
502.574	3.88
502.923	3.9
503.271	3.93
503.619	3.98
503.967	4.02
504.315	4.07
504.663	4.11
505.011	4.16
505.359	4.21
505.707	4.26
506.055	4.3
506.403	4.38
506.751	4.4
507.098	4.44
507.446	4.51
507.794	4.56
508.141	4.63
508.489	4.7
508.837	4.75
509.184	4.81
509.531	4.88
509.879	4.97
510.226	5.04
510.574	5.09
510.921	5.18
511.268	5.25
511.616	5.32
511.963	5.4
512.31	5.48
512.657	5.57
513.004	5.66
513.351	5.78
513.698	5.86
514.045	5.96
514.392	6.06
514.739	6.16
515.086	6.27
515.432	6.37
515.779	6.45
516.126	6.57
516.473	6.67
516.819	6.77
517.166	6.86
517.512	6.96
517.859	7.08
518.205	7.15
518.552	7.26
518.898	7.36
519.245	7.48
519.591	7.57
519.937	7.69
520.283	7.8
520.629	7.91
520.976	8.03
521.322	8.19
521.668	8.33
522.014	8.46
522.36	8.61
522.706	8.74
523.052	8.92
523.398	9.08
523.743	9.26
524.089	9.41
524.435	9.56
524.781	9.73
525.126	9.88
525.472	10.03
525.817	10.15
526.163	10.27
526.509	10.38
526.854	10.49
527.199	10.59
527.545	10.67
527.89	10.77
528.235	10.88
528.581	10.97
528.926	11.09
529.271	11.2
529.616	11.29
529.961	11.38
530.306	11.48
530.651	11.6
530.996	11.72
531.341	11.85
531.686	12.01
532.031	12.13
532.376	12.27
532.721	12.42
533.065	12.57
533.41	12.72
533.755	12.87
534.099	13.03
534.444	13.19
534.788	13.36
535.133	13.54
535.477	13.7
535.822	13.87
536.166	14.05
536.51	14.23
536.855	14.46
537.199	14.7
537.543	14.93
537.887	15.17
538.231	15.39
538.576	15.6
538.92	15.81
539.264	16.03
539.608	16.22
539.951	16.38
540.295	16.55
540.639	16.75
540.983	16.92
541.327	17.1
541.671	17.27
542.014	17.45
542.358	17.61
542.701	17.79
543.045	17.95
543.389	18.11
543.732	18.31
544.075	18.51
544.419	18.7
544.762	18.89
545.105	19.09
545.449	19.29
545.792	19.53
546.135	19.75
546.478	19.99
546.821	20.27
547.165	20.55
547.508	20.84
547.851	21.09
548.194	21.36
548.536	21.63
548.879	21.91
549.222	22.22
549.565	22.51
549.908	22.8
550.25	23.1
550.593	23.44
550.936	23.77
551.278	24.07
551.621	24.37
551.963	24.71
552.306	24.97
552.648	25.27
552.991	25.58
553.333	25.84
553.675	26.13
554.017	26.42
554.36	26.7
554.702	26.98
555.044	27.26
555.386	27.55
555.728	27.85
556.07	28.15
556.412	28.42
556.754	28.72
557.096	29.02
557.438	29.35
557.78	29.63
558.121	29.9
558.463	30.18
558.805	30.46
559.147	30.73
559.488	31.03
559.83	31.34
560.171	31.65
560.513	31.98
560.854	32.31
561.196	32.6
561.537	32.85
561.878	33.1
562.22	33.35
562.561	33.62
562.902	33.88
563.243	34.13
563.584	34.37
563.925	34.63
564.266	34.93
564.607	35.14
564.948	35.39
565.289	35.63
565.63	35.82
565.971	36.02
566.312	36.24
566.653	36.49
566.993	36.72
567.334	36.94
567.675	37.14
568.015	37.34
568.356	37.56
568.696	37.78
569.037	38.06
569.377	38.28
569.718	38.47
570.058	38.7
570.398	38.92
570.739	39.11
571.079	39.3
571.419	39.47
571.759	39.69
572.099	39.84
572.439	39.99
572.779	40.25
573.119	40.43
573.459	40.65
573.799	40.83
574.139	40.99
574.479	41.17
574.819	41.38
575.158	41.56
575.498	41.77
575.838	41.98
576.177	42.13
576.517	42.32
576.856	42.57
577.196	42.71
577.535	42.96
577.875	43.16
578.214	43.34
578.553	43.54
578.893	43.77
579.232	44
579.571	44.21
579.91	44.38
580.25	44.63
580.589	44.76
580.928	44.92
581.267	45.1
581.606	45.27
581.945	45.44
582.283	45.57
582.622	45.68
582.961	45.83
583.3	45.93
583.639	46.16
583.977	46.32
584.316	46.47
584.654	46.6
584.993	46.79
585.332	46.94
585.67	47.09
586.008	47.18
586.347	47.33
586.685	47.46
587.024	47.63
587.362	47.78
587.7	47.93
588.038	48.07
588.376	48.23
588.715	48.39
589.053	48.51
589.391	48.63
589.729	48.76
590.067	48.79
590.404	48.98
590.742	49.07
591.08	49.16
591.418	49.32
591.756	49.49
592.093	49.58
592.431	49.73
592.769	49.8
593.106	49.89
593.444	49.97
593.781	50.08
594.119	50.21
594.456	50.29
594.793	50.36
595.131	50.47
595.468	50.57
595.805	50.57
596.143	50.62
596.48	50.71
596.817	50.77
597.154	50.88
597.491	51.03
597.828	51.03
598.165	51.09
598.502	51.16
598.839	51.21
599.176	51.29
599.512	51.4
599.849	51.49
600.186	51.63
600.523	51.72
600.859	51.88
601.196	51.9
601.532	52.01
601.869	52.05
602.205	52.11
602.542	52.15
602.878	52.28
603.215	52.35
603.551	52.45
603.887	52.56
604.223	52.59
604.56	52.59
604.896	52.66
605.232	52.75
605.568	52.8
605.904	52.8
606.24	52.85
606.576	52.88
606.912	52.95
607.248	53.04
607.583	53.09
607.919	53.07
608.255	53.15
608.591	53.25
608.926	53.37
609.262	53.46
609.597	53.53
609.933	53.56
610.268	53.61
610.604	53.71
610.939	53.75
611.275	53.87
611.61	53.91
611.945	54.05
612.281	54.09
612.616	54.22
612.951	54.26
613.286	54.34
613.621	54.47
613.956	54.47
614.291	54.37
614.626	54.43
614.961	54.55
615.296	54.66
615.631	54.66
615.966	54.67
616.3	54.59
616.635	54.68
616.97	54.77
617.304	54.79
617.639	54.75
617.973	54.76
618.308	54.82
618.642	54.92
618.977	54.86
619.311	54.82
619.646	54.8
619.98	54.9
620.314	55
620.648	55
620.983	55.15
621.317	55.32
621.651	55.44
621.985	55.42
622.319	55.43
622.653	55.42
622.987	55.5
623.321	55.59
623.655	55.57
623.988	55.6
624.322	55.7
624.656	55.7
624.99	55.8
625.323	55.73
625.657	55.72
625.99	55.79
626.324	55.89
626.657	55.91
626.991	56
627.324	55.95
627.658	55.97
627.991	55.94
628.324	55.96
628.657	55.96
628.991	55.97
629.324	55.92
629.657	55.92
629.99	55.9
630.323	56
630.656	55.99
630.989	56
631.322	56.03
631.655	56.1
631.987	56.05
632.32	56.11
632.653	56.08
632.986	56.14
633.318	56.18
633.651	56.23
633.984	56.27
634.316	56.39
634.649	56.35
634.981	56.31
635.313	56.26
635.646	56.3
635.978	56.34
636.31	56.44
636.643	56.52
636.975	56.51
637.307	56.47
637.639	56.55
637.971	56.53
638.303	56.49
638.635	56.53
638.967	56.65
639.299	56.73
639.631	56.73
639.963	56.72
640.295	56.69
640.626	56.72
640.958	56.71
641.29	56.55
641.621	56.57
641.953	56.76
642.285	56.84
642.616	56.82
642.948	56.9
643.279	56.85
643.61	56.9
643.942	56.96
644.273	56.95
644.604	56.9
644.936	56.93
645.267	56.99
645.598	56.96
645.929	56.94
646.26	56.93
646.591	57.09
646.922	57.14
647.253	57.13
647.584	57.07
647.915	56.92
648.245	56.98
648.576	56.97
648.907	56.96
649.238	56.95
649.568	57.06
649.899	57.03
650.229	57.14
650.56	57.12
650.89	57.13
651.221	57.17
651.551	57.19
651.882	57.29
652.212	57.16
652.542	57.15
652.872	57.13
653.203	57.05
653.533	57.11
653.863	57.08
654.193	57.02
654.523	57.1
654.853	57.32
655.183	57.33
655.513	57.38
655.843	57.32
656.172	57.4
656.502	57.33
656.832	57.32
657.162	57.27
657.491	57.36
657.821	57.41
658.15	57.49
658.48	57.52
658.809	57.55
659.139	57.54
659.468	57.53
659.798	57.51
660.127	57.73
660.456	57.58
660.785	57.66
661.115	57.83
661.444	57.75
661.773	57.63
662.102	57.77
662.431	57.77
662.76	57.7
663.089	57.7
663.418	57.66
663.747	57.52
664.076	57.57
664.404	57.57
664.733	57.63
665.062	57.51
665.39	57.63
665.719	57.59
666.048	57.78
666.376	57.86
666.705	57.85
667.033	57.74
667.362	57.81
667.69	57.67
668.018	57.74
668.347	57.74
668.675	57.8
669.003	57.82
669.331	57.89
669.659	58.15
669.987	58.07
670.315	58.14
670.643	58.35
670.971	58.38
671.299	58.45
671.627	58.46
671.955	58.59
672.283	58.53
672.61	58.53
672.938	58.58
673.266	58.55
673.593	58.7
673.921	58.74
674.249	58.79
674.576	58.86
674.904	58.75
675.231	58.92
675.558	58.98
675.886	58.9
676.213	58.9
676.54	58.79
676.867	58.93
677.195	59.01
677.522	59.06
677.849	59.09
678.176	59.04
678.503	59.07
678.83	59.03
679.157	59.01
679.484	59.09
679.81	58.99
680.137	59.1
680.464	59.02
680.791	58.96
681.117	58.96
681.444	59.01
681.771	59.03
682.097	59.01
682.424	59.03
682.75	58.98
683.077	58.98
683.403	59.06
683.729	59.01
684.056	58.92
684.382	58.91
684.708	58.83
685.034	58.71
685.36	58.77
685.686	58.74
686.012	58.83
686.339	58.68
686.664	58.74
686.99	58.69
687.316	58.75
687.642	58.85
687.968	58.89
688.294	58.77
688.619	58.76
688.945	58.75
689.271	58.76
689.596	58.74
689.922	58.7
690.247	58.78
690.573	58.82
690.898	58.81
691.224	58.84
691.549	58.9
691.874	59.11
692.2	59.08
692.525	59.07
692.85	59.04
693.175	59.1
693.5	59.18
693.825	59.22
694.15	59.27
694.475	59.31
694.8	59.35
695.125	59.49
695.45	59.38
695.775	59.47
696.099	59.32
696.424	59.44
696.749	59.35
697.073	59.14
697.398	59.22
697.723	59.2
698.047	59.11
698.372	59.01
698.696	58.96
699.02	58.94
699.345	58.96
699.669	58.87
699.993	58.95
700.318	58.76
700.642	58.73
700.966	58.65
701.29	58.58
701.614	58.51
701.938	58.55
702.262	58.51
702.586	58.37
702.91	58.49
703.234	58.57
703.557	58.75
703.881	58.77
704.205	58.73
704.529	58.89
704.852	58.95
705.176	59.11
705.499	58.98
705.823	58.91
706.146	58.99
706.47	59.29
706.793	59.3
707.117	59.47
707.44	59.44
707.763	59.49
708.086	59.54
708.409	59.81
708.733	59.69
709.056	59.92
709.379	60.08
709.702	59.91
710.025	59.73
710.348	59.66
710.671	59.67
710.993	59.69
711.316	59.59
711.639	59.67
711.962	59.8
712.284	59.95
712.607	59.93
712.93	59.9
713.252	59.93
713.575	59.96
713.897	59.89
714.22	59.84
714.542	59.69
714.864	59.58
715.187	59.42
715.509	59.38
715.831	59.29
716.153	59.3
716.475	59.33
716.798	59.41
717.12	59.48
717.442	59.64
717.764	59.46
718.085	59.47
718.407	59.29
718.729	59.08
719.051	58.91
719.373	58.87
719.695	58.9
720.016	58.64
720.338	58.39
720.659	58.4
720.981	58.49
721.302	58.58
721.624	58.85
721.945	58.75
722.267	58.83
722.588	58.8
722.909	58.74
723.231	58.71
723.552	58.85
723.873	58.73
724.194	58.66
724.515	58.79
724.836	58.63
725.157	58.8
725.478	58.71
725.799	58.82
726.12	58.92
726.441	59.08
726.762	59.19
727.083	59.23
727.403	59.23
727.724	59.06
728.045	59.25
728.365	59
728.686	59
729.006	59.02
729.327	59.23
729.647	59.28
729.967	59.4
730.288	59.34
730.608	59.53
730.928	59.71
731.249	59.71
731.569	60.04
731.889	60.06
732.209	60.13
732.529	60.06
732.849	60.14
733.169	60.01
733.489	60
733.809	60.11
734.129	60.15
734.448	60.24
734.768	60.16
735.088	60.41
735.408	60.38
735.727	60.55
736.047	60.36
736.366	60.3
736.686	60.41
737.005	60.52
737.325	60.49
737.644	60.17
737.963	60.28
738.283	60.12
738.602	60.09
738.921	60.47
739.24	60.34
739.56	60.29
739.879	60.12
740.198	60.22
740.517	60.05
740.836	60.12
741.155	60.22
741.473	60.25
741.792	60.14
742.111	60.24
742.43	60.4
742.748	60.28
743.067	60.11
743.386	59.98
743.704	59.66
744.023	59.79
744.341	59.79
744.66	59.77
744.978	59.82
745.297	59.67
745.615	59.35
745.933	59.66
746.252	59.9
746.57	60.13
746.888	59.76
747.206	60.1
747.524	60.03
747.842	60.24
748.16	60.28
748.478	60.11
748.796	60.1
749.114	59.93
749.432	60.22
749.749	60.26
750.067	60.15
750.385	60.34
750.703	59.98
751.02	60
751.338	59.49
751.655	59.59
751.973	59.7
752.29	59.78
752.608	59.86
752.925	59.59
753.242	59.78
753.56	59.74
753.877	59.72
754.194	59.66
754.511	59.51
754.828	59.28
755.145	59.42
755.462	59.34
755.779	59.18
756.096	59.04
756.413	59.37
756.73	59.61
757.047	59.49
757.364	59.79
757.68	59.89
757.997	60.33
758.314	60.13
758.63	60.17
758.947	60.38
759.264	60.22
759.58	60.15
759.896	60.22
760.213	60.71
760.529	60.64
760.846	60.78
761.162	60.94
761.478	60.99
761.794	61.34
762.11	61.6
762.426	61.85
762.743	61.84
763.059	61.85
763.375	61.83
763.69	61.77
764.006	61.62
764.322	61.63
764.638	61.59
764.954	61.89
765.27	61.74
765.585	61.71
765.901	61.69
766.216	61.93
766.532	61.77
766.848	61.52
767.163	61.57
767.478	61.48
767.794	61.61
768.109	61.45
768.424	61.31
768.74	61.37
769.055	61.04
769.37	61.44
769.685	61.58
770	61.62
770.315	62.1
770.63	62.41
770.945	62.35
771.26	62.44
771.575	62.44
771.89	62.34
772.205	61.95
772.52	62.11
772.834	61.58
773.149	61.52
773.464	61.66
773.778	61.51
774.093	61.63
774.407	61.25
774.722	61.22
775.036	61.23
775.351	60.75
775.665	61.29
775.979	60.9
776.293	60.33
776.608	60.19
776.922	59.73
777.236	59.68
777.55	59.62
777.864	59.65
778.178	59.3
778.492	59.7
778.806	60.24
779.12	60.39
779.434	60.32
779.747	60.1
780.061	60.2
780.375	60.61
780.689	61.05
781.002	61.11
781.316	61.54
781.629	61.6
781.943	61.92
782.256	61.34
782.57	60.8
782.883	60.96
783.196	60.84
783.51	60.99
783.823	60.7
784.136	61.1
784.449	61.07
784.762	61.03
785.075	61.31
785.388	60.94
785.701	60.63
786.014	60.77
786.327	60.96
786.64	61.09
786.953	60.74
787.266	60.43
787.578	60.09
787.891	59.92
788.204	58.98
788.516	59.6
788.829	59.72
789.141	60.64
789.454	60.54
789.766	60.57
790.079	60.84
790.391	60.68
790.703	60.76
791.016	60.82
791.328	61.02
791.64	60.92
791.952	61.02
792.264	60.96
792.576	61.2
792.888	61.73
793.2	61.5
793.512	61.67
793.824	61.66
794.136	61.7
794.448	61.73
794.76	62.68
795.071	61.76
795.383	61.31
795.695	60.92
796.006	60.94
796.318	61.11
796.629	60.95
796.941	61.46
797.252	61.59
797.564	61.49
797.875	60.88
798.186	60.76
798.497	60.9
798.809	60.88
799.12	61.03
799.431	60.57
799.742	60.59
800.053	60.64
800.364	60.43
800.675	61.08
800.986	61.27
801.297	60.46
801.608	60.59
801.918	60.71
802.229	60.64
802.54	60.33
802.851	61.06
803.161	60.75
803.472	60.24
803.782	60.33
804.093	60.46
804.403	61.18
804.714	61.03
805.024	60.77
805.334	61.2
805.645	61.43
805.955	61.82
806.265	61.98
806.575	61.76
806.885	61.83
807.195	61.85
807.505	61.68
807.815	62.55
808.125	62.42
808.435	62.72
808.745	62.01
809.055	62.68
809.365	62.4
809.674	63.01
809.984	63.3
810.294	62.54
810.603	62.35
810.913	61.73
811.222	62.31
811.532	62.05
811.841	62.52
812.151	62.5
812.46	61.58
812.769	60.35
813.079	60.48
813.388	60.62
813.697	60.41
814.006	60.8
814.315	60.83
814.624	61.34
814.933	61.3
815.242	62.04
815.551	62.03
815.86	61.72
816.169	60.42
816.478	60.29
816.786	60.67
817.095	60.91
817.404	61.25
817.712	60.71
818.021	60.82
818.33	60.2
818.638	60.07
818.947	61.37
819.255	61.7
819.563	61.64
819.872	61.44
820.18	61.46
820.488	61.5
820.796	61.24
821.105	61.16
821.413	61.01
821.721	61.11
822.029	61.3
822.337	61.46
822.645	61.75
822.953	61.75
823.26	61.76
823.568	61.63
823.876	61.75
824.184	61.87
824.491	62
824.799	62.14
825.107	62.07
825.414	61.73
825.722	61.93
826.029	62.02
826.337	62.14
826.644	62.04
826.951	61.9
827.259	62.06
827.566	62.03
827.873	62.28
828.18	62.39
828.488	62.13
828.795	61.87
829.102	61.86
829.409	61.89
829.716	61.79
830.023	61.99
830.329	61.62
830.636	61.45
830.943	61.69
831.25	60.96
831.557	60.89
831.863	60.94
832.17	61.01
832.476	60.82
832.783	60.68
833.089	60.7
833.396	61.38
833.702	61.06
834.009	61.47
834.315	61.49
834.621	61.41
834.928	61.67
835.234	61.85
835.54	61.71
835.846	61.34
836.152	61.53
836.458	61.54
836.764	61.48
837.07	61.77
837.376	60.85
837.682	61.19
837.988	61.44
838.293	61.26
838.599	60.86
838.905	60.77
839.211	60.56
839.516	60.56
839.822	60
840.127	59.73
840.433	59.33
840.738	59.54
841.044	58.66
841.349	58.44
841.654	59.03
841.959	59.71
842.265	60.43
842.57	59.75
842.875	59.53
843.18	60.65
843.485	60.93
843.79	61.27
844.095	62.24
844.4	62.9
844.705	63.28
845.01	63.13
845.315	62.88
845.619	63.28
845.924	63.18
846.229	62.78
846.533	64.08
846.838	65.15
847.142	63.35
847.447	64.27
847.751	65.19
848.056	63.18
848.36	61.16
848.664	61.86
848.969	64.01
849.273	62.28
849.577	62.71
849.881	61.63
850.185	61.25
850.489	63.01
850.794	64.42
851.097	64.91
851.401	65.65
851.705	66.37
852.009	67.26
852.313	68.08
852.617	67.88
852.92	68.96
853.224	67.44
853.528	69.7
853.831	70.6
854.135	68.1
854.438	68.1
854.742	69.54
855.045	69.28
855.349	68.14
855.652	69.69
855.955	69.91
856.259	69.65
856.562	70.79
856.865	68.34
857.168	67.52
857.471	69.79
857.774	68.56
858.077	67.96
858.38	68.67
858.683	69.39
858.986	70.93
859.289	68.65
859.592	69.68
859.894	69.55
860.197	70.73
860.5	71.19
860.802	70.42
861.105	67.73
861.407	66.35
861.71	67.28
862.012	67.08
862.315	64.01
862.617	64.32
862.919	63.2
863.222	64.53
863.524	65.03
863.826	62.71
864.128	62.76
864.43	64.27
864.732	63.39
865.034	63.14
865.336	59.42
865.638	62.98
865.94	62.67
866.242	62.55
866.544	60.06
866.846	60.58
867.147	62.81
867.449	64.51
867.751	68.03
868.052	69.66
868.354	71.32
868.655	71.67
868.957	73.06
869.258	74.26
869.56	75.36
869.861	71.76
870.162	73.18
870.463	72.8
870.765	71.23
871.066	71.45
871.367	71.44
871.668	75.54
871.969	69.97
872.27	70.1
872.571	70.24
872.872	70.87
873.173	71.07
873.473	70.39
873.774	73.07
874.075	70.56
874.376	67.72
874.676	66.03
874.977	67.45
875.277	66.36
875.578	67.56
875.878	65.48
876.179	67.17
876.479	66.08
876.78	68.33
877.08	69.44
877.38	69.27
877.68	68.63
877.981	67.58
878.281	72.19
878.581	69.95
