Data from BU57614_Reflection_00002.txt Node
Date: Mon Nov 18 16:24:13 EST 2019
User: vgr7
Spectrometer: USB2G7710
Scans to average: 3
Trigger mode: 4
Integration Time (sec): 2.000000E-2
Electric dark correction enabled: true
Boxcar width: 10
XAxis mode: Wavelengths
Number of Pixels in Spectrum: 2048
>>>>>Begin Spectral Data<<<<<
177.721	253.5
178.105	-50.16
178.488	-73.79
178.871	-204.02
179.254	-52.25
179.636	153.4
180.019	-26.86
180.402	11.32
180.785	440.34
181.168	-4559.09
181.55	275.52
181.933	155.13
182.316	137.14
182.698	142.95
183.081	143.5
183.463	152.31
183.846	229.35
184.228	286.26
184.611	217.65
184.993	300.31
185.376	-7547.06
185.758	-4175.86
186.14	1127.52
186.522	-1798.31
186.904	-586.7
187.287	-490.75
187.669	-167.01
188.051	-175.12
188.433	-42.33
188.815	-13.22
189.197	1.85
189.579	2.15
189.961	11.22
190.342	0.26
190.724	-5.37
191.106	-25.15
191.488	-24.45
191.869	16.03
192.251	4.63
192.633	-10.18
193.014	-5.04
193.396	-51.24
193.777	-19.15
194.159	-34.65
194.54	-7.16
194.922	0.46
195.303	-5.4
195.684	4.5
196.065	4.4
196.447	-8.45
196.828	-8.74
197.209	-0.63
197.59	-2.62
197.971	-0.12
198.352	9.87
198.733	3.83
199.114	8.27
199.495	7.9
199.876	7.62
200.257	11.76
200.638	15.77
201.018	4.19
201.399	4.11
201.78	10.49
202.16	15.63
202.541	2.44
202.922	-4.13
203.302	-27.67
203.683	-43.94
204.063	-56.92
204.444	-42.22
204.824	-39.48
205.204	-41.21
205.585	-51.77
205.965	-69.32
206.345	-107.11
206.725	-97.54
207.106	-104.22
207.486	-114.97
207.866	-114.27
208.246	-119.05
208.626	-128.73
209.006	-102.01
209.386	-109.84
209.766	-152.38
210.145	-128.12
210.525	-105.08
210.905	-100.38
211.285	-70.49
211.664	-66.85
212.044	-74.52
212.424	-71.41
212.803	-62.38
213.183	-55.36
213.562	-44.35
213.942	-33.04
214.321	-25.9
214.701	-28.06
215.08	-30.33
215.459	-30.14
215.838	-21.68
216.218	-18.59
216.597	-7.84
216.976	-8.26
217.355	-5.55
217.734	2.95
218.113	6.41
218.492	5.5
218.871	6
219.25	2.63
219.629	0.6
220.008	8.02
220.387	11.87
220.766	13.28
221.144	7.66
221.523	-3.97
221.902	-13.42
222.28	-10.05
222.659	1.4
223.037	17.11
223.416	14.37
223.794	10.12
224.173	10.61
224.551	7.22
224.929	7.73
225.308	11.81
225.686	12.48
226.064	11.82
226.442	9.78
226.821	12.28
227.199	11.63
227.577	11.76
227.955	7.96
228.333	5.25
228.711	3.18
229.089	8.74
229.467	11.42
229.845	14.13
230.222	11.62
230.6	10.11
230.978	5.98
231.356	7.7
231.733	9.53
232.111	10.6
232.488	9.83
232.866	9.41
233.243	7.87
233.621	6.85
233.998	6.39
234.376	6.08
234.753	4.21
235.13	4.46
235.508	4.48
235.885	5.77
236.262	5.3
236.639	5.09
237.016	5.78
237.393	5.99
237.77	6.29
238.147	6.52
238.524	5.93
238.901	7.27
239.278	7.66
239.655	6.56
240.032	5.86
240.409	5.51
240.785	5.43
241.162	6.01
241.539	6.35
241.915	5.53
242.292	5.46
242.668	5.61
243.045	5.82
243.421	6
243.798	5.75
244.174	5.89
244.551	5.87
244.927	5.52
245.303	5.43
245.679	5.26
246.056	5.12
246.432	5.05
246.808	4.95
247.184	4.28
247.56	4.22
247.936	4.16
248.312	4.25
248.688	4.27
249.064	4.09
249.44	3.93
249.815	4.22
250.191	4.11
250.567	4.05
250.943	3.93
251.318	3.77
251.694	3.52
252.069	3.3
252.445	3.49
252.82	3.61
253.196	3.67
253.571	3.57
253.947	3.67
254.322	3.9
254.697	3.85
255.073	4.04
255.448	4.29
255.823	4.29
256.198	4.25
256.573	4.26
256.948	4.26
257.323	4.54
257.698	4.45
258.073	4.44
258.448	4.49
258.823	4.39
259.198	4.3
259.573	4.29
259.948	4.29
260.322	4.1
260.697	3.95
261.072	3.94
261.446	4.08
261.821	3.98
262.195	4.07
262.57	4.1
262.944	4.27
263.319	4.1
263.693	4.1
264.067	4.2
264.442	4.35
264.816	4.29
265.19	3.99
265.564	4.07
265.938	4.19
266.313	4.03
266.687	4.35
267.061	4.49
267.435	4.65
267.809	4.63
268.183	4.67
268.556	4.72
268.93	4.87
269.304	4.63
269.678	4.85
270.051	4.86
270.425	4.84
270.799	4.77
271.172	4.97
271.546	5.11
271.919	5.04
272.293	4.85
272.666	4.74
273.04	4.92
273.413	4.94
273.787	4.92
274.16	5.01
274.533	4.76
274.906	4.75
275.279	4.73
275.653	4.71
276.026	4.68
276.399	4.8
276.772	4.64
277.145	4.68
277.518	4.58
277.891	4.35
278.263	4.31
278.636	4.31
279.009	4.23
279.382	4.15
279.755	4.11
280.127	4.43
280.5	4.68
280.872	4.6
281.245	4.67
281.617	4.72
281.99	4.83
282.362	5.03
282.735	5.02
283.107	4.94
283.479	5.09
283.852	5.12
284.224	4.98
284.596	5.04
284.968	5.34
285.34	5.46
285.713	5.54
286.085	5.67
286.457	5.84
286.829	5.78
287.201	5.85
287.572	5.8
287.944	5.65
288.316	5.57
288.688	5.53
289.06	5.55
289.431	5.56
289.803	5.52
290.175	5.4
290.546	5.51
290.918	5.61
291.289	5.62
291.661	5.84
292.032	5.96
292.403	5.95
292.775	5.8
293.146	5.7
293.517	5.62
293.889	5.59
294.26	5.6
294.631	5.84
295.002	5.82
295.373	5.95
295.744	6.06
296.115	6.09
296.486	6.18
296.857	6.11
297.228	6.22
297.599	6.2
297.97	6.13
298.34	6.12
298.711	6.28
299.082	6.25
299.452	6.16
299.823	6.13
300.194	6.19
300.564	6.25
300.935	6.37
301.305	6.4
301.676	6.43
302.046	6.36
302.416	6.28
302.787	6.2
303.157	6.23
303.527	6.16
303.897	6.36
304.267	6.47
304.637	6.63
305.008	6.61
305.378	6.69
305.748	6.87
306.117	6.88
306.487	6.79
306.857	6.85
307.227	6.94
307.597	6.96
307.967	6.98
308.336	6.94
308.706	6.85
309.076	6.97
309.445	6.96
309.815	6.92
310.184	6.74
310.554	6.79
310.923	6.77
311.293	6.74
311.662	6.59
312.031	6.59
312.401	6.47
312.77	6.42
313.139	6.53
313.508	6.56
313.877	6.55
314.246	6.57
314.616	6.48
314.985	6.4
315.353	6.27
315.722	6.3
316.091	6.25
316.46	6.15
316.829	6.13
317.198	6.23
317.567	6.34
317.935	6.55
318.304	6.6
318.672	6.54
319.041	6.6
319.41	6.76
319.778	6.67
320.147	6.68
320.515	6.71
320.883	6.58
321.252	6.57
321.62	6.66
321.988	6.5
322.357	6.5
322.725	6.44
323.093	6.62
323.461	6.52
323.829	6.57
324.197	6.61
324.565	6.52
324.933	6.3
325.301	6.28
325.669	6.29
326.037	6.23
326.405	6.28
326.772	6.36
327.14	6.22
327.508	6.29
327.875	6.29
328.243	6.23
328.61	6.27
328.978	6.3
329.346	6.32
329.713	6.5
330.08	6.48
330.448	6.51
330.815	6.46
331.182	6.45
331.55	6.32
331.917	6.48
332.284	6.63
332.651	6.76
333.018	6.88
333.385	6.85
333.752	6.9
334.119	7
334.486	6.85
334.853	6.9
335.22	6.87
335.587	6.88
335.954	6.98
336.32	6.86
336.687	6.87
337.054	6.72
337.42	6.57
337.787	6.72
338.153	6.66
338.52	6.68
338.886	6.66
339.253	6.8
339.619	6.69
339.986	6.72
340.352	6.8
340.718	6.67
341.084	6.57
341.451	6.59
341.817	6.54
342.183	6.59
342.549	6.53
342.915	6.7
343.281	6.7
343.647	6.64
344.013	6.75
344.379	6.72
344.745	6.88
345.11	6.89
345.476	6.8
345.842	6.78
346.208	6.8
346.573	6.85
346.939	6.73
347.304	6.71
347.67	6.61
348.035	6.48
348.401	6.51
348.766	6.64
349.132	6.57
349.497	6.55
349.862	6.59
350.228	6.65
350.593	6.5
350.958	6.57
351.323	6.49
351.688	6.46
352.053	6.48
352.418	6.38
352.783	6.48
353.148	6.43
353.513	6.4
353.878	6.33
354.243	6.4
354.608	6.5
354.972	6.54
355.337	6.61
355.702	6.66
356.066	6.69
356.431	6.59
356.795	6.67
357.16	6.64
357.524	6.59
357.889	6.59
358.253	6.63
358.618	6.59
358.982	6.58
359.346	6.59
359.71	6.6
360.075	6.55
360.439	6.5
360.803	6.5
361.167	6.61
361.531	6.65
361.895	6.62
362.259	6.61
362.623	6.59
362.987	6.58
363.351	6.62
363.714	6.61
364.078	6.61
364.442	6.55
364.806	6.58
365.169	6.6
365.533	6.62
365.896	6.54
366.26	6.52
366.623	6.63
366.987	6.65
367.35	6.68
367.714	6.79
368.077	6.79
368.44	6.8
368.803	6.77
369.167	6.76
369.53	6.71
369.893	6.72
370.256	6.74
370.619	6.74
370.982	6.67
371.345	6.69
371.708	6.71
372.071	6.7
372.434	6.7
372.797	6.67
373.159	6.6
373.522	6.65
373.885	6.69
374.247	6.68
374.61	6.69
374.973	6.56
375.335	6.56
375.698	6.58
376.06	6.59
376.423	6.56
376.785	6.59
377.147	6.65
377.51	6.66
377.872	6.77
378.234	6.69
378.596	6.71
378.958	6.64
379.321	6.66
379.683	6.73
380.045	6.78
380.407	6.79
380.769	6.85
381.13	6.85
381.492	6.86
381.854	6.87
382.216	6.82
382.578	6.9
382.939	6.82
383.301	6.8
383.663	6.76
384.024	6.79
384.386	6.78
384.747	6.77
385.109	6.75
385.47	6.65
385.832	6.71
386.193	6.75
386.554	6.76
386.916	6.75
387.277	6.74
387.638	6.73
387.999	6.77
388.36	6.75
388.721	6.78
389.082	6.77
389.443	6.74
389.804	6.77
390.165	6.74
390.526	6.81
390.887	6.8
391.248	6.88
391.609	6.89
391.969	6.88
392.33	6.86
392.691	6.87
393.051	6.92
393.412	6.93
393.772	6.92
394.133	6.93
394.493	6.95
394.854	6.95
395.214	6.91
395.574	6.87
395.935	6.91
396.295	6.9
396.655	6.9
397.015	6.9
397.376	6.89
397.736	6.96
398.096	6.93
398.456	6.94
398.816	6.93
399.176	6.93
399.535	6.92
399.895	6.94
400.255	6.94
400.615	6.92
400.975	6.91
401.334	6.9
401.694	6.92
402.054	6.91
402.413	6.94
402.773	6.95
403.132	6.96
403.492	6.91
403.851	6.89
404.211	6.87
404.57	6.87
404.929	6.86
405.288	6.81
405.648	6.81
406.007	6.82
406.366	6.81
406.725	6.81
407.084	6.84
407.443	6.83
407.802	6.87
408.161	6.86
408.52	6.85
408.879	6.83
409.238	6.83
409.596	6.82
409.955	6.78
410.314	6.79
410.673	6.79
411.031	6.83
411.39	6.86
411.748	6.89
412.107	6.9
412.465	6.9
412.824	6.91
413.182	6.9
413.54	6.94
413.899	6.96
414.257	6.95
414.615	6.92
414.974	6.92
415.332	6.89
415.69	6.89
416.048	6.92
416.406	6.92
416.764	6.93
417.122	6.94
417.48	6.92
417.838	6.93
418.195	6.92
418.553	6.91
418.911	6.9
419.269	6.9
419.626	6.88
419.984	6.89
420.342	6.9
420.699	6.88
421.057	6.86
421.414	6.83
421.772	6.83
422.129	6.84
422.486	6.83
422.844	6.83
423.201	6.82
423.558	6.82
423.915	6.82
424.273	6.82
424.63	6.82
424.987	6.83
425.344	6.83
425.701	6.83
426.058	6.83
426.415	6.84
426.772	6.84
427.128	6.85
427.485	6.85
427.842	6.84
428.199	6.86
428.555	6.86
428.912	6.86
429.269	6.87
429.625	6.86
429.982	6.86
430.338	6.85
430.695	6.88
431.051	6.86
431.407	6.84
431.764	6.85
432.12	6.85
432.476	6.85
432.832	6.84
433.189	6.85
433.545	6.83
433.901	6.82
434.257	6.81
434.613	6.8
434.969	6.81
435.325	6.81
435.681	6.82
436.036	6.81
436.392	6.82
436.748	6.82
437.104	6.81
437.459	6.81
437.815	6.8
438.171	6.78
438.526	6.8
438.882	6.8
439.237	6.79
439.593	6.78
439.948	6.77
440.304	6.76
440.659	6.77
441.014	6.78
441.369	6.77
441.725	6.77
442.08	6.75
442.435	6.73
442.79	6.74
443.145	6.73
443.5	6.73
443.855	6.74
444.21	6.73
444.565	6.75
444.92	6.75
445.275	6.76
445.629	6.79
445.984	6.78
446.339	6.78
446.693	6.78
447.048	6.79
447.403	6.78
447.757	6.8
448.112	6.78
448.466	6.78
448.82	6.8
449.175	6.8
449.529	6.81
449.883	6.82
450.238	6.8
450.592	6.82
450.946	6.81
451.3	6.78
451.654	6.78
452.008	6.78
452.362	6.79
452.716	6.79
453.07	6.77
453.424	6.77
453.778	6.78
454.132	6.78
454.486	6.77
454.839	6.78
455.193	6.77
455.547	6.78
455.9	6.79
456.254	6.78
456.607	6.79
456.961	6.79
457.314	6.81
457.668	6.83
458.021	6.8
458.375	6.83
458.728	6.85
459.081	6.87
459.434	6.85
459.787	6.83
460.141	6.82
460.494	6.83
460.847	6.83
461.2	6.82
461.553	6.84
461.906	6.86
462.259	6.87
462.611	6.87
462.964	6.87
463.317	6.86
463.67	6.88
464.022	6.87
464.375	6.88
464.728	6.86
465.08	6.85
465.433	6.88
465.785	6.86
466.138	6.86
466.49	6.86
466.843	6.85
467.195	6.87
467.547	6.88
467.899	6.86
468.252	6.85
468.604	6.86
468.956	6.82
469.308	6.81
469.66	6.77
470.012	6.77
470.364	6.79
470.716	6.79
471.068	6.77
471.42	6.79
471.772	6.78
472.123	6.79
472.475	6.79
472.827	6.79
473.178	6.81
473.53	6.82
473.882	6.8
474.233	6.83
474.585	6.81
474.936	6.81
475.288	6.83
475.639	6.84
475.99	6.84
476.342	6.84
476.693	6.86
477.044	6.89
477.395	6.91
477.746	6.88
478.097	6.89
478.448	6.92
478.8	6.92
479.15	6.91
479.501	6.92
479.852	6.94
480.203	6.95
480.554	6.97
480.905	6.96
481.255	7
481.606	7.01
481.957	7.02
482.307	7.02
482.658	7.02
483.009	7.03
483.359	7.04
483.709	7.05
484.06	7.06
484.41	7.06
484.761	7.05
485.111	7.06
485.461	7.06
485.811	7.07
486.162	7.07
486.512	7.08
486.862	7.08
487.212	7.06
487.562	7.07
487.912	7.06
488.262	7.07
488.612	7.06
488.961	7.05
489.311	7.05
489.661	7.06
490.011	7.06
490.36	7.06
490.71	7.05
491.06	7.05
491.409	7.04
491.759	7.04
492.108	7.06
492.458	7.05
492.807	7.04
493.157	7.05
493.506	7.05
493.855	7.03
494.204	7.04
494.554	7.06
494.903	7.04
495.252	7.04
495.601	7.04
495.95	7.04
496.299	7.06
496.648	7.06
496.997	7.04
497.346	7.04
497.695	7.05
498.043	7.05
498.392	7.04
498.741	7.06
499.09	7.04
499.438	7.02
499.787	7.01
500.135	7.03
500.484	7.01
500.832	7
501.181	7.03
501.529	7.05
501.878	7.07
502.226	7.11
502.574	7.09
502.923	7.08
503.271	7.08
503.619	7.06
503.967	7.05
504.315	7.05
504.663	7.05
505.011	7.02
505.359	7.03
505.707	7.05
506.055	7.03
506.403	7.03
506.751	7.02
507.098	7.03
507.446	7.03
507.794	7.03
508.141	7.02
508.489	7
508.837	7
509.184	6.97
509.531	6.96
509.879	6.98
510.226	6.99
510.574	7
510.921	7.02
511.268	7.04
511.616	7.05
511.963	7.06
512.31	7.07
512.657	7.07
513.004	7.06
513.351	7.07
513.698	7.09
514.045	7.09
514.392	7.11
514.739	7.11
515.086	7.12
515.432	7.13
515.779	7.14
516.126	7.15
516.473	7.17
516.819	7.16
517.166	7.16
517.512	7.17
517.859	7.18
518.205	7.17
518.552	7.19
518.898	7.19
519.245	7.19
519.591	7.18
519.937	7.18
520.283	7.18
520.629	7.18
520.976	7.18
521.322	7.19
521.668	7.18
522.014	7.21
522.36	7.2
522.706	7.19
523.052	7.2
523.398	7.2
523.743	7.22
524.089	7.21
524.435	7.22
524.781	7.22
525.126	7.22
525.472	7.22
525.817	7.2
526.163	7.2
526.509	7.22
526.854	7.25
527.199	7.26
527.545	7.28
527.89	7.28
528.235	7.3
528.581	7.3
528.926	7.31
529.271	7.3
529.616	7.3
529.961	7.31
530.306	7.32
530.651	7.32
530.996	7.33
531.341	7.34
531.686	7.33
532.031	7.33
532.376	7.33
532.721	7.34
533.065	7.35
533.41	7.37
533.755	7.37
534.099	7.35
534.444	7.35
534.788	7.35
535.133	7.33
535.477	7.32
535.822	7.33
536.166	7.31
536.51	7.31
536.855	7.33
537.199	7.34
537.543	7.33
537.887	7.31
538.231	7.28
538.576	7.3
538.92	7.3
539.264	7.31
539.608	7.32
539.951	7.34
540.295	7.35
540.639	7.35
540.983	7.33
541.327	7.32
541.671	7.32
542.014	7.31
542.358	7.32
542.701	7.32
543.045	7.31
543.389	7.33
543.732	7.34
544.075	7.35
544.419	7.35
544.762	7.36
545.105	7.38
545.449	7.39
545.792	7.39
546.135	7.39
546.478	7.39
546.821	7.38
547.165	7.37
547.508	7.38
547.851	7.35
548.194	7.34
548.536	7.37
548.879	7.38
549.222	7.4
549.565	7.43
549.908	7.44
550.25	7.45
550.593	7.44
550.936	7.42
551.278	7.44
551.621	7.43
551.963	7.43
552.306	7.41
552.648	7.38
552.991	7.41
553.333	7.41
553.675	7.42
554.017	7.44
554.36	7.43
554.702	7.42
555.044	7.43
555.386	7.48
555.728	7.49
556.07	7.54
556.412	7.51
556.754	7.52
557.096	7.52
557.438	7.46
557.78	7.49
558.121	7.49
558.463	7.43
558.805	7.45
559.147	7.46
559.488	7.46
559.83	7.52
560.171	7.49
560.513	7.52
560.854	7.5
561.196	7.49
561.537	7.51
561.878	7.52
562.22	7.52
562.561	7.46
562.902	7.45
563.243	7.42
563.584	7.45
563.925	7.44
564.266	7.46
564.607	7.5
564.948	7.49
565.289	7.5
565.63	7.54
565.971	7.51
566.312	7.52
566.653	7.52
566.993	7.48
567.334	7.48
567.675	7.46
568.015	7.48
568.356	7.48
568.696	7.5
569.037	7.47
569.377	7.48
569.718	7.54
570.058	7.55
570.398	7.54
570.739	7.54
571.079	7.54
571.419	7.53
571.759	7.55
572.099	7.59
572.439	7.59
572.779	7.58
573.119	7.62
573.459	7.65
573.799	7.67
574.139	7.69
574.479	7.7
574.819	7.69
575.158	7.69
575.498	7.69
575.838	7.69
576.177	7.7
576.517	7.71
576.856	7.71
577.196	7.71
577.535	7.72
577.875	7.72
578.214	7.71
578.553	7.73
578.893	7.73
579.232	7.71
579.571	7.72
579.91	7.72
580.25	7.72
580.589	7.66
580.928	7.66
581.267	7.69
581.606	7.69
581.945	7.7
582.283	7.71
582.622	7.74
582.961	7.73
583.3	7.7
583.639	7.7
583.977	7.68
584.316	7.65
584.654	7.66
584.993	7.69
585.332	7.68
585.67	7.66
586.008	7.65
586.347	7.6
586.685	7.6
587.024	7.6
587.362	7.56
587.7	7.57
588.038	7.55
588.376	7.53
588.715	7.52
589.053	7.57
589.391	7.56
589.729	7.53
590.067	7.47
590.404	7.47
590.742	7.5
591.08	7.43
591.418	7.52
591.756	7.5
592.093	7.46
592.431	7.48
592.769	7.51
593.106	7.52
593.444	7.55
593.781	7.53
594.119	7.56
594.456	7.56
594.793	7.57
595.131	7.57
595.468	7.56
595.805	7.57
596.143	7.55
596.48	7.57
596.817	7.58
597.154	7.63
597.491	7.67
597.828	7.65
598.165	7.72
598.502	7.66
598.839	7.68
599.176	7.68
599.512	7.64
599.849	7.63
600.186	7.64
600.523	7.66
600.859	7.69
601.196	7.71
601.532	7.71
601.869	7.73
602.205	7.76
602.542	7.82
602.878	7.83
603.215	7.79
603.551	7.81
603.887	7.81
604.223	7.81
604.56	7.83
604.896	7.86
605.232	7.86
605.568	7.87
605.904	7.86
606.24	7.89
606.576	7.92
606.912	7.9
607.248	7.89
607.583	7.9
607.919	7.89
608.255	7.83
608.591	7.88
608.926	7.87
609.262	7.88
609.597	7.85
609.933	7.82
610.268	7.84
610.604	7.84
610.939	7.84
611.275	7.82
611.61	7.76
611.945	7.74
612.281	7.77
612.616	7.79
612.951	7.82
613.286	7.81
613.621	7.84
613.956	7.88
614.291	7.89
614.626	7.91
614.961	7.88
615.296	7.9
615.631	7.82
615.966	7.78
616.3	7.73
616.635	7.74
616.97	7.81
617.304	7.83
617.639	7.79
617.973	7.81
618.308	7.83
618.642	7.84
618.977	7.82
619.311	7.77
619.646	7.79
619.98	7.8
620.314	7.78
620.648	7.76
620.983	7.79
621.317	7.79
621.651	7.74
621.985	7.8
622.319	7.87
622.653	7.93
622.987	7.97
623.321	7.94
623.655	7.94
623.988	7.97
624.322	7.93
624.656	7.97
624.99	7.93
625.323	7.92
625.657	7.94
625.99	7.95
626.324	7.99
626.657	7.95
626.991	7.93
627.324	7.93
627.658	7.93
627.991	7.9
628.324	7.91
628.657	7.97
628.991	7.93
629.324	7.91
629.657	7.91
629.99	7.92
630.323	7.92
630.656	7.94
630.989	7.91
631.322	7.94
631.655	7.91
631.987	7.99
632.32	8.01
632.653	8.01
632.986	8.04
633.318	8.06
633.651	8.11
633.984	8.18
634.316	8.13
634.649	8.21
634.981	8.16
635.313	8.17
635.646	8.17
635.978	8.21
636.31	8.2
636.643	8.24
636.975	8.26
637.307	8.35
637.639	8.35
637.971	8.3
638.303	8.3
638.635	8.22
638.967	8.19
639.299	8.18
639.631	8.2
639.963	8.11
640.295	8.08
640.626	8.04
640.958	8.09
641.29	8.13
641.621	8.12
641.953	8.16
642.285	8.2
642.616	8.15
642.948	8.15
643.279	8.13
643.61	8.06
643.942	8.06
644.273	8.01
644.604	7.97
644.936	8.02
645.267	8.01
645.598	8.1
645.929	8.08
646.26	8.12
646.591	8.1
646.922	8.11
647.253	8.14
647.584	8.08
647.915	7.95
648.245	7.94
648.576	7.88
648.907	7.94
649.238	7.88
649.568	7.91
649.899	7.88
650.229	7.84
650.56	7.85
650.89	7.82
651.221	7.79
651.551	7.78
651.882	7.82
652.212	7.84
652.542	7.85
652.872	7.83
653.203	7.85
653.533	7.89
653.863	7.99
654.193	7.96
654.523	8.04
654.853	8.06
655.183	8.05
655.513	8.06
655.843	8.06
656.172	8.1
656.502	8.13
656.832	8.15
657.162	8.28
657.491	8.24
657.821	8.27
658.15	8.27
658.48	8.27
658.809	8.2
659.139	8.19
659.468	8.19
659.798	8.28
660.127	8.34
660.456	8.33
660.785	8.33
661.115	8.36
661.444	8.31
661.773	8.33
662.102	8.35
662.431	8.36
662.76	8.32
663.089	8.25
663.418	8.22
663.747	8.2
664.076	8.1
664.404	8.21
664.733	8.25
665.062	8.29
665.39	8.36
665.719	8.32
666.048	8.35
666.376	8.34
666.705	8.23
667.033	8.12
667.362	8.14
667.69	8.15
668.018	8.11
668.347	8.16
668.675	8.16
669.003	8.23
669.331	8.23
669.659	8.2
669.987	8.25
670.315	8.29
670.643	8.32
670.971	8.39
671.299	8.41
671.627	8.36
671.955	8.29
672.283	8.28
672.61	8.32
672.938	8.31
673.266	8.38
673.593	8.44
673.921	8.42
674.249	8.38
674.576	8.35
674.904	8.32
675.231	8.29
675.558	8.31
675.886	8.27
676.213	8.31
676.54	8.41
676.867	8.42
677.195	8.33
677.522	8.3
677.849	8.29
678.176	8.27
678.503	8.26
678.83	8.3
679.157	8.23
679.484	8.2
679.81	8.18
680.137	8.19
680.464	8.17
680.791	8.23
681.117	8.2
681.444	8.19
681.771	8.24
682.097	8.34
682.424	8.36
682.75	8.4
683.077	8.34
683.403	8.36
683.729	8.27
684.056	8.35
684.382	8.32
684.708	8.32
685.034	8.26
685.36	8.19
685.686	8.21
686.012	8.24
686.339	8.46
686.664	8.45
686.99	8.45
687.316	8.41
687.642	8.48
687.968	8.55
688.294	8.63
688.619	8.62
688.945	8.55
689.271	8.52
689.596	8.39
689.922	8.43
690.247	8.38
690.573	8.48
690.898	8.48
691.224	8.66
691.549	8.68
691.874	8.78
692.2	8.96
692.525	8.96
692.85	9.08
693.175	8.94
693.5	8.96
693.825	9.01
694.15	9.1
694.475	9.08
694.8	9.15
695.125	8.99
695.45	9.03
695.775	9.12
696.099	9.16
696.424	9.3
696.749	9.32
697.073	9.28
697.398	9.3
697.723	9.28
698.047	9.13
698.372	9.14
698.696	9.05
699.02	8.91
699.345	9.02
699.669	8.97
699.993	8.95
700.318	8.98
700.642	8.89
700.966	8.91
701.29	8.79
701.614	8.72
701.938	8.86
702.262	8.9
702.586	8.84
702.91	8.8
703.234	8.77
703.557	8.75
703.881	8.74
704.205	8.72
704.529	8.75
704.852	8.92
705.176	8.84
705.499	8.74
705.823	8.73
706.146	8.62
706.47	8.61
706.793	8.62
707.117	8.62
707.44	8.67
707.763	8.6
708.086	8.67
708.409	8.66
708.733	8.65
709.056	8.59
709.379	8.63
709.702	8.64
710.025	8.63
710.348	8.67
710.671	8.7
710.993	8.74
711.316	8.7
711.639	8.67
711.962	8.77
712.284	8.96
712.607	9.15
712.93	9.15
713.252	9.17
713.575	9.24
713.897	9.28
714.22	9.32
714.542	9.34
714.864	9.39
715.187	9.38
715.509	9.32
715.831	9.38
716.153	9.33
716.475	9.33
716.798	9.45
717.12	9.41
717.442	9.42
717.764	9.32
718.085	9.45
718.407	9.43
718.729	9.35
719.051	9.4
719.373	9.23
719.695	9.26
720.016	9.17
720.338	9.09
720.659	9.05
720.981	8.9
721.302	9.02
721.624	9.02
721.945	9.02
722.267	8.88
722.588	8.75
722.909	8.72
723.231	8.72
723.552	8.55
723.873	8.67
724.194	8.7
724.515	8.77
724.836	8.6
725.157	8.64
725.478	8.58
725.799	8.48
726.12	8.36
726.441	8.32
726.762	8.53
727.083	8.53
727.403	8.49
727.724	8.69
728.045	8.68
728.365	8.7
728.686	8.72
729.006	8.94
729.327	9.01
729.647	9.14
729.967	9.28
730.288	9.32
730.608	9.2
730.928	9.21
731.249	9.25
731.569	9.48
731.889	9.41
732.209	9.43
732.529	9.46
732.849	9.73
733.169	9.73
733.489	9.78
733.809	9.87
734.129	9.97
734.448	9.88
734.768	9.83
735.088	9.83
735.408	9.95
735.727	9.98
736.047	10.06
736.366	9.89
736.686	9.75
737.005	9.82
737.325	9.85
737.644	9.92
737.963	9.78
738.283	9.59
738.602	9.63
738.921	9.77
739.24	9.76
739.56	9.76
739.879	9.99
740.198	9.89
740.517	9.89
740.836	9.9
741.155	10.01
741.473	10.01
741.792	9.94
742.111	9.88
742.43	9.83
742.748	9.66
743.067	9.71
743.386	9.64
743.704	9.59
744.023	9.75
744.341	9.54
744.66	9.7
744.978	9.57
745.297	9.52
745.615	9.46
745.933	9.55
746.252	9.68
746.57	9.46
746.888	9.23
747.206	9.1
747.524	9.12
747.842	9.04
748.16	9.27
748.478	9.24
748.796	9.25
749.114	9.44
749.432	9.56
749.749	9.76
750.067	10.04
750.385	9.94
750.703	9.93
751.02	9.96
751.338	9.95
751.655	10.22
751.973	10.43
752.29	10.38
752.608	10.12
752.925	9.89
753.242	9.88
753.56	10.06
753.877	10.09
754.194	9.9
754.511	9.84
754.828	9.48
755.145	9.59
755.462	9.74
755.779	9.52
756.096	9.63
756.413	9.42
756.73	9.48
757.047	9.79
757.364	9.78
757.68	10.08
757.997	10.02
758.314	9.73
758.63	9.48
758.947	9.6
759.264	9.74
759.58	9.81
759.896	9.92
760.213	10.12
760.529	10.19
760.846	10.45
761.162	10.41
761.478	10.48
761.794	10.49
762.11	10.56
762.426	10.66
762.743	10.44
763.059	10.52
763.375	10.45
763.69	10.37
764.006	10.27
764.322	10.07
764.638	10.18
764.954	10.47
765.27	10.54
765.585	10.5
765.901	10.58
766.216	10.43
766.532	10.34
766.848	10.15
767.163	10.18
767.478	9.9
767.794	9.92
768.109	9.77
768.424	9.55
768.74	9.56
769.055	9.45
769.37	9.71
769.685	9.8
770	9.8
770.315	9.31
770.63	9.51
770.945	9.84
771.26	10.12
771.575	9.88
771.89	9.89
772.205	9.89
772.52	9.86
772.834	10.17
773.149	10.13
773.464	10.33
773.778	10.6
774.093	10.81
774.407	10.99
774.722	11.25
775.036	11.68
775.351	11.31
775.665	11.3
775.979	11.06
776.293	10.7
776.608	10.6
776.922	11.07
777.236	10.87
777.55	10.54
777.864	10.18
778.178	10.48
778.492	10.51
778.806	10.44
779.12	10.79
779.434	10.59
779.747	10.73
780.061	10.91
780.375	10.75
780.689	10.74
781.002	10.91
781.316	11.03
781.629	11.25
781.943	11.45
782.256	11.31
782.57	11.47
782.883	11.67
783.196	11.7
783.51	11.76
783.823	11.79
784.136	11.99
784.449	11.77
784.762	11.73
785.075	12.01
785.388	11.92
785.701	11.4
786.014	11.56
786.327	11.22
786.64	11.02
786.953	10.79
787.266	10.68
787.578	10.18
787.891	10.07
788.204	9.59
788.516	9.67
788.829	9.65
789.141	9.76
789.454	9.88
789.766	9.82
790.079	9.73
790.391	9.75
790.703	9.81
791.016	10.01
791.328	9.76
791.64	9.57
791.952	9.98
792.264	10.12
792.576	10.13
792.888	10.39
793.2	10.49
793.512	10.64
793.824	10.66
794.136	10.68
794.448	10.97
794.76	11.21
795.071	11.13
795.383	11.03
795.695	10.83
796.006	11.06
796.318	11.02
796.629	11.23
796.941	11.09
797.252	10.79
797.564	11.28
797.875	11.61
798.186	11.25
798.497	11.33
798.809	11.32
799.12	11.71
799.431	11.68
799.742	11.57
800.053	11.98
800.364	12.06
800.675	12.17
800.986	11.85
801.297	11.83
801.608	11.51
801.918	11.64
802.229	11.51
802.54	10.93
802.851	11.02
803.161	10.92
803.472	10.7
803.782	10.95
804.093	10.21
804.403	9.85
804.714	10.3
805.024	10.16
805.334	10.25
805.645	9.72
805.955	9.71
806.265	10.18
806.575	9.43
806.885	9.44
807.195	9.6
807.505	9.47
807.815	9.51
808.125	9.45
808.435	9.37
808.745	9.42
809.055	10.24
809.365	10.7
809.674	10.42
809.984	10.71
810.294	10.34
810.603	11.23
810.913	11.56
811.222	11.34
811.532	11.23
811.841	11.55
812.151	12.07
812.46	12.63
812.769	11.99
813.079	12.23
813.388	12.21
813.697	12.16
814.006	12.01
814.315	12.21
814.624	12.31
814.933	13.43
815.242	13.6
815.551	13.2
815.86	13.3
816.169	13.41
816.478	13.2
816.786	13.55
817.095	12.55
817.404	12.42
817.712	12.52
818.021	12.38
818.33	12.17
818.638	12.09
818.947	11.92
819.255	11.72
819.563	11.63
819.872	11.55
820.18	11.4
820.488	11.39
820.796	11.43
821.105	11.57
821.413	11.28
821.721	11.26
822.029	11.21
822.337	11.05
822.645	11.25
822.953	11.34
823.26	11.38
823.568	11.32
823.876	11.44
824.184	11.43
824.491	11.46
824.799	11.5
825.107	11.38
825.414	11.48
825.722	11.63
826.029	11.8
826.337	12.09
826.644	12.18
826.951	12.2
827.259	11.95
827.566	11.83
827.873	11.74
828.18	11.99
828.488	11.99
828.795	12.11
829.102	11.7
829.409	11.87
829.716	11.45
830.023	11.71
830.329	11.2
830.636	11.19
830.943	11.07
831.25	10.66
831.557	10.69
831.863	10.64
832.17	10.37
832.476	9.87
832.783	9.13
833.089	9.16
833.396	9.46
833.702	9.74
834.009	9.55
834.315	9.9
834.621	9.92
834.928	10.31
835.234	10.16
835.54	10.3
835.846	9.85
836.152	10.55
836.458	10.75
836.764	11.15
837.07	10.86
837.376	10.93
837.682	11.65
837.988	11.74
838.293	11.02
838.599	11.13
838.905	11.46
839.211	11.52
839.516	11.15
839.822	10.85
840.127	11
840.433	12.53
840.738	12.57
841.044	12.08
841.349	11.84
841.654	12.21
841.959	13.04
842.265	13.45
842.57	13.11
842.875	12.62
843.18	12.92
843.485	14.13
843.79	13.85
844.095	13.01
844.4	12.2
844.705	12.55
845.01	12.87
845.315	12.44
845.619	12.94
845.924	13.68
846.229	13.88
846.533	14.27
846.838	12.24
847.142	13
847.447	11.33
847.751	10.69
848.056	10.46
848.36	9.63
848.664	9.23
848.969	9.7
849.273	9.29
849.577	9.54
849.881	9.15
850.185	10.14
850.489	10.54
850.794	11.18
851.097	11.82
851.401	12.12
851.705	12.51
852.009	13.88
852.313	13.35
852.617	12.99
852.92	13.57
853.224	13.31
853.528	13.28
853.831	14.4
854.135	14.22
854.438	13.94
854.742	14.42
855.045	13.3
855.349	11.83
855.652	13.02
855.955	11.42
856.259	11.77
856.562	12.35
856.865	11.6
857.168	12.13
857.471	12.51
857.774	12.46
858.077	12.59
858.38	11.93
858.683	12.44
858.986	12.28
859.289	10.92
859.592	12.51
859.894	11.01
860.197	11.76
860.5	13.43
860.802	11.98
861.105	11.45
861.407	14.96
861.71	16.38
862.012	14.74
862.315	14.97
862.617	13.78
862.919	12.17
863.222	13.95
863.524	14.95
863.826	14.6
864.128	12.87
864.43	12.46
864.732	11.19
865.034	11.5
865.336	10.21
865.638	9.53
865.94	7.67
866.242	6.28
866.544	5.62
866.846	4.58
867.147	6.76
867.449	8.19
867.751	7.14
868.052	8.48
868.354	8.77
868.655	10.61
868.957	11.47
869.258	11.5
869.56	11.15
869.861	9.26
870.162	9.34
870.463	9.98
870.765	10.86
871.066	12.5
871.367	11.87
871.668	13.58
871.969	14.2
872.27	14.71
872.571	17.21
872.872	17.87
873.173	15.29
873.473	14.47
873.774	12.66
874.075	12.21
874.376	10.18
874.676	12.12
874.977	10.16
875.277	11.41
875.578	12.75
875.878	11.66
876.179	13.11
876.479	13.05
876.78	13.08
877.08	12.32
877.38	10.19
877.68	10.93
877.981	11.75
878.281	12.2
878.581	13.54
