Data from BU57649_Reflection_00011.txt Node
Date: Tue Nov 19 10:55:51 EST 2019
User: vgr7
Spectrometer: USB2G7710
Scans to average: 3
Trigger mode: 4
Integration Time (sec): 2.000000E-2
Electric dark correction enabled: true
Boxcar width: 10
XAxis mode: Wavelengths
Number of Pixels in Spectrum: 2048
>>>>>Begin Spectral Data<<<<<
177.721	-28.34
178.105	-4.49
178.488	5.39
178.871	37.14
179.254	-9.35
179.636	1.62
180.019	-34.34
180.402	100
180.785	76.47
181.168	7475
181.55	-302.6
181.933	176.92
182.316	161.35
182.698	-121.88
183.081	-127.6
183.463	-72.98
183.846	-74.03
184.228	-82.11
184.611	-57.6
184.993	-52.16
185.376	-40.5
185.758	-15.92
186.14	-3.65
186.522	-2.51
186.904	7.92
187.287	-4.19
187.669	5.42
188.051	0.52
188.433	4.14
188.815	-0.8
189.197	2
189.579	-1.3
189.961	-3.03
190.342	4.94
190.724	-7.74
191.106	-11.25
191.488	-10.47
191.869	1.8
192.251	-0.8
192.633	14.82
193.014	26.21
193.396	45.3
193.777	54.74
194.159	39.46
194.54	66.53
194.922	58.95
195.303	67.44
195.684	51.06
196.065	64.31
196.447	58.62
196.828	69.91
197.209	76.84
197.59	82.28
197.971	64.7
198.352	37.52
198.733	44.55
199.114	49.33
199.495	45.11
199.876	24.83
200.257	28.02
200.638	10.95
201.018	9.27
201.399	-0.49
201.78	0.58
202.16	0.74
202.541	-13.48
202.922	-9.1
203.302	-13.41
203.683	-18.6
204.063	-24.49
204.444	-24.9
204.824	-16.26
205.204	-15.55
205.585	-16.83
205.965	-15.02
206.345	-3.77
206.725	-3.78
207.106	-3.24
207.486	1.32
207.866	8.37
208.246	10.31
208.626	8.81
209.006	1.63
209.386	6.88
209.766	0.65
210.145	0.36
210.525	-2.64
210.905	1.19
211.285	2.67
211.664	7.55
212.044	14.64
212.424	21.92
212.803	15.78
213.183	12.67
213.562	9.09
213.942	11.06
214.321	9.25
214.701	6.26
215.08	10.77
215.459	13.5
215.838	-1.55
216.218	-7.66
216.597	-1.23
216.976	-4.43
217.355	-10.07
217.734	-12.38
218.113	-6.31
218.492	0.03
218.871	2.95
219.25	11.18
219.629	-5.53
220.008	2.89
220.387	-14.77
220.766	-7.47
221.144	-10.41
221.523	-8.03
221.902	1.12
222.28	-0.18
222.659	15.79
223.037	11.38
223.416	13.75
223.794	19.23
224.173	21.29
224.551	18.37
224.929	14.57
225.308	16.75
225.686	17.03
226.064	13.88
226.442	16.34
226.821	12.92
227.199	12.7
227.577	14.5
227.955	14.57
228.333	17.78
228.711	15.26
229.089	16.08
229.467	12.76
229.845	9.12
230.222	8.74
230.6	8.92
230.978	11.97
231.356	9.51
231.733	11.05
232.111	10.22
232.488	10.14
232.866	12.48
233.243	13.03
233.621	14.65
233.998	13.47
234.376	12.04
234.753	12.2
235.13	12
235.508	12.92
235.885	10.68
236.262	9.53
236.639	9.75
237.016	8.23
237.393	8.73
237.77	8.61
238.147	7.61
238.524	6.04
238.901	4.99
239.278	5.21
239.655	5.17
240.032	5.56
240.409	6.16
240.785	6.52
241.162	6.2
241.539	6.03
241.915	6.02
242.292	6.04
242.668	5.8
243.045	5.46
243.421	5.23
243.798	5.38
244.174	5.36
244.551	5.11
244.927	5.15
245.303	5.14
245.679	5.12
246.056	5.05
246.432	4.96
246.808	4.92
247.184	5.15
247.56	4.91
247.936	4.86
248.312	4.63
248.688	4.69
249.064	4.74
249.44	4.62
249.815	4.67
250.191	4.63
250.567	4.55
250.943	4.64
251.318	4.63
251.694	4.59
252.069	4.66
252.445	4.72
252.82	4.88
253.196	4.88
253.571	5.12
253.947	5.3
254.322	5.36
254.697	5.47
255.073	5.17
255.448	5.15
255.823	4.98
256.198	4.77
256.573	4.33
256.948	4.16
257.323	4.14
257.698	4.02
258.073	3.92
258.448	3.86
258.823	3.63
259.198	3.75
259.573	3.59
259.948	3.58
260.322	3.55
260.697	3.46
261.072	3.38
261.446	3.27
261.821	3.25
262.195	3.23
262.57	3.2
262.944	3.16
263.319	3.17
263.693	3.13
264.067	3.26
264.442	3.31
264.816	3.41
265.19	3.31
265.564	3.3
265.938	3.26
266.313	3.19
266.687	3.18
267.061	3.16
267.435	3.35
267.809	3.29
268.183	3.28
268.556	3.34
268.93	3.7
269.304	3.76
269.678	3.73
270.051	3.63
270.425	3.66
270.799	3.5
271.172	3.57
271.546	3.69
271.919	3.69
272.293	3.84
272.666	3.71
273.04	3.81
273.413	3.78
273.787	3.98
274.16	4.17
274.533	4.37
274.906	4.28
275.279	4.22
275.653	4.33
276.026	4.3
276.399	4.31
276.772	4.19
277.145	4.15
277.518	4.07
277.891	4.18
278.263	4.26
278.636	4.37
279.009	4.4
279.382	4.13
279.755	4.14
280.127	3.99
280.5	4.08
280.872	3.91
281.245	4.03
281.617	3.93
281.99	3.93
282.362	3.79
282.735	3.82
283.107	3.96
283.479	3.97
283.852	4.11
284.224	4.12
284.596	3.99
284.968	4.06
285.34	4.14
285.713	4.26
286.085	4.08
286.457	4.08
286.829	4.09
287.201	4.21
287.572	4.31
287.944	4.34
288.316	4.37
288.688	4.48
289.06	4.59
289.431	4.72
289.803	4.77
290.175	4.84
290.546	4.85
290.918	4.74
291.289	4.71
291.661	4.73
292.032	4.64
292.403	4.65
292.775	4.67
293.146	4.68
293.517	4.62
293.889	4.76
294.26	4.71
294.631	4.89
295.002	4.85
295.373	4.75
295.744	4.84
296.115	4.92
296.486	4.89
296.857	4.77
297.228	4.59
297.599	4.51
297.97	4.61
298.34	4.67
298.711	4.61
299.082	4.6
299.452	4.53
299.823	4.72
300.194	4.9
300.564	4.81
300.935	4.94
301.305	4.92
301.676	4.9
302.046	5.21
302.416	5.02
302.787	5.09
303.157	5.22
303.527	5.28
303.897	5.28
304.267	5.41
304.637	5.54
305.008	5.6
305.378	5.69
305.748	5.61
306.117	5.65
306.487	5.85
306.857	5.93
307.227	6.05
307.597	5.94
307.967	5.76
308.336	5.77
308.706	5.76
309.076	5.92
309.445	6.1
309.815	6.01
310.184	6.11
310.554	6.29
310.923	6.28
311.293	6.3
311.662	6.43
312.031	6.45
312.401	6.44
312.77	6.62
313.139	6.62
313.508	6.75
313.877	6.88
314.246	6.97
314.616	7.07
314.985	7.18
315.353	7.38
315.722	7.62
316.091	7.87
316.46	7.97
316.829	8.08
317.198	8.09
317.567	8.29
317.935	8.3
318.304	8.42
318.672	8.57
319.041	8.68
319.41	8.67
319.778	8.69
320.147	8.74
320.515	8.88
320.883	8.92
321.252	8.98
321.62	8.81
321.988	8.84
322.357	8.95
322.725	8.99
323.093	8.96
323.461	9.02
323.829	9.16
324.197	9.18
324.565	9.08
324.933	9
325.301	8.82
325.669	8.93
326.037	8.97
326.405	9.06
326.772	9.04
327.14	8.89
327.508	8.86
327.875	8.86
328.243	8.76
328.61	8.88
328.978	8.81
329.346	8.92
329.713	8.88
330.08	9.07
330.448	9.11
330.815	9.12
331.182	9.12
331.55	9.05
331.917	9.13
332.284	9.23
332.651	9.28
333.018	9.39
333.385	9.41
333.752	9.29
334.119	9.13
334.486	9.09
334.853	9.2
335.22	9.31
335.587	9.37
335.954	9.3
336.32	9.26
336.687	9.44
337.054	9.44
337.42	9.46
337.787	9.29
338.153	9.23
338.52	9.36
338.886	9.32
339.253	9.18
339.619	9.14
339.986	9.15
340.352	9.23
340.718	9.31
341.084	9.34
341.451	9.45
341.817	9.65
342.183	9.68
342.549	9.72
342.915	9.67
343.281	9.71
343.647	9.84
344.013	9.9
344.379	9.76
344.745	9.81
345.11	9.87
345.476	9.86
345.842	9.88
346.208	9.81
346.573	9.91
346.939	10.03
347.304	9.99
347.67	9.94
348.035	9.8
348.401	9.79
348.766	9.7
349.132	9.62
349.497	9.5
349.862	9.51
350.228	9.53
350.593	9.6
350.958	9.65
351.323	9.59
351.688	9.6
352.053	9.6
352.418	9.53
352.783	9.45
353.148	9.42
353.513	9.4
353.878	9.32
354.243	9.23
354.608	9.21
354.972	9.24
355.337	9.25
355.702	9.3
356.066	9.3
356.431	9.32
356.795	9.27
357.16	9.24
357.524	9.17
357.889	9.04
358.253	8.98
358.618	8.81
358.982	8.72
359.346	8.7
359.71	8.64
360.075	8.63
360.439	8.67
360.803	8.69
361.167	8.62
361.531	8.58
361.895	8.54
362.259	8.49
362.623	8.43
362.987	8.34
363.351	8.25
363.714	8.16
364.078	8.09
364.442	8.04
364.806	7.97
365.169	7.96
365.533	7.9
365.896	7.88
366.26	7.89
366.623	7.87
366.987	7.77
367.35	7.81
367.714	7.75
368.077	7.66
368.44	7.46
368.803	7.37
369.167	7.37
369.53	7.34
369.893	7.29
370.256	7.26
370.619	7.19
370.982	7.13
371.345	7.04
371.708	6.95
372.071	6.87
372.434	6.84
372.797	6.77
373.159	6.77
373.522	6.71
373.885	6.71
374.247	6.61
374.61	6.59
374.973	6.49
375.335	6.47
375.698	6.43
376.06	6.48
376.423	6.53
376.785	6.47
377.147	6.34
377.51	6.21
377.872	6.16
378.234	6.21
378.596	6.2
378.958	6.18
379.321	6.14
379.683	6.12
380.045	6.05
380.407	5.97
380.769	5.92
381.13	5.83
381.492	5.78
381.854	5.73
382.216	5.67
382.578	5.68
382.939	5.58
383.301	5.52
383.663	5.42
384.024	5.33
384.386	5.31
384.747	5.34
385.109	5.37
385.47	5.3
385.832	5.19
386.193	5.15
386.554	5.08
386.916	5.09
387.277	5.05
387.638	5.02
387.999	4.99
388.36	4.97
388.721	4.96
389.082	4.9
389.443	4.92
389.804	4.85
390.165	4.79
390.526	4.78
390.887	4.72
391.248	4.64
391.609	4.61
391.969	4.57
392.33	4.5
392.691	4.43
393.051	4.4
393.412	4.39
393.772	4.35
394.133	4.31
394.493	4.24
394.854	4.24
395.214	4.21
395.574	4.19
395.935	4.13
396.295	4.09
396.655	4.05
397.015	4.02
397.376	3.98
397.736	3.9
398.096	3.85
398.456	3.81
398.816	3.85
399.176	3.79
399.535	3.77
399.895	3.77
400.255	3.76
400.615	3.77
400.975	3.77
401.334	3.75
401.694	3.79
402.054	3.79
402.413	3.75
402.773	3.74
403.132	3.71
403.492	3.69
403.851	3.64
404.211	3.64
404.57	3.63
404.929	3.61
405.288	3.62
405.648	3.6
406.007	3.61
406.366	3.57
406.725	3.6
407.084	3.58
407.443	3.59
407.802	3.57
408.161	3.55
408.52	3.51
408.879	3.49
409.238	3.44
409.596	3.42
409.955	3.43
410.314	3.42
410.673	3.42
411.031	3.39
411.39	3.43
411.748	3.4
412.107	3.36
412.465	3.38
412.824	3.37
413.182	3.38
413.54	3.37
413.899	3.37
414.257	3.35
414.615	3.34
414.974	3.29
415.332	3.28
415.69	3.27
416.048	3.26
416.406	3.24
416.764	3.23
417.122	3.23
417.48	3.18
417.838	3.15
418.195	3.14
418.553	3.14
418.911	3.09
419.269	3.1
419.626	3.11
419.984	3.09
420.342	3.08
420.699	3.07
421.057	3.05
421.414	3.06
421.772	3.04
422.129	3.04
422.486	3.04
422.844	3.05
423.201	3.04
423.558	3.04
423.915	3.05
424.273	3.05
424.63	3.03
424.987	3.05
425.344	3.05
425.701	3.06
426.058	3.06
426.415	3.08
426.772	3.08
427.128	3.07
427.485	3.06
427.842	3.06
428.199	3.05
428.555	3.05
428.912	3.04
429.269	3.04
429.625	3.01
429.982	3
430.338	2.99
430.695	2.97
431.051	2.98
431.407	2.94
431.764	2.93
432.12	2.94
432.476	2.93
432.832	2.92
433.189	2.91
433.545	2.91
433.901	2.9
434.257	2.89
434.613	2.86
434.969	2.86
435.325	2.85
435.681	2.85
436.036	2.86
436.392	2.86
436.748	2.86
437.104	2.86
437.459	2.86
437.815	2.88
438.171	2.87
438.526	2.87
438.882	2.88
439.237	2.89
439.593	2.9
439.948	2.89
440.304	2.88
440.659	2.88
441.014	2.86
441.369	2.86
441.725	2.87
442.08	2.88
442.435	2.88
442.79	2.89
443.145	2.91
443.5	2.89
443.855	2.87
444.21	2.88
444.565	2.89
444.92	2.88
445.275	2.87
445.629	2.88
445.984	2.86
446.339	2.86
446.693	2.86
447.048	2.81
447.403	2.81
447.757	2.8
448.112	2.8
448.466	2.81
448.82	2.81
449.175	2.81
449.529	2.81
449.883	2.79
450.238	2.8
450.592	2.77
450.946	2.77
451.3	2.78
451.654	2.74
452.008	2.73
452.362	2.73
452.716	2.72
453.07	2.71
453.424	2.7
453.778	2.7
454.132	2.68
454.486	2.73
454.839	2.73
455.193	2.75
455.547	2.75
455.9	2.75
456.254	2.74
456.607	2.75
456.961	2.75
457.314	2.76
457.668	2.77
458.021	2.77
458.375	2.77
458.728	2.77
459.081	2.8
459.434	2.8
459.787	2.81
460.141	2.82
460.494	2.82
460.847	2.82
461.2	2.83
461.553	2.84
461.906	2.83
462.259	2.83
462.611	2.83
462.964	2.83
463.317	2.84
463.67	2.86
464.022	2.85
464.375	2.85
464.728	2.87
465.08	2.85
465.433	2.84
465.785	2.86
466.138	2.88
466.49	2.89
466.843	2.9
467.195	2.91
467.547	2.91
467.899	2.93
468.252	2.97
468.604	2.99
468.956	3
469.308	3
469.66	3.02
470.012	3.04
470.364	3.06
470.716	3.06
471.068	3.06
471.42	3.06
471.772	3.08
472.123	3.09
472.475	3.1
472.827	3.11
473.178	3.11
473.53	3.1
473.882	3.08
474.233	3.08
474.585	3.08
474.936	3.06
475.288	3.06
475.639	3.04
475.99	3.03
476.342	3.03
476.693	3.03
477.044	3.01
477.395	3
477.746	2.98
478.097	2.98
478.448	2.96
478.8	2.95
479.15	2.95
479.501	2.93
479.852	2.93
480.203	2.95
480.554	2.95
480.905	2.96
481.255	2.97
481.606	2.97
481.957	2.98
482.307	2.99
482.658	2.98
483.009	2.98
483.359	2.98
483.709	2.98
484.06	2.98
484.41	2.99
484.761	2.99
485.111	2.99
485.461	2.99
485.811	2.99
486.162	3
486.512	3
486.862	3.01
487.212	3.02
487.562	3
487.912	2.99
488.262	2.99
488.612	2.99
488.961	2.98
489.311	2.96
489.661	2.96
490.011	2.96
490.36	2.96
490.71	2.96
491.06	2.94
491.409	2.94
491.759	2.93
492.108	2.93
492.458	2.94
492.807	2.94
493.157	2.95
493.506	2.97
493.855	2.96
494.204	2.97
494.554	2.95
494.903	2.98
495.252	3
495.601	3.02
495.95	3.02
496.299	3.05
496.648	3.09
496.997	3.11
497.346	3.14
497.695	3.17
498.043	3.23
498.392	3.26
498.741	3.3
499.09	3.33
499.438	3.38
499.787	3.39
500.135	3.41
500.484	3.42
500.832	3.44
501.181	3.48
501.529	3.51
501.878	3.56
502.226	3.61
502.574	3.64
502.923	3.67
503.271	3.74
503.619	3.78
503.967	3.8
504.315	3.87
504.663	3.9
505.011	3.96
505.359	3.97
505.707	4.02
506.055	4.08
506.403	4.12
506.751	4.17
507.098	4.22
507.446	4.29
507.794	4.36
508.141	4.41
508.489	4.49
508.837	4.55
509.184	4.61
509.531	4.65
509.879	4.72
510.226	4.77
510.574	4.84
510.921	4.92
511.268	4.99
511.616	5.05
511.963	5.15
512.31	5.22
512.657	5.33
513.004	5.41
513.351	5.47
513.698	5.59
514.045	5.68
514.392	5.8
514.739	5.92
515.086	6.02
515.432	6.14
515.779	6.23
516.126	6.35
516.473	6.45
516.819	6.58
517.166	6.68
517.512	6.78
517.859	6.86
518.205	6.93
518.552	7.02
518.898	7.11
519.245	7.21
519.591	7.29
519.937	7.37
520.283	7.48
520.629	7.61
520.976	7.7
521.322	7.81
521.668	7.9
522.014	8.01
522.36	8.12
522.706	8.24
523.052	8.37
523.398	8.48
523.743	8.64
524.089	8.76
524.435	8.88
524.781	8.99
525.126	9.12
525.472	9.24
525.817	9.34
526.163	9.42
526.509	9.5
526.854	9.59
527.199	9.67
527.545	9.75
527.89	9.82
528.235	9.91
528.581	10
528.926	10.08
529.271	10.16
529.616	10.26
529.961	10.34
530.306	10.43
530.651	10.53
530.996	10.63
531.341	10.72
531.686	10.83
532.031	10.93
532.376	11.05
532.721	11.15
533.065	11.27
533.41	11.4
533.755	11.54
534.099	11.68
534.444	11.79
534.788	11.89
535.133	12.02
535.477	12.15
535.822	12.27
536.166	12.43
536.51	12.55
536.855	12.69
537.199	12.86
537.543	13.02
537.887	13.19
538.231	13.34
538.576	13.51
538.92	13.7
539.264	13.87
539.608	14.02
539.951	14.18
540.295	14.34
540.639	14.51
540.983	14.61
541.327	14.74
541.671	14.91
542.014	15.07
542.358	15.24
542.701	15.38
543.045	15.52
543.389	15.66
543.732	15.83
544.075	15.98
544.419	16.14
544.762	16.33
545.105	16.5
545.449	16.7
545.792	16.89
546.135	17.06
546.478	17.29
546.821	17.53
547.165	17.76
547.508	17.99
547.851	18.22
548.194	18.49
548.536	18.71
548.879	18.9
549.222	19.13
549.565	19.34
549.908	19.57
550.25	19.83
550.593	20.09
550.936	20.33
551.278	20.6
551.621	20.83
551.963	21.08
552.306	21.35
552.648	21.63
552.991	21.88
553.333	22.15
553.675	22.41
554.017	22.63
554.36	22.83
554.702	23.03
555.044	23.27
555.386	23.48
555.728	23.77
556.07	24.08
556.412	24.33
556.754	24.6
557.096	24.87
557.438	25.19
557.78	25.47
558.121	25.78
558.463	26.04
558.805	26.41
559.147	26.71
559.488	26.96
559.83	27.22
560.171	27.52
560.513	27.78
560.854	28.08
561.196	28.39
561.537	28.7
561.878	29.07
562.22	29.35
562.561	29.66
562.902	29.9
563.243	30.15
563.584	30.45
563.925	30.74
564.266	31.02
564.607	31.26
564.948	31.54
565.289	31.78
565.63	32.05
565.971	32.29
566.312	32.51
566.653	32.76
566.993	32.99
567.334	33.28
567.675	33.56
568.015	33.79
568.356	34.05
568.696	34.27
569.037	34.49
569.377	34.79
569.718	35.06
570.058	35.35
570.398	35.58
570.739	35.84
571.079	36.07
571.419	36.29
571.759	36.53
572.099	36.75
572.439	36.96
572.779	37.24
573.119	37.48
573.459	37.71
573.799	37.96
574.139	38.21
574.479	38.39
574.819	38.64
575.158	38.85
575.498	39.08
575.838	39.33
576.177	39.56
576.517	39.77
576.856	39.94
577.196	40.16
577.535	40.43
577.875	40.65
578.214	40.85
578.553	41.14
578.893	41.38
579.232	41.64
579.571	41.92
579.91	42.13
580.25	42.31
580.589	42.51
580.928	42.72
581.267	42.94
581.606	43.16
581.945	43.28
582.283	43.47
582.622	43.66
582.961	43.83
583.3	44.04
583.639	44.28
583.977	44.51
584.316	44.7
584.654	44.94
584.993	45.11
585.332	45.3
585.67	45.5
586.008	45.7
586.347	45.87
586.685	46.07
587.024	46.27
587.362	46.41
587.7	46.58
588.038	46.71
588.376	46.84
588.715	47.02
589.053	47.2
589.391	47.43
589.729	47.62
590.067	47.8
590.404	47.93
590.742	48.06
591.08	48.3
591.418	48.44
591.756	48.55
592.093	48.74
592.431	48.92
592.769	49.07
593.106	49.18
593.444	49.29
593.781	49.35
594.119	49.44
594.456	49.63
594.793	49.8
595.131	49.95
595.468	50.13
595.805	50.26
596.143	50.39
596.48	50.45
596.817	50.52
597.154	50.69
597.491	50.79
597.828	50.87
598.165	50.94
598.502	51.08
598.839	51.28
599.176	51.41
599.512	51.56
599.849	51.71
600.186	51.84
600.523	52.04
600.859	52.18
601.196	52.3
601.532	52.38
601.869	52.55
602.205	52.64
602.542	52.65
602.878	52.72
603.215	52.83
603.551	52.95
603.887	53.04
604.223	53.06
604.56	53.11
604.896	53.17
605.232	53.26
605.568	53.32
605.904	53.27
606.24	53.29
606.576	53.35
606.912	53.37
607.248	53.51
607.583	53.5
607.919	53.54
608.255	53.64
608.591	53.78
608.926	53.78
609.262	53.87
609.597	53.97
609.933	54.05
610.268	54.15
610.604	54.18
610.939	54.22
611.275	54.32
611.61	54.45
611.945	54.52
612.281	54.55
612.616	54.64
612.951	54.79
613.286	54.9
613.621	54.99
613.956	55.03
614.291	55.11
614.626	55.28
614.961	55.47
615.296	55.48
615.631	55.5
615.966	55.54
616.3	55.67
616.635	55.77
616.97	55.76
617.304	55.81
617.639	55.79
617.973	55.9
618.308	56
618.642	56.06
618.977	56.13
619.311	56.17
619.646	56.18
619.98	56.27
620.314	56.33
620.648	56.38
620.983	56.47
621.317	56.39
621.651	56.43
621.985	56.52
622.319	56.69
622.653	56.78
622.987	56.73
623.321	56.75
623.655	56.8
623.988	56.91
624.322	56.84
624.656	57
624.99	56.98
625.323	57.06
625.657	57.13
625.99	57.17
626.324	57.2
626.657	57.28
626.991	57.29
627.324	57.41
627.658	57.48
627.991	57.57
628.324	57.7
628.657	57.7
628.991	57.66
629.324	57.62
629.657	57.66
629.99	57.88
630.323	57.87
630.656	57.86
630.989	57.94
631.322	58.01
631.655	58.05
631.987	58.04
632.32	57.93
632.653	57.94
632.986	57.98
633.318	58.03
633.651	58.03
633.984	58.04
634.316	58.05
634.649	58.04
634.981	58.02
635.313	58.09
635.646	58.15
635.978	58.12
636.31	58.24
636.643	58.21
636.975	58.13
637.307	58.18
637.639	58.2
637.971	58.23
638.303	58.35
638.635	58.38
638.967	58.54
639.299	58.65
639.631	58.68
639.963	58.7
640.295	58.67
640.626	58.69
640.958	58.72
641.29	58.65
641.621	58.71
641.953	58.69
642.285	58.61
642.616	58.54
642.948	58.58
643.279	58.46
643.61	58.58
643.942	58.66
644.273	58.67
644.604	58.78
644.936	58.71
645.267	58.8
645.598	58.82
645.929	58.82
646.26	58.81
646.591	58.74
646.922	58.73
647.253	58.79
647.584	58.88
647.915	59.03
648.245	59.08
648.576	59.12
648.907	59.09
649.238	59.09
649.568	59.14
649.899	59.23
650.229	59.25
650.56	59.26
650.89	59.26
651.221	59.37
651.551	59.36
651.882	59.37
652.212	59.29
652.542	59.38
652.872	59.41
653.203	59.46
653.533	59.59
653.863	59.65
654.193	59.71
654.523	59.72
654.853	59.68
655.183	59.7
655.513	59.65
655.843	59.74
656.172	59.97
656.502	59.95
656.832	59.94
657.162	60.11
657.491	60.08
657.821	60.12
658.15	60.14
658.48	60.18
658.809	60.32
659.139	60.41
659.468	60.35
659.798	60.29
660.127	60.24
660.456	60.24
660.785	60.24
661.115	60.25
661.444	60.26
661.773	60.3
662.102	60.31
662.431	60.41
662.76	60.49
663.089	60.35
663.418	60.35
663.747	60.35
664.076	60.18
664.404	60.34
664.733	60.38
665.062	60.37
665.39	60.26
665.719	60.28
666.048	60.22
666.376	60.18
666.705	60.32
667.033	60.35
667.362	60.23
667.69	60.28
668.018	60.23
668.347	60.2
668.675	60.23
669.003	60.31
669.331	60.16
669.659	60.07
669.987	60.1
670.315	60.21
670.643	60.22
670.971	60.36
671.299	60.24
671.627	60.22
671.955	60.27
672.283	60.41
672.61	60.32
672.938	60.34
673.266	60.4
673.593	60.29
673.921	60.33
674.249	60.45
674.576	60.4
674.904	60.57
675.231	60.61
675.558	60.62
675.886	60.69
676.213	60.83
676.54	60.96
676.867	60.91
677.195	60.91
677.522	60.96
677.849	60.9
678.176	60.8
678.503	60.76
678.83	60.82
679.157	60.87
679.484	60.84
679.81	60.82
680.137	60.79
680.464	60.95
680.791	61.03
681.117	60.97
681.444	61.04
681.771	60.97
682.097	60.97
682.424	60.87
682.75	60.85
683.077	60.97
683.403	60.91
683.729	61.02
684.056	60.97
684.382	61.07
684.708	61.1
685.034	61.31
685.36	61.36
685.686	61.28
686.012	61.27
686.339	61.31
686.664	61.34
686.99	61.46
687.316	61.42
687.642	61.4
687.968	61.56
688.294	61.5
688.619	61.58
688.945	61.63
689.271	61.65
689.596	61.72
689.922	61.57
690.247	61.61
690.573	61.64
690.898	61.66
691.224	61.48
691.549	61.59
691.874	61.46
692.2	61.43
692.525	61.46
692.85	61.22
693.175	61.19
693.5	61.35
693.825	61.29
694.15	61.16
694.475	61.26
694.8	61.27
695.125	61.28
695.45	61.25
695.775	61.16
696.099	61.4
696.424	61.19
696.749	61.15
697.073	61.21
697.398	61.07
697.723	61.1
698.047	61.1
698.372	61.09
698.696	61.09
699.02	61.21
699.345	61.25
699.669	61.44
699.993	61.61
700.318	61.34
700.642	61.45
700.966	61.54
701.29	61.45
701.614	61.32
701.938	61.38
702.262	61.36
702.586	61.45
702.91	61.19
703.234	61.3
703.557	61.47
703.881	61.32
704.205	61.4
704.529	61.45
704.852	61.78
705.176	61.63
705.499	61.79
705.823	61.7
706.146	61.66
706.47	61.77
706.793	61.72
707.117	62.03
707.44	61.8
707.763	61.68
708.086	61.79
708.409	61.85
708.733	61.88
709.056	61.92
709.379	61.94
709.702	61.83
710.025	61.87
710.348	61.76
710.671	61.83
710.993	61.82
711.316	61.81
711.639	61.63
711.962	61.62
712.284	61.41
712.607	61.32
712.93	61.34
713.252	61.16
713.575	61.23
713.897	61.13
714.22	61.21
714.542	61.46
714.864	61.36
715.187	61.41
715.509	61.35
715.831	61.34
716.153	61.37
716.475	61.55
716.798	61.4
717.12	61.3
717.442	61.39
717.764	61.31
718.085	61.21
718.407	61.3
718.729	61.48
719.051	61.77
719.373	61.71
719.695	61.75
720.016	61.98
720.338	61.85
720.659	62.02
720.981	61.9
721.302	61.68
721.624	61.85
721.945	61.9
722.267	61.89
722.588	61.9
722.909	61.78
723.231	61.98
723.552	62.22
723.873	62.39
724.194	62.48
724.515	62.7
724.836	62.76
725.157	62.75
725.478	62.54
725.799	62.37
726.12	62.42
726.441	62.42
726.762	62.19
727.083	62.17
727.403	61.95
727.724	62.15
728.045	62.17
728.365	62.14
728.686	61.94
729.006	61.85
729.327	62.01
729.647	61.94
729.967	61.8
730.288	61.71
730.608	61.6
730.928	61.37
731.249	61.39
731.569	61.38
731.889	61.4
732.209	61.44
732.529	61.33
732.849	61.32
733.169	61.16
733.489	61.2
733.809	61.21
734.129	61.38
734.448	61.41
734.768	61.5
735.088	61.41
735.408	61.59
735.727	61.85
736.047	61.69
736.366	61.73
736.686	61.9
737.005	62.15
737.325	62.17
737.644	61.9
737.963	61.77
738.283	61.98
738.602	61.79
738.921	61.94
739.24	62.07
739.56	62.04
739.879	62.09
740.198	62.04
740.517	62.04
740.836	61.88
741.155	61.9
741.473	61.77
741.792	61.7
742.111	61.54
742.43	61.31
742.748	61.24
743.067	61.39
743.386	61.26
743.704	61.16
744.023	61.4
744.341	62.01
744.66	62.2
744.978	62.11
745.297	62.1
745.615	61.86
745.933	61.91
746.252	62.27
746.57	62.48
746.888	62.7
747.206	62.62
747.524	62.56
747.842	62.44
748.16	62.72
748.478	62.85
748.796	63.14
749.114	63.27
749.432	63.3
749.749	63.19
750.067	63.2
750.385	63.14
750.703	63.19
751.02	63.02
751.338	62.79
751.655	62.78
751.973	62.9
752.29	63.2
752.608	63
752.925	62.87
753.242	62.63
753.56	62.52
753.877	62.44
754.194	62.67
754.511	62.82
754.828	62.47
755.145	62.39
755.462	62.07
755.779	61.64
756.096	61.83
756.413	61.88
756.73	61.97
757.047	62.1
757.364	61.89
757.68	62
757.997	62.07
758.314	62.21
758.63	62.08
758.947	62.22
759.264	62.33
759.58	62.47
759.896	62.73
760.213	62.69
760.529	62.6
760.846	62.59
761.162	62.53
761.478	62.77
761.794	63.21
762.11	63.24
762.426	63.58
762.743	63.67
763.059	63.83
763.375	63.78
763.69	63.7
764.006	63.83
764.322	63.74
764.638	63.8
764.954	63.69
765.27	63.57
765.585	63.51
765.901	63.55
766.216	63.47
766.532	63.39
766.848	63.18
767.163	63.24
767.478	63.12
767.794	62.75
768.109	62.69
768.424	62.29
768.74	62.49
769.055	62.57
769.37	62.24
769.685	62.03
770	61.65
770.315	61.66
770.63	61.6
770.945	61.45
771.26	60.83
771.575	60.55
771.89	61.23
772.205	61.49
772.52	61.77
772.834	61.83
773.149	61.82
773.464	62.31
773.778	62.4
774.093	62.13
774.407	63.36
774.722	63.37
775.036	63.2
775.351	63.09
775.665	62.82
775.979	62.96
776.293	63.24
776.608	63.44
776.922	63.24
777.236	63.19
777.55	63.38
777.864	64.15
778.178	64.57
778.492	64.13
778.806	63.46
779.12	63.18
779.434	62.78
779.747	62.47
780.061	62.36
780.375	62.37
780.689	63.17
781.002	62.56
781.316	62.42
781.629	62.98
781.943	63.18
782.256	63.49
782.57	63.64
782.883	63.38
783.196	63.61
783.51	63.57
783.823	63.55
784.136	63.04
784.449	63.01
784.762	63.47
785.075	63.45
785.388	63.57
785.701	63.72
786.014	64.28
786.327	64.36
786.64	64.26
786.953	64.37
787.266	63.82
787.578	63.68
787.891	64.09
788.204	63.81
788.516	63.52
788.829	63.85
789.141	63.37
789.454	63.54
789.766	63.57
790.079	63.54
790.391	64.1
790.703	64.45
791.016	64.57
791.328	64.28
791.64	64.27
791.952	64.3
792.264	64.41
792.576	64.39
792.888	65.06
793.2	65.28
793.512	65.43
793.824	65.56
794.136	66.05
794.448	65.73
794.76	66.12
795.071	66.21
795.383	66.22
795.695	66.88
796.006	66.6
796.318	65.99
796.629	65.61
796.941	65.1
797.252	65.23
797.564	65.24
797.875	64.69
798.186	64.6
798.497	64.85
798.809	64.44
799.12	63.99
799.431	63.83
799.742	63.51
800.053	63
800.364	62.94
800.675	62.63
800.986	62.24
801.297	61.83
801.608	62.49
801.918	62.28
802.229	62.14
802.54	62.44
802.851	62.19
803.161	62.85
803.472	62.89
803.782	63.09
804.093	63.26
804.403	63.33
804.714	63.38
805.024	63.23
805.334	63.67
805.645	64.05
805.955	63.74
806.265	64.03
806.575	64.85
806.885	65.45
807.195	65.02
807.505	65.28
807.815	65.56
808.125	64.46
808.435	63.94
808.745	63.92
809.055	63.41
809.365	63.64
809.674	62.58
809.984	62.33
810.294	61.6
810.603	61.27
810.913	61.82
811.222	62.14
811.532	62.4
811.841	62.61
812.151	62.27
812.46	62.29
812.769	62.36
813.079	62.47
813.388	61.74
813.697	61.86
814.006	62.24
814.315	61.62
814.624	62.08
814.933	61.88
815.242	61.06
815.551	61.17
815.86	61.76
816.169	62.58
816.478	62.87
816.786	63.68
817.095	63.24
817.404	63.36
817.712	63.42
818.021	63.21
818.33	63.11
818.638	63.05
818.947	63.79
819.255	63.66
819.563	63.29
819.872	63.21
820.18	62.95
820.488	62.55
820.796	62.71
821.105	62.81
821.413	63.09
821.721	63.3
822.029	63.44
822.337	63.53
822.645	63.6
822.953	63.4
823.26	63.18
823.568	63.21
823.876	63.04
824.184	63.01
824.491	63.08
824.799	62.94
825.107	63
825.414	62.79
825.722	62.72
826.029	62.77
826.337	62.69
826.644	62.95
826.951	63.28
827.259	63.21
827.566	63.13
827.873	63.14
828.18	63.19
828.488	62.99
828.795	62.8
829.102	62.75
829.409	62.82
829.716	62.95
830.023	63.08
830.329	63.26
830.636	63.13
830.943	62.83
831.25	62.99
831.557	63.03
831.863	62.82
832.17	62.96
832.476	62.94
832.783	63.35
833.089	63.18
833.396	63.22
833.702	63.3
834.009	63.59
834.315	63.6
834.621	63.18
834.928	63
835.234	63.28
835.54	62.77
835.846	62.37
836.152	62.45
836.458	62.53
836.764	62.38
837.07	62.5
837.376	62.1
837.682	61.93
837.988	61.99
838.293	62.39
838.599	62.13
838.905	62.19
839.211	62.13
839.516	62.11
839.822	61.86
840.127	61.26
840.433	61.45
840.738	61.23
841.044	61.24
841.349	62.01
841.654	61.88
841.959	62.49
842.265	63.75
842.57	64.02
842.875	64.06
843.18	64.46
843.485	63.77
843.79	64.6
844.095	64.69
844.4	64.89
844.705	64.33
845.01	64.49
845.315	64.22
845.619	63.1
845.924	63.28
846.229	63.61
846.533	64.11
846.838	62.48
847.142	61.11
847.447	61.84
847.751	62.37
848.056	60.88
848.36	61.68
848.664	60.67
848.969	61.02
849.273	61.02
849.577	60.36
849.881	62.11
850.185	62.35
850.489	62
850.794	60.83
851.097	61.52
851.401	60.67
851.705	60.12
852.009	61.89
852.313	61.08
852.617	61.12
852.92	63.2
853.224	64.39
853.528	66.05
853.831	66.17
854.135	64.65
854.438	66.16
854.742	65.86
855.045	66.59
855.349	65.45
855.652	65.86
855.955	66.2
856.259	66.37
856.562	67.75
856.865	68.23
857.168	68.51
857.471	65.76
857.774	66.41
858.077	65.56
858.38	66.11
858.683	67.3
858.986	66.16
859.289	66.7
859.592	66.68
859.894	66.48
860.197	68.79
860.5	69.76
860.802	69.77
861.105	70.72
861.407	71.46
861.71	73.04
862.012	73.04
862.315	72.05
862.617	71.29
862.919	69.26
863.222	68.94
863.524	70.65
863.826	75.18
864.128	76.93
864.43	79.07
864.732	75.85
865.034	77.09
865.336	77.17
865.638	74.73
865.94	72.46
866.242	74.3
866.544	71.92
866.846	71.86
867.147	72.1
867.449	71.53
867.751	71.3
868.052	72.25
868.354	70.31
868.655	72.97
868.957	73.64
869.258	74.83
869.56	76.01
869.861	71.79
870.162	67.55
870.463	65.62
870.765	65.83
871.066	65.31
871.367	62.15
871.668	62.49
871.969	63.69
872.27	66.47
872.571	63.82
872.872	63.53
873.173	64.57
873.473	64.1
873.774	64.76
874.075	65.41
874.376	64.66
874.676	65.52
874.977	65.01
875.277	65.39
875.578	64.19
875.878	63.5
876.179	66.11
876.479	68.55
876.78	70.38
877.08	69.68
877.38	73.71
877.68	75.98
877.981	75.79
878.281	74.99
878.581	72.91
