Data from BU57737_Reflection_00008.txt Node
Date: Mon Nov 18 16:29:51 EST 2019
User: vgr7
Spectrometer: USB2G7710
Scans to average: 3
Trigger mode: 4
Integration Time (sec): 2.000000E-2
Electric dark correction enabled: true
Boxcar width: 10
XAxis mode: Wavelengths
Number of Pixels in Spectrum: 2048
>>>>>Begin Spectral Data<<<<<
177.721	-60.2
178.105	417.46
178.488	119.44
178.871	153.61
179.254	132.95
179.636	147.62
180.019	270.77
180.402	126.92
180.785	-10.68
181.168	40.48
181.55	-20.12
181.933	69.3
182.316	93.29
182.698	108
183.081	260.85
183.463	319.34
183.846	185.55
184.228	282.49
184.611	328.11
184.993	333.25
185.376	305.35
185.758	257.67
186.14	222.34
186.522	172.9
186.904	166.74
187.287	155.31
187.669	171.63
188.051	214.26
188.433	316.39
188.815	340.88
189.197	293.22
189.579	307.41
189.961	655.01
190.342	712.09
190.724	798.16
191.106	-4363.77
191.488	110766.67
191.869	-196.3
192.251	-254.79
192.633	-143.07
193.014	-86.14
193.396	-109.15
193.777	-137.51
194.159	-176.54
194.54	-102.93
194.922	-76.19
195.303	-53.19
195.684	-50.09
196.065	-36.42
196.447	-31.18
196.828	-35.31
197.209	-10.76
197.59	-25.17
197.971	-34.14
198.352	-22.66
198.733	-37.75
199.114	-40.18
199.495	-33.95
199.876	-36.59
200.257	-26.44
200.638	-26
201.018	-33.44
201.399	-35.56
201.78	-33.87
202.16	-47.95
202.541	-114.1
202.922	-170.39
203.302	-218.15
203.683	-319.6
204.063	-679.74
204.444	-1653.5
204.824	-654.94
205.204	-1031.62
205.585	-619.24
205.965	-337.71
206.345	-742.71
206.725	-1026.88
207.106	-932.76
207.486	-793.74
207.866	-1946.2
208.246	16887.88
208.626	64322.22
209.006	-984.68
209.386	4648.15
209.766	1324.59
210.145	1621.04
210.525	-312.87
210.905	-223.51
211.285	-180.61
211.664	-137.73
212.044	-125.29
212.424	-105.26
212.803	-158.58
213.183	-142.48
213.562	-131.3
213.942	-135.38
214.321	-99.75
214.701	-97.16
215.08	-93.97
215.459	-82.5
215.838	-84.92
216.218	-98.92
216.597	-86.26
216.976	-89.06
217.355	-71.48
217.734	-68.65
218.113	-76.3
218.492	-94.33
218.871	-117.61
219.25	-137.69
219.629	-149.5
220.008	-139.01
220.387	-143.58
220.766	-122.84
221.144	-125.75
221.523	-144.75
221.902	-152.13
222.28	-182.99
222.659	-162.44
223.037	-136.85
223.416	-145.14
223.794	-111.15
224.173	-87.99
224.551	-67.66
224.929	-63.17
225.308	-49.97
225.686	-41.5
226.064	-27.46
226.442	-22.77
226.821	-14.22
227.199	-15.72
227.577	-14.73
227.955	-13.01
228.333	-11.09
228.711	-9.28
229.089	-8.8
229.467	-13.47
229.845	-10.75
230.222	-8.14
230.6	-7.85
230.978	-8.05
231.356	-5.3
231.733	-6.59
232.111	-3.04
232.488	-2.74
232.866	-2.35
233.243	-2.19
233.621	-3.02
233.998	-3.82
234.376	-4.34
234.753	-5.58
235.13	-5.48
235.508	-4.52
235.885	-4.65
236.262	-4.57
236.639	-3.46
237.016	-1.03
237.393	1.31
237.77	2.23
238.147	1.57
238.524	1.37
238.901	1.31
239.278	1.25
239.655	2.29
240.032	1.74
240.409	1.48
240.785	2.25
241.162	2.55
241.539	2.22
241.915	2.54
242.292	2.64
242.668	2.23
243.045	2.72
243.421	2.67
243.798	2.72
244.174	2.75
244.551	2.87
244.927	2.59
245.303	2.58
245.679	2.54
246.056	2.58
246.432	2.66
246.808	2.75
247.184	2.53
247.56	2.34
247.936	2.26
248.312	2.19
248.688	1.9
249.064	1.65
249.44	1.59
249.815	1.59
250.191	1.83
250.567	1.99
250.943	1.61
251.318	1.48
251.694	1.41
252.069	1.43
252.445	1.32
252.82	1.17
253.196	1
253.571	0.82
253.947	0.74
254.322	0.83
254.697	0.93
255.073	0.96
255.448	0.87
255.823	1.05
256.198	1.14
256.573	1.35
256.948	1.47
257.323	1.73
257.698	1.8
258.073	1.54
258.448	1.59
258.823	1.8
259.198	1.89
259.573	1.91
259.948	1.73
260.322	1.73
260.697	1.71
261.072	1.6
261.446	1.48
261.821	1.47
262.195	1.51
262.57	1.45
262.944	1.57
263.319	1.61
263.693	1.49
264.067	1.49
264.442	1.42
264.816	1.58
265.19	1.59
265.564	1.38
265.938	1.4
266.313	1.25
266.687	1.24
267.061	1.2
267.435	1.31
267.809	1.42
268.183	1.37
268.556	1.23
268.93	1.22
269.304	1.35
269.678	1.36
270.051	1.4
270.425	1.35
270.799	1.33
271.172	1.26
271.546	1.3
271.919	1.21
272.293	1.18
272.666	1.19
273.04	1.24
273.413	1.19
273.787	1.28
274.16	1.27
274.533	1.33
274.906	1.31
275.279	1.26
275.653	1.34
276.026	1.39
276.399	1.61
276.772	1.79
277.145	1.67
277.518	1.67
277.891	1.56
278.263	1.46
278.636	1.6
279.009	1.67
279.382	1.83
279.755	1.84
280.127	1.92
280.5	1.84
280.872	1.76
281.245	1.71
281.617	1.61
281.99	1.72
282.362	1.81
282.735	1.8
283.107	1.81
283.479	1.85
283.852	1.8
284.224	1.75
284.596	1.75
284.968	1.85
285.34	1.86
285.713	1.87
286.085	2.04
286.457	1.98
286.829	2
287.201	1.96
287.572	2
287.944	1.95
288.316	1.94
288.688	1.9
289.06	1.94
289.431	2.15
289.803	2.19
290.175	2.16
290.546	2.19
290.918	2.22
291.289	2.32
291.661	2.41
292.032	2.57
292.403	2.72
292.775	2.77
293.146	2.79
293.517	2.88
293.889	2.82
294.26	2.84
294.631	2.95
295.002	2.88
295.373	2.97
295.744	3.01
296.115	2.95
296.486	2.95
296.857	2.99
297.228	3.01
297.599	3
297.97	2.91
298.34	2.97
298.711	3.03
299.082	2.97
299.452	2.88
299.823	2.88
300.194	2.86
300.564	2.84
300.935	2.9
301.305	2.82
301.676	2.86
302.046	2.81
302.416	2.83
302.787	2.89
303.157	2.89
303.527	2.95
303.897	2.99
304.267	3.11
304.637	3.28
305.008	3.27
305.378	3.5
305.748	3.78
306.117	3.7
306.487	3.61
306.857	3.66
307.227	3.7
307.597	3.62
307.967	3.67
308.336	3.81
308.706	3.79
309.076	4.04
309.445	3.97
309.815	4.08
310.184	4.08
310.554	4.13
310.923	4.08
311.293	4.04
311.662	4.1
312.031	4.03
312.401	4.04
312.77	4.15
313.139	4.11
313.508	4.03
313.877	4.11
314.246	4.16
314.616	4.11
314.985	4.29
315.353	4.35
315.722	4.3
316.091	4.27
316.46	4.39
316.829	4.19
317.198	4.5
317.567	4.43
317.935	4.43
318.304	4.47
318.672	4.55
319.041	4.8
319.41	4.89
319.778	5.14
320.147	5.21
320.515	5.19
320.883	5.2
321.252	5.31
321.62	5.48
321.988	5.71
322.357	5.85
322.725	5.97
323.093	6.05
323.461	6.1
323.829	6.18
324.197	6.16
324.565	6.25
324.933	6.29
325.301	6.3
325.669	6.47
326.037	6.54
326.405	6.75
326.772	6.7
327.14	6.91
327.508	6.88
327.875	6.93
328.243	6.96
328.61	7
328.978	6.96
329.346	6.91
329.713	6.76
330.08	6.84
330.448	6.7
330.815	6.71
331.182	6.85
331.55	6.83
331.917	7.08
332.284	7.17
332.651	7.14
333.018	7.29
333.385	7.26
333.752	7.24
334.119	7.19
334.486	7.29
334.853	7.15
335.22	7.16
335.587	7.21
335.954	7.07
336.32	7.08
336.687	7.21
337.054	7.32
337.42	7.44
337.787	7.45
338.153	7.49
338.52	7.52
338.886	7.43
339.253	7.47
339.619	7.42
339.986	7.36
340.352	7.32
340.718	7.32
341.084	7.42
341.451	7.66
341.817	7.81
342.183	7.81
342.549	7.89
342.915	7.91
343.281	7.85
343.647	8.01
344.013	8.02
344.379	7.91
344.745	7.82
345.11	7.81
345.476	7.85
345.842	7.86
346.208	7.93
346.573	8.03
346.939	8.06
347.304	8.09
347.67	8.13
348.035	8.17
348.401	8.2
348.766	8.09
349.132	7.97
349.497	7.81
349.862	7.76
350.228	7.74
350.593	7.73
350.958	7.74
351.323	7.71
351.688	7.72
352.053	7.77
352.418	7.84
352.783	7.91
353.148	7.86
353.513	7.91
353.878	7.79
354.243	7.76
354.608	7.75
354.972	7.69
355.337	7.77
355.702	7.77
356.066	7.78
356.431	7.73
356.795	7.77
357.16	7.72
357.524	7.61
357.889	7.65
358.253	7.65
358.618	7.6
358.982	7.61
359.346	7.58
359.71	7.6
360.075	7.55
360.439	7.48
360.803	7.47
361.167	7.44
361.531	7.45
361.895	7.38
362.259	7.36
362.623	7.32
362.987	7.23
363.351	7.18
363.714	7.18
364.078	7.2
364.442	7.11
364.806	7.1
365.169	7.12
365.533	7.03
365.896	7
366.26	6.95
366.623	6.88
366.987	6.86
367.35	6.83
367.714	6.81
368.077	6.67
368.44	6.61
368.803	6.51
369.167	6.48
369.53	6.48
369.893	6.45
370.256	6.38
370.619	6.32
370.982	6.24
371.345	6.12
371.708	6.05
372.071	6.02
372.434	6
372.797	5.95
373.159	5.88
373.522	5.79
373.885	5.8
374.247	5.78
374.61	5.72
374.973	5.6
375.335	5.6
375.698	5.7
376.06	5.67
376.423	5.61
376.785	5.58
377.147	5.57
377.51	5.48
377.872	5.47
378.234	5.5
378.596	5.53
378.958	5.46
379.321	5.41
379.683	5.38
380.045	5.31
380.407	5.32
380.769	5.26
381.13	5.27
381.492	5.2
381.854	5.15
382.216	5.11
382.578	5.11
382.939	5.01
383.301	4.91
383.663	4.84
384.024	4.85
384.386	4.86
384.747	4.8
385.109	4.78
385.47	4.72
385.832	4.61
386.193	4.56
386.554	4.54
386.916	4.57
387.277	4.53
387.638	4.48
387.999	4.4
388.36	4.38
388.721	4.31
389.082	4.34
389.443	4.3
389.804	4.28
390.165	4.18
390.526	4.16
390.887	4.13
391.248	4.14
391.609	4.1
391.969	4.02
392.33	3.96
392.691	3.91
393.051	3.86
393.412	3.87
393.772	3.84
394.133	3.82
394.493	3.75
394.854	3.71
395.214	3.71
395.574	3.67
395.935	3.66
396.295	3.63
396.655	3.54
397.015	3.48
397.376	3.44
397.736	3.44
398.096	3.39
398.456	3.35
398.816	3.3
399.176	3.26
399.535	3.22
399.895	3.21
400.255	3.22
400.615	3.21
400.975	3.15
401.334	3.08
401.694	3.04
402.054	3.01
402.413	3.02
402.773	2.96
403.132	2.95
403.492	2.91
403.851	2.91
404.211	2.87
404.57	2.88
404.929	2.88
405.288	2.87
405.648	2.85
406.007	2.81
406.366	2.79
406.725	2.76
407.084	2.75
407.443	2.73
407.802	2.7
408.161	2.66
408.52	2.66
408.879	2.67
409.238	2.67
409.596	2.66
409.955	2.65
410.314	2.68
410.673	2.68
411.031	2.7
411.39	2.7
411.748	2.71
412.107	2.68
412.465	2.65
412.824	2.61
413.182	2.62
413.54	2.63
413.899	2.65
414.257	2.66
414.615	2.64
414.974	2.66
415.332	2.66
415.69	2.68
416.048	2.66
416.406	2.64
416.764	2.62
417.122	2.6
417.48	2.55
417.838	2.56
418.195	2.55
418.553	2.51
418.911	2.5
419.269	2.49
419.626	2.49
419.984	2.49
420.342	2.49
420.699	2.47
421.057	2.46
421.414	2.43
421.772	2.44
422.129	2.44
422.486	2.41
422.844	2.4
423.201	2.38
423.558	2.37
423.915	2.37
424.273	2.37
424.63	2.38
424.987	2.38
425.344	2.36
425.701	2.34
426.058	2.34
426.415	2.33
426.772	2.3
427.128	2.29
427.485	2.28
427.842	2.28
428.199	2.29
428.555	2.29
428.912	2.29
429.269	2.27
429.625	2.26
429.982	2.25
430.338	2.24
430.695	2.25
431.051	2.22
431.407	2.22
431.764	2.21
432.12	2.19
432.476	2.19
432.832	2.19
433.189	2.21
433.545	2.21
433.901	2.2
434.257	2.22
434.613	2.23
434.969	2.23
435.325	2.21
435.681	2.2
436.036	2.19
436.392	2.2
436.748	2.19
437.104	2.18
437.459	2.17
437.815	2.17
438.171	2.16
438.526	2.19
438.882	2.19
439.237	2.19
439.593	2.2
439.948	2.2
440.304	2.2
440.659	2.19
441.014	2.21
441.369	2.21
441.725	2.21
442.08	2.22
442.435	2.21
442.79	2.23
443.145	2.23
443.5	2.23
443.855	2.23
444.21	2.23
444.565	2.25
444.92	2.26
445.275	2.26
445.629	2.27
445.984	2.24
446.339	2.21
446.693	2.21
447.048	2.19
447.403	2.17
447.757	2.16
448.112	2.13
448.466	2.11
448.82	2.1
449.175	2.1
449.529	2.07
449.883	2.06
450.238	2.04
450.592	2.04
450.946	2.02
451.3	2
451.654	2
452.008	1.99
452.362	1.97
452.716	1.96
453.07	1.94
453.424	1.95
453.778	1.99
454.132	1.98
454.486	1.99
454.839	2
455.193	1.99
455.547	2.01
455.9	2.03
456.254	2.03
456.607	2.03
456.961	2.05
457.314	2.06
457.668	2.04
458.021	2.01
458.375	2.02
458.728	2.02
459.081	2.02
459.434	2.02
459.787	2.04
460.141	2.05
460.494	2.06
460.847	2.06
461.2	2.04
461.553	2.05
461.906	2.04
462.259	2.05
462.611	2.07
462.964	2.08
463.317	2.06
463.67	2.05
464.022	2.06
464.375	2.05
464.728	2.06
465.08	2.08
465.433	2.12
465.785	2.1
466.138	2.1
466.49	2.11
466.843	2.11
467.195	2.09
467.547	2.1
467.899	2.09
468.252	2.11
468.604	2.15
468.956	2.15
469.308	2.16
469.66	2.16
470.012	2.16
470.364	2.14
470.716	2.16
471.068	2.16
471.42	2.16
471.772	2.18
472.123	2.17
472.475	2.17
472.827	2.18
473.178	2.21
473.53	2.23
473.882	2.22
474.233	2.22
474.585	2.23
474.936	2.2
475.288	2.21
475.639	2.21
475.99	2.19
476.342	2.19
476.693	2.19
477.044	2.22
477.395	2.2
477.746	2.21
478.097	2.22
478.448	2.21
478.8	2.22
479.15	2.19
479.501	2.18
479.852	2.18
480.203	2.17
480.554	2.18
480.905	2.19
481.255	2.18
481.606	2.19
481.957	2.2
482.307	2.21
482.658	2.2
483.009	2.2
483.359	2.21
483.709	2.2
484.06	2.2
484.41	2.19
484.761	2.2
485.111	2.2
485.461	2.2
485.811	2.21
486.162	2.2
486.512	2.22
486.862	2.22
487.212	2.22
487.562	2.22
487.912	2.22
488.262	2.22
488.612	2.22
488.961	2.21
489.311	2.22
489.661	2.22
490.011	2.22
490.36	2.21
490.71	2.21
491.06	2.21
491.409	2.21
491.759	2.21
492.108	2.22
492.458	2.22
492.807	2.2
493.157	2.21
493.506	2.2
493.855	2.21
494.204	2.22
494.554	2.24
494.903	2.24
495.252	2.24
495.601	2.24
495.95	2.25
496.299	2.25
496.648	2.24
496.997	2.25
497.346	2.29
497.695	2.33
498.043	2.33
498.392	2.35
498.741	2.38
499.09	2.41
499.438	2.42
499.787	2.43
500.135	2.48
500.484	2.51
500.832	2.54
501.181	2.56
501.529	2.56
501.878	2.58
502.226	2.62
502.574	2.64
502.923	2.67
503.271	2.71
503.619	2.77
503.967	2.81
504.315	2.85
504.663	2.87
505.011	2.9
505.359	2.95
505.707	3
506.055	3.02
506.403	3.07
506.751	3.11
507.098	3.16
507.446	3.21
507.794	3.24
508.141	3.3
508.489	3.35
508.837	3.4
509.184	3.44
509.531	3.5
509.879	3.57
510.226	3.65
510.574	3.69
510.921	3.71
511.268	3.75
511.616	3.81
511.963	3.87
512.31	3.92
512.657	3.98
513.004	4.05
513.351	4.15
513.698	4.22
514.045	4.28
514.392	4.36
514.739	4.44
515.086	4.51
515.432	4.58
515.779	4.66
516.126	4.76
516.473	4.83
516.819	4.92
517.166	5.01
517.512	5.06
517.859	5.13
518.205	5.22
518.552	5.32
518.898	5.42
519.245	5.51
519.591	5.59
519.937	5.67
520.283	5.77
520.629	5.85
520.976	5.96
521.322	6.08
521.668	6.21
522.014	6.34
522.36	6.48
522.706	6.62
523.052	6.79
523.398	6.97
523.743	7.15
524.089	7.31
524.435	7.45
524.781	7.63
525.126	7.8
525.472	7.96
525.817	8.1
526.163	8.19
526.509	8.31
526.854	8.42
527.199	8.54
527.545	8.63
527.89	8.75
528.235	8.87
528.581	8.98
528.926	9.1
529.271	9.21
529.616	9.35
529.961	9.47
530.306	9.6
530.651	9.71
530.996	9.85
531.341	10
531.686	10.15
532.031	10.29
532.376	10.45
532.721	10.62
533.065	10.81
533.41	11
533.755	11.19
534.099	11.39
534.444	11.59
534.788	11.8
535.133	12
535.477	12.22
535.822	12.45
536.166	12.68
536.51	12.93
536.855	13.2
537.199	13.48
537.543	13.76
537.887	14.05
538.231	14.37
538.576	14.69
538.92	15
539.264	15.32
539.608	15.6
539.951	15.85
540.295	16.09
540.639	16.33
540.983	16.58
541.327	16.79
541.671	17.03
542.014	17.25
542.358	17.48
542.701	17.71
543.045	17.93
543.389	18.18
543.732	18.41
544.075	18.64
544.419	18.9
544.762	19.15
545.105	19.4
545.449	19.67
545.792	19.93
546.135	20.25
546.478	20.52
546.821	20.84
547.165	21.14
547.508	21.5
547.851	21.84
548.194	22.18
548.536	22.56
548.879	22.93
549.222	23.28
549.565	23.61
549.908	23.97
550.25	24.32
550.593	24.64
550.936	25.02
551.278	25.39
551.621	25.77
551.963	26.12
552.306	26.49
552.648	26.8
552.991	27.19
553.333	27.45
553.675	27.78
554.017	28.1
554.36	28.43
554.702	28.74
555.044	29.13
555.386	29.41
555.728	29.67
556.07	29.99
556.412	30.3
556.754	30.61
557.096	30.92
557.438	31.26
557.78	31.54
558.121	31.84
558.463	32.12
558.805	32.41
559.147	32.76
559.488	33.03
559.83	33.35
560.171	33.59
560.513	33.89
560.854	34.17
561.196	34.43
561.537	34.71
561.878	34.94
562.22	35.13
562.561	35.4
562.902	35.7
563.243	35.93
563.584	36.18
563.925	36.47
564.266	36.67
564.607	36.94
564.948	37.22
565.289	37.43
565.63	37.67
565.971	37.86
566.312	38.03
566.653	38.28
566.993	38.44
567.334	38.69
567.675	38.92
568.015	39.12
568.356	39.34
568.696	39.55
569.037	39.82
569.377	40.03
569.718	40.2
570.058	40.39
570.398	40.62
570.739	40.83
571.079	41.04
571.419	41.25
571.759	41.41
572.099	41.61
572.439	41.74
572.779	41.89
573.119	42.13
573.459	42.35
573.799	42.5
574.139	42.77
574.479	42.93
574.819	43.12
575.158	43.24
575.498	43.38
575.838	43.57
576.177	43.73
576.517	43.89
576.856	44.12
577.196	44.3
577.535	44.46
577.875	44.66
578.214	44.76
578.553	44.95
578.893	45.15
579.232	45.3
579.571	45.5
579.91	45.69
580.25	45.8
580.589	45.91
580.928	46.01
581.267	46.09
581.606	46.21
581.945	46.37
582.283	46.57
582.622	46.75
582.961	46.87
583.3	46.95
583.639	47.14
583.977	47.26
584.316	47.36
584.654	47.46
584.993	47.56
585.332	47.74
585.67	47.89
586.008	48.01
586.347	48.11
586.685	48.28
587.024	48.39
587.362	48.41
587.7	48.56
588.038	48.75
588.376	48.86
588.715	48.93
589.053	48.95
589.391	48.97
589.729	49.12
590.067	49.2
590.404	49.34
590.742	49.42
591.08	49.48
591.418	49.57
591.756	49.69
592.093	49.85
592.431	49.97
592.769	50.03
593.106	50.05
593.444	50.14
593.781	50.21
594.119	50.24
594.456	50.43
594.793	50.46
595.131	50.45
595.468	50.54
595.805	50.63
596.143	50.68
596.48	50.81
596.817	50.8
597.154	50.85
597.491	50.95
597.828	51.01
598.165	51.05
598.502	51.13
598.839	51.18
599.176	51.2
599.512	51.19
599.849	51.22
600.186	51.27
600.523	51.38
600.859	51.52
601.196	51.65
601.532	51.75
601.869	51.81
602.205	51.93
602.542	51.98
602.878	52.06
603.215	52.18
603.551	52.3
603.887	52.41
604.223	52.51
604.56	52.5
604.896	52.52
605.232	52.62
605.568	52.67
605.904	52.74
606.24	52.78
606.576	52.87
606.912	52.92
607.248	52.99
607.583	53.02
607.919	53.04
608.255	53.17
608.591	53.19
608.926	53.23
609.262	53.31
609.597	53.29
609.933	53.38
610.268	53.37
610.604	53.32
610.939	53.34
611.275	53.32
611.61	53.34
611.945	53.39
612.281	53.44
612.616	53.46
612.951	53.44
613.286	53.48
613.621	53.5
613.956	53.58
614.291	53.67
614.626	53.65
614.961	53.63
615.296	53.49
615.631	53.46
615.966	53.58
616.3	53.63
616.635	53.78
616.97	53.72
617.304	53.82
617.639	53.93
617.973	53.92
618.308	53.89
618.642	54
618.977	54.05
619.311	54.06
619.646	54.18
619.98	54.26
620.314	54.33
620.648	54.35
620.983	54.36
621.317	54.34
621.651	54.53
621.985	54.55
622.319	54.66
622.653	54.68
622.987	54.68
623.321	54.67
623.655	54.65
623.988	54.72
624.322	54.7
624.656	54.59
624.99	54.66
625.323	54.82
625.657	54.84
625.99	54.89
626.324	54.91
626.657	54.87
626.991	54.95
627.324	54.92
627.658	55.06
627.991	55.11
628.324	55.19
628.657	55.12
628.991	55.21
629.324	55.27
629.657	55.39
629.99	55.49
630.323	55.54
630.656	55.66
630.989	55.7
631.322	55.75
631.655	55.84
631.987	55.95
632.32	55.92
632.653	55.89
632.986	55.93
633.318	56.01
633.651	56.03
633.984	55.98
634.316	56.07
634.649	55.95
634.981	55.99
635.313	56.04
635.646	56.13
635.978	56.09
636.31	56.09
636.643	56.02
636.975	55.92
637.307	55.92
637.639	55.87
637.971	55.86
638.303	55.93
638.635	55.94
638.967	55.84
639.299	55.78
639.631	55.78
639.963	55.72
640.295	55.7
640.626	55.83
640.958	55.86
641.29	55.83
641.621	55.87
641.953	55.88
642.285	55.85
642.616	55.77
642.948	55.82
643.279	55.84
643.61	55.92
643.942	56.06
644.273	56.06
644.604	56.08
644.936	56.04
645.267	56.06
645.598	56.22
645.929	56.27
646.26	56.35
646.591	56.34
646.922	56.35
647.253	56.33
647.584	56.13
647.915	56.08
648.245	56.09
648.576	56.21
648.907	56.22
649.238	56.24
649.568	56.31
649.899	56.34
650.229	56.36
650.56	56.33
650.89	56.22
651.221	56.25
651.551	56.17
651.882	56.29
652.212	56.37
652.542	56.36
652.872	56.32
653.203	56.32
653.533	56.43
653.863	56.54
654.193	56.56
654.523	56.68
654.853	56.79
655.183	56.78
655.513	56.73
655.843	56.72
656.172	56.76
656.502	56.71
656.832	56.69
657.162	56.64
657.491	56.6
657.821	56.72
658.15	56.78
658.48	56.92
658.809	56.83
659.139	56.7
659.468	56.63
659.798	56.73
660.127	56.78
660.456	56.78
660.785	56.71
661.115	56.77
661.444	56.87
661.773	56.96
662.102	56.98
662.431	56.97
662.76	57.05
663.089	57.02
663.418	57.09
663.747	57.1
664.076	57.2
664.404	57.35
664.733	57.4
665.062	57.27
665.39	57.06
665.719	57.29
666.048	57.38
666.376	57.54
666.705	57.54
667.033	57.46
667.362	57.46
667.69	57.52
668.018	57.45
668.347	57.44
668.675	57.32
669.003	57.33
669.331	57.29
669.659	57.2
669.987	57.11
670.315	57.17
670.643	57.21
670.971	57.2
671.299	57.04
671.627	56.96
671.955	57.01
672.283	57.22
672.61	56.97
672.938	56.86
673.266	56.78
673.593	56.84
673.921	56.92
674.249	56.8
674.576	56.74
674.904	56.83
675.231	56.76
675.558	56.86
675.886	56.84
676.213	56.81
676.54	56.82
676.867	56.92
677.195	56.85
677.522	56.74
677.849	56.85
678.176	56.95
678.503	56.97
678.83	56.95
679.157	56.86
679.484	57.03
679.81	57.14
680.137	57.12
680.464	57
680.791	56.99
681.117	57.09
681.444	57.26
681.771	57.19
682.097	57.14
682.424	57.08
682.75	57.13
683.077	57.2
683.403	57.24
683.729	57.22
684.056	57.28
684.382	57.43
684.708	57.26
685.034	57.19
685.36	57.13
685.686	57.19
686.012	57.33
686.339	57.29
686.664	57.31
686.99	57.24
687.316	57.23
687.642	57.18
687.968	57.24
688.294	57.13
688.619	57.14
688.945	57.2
689.271	57.3
689.596	57.25
689.922	57.3
690.247	57.25
690.573	57.31
690.898	57.32
691.224	57.3
691.549	57.29
691.874	57.29
692.2	57.27
692.525	57.15
692.85	57.03
693.175	56.86
693.5	56.73
693.825	56.88
694.15	56.89
694.475	57
694.8	56.89
695.125	56.9
695.45	56.84
695.775	56.74
696.099	56.66
696.424	56.76
696.749	56.73
697.073	56.78
697.398	56.9
697.723	56.88
698.047	56.94
698.372	57.04
698.696	57.08
699.02	57.15
699.345	57.29
699.669	57.49
699.993	57.53
700.318	57.51
700.642	57.52
700.966	57.54
701.29	57.47
701.614	57.53
701.938	57.54
702.262	57.66
702.586	57.84
702.91	57.73
703.234	57.62
703.557	57.58
703.881	57.56
704.205	57.47
704.529	57.44
704.852	57.26
705.176	57.18
705.499	57.1
705.823	57
706.146	56.91
706.47	56.76
706.793	56.84
707.117	56.83
707.44	56.76
707.763	56.69
708.086	56.68
708.409	56.81
708.733	56.63
709.056	56.45
709.379	56.45
709.702	56.59
710.025	56.61
710.348	56.4
710.671	56.58
710.993	56.39
711.316	56.35
711.639	56.5
711.962	56.68
712.284	56.68
712.607	56.64
712.93	56.64
713.252	56.66
713.575	56.59
713.897	56.67
714.22	56.65
714.542	56.55
714.864	56.52
715.187	56.31
715.509	56.28
715.831	56.58
716.153	56.65
716.475	56.62
716.798	56.63
717.12	56.85
717.442	56.69
717.764	56.76
718.085	56.79
718.407	56.7
718.729	56.67
719.051	56.72
719.373	56.78
719.695	56.69
720.016	56.64
720.338	56.74
720.659	56.9
720.981	57.01
721.302	57.31
721.624	57.62
721.945	57.71
722.267	57.66
722.588	57.25
722.909	57.18
723.231	57.16
723.552	57.21
723.873	57.27
724.194	57.25
724.515	57.42
724.836	57.46
725.157	57.25
725.478	57.02
725.799	56.95
726.12	56.75
726.441	56.78
726.762	56.81
727.083	56.78
727.403	56.89
727.724	56.72
728.045	56.46
728.365	56.23
728.686	56.33
729.006	56.52
729.327	56.67
729.647	56.68
729.967	56.88
730.288	57.01
730.608	56.99
730.928	56.89
731.249	56.81
731.569	56.77
731.889	56.99
732.209	57.06
732.529	57.24
732.849	57.51
733.169	57.64
733.489	57.53
733.809	57.38
734.129	57.25
734.448	57.19
734.768	57.21
735.088	57.29
735.408	57.2
735.727	57.23
736.047	57.36
736.366	57.16
736.686	57.07
737.005	56.87
737.325	56.8
737.644	56.85
737.963	56.65
738.283	56.69
738.602	56.47
738.921	56.35
739.24	56.41
739.56	56.4
739.879	56.26
740.198	56.23
740.517	56.26
740.836	55.98
741.155	56.32
741.473	56.37
741.792	56.43
742.111	56.48
742.43	56.35
742.748	56.11
743.067	56.26
743.386	56.04
743.704	56.26
744.023	56.34
744.341	56.43
744.66	56.18
744.978	56.26
745.297	56.6
745.615	56.77
745.933	56.37
746.252	56.26
746.57	56.1
746.888	56.18
747.206	56.45
747.524	56.52
747.842	56.21
748.16	56.4
748.478	56.34
748.796	56.29
749.114	56.28
749.432	56.61
749.749	56.46
750.067	56.54
750.385	56.3
750.703	56
751.02	55.81
751.338	56.45
751.655	56.34
751.973	56.16
752.29	56
752.608	56.12
752.925	56.18
753.242	56.47
753.56	56.45
753.877	56.33
754.194	56.67
754.511	56.88
754.828	56.99
755.145	56.92
755.462	56.98
755.779	57.33
756.096	57.03
756.413	57.26
756.73	57.48
757.047	57.56
757.364	57.73
757.68	58.13
757.997	58.04
758.314	58.01
758.63	58.21
758.947	58.46
759.264	58.45
759.58	58.63
759.896	58.43
760.213	58.64
760.529	58.53
760.846	58.51
761.162	58.47
761.478	58.48
761.794	58.55
762.11	58.6
762.426	58.47
762.743	58.74
763.059	58.66
763.375	58.59
763.69	58.44
764.006	58.75
764.322	58.65
764.638	58.64
764.954	58.66
765.27	58.57
765.585	58.31
765.901	58.56
766.216	58.25
766.532	58
766.848	57.91
767.163	57.89
767.478	57.84
767.794	57.7
768.109	57.43
768.424	57.24
768.74	57.35
769.055	57.36
769.37	57.25
769.685	57.41
770	57.64
770.315	57.69
770.63	57.65
770.945	57.67
771.26	57.54
771.575	57.58
771.89	57.54
772.205	57.78
772.52	57.44
772.834	57.74
773.149	58.52
773.464	58.2
773.778	58.62
774.093	58.25
774.407	58.44
774.722	58.59
775.036	58.65
775.351	58.33
775.665	58.11
775.979	57.67
776.293	57.46
776.608	57
776.922	56.77
777.236	56.34
777.55	56.4
777.864	56.26
778.178	56.17
778.492	56.34
778.806	56.1
779.12	56.15
779.434	56.35
779.747	55.55
780.061	55.78
780.375	55.42
780.689	55.81
781.002	55.56
781.316	55.25
781.629	55.5
781.943	55.77
782.256	55.77
782.57	55.67
782.883	55.45
783.196	55.34
783.51	55.82
783.823	55.31
784.136	54.92
784.449	55.07
784.762	55.17
785.075	55.25
785.388	55.57
785.701	55.39
786.014	55.06
786.327	55
786.64	55
786.953	54.71
787.266	54.51
787.578	54.17
787.891	54.06
788.204	53.49
788.516	53.14
788.829	53.36
789.141	53.23
789.454	53.72
789.766	54.22
790.079	53.92
790.391	54.34
790.703	54.84
791.016	55.09
791.328	55.25
791.64	55.01
791.952	54.81
792.264	55.25
792.576	54.92
792.888	55.31
793.2	55.11
793.512	55.52
793.824	55.41
794.136	55.47
794.448	55.71
794.76	56.29
795.071	56.86
795.383	56.53
795.695	56.93
796.006	57
796.318	56.73
796.629	56.82
796.941	56.68
797.252	56.39
797.564	56.27
797.875	55.98
798.186	55.65
798.497	55.55
798.809	55.31
799.12	56.25
799.431	56.78
799.742	57.43
800.053	57.06
800.364	56.87
800.675	57.19
800.986	57.1
801.297	57.01
801.608	55.95
801.918	56.13
802.229	56.12
802.54	55.35
802.851	55.52
803.161	55.71
803.472	55.86
803.782	55.42
804.093	55.21
804.403	55.47
804.714	55.83
805.024	55.9
805.334	55.32
805.645	54.72
805.955	54.32
806.265	53.75
806.575	54.08
806.885	54.58
807.195	54.47
807.505	54.76
807.815	54.72
808.125	54.74
808.435	54.88
808.745	55.02
809.055	55.8
809.365	55.51
809.674	55.39
809.984	55.99
810.294	56.56
810.603	56.94
810.913	56.51
811.222	55.78
811.532	56.58
811.841	57.19
812.151	57.69
812.46	57.47
812.769	57.34
813.079	57.01
813.388	57.34
813.697	57.84
814.006	58.13
814.315	57.86
814.624	58.35
814.933	58.05
815.242	57.95
815.551	57.46
815.86	57.5
816.169	57.58
816.478	56.81
816.786	56.43
817.095	56.34
817.404	56.81
817.712	57.42
818.021	57.25
818.33	56.85
818.638	56.61
818.947	57.03
819.255	57.1
819.563	57.39
819.872	57.28
820.18	57.45
820.488	57.19
820.796	57.39
821.105	57.22
821.413	57.47
821.721	57.39
822.029	57.59
822.337	57.6
822.645	57.51
822.953	57.6
823.26	57.78
823.568	57.74
823.876	57.62
824.184	57.61
824.491	57.47
824.799	57.51
825.107	57.74
825.414	57.83
825.722	57.99
826.029	57.93
826.337	57.88
826.644	57.73
826.951	57.99
827.259	57.91
827.566	58.17
827.873	58.25
828.18	58.41
828.488	58.23
828.795	58.33
829.102	58.46
829.409	58.71
829.716	58.63
830.023	58.86
830.329	58.78
830.636	58.6
830.943	58.78
831.25	58.69
831.557	57.99
831.863	57.52
832.17	57.28
832.476	57.64
832.783	57.75
833.089	58.21
833.396	57.62
833.702	57.61
834.009	57.35
834.315	56.87
834.621	56.75
834.928	56.7
835.234	56.56
835.54	56.56
835.846	55.99
836.152	55.8
836.458	55.56
836.764	55.58
837.07	55.75
837.376	55.91
837.682	56.15
837.988	56.24
838.293	56.63
838.599	56.92
838.905	56.4
839.211	56.36
839.516	55.68
839.822	55.77
840.127	56.23
840.433	57.15
840.738	56.94
841.044	56.39
841.349	56.8
841.654	56.22
841.959	55.29
842.265	55.58
842.57	56.29
842.875	55.49
843.18	55.2
843.485	54.82
843.79	53.96
844.095	53.98
844.4	54.27
844.705	53.64
845.01	52.43
845.315	52.42
845.619	52.02
845.924	51.65
846.229	51.87
846.533	51.19
846.838	50.67
847.142	50.26
847.447	51.16
847.751	49.11
848.056	49.77
848.36	52.81
848.664	51.82
848.969	49.71
849.273	50.5
849.577	53.14
849.881	53.02
850.185	52.56
850.489	52.84
850.794	51
851.097	49.4
851.401	49.81
851.705	51.98
852.009	52.15
852.313	52.83
852.617	51.01
852.92	50.29
853.224	49.56
853.528	50.1
853.831	49.21
854.135	51.26
854.438	50.89
854.742	47.62
855.045	48.9
855.349	50.31
855.652	50.17
855.955	50.09
856.259	49.51
856.562	49.06
856.865	49.5
857.168	50.78
857.471	54.11
857.774	54.95
858.077	52.75
858.38	52.65
858.683	51.11
858.986	52.68
859.289	54.73
859.592	53.83
859.894	54.68
860.197	55.43
860.5	54.93
860.802	56.04
861.105	57.33
861.407	55.5
861.71	56.39
862.012	55.31
862.315	53.22
862.617	55.32
862.919	56.76
863.222	55.9
863.524	57.25
863.826	55.35
864.128	54.93
864.43	54.26
864.732	55.25
865.034	55.83
865.336	53.91
865.638	52.39
865.94	50.94
866.242	49.24
866.544	49.91
866.846	49.1
867.147	48.87
867.449	49.37
867.751	48.95
868.052	49.98
868.354	50.83
868.655	49.87
868.957	48.81
869.258	49.49
869.56	50.52
869.861	49.59
870.162	49.77
870.463	48.43
870.765	48.52
871.066	46.6
871.367	46.18
871.668	48.89
871.969	50.04
872.27	52.44
872.571	53.08
872.872	51.99
873.173	49.16
873.473	48.9
873.774	50.21
874.075	51.7
874.376	49.22
874.676	50.68
874.977	51.19
875.277	52.39
875.578	49.95
875.878	48.39
876.179	47.45
876.479	47.83
876.78	48.77
877.08	49.17
877.38	50.47
877.68	51.62
877.981	49.73
878.281	47.86
878.581	45.57
