Data from BU57649_Reflection_00010.txt Node
Date: Tue Nov 19 10:55:48 EST 2019
User: vgr7
Spectrometer: USB2G7710
Scans to average: 3
Trigger mode: 4
Integration Time (sec): 2.000000E-2
Electric dark correction enabled: true
Boxcar width: 10
XAxis mode: Wavelengths
Number of Pixels in Spectrum: 2048
>>>>>Begin Spectral Data<<<<<
177.721	39.21
178.105	38.48
178.488	15.19
178.871	8.16
179.254	26.62
179.636	49.8
180.019	61
180.402	266.67
180.785	-217.65
181.168	-1025
181.55	255.84
181.933	117.75
182.316	210.43
182.698	-164.44
183.081	-30.75
183.463	-1.33
183.846	-35.26
184.228	-11.2
184.611	8.49
184.993	7.06
185.376	9.45
185.758	10.37
186.14	11.53
186.522	6.22
186.904	0.13
187.287	2.32
187.669	2.51
188.051	-3.33
188.433	-10.75
188.815	-12.06
189.197	-13.33
189.579	-21.72
189.961	-14.63
190.342	-15.82
190.724	-17.63
191.106	-17.52
191.488	-23.27
191.869	-13.23
192.251	-14.06
192.633	-16.27
193.014	-17.41
193.396	-25.86
193.777	-26.47
194.159	-26.78
194.54	-22.91
194.922	-19.31
195.303	-21.59
195.684	-12.04
196.065	7.34
196.447	3.64
196.828	13.67
197.209	14.88
197.59	15.58
197.971	10.82
198.352	3.3
198.733	-0.74
199.114	-22.6
199.495	-23.81
199.876	-21.84
200.257	-32.21
200.638	-24.8
201.018	-14.46
201.399	-15.89
201.78	-18.22
202.16	-17.68
202.541	-20.21
202.922	-21.63
203.302	-24.18
203.683	-30.07
204.063	-41.27
204.444	-39.1
204.824	-39.05
205.204	-39.26
205.585	-39.41
205.965	-37.24
206.345	-31.16
206.725	-30.17
207.106	-14.84
207.486	-13.53
207.866	-15.14
208.246	-5.66
208.626	-19.45
209.006	-23.83
209.386	-19.51
209.766	-20.77
210.145	-20.23
210.525	-23.16
210.905	-19.24
211.285	-18.04
211.664	-16.01
212.044	-13.43
212.424	-1.74
212.803	-5.57
213.183	-8.09
213.562	-5.73
213.942	-9.44
214.321	-9.07
214.701	-13.35
215.08	-23.19
215.459	-17.63
215.838	-18.09
216.218	-23.52
216.597	-9.04
216.976	-16.21
217.355	-12.66
217.734	-11.15
218.113	-6.92
218.492	-11.95
218.871	-13.34
219.25	-1.74
219.629	-5.11
220.008	-1.14
220.387	-15.51
220.766	-1.58
221.144	-2.26
221.523	-5.18
221.902	-10.43
222.28	-5.24
222.659	8.97
223.037	6.28
223.416	7.96
223.794	10.97
224.173	7.6
224.551	-2.78
224.929	-8.15
225.308	-8.51
225.686	-5.88
226.064	-10.12
226.442	-8.37
226.821	-5.75
227.199	-8.44
227.577	-6.44
227.955	-6.56
228.333	-6.43
228.711	-8.71
229.089	-6.1
229.467	-7.48
229.845	-6.74
230.222	-4.62
230.6	-7.17
230.978	-6.25
231.356	-7.1
231.733	-7.86
232.111	-8.27
232.488	-3.7
232.866	1.71
233.243	0.12
233.621	1.39
233.998	0.84
234.376	1.75
234.753	2.17
235.13	0.77
235.508	2.22
235.885	3.89
236.262	2.26
236.639	0.69
237.016	0.41
237.393	2.5
237.77	3.02
238.147	2.23
238.524	2.37
238.901	2.95
239.278	3.11
239.655	3.55
240.032	4.57
240.409	4.12
240.785	3.6
241.162	3.38
241.539	2.8
241.915	3
242.292	3.51
242.668	3.54
243.045	4.1
243.421	3.93
243.798	3.96
244.174	4.32
244.551	4.81
244.927	4.85
245.303	4.83
245.679	4.92
246.056	4.95
246.432	5.13
246.808	4.93
247.184	5.11
247.56	4.76
247.936	4.85
248.312	4.91
248.688	4.85
249.064	5.02
249.44	5.13
249.815	5.12
250.191	4.85
250.567	4.65
250.943	4.44
251.318	4.59
251.694	4.32
252.069	4.3
252.445	4.12
252.82	3.94
253.196	3.52
253.571	3.56
253.947	3.29
254.322	3.17
254.697	2.95
255.073	2.65
255.448	2.88
255.823	2.68
256.198	2.46
256.573	2.47
256.948	2.65
257.323	2.65
257.698	2.65
258.073	2.65
258.448	2.6
258.823	2.5
259.198	2.54
259.573	2.48
259.948	2.54
260.322	2.46
260.697	2.65
261.072	2.66
261.446	2.6
261.821	2.58
262.195	2.55
262.57	2.75
262.944	2.76
263.319	2.72
263.693	2.6
264.067	2.63
264.442	2.61
264.816	2.45
265.19	2.35
265.564	2.4
265.938	2.4
266.313	2.58
266.687	2.81
267.061	2.75
267.435	2.97
267.809	2.88
268.183	3.08
268.556	3.09
268.93	3.07
269.304	3.21
269.678	3.37
270.051	3.45
270.425	3.38
270.799	3.31
271.172	3.35
271.546	3.52
271.919	3.53
272.293	3.66
272.666	3.76
273.04	3.84
273.413	3.78
273.787	3.85
274.16	3.78
274.533	3.97
274.906	3.91
275.279	3.79
275.653	3.87
276.026	3.92
276.399	3.84
276.772	4.18
277.145	4.01
277.518	3.97
277.891	3.86
278.263	4.01
278.636	4.09
279.009	4.06
279.382	4.01
279.755	3.99
280.127	3.89
280.5	3.89
280.872	3.77
281.245	3.77
281.617	3.74
281.99	3.75
282.362	3.6
282.735	3.59
283.107	3.61
283.479	3.63
283.852	3.48
284.224	3.56
284.596	3.33
284.968	3.31
285.34	3.38
285.713	3.55
286.085	3.41
286.457	3.4
286.829	3.45
287.201	3.43
287.572	3.57
287.944	3.55
288.316	3.47
288.688	3.64
289.06	3.62
289.431	3.71
289.803	3.82
290.175	3.82
290.546	3.9
290.918	3.99
291.289	3.93
291.661	3.96
292.032	3.84
292.403	3.86
292.775	4.03
293.146	4.04
293.517	4.07
293.889	4.12
294.26	4.15
294.631	4.1
295.002	4.12
295.373	3.99
295.744	4.19
296.115	4.23
296.486	4.25
296.857	4.36
297.228	4.3
297.599	4.25
297.97	4.31
298.34	4.25
298.711	4.34
299.082	4.38
299.452	4.49
299.823	4.6
300.194	4.63
300.564	4.48
300.935	4.43
301.305	4.31
301.676	4.38
302.046	4.51
302.416	4.56
302.787	4.59
303.157	4.84
303.527	4.77
303.897	4.95
304.267	5.06
304.637	5.02
305.008	5.08
305.378	5.13
305.748	5.15
306.117	5.26
306.487	5.28
306.857	5.32
307.227	5.29
307.597	5.29
307.967	5.42
308.336	5.53
308.706	5.67
309.076	5.85
309.445	5.84
309.815	5.83
310.184	5.91
310.554	6.02
310.923	5.94
311.293	6.09
311.662	6.17
312.031	6.16
312.401	6.22
312.77	6.28
313.139	6.34
313.508	6.41
313.877	6.51
314.246	6.58
314.616	6.7
314.985	6.77
315.353	6.84
315.722	6.92
316.091	7.13
316.46	7.18
316.829	7.2
317.198	7.35
317.567	7.47
317.935	7.62
318.304	7.82
318.672	8
319.041	7.92
319.41	7.72
319.778	7.82
320.147	7.91
320.515	7.92
320.883	7.95
321.252	7.97
321.62	8.07
321.988	8.13
322.357	8.12
322.725	8.2
323.093	8.32
323.461	8.41
323.829	8.25
324.197	8.22
324.565	8.36
324.933	8.26
325.301	8.18
325.669	8.18
326.037	8.09
326.405	8.02
326.772	7.98
327.14	8.12
327.508	8.08
327.875	8.11
328.243	8.18
328.61	8.19
328.978	8.16
329.346	8.09
329.713	8.06
330.08	8.17
330.448	8.28
330.815	8.25
331.182	8.26
331.55	8.39
331.917	8.38
332.284	8.35
332.651	8.44
333.018	8.43
333.385	8.42
333.752	8.35
334.119	8.37
334.486	8.48
334.853	8.37
335.22	8.29
335.587	8.2
335.954	8.14
336.32	8.22
336.687	8.25
337.054	8.25
337.42	8.3
337.787	8.25
338.153	8.18
338.52	8.24
338.886	8.35
339.253	8.26
339.619	8.24
339.986	8.15
340.352	8.15
340.718	8.26
341.084	8.4
341.451	8.46
341.817	8.53
342.183	8.42
342.549	8.56
342.915	8.55
343.281	8.57
343.647	8.63
344.013	8.67
344.379	8.66
344.745	8.65
345.11	8.65
345.476	8.67
345.842	8.64
346.208	8.68
346.573	8.55
346.939	8.63
347.304	8.76
347.67	8.72
348.035	8.72
348.401	8.75
348.766	8.68
349.132	8.73
349.497	8.7
349.862	8.69
350.228	8.7
350.593	8.77
350.958	8.9
351.323	8.85
351.688	8.84
352.053	8.83
352.418	8.9
352.783	8.81
353.148	8.81
353.513	8.74
353.878	8.67
354.243	8.63
354.608	8.59
354.972	8.54
355.337	8.55
355.702	8.59
356.066	8.53
356.431	8.51
356.795	8.36
357.16	8.31
357.524	8.33
357.889	8.27
358.253	8.18
358.618	8.11
358.982	8.09
359.346	8.03
359.71	8.02
360.075	7.92
360.439	7.94
360.803	7.95
361.167	7.9
361.531	7.82
361.895	7.82
362.259	7.84
362.623	7.79
362.987	7.73
363.351	7.62
363.714	7.61
364.078	7.54
364.442	7.57
364.806	7.58
365.169	7.49
365.533	7.45
365.896	7.51
366.26	7.4
366.623	7.3
366.987	7.23
367.35	7.19
367.714	7.17
368.077	7.11
368.44	7.04
368.803	7.01
369.167	6.96
369.53	6.91
369.893	6.9
370.256	6.83
370.619	6.74
370.982	6.65
371.345	6.67
371.708	6.56
372.071	6.45
372.434	6.39
372.797	6.43
373.159	6.38
373.522	6.36
373.885	6.37
374.247	6.39
374.61	6.31
374.973	6.24
375.335	6.17
375.698	6.09
376.06	6.05
376.423	5.98
376.785	5.99
377.147	5.93
377.51	5.81
377.872	5.81
378.234	5.8
378.596	5.77
378.958	5.65
379.321	5.57
379.683	5.53
380.045	5.5
380.407	5.37
380.769	5.25
381.13	5.17
381.492	5.1
381.854	5.06
382.216	5.05
382.578	5.03
382.939	4.99
383.301	4.93
383.663	4.84
384.024	4.82
384.386	4.8
384.747	4.76
385.109	4.72
385.47	4.68
385.832	4.67
386.193	4.63
386.554	4.54
386.916	4.6
387.277	4.58
387.638	4.47
387.999	4.46
388.36	4.48
388.721	4.43
389.082	4.44
389.443	4.42
389.804	4.4
390.165	4.36
390.526	4.37
390.887	4.34
391.248	4.33
391.609	4.32
391.969	4.27
392.33	4.23
392.691	4.2
393.051	4.16
393.412	4.12
393.772	4.13
394.133	4.12
394.493	4.07
394.854	4.03
395.214	4.04
395.574	4.01
395.935	3.94
396.295	3.92
396.655	3.87
397.015	3.8
397.376	3.79
397.736	3.75
398.096	3.71
398.456	3.69
398.816	3.68
399.176	3.62
399.535	3.62
399.895	3.58
400.255	3.57
400.615	3.55
400.975	3.54
401.334	3.5
401.694	3.48
402.054	3.47
402.413	3.45
402.773	3.46
403.132	3.44
403.492	3.46
403.851	3.43
404.211	3.45
404.57	3.46
404.929	3.4
405.288	3.41
405.648	3.36
406.007	3.37
406.366	3.33
406.725	3.37
407.084	3.37
407.443	3.39
407.802	3.38
408.161	3.39
408.52	3.39
408.879	3.37
409.238	3.38
409.596	3.36
409.955	3.35
410.314	3.32
410.673	3.35
411.031	3.34
411.39	3.33
411.748	3.32
412.107	3.28
412.465	3.28
412.824	3.25
413.182	3.29
413.54	3.29
413.899	3.26
414.257	3.26
414.615	3.22
414.974	3.21
415.332	3.2
415.69	3.17
416.048	3.16
416.406	3.16
416.764	3.15
417.122	3.15
417.48	3.14
417.838	3.13
418.195	3.08
418.553	3.07
418.911	3.07
419.269	3.04
419.626	3.04
419.984	3.04
420.342	3.03
420.699	3.01
421.057	2.99
421.414	3
421.772	2.98
422.129	2.96
422.486	2.96
422.844	2.94
423.201	2.93
423.558	2.92
423.915	2.92
424.273	2.91
424.63	2.91
424.987	2.9
425.344	2.89
425.701	2.89
426.058	2.88
426.415	2.86
426.772	2.86
427.128	2.86
427.485	2.85
427.842	2.84
428.199	2.84
428.555	2.81
428.912	2.8
429.269	2.8
429.625	2.8
429.982	2.79
430.338	2.79
430.695	2.78
431.051	2.79
431.407	2.79
431.764	2.78
432.12	2.79
432.476	2.79
432.832	2.8
433.189	2.8
433.545	2.81
433.901	2.81
434.257	2.81
434.613	2.82
434.969	2.8
435.325	2.81
435.681	2.81
436.036	2.83
436.392	2.84
436.748	2.84
437.104	2.84
437.459	2.84
437.815	2.85
438.171	2.86
438.526	2.82
438.882	2.82
439.237	2.83
439.593	2.82
439.948	2.82
440.304	2.83
440.659	2.83
441.014	2.81
441.369	2.8
441.725	2.81
442.08	2.81
442.435	2.82
442.79	2.83
443.145	2.83
443.5	2.83
443.855	2.81
444.21	2.82
444.565	2.81
444.92	2.81
445.275	2.8
445.629	2.81
445.984	2.83
446.339	2.83
446.693	2.83
447.048	2.81
447.403	2.8
447.757	2.8
448.112	2.79
448.466	2.81
448.82	2.82
449.175	2.81
449.529	2.8
449.883	2.79
450.238	2.76
450.592	2.75
450.946	2.74
451.3	2.74
451.654	2.74
452.008	2.76
452.362	2.74
452.716	2.74
453.07	2.73
453.424	2.71
453.778	2.72
454.132	2.72
454.486	2.73
454.839	2.75
455.193	2.74
455.547	2.75
455.9	2.76
456.254	2.76
456.607	2.76
456.961	2.77
457.314	2.76
457.668	2.77
458.021	2.79
458.375	2.79
458.728	2.8
459.081	2.78
459.434	2.77
459.787	2.79
460.141	2.79
460.494	2.81
460.847	2.82
461.2	2.81
461.553	2.81
461.906	2.81
462.259	2.8
462.611	2.82
462.964	2.82
463.317	2.82
463.67	2.82
464.022	2.83
464.375	2.83
464.728	2.84
465.08	2.85
465.433	2.85
465.785	2.86
466.138	2.86
466.49	2.88
466.843	2.89
467.195	2.89
467.547	2.9
467.899	2.89
468.252	2.9
468.604	2.9
468.956	2.91
469.308	2.9
469.66	2.92
470.012	2.93
470.364	2.93
470.716	2.93
471.068	2.94
471.42	2.97
471.772	3
472.123	3.01
472.475	3.02
472.827	3
473.178	3.01
473.53	3.01
473.882	3.02
474.233	3
474.585	3.01
474.936	3
475.288	2.98
475.639	2.98
475.99	2.98
476.342	2.96
476.693	2.97
477.044	2.95
477.395	2.95
477.746	2.93
478.097	2.93
478.448	2.93
478.8	2.91
479.15	2.88
479.501	2.88
479.852	2.87
480.203	2.87
480.554	2.87
480.905	2.86
481.255	2.85
481.606	2.86
481.957	2.86
482.307	2.86
482.658	2.87
483.009	2.88
483.359	2.89
483.709	2.91
484.06	2.91
484.41	2.9
484.761	2.91
485.111	2.92
485.461	2.91
485.811	2.91
486.162	2.91
486.512	2.91
486.862	2.91
487.212	2.92
487.562	2.9
487.912	2.9
488.262	2.91
488.612	2.91
488.961	2.92
489.311	2.93
489.661	2.94
490.011	2.92
490.36	2.91
490.71	2.91
491.06	2.9
491.409	2.9
491.759	2.91
492.108	2.91
492.458	2.93
492.807	2.94
493.157	2.94
493.506	2.95
493.855	2.95
494.204	2.96
494.554	2.97
494.903	3
495.252	3.02
495.601	3.03
495.95	3.05
496.299	3.04
496.648	3.04
496.997	3.05
497.346	3.09
497.695	3.11
498.043	3.12
498.392	3.14
498.741	3.16
499.09	3.17
499.438	3.19
499.787	3.18
500.135	3.2
500.484	3.24
500.832	3.25
501.181	3.3
501.529	3.35
501.878	3.38
502.226	3.44
502.574	3.48
502.923	3.49
503.271	3.54
503.619	3.6
503.967	3.64
504.315	3.7
504.663	3.75
505.011	3.79
505.359	3.84
505.707	3.88
506.055	3.93
506.403	3.99
506.751	4.04
507.098	4.11
507.446	4.16
507.794	4.2
508.141	4.27
508.489	4.33
508.837	4.37
509.184	4.45
509.531	4.51
509.879	4.54
510.226	4.62
510.574	4.66
510.921	4.73
511.268	4.81
511.616	4.88
511.963	4.97
512.31	5.05
512.657	5.13
513.004	5.2
513.351	5.29
513.698	5.38
514.045	5.46
514.392	5.55
514.739	5.64
515.086	5.74
515.432	5.84
515.779	5.9
516.126	6.02
516.473	6.08
516.819	6.16
517.166	6.28
517.512	6.37
517.859	6.47
518.205	6.53
518.552	6.6
518.898	6.66
519.245	6.72
519.591	6.82
519.937	6.9
520.283	7
520.629	7.07
520.976	7.16
521.322	7.26
521.668	7.34
522.014	7.45
522.36	7.57
522.706	7.7
523.052	7.82
523.398	7.93
523.743	8.07
524.089	8.2
524.435	8.33
524.781	8.46
525.126	8.57
525.472	8.68
525.817	8.79
526.163	8.88
526.509	8.97
526.854	9.05
527.199	9.14
527.545	9.22
527.89	9.3
528.235	9.37
528.581	9.45
528.926	9.53
529.271	9.61
529.616	9.69
529.961	9.75
530.306	9.85
530.651	9.91
530.996	10.01
531.341	10.12
531.686	10.2
532.031	10.28
532.376	10.38
532.721	10.46
533.065	10.57
533.41	10.68
533.755	10.8
534.099	10.89
534.444	11.01
534.788	11.11
535.133	11.22
535.477	11.35
535.822	11.48
536.166	11.59
536.51	11.76
536.855	11.91
537.199	12.06
537.543	12.22
537.887	12.41
538.231	12.56
538.576	12.72
538.92	12.88
539.264	13.05
539.608	13.19
539.951	13.34
540.295	13.46
540.639	13.6
540.983	13.74
541.327	13.89
541.671	14.01
542.014	14.16
542.358	14.29
542.701	14.42
543.045	14.57
543.389	14.73
543.732	14.85
544.075	15
544.419	15.17
544.762	15.32
545.105	15.48
545.449	15.65
545.792	15.8
546.135	16
546.478	16.19
546.821	16.42
547.165	16.67
547.508	16.9
547.851	17.1
548.194	17.3
548.536	17.48
548.879	17.71
549.222	17.92
549.565	18.17
549.908	18.43
550.25	18.65
550.593	18.9
550.936	19.14
551.278	19.4
551.621	19.61
551.963	19.85
552.306	20.11
552.648	20.36
552.991	20.64
553.333	20.85
553.675	21.1
554.017	21.37
554.36	21.6
554.702	21.82
555.044	22.06
555.386	22.31
555.728	22.59
556.07	22.86
556.412	23.12
556.754	23.35
557.096	23.57
557.438	23.83
557.78	24.09
558.121	24.39
558.463	24.65
558.805	25
559.147	25.27
559.488	25.53
559.83	25.78
560.171	26.03
560.513	26.32
560.854	26.59
561.196	26.86
561.537	27.15
561.878	27.42
562.22	27.75
562.561	28.07
562.902	28.31
563.243	28.59
563.584	28.89
563.925	29.2
564.266	29.5
564.607	29.78
564.948	30.06
565.289	30.26
565.63	30.51
565.971	30.73
566.312	30.99
566.653	31.23
566.993	31.5
567.334	31.77
567.675	32.09
568.015	32.32
568.356	32.58
568.696	32.85
569.037	33.12
569.377	33.38
569.718	33.67
570.058	34
570.398	34.24
570.739	34.47
571.079	34.7
571.419	34.92
571.759	35.16
572.099	35.39
572.439	35.67
572.779	35.96
573.119	36.19
573.459	36.45
573.799	36.69
574.139	36.91
574.479	37.11
574.819	37.27
575.158	37.54
575.498	37.72
575.838	37.95
576.177	38.21
576.517	38.43
576.856	38.59
577.196	38.81
577.535	39.08
577.875	39.38
578.214	39.59
578.553	39.85
578.893	40.1
579.232	40.34
579.571	40.58
579.91	40.77
580.25	40.97
580.589	41.13
580.928	41.43
581.267	41.71
581.606	41.96
581.945	42.12
582.283	42.26
582.622	42.58
582.961	42.76
583.3	42.93
583.639	43.06
583.977	43.3
584.316	43.55
584.654	43.78
584.993	43.85
585.332	44.14
585.67	44.35
586.008	44.5
586.347	44.67
586.685	44.85
587.024	44.98
587.362	45.19
587.7	45.4
588.038	45.54
588.376	45.65
588.715	45.84
589.053	46.09
589.391	46.28
589.729	46.41
590.067	46.58
590.404	46.72
590.742	46.93
591.08	47.17
591.418	47.26
591.756	47.41
592.093	47.66
592.431	47.78
592.769	47.9
593.106	48.09
593.444	48.29
593.781	48.42
594.119	48.6
594.456	48.77
594.793	48.91
595.131	49.06
595.468	49.19
595.805	49.27
596.143	49.38
596.48	49.52
596.817	49.6
597.154	49.72
597.491	49.8
597.828	49.9
598.165	49.99
598.502	50.13
598.839	50.29
599.176	50.39
599.512	50.53
599.849	50.68
600.186	50.79
600.523	50.84
600.859	50.93
601.196	51.06
601.532	51.13
601.869	51.23
602.205	51.34
602.542	51.48
602.878	51.58
603.215	51.68
603.551	51.82
603.887	51.92
604.223	51.99
604.56	52.14
604.896	52.19
605.232	52.25
605.568	52.36
605.904	52.38
606.24	52.45
606.576	52.52
606.912	52.62
607.248	52.74
607.583	52.82
607.919	52.88
608.255	52.95
608.591	53.13
608.926	53.22
609.262	53.27
609.597	53.31
609.933	53.41
610.268	53.46
610.604	53.47
610.939	53.51
611.275	53.58
611.61	53.66
611.945	53.75
612.281	53.76
612.616	53.78
612.951	53.87
613.286	53.99
613.621	54.03
613.956	54.08
614.291	54.12
614.626	54.29
614.961	54.47
615.296	54.6
615.631	54.56
615.966	54.6
616.3	54.59
616.635	54.73
616.97	54.77
617.304	54.93
617.639	54.91
617.973	55.04
618.308	55.19
618.642	55.27
618.977	55.37
619.311	55.48
619.646	55.51
619.98	55.51
620.314	55.53
620.648	55.66
620.983	55.77
621.317	55.78
621.651	55.79
621.985	55.83
622.319	55.83
622.653	55.88
622.987	56
623.321	56.06
623.655	56.1
623.988	56.18
624.322	56.11
624.656	56.19
624.99	56.27
625.323	56.25
625.657	56.25
625.99	56.31
626.324	56.3
626.657	56.34
626.991	56.39
627.324	56.51
627.658	56.49
627.991	56.47
628.324	56.51
628.657	56.52
628.991	56.57
629.324	56.6
629.657	56.62
629.99	56.58
630.323	56.68
630.656	56.69
630.989	56.74
631.322	56.81
631.655	56.93
631.987	56.85
632.32	56.83
632.653	56.9
632.986	56.94
633.318	57.09
633.651	57.11
633.984	57.18
634.316	57.15
634.649	57.21
634.981	57.19
635.313	57.32
635.646	57.49
635.978	57.48
636.31	57.52
636.643	57.63
636.975	57.77
637.307	57.79
637.639	57.81
637.971	57.83
638.303	57.92
638.635	57.97
638.967	58.04
639.299	58.16
639.631	58.17
639.963	58.16
640.295	58.07
640.626	58.07
640.958	58.05
641.29	58.09
641.621	58.12
641.953	58.24
642.285	58.12
642.616	57.96
642.948	57.99
643.279	58.01
643.61	58.06
643.942	58.03
644.273	58.04
644.604	58.01
644.936	58.07
645.267	58.1
645.598	58.01
645.929	58.03
646.26	57.92
646.591	58
646.922	58
647.253	58.01
647.584	58.09
647.915	58.13
648.245	58.09
648.576	58.07
648.907	58.04
649.238	58.1
649.568	58.2
649.899	58.21
650.229	58.13
650.56	58.1
650.89	58.18
651.221	58.24
651.551	58.29
651.882	58.31
652.212	58.26
652.542	58.44
652.872	58.47
653.203	58.6
653.533	58.55
653.863	58.66
654.193	58.7
654.523	58.76
654.853	58.85
655.183	58.96
655.513	58.9
655.843	58.88
656.172	58.99
656.502	59.06
656.832	59.06
657.162	59.23
657.491	59.39
657.821	59.27
658.15	59.25
658.48	59.33
658.809	59.35
659.139	59.46
659.468	59.4
659.798	59.38
660.127	59.38
660.456	59.48
660.785	59.39
661.115	59.55
661.444	59.63
661.773	59.62
662.102	59.65
662.431	59.85
662.76	59.92
663.089	59.9
663.418	59.84
663.747	60.02
664.076	59.87
664.404	59.86
664.733	60.02
665.062	60.09
665.39	60.15
665.719	60.26
666.048	60.34
666.376	60.32
666.705	60.47
667.033	60.57
667.362	60.5
667.69	60.6
668.018	60.48
668.347	60.34
668.675	60.31
669.003	60.36
669.331	60.27
669.659	60.31
669.987	60.28
670.315	60.39
670.643	60.19
670.971	60.36
671.299	60.31
671.627	60.35
671.955	60.31
672.283	60.33
672.61	60.23
672.938	60.03
673.266	60.02
673.593	59.91
673.921	59.97
674.249	60.11
674.576	60.04
674.904	59.93
675.231	60.09
675.558	60.25
675.886	60.13
676.213	60.13
676.54	60.24
676.867	60.3
677.195	60.31
677.522	60.35
677.849	60.28
678.176	60.23
678.503	60.22
678.83	60.24
679.157	60.16
679.484	60.19
679.81	60.33
680.137	60.3
680.464	60.41
680.791	60.33
681.117	60.27
681.444	60.38
681.771	60.58
682.097	60.5
682.424	60.38
682.75	60.52
683.077	60.62
683.403	60.53
683.729	60.62
684.056	60.52
684.382	60.56
684.708	60.61
685.034	60.77
685.36	60.74
685.686	60.85
686.012	60.91
686.339	60.87
686.664	60.84
686.99	60.95
687.316	60.84
687.642	60.84
687.968	60.96
688.294	60.84
688.619	60.69
688.945	60.69
689.271	60.73
689.596	60.7
689.922	60.73
690.247	60.71
690.573	60.5
690.898	60.52
691.224	60.4
691.549	60.37
691.874	60.3
692.2	60.11
692.525	59.96
692.85	59.95
693.175	59.89
693.5	59.89
693.825	59.92
694.15	59.73
694.475	59.83
694.8	59.71
695.125	59.69
695.45	59.79
695.775	59.94
696.099	60.03
696.424	59.9
696.749	59.83
697.073	59.76
697.398	59.83
697.723	59.88
698.047	59.96
698.372	60.08
698.696	60.12
699.02	60.28
699.345	60.48
699.669	60.67
699.993	60.78
700.318	60.75
700.642	60.78
700.966	61.04
701.29	61.06
701.614	60.99
701.938	61.13
702.262	61.13
702.586	61.1
702.91	61.09
703.234	61.27
703.557	61.37
703.881	61.59
704.205	61.67
704.529	61.72
704.852	61.75
705.176	61.59
705.499	61.49
705.823	61.5
706.146	61.56
706.47	61.44
706.793	61.42
707.117	61.58
707.44	61.47
707.763	61.36
708.086	61.27
708.409	61.48
708.733	61.42
709.056	61.46
709.379	61.39
709.702	61.31
710.025	61.32
710.348	61.39
710.671	61.45
710.993	61.4
711.316	61.42
711.639	61.47
711.962	61.38
712.284	61.43
712.607	61.42
712.93	61.25
713.252	61.16
713.575	61.26
713.897	61.05
714.22	61.04
714.542	61.21
714.864	61.16
715.187	61.15
715.509	61.12
715.831	61.21
716.153	61.1
716.475	61.12
716.798	60.93
717.12	60.62
717.442	60.56
717.764	60.62
718.085	60.47
718.407	60.52
718.729	60.72
719.051	60.95
719.373	60.75
719.695	60.64
720.016	60.78
720.338	60.78
720.659	61
720.981	60.9
721.302	60.76
721.624	60.97
721.945	60.78
722.267	60.76
722.588	60.61
722.909	60.76
723.231	60.92
723.552	61.01
723.873	61.19
724.194	61.15
724.515	61.17
724.836	61.29
725.157	61.44
725.478	61.29
725.799	60.97
726.12	61.23
726.441	61.09
726.762	60.77
727.083	60.49
727.403	60.41
727.724	60.54
728.045	60.65
728.365	60.48
728.686	60.38
729.006	60.59
729.327	60.67
729.647	60.74
729.967	60.62
730.288	60.71
730.608	60.91
730.928	60.71
731.249	60.82
731.569	60.94
731.889	60.85
732.209	61.02
732.529	61.14
732.849	61.04
733.169	61.16
733.489	61.39
733.809	61.4
734.129	61.47
734.448	61.7
734.768	61.56
735.088	61.63
735.408	61.79
735.727	61.59
736.047	61.43
736.366	61.28
736.686	61.44
737.005	61.59
737.325	61.39
737.644	61.6
737.963	61.44
738.283	61.5
738.602	61.6
738.921	61.66
739.24	61.68
739.56	61.58
739.879	61.59
740.198	61.31
740.517	61.57
740.836	61.51
741.155	61.58
741.473	61.59
741.792	61.34
742.111	61.48
742.43	61.78
742.748	61.88
743.067	61.92
743.386	61.6
743.704	61.45
744.023	61.67
744.341	61.92
744.66	62.09
744.978	62.06
745.297	61.85
745.615	61.62
745.933	61.72
746.252	61.9
746.57	62.19
746.888	62.46
747.206	62.55
747.524	62.58
747.842	62.41
748.16	62.59
748.478	62.78
748.796	62.46
749.114	62.54
749.432	62.72
749.749	62.6
750.067	62.8
750.385	62.98
750.703	62.84
751.02	62.7
751.338	62.47
751.655	62.21
751.973	62.29
752.29	62.17
752.608	61.77
752.925	61.62
753.242	61.27
753.56	61.3
753.877	60.85
754.194	60.86
754.511	60.56
754.828	60.3
755.145	60.33
755.462	60.34
755.779	59.98
756.096	59.9
756.413	59.91
756.73	60
757.047	59.84
757.364	59.71
757.68	59.73
757.997	59.87
758.314	59.71
758.63	59.77
758.947	60.23
759.264	60.59
759.58	60.8
759.896	60.89
760.213	61.11
760.529	61.17
760.846	61.27
761.162	61.51
761.478	61.65
761.794	61.9
762.11	61.92
762.426	61.89
762.743	62.02
763.059	62.1
763.375	61.95
763.69	62.18
764.006	62.38
764.322	62.21
764.638	62.42
764.954	62.61
765.27	62.72
765.585	62.45
765.901	62.05
766.216	62.13
766.532	62.15
766.848	61.82
767.163	61.83
767.478	61.75
767.794	61.79
768.109	61.97
768.424	61.78
768.74	61.9
769.055	62.01
769.37	61.67
769.685	61.74
770	61.43
770.315	61.24
770.63	61.34
770.945	61.38
771.26	60.79
771.575	60.84
771.89	61
772.205	61.39
772.52	61.86
772.834	61.75
773.149	61.8
773.464	62.03
773.778	62.13
774.093	62.09
774.407	62.06
774.722	62.08
775.036	61.88
775.351	62.15
775.665	61.55
775.979	61.71
776.293	61.47
776.608	62.1
776.922	61.93
777.236	61.38
777.55	61.43
777.864	61.9
778.178	61.99
778.492	61.58
778.806	61.37
779.12	61.39
779.434	61.09
779.747	60.9
780.061	60.88
780.375	60.98
780.689	60.94
781.002	60.56
781.316	60.34
781.629	60.61
781.943	60.84
782.256	61.75
782.57	61.71
782.883	62.18
783.196	61.96
783.51	62.2
783.823	62.28
784.136	62.11
784.449	62.08
784.762	62.12
785.075	62.24
785.388	62.28
785.701	62.04
786.014	62.13
786.327	62.5
786.64	62.39
786.953	62.33
787.266	62.51
787.578	63.02
787.891	62.79
788.204	62.66
788.516	62.06
788.829	61.68
789.141	61.55
789.454	61.74
789.766	61.85
790.079	60.99
790.391	61.42
790.703	61.47
791.016	61.53
791.328	61.26
791.64	61.22
791.952	61.27
792.264	61.69
792.576	62.06
792.888	62.26
793.2	62.27
793.512	62.47
793.824	62.19
794.136	62.38
794.448	62.12
794.76	62.5
795.071	62.64
795.383	63.31
795.695	63.6
796.006	63.2
796.318	63.24
796.629	63.67
796.941	63.51
797.252	63.97
797.564	63.66
797.875	63.38
798.186	63.33
798.497	63.09
798.809	63.07
799.12	62.7
799.431	62.98
799.742	62.94
800.053	62.85
800.364	63
800.675	62.86
800.986	63.02
801.297	62.31
801.608	63.06
801.918	62.86
802.229	62.68
802.54	62.37
802.851	62.07
803.161	62.15
803.472	62.27
803.782	62.33
804.093	62.22
804.403	62.15
804.714	62.11
805.024	62.5
805.334	62.15
805.645	62.38
805.955	61.55
806.265	62.29
806.575	61.75
806.885	61.61
807.195	61.55
807.505	61.82
807.815	62.34
808.125	61.9
808.435	61.83
808.745	62.15
809.055	62.73
809.365	62.55
809.674	62.04
809.984	61.64
810.294	61.36
810.603	61.39
810.913	62.1
811.222	61.89
811.532	61.09
811.841	61.61
812.151	61.42
812.46	61.98
812.769	61.28
813.079	61.82
813.388	61.98
813.697	61.03
814.006	61.3
814.315	61.18
814.624	60.29
814.933	59.97
815.242	59.83
815.551	59.1
815.86	58.8
816.169	60.16
816.478	59.72
816.786	59.73
817.095	60.41
817.404	60.01
817.712	60.72
818.021	61.15
818.33	60.96
818.638	60.84
818.947	61.2
819.255	61.17
819.563	61.28
819.872	61.42
820.18	61.63
820.488	61.92
820.796	61.92
821.105	62.23
821.413	62.45
821.721	62.6
822.029	62.79
822.337	63
822.645	62.84
822.953	63.02
823.26	63.08
823.568	63.04
823.876	63.06
824.184	62.86
824.491	63.14
824.799	63.08
825.107	63.09
825.414	62.97
825.722	62.95
826.029	63.2
826.337	63.2
826.644	63.32
826.951	63.15
827.259	63.11
827.566	63.23
827.873	63.11
828.18	63.02
828.488	63.21
828.795	63.11
829.102	63.53
829.409	63.38
829.716	63.38
830.023	63.54
830.329	63.76
830.636	63.71
830.943	63.18
831.25	63.49
831.557	63.82
831.863	63.66
832.17	63.76
832.476	63.69
832.783	63.78
833.089	64.13
833.396	64.26
833.702	64.19
834.009	63.95
834.315	63.58
834.621	63.58
834.928	62.84
835.234	63.4
835.54	62.2
835.846	62.68
836.152	62.69
836.458	62.16
836.764	61.94
837.07	62.55
837.376	62.36
837.682	61.99
837.988	61.79
838.293	61.74
838.599	61.5
838.905	60.61
839.211	60.52
839.516	60.11
839.822	59.82
840.127	59.88
840.433	60.11
840.738	60.8
841.044	60.99
841.349	61.33
841.654	60.88
841.959	61.69
842.265	60.54
842.57	60.01
842.875	61.81
843.18	62.37
843.485	61.9
843.79	60.9
844.095	60.79
844.4	61.26
844.705	62.04
845.01	62.64
845.315	63.44
845.619	63.24
845.924	62.89
846.229	62.98
846.533	63
846.838	62.4
847.142	61.62
847.447	60.91
847.751	61.42
848.056	59.44
848.36	59.47
848.664	61.1
848.969	61.59
849.273	59.35
849.577	58.14
849.881	58.6
850.185	60.02
850.489	61.34
850.794	59.06
851.097	59.75
851.401	60.15
851.705	59.74
852.009	59.9
852.313	59.93
852.617	60.42
852.92	61.88
853.224	63.66
853.528	63.75
853.831	63.73
854.135	65.02
854.438	65.42
854.742	65.59
855.045	64.51
855.349	63.86
855.652	62.47
855.955	62.31
856.259	60.8
856.562	61.33
856.865	59.86
857.168	61.98
857.471	61.94
857.774	60.12
858.077	60.58
858.38	60.86
858.683	59.84
858.986	58.96
859.289	58.36
859.592	55.8
859.894	56.15
860.197	56.08
860.5	54.22
860.802	54.48
861.105	54.08
861.407	53.45
861.71	53.51
862.012	54.92
862.315	55.45
862.617	55.94
862.919	57.19
863.222	56.49
863.524	56.81
863.826	55.97
864.128	58.25
864.43	59.23
864.732	59.08
865.034	62.06
865.336	61.46
865.638	61.6
865.94	61.78
866.242	62.35
866.544	63.48
866.846	65.64
867.147	67.66
867.449	69.62
867.751	71.96
868.052	71.92
868.354	71.34
868.655	73.63
868.957	72.31
869.258	70.85
869.56	74.04
869.861	72.05
870.162	71.52
870.463	70.28
870.765	68.78
871.066	65.94
871.367	63.9
871.668	65
871.969	63.75
872.27	64.07
872.571	62.41
872.872	61.33
873.173	58.67
873.473	57.52
873.774	56.92
874.075	56.22
874.376	56.09
874.676	54.54
874.977	53
875.277	55.53
875.578	54.9
875.878	52.59
876.179	53.36
876.479	52.3
876.78	52.14
877.08	51.81
877.38	53.83
877.68	54.14
877.981	53.7
878.281	54.35
878.581	53.79
