Data from BU57649_Reflection_00005.txt Node
Date: Tue Nov 19 10:55:37 EST 2019
User: vgr7
Spectrometer: USB2G7710
Scans to average: 3
Trigger mode: 4
Integration Time (sec): 2.000000E-2
Electric dark correction enabled: true
Boxcar width: 10
XAxis mode: Wavelengths
Number of Pixels in Spectrum: 2048
>>>>>Begin Spectral Data<<<<<
177.721	31.99
178.105	39.45
178.488	56.84
178.871	60.41
179.254	40.29
179.636	32.05
180.019	32.29
180.402	400
180.785	-858.82
181.168	-4525
181.55	106.49
181.933	26.04
182.316	-381.6
182.698	147.11
183.081	115.74
183.463	63.66
183.846	62.58
184.228	64.14
184.611	36.2
184.993	37.36
185.376	21.49
185.758	24.86
186.14	22.19
186.522	31.71
186.904	30.87
187.287	26.67
187.669	26.42
188.051	27.39
188.433	32.27
188.815	30.93
189.197	41.01
189.579	46.32
189.961	39.85
190.342	25.56
190.724	29.59
191.106	26.83
191.488	27.42
191.869	41.92
192.251	35.3
192.633	55.39
193.014	52.51
193.396	63.62
193.777	92.87
194.159	93.43
194.54	96.83
194.922	104.17
195.303	90.37
195.684	84.87
196.065	85.93
196.447	61.4
196.828	35.58
197.209	4.75
197.59	-4.48
197.971	13.84
198.352	13.05
198.733	8.82
199.114	9.48
199.495	25.92
199.876	6.13
200.257	10.94
200.638	6.56
201.018	5.9
201.399	6.04
201.78	-4.43
202.16	-6.84
202.541	-9.53
202.922	-5.49
203.302	-3.63
203.683	-1.4
204.063	-1.35
204.444	0.43
204.824	7.17
205.204	16.27
205.585	17.43
205.965	14.06
206.345	14.01
206.725	17.15
207.106	15.66
207.486	9.58
207.866	10.17
208.246	15.59
208.626	18.44
209.006	22.94
209.386	28.57
209.766	32.77
210.145	40.86
210.525	36.89
210.905	31.41
211.285	32.57
211.664	37.13
212.044	38.27
212.424	46.28
212.803	41.3
213.183	36.95
213.562	30.49
213.942	35.03
214.321	35.41
214.701	35.25
215.08	39.95
215.459	41.78
215.838	43.6
216.218	34.36
216.597	38.87
216.976	27.64
217.355	17.61
217.734	18.65
218.113	18.6
218.492	8.76
218.871	15.94
219.25	17.84
219.629	11.57
220.008	13.34
220.387	10.47
220.766	19.58
221.144	21.27
221.523	26.82
221.902	18.98
222.28	25.32
222.659	20.39
223.037	19.95
223.416	23.73
223.794	24.26
224.173	23.12
224.551	18.72
224.929	15.56
225.308	17.66
225.686	12.8
226.064	13.07
226.442	19.86
226.821	18.52
227.199	14.95
227.577	12.1
227.955	13
228.333	10.18
228.711	8.07
229.089	8.71
229.467	8.97
229.845	10.42
230.222	8.05
230.6	7.73
230.978	9.52
231.356	7.07
231.733	8.9
232.111	7.66
232.488	4.74
232.866	9.66
233.243	8.96
233.621	9.47
233.998	6.92
234.376	7.56
234.753	6.86
235.13	8.21
235.508	9.25
235.885	7.34
236.262	7.12
236.639	7.47
237.016	6.37
237.393	6.21
237.77	4.67
238.147	4.73
238.524	5.79
238.901	3.72
239.278	3.47
239.655	3.48
240.032	3.93
240.409	4.13
240.785	2.99
241.162	2.97
241.539	2.92
241.915	3.38
242.292	3.13
242.668	3.32
243.045	3.14
243.421	3.16
243.798	3.61
244.174	3.57
244.551	3.47
244.927	3.53
245.303	3.41
245.679	3.64
246.056	3.66
246.432	3.73
246.808	3.72
247.184	3.93
247.56	3.57
247.936	3.56
248.312	3.66
248.688	3.73
249.064	3.79
249.44	3.9
249.815	3.95
250.191	3.82
250.567	3.83
250.943	3.91
251.318	3.65
251.694	3.25
252.069	3.32
252.445	3.43
252.82	3.81
253.196	4.15
253.571	4.19
253.947	4.52
254.322	4.35
254.697	4.47
255.073	4.41
255.448	4.76
255.823	4.94
256.198	4.78
256.573	4.64
256.948	4.89
257.323	4.67
257.698	4.6
258.073	4.37
258.448	4.28
258.823	4.17
259.198	4.14
259.573	4.22
259.948	4.3
260.322	4.17
260.697	4.08
261.072	3.89
261.446	3.81
261.821	3.66
262.195	3.45
262.57	3.52
262.944	3.51
263.319	3.69
263.693	3.48
264.067	3.53
264.442	3.62
264.816	3.41
265.19	3.41
265.564	3.31
265.938	3.51
266.313	3.42
266.687	3.47
267.061	3.65
267.435	3.87
267.809	3.77
268.183	3.89
268.556	3.73
268.93	3.92
269.304	3.94
269.678	4.02
270.051	4.15
270.425	4.19
270.799	4.08
271.172	3.82
271.546	3.97
271.919	3.95
272.293	3.99
272.666	4.01
273.04	4.02
273.413	4.03
273.787	4
274.16	4.09
274.533	4.09
274.906	4.17
275.279	3.96
275.653	3.85
276.026	3.86
276.399	3.84
276.772	3.67
277.145	3.58
277.518	3.53
277.891	3.57
278.263	3.52
278.636	3.65
279.009	3.73
279.382	3.54
279.755	3.61
280.127	3.52
280.5	3.33
280.872	3.2
281.245	3.21
281.617	3.32
281.99	3.36
282.362	3.32
282.735	3.16
283.107	3.3
283.479	3.47
283.852	3.45
284.224	3.47
284.596	3.42
284.968	3.51
285.34	3.47
285.713	3.54
286.085	3.59
286.457	3.62
286.829	3.56
287.201	3.62
287.572	3.59
287.944	3.67
288.316	3.87
288.688	4.03
289.06	4.07
289.431	4.1
289.803	4.1
290.175	4.23
290.546	4.35
290.918	4.37
291.289	4.26
291.661	4.28
292.032	4.42
292.403	4.53
292.775	4.48
293.146	4.57
293.517	4.53
293.889	4.55
294.26	4.34
294.631	4.37
295.002	4.35
295.373	4.23
295.744	4.2
296.115	4.19
296.486	4.16
296.857	4.19
297.228	4
297.599	3.95
297.97	3.88
298.34	3.81
298.711	3.79
299.082	3.85
299.452	3.78
299.823	3.7
300.194	3.84
300.564	3.76
300.935	3.69
301.305	3.6
301.676	3.38
302.046	3.49
302.416	3.48
302.787	3.5
303.157	3.58
303.527	3.64
303.897	3.47
304.267	3.45
304.637	3.3
305.008	3.33
305.378	3.37
305.748	3.35
306.117	3.4
306.487	3.34
306.857	3.31
307.227	3.45
307.597	3.35
307.967	3.16
308.336	3.37
308.706	3.37
309.076	3.39
309.445	3.54
309.815	3.42
310.184	3.39
310.554	3.34
310.923	3.27
311.293	3.24
311.662	3.22
312.031	3.28
312.401	3.35
312.77	3.42
313.139	3.42
313.508	3.43
313.877	3.28
314.246	3.34
314.616	3.34
314.985	3.15
315.353	3.19
315.722	3.21
316.091	3.14
316.46	3.06
316.829	3.2
317.198	3.04
317.567	3.35
317.935	3.3
318.304	3.46
318.672	3.45
319.041	3.34
319.41	3.49
319.778	3.43
320.147	3.26
320.515	3.25
320.883	3.32
321.252	3.42
321.62	3.48
321.988	3.49
322.357	3.51
322.725	3.62
323.093	3.56
323.461	3.51
323.829	3.51
324.197	3.59
324.565	3.49
324.933	3.7
325.301	3.47
325.669	3.41
326.037	3.38
326.405	3.59
326.772	3.69
327.14	3.63
327.508	3.7
327.875	3.73
328.243	3.72
328.61	3.62
328.978	3.46
329.346	3.48
329.713	3.48
330.08	3.57
330.448	3.58
330.815	3.63
331.182	3.68
331.55	3.73
331.917	3.73
332.284	3.75
332.651	3.66
333.018	3.71
333.385	3.93
333.752	3.8
334.119	3.77
334.486	3.61
334.853	3.54
335.22	3.41
335.587	3.49
335.954	3.5
336.32	3.61
336.687	3.64
337.054	3.68
337.42	3.59
337.787	3.37
338.153	3.36
338.52	3.34
338.886	3.24
339.253	3.15
339.619	3.12
339.986	2.99
340.352	3
340.718	3.06
341.084	2.91
341.451	2.94
341.817	2.78
342.183	2.82
342.549	2.87
342.915	2.85
343.281	2.9
343.647	2.9
344.013	2.79
344.379	2.73
344.745	2.79
345.11	2.8
345.476	2.91
345.842	2.97
346.208	2.97
346.573	3.04
346.939	3.07
347.304	3.12
347.67	3.21
348.035	3.2
348.401	3.14
348.766	3.19
349.132	3.27
349.497	3.29
349.862	3.31
350.228	3.3
350.593	3.37
350.958	3.41
351.323	3.42
351.688	3.46
352.053	3.53
352.418	3.46
352.783	3.46
353.148	3.39
353.513	3.31
353.878	3.35
354.243	3.3
354.608	3.27
354.972	3.21
355.337	3.21
355.702	3.22
356.066	3.26
356.431	3.24
356.795	3.18
357.16	3.16
357.524	3.18
357.889	3.19
358.253	3.22
358.618	3.14
358.982	3.14
359.346	3.16
359.71	3.11
360.075	3.13
360.439	3.16
360.803	3.22
361.167	3.19
361.531	3.15
361.895	3.2
362.259	3.26
362.623	3.31
362.987	3.26
363.351	3.26
363.714	3.15
364.078	3.17
364.442	3.2
364.806	3.28
365.169	3.23
365.533	3.24
365.896	3.27
366.26	3.25
366.623	3.24
366.987	3.18
367.35	3.19
367.714	3.19
368.077	3.2
368.44	3.17
368.803	3.19
369.167	3.13
369.53	3.14
369.893	3.13
370.256	3.07
370.619	3.05
370.982	3
371.345	3.08
371.708	3.06
372.071	2.96
372.434	2.9
372.797	2.95
373.159	2.86
373.522	2.79
373.885	2.83
374.247	2.89
374.61	2.92
374.973	2.98
375.335	2.99
375.698	2.94
376.06	2.93
376.423	2.96
376.785	3.1
377.147	3.05
377.51	2.98
377.872	3.04
378.234	3.04
378.596	3.08
378.958	3.11
379.321	3.12
379.683	3.21
380.045	3.21
380.407	3.19
380.769	3.28
381.13	3.27
381.492	3.27
381.854	3.23
382.216	3.26
382.578	3.24
382.939	3.25
383.301	3.29
383.663	3.27
384.024	3.26
384.386	3.21
384.747	3.2
385.109	3.23
385.47	3.24
385.832	3.28
386.193	3.27
386.554	3.21
386.916	3.22
387.277	3.17
387.638	3.21
387.999	3.21
388.36	3.19
388.721	3.22
389.082	3.21
389.443	3.19
389.804	3.17
390.165	3.16
390.526	3.16
390.887	3.1
391.248	3.1
391.609	3.12
391.969	3.12
392.33	3.12
392.691	3.09
393.051	3.09
393.412	3.1
393.772	3.11
394.133	3.11
394.493	3.12
394.854	3.14
395.214	3.12
395.574	3.1
395.935	3.11
396.295	3.07
396.655	3.07
397.015	3.08
397.376	3.08
397.736	3.07
398.096	3.06
398.456	3.07
398.816	3.09
399.176	3.01
399.535	3.01
399.895	3.03
400.255	3.01
400.615	2.97
400.975	2.96
401.334	2.92
401.694	2.95
402.054	2.92
402.413	2.89
402.773	2.9
403.132	2.91
403.492	2.88
403.851	2.88
404.211	2.88
404.57	2.9
404.929	2.9
405.288	2.93
405.648	2.93
406.007	2.93
406.366	2.92
406.725	2.95
407.084	2.96
407.443	2.96
407.802	2.98
408.161	3
408.52	3.01
408.879	3.07
409.238	3.06
409.596	3.08
409.955	3.09
410.314	3.08
410.673	3.09
411.031	3.11
411.39	3.14
411.748	3.16
412.107	3.15
412.465	3.12
412.824	3.09
413.182	3.07
413.54	3.06
413.899	3.06
414.257	3.07
414.615	3.06
414.974	3.07
415.332	3.08
415.69	3.05
416.048	3.01
416.406	2.97
416.764	2.98
417.122	2.96
417.48	2.96
417.838	2.94
418.195	2.94
418.553	2.93
418.911	2.92
419.269	2.91
419.626	2.9
419.984	2.93
420.342	2.93
420.699	2.93
421.057	2.94
421.414	2.95
421.772	2.95
422.129	2.95
422.486	2.94
422.844	2.93
423.201	2.93
423.558	2.94
423.915	2.96
424.273	2.94
424.63	2.95
424.987	2.96
425.344	2.96
425.701	2.97
426.058	2.96
426.415	2.96
426.772	2.96
427.128	2.97
427.485	2.94
427.842	2.96
428.199	2.96
428.555	2.93
428.912	2.89
429.269	2.9
429.625	2.88
429.982	2.9
430.338	2.91
430.695	2.92
431.051	2.91
431.407	2.9
431.764	2.89
432.12	2.91
432.476	2.92
432.832	2.93
433.189	2.92
433.545	2.92
433.901	2.93
434.257	2.92
434.613	2.91
434.969	2.92
435.325	2.91
435.681	2.9
436.036	2.92
436.392	2.94
436.748	2.92
437.104	2.92
437.459	2.91
437.815	2.92
438.171	2.92
438.526	2.92
438.882	2.92
439.237	2.92
439.593	2.9
439.948	2.89
440.304	2.89
440.659	2.89
441.014	2.89
441.369	2.88
441.725	2.89
442.08	2.88
442.435	2.88
442.79	2.88
443.145	2.89
443.5	2.89
443.855	2.9
444.21	2.9
444.565	2.91
444.92	2.9
445.275	2.9
445.629	2.9
445.984	2.9
446.339	2.92
446.693	2.93
447.048	2.94
447.403	2.94
447.757	2.94
448.112	2.96
448.466	2.97
448.82	2.97
449.175	2.96
449.529	2.96
449.883	2.96
450.238	2.96
450.592	2.96
450.946	2.96
451.3	2.96
451.654	2.95
452.008	2.97
452.362	2.97
452.716	2.97
453.07	2.97
453.424	2.97
453.778	2.94
454.132	2.93
454.486	2.93
454.839	2.91
455.193	2.92
455.547	2.9
455.9	2.91
456.254	2.92
456.607	2.93
456.961	2.93
457.314	2.92
457.668	2.91
458.021	2.92
458.375	2.92
458.728	2.91
459.081	2.93
459.434	2.92
459.787	2.93
460.141	2.93
460.494	2.93
460.847	2.94
461.2	2.96
461.553	2.95
461.906	2.94
462.259	2.94
462.611	2.94
462.964	2.95
463.317	2.93
463.67	2.94
464.022	2.93
464.375	2.94
464.728	2.96
465.08	2.95
465.433	2.94
465.785	2.96
466.138	2.95
466.49	2.95
466.843	2.97
467.195	2.99
467.547	2.97
467.899	2.94
468.252	2.95
468.604	2.95
468.956	2.97
469.308	2.97
469.66	2.99
470.012	3
470.364	3
470.716	3.02
471.068	3.04
471.42	3.05
471.772	3.06
472.123	3.05
472.475	3.09
472.827	3.1
473.178	3.1
473.53	3.11
473.882	3.1
474.233	3.08
474.585	3.09
474.936	3.1
475.288	3.11
475.639	3.11
475.99	3.1
476.342	3.1
476.693	3.09
477.044	3.09
477.395	3.08
477.746	3.08
478.097	3.06
478.448	3.02
478.8	3.01
479.15	3
479.501	3.02
479.852	3
480.203	3
480.554	3.01
480.905	3
481.255	3.01
481.606	3.01
481.957	3.02
482.307	3.02
482.658	3.03
483.009	3.02
483.359	3.03
483.709	3.03
484.06	3.03
484.41	3.03
484.761	3.04
485.111	3.05
485.461	3.06
485.811	3.07
486.162	3.06
486.512	3.07
486.862	3.07
487.212	3.07
487.562	3.07
487.912	3.06
488.262	3.06
488.612	3.06
488.961	3.06
489.311	3.05
489.661	3.05
490.011	3.04
490.36	3.04
490.71	3.04
491.06	3.03
491.409	3.02
491.759	3.02
492.108	3.01
492.458	3
492.807	2.99
493.157	2.99
493.506	2.99
493.855	2.99
494.204	2.97
494.554	2.96
494.903	2.96
495.252	2.96
495.601	2.96
495.95	2.97
496.299	2.96
496.648	2.94
496.997	2.95
497.346	2.94
497.695	2.95
498.043	2.93
498.392	2.96
498.741	2.96
499.09	2.96
499.438	2.97
499.787	2.96
500.135	2.95
500.484	2.96
500.832	2.98
501.181	2.98
501.529	2.99
501.878	3.03
502.226	3.04
502.574	3.04
502.923	3.04
503.271	3.04
503.619	3.05
503.967	3.05
504.315	3.04
504.663	3.05
505.011	3.06
505.359	3.07
505.707	3.07
506.055	3.08
506.403	3.08
506.751	3.08
507.098	3.11
507.446	3.11
507.794	3.1
508.141	3.12
508.489	3.12
508.837	3.12
509.184	3.12
509.531	3.12
509.879	3.14
510.226	3.18
510.574	3.19
510.921	3.17
511.268	3.2
511.616	3.23
511.963	3.25
512.31	3.25
512.657	3.26
513.004	3.25
513.351	3.25
513.698	3.27
514.045	3.3
514.392	3.28
514.739	3.29
515.086	3.3
515.432	3.29
515.779	3.3
516.126	3.33
516.473	3.33
516.819	3.34
517.166	3.33
517.512	3.31
517.859	3.32
518.205	3.33
518.552	3.33
518.898	3.33
519.245	3.34
519.591	3.35
519.937	3.36
520.283	3.39
520.629	3.39
520.976	3.37
521.322	3.37
521.668	3.38
522.014	3.4
522.36	3.39
522.706	3.39
523.052	3.39
523.398	3.37
523.743	3.39
524.089	3.41
524.435	3.4
524.781	3.42
525.126	3.42
525.472	3.44
525.817	3.44
526.163	3.44
526.509	3.44
526.854	3.45
527.199	3.45
527.545	3.43
527.89	3.44
528.235	3.45
528.581	3.45
528.926	3.46
529.271	3.45
529.616	3.46
529.961	3.46
530.306	3.47
530.651	3.47
530.996	3.46
531.341	3.45
531.686	3.46
532.031	3.45
532.376	3.44
532.721	3.44
533.065	3.44
533.41	3.44
533.755	3.44
534.099	3.42
534.444	3.42
534.788	3.42
535.133	3.43
535.477	3.42
535.822	3.42
536.166	3.41
536.51	3.41
536.855	3.41
537.199	3.41
537.543	3.42
537.887	3.42
538.231	3.43
538.576	3.44
538.92	3.44
539.264	3.46
539.608	3.46
539.951	3.45
540.295	3.45
540.639	3.46
540.983	3.46
541.327	3.48
541.671	3.49
542.014	3.5
542.358	3.5
542.701	3.51
543.045	3.51
543.389	3.52
543.732	3.51
544.075	3.51
544.419	3.52
544.762	3.52
545.105	3.53
545.449	3.55
545.792	3.55
546.135	3.55
546.478	3.55
546.821	3.56
547.165	3.56
547.508	3.59
547.851	3.56
548.194	3.57
548.536	3.56
548.879	3.57
549.222	3.54
549.565	3.53
549.908	3.52
550.25	3.5
550.593	3.5
550.936	3.51
551.278	3.5
551.621	3.52
551.963	3.51
552.306	3.48
552.648	3.46
552.991	3.47
553.333	3.48
553.675	3.47
554.017	3.45
554.36	3.48
554.702	3.45
555.044	3.48
555.386	3.46
555.728	3.47
556.07	3.48
556.412	3.49
556.754	3.48
557.096	3.5
557.438	3.51
557.78	3.49
558.121	3.5
558.463	3.52
558.805	3.5
559.147	3.51
559.488	3.52
559.83	3.5
560.171	3.49
560.513	3.5
560.854	3.51
561.196	3.54
561.537	3.52
561.878	3.54
562.22	3.56
562.561	3.56
562.902	3.56
563.243	3.57
563.584	3.58
563.925	3.6
564.266	3.62
564.607	3.65
564.948	3.65
565.289	3.66
565.63	3.66
565.971	3.66
566.312	3.63
566.653	3.61
566.993	3.62
567.334	3.6
567.675	3.58
568.015	3.57
568.356	3.55
568.696	3.54
569.037	3.55
569.377	3.51
569.718	3.52
570.058	3.53
570.398	3.51
570.739	3.5
571.079	3.5
571.419	3.49
571.759	3.48
572.099	3.46
572.439	3.44
572.779	3.44
573.119	3.45
573.459	3.46
573.799	3.46
574.139	3.46
574.479	3.47
574.819	3.47
575.158	3.48
575.498	3.5
575.838	3.49
576.177	3.46
576.517	3.49
576.856	3.48
577.196	3.48
577.535	3.47
577.875	3.45
578.214	3.47
578.553	3.45
578.893	3.47
579.232	3.48
579.571	3.5
579.91	3.51
580.25	3.5
580.589	3.5
580.928	3.53
581.267	3.57
581.606	3.61
581.945	3.57
582.283	3.57
582.622	3.6
582.961	3.62
583.3	3.66
583.639	3.65
583.977	3.69
584.316	3.71
584.654	3.7
584.993	3.7
585.332	3.7
585.67	3.69
586.008	3.67
586.347	3.68
586.685	3.69
587.024	3.68
587.362	3.66
587.7	3.7
588.038	3.7
588.376	3.71
588.715	3.69
589.053	3.69
589.391	3.68
589.729	3.67
590.067	3.66
590.404	3.64
590.742	3.61
591.08	3.59
591.418	3.6
591.756	3.6
592.093	3.62
592.431	3.63
592.769	3.62
593.106	3.62
593.444	3.63
593.781	3.64
594.119	3.65
594.456	3.65
594.793	3.61
595.131	3.6
595.468	3.61
595.805	3.64
596.143	3.68
596.48	3.66
596.817	3.66
597.154	3.69
597.491	3.68
597.828	3.7
598.165	3.69
598.502	3.67
598.839	3.66
599.176	3.68
599.512	3.7
599.849	3.72
600.186	3.73
600.523	3.71
600.859	3.71
601.196	3.71
601.532	3.71
601.869	3.75
602.205	3.75
602.542	3.73
602.878	3.72
603.215	3.69
603.551	3.69
603.887	3.7
604.223	3.64
604.56	3.66
604.896	3.68
605.232	3.67
605.568	3.67
605.904	3.68
606.24	3.69
606.576	3.66
606.912	3.66
607.248	3.66
607.583	3.7
607.919	3.64
608.255	3.66
608.591	3.68
608.926	3.64
609.262	3.63
609.597	3.62
609.933	3.64
610.268	3.64
610.604	3.64
610.939	3.62
611.275	3.69
611.61	3.68
611.945	3.66
612.281	3.69
612.616	3.69
612.951	3.71
613.286	3.7
613.621	3.74
613.956	3.78
614.291	3.77
614.626	3.76
614.961	3.84
615.296	3.89
615.631	3.88
615.966	3.93
616.3	3.97
616.635	3.97
616.97	3.91
617.304	3.96
617.639	4
617.973	3.99
618.308	3.97
618.642	3.98
618.977	3.99
619.311	3.98
619.646	4.01
619.98	3.99
620.314	3.99
620.648	3.95
620.983	3.96
621.317	3.96
621.651	3.96
621.985	3.95
622.319	3.88
622.653	3.88
622.987	3.84
623.321	3.83
623.655	3.86
623.988	3.89
624.322	3.89
624.656	3.89
624.99	3.94
625.323	3.91
625.657	3.9
625.99	3.91
626.324	3.9
626.657	3.89
626.991	3.89
627.324	3.86
627.658	3.85
627.991	3.83
628.324	3.82
628.657	3.84
628.991	3.81
629.324	3.81
629.657	3.82
629.99	3.77
630.323	3.8
630.656	3.72
630.989	3.73
631.322	3.69
631.655	3.64
631.987	3.58
632.32	3.59
632.653	3.62
632.986	3.61
633.318	3.61
633.651	3.61
633.984	3.58
634.316	3.63
634.649	3.65
634.981	3.64
635.313	3.66
635.646	3.61
635.978	3.62
636.31	3.64
636.643	3.63
636.975	3.7
637.307	3.67
637.639	3.69
637.971	3.65
638.303	3.62
638.635	3.7
638.967	3.72
639.299	3.77
639.631	3.78
639.963	3.78
640.295	3.79
640.626	3.71
640.958	3.73
641.29	3.76
641.621	3.78
641.953	3.69
642.285	3.7
642.616	3.74
642.948	3.73
643.279	3.7
643.61	3.68
643.942	3.71
644.273	3.67
644.604	3.7
644.936	3.77
645.267	3.79
645.598	3.73
645.929	3.68
646.26	3.64
646.591	3.65
646.922	3.63
647.253	3.61
647.584	3.68
647.915	3.79
648.245	3.74
648.576	3.71
648.907	3.79
649.238	3.81
649.568	3.8
649.899	3.84
650.229	3.87
650.56	3.79
650.89	3.74
651.221	3.83
651.551	3.89
651.882	3.86
652.212	3.87
652.542	3.95
652.872	3.97
653.203	4
653.533	4
653.863	3.99
654.193	4.01
654.523	3.96
654.853	3.96
655.183	3.99
655.513	4
655.843	4.02
656.172	4
656.502	4.03
656.832	4
657.162	4.02
657.491	4.18
657.821	4.16
658.15	4.12
658.48	4.12
658.809	4.06
659.139	4.06
659.468	4
659.798	4.05
660.127	3.98
660.456	3.93
660.785	3.93
661.115	3.93
661.444	3.99
661.773	3.97
662.102	3.92
662.431	3.95
662.76	3.95
663.089	3.99
663.418	3.93
663.747	3.9
664.076	3.85
664.404	3.84
664.733	3.88
665.062	3.88
665.39	3.81
665.719	3.86
666.048	3.86
666.376	3.9
666.705	3.91
667.033	3.97
667.362	3.91
667.69	3.97
668.018	3.99
668.347	3.91
668.675	3.85
669.003	3.86
669.331	3.77
669.659	3.72
669.987	3.64
670.315	3.67
670.643	3.67
670.971	3.73
671.299	3.7
671.627	3.68
671.955	3.71
672.283	3.72
672.61	3.71
672.938	3.77
673.266	3.77
673.593	3.77
673.921	3.79
674.249	3.87
674.576	3.89
674.904	3.78
675.231	3.85
675.558	3.9
675.886	3.9
676.213	3.92
676.54	4.02
676.867	4.03
677.195	4.05
677.522	4.16
677.849	4.14
678.176	4.21
678.503	4.21
678.83	4.2
679.157	4.25
679.484	4.24
679.81	4.24
680.137	4.26
680.464	4.24
680.791	4.23
681.117	4.26
681.444	4.19
681.771	4.28
682.097	4.32
682.424	4.28
682.75	4.32
683.077	4.29
683.403	4.28
683.729	4.19
684.056	4.15
684.382	4.15
684.708	4.06
685.034	3.93
685.36	3.82
685.686	3.81
686.012	3.72
686.339	3.74
686.664	3.65
686.99	3.64
687.316	3.59
687.642	3.58
687.968	3.65
688.294	3.64
688.619	3.65
688.945	3.62
689.271	3.58
689.596	3.6
689.922	3.56
690.247	3.56
690.573	3.68
690.898	3.76
691.224	3.69
691.549	3.77
691.874	3.85
692.2	4.03
692.525	3.99
692.85	4.11
693.175	4.12
693.5	4.09
693.825	4.1
694.15	4.07
694.475	4.08
694.8	3.97
695.125	4.04
695.45	3.91
695.775	3.89
696.099	4.05
696.424	4.02
696.749	4.11
697.073	4.07
697.398	4.09
697.723	4.08
698.047	4.07
698.372	4.2
698.696	4.13
699.02	4.14
699.345	4.23
699.669	4.24
699.993	4.2
700.318	4.3
700.642	4.26
700.966	4.3
701.29	4.27
701.614	4.37
701.938	4.34
702.262	4.38
702.586	4.43
702.91	4.36
703.234	4.41
703.557	4.36
703.881	4.33
704.205	4.32
704.529	4.31
704.852	4.28
705.176	4.1
705.499	4.16
705.823	4.03
706.146	4.02
706.47	4.01
706.793	4.07
707.117	4.1
707.44	4.09
707.763	4.12
708.086	4.17
708.409	4.04
708.733	4.05
709.056	4
709.379	4.12
709.702	4.09
710.025	4.08
710.348	4.19
710.671	4.21
710.993	4.3
711.316	4.3
711.639	4.46
711.962	4.53
712.284	4.54
712.607	4.74
712.93	4.59
713.252	4.54
713.575	4.52
713.897	4.48
714.22	4.49
714.542	4.54
714.864	4.48
715.187	4.53
715.509	4.61
715.831	4.67
716.153	4.6
716.475	4.71
716.798	4.58
717.12	4.62
717.442	4.62
717.764	4.52
718.085	4.6
718.407	4.54
718.729	4.54
719.051	4.53
719.373	4.52
719.695	4.67
720.016	4.77
720.338	4.76
720.659	4.84
720.981	4.72
721.302	4.89
721.624	5.04
721.945	5.01
722.267	4.97
722.588	5.02
722.909	5.05
723.231	4.86
723.552	4.91
723.873	4.81
724.194	4.8
724.515	4.85
724.836	4.71
725.157	4.6
725.478	4.42
725.799	4.32
726.12	4.22
726.441	4.14
726.762	4.14
727.083	4.32
727.403	4.33
727.724	4.46
728.045	4.27
728.365	4.22
728.686	4.31
729.006	4.25
729.327	4.37
729.647	4.11
729.967	4.14
730.288	4.34
730.608	4.33
730.928	4.42
731.249	4.53
731.569	4.53
731.889	4.57
732.209	4.71
732.529	4.77
732.849	4.71
733.169	4.84
733.489	4.67
733.809	4.57
734.129	4.55
734.448	4.61
734.768	4.53
735.088	4.4
735.408	4.35
735.727	4.36
736.047	4.38
736.366	4.31
736.686	4.41
737.005	4.27
737.325	4.27
737.644	4.28
737.963	4.18
738.283	4.11
738.602	4.17
738.921	4.2
739.24	4.4
739.56	4.54
739.879	4.38
740.198	4.53
740.517	4.52
740.836	4.49
741.155	4.7
741.473	4.75
741.792	4.92
742.111	5.05
742.43	5.28
742.748	5.2
743.067	5.6
743.386	5.52
743.704	5.52
744.023	5.69
744.341	5.65
744.66	5.73
744.978	5.89
745.297	5.92
745.615	6.02
745.933	5.88
746.252	6.09
746.57	6.19
746.888	6.43
747.206	6.52
747.524	6.49
747.842	6.23
748.16	6.39
748.478	6.41
748.796	6.32
749.114	6.24
749.432	6.4
749.749	6.2
750.067	6.26
750.385	6.49
750.703	6.38
751.02	6.33
751.338	6.21
751.655	6.28
751.973	6.17
752.29	6.07
752.608	6.12
752.925	5.86
753.242	5.82
753.56	5.36
753.877	5.29
754.194	5.62
754.511	5.6
754.828	5.54
755.145	5.51
755.462	5.5
755.779	5.46
756.096	5.34
756.413	5.39
756.73	5.59
757.047	5.32
757.364	5.23
757.68	5.32
757.997	5.44
758.314	5.46
758.63	5.45
758.947	5.61
759.264	5.64
759.58	5.56
759.896	5.53
760.213	5.87
760.529	5.85
760.846	5.83
761.162	5.84
761.478	5.84
761.794	5.95
762.11	5.94
762.426	5.94
762.743	5.99
763.059	6.1
763.375	6
763.69	6.25
764.006	6.45
764.322	6.28
764.638	6.39
764.954	6.34
765.27	6.46
765.585	6.37
765.901	6.17
766.216	6.27
766.532	6.23
766.848	6.13
767.163	6.08
767.478	5.81
767.794	5.75
768.109	5.74
768.424	5.72
768.74	5.65
769.055	5.58
769.37	5.38
769.685	5.33
770	5.31
770.315	5.08
770.63	5.04
770.945	5.44
771.26	5.12
771.575	5.35
771.89	5.36
772.205	5.15
772.52	5.36
772.834	5.53
773.149	5.45
773.464	5.72
773.778	5.71
774.093	5.98
774.407	6.27
774.722	6.29
775.036	6.06
775.351	6.14
775.665	6.13
775.979	6.17
776.293	6.05
776.608	5.69
776.922	5.7
777.236	5.61
777.55	5.71
777.864	5.8
778.178	5.37
778.492	5.39
778.806	5.56
779.12	5.61
779.434	5.45
779.747	5.89
780.061	5.4
780.375	5.41
780.689	5.19
781.002	5.05
781.316	4.88
781.629	5.34
781.943	5.34
782.256	5.44
782.57	5.94
782.883	6.16
783.196	6.27
783.51	6.74
783.823	6.81
784.136	6.26
784.449	6.18
784.762	6.38
785.075	6.45
785.388	6.4
785.701	6.44
786.014	5.96
786.327	6.08
786.64	6.32
786.953	6.16
787.266	6.25
787.578	6.23
787.891	6.74
788.204	6.55
788.516	6.95
788.829	7.07
789.141	6.78
789.454	6.5
789.766	6.9
790.079	6.39
790.391	6.42
790.703	6.88
791.016	7.08
791.328	7.12
791.64	6.96
791.952	7.3
792.264	6.85
792.576	7.29
792.888	7.24
793.2	6.95
793.512	6.86
793.824	6.87
794.136	6.92
794.448	6.94
794.76	6.87
795.071	6.61
795.383	6.33
795.695	6.15
796.006	6.13
796.318	6.26
796.629	6.32
796.941	6.31
797.252	6.23
797.564	6.36
797.875	6.03
798.186	6.08
798.497	5.74
798.809	6.35
799.12	6.35
799.431	6.15
799.742	6.19
800.053	6.45
800.364	6.33
800.675	6.56
800.986	6.07
801.297	5.98
801.608	5.87
801.918	5.89
802.229	6.4
802.54	6.36
802.851	6.28
803.161	6.55
803.472	6.61
803.782	6.61
804.093	6.11
804.403	6.25
804.714	6.54
805.024	6.11
805.334	5.96
805.645	6.1
805.955	6.72
806.265	6.87
806.575	6.74
806.885	6.9
807.195	6.56
807.505	6.68
807.815	6.68
808.125	6.42
808.435	6.55
808.745	6.12
809.055	7.05
809.365	6.98
809.674	6.48
809.984	6.67
810.294	6.18
810.603	6.03
810.913	5.86
811.222	5.42
811.532	6.56
811.841	7.12
812.151	7.26
812.46	6.58
812.769	6.31
813.079	6.9
813.388	6.75
813.697	6.32
814.006	6.6
814.315	6.81
814.624	7.7
814.933	7.68
815.242	7.55
815.551	6.22
815.86	6.01
816.169	5.99
816.478	5.84
816.786	6.13
817.095	6.62
817.404	7.72
817.712	7.98
818.021	8.02
818.33	7.38
818.638	7.08
818.947	6.89
819.255	7.05
819.563	7.03
819.872	6.94
820.18	7.09
820.488	7.15
820.796	7.04
821.105	6.76
821.413	6.74
821.721	6.75
822.029	6.8
822.337	6.82
822.645	6.79
822.953	6.74
823.26	6.73
823.568	6.64
823.876	6.48
824.184	6.43
824.491	6.37
824.799	6.47
825.107	6.48
825.414	6.54
825.722	6.56
826.029	6.5
826.337	6.49
826.644	6.64
826.951	6.47
827.259	6.42
827.566	6.56
827.873	6.62
828.18	6.62
828.488	6.74
828.795	6.62
829.102	6.7
829.409	6.69
829.716	6.87
830.023	7.14
830.329	7.27
830.636	7.19
830.943	6.9
831.25	6.71
831.557	6.71
831.863	6.71
832.17	6.8
832.476	6.96
832.783	7.38
833.089	7.33
833.396	7.52
833.702	7.54
834.009	7.53
834.315	7.35
834.621	7.43
834.928	7.33
835.234	7.46
835.54	7.35
835.846	7.3
836.152	7.1
836.458	6.75
836.764	6.79
837.07	6.96
837.376	7.05
837.682	6.99
837.988	7.19
838.293	7.58
838.599	7.6
838.905	7.65
839.211	7.51
839.516	6.89
839.822	7.13
840.127	7.55
840.433	8.45
840.738	8.51
841.044	7.77
841.349	8.11
841.654	8.25
841.959	8.59
842.265	9
842.57	9.68
842.875	10.19
843.18	10.17
843.485	10.72
843.79	11.01
844.095	11.55
844.4	11.43
844.705	10.63
845.01	10.83
845.315	10.81
845.619	10.61
845.924	12.26
846.229	12.2
846.533	11.64
846.838	9.77
847.142	10.46
847.447	12.04
847.751	13.25
848.056	12.37
848.36	12.74
848.664	12.21
848.969	11.44
849.273	11.96
849.577	12.19
849.881	10.67
850.185	9.86
850.489	9.12
850.794	10.63
851.097	10.54
851.401	9.93
851.705	10.05
852.009	10.49
852.313	9.68
852.617	8.62
852.92	10.36
853.224	10.42
853.528	10.25
853.831	10.82
854.135	10.83
854.438	11.82
854.742	11.41
855.045	11.13
855.349	10.83
855.652	9.4
855.955	8.51
856.259	8.89
856.562	9.42
856.865	10.33
857.168	8.78
857.471	9.25
857.774	11.1
858.077	9.78
858.38	8.31
858.683	7.79
858.986	8.89
859.289	7.36
859.592	8.37
859.894	7.87
860.197	8.26
860.5	6.43
860.802	7.26
861.105	7.15
861.407	6.41
861.71	4.73
862.012	7.69
862.315	8.75
862.617	9.77
862.919	10.48
863.222	9.92
863.524	9.25
863.826	7.62
864.128	7.06
864.43	10
864.732	10.76
865.034	11.43
865.336	9.77
865.638	10.63
865.94	7.27
866.242	9.32
866.544	6.9
866.846	7.96
867.147	7.51
867.449	10.68
867.751	11.16
868.052	12.44
868.354	11.34
868.655	10.81
868.957	11.98
869.258	11.57
869.56	11.52
869.861	10.61
870.162	11.85
870.463	9.92
870.765	7.93
871.066	7.44
871.367	7.62
871.668	8.19
871.969	6.6
872.27	10.86
872.571	10.4
872.872	11.76
873.173	8.44
873.473	6.17
873.774	4.84
874.075	6.25
874.376	7.34
874.676	7.64
874.977	9.13
875.277	7.41
875.578	7.86
875.878	8.55
876.179	9.51
876.479	9.88
876.78	10.81
877.08	11.02
877.38	12.1
877.68	11.85
877.981	12.93
878.281	14.66
878.581	10.21
