Data from BU57737_Reflection_00013.txt Node
Date: Mon Nov 18 16:30:07 EST 2019
User: vgr7
Spectrometer: USB2G7710
Scans to average: 3
Trigger mode: 4
Integration Time (sec): 2.000000E-2
Electric dark correction enabled: true
Boxcar width: 10
XAxis mode: Wavelengths
Number of Pixels in Spectrum: 2048
>>>>>Begin Spectral Data<<<<<
177.721	-47.87
178.105	433.33
178.488	117.15
178.871	103.5
179.254	115.21
179.636	-63.27
180.019	-126.6
180.402	46.15
180.785	-93.05
181.168	-1578.57
181.55	280.18
181.933	108.63
182.316	115.09
182.698	158.32
183.081	398.41
183.463	576.19
183.846	190.77
184.228	276.6
184.611	316.87
184.993	284.4
185.376	238.83
185.758	222.91
186.14	221.31
186.522	167.64
186.904	172.24
187.287	152.96
187.669	168.48
188.051	207.3
188.433	367.3
188.815	339.19
189.197	226.68
189.579	245.45
189.961	533.5
190.342	602.92
190.724	729.92
191.106	-3117.39
191.488	58100
191.869	-186.74
192.251	-286.27
192.633	-103.75
193.014	-45.68
193.396	-99.1
193.777	-95.32
194.159	-77.78
194.54	-55.26
194.922	-34.7
195.303	-39.08
195.684	-35.7
196.065	-25.47
196.447	-26.06
196.828	-44.62
197.209	-25.55
197.59	-19.98
197.971	-19.15
198.352	-7.84
198.733	-5.46
199.114	-12.62
199.495	-19.47
199.876	-20.29
200.257	-3.34
200.638	-7.44
201.018	-32.9
201.399	-19.14
201.78	-23.69
202.16	-50.94
202.541	-78.06
202.922	-90.48
203.302	-118.58
203.683	-173.29
204.063	-359.36
204.444	-740.34
204.824	-380.84
205.204	-587.18
205.585	-466.31
205.965	-287.88
206.345	-748.48
206.725	-1125.81
207.106	-1044.51
207.486	-825.76
207.866	-1919.8
208.246	17009.09
208.626	62100
209.006	-916.22
209.386	3744.44
209.766	1064.54
210.145	1226.21
210.525	-257.01
210.905	-239.69
211.285	-164.05
211.664	-136.99
212.044	-110.84
212.424	-101.21
212.803	-101.52
213.183	-112.09
213.562	-81.65
213.942	-70.08
214.321	-44.91
214.701	-53.44
215.08	-49.27
215.459	-43.9
215.838	-33.41
216.218	-50.31
216.597	-47.62
216.976	-57.8
217.355	-46.98
217.734	-46.62
218.113	-50.83
218.492	-47.53
218.871	-50.09
219.25	-59.14
219.629	-52.79
220.008	-59.53
220.387	-52.5
220.766	-55.66
221.144	-57.57
221.523	-80.37
221.902	-93.12
222.28	-128.78
222.659	-96.83
223.037	-76.05
223.416	-90.25
223.794	-95.02
224.173	-60.32
224.551	-42.66
224.929	-36.02
225.308	-33.1
225.686	-33.12
226.064	-25.6
226.442	-21.11
226.821	-15.86
227.199	-13.23
227.577	-17.21
227.955	-14.3
228.333	-12.98
228.711	-10.45
229.089	-6.85
229.467	-6.54
229.845	-6.67
230.222	-4.56
230.6	-7.51
230.978	-8.69
231.356	-3.2
231.733	-1.93
232.111	-1.08
232.488	1.52
232.866	4.17
233.243	3.97
233.621	1.79
233.998	0.76
234.376	-1.66
234.753	-1.86
235.13	-2.52
235.508	0.83
235.885	-1.19
236.262	-2.48
236.639	-2.67
237.016	-2.79
237.393	-1.31
237.77	-0.18
238.147	1.29
238.524	1.98
238.901	2.32
239.278	0.95
239.655	1.73
240.032	1.08
240.409	-0.11
240.785	-0.01
241.162	0.1
241.539	1.03
241.915	1.56
242.292	1.44
242.668	1.56
243.045	1.83
243.421	1.73
243.798	2.19
244.174	2.45
244.551	2.59
244.927	2.74
245.303	2.54
245.679	2.39
246.056	2.3
246.432	2.13
246.808	2.04
247.184	1.85
247.56	1.69
247.936	1.91
248.312	1.85
248.688	1.8
249.064	2
249.44	1.9
249.815	1.94
250.191	1.93
250.567	2.02
250.943	1.82
251.318	1.83
251.694	1.63
252.069	1.42
252.445	1.38
252.82	1.29
253.196	1.28
253.571	1.56
253.947	1.45
254.322	1.83
254.697	1.96
255.073	2.39
255.448	2.32
255.823	2.23
256.198	2.4
256.573	2.37
256.948	2.04
257.323	1.99
257.698	1.89
258.073	2
258.448	2.06
258.823	2.34
259.198	2.35
259.573	2.44
259.948	2.39
260.322	2.46
260.697	2.42
261.072	2.39
261.446	2.33
261.821	2.3
262.195	2.28
262.57	2.16
262.944	2.09
263.319	2.11
263.693	1.93
264.067	2.01
264.442	1.97
264.816	1.99
265.19	1.98
265.564	1.85
265.938	1.98
266.313	1.76
266.687	1.61
267.061	1.69
267.435	1.88
267.809	1.97
268.183	1.85
268.556	1.65
268.93	1.63
269.304	1.49
269.678	1.58
270.051	1.45
270.425	1.45
270.799	1.35
271.172	1.26
271.546	1.38
271.919	1.26
272.293	1.3
272.666	1.3
273.04	1.33
273.413	1.43
273.787	1.46
274.16	1.53
274.533	1.59
274.906	1.51
275.279	1.24
275.653	1.41
276.026	1.47
276.399	1.74
276.772	1.74
277.145	1.74
277.518	1.73
277.891	1.76
278.263	1.8
278.636	1.92
279.009	2.17
279.382	2.39
279.755	2.45
280.127	2.5
280.5	2.81
280.872	2.94
281.245	2.85
281.617	2.88
281.99	2.89
282.362	2.83
282.735	2.69
283.107	2.85
283.479	2.7
283.852	2.65
284.224	2.57
284.596	2.58
284.968	2.68
285.34	2.63
285.713	2.62
286.085	2.75
286.457	2.84
286.829	2.73
287.201	2.57
287.572	2.52
287.944	2.49
288.316	2.33
288.688	2.31
289.06	2.37
289.431	2.29
289.803	2.29
290.175	2.26
290.546	2.31
290.918	2.26
291.289	2.19
291.661	2.38
292.032	2.43
292.403	2.44
292.775	2.48
293.146	2.46
293.517	2.43
293.889	2.47
294.26	2.41
294.631	2.5
295.002	2.53
295.373	2.6
295.744	2.64
296.115	2.72
296.486	2.66
296.857	2.74
297.228	2.87
297.599	2.89
297.97	2.95
298.34	3.06
298.711	3.05
299.082	3.1
299.452	3.06
299.823	3.09
300.194	3.23
300.564	3.17
300.935	3.26
301.305	3.35
301.676	3.24
302.046	3.26
302.416	3.31
302.787	3.38
303.157	3.33
303.527	3.36
303.897	3.27
304.267	3.42
304.637	3.39
305.008	3.3
305.378	3.4
305.748	3.39
306.117	3.41
306.487	3.57
306.857	3.71
307.227	3.71
307.597	3.73
307.967	3.8
308.336	3.99
308.706	4.14
309.076	4.27
309.445	4.28
309.815	4.33
310.184	4.29
310.554	4.39
310.923	4.44
311.293	4.53
311.662	4.7
312.031	4.63
312.401	4.74
312.77	4.84
313.139	4.96
313.508	5.12
313.877	5.14
314.246	5.19
314.616	5.29
314.985	5.39
315.353	5.45
315.722	5.46
316.091	5.47
316.46	5.36
316.829	5.32
317.198	5.55
317.567	5.63
317.935	5.6
318.304	5.55
318.672	5.65
319.041	5.71
319.41	5.93
319.778	5.96
320.147	6.08
320.515	6.04
320.883	5.94
321.252	5.86
321.62	5.81
321.988	5.9
322.357	5.97
322.725	6.05
323.093	6.03
323.461	6.11
323.829	6.12
324.197	6.26
324.565	6.42
324.933	6.34
325.301	6.38
325.669	6.57
326.037	6.56
326.405	6.59
326.772	6.59
327.14	6.47
327.508	6.55
327.875	6.47
328.243	6.59
328.61	6.68
328.978	6.76
329.346	6.97
329.713	6.81
330.08	6.75
330.448	6.72
330.815	6.74
331.182	6.83
331.55	6.86
331.917	6.93
332.284	7.06
332.651	7.06
333.018	7.14
333.385	7.2
333.752	7.33
334.119	7.55
334.486	7.49
334.853	7.53
335.22	7.64
335.587	7.7
335.954	7.75
336.32	7.76
336.687	7.75
337.054	7.58
337.42	7.74
337.787	7.69
338.153	7.72
338.52	7.83
338.886	7.77
339.253	7.81
339.619	7.85
339.986	7.76
340.352	7.87
340.718	7.82
341.084	7.83
341.451	7.92
341.817	7.78
342.183	7.86
342.549	7.76
342.915	7.81
343.281	7.81
343.647	7.67
344.013	7.7
344.379	7.7
344.745	7.77
345.11	7.77
345.476	7.93
345.842	7.9
346.208	7.87
346.573	7.75
346.939	7.77
347.304	7.7
347.67	7.61
348.035	7.56
348.401	7.56
348.766	7.53
349.132	7.49
349.497	7.47
349.862	7.5
350.228	7.64
350.593	7.53
350.958	7.59
351.323	7.69
351.688	7.67
352.053	7.68
352.418	7.66
352.783	7.74
353.148	7.67
353.513	7.6
353.878	7.59
354.243	7.68
354.608	7.75
354.972	7.76
355.337	7.83
355.702	7.88
356.066	7.84
356.431	7.79
356.795	7.82
357.16	7.85
357.524	7.77
357.889	7.63
358.253	7.68
358.618	7.64
358.982	7.56
359.346	7.45
359.71	7.47
360.075	7.55
360.439	7.48
360.803	7.39
361.167	7.39
361.531	7.36
361.895	7.34
362.259	7.26
362.623	7.23
362.987	7.19
363.351	7.15
363.714	7.12
364.078	7.11
364.442	6.97
364.806	6.87
365.169	6.89
365.533	6.96
365.896	6.88
366.26	6.74
366.623	6.73
366.987	6.7
367.35	6.62
367.714	6.52
368.077	6.48
368.44	6.47
368.803	6.37
369.167	6.31
369.53	6.2
369.893	6.18
370.256	6.08
370.619	6.06
370.982	5.96
371.345	5.89
371.708	5.87
372.071	5.82
372.434	5.72
372.797	5.6
373.159	5.45
373.522	5.38
373.885	5.46
374.247	5.45
374.61	5.43
374.973	5.36
375.335	5.27
375.698	5.21
376.06	5.12
376.423	5.07
376.785	5.06
377.147	5.09
377.51	4.96
377.872	4.97
378.234	4.9
378.596	4.9
378.958	4.84
379.321	4.82
379.683	4.8
380.045	4.82
380.407	4.82
380.769	4.79
381.13	4.74
381.492	4.65
381.854	4.56
382.216	4.51
382.578	4.49
382.939	4.46
383.301	4.41
383.663	4.39
384.024	4.42
384.386	4.42
384.747	4.36
385.109	4.37
385.47	4.27
385.832	4.24
386.193	4.21
386.554	4.2
386.916	4.08
387.277	4.03
387.638	4.02
387.999	3.96
388.36	3.94
388.721	3.94
389.082	3.87
389.443	3.85
389.804	3.84
390.165	3.81
390.526	3.8
390.887	3.74
391.248	3.71
391.609	3.68
391.969	3.6
392.33	3.56
392.691	3.52
393.051	3.57
393.412	3.55
393.772	3.49
394.133	3.48
394.493	3.48
394.854	3.47
395.214	3.4
395.574	3.39
395.935	3.36
396.295	3.32
396.655	3.3
397.015	3.25
397.376	3.23
397.736	3.21
398.096	3.19
398.456	3.18
398.816	3.16
399.176	3.11
399.535	3.08
399.895	3.08
400.255	3.04
400.615	3.01
400.975	2.96
401.334	2.95
401.694	2.92
402.054	2.91
402.413	2.88
402.773	2.87
403.132	2.85
403.492	2.85
403.851	2.83
404.211	2.83
404.57	2.83
404.929	2.8
405.288	2.78
405.648	2.74
406.007	2.72
406.366	2.72
406.725	2.74
407.084	2.76
407.443	2.74
407.802	2.77
408.161	2.69
408.52	2.68
408.879	2.66
409.238	2.64
409.596	2.61
409.955	2.64
410.314	2.64
410.673	2.6
411.031	2.6
411.39	2.59
411.748	2.57
412.107	2.57
412.465	2.57
412.824	2.6
413.182	2.58
413.54	2.6
413.899	2.62
414.257	2.61
414.615	2.58
414.974	2.59
415.332	2.55
415.69	2.57
416.048	2.54
416.406	2.56
416.764	2.56
417.122	2.58
417.48	2.54
417.838	2.52
418.195	2.54
418.553	2.51
418.911	2.51
419.269	2.51
419.626	2.48
419.984	2.46
420.342	2.43
420.699	2.42
421.057	2.4
421.414	2.38
421.772	2.38
422.129	2.38
422.486	2.37
422.844	2.38
423.201	2.36
423.558	2.37
423.915	2.36
424.273	2.36
424.63	2.33
424.987	2.33
425.344	2.33
425.701	2.32
426.058	2.31
426.415	2.3
426.772	2.3
427.128	2.32
427.485	2.33
427.842	2.32
428.199	2.32
428.555	2.33
428.912	2.32
429.269	2.28
429.625	2.26
429.982	2.25
430.338	2.23
430.695	2.26
431.051	2.25
431.407	2.24
431.764	2.24
432.12	2.22
432.476	2.23
432.832	2.22
433.189	2.21
433.545	2.22
433.901	2.21
434.257	2.19
434.613	2.2
434.969	2.19
435.325	2.19
435.681	2.19
436.036	2.19
436.392	2.21
436.748	2.22
437.104	2.22
437.459	2.22
437.815	2.22
438.171	2.2
438.526	2.21
438.882	2.21
439.237	2.22
439.593	2.24
439.948	2.23
440.304	2.24
440.659	2.25
441.014	2.24
441.369	2.24
441.725	2.24
442.08	2.23
442.435	2.23
442.79	2.24
443.145	2.22
443.5	2.22
443.855	2.2
444.21	2.2
444.565	2.19
444.92	2.2
445.275	2.19
445.629	2.19
445.984	2.18
446.339	2.17
446.693	2.15
447.048	2.15
447.403	2.14
447.757	2.13
448.112	2.13
448.466	2.13
448.82	2.14
449.175	2.15
449.529	2.13
449.883	2.13
450.238	2.13
450.592	2.13
450.946	2.11
451.3	2.11
451.654	2.11
452.008	2.12
452.362	2.11
452.716	2.1
453.07	2.1
453.424	2.1
453.778	2.1
454.132	2.11
454.486	2.1
454.839	2.1
455.193	2.09
455.547	2.08
455.9	2.08
456.254	2.07
456.607	2.04
456.961	2.06
457.314	2.05
457.668	2.04
458.021	2.04
458.375	2.05
458.728	2.07
459.081	2.07
459.434	2.06
459.787	2.08
460.141	2.08
460.494	2.07
460.847	2.08
461.2	2.07
461.553	2.08
461.906	2.1
462.259	2.09
462.611	2.1
462.964	2.11
463.317	2.12
463.67	2.12
464.022	2.13
464.375	2.13
464.728	2.14
465.08	2.14
465.433	2.13
465.785	2.14
466.138	2.12
466.49	2.13
466.843	2.13
467.195	2.14
467.547	2.14
467.899	2.15
468.252	2.12
468.604	2.15
468.956	2.12
469.308	2.13
469.66	2.13
470.012	2.13
470.364	2.12
470.716	2.13
471.068	2.12
471.42	2.14
471.772	2.19
472.123	2.21
472.475	2.23
472.827	2.27
473.178	2.29
473.53	2.3
473.882	2.28
474.233	2.3
474.585	2.28
474.936	2.3
475.288	2.32
475.639	2.33
475.99	2.33
476.342	2.35
476.693	2.35
477.044	2.38
477.395	2.38
477.746	2.38
478.097	2.38
478.448	2.39
478.8	2.37
479.15	2.31
479.501	2.31
479.852	2.31
480.203	2.29
480.554	2.3
480.905	2.3
481.255	2.3
481.606	2.3
481.957	2.3
482.307	2.29
482.658	2.29
483.009	2.29
483.359	2.28
483.709	2.28
484.06	2.28
484.41	2.28
484.761	2.28
485.111	2.27
485.461	2.27
485.811	2.26
486.162	2.27
486.512	2.28
486.862	2.27
487.212	2.27
487.562	2.26
487.912	2.25
488.262	2.25
488.612	2.24
488.961	2.23
489.311	2.23
489.661	2.23
490.011	2.24
490.36	2.24
490.71	2.24
491.06	2.24
491.409	2.24
491.759	2.24
492.108	2.24
492.458	2.25
492.807	2.26
493.157	2.27
493.506	2.28
493.855	2.27
494.204	2.27
494.554	2.28
494.903	2.29
495.252	2.3
495.601	2.33
495.95	2.34
496.299	2.35
496.648	2.35
496.997	2.37
497.346	2.39
497.695	2.4
498.043	2.4
498.392	2.4
498.741	2.42
499.09	2.41
499.438	2.43
499.787	2.43
500.135	2.44
500.484	2.47
500.832	2.48
501.181	2.51
501.529	2.52
501.878	2.56
502.226	2.59
502.574	2.61
502.923	2.61
503.271	2.65
503.619	2.68
503.967	2.71
504.315	2.71
504.663	2.73
505.011	2.77
505.359	2.8
505.707	2.84
506.055	2.88
506.403	2.92
506.751	2.94
507.098	2.98
507.446	3.03
507.794	3.05
508.141	3.1
508.489	3.12
508.837	3.18
509.184	3.21
509.531	3.24
509.879	3.29
510.226	3.35
510.574	3.38
510.921	3.42
511.268	3.48
511.616	3.51
511.963	3.57
512.31	3.62
512.657	3.69
513.004	3.74
513.351	3.8
513.698	3.87
514.045	3.91
514.392	3.96
514.739	4.03
515.086	4.11
515.432	4.18
515.779	4.25
516.126	4.29
516.473	4.36
516.819	4.45
517.166	4.5
517.512	4.57
517.859	4.65
518.205	4.71
518.552	4.78
518.898	4.87
519.245	4.94
519.591	5
519.937	5.07
520.283	5.16
520.629	5.23
520.976	5.32
521.322	5.44
521.668	5.54
522.014	5.64
522.36	5.78
522.706	5.9
523.052	6.02
523.398	6.18
523.743	6.33
524.089	6.47
524.435	6.6
524.781	6.73
525.126	6.86
525.472	7.01
525.817	7.12
526.163	7.22
526.509	7.33
526.854	7.43
527.199	7.53
527.545	7.63
527.89	7.73
528.235	7.83
528.581	7.95
528.926	8.04
529.271	8.16
529.616	8.25
529.961	8.36
530.306	8.49
530.651	8.6
530.996	8.73
531.341	8.86
531.686	9.01
532.031	9.17
532.376	9.33
532.721	9.47
533.065	9.62
533.41	9.81
533.755	9.99
534.099	10.18
534.444	10.35
534.788	10.54
535.133	10.73
535.477	10.92
535.822	11.11
536.166	11.34
536.51	11.57
536.855	11.83
537.199	12.09
537.543	12.36
537.887	12.65
538.231	12.93
538.576	13.23
538.92	13.5
539.264	13.75
539.608	14
539.951	14.26
540.295	14.51
540.639	14.72
540.983	14.96
541.327	15.2
541.671	15.43
542.014	15.65
542.358	15.89
542.701	16.12
543.045	16.37
543.389	16.6
543.732	16.86
544.075	17.09
544.419	17.35
544.762	17.63
545.105	17.92
545.449	18.21
545.792	18.48
546.135	18.8
546.478	19.14
546.821	19.48
547.165	19.81
547.508	20.17
547.851	20.52
548.194	20.83
548.536	21.17
548.879	21.56
549.222	21.91
549.565	22.27
549.908	22.63
550.25	23
550.593	23.37
550.936	23.76
551.278	24.13
551.621	24.49
551.963	24.87
552.306	25.2
552.648	25.52
552.991	25.93
553.333	26.26
553.675	26.58
554.017	26.87
554.36	27.19
554.702	27.56
555.044	27.88
555.386	28.24
555.728	28.58
556.07	28.89
556.412	29.2
556.754	29.5
557.096	29.84
557.438	30.17
557.78	30.52
558.121	30.84
558.463	31.21
558.805	31.55
559.147	31.86
559.488	32.13
559.83	32.53
560.171	32.78
560.513	33.07
560.854	33.44
561.196	33.81
561.537	34.12
561.878	34.34
562.22	34.63
562.561	34.93
562.902	35.15
563.243	35.42
563.584	35.71
563.925	35.99
564.266	36.27
564.607	36.54
564.948	36.77
565.289	37
565.63	37.25
565.971	37.46
566.312	37.66
566.653	37.97
566.993	38.18
567.334	38.41
567.675	38.64
568.015	38.81
568.356	39.02
568.696	39.26
569.037	39.53
569.377	39.78
569.718	39.99
570.058	40.29
570.398	40.52
570.739	40.78
571.079	40.99
571.419	41.16
571.759	41.37
572.099	41.54
572.439	41.71
572.779	41.86
573.119	42.07
573.459	42.25
573.799	42.41
574.139	42.62
574.479	42.79
574.819	43.02
575.158	43.22
575.498	43.39
575.838	43.52
576.177	43.68
576.517	43.83
576.856	44
577.196	44.12
577.535	44.29
577.875	44.4
578.214	44.58
578.553	44.73
578.893	44.89
579.232	45.1
579.571	45.26
579.91	45.39
580.25	45.55
580.589	45.7
580.928	45.8
581.267	45.86
581.606	45.99
581.945	46.1
582.283	46.19
582.622	46.31
582.961	46.5
583.3	46.57
583.639	46.77
583.977	46.94
584.316	47.06
584.654	47.22
584.993	47.4
585.332	47.55
585.67	47.78
586.008	47.89
586.347	47.97
586.685	48.14
587.024	48.29
587.362	48.37
587.7	48.52
588.038	48.71
588.376	48.87
588.715	48.97
589.053	49.06
589.391	49.21
589.729	49.31
590.067	49.4
590.404	49.53
590.742	49.57
591.08	49.59
591.418	49.75
591.756	49.79
592.093	49.92
592.431	49.98
592.769	50
593.106	50.07
593.444	50.22
593.781	50.3
594.119	50.38
594.456	50.52
594.793	50.56
595.131	50.58
595.468	50.61
595.805	50.66
596.143	50.76
596.48	50.82
596.817	50.92
597.154	51.01
597.491	51.06
597.828	51.11
598.165	51.2
598.502	51.23
598.839	51.33
599.176	51.37
599.512	51.46
599.849	51.56
600.186	51.58
600.523	51.66
600.859	51.73
601.196	51.83
601.532	51.84
601.869	51.95
602.205	52.06
602.542	52.19
602.878	52.28
603.215	52.36
603.551	52.4
603.887	52.49
604.223	52.52
604.56	52.6
604.896	52.69
605.232	52.78
605.568	52.83
605.904	52.83
606.24	52.88
606.576	52.91
606.912	52.89
607.248	52.91
607.583	52.95
607.919	52.98
608.255	53.04
608.591	53.14
608.926	53.18
609.262	53.23
609.597	53.26
609.933	53.31
610.268	53.28
610.604	53.33
610.939	53.29
611.275	53.32
611.61	53.34
611.945	53.4
612.281	53.43
612.616	53.53
612.951	53.63
613.286	53.72
613.621	53.86
613.956	54.01
614.291	54.19
614.626	54.26
614.961	54.22
615.296	54.16
615.631	54.14
615.966	54.23
616.3	54.29
616.635	54.26
616.97	54.26
617.304	54.38
617.639	54.38
617.973	54.47
618.308	54.49
618.642	54.6
618.977	54.57
619.311	54.62
619.646	54.64
619.98	54.73
620.314	54.72
620.648	54.66
620.983	54.66
621.317	54.7
621.651	54.67
621.985	54.85
622.319	54.93
622.653	54.98
622.987	54.95
623.321	54.93
623.655	54.92
623.988	55
624.322	54.99
624.656	55.05
624.99	55.12
625.323	55.26
625.657	55.26
625.99	55.33
626.324	55.34
626.657	55.37
626.991	55.36
627.324	55.34
627.658	55.38
627.991	55.39
628.324	55.34
628.657	55.37
628.991	55.35
629.324	55.4
629.657	55.48
629.99	55.5
630.323	55.53
630.656	55.69
630.989	55.69
631.322	55.74
631.655	55.7
631.987	55.79
632.32	55.77
632.653	55.71
632.986	55.7
633.318	55.68
633.651	55.69
633.984	55.71
634.316	55.77
634.649	55.82
634.981	55.86
635.313	55.92
635.646	55.97
635.978	55.99
636.31	56.05
636.643	56.07
636.975	56.01
637.307	56.02
637.639	55.96
637.971	56.01
638.303	55.94
638.635	56.08
638.967	55.97
639.299	55.93
639.631	55.97
639.963	55.94
640.295	55.95
640.626	55.91
640.958	55.9
641.29	55.94
641.621	55.92
641.953	55.9
642.285	55.95
642.616	55.99
642.948	56.06
643.279	56.03
643.61	56.07
643.942	56.24
644.273	56.29
644.604	56.37
644.936	56.27
645.267	56.31
645.598	56.25
645.929	56.22
646.26	56.21
646.591	56.31
646.922	56.33
647.253	56.46
647.584	56.38
647.915	56.32
648.245	56.39
648.576	56.38
648.907	56.49
649.238	56.48
649.568	56.54
649.899	56.5
650.229	56.6
650.56	56.55
650.89	56.55
651.221	56.59
651.551	56.58
651.882	56.69
652.212	56.73
652.542	56.8
652.872	56.81
653.203	56.93
653.533	56.95
653.863	56.94
654.193	56.98
654.523	56.99
654.853	57.06
655.183	57
655.513	57.09
655.843	57.07
656.172	57.06
656.502	57.02
656.832	57.02
657.162	56.99
657.491	56.94
657.821	56.94
658.15	56.99
658.48	57.01
658.809	57
659.139	57.02
659.468	57.02
659.798	57.08
660.127	57.07
660.456	57.05
660.785	57.18
661.115	57.13
661.444	57.3
661.773	57.3
662.102	57.25
662.431	57.22
662.76	57.13
663.089	57.17
663.418	57.1
663.747	57.15
664.076	57.19
664.404	57.38
664.733	57.34
665.062	57.23
665.39	57.21
665.719	57.28
666.048	57.3
666.376	57.41
666.705	57.4
667.033	57.39
667.362	57.43
667.69	57.38
668.018	57.35
668.347	57.31
668.675	57.45
669.003	57.49
669.331	57.5
669.659	57.56
669.987	57.55
670.315	57.66
670.643	57.71
670.971	57.53
671.299	57.46
671.627	57.55
671.955	57.56
672.283	57.64
672.61	57.55
672.938	57.37
673.266	57.32
673.593	57.27
673.921	57.07
674.249	56.99
674.576	56.9
674.904	56.98
675.231	57.01
675.558	56.96
675.886	57.01
676.213	56.96
676.54	56.96
676.867	56.98
677.195	56.94
677.522	56.9
677.849	57.06
678.176	57.04
678.503	57.05
678.83	57.05
679.157	56.91
679.484	57
679.81	57.25
680.137	57.22
680.464	57.35
680.791	57.39
681.117	57.46
681.444	57.59
681.771	57.53
682.097	57.4
682.424	57.24
682.75	57.19
683.077	57.35
683.403	57.39
683.729	57.37
684.056	57.48
684.382	57.51
684.708	57.43
685.034	57.42
685.36	57.29
685.686	57.35
686.012	57.44
686.339	57.48
686.664	57.42
686.99	57.49
687.316	57.46
687.642	57.6
687.968	57.56
688.294	57.52
688.619	57.6
688.945	57.58
689.271	57.81
689.596	57.96
689.922	57.86
690.247	57.75
690.573	57.75
690.898	57.62
691.224	57.75
691.549	57.78
691.874	57.72
692.2	57.7
692.525	57.68
692.85	57.61
693.175	57.58
693.5	57.6
693.825	57.42
694.15	57.23
694.475	57.23
694.8	57.21
695.125	57.21
695.45	56.99
695.775	57.03
696.099	56.97
696.424	56.82
696.749	56.69
697.073	56.76
697.398	56.97
697.723	57.04
698.047	56.86
698.372	56.81
698.696	56.93
699.02	57.01
699.345	57.01
699.669	57.16
699.993	57.19
700.318	57.09
700.642	57.18
700.966	57.17
701.29	57.15
701.614	57.15
701.938	57.18
702.262	57.43
702.586	57.6
702.91	57.42
703.234	57.42
703.557	57.48
703.881	57.65
704.205	57.61
704.529	57.53
704.852	57.5
705.176	57.53
705.499	57.52
705.823	57.5
706.146	57.63
706.47	57.47
706.793	57.42
707.117	57.34
707.44	57.35
707.763	57.69
708.086	57.7
708.409	57.58
708.733	57.55
709.056	57.36
709.379	57.2
709.702	57.35
710.025	57.43
710.348	57.44
710.671	57.36
710.993	56.98
711.316	57.05
711.639	57.19
711.962	57.44
712.284	57.39
712.607	57.34
712.93	57.33
713.252	57.38
713.575	57.22
713.897	57.31
714.22	57.3
714.542	57.09
714.864	57.05
715.187	57.26
715.509	57.13
715.831	57.3
716.153	57.42
716.475	57.46
716.798	57.45
717.12	57.41
717.442	57.32
717.764	57.43
718.085	57.34
718.407	57.17
718.729	56.93
719.051	56.95
719.373	56.94
719.695	56.65
720.016	56.75
720.338	56.93
720.659	57.14
720.981	57.22
721.302	57.34
721.624	57.7
721.945	57.62
722.267	57.62
722.588	57.59
722.909	57.59
723.231	57.5
723.552	57.76
723.873	57.94
724.194	57.97
724.515	58.18
724.836	58.06
725.157	58.26
725.478	58.14
725.799	58.25
726.12	58.37
726.441	58.46
726.762	58.45
727.083	58.52
727.403	58.26
727.724	57.99
728.045	57.99
728.365	57.64
728.686	57.84
729.006	57.95
729.327	57.86
729.647	57.86
729.967	57.99
730.288	57.88
730.608	57.89
730.928	57.88
731.249	57.8
731.569	57.93
731.889	57.79
732.209	57.87
732.529	57.71
732.849	57.73
733.169	57.81
733.489	57.73
733.809	57.39
734.129	57.63
734.448	57.77
734.768	57.69
735.088	57.95
735.408	57.79
735.727	57.95
736.047	57.99
736.366	57.85
736.686	57.69
737.005	57.49
737.325	57.32
737.644	57.28
737.963	57.1
738.283	57.11
738.602	57.15
738.921	56.99
739.24	56.99
739.56	56.65
739.879	56.63
740.198	56.58
740.517	56.62
740.836	56.19
741.155	56.17
741.473	56.22
741.792	56.01
742.111	55.99
742.43	55.55
742.748	55.36
743.067	55.26
743.386	55.3
743.704	55.41
744.023	55.56
744.341	55.64
744.66	55.86
744.978	55.9
745.297	55.89
745.615	55.93
745.933	55.94
746.252	56.13
746.57	55.83
746.888	55.7
747.206	55.82
747.524	55.73
747.842	55.79
748.16	55.75
748.478	55.85
748.796	55.69
749.114	55.81
749.432	55.78
749.749	56.26
750.067	56.31
750.385	56.24
750.703	56.24
751.02	56.31
751.338	56.52
751.655	56.56
751.973	56.51
752.29	56.65
752.608	56.49
752.925	56.55
753.242	56.69
753.56	56.96
753.877	57.12
754.194	57.42
754.511	57.39
754.828	57.35
755.145	57.12
755.462	57.36
755.779	57.43
756.096	57.77
756.413	57.75
756.73	57.77
757.047	57.77
757.364	58.07
757.68	57.85
757.997	57.78
758.314	57.75
758.63	57.97
758.947	58
759.264	57.91
759.58	58.05
759.896	58.44
760.213	58.23
760.529	58.15
760.846	58.27
761.162	58.38
761.478	58.45
761.794	58.5
762.11	58.21
762.426	58.32
762.743	58.32
763.059	57.8
763.375	57.64
763.69	57.72
764.006	57.52
764.322	57.77
764.638	57.73
764.954	57.59
765.27	57.42
765.585	57.11
765.901	57.23
766.216	57.03
766.532	56.7
766.848	57.03
767.163	56.86
767.478	56.64
767.794	56.51
768.109	56.54
768.424	56.45
768.74	56.69
769.055	56.53
769.37	56.28
769.685	56.79
770	57.07
770.315	56.65
770.63	56.69
770.945	56.32
771.26	56.38
771.575	56.45
771.89	56.34
772.205	56.62
772.52	56.84
772.834	57.04
773.149	57.36
773.464	56.75
773.778	56.98
774.093	56.66
774.407	57.09
774.722	56.4
775.036	56.49
775.351	56.14
775.665	56.69
775.979	56.73
776.293	56.4
776.608	56.3
776.922	56.41
777.236	55.95
777.55	55.97
777.864	55.86
778.178	56.34
778.492	56.67
778.806	56.72
779.12	56.68
779.434	56.68
779.747	56.8
780.061	56.74
780.375	56.72
780.689	57.08
781.002	56.54
781.316	56.6
781.629	56.9
781.943	57.05
782.256	56.33
782.57	55.68
782.883	56.05
783.196	55.95
783.51	56.25
783.823	56.57
784.136	56.88
784.449	56.91
784.762	56.8
785.075	56.78
785.388	56.96
785.701	56.92
786.014	56.7
786.327	56.56
786.64	56.75
786.953	56.91
787.266	56.86
787.578	56.98
787.891	57.15
788.204	56.74
788.516	56.66
788.829	56.91
789.141	57.62
789.454	57.44
789.766	57.46
790.079	57.33
790.391	57.34
790.703	56.97
791.016	57
791.328	56.61
791.64	56.23
791.952	56.29
792.264	56.08
792.576	56.28
792.888	56.01
793.2	56.31
793.512	55.88
793.824	55.73
794.136	55.83
794.448	56.42
794.76	56.85
795.071	57.24
795.383	56.98
795.695	56.82
796.006	56.89
796.318	56.95
796.629	56.71
796.941	56.57
797.252	57.26
797.564	57.13
797.875	57.38
798.186	57.43
798.497	57.29
798.809	57.25
799.12	57.21
799.431	57.67
799.742	57.45
800.053	57.75
800.364	57.94
800.675	57.51
800.986	57.07
801.297	56.1
801.608	55.84
801.918	55.79
802.229	55.96
802.54	55.54
802.851	55.4
803.161	55.59
803.472	55.97
803.782	55.26
804.093	55
804.403	54.83
804.714	54.91
805.024	54.35
805.334	54.72
805.645	54.26
805.955	54.28
806.265	53.62
806.575	53.37
806.885	53.34
807.195	53.9
807.505	53.85
807.815	54.39
808.125	54.27
808.435	54.41
808.745	54.24
809.055	54.51
809.365	54.92
809.674	55
809.984	54.65
810.294	54.73
810.603	55.27
810.913	54.83
811.222	55.01
811.532	55.96
811.841	56.04
812.151	56.64
812.46	56.68
812.769	57.25
813.079	57.36
813.388	58.08
813.697	58.53
814.006	58.71
814.315	59.01
814.624	58.94
814.933	59.26
815.242	59.85
815.551	60.17
815.86	60.19
816.169	60.35
816.478	60.19
816.786	60.23
817.095	60.19
817.404	60.21
817.712	60.02
818.021	59.52
818.33	58.66
818.638	58.99
818.947	58.86
819.255	58.67
819.563	58.27
819.872	57.8
820.18	57.37
820.488	57.2
820.796	57.19
821.105	57.54
821.413	57.51
821.721	57.08
822.029	56.92
822.337	56.93
822.645	56.88
822.953	56.88
823.26	56.92
823.568	56.74
823.876	56.89
824.184	56.8
824.491	56.86
824.799	56.98
825.107	56.91
825.414	56.92
825.722	56.97
826.029	57.11
826.337	57.25
826.644	57.26
826.951	57.45
827.259	57.38
827.566	57.07
827.873	57.24
828.18	57.41
828.488	57.56
828.795	57.47
829.102	57.54
829.409	57.86
829.716	58.08
830.023	58.13
830.329	58.15
830.636	58.47
830.943	58.29
831.25	58.16
831.557	57.66
831.863	57.56
832.17	57.78
832.476	57.81
832.783	57.08
833.089	56.77
833.396	56.66
833.702	56.8
834.009	57.39
834.315	57.07
834.621	57.71
834.928	57.59
835.234	57.72
835.54	57.32
835.846	56.83
836.152	56.46
836.458	57.11
836.764	56.64
837.07	56.6
837.376	57.11
837.682	57.74
837.988	58.01
838.293	57.74
838.599	57.36
838.905	56.72
839.211	57.5
839.516	57.76
839.822	57.62
840.127	57.75
840.433	57.24
840.738	57.31
841.044	56.2
841.349	56.97
841.654	56.86
841.959	58.57
842.265	58.98
842.57	58.51
842.875	57.33
843.18	57.14
843.485	58
843.79	56.75
844.095	55.34
844.4	56.05
844.705	54.47
845.01	53.69
845.315	55.6
845.619	55.37
845.924	54.2
846.229	52.7
846.533	52.85
846.838	51.79
847.142	50.92
847.447	51.21
847.751	49.02
848.056	49.12
848.36	48.75
848.664	48.49
848.969	49.9
849.273	50.25
849.577	53.04
849.881	51.52
850.185	51.84
850.489	52.12
850.794	51.84
851.097	55.58
851.401	55.15
851.705	52.52
852.009	54.46
852.313	58.38
852.617	59.88
852.92	58.02
853.224	58.72
853.528	58.35
853.831	58.58
854.135	59.27
854.438	57.86
854.742	56.85
855.045	58.01
855.349	57.94
855.652	57.74
855.955	56.34
856.259	55.66
856.562	55.28
856.865	55.23
857.168	53.34
857.471	52.55
857.774	53.24
858.077	55.09
858.38	53.42
858.683	52.21
858.986	55.8
859.289	57.96
859.592	56.69
859.894	57.4
860.197	55.5
860.5	54.62
860.802	54.01
861.105	53.06
861.407	51.44
861.71	51.72
862.012	52.94
862.315	52.35
862.617	54.24
862.919	55.27
863.222	56.34
863.524	57.32
863.826	56.38
864.128	59.8
864.43	58.28
864.732	60.93
865.034	58.89
865.336	55.55
865.638	53.04
865.94	54.6
866.242	53.75
866.544	56.08
866.846	55.21
867.147	56.6
867.449	58.91
867.751	58.61
868.052	58.55
868.354	56.34
868.655	56.2
868.957	53.78
869.258	53.53
869.56	54.85
869.861	55
870.162	55.44
870.463	53.35
870.765	54.4
871.066	51.73
871.367	54.14
871.668	55.56
871.969	57.83
872.27	59.37
872.571	59.79
872.872	59.29
873.173	60.37
873.473	60.8
873.774	60.05
874.075	59.81
874.376	59.83
874.676	62.35
874.977	62.89
875.277	66.52
875.578	67.73
875.878	66.15
876.179	67.77
876.479	68.49
876.78	68.95
877.08	69.95
877.38	71.13
877.68	70.72
877.981	68.8
878.281	68.49
878.581	66.65
