Data from BU57652_Reflection_00001.txt Node
Date: Tue Nov 19 10:43:03 EST 2019
User: vgr7
Spectrometer: USB2G7710
Scans to average: 3
Trigger mode: 4
Integration Time (sec): 2.000000E-2
Electric dark correction enabled: true
Boxcar width: 10
XAxis mode: Wavelengths
Number of Pixels in Spectrum: 2048
>>>>>Begin Spectral Data<<<<<
177.721	-46.97
178.105	-67.88
178.488	-160.5
178.871	-135.79
179.254	-96.77
179.636	-13.18
180.019	-2.02
180.402	112.5
180.785	-98.36
181.168	-180.41
181.55	2907.69
181.933	-320.79
182.316	-676.6
182.698	-140.59
183.081	-163.01
183.463	-280.24
183.846	-246.89
184.228	-766.34
184.611	-129.73
184.993	-71.5
185.376	-60.29
185.758	-57.7
186.14	-65.26
186.522	-50.99
186.904	-66.48
187.287	-64.04
187.669	-53.3
188.051	-35.83
188.433	-59.25
188.815	-41.63
189.197	-34.13
189.579	-27.03
189.961	-33.95
190.342	-36.84
190.724	-24.66
191.106	-31.65
191.488	-18.77
191.869	-15.91
192.251	-10.54
192.633	-12.53
193.014	-12.84
193.396	-5.38
193.777	-0.48
194.159	5.51
194.54	3
194.922	4.18
195.303	8.87
195.684	16.63
196.065	14.33
196.447	29.62
196.828	20.57
197.209	27.89
197.59	37.03
197.971	43.28
198.352	54.01
198.733	39.44
199.114	30.45
199.495	37.78
199.876	21
200.257	39.12
200.638	38.51
201.018	13.61
201.399	16.62
201.78	1.29
202.16	4.07
202.541	-4.32
202.922	-7
203.302	-20.8
203.683	-33.78
204.063	-43.18
204.444	-52.89
204.824	-41.16
205.204	-47.74
205.585	-77.78
205.965	-91.33
206.345	-115.28
206.725	-98.99
207.106	-92.75
207.486	-84.24
207.866	-66.44
208.246	-78.88
208.626	-105.75
209.006	-98.75
209.386	-159.46
209.766	-147.59
210.145	-168.25
210.525	-170.41
210.905	-282.7
211.285	-149.03
211.664	-80.57
212.044	-98.63
212.424	-71.32
212.803	-102.08
213.183	-88.18
213.562	-58.2
213.942	-50.38
214.321	-54.97
214.701	-66.96
215.08	-76.53
215.459	-81.55
215.838	-83.09
216.218	-83.61
216.597	-69.15
216.976	-76.46
217.355	-64.87
217.734	-77.17
218.113	-54.42
218.492	-62.03
218.871	-47.09
219.25	-54.1
219.629	-64.02
220.008	-56.12
220.387	-63.89
220.766	-57
221.144	-63.22
221.523	-72.05
221.902	-59.75
222.28	-51.43
222.659	-40.99
223.037	-39.42
223.416	-39.54
223.794	-33.59
224.173	-38.43
224.551	-36.15
224.929	-27.27
225.308	-24.79
225.686	-21.09
226.064	-26.25
226.442	-9.87
226.821	-17.63
227.199	-13.41
227.577	-14.48
227.955	-6.92
228.333	-3.61
228.711	-1.71
229.089	2.83
229.467	2.86
229.845	1.56
230.222	5.59
230.6	5.32
230.978	5.46
231.356	7.47
231.733	7.04
232.111	6.1
232.488	3.59
232.866	4.94
233.243	4.95
233.621	5.79
233.998	3.77
234.376	1.68
234.753	0.74
235.13	1.46
235.508	4.54
235.885	1.78
236.262	1.67
236.639	0.65
237.016	-0.5
237.393	0.72
237.77	1.51
238.147	0.98
238.524	1.02
238.901	0.89
239.278	0.57
239.655	0.35
240.032	0.46
240.409	1.12
240.785	0.23
241.162	-0
241.539	-0.19
241.915	0.4
242.292	0.55
242.668	1.34
243.045	1.49
243.421	1.04
243.798	1.67
244.174	1.61
244.551	1.75
244.927	1.88
245.303	1.69
245.679	1.56
246.056	1.6
246.432	1.63
246.808	1.65
247.184	1.58
247.56	1.76
247.936	2.11
248.312	2.22
248.688	2.55
249.064	2.63
249.44	2.48
249.815	2.56
250.191	2.87
250.567	2.86
250.943	2.84
251.318	3.02
251.694	2.8
252.069	2.8
252.445	3.16
252.82	3.23
253.196	3.46
253.571	3.4
253.947	3.44
254.322	3.7
254.697	3.59
255.073	3.61
255.448	3.43
255.823	3.24
256.198	3.11
256.573	2.98
256.948	2.92
257.323	3.04
257.698	3.18
258.073	2.71
258.448	2.67
258.823	2.59
259.198	2.59
259.573	2.48
259.948	2.47
260.322	2.35
260.697	2.32
261.072	2.34
261.446	2.34
261.821	2.17
262.195	2.1
262.57	2.22
262.944	2.27
263.319	2.29
263.693	2.12
264.067	2.22
264.442	2.12
264.816	2.12
265.19	2.2
265.564	1.83
265.938	1.87
266.313	1.69
266.687	1.72
267.061	1.65
267.435	1.7
267.809	1.61
268.183	1.4
268.556	1.28
268.93	1.24
269.304	1.15
269.678	1.32
270.051	1.38
270.425	1.35
270.799	1.18
271.172	1.2
271.546	1.39
271.919	1.31
272.293	1.39
272.666	1.41
273.04	1.47
273.413	1.57
273.787	1.62
274.16	1.67
274.533	1.67
274.906	1.71
275.279	1.65
275.653	1.74
276.026	2
276.399	1.97
276.772	2.02
277.145	2.11
277.518	2.09
277.891	2.08
278.263	1.93
278.636	2.11
279.009	2.09
279.382	2.23
279.755	2.17
280.127	2.24
280.5	1.99
280.872	1.91
281.245	1.92
281.617	1.95
281.99	2.05
282.362	2.07
282.735	2.13
283.107	2.26
283.479	2.2
283.852	2.09
284.224	2.09
284.596	2.04
284.968	2.07
285.34	2.17
285.713	2.22
286.085	2.29
286.457	2.29
286.829	2.28
287.201	2.16
287.572	2.3
287.944	2.37
288.316	2.44
288.688	2.43
289.06	2.34
289.431	2.36
289.803	2.41
290.175	2.34
290.546	2.23
290.918	2.12
291.289	2.07
291.661	1.98
292.032	2.04
292.403	2.1
292.775	2.06
293.146	1.94
293.517	1.87
293.889	1.86
294.26	1.8
294.631	1.85
295.002	1.84
295.373	1.74
295.744	1.65
296.115	1.76
296.486	1.76
296.857	1.85
297.228	1.86
297.599	1.86
297.97	1.91
298.34	1.98
298.711	2.06
299.082	2.11
299.452	2.21
299.823	2.31
300.194	2.38
300.564	2.3
300.935	2.41
301.305	2.34
301.676	2.35
302.046	2.45
302.416	2.45
302.787	2.45
303.157	2.54
303.527	2.75
303.897	2.73
304.267	2.76
304.637	2.79
305.008	2.77
305.378	2.8
305.748	2.79
306.117	2.8
306.487	2.81
306.857	2.95
307.227	3.02
307.597	2.85
307.967	2.71
308.336	2.96
308.706	2.95
309.076	3.09
309.445	3.12
309.815	3
310.184	2.86
310.554	2.89
310.923	2.8
311.293	2.61
311.662	2.7
312.031	2.6
312.401	2.65
312.77	2.73
313.139	2.7
313.508	2.79
313.877	2.8
314.246	2.7
314.616	2.62
314.985	2.58
315.353	2.81
315.722	2.85
316.091	2.76
316.46	2.66
316.829	2.5
317.198	2.7
317.567	2.75
317.935	2.79
318.304	2.9
318.672	2.94
319.041	2.88
319.41	2.81
319.778	2.75
320.147	2.64
320.515	2.62
320.883	2.53
321.252	2.43
321.62	2.33
321.988	2.47
322.357	2.46
322.725	2.44
323.093	2.36
323.461	2.31
323.829	2.26
324.197	2.25
324.565	2.39
324.933	2.15
325.301	2.17
325.669	2.29
326.037	2.19
326.405	2.19
326.772	2.34
327.14	2.24
327.508	2.31
327.875	2.29
328.243	2.24
328.61	2.22
328.978	2.17
329.346	2.19
329.713	2.1
330.08	2.18
330.448	2.2
330.815	2.15
331.182	2.19
331.55	2.19
331.917	2.18
332.284	2.13
332.651	2.21
333.018	2.14
333.385	2.11
333.752	2.17
334.119	2.25
334.486	2.13
334.853	2.12
335.22	2.11
335.587	2.19
335.954	2.09
336.32	2.02
336.687	2.1
337.054	2.09
337.42	2.1
337.787	2.14
338.153	2.08
338.52	2.12
338.886	2.03
339.253	2.03
339.619	2.22
339.986	2.23
340.352	2.29
340.718	2.48
341.084	2.46
341.451	2.5
341.817	2.43
342.183	2.54
342.549	2.67
342.915	2.73
343.281	2.69
343.647	2.69
344.013	2.81
344.379	2.81
344.745	2.95
345.11	3.04
345.476	3.07
345.842	3.13
346.208	3.1
346.573	3.16
346.939	3.18
347.304	3.15
347.67	3.03
348.035	2.95
348.401	2.94
348.766	2.9
349.132	2.87
349.497	2.94
349.862	2.9
350.228	2.87
350.593	2.95
350.958	3
351.323	3.02
351.688	3
352.053	3.03
352.418	2.94
352.783	2.93
353.148	2.85
353.513	2.83
353.878	2.75
354.243	2.72
354.608	2.76
354.972	2.68
355.337	2.8
355.702	2.82
356.066	2.76
356.431	2.81
356.795	2.76
357.16	2.74
357.524	2.67
357.889	2.7
358.253	2.62
358.618	2.55
358.982	2.58
359.346	2.58
359.71	2.52
360.075	2.52
360.439	2.54
360.803	2.57
361.167	2.6
361.531	2.66
361.895	2.72
362.259	2.72
362.623	2.76
362.987	2.73
363.351	2.75
363.714	2.75
364.078	2.75
364.442	2.78
364.806	2.82
365.169	2.83
365.533	2.84
365.896	2.88
366.26	2.91
366.623	2.89
366.987	2.9
367.35	2.9
367.714	2.91
368.077	2.9
368.44	2.92
368.803	2.88
369.167	2.84
369.53	2.77
369.893	2.77
370.256	2.75
370.619	2.68
370.982	2.68
371.345	2.72
371.708	2.75
372.071	2.74
372.434	2.68
372.797	2.74
373.159	2.71
373.522	2.73
373.885	2.8
374.247	2.81
374.61	2.79
374.973	2.88
375.335	2.83
375.698	2.82
376.06	2.77
376.423	2.79
376.785	2.85
377.147	2.87
377.51	2.84
377.872	2.84
378.234	2.93
378.596	2.91
378.958	2.91
379.321	2.92
379.683	2.92
380.045	2.93
380.407	2.9
380.769	2.91
381.13	2.86
381.492	2.8
381.854	2.84
382.216	2.87
382.578	2.84
382.939	2.87
383.301	2.85
383.663	2.92
384.024	2.9
384.386	2.93
384.747	2.92
385.109	2.95
385.47	2.95
385.832	2.93
386.193	2.99
386.554	2.92
386.916	2.91
387.277	2.92
387.638	2.93
387.999	2.93
388.36	2.93
388.721	2.95
389.082	2.93
389.443	2.96
389.804	2.95
390.165	2.95
390.526	2.98
390.887	2.99
391.248	2.95
391.609	2.96
391.969	2.94
392.33	2.96
392.691	2.94
393.051	2.95
393.412	2.95
393.772	2.95
394.133	2.98
394.493	2.96
394.854	2.92
395.214	2.94
395.574	2.94
395.935	2.95
396.295	2.94
396.655	2.98
397.015	2.96
397.376	2.94
397.736	2.92
398.096	2.88
398.456	2.88
398.816	2.87
399.176	2.87
399.535	2.85
399.895	2.82
400.255	2.88
400.615	2.84
400.975	2.84
401.334	2.8
401.694	2.85
402.054	2.84
402.413	2.85
402.773	2.83
403.132	2.83
403.492	2.79
403.851	2.79
404.211	2.75
404.57	2.75
404.929	2.74
405.288	2.75
405.648	2.76
406.007	2.76
406.366	2.75
406.725	2.78
407.084	2.8
407.443	2.8
407.802	2.77
408.161	2.8
408.52	2.78
408.879	2.77
409.238	2.73
409.596	2.75
409.955	2.73
410.314	2.74
410.673	2.76
411.031	2.78
411.39	2.76
411.748	2.77
412.107	2.77
412.465	2.78
412.824	2.77
413.182	2.76
413.54	2.78
413.899	2.81
414.257	2.8
414.615	2.79
414.974	2.8
415.332	2.81
415.69	2.82
416.048	2.82
416.406	2.84
416.764	2.84
417.122	2.83
417.48	2.84
417.838	2.84
418.195	2.83
418.553	2.84
418.911	2.86
419.269	2.86
419.626	2.87
419.984	2.87
420.342	2.88
420.699	2.86
421.057	2.84
421.414	2.84
421.772	2.85
422.129	2.83
422.486	2.84
422.844	2.83
423.201	2.83
423.558	2.84
423.915	2.83
424.273	2.83
424.63	2.85
424.987	2.85
425.344	2.84
425.701	2.85
426.058	2.83
426.415	2.8
426.772	2.79
427.128	2.79
427.485	2.78
427.842	2.77
428.199	2.79
428.555	2.79
428.912	2.78
429.269	2.76
429.625	2.78
429.982	2.78
430.338	2.79
430.695	2.79
431.051	2.78
431.407	2.76
431.764	2.76
432.12	2.76
432.476	2.77
432.832	2.77
433.189	2.77
433.545	2.77
433.901	2.79
434.257	2.8
434.613	2.79
434.969	2.78
435.325	2.8
435.681	2.79
436.036	2.79
436.392	2.78
436.748	2.78
437.104	2.77
437.459	2.76
437.815	2.74
438.171	2.74
438.526	2.75
438.882	2.77
439.237	2.78
439.593	2.78
439.948	2.79
440.304	2.77
440.659	2.78
441.014	2.78
441.369	2.78
441.725	2.78
442.08	2.79
442.435	2.81
442.79	2.8
443.145	2.8
443.5	2.8
443.855	2.81
444.21	2.81
444.565	2.82
444.92	2.82
445.275	2.82
445.629	2.81
445.984	2.81
446.339	2.82
446.693	2.83
447.048	2.82
447.403	2.8
447.757	2.81
448.112	2.82
448.466	2.83
448.82	2.83
449.175	2.81
449.529	2.8
449.883	2.8
450.238	2.8
450.592	2.8
450.946	2.81
451.3	2.81
451.654	2.79
452.008	2.8
452.362	2.81
452.716	2.79
453.07	2.82
453.424	2.82
453.778	2.8
454.132	2.76
454.486	2.78
454.839	2.77
455.193	2.77
455.547	2.77
455.9	2.75
456.254	2.76
456.607	2.77
456.961	2.77
457.314	2.76
457.668	2.78
458.021	2.76
458.375	2.75
458.728	2.74
459.081	2.76
459.434	2.74
459.787	2.74
460.141	2.77
460.494	2.76
460.847	2.76
461.2	2.75
461.553	2.77
461.906	2.76
462.259	2.76
462.611	2.76
462.964	2.78
463.317	2.78
463.67	2.79
464.022	2.79
464.375	2.79
464.728	2.81
465.08	2.8
465.433	2.82
465.785	2.84
466.138	2.84
466.49	2.82
466.843	2.84
467.195	2.84
467.547	2.82
467.899	2.81
468.252	2.81
468.604	2.84
468.956	2.85
469.308	2.85
469.66	2.88
470.012	2.89
470.364	2.86
470.716	2.87
471.068	2.85
471.42	2.85
471.772	2.84
472.123	2.85
472.475	2.85
472.827	2.86
473.178	2.86
473.53	2.87
473.882	2.88
474.233	2.89
474.585	2.9
474.936	2.9
475.288	2.91
475.639	2.92
475.99	2.91
476.342	2.91
476.693	2.93
477.044	2.91
477.395	2.91
477.746	2.92
478.097	2.91
478.448	2.91
478.8	2.92
479.15	2.92
479.501	2.91
479.852	2.92
480.203	2.92
480.554	2.91
480.905	2.92
481.255	2.92
481.606	2.92
481.957	2.92
482.307	2.92
482.658	2.93
483.009	2.93
483.359	2.94
483.709	2.94
484.06	2.93
484.41	2.94
484.761	2.94
485.111	2.95
485.461	2.95
485.811	2.95
486.162	2.95
486.512	2.96
486.862	2.96
487.212	2.96
487.562	2.95
487.912	2.96
488.262	2.95
488.612	2.95
488.961	2.95
489.311	2.95
489.661	2.96
490.011	2.96
490.36	2.96
490.71	2.96
491.06	2.97
491.409	2.97
491.759	2.96
492.108	2.96
492.458	2.95
492.807	2.96
493.157	2.95
493.506	2.96
493.855	2.96
494.204	2.96
494.554	2.96
494.903	2.97
495.252	2.97
495.601	2.98
495.95	2.98
496.299	3
496.648	3
496.997	2.98
497.346	2.99
497.695	3
498.043	2.99
498.392	2.99
498.741	2.97
499.09	2.98
499.438	2.98
499.787	3.02
500.135	3.01
500.484	3.02
500.832	3.05
501.181	3.05
501.529	3.06
501.878	3.07
502.226	3.07
502.574	3.05
502.923	3.04
503.271	3.03
503.619	3.03
503.967	3.03
504.315	3.06
504.663	3.04
505.011	3.04
505.359	3.04
505.707	3.05
506.055	3.09
506.403	3.07
506.751	3.07
507.098	3.07
507.446	3.09
507.794	3.1
508.141	3.09
508.489	3.11
508.837	3.12
509.184	3.13
509.531	3.16
509.879	3.18
510.226	3.22
510.574	3.26
510.921	3.26
511.268	3.28
511.616	3.3
511.963	3.31
512.31	3.33
512.657	3.34
513.004	3.34
513.351	3.34
513.698	3.35
514.045	3.36
514.392	3.36
514.739	3.38
515.086	3.38
515.432	3.38
515.779	3.37
516.126	3.37
516.473	3.38
516.819	3.38
517.166	3.39
517.512	3.37
517.859	3.37
518.205	3.34
518.552	3.34
518.898	3.32
519.245	3.35
519.591	3.35
519.937	3.36
520.283	3.35
520.629	3.36
520.976	3.36
521.322	3.38
521.668	3.39
522.014	3.38
522.36	3.39
522.706	3.38
523.052	3.41
523.398	3.41
523.743	3.42
524.089	3.43
524.435	3.44
524.781	3.45
525.126	3.46
525.472	3.49
525.817	3.5
526.163	3.5
526.509	3.49
526.854	3.49
527.199	3.49
527.545	3.51
527.89	3.51
528.235	3.51
528.581	3.51
528.926	3.51
529.271	3.52
529.616	3.52
529.961	3.53
530.306	3.53
530.651	3.53
530.996	3.53
531.341	3.54
531.686	3.54
532.031	3.54
532.376	3.55
532.721	3.55
533.065	3.56
533.41	3.58
533.755	3.59
534.099	3.59
534.444	3.6
534.788	3.59
535.133	3.6
535.477	3.61
535.822	3.62
536.166	3.62
536.51	3.61
536.855	3.6
537.199	3.61
537.543	3.62
537.887	3.63
538.231	3.62
538.576	3.59
538.92	3.61
539.264	3.6
539.608	3.6
539.951	3.59
540.295	3.58
540.639	3.57
540.983	3.57
541.327	3.58
541.671	3.59
542.014	3.61
542.358	3.6
542.701	3.6
543.045	3.6
543.389	3.6
543.732	3.62
544.075	3.63
544.419	3.62
544.762	3.6
545.105	3.6
545.449	3.62
545.792	3.63
546.135	3.62
546.478	3.62
546.821	3.62
547.165	3.63
547.508	3.64
547.851	3.63
548.194	3.62
548.536	3.62
548.879	3.59
549.222	3.6
549.565	3.62
549.908	3.63
550.25	3.63
550.593	3.64
550.936	3.61
551.278	3.62
551.621	3.62
551.963	3.66
552.306	3.65
552.648	3.64
552.991	3.66
553.333	3.67
553.675	3.69
554.017	3.7
554.36	3.72
554.702	3.7
555.044	3.74
555.386	3.72
555.728	3.73
556.07	3.74
556.412	3.73
556.754	3.69
557.096	3.69
557.438	3.7
557.78	3.7
558.121	3.73
558.463	3.7
558.805	3.72
559.147	3.72
559.488	3.72
559.83	3.74
560.171	3.72
560.513	3.74
560.854	3.77
561.196	3.78
561.537	3.77
561.878	3.8
562.22	3.82
562.561	3.83
562.902	3.83
563.243	3.83
563.584	3.85
563.925	3.86
564.266	3.85
564.607	3.83
564.948	3.81
565.289	3.83
565.63	3.81
565.971	3.8
566.312	3.76
566.653	3.76
566.993	3.75
567.334	3.78
567.675	3.77
568.015	3.73
568.356	3.71
568.696	3.72
569.037	3.7
569.377	3.66
569.718	3.68
570.058	3.65
570.398	3.64
570.739	3.63
571.079	3.59
571.419	3.59
571.759	3.61
572.099	3.63
572.439	3.61
572.779	3.67
573.119	3.68
573.459	3.68
573.799	3.69
574.139	3.67
574.479	3.66
574.819	3.66
575.158	3.68
575.498	3.67
575.838	3.65
576.177	3.64
576.517	3.65
576.856	3.64
577.196	3.68
577.535	3.69
577.875	3.69
578.214	3.71
578.553	3.7
578.893	3.7
579.232	3.71
579.571	3.7
579.91	3.67
580.25	3.66
580.589	3.66
580.928	3.67
581.267	3.66
581.606	3.68
581.945	3.68
582.283	3.64
582.622	3.62
582.961	3.65
583.3	3.68
583.639	3.72
583.977	3.76
584.316	3.76
584.654	3.81
584.993	3.82
585.332	3.82
585.67	3.83
586.008	3.84
586.347	3.87
586.685	3.86
587.024	3.87
587.362	3.87
587.7	3.9
588.038	3.9
588.376	3.93
588.715	3.96
589.053	3.94
589.391	3.97
589.729	4
590.067	4.01
590.404	4
590.742	3.97
591.08	3.96
591.418	3.97
591.756	3.93
592.093	3.94
592.431	3.97
592.769	3.98
593.106	3.95
593.444	3.94
593.781	3.94
594.119	3.93
594.456	3.93
594.793	3.92
595.131	3.93
595.468	3.94
595.805	3.89
596.143	3.88
596.48	3.92
596.817	3.92
597.154	3.9
597.491	3.9
597.828	3.89
598.165	3.87
598.502	3.84
598.839	3.85
599.176	3.86
599.512	3.85
599.849	3.86
600.186	3.88
600.523	3.88
600.859	3.89
601.196	3.89
601.532	3.9
601.869	3.9
602.205	3.9
602.542	3.92
602.878	3.97
603.215	3.95
603.551	3.91
603.887	3.91
604.223	3.92
604.56	3.93
604.896	3.95
605.232	3.95
605.568	3.95
605.904	3.93
606.24	3.92
606.576	3.92
606.912	3.91
607.248	3.95
607.583	3.97
607.919	3.97
608.255	3.97
608.591	3.98
608.926	3.96
609.262	3.95
609.597	3.95
609.933	3.96
610.268	3.97
610.604	3.95
610.939	3.93
611.275	3.94
611.61	3.93
611.945	3.9
612.281	3.95
612.616	3.99
612.951	4.06
613.286	4.07
613.621	4.08
613.956	4.14
614.291	4.07
614.626	4.05
614.961	4.06
615.296	4.06
615.631	4.05
615.966	4.06
616.3	4.05
616.635	4.06
616.97	3.99
617.304	4
617.639	4.08
617.973	4.12
618.308	4.12
618.642	4.1
618.977	4.08
619.311	4.05
619.646	4.01
619.98	3.96
620.314	3.95
620.648	3.9
620.983	3.79
621.317	3.86
621.651	3.86
621.985	3.84
622.319	3.84
622.653	3.89
622.987	3.92
623.321	3.95
623.655	3.95
623.988	4.01
624.322	4
624.656	3.99
624.99	3.92
625.323	3.89
625.657	3.92
625.99	3.98
626.324	3.98
626.657	4.01
626.991	4.01
627.324	4
627.658	4.02
627.991	4.07
628.324	4.04
628.657	4.04
628.991	4.14
629.324	4.17
629.657	4.11
629.99	4.11
630.323	4.1
630.656	4.11
630.989	4.09
631.322	4.11
631.655	4.09
631.987	4.11
632.32	4.13
632.653	4.17
632.986	4.19
633.318	4.19
633.651	4.17
633.984	4.18
634.316	4.19
634.649	4.21
634.981	4.2
635.313	4.25
635.646	4.25
635.978	4.18
636.31	4.23
636.643	4.24
636.975	4.28
637.307	4.29
637.639	4.26
637.971	4.24
638.303	4.21
638.635	4.24
638.967	4.26
639.299	4.28
639.631	4.26
639.963	4.24
640.295	4.25
640.626	4.25
640.958	4.26
641.29	4.34
641.621	4.32
641.953	4.31
642.285	4.3
642.616	4.3
642.948	4.27
643.279	4.22
643.61	4.24
643.942	4.24
644.273	4.21
644.604	4.22
644.936	4.22
645.267	4.25
645.598	4.25
645.929	4.26
646.26	4.21
646.591	4.19
646.922	4.18
647.253	4.17
647.584	4.17
647.915	4.18
648.245	4.15
648.576	4.14
648.907	4.19
649.238	4.06
649.568	4.06
649.899	4.14
650.229	4.17
650.56	4.21
650.89	4.18
651.221	4.26
651.551	4.28
651.882	4.33
652.212	4.35
652.542	4.27
652.872	4.34
653.203	4.45
653.533	4.47
653.863	4.5
654.193	4.49
654.523	4.5
654.853	4.46
655.183	4.47
655.513	4.46
655.843	4.39
656.172	4.54
656.502	4.51
656.832	4.38
657.162	4.31
657.491	4.26
657.821	4.23
658.15	4.15
658.48	4.15
658.809	4.15
659.139	4.15
659.468	4.2
659.798	4.14
660.127	4.11
660.456	4.08
660.785	4.05
661.115	4.07
661.444	4.11
661.773	4.19
662.102	4.13
662.431	4.19
662.76	4.23
663.089	4.19
663.418	4.23
663.747	4.29
664.076	4.32
664.404	4.38
664.733	4.4
665.062	4.47
665.39	4.48
665.719	4.43
666.048	4.41
666.376	4.43
666.705	4.48
667.033	4.48
667.362	4.49
667.69	4.47
668.018	4.5
668.347	4.39
668.675	4.35
669.003	4.42
669.331	4.37
669.659	4.28
669.987	4.28
670.315	4.24
670.643	4.27
670.971	4.3
671.299	4.19
671.627	4.27
671.955	4.28
672.283	4.27
672.61	4.2
672.938	4.26
673.266	4.2
673.593	4.2
673.921	4.12
674.249	4.17
674.576	4.18
674.904	4.13
675.231	4.21
675.558	4.24
675.886	4.3
676.213	4.36
676.54	4.51
676.867	4.48
677.195	4.54
677.522	4.49
677.849	4.59
678.176	4.63
678.503	4.59
678.83	4.54
679.157	4.52
679.484	4.56
679.81	4.54
680.137	4.65
680.464	4.66
680.791	4.7
681.117	4.76
681.444	4.73
681.771	4.77
682.097	4.8
682.424	4.79
682.75	4.8
683.077	4.79
683.403	4.73
683.729	4.69
684.056	4.65
684.382	4.74
684.708	4.69
685.034	4.77
685.36	4.66
685.686	4.75
686.012	4.76
686.339	4.73
686.664	4.76
686.99	4.64
687.316	4.6
687.642	4.58
687.968	4.48
688.294	4.59
688.619	4.64
688.945	4.59
689.271	4.6
689.596	4.5
689.922	4.46
690.247	4.46
690.573	4.5
690.898	4.64
691.224	4.56
691.549	4.58
691.874	4.56
692.2	4.56
692.525	4.47
692.85	4.55
693.175	4.74
693.5	4.62
693.825	4.65
694.15	4.65
694.475	4.7
694.8	4.73
695.125	4.68
695.45	4.55
695.775	4.62
696.099	4.63
696.424	4.66
696.749	4.73
697.073	4.8
697.398	4.82
697.723	4.75
698.047	4.79
698.372	4.8
698.696	4.82
699.02	4.91
699.345	4.99
699.669	4.97
699.993	4.92
700.318	5.08
700.642	5.21
700.966	5.31
701.29	5.32
701.614	5.35
701.938	5.36
702.262	5.41
702.586	5.38
702.91	5.48
703.234	5.5
703.557	5.47
703.881	5.49
704.205	5.51
704.529	5.55
704.852	5.49
705.176	5.61
705.499	5.58
705.823	5.57
706.146	5.52
706.47	5.54
706.793	5.6
707.117	5.58
707.44	5.4
707.763	5.36
708.086	5.33
708.409	5.37
708.733	5.36
709.056	5.44
709.379	5.5
709.702	5.35
710.025	5.32
710.348	5.27
710.671	5.37
710.993	5.47
711.316	5.51
711.639	5.58
711.962	5.45
712.284	5.54
712.607	5.56
712.93	5.63
713.252	5.55
713.575	5.45
713.897	5.41
714.22	5.41
714.542	5.44
714.864	5.39
715.187	5.31
715.509	5.42
715.831	5.33
716.153	5.18
716.475	5.26
716.798	5.29
717.12	5.33
717.442	5.19
717.764	5.14
718.085	5.09
718.407	5.09
718.729	4.93
719.051	4.84
719.373	4.79
719.695	4.67
720.016	4.82
720.338	4.83
720.659	4.72
720.981	4.76
721.302	4.84
721.624	4.95
721.945	4.97
722.267	4.85
722.588	4.96
722.909	5.12
723.231	4.94
723.552	4.98
723.873	5.08
724.194	5.13
724.515	4.98
724.836	4.95
725.157	4.94
725.478	4.95
725.799	4.96
726.12	5.02
726.441	4.99
726.762	4.98
727.083	5.15
727.403	5.21
727.724	5.43
728.045	5.31
728.365	5.34
728.686	5.32
729.006	5.33
729.327	5.39
729.647	5.37
729.967	5.47
730.288	5.55
730.608	5.51
730.928	5.39
731.249	5.56
731.569	5.6
731.889	5.56
732.209	5.75
732.529	5.79
732.849	5.78
733.169	5.74
733.489	5.56
733.809	5.37
734.129	5.4
734.448	5.23
734.768	5.36
735.088	5.25
735.408	5.36
735.727	5.44
736.047	5.34
736.366	5.39
736.686	5.46
737.005	5.38
737.325	5.33
737.644	5.42
737.963	5.32
738.283	5.26
738.602	5.59
738.921	5.57
739.24	5.68
739.56	5.73
739.879	5.97
740.198	6.08
740.517	6.2
740.836	6.19
741.155	6.15
741.473	6
741.792	5.95
742.111	6.03
742.43	6
742.748	6.07
743.067	5.93
743.386	5.93
743.704	5.96
744.023	5.96
744.341	5.88
744.66	6.14
744.978	6.16
745.297	5.86
745.615	5.73
745.933	5.62
746.252	5.56
746.57	5.65
746.888	5.72
747.206	5.62
747.524	5.67
747.842	5.64
748.16	5.85
748.478	6.19
748.796	6.12
749.114	6.46
749.432	6.63
749.749	6.57
750.067	6.49
750.385	6.48
750.703	6.52
751.02	6.48
751.338	6.15
751.655	6.24
751.973	6.24
752.29	6.23
752.608	6.05
752.925	6.31
753.242	6.21
753.56	6
753.877	6.03
754.194	6.17
754.511	6.09
754.828	5.87
755.145	5.64
755.462	5.53
755.779	5.19
756.096	5.24
756.413	5.34
756.73	5.27
757.047	5.3
757.364	5.18
757.68	5.29
757.997	5.57
758.314	5.64
758.63	5.6
758.947	5.71
759.264	5.87
759.58	5.65
759.896	5.46
760.213	5.58
760.529	5.56
760.846	5.53
761.162	5.66
761.478	5.6
761.794	5.78
762.11	5.87
762.426	5.81
762.743	5.76
763.059	5.74
763.375	5.91
763.69	5.86
764.006	5.85
764.322	5.98
764.638	5.93
764.954	6.07
765.27	6.2
765.585	6.35
765.901	6.37
766.216	6.39
766.532	6.46
766.848	6.46
767.163	6.49
767.478	6.32
767.794	6.13
768.109	6.33
768.424	6.15
768.74	6.03
769.055	6.13
769.37	6.11
769.685	6.18
770	5.98
770.315	6.03
770.63	6.05
770.945	5.88
771.26	5.67
771.575	5.53
771.89	5.55
772.205	5.32
772.52	5.21
772.834	4.9
773.149	4.8
773.464	5.1
773.778	5.23
774.093	5.7
774.407	6.13
774.722	6.12
775.036	6.35
775.351	6.55
775.665	6.63
775.979	6.35
776.293	6.53
776.608	6.65
776.922	6.42
777.236	6.57
777.55	6.48
777.864	6.56
778.178	6.28
778.492	6.24
778.806	6.12
779.12	6.24
779.434	6.82
779.747	6.96
780.061	6.72
780.375	6.65
780.689	6.19
781.002	6.17
781.316	6.2
781.629	5.82
781.943	5.91
782.256	5.71
782.57	6.27
782.883	6.2
783.196	6.39
783.51	6.83
783.823	7
784.136	7.29
784.449	7.51
784.762	7.63
785.075	7.47
785.388	7.63
785.701	7.62
786.014	7.56
786.327	7.8
786.64	7.84
786.953	7.8
787.266	7.69
787.578	7.6
787.891	7.73
788.204	7.79
788.516	7.39
788.829	7.36
789.141	7.05
789.454	7.2
789.766	7.45
790.079	7.23
790.391	6.99
790.703	6.88
791.016	7.07
791.328	7.02
791.64	6.82
791.952	7.05
792.264	7.18
792.576	7.54
792.888	7.53
793.2	7.76
793.512	7.87
793.824	8.19
794.136	8.07
794.448	7.83
794.76	8.26
795.071	8.08
795.383	8.34
795.695	8.23
796.006	7.97
796.318	7.55
796.629	7.86
796.941	7.92
797.252	7.71
797.564	7.64
797.875	7.66
798.186	7.83
798.497	7.74
798.809	7.98
799.12	7.63
799.431	7.44
799.742	7.39
800.053	6.98
800.364	7.04
800.675	7.11
800.986	7.53
801.297	7.1
801.608	7.35
801.918	7.42
802.229	7.54
802.54	7.64
802.851	7.49
803.161	7.09
803.472	7.12
803.782	7.63
804.093	7.41
804.403	7.08
804.714	6.84
805.024	6.58
805.334	5.78
805.645	5.48
805.955	5.82
806.265	5.92
806.575	6.32
806.885	6.5
807.195	6.41
807.505	5.7
807.815	5.85
808.125	5.77
808.435	5.06
808.745	5.15
809.055	5.42
809.365	5.38
809.674	5.51
809.984	5.56
810.294	5.03
810.603	4.28
810.913	4.48
811.222	4.98
811.532	5.11
811.841	5.56
812.151	5.35
812.46	5.25
812.769	4.72
813.079	5.11
813.388	4.77
813.697	4.7
814.006	4.73
814.315	4.55
814.624	4.37
814.933	4.69
815.242	4.05
815.551	4.09
815.86	5.11
816.169	4.72
816.478	4.67
816.786	4.98
817.095	6.13
817.404	6.39
817.712	6.19
818.021	5.83
818.33	5.98
818.638	6.61
818.947	6.41
819.255	6.84
819.563	6.93
819.872	7
820.18	7.41
820.488	7.69
820.796	8.06
821.105	8.56
821.413	8.67
821.721	8.94
822.029	8.95
822.337	8.83
822.645	9.06
822.953	9.1
823.26	9.13
823.568	9.12
823.876	8.95
824.184	8.9
824.491	8.95
824.799	9.12
825.107	9
825.414	9.09
825.722	9.02
826.029	8.89
826.337	8.97
826.644	9.06
826.951	9.05
827.259	8.96
827.566	8.63
827.873	8.76
828.18	8.56
828.488	8.42
828.795	8.02
829.102	7.69
829.409	7.42
829.716	7.21
830.023	7.19
830.329	7.5
830.636	7.52
830.943	7.24
831.25	6.95
831.557	7.24
831.863	7.37
832.17	7.5
832.476	7.85
832.783	7.97
833.089	7.75
833.396	7.55
833.702	7.83
834.009	8.07
834.315	7.83
834.621	7.81
834.928	7.74
835.234	8.12
835.54	8.15
835.846	8.37
836.152	8.57
836.458	8.37
836.764	8.58
837.07	8.57
837.376	9.3
837.682	8.92
837.988	8.75
838.293	8.64
838.599	8.44
838.905	8.03
839.211	7.95
839.516	7.42
839.822	8.09
840.127	6.88
840.433	6.9
840.738	6.51
841.044	7.56
841.349	7.77
841.654	7.72
841.959	7.61
842.265	8.08
842.57	7.77
842.875	8.06
843.18	7.54
843.485	8.14
843.79	7.79
844.095	8.53
844.4	8.93
844.705	8.68
845.01	9.57
845.315	9.84
845.619	10.18
845.924	10.5
846.229	9.33
846.533	9.69
846.838	9.23
847.142	8.05
847.447	5.68
847.751	5.6
848.056	4.71
848.36	6
848.664	5.02
848.969	4.27
849.273	3.49
849.577	2.99
849.881	2.35
850.185	1.16
850.489	0.54
850.794	-1.42
851.097	-0.32
851.401	-2.02
851.705	-1.24
852.009	-1.61
852.313	-2.75
852.617	-2.25
852.92	-1.61
853.224	-0.35
853.528	1.93
853.831	2.53
854.135	2.06
854.438	4.14
854.742	2.46
855.045	3.5
855.349	3.25
855.652	4.12
855.955	4.38
856.259	5.6
856.562	7.14
856.865	8.01
857.168	8.76
857.471	8.3
857.774	8.19
858.077	6.39
858.38	4.9
858.683	6.39
858.986	6.99
859.289	9.19
859.592	9.34
859.894	9.62
860.197	8.24
860.5	8.42
860.802	7.65
861.105	8.46
861.407	7.56
861.71	9.62
862.012	7.78
862.315	8.71
862.617	6.42
862.919	6.21
863.222	5.79
863.524	6.74
863.826	5.61
864.128	6.95
864.43	8.87
864.732	8.23
865.034	7.59
865.336	5.41
865.638	2.86
865.94	0.8
866.242	-0.15
866.544	2.51
866.846	4.36
867.147	4.29
867.449	5.52
867.751	7.19
868.052	6.28
868.354	8.53
868.655	7.84
868.957	9.98
869.258	11.55
869.56	11.36
869.861	10.59
870.162	11.7
870.463	11.35
870.765	10.62
871.066	12.05
871.367	11.56
871.668	12.99
871.969	14.42
872.27	17.02
872.571	17.02
872.872	16.56
873.173	14.59
873.473	12.78
873.774	12.09
874.075	10.94
874.376	10.04
874.676	9.66
874.977	11.96
875.277	9.37
875.578	6.45
875.878	6.43
876.179	7.01
876.479	5.87
876.78	5.59
877.08	5.2
877.38	4.78
877.68	6.51
877.981	6.7
878.281	5.58
878.581	2.34
