Data from BU57650_Reflection_00013.txt Node
Date: Tue Nov 19 11:01:35 EST 2019
User: vgr7
Spectrometer: USB2G7710
Scans to average: 3
Trigger mode: 4
Integration Time (sec): 2.000000E-2
Electric dark correction enabled: true
Boxcar width: 10
XAxis mode: Wavelengths
Number of Pixels in Spectrum: 2048
>>>>>Begin Spectral Data<<<<<
177.721	-143.79
178.105	-458.44
178.488	1492.52
178.871	427.03
179.254	334.48
179.636	-641.07
180.019	17.53
180.402	109.09
180.785	108.7
181.168	-84.58
181.55	-256.16
181.933	33.84
182.316	89.2
182.698	152.26
183.081	9671.43
183.463	376.68
183.846	368.7
184.228	1044.95
184.611	-352.96
184.993	-100
185.376	-132.74
185.758	-53.85
186.14	-62.69
186.522	-40.06
186.904	-75.15
187.287	-105.61
187.669	-34.5
188.051	-8.42
188.433	-31.38
188.815	-25.69
189.197	-31.68
189.579	-43.44
189.961	-22.43
190.342	-8.28
190.724	-11.64
191.106	-8.89
191.488	7.29
191.869	18.83
192.251	29.54
192.633	24.55
193.014	19.05
193.396	15.11
193.777	20.08
194.159	19.01
194.54	30.59
194.922	38.21
195.303	40.98
195.684	34.63
196.065	31.71
196.447	47.6
196.828	46.37
197.209	39.03
197.59	41.65
197.971	40.44
198.352	37.63
198.733	34.15
199.114	34.2
199.495	26.06
199.876	27.43
200.257	29.17
200.638	32.45
201.018	32.04
201.399	31.31
201.78	25.13
202.16	26.37
202.541	18.88
202.922	9.36
203.302	6.66
203.683	3.18
204.063	3.29
204.444	-3.56
204.824	-0.2
205.204	9.85
205.585	17.02
205.965	13.22
206.345	14.47
206.725	17.74
207.106	21.58
207.486	14.39
207.866	10.33
208.246	2.49
208.626	-1.45
209.006	0.03
209.386	0.03
209.766	1.68
210.145	1.97
210.525	-7.77
210.905	-6.77
211.285	-3.19
211.664	7.29
212.044	9.52
212.424	9.43
212.803	8.35
213.183	11.23
213.562	19.83
213.942	23.61
214.321	20.07
214.701	13.07
215.08	14.99
215.459	24.73
215.838	21.41
216.218	12.58
216.597	9.94
216.976	-2.99
217.355	2.77
217.734	-5.42
218.113	-8.59
218.492	-2.64
218.871	3.51
219.25	-5.96
219.629	-11.25
220.008	-12.16
220.387	-6.51
220.766	-0.68
221.144	-1.07
221.523	-8.85
221.902	-8.22
222.28	-6.36
222.659	10.15
223.037	8.32
223.416	6.68
223.794	15.06
224.173	15.12
224.551	19.91
224.929	26.61
225.308	18.32
225.686	20.26
226.064	21.96
226.442	23.42
226.821	22.88
227.199	23.2
227.577	24.03
227.955	25.73
228.333	22.49
228.711	18.87
229.089	18.93
229.467	18.2
229.845	16.61
230.222	16.48
230.6	12.95
230.978	13.26
231.356	11.03
231.733	10.74
232.111	12.23
232.488	15.03
232.866	13.41
233.243	13.82
233.621	14.12
233.998	14.44
234.376	12.27
234.753	9.95
235.13	11.18
235.508	9.41
235.885	6.63
236.262	7.06
236.639	6.21
237.016	4.79
237.393	5.78
237.77	5.61
238.147	5.14
238.524	4.76
238.901	3.6
239.278	4.14
239.655	3.26
240.032	2.93
240.409	2.27
240.785	2.05
241.162	2.2
241.539	2.36
241.915	2.33
242.292	2.34
242.668	2.75
243.045	3.09
243.421	3.59
243.798	4.08
244.174	4.55
244.551	4.81
244.927	5.02
245.303	4.9
245.679	5.09
246.056	5.16
246.432	5.21
246.808	5.43
247.184	5.42
247.56	5.44
247.936	5.44
248.312	5.6
248.688	5.7
249.064	5.86
249.44	5.74
249.815	5.62
250.191	5.69
250.567	5.91
250.943	5.76
251.318	5.41
251.694	5.22
252.069	4.86
252.445	4.96
252.82	4.79
253.196	4.65
253.571	4.64
253.947	4.85
254.322	4.69
254.697	4.58
255.073	4.75
255.448	4.72
255.823	4.65
256.198	4.43
256.573	4.41
256.948	4.3
257.323	4.25
257.698	4.21
258.073	4.17
258.448	4.04
258.823	3.99
259.198	4.17
259.573	4.14
259.948	4.18
260.322	4.06
260.697	4.12
261.072	4.31
261.446	4.22
261.821	3.94
262.195	3.88
262.57	3.89
262.944	3.65
263.319	3.76
263.693	3.66
264.067	3.53
264.442	3.42
264.816	3.39
265.19	3.47
265.564	3.5
265.938	3.79
266.313	3.93
266.687	3.87
267.061	3.71
267.435	3.68
267.809	3.51
268.183	3.51
268.556	3.34
268.93	3.14
269.304	3.13
269.678	3.26
270.051	3.38
270.425	3.26
270.799	3.3
271.172	3.05
271.546	3.57
271.919	3.66
272.293	3.85
272.666	3.9
273.04	3.75
273.413	3.76
273.787	3.64
274.16	3.56
274.533	3.74
274.906	3.9
275.279	3.93
275.653	4.05
276.026	4.09
276.399	4.2
276.772	4.33
277.145	4.49
277.518	4.49
277.891	4.53
278.263	4.64
278.636	4.75
279.009	5.02
279.382	4.65
279.755	4.62
280.127	4.53
280.5	4.35
280.872	4.41
281.245	4.29
281.617	4.09
281.99	4.01
282.362	3.96
282.735	3.85
283.107	3.97
283.479	4
283.852	4.03
284.224	4.13
284.596	4.08
284.968	3.99
285.34	3.94
285.713	3.95
286.085	3.88
286.457	3.98
286.829	3.88
287.201	3.85
287.572	3.88
287.944	3.88
288.316	4.06
288.688	4.17
289.06	4.29
289.431	4.41
289.803	4.49
290.175	4.46
290.546	4.46
290.918	4.44
291.289	4.3
291.661	4.3
292.032	4.26
292.403	4.35
292.775	4.29
293.146	4.37
293.517	4.39
293.889	4.52
294.26	4.36
294.631	4.45
295.002	4.4
295.373	4.34
295.744	4.31
296.115	4.33
296.486	4.22
296.857	4.23
297.228	4.09
297.599	4.04
297.97	4.12
298.34	4.06
298.711	4.11
299.082	4.14
299.452	4.14
299.823	4.08
300.194	4.05
300.564	4.11
300.935	4.17
301.305	4.22
301.676	4.17
302.046	4.27
302.416	4.24
302.787	4.3
303.157	4.32
303.527	4.45
303.897	4.35
304.267	4.39
304.637	4.41
305.008	4.64
305.378	4.83
305.748	4.73
306.117	4.79
306.487	4.72
306.857	4.91
307.227	5.06
307.597	5.13
307.967	5
308.336	5.08
308.706	4.94
309.076	4.93
309.445	4.95
309.815	4.98
310.184	5.01
310.554	4.98
310.923	4.95
311.293	4.93
311.662	5.03
312.031	5.14
312.401	5.14
312.77	5.12
313.139	4.94
313.508	5.06
313.877	5.28
314.246	5.32
314.616	5.23
314.985	5.2
315.353	5.26
315.722	5.32
316.091	5.44
316.46	5.73
316.829	5.81
317.198	5.8
317.567	5.82
317.935	5.76
318.304	6
318.672	6.17
319.041	6.21
319.41	6.27
319.778	6.25
320.147	6.3
320.515	6.35
320.883	6.48
321.252	6.5
321.62	6.23
321.988	6.35
322.357	6.46
322.725	6.49
323.093	6.39
323.461	6.55
323.829	6.47
324.197	6.41
324.565	6.35
324.933	6.38
325.301	6.38
325.669	6.41
326.037	6.4
326.405	6.48
326.772	6.58
327.14	6.54
327.508	6.54
327.875	6.48
328.243	6.44
328.61	6.5
328.978	6.55
329.346	6.74
329.713	6.7
330.08	6.84
330.448	6.81
330.815	7.08
331.182	7.07
331.55	7.11
331.917	7.22
332.284	7.23
332.651	7.46
333.018	7.56
333.385	7.57
333.752	7.56
334.119	7.43
334.486	7.43
334.853	7.49
335.22	7.54
335.587	7.61
335.954	7.59
336.32	7.54
336.687	7.5
337.054	7.57
337.42	7.53
337.787	7.36
338.153	7.55
338.52	7.5
338.886	7.53
339.253	7.49
339.619	7.41
339.986	7.47
340.352	7.46
340.718	7.47
341.084	7.55
341.451	7.56
341.817	7.61
342.183	7.54
342.549	7.51
342.915	7.5
343.281	7.51
343.647	7.6
344.013	7.62
344.379	7.54
344.745	7.55
345.11	7.66
345.476	7.66
345.842	7.55
346.208	7.55
346.573	7.54
346.939	7.61
347.304	7.64
347.67	7.6
348.035	7.51
348.401	7.41
348.766	7.39
349.132	7.4
349.497	7.47
349.862	7.49
350.228	7.45
350.593	7.42
350.958	7.52
351.323	7.5
351.688	7.53
352.053	7.57
352.418	7.53
352.783	7.43
353.148	7.47
353.513	7.41
353.878	7.32
354.243	7.2
354.608	7.16
354.972	7.2
355.337	7.24
355.702	7.21
356.066	7.26
356.431	7.25
356.795	7.27
357.16	7.2
357.524	7.21
357.889	7.22
358.253	7.18
358.618	7.08
358.982	7.03
359.346	7.08
359.71	7.07
360.075	7.02
360.439	7.07
360.803	7.07
361.167	7.07
361.531	7.07
361.895	7.08
362.259	7.08
362.623	6.96
362.987	6.9
363.351	6.89
363.714	6.82
364.078	6.78
364.442	6.69
364.806	6.68
365.169	6.6
365.533	6.68
365.896	6.69
366.26	6.66
366.623	6.64
366.987	6.52
367.35	6.49
367.714	6.46
368.077	6.43
368.44	6.33
368.803	6.25
369.167	6.18
369.53	6.18
369.893	6.07
370.256	6.05
370.619	5.97
370.982	5.88
371.345	5.88
371.708	5.86
372.071	5.82
372.434	5.79
372.797	5.75
373.159	5.6
373.522	5.58
373.885	5.53
374.247	5.46
374.61	5.43
374.973	5.44
375.335	5.4
375.698	5.27
376.06	5.28
376.423	5.24
376.785	5.2
377.147	5.12
377.51	5.11
377.872	5.07
378.234	5.01
378.596	5.01
378.958	4.94
379.321	4.88
379.683	4.91
380.045	4.84
380.407	4.79
380.769	4.78
381.13	4.7
381.492	4.65
381.854	4.65
382.216	4.64
382.578	4.59
382.939	4.55
383.301	4.57
383.663	4.55
384.024	4.52
384.386	4.51
384.747	4.47
385.109	4.43
385.47	4.42
385.832	4.43
386.193	4.38
386.554	4.34
386.916	4.34
387.277	4.23
387.638	4.24
387.999	4.26
388.36	4.2
388.721	4.2
389.082	4.22
389.443	4.22
389.804	4.2
390.165	4.13
390.526	4.13
390.887	4.09
391.248	4.07
391.609	4.08
391.969	4.07
392.33	4.08
392.691	4.07
393.051	4.05
393.412	4.07
393.772	4.07
394.133	4.05
394.493	4.04
394.854	4.07
395.214	4.03
395.574	3.97
395.935	3.94
396.295	3.9
396.655	3.88
397.015	3.83
397.376	3.78
397.736	3.79
398.096	3.75
398.456	3.73
398.816	3.66
399.176	3.61
399.535	3.55
399.895	3.54
400.255	3.55
400.615	3.51
400.975	3.47
401.334	3.48
401.694	3.5
402.054	3.46
402.413	3.43
402.773	3.43
403.132	3.43
403.492	3.46
403.851	3.45
404.211	3.42
404.57	3.42
404.929	3.4
405.288	3.39
405.648	3.39
406.007	3.38
406.366	3.4
406.725	3.41
407.084	3.43
407.443	3.4
407.802	3.38
408.161	3.38
408.52	3.38
408.879	3.35
409.238	3.34
409.596	3.35
409.955	3.34
410.314	3.32
410.673	3.32
411.031	3.29
411.39	3.31
411.748	3.32
412.107	3.31
412.465	3.31
412.824	3.3
413.182	3.28
413.54	3.27
413.899	3.25
414.257	3.25
414.615	3.22
414.974	3.25
415.332	3.21
415.69	3.19
416.048	3.16
416.406	3.14
416.764	3.13
417.122	3.11
417.48	3.11
417.838	3.1
418.195	3.07
418.553	3.05
418.911	3.03
419.269	3.03
419.626	3.01
419.984	3
420.342	2.98
420.699	2.97
421.057	2.98
421.414	2.98
421.772	2.96
422.129	2.96
422.486	2.95
422.844	2.95
423.201	2.95
423.558	2.95
423.915	2.95
424.273	2.93
424.63	2.94
424.987	2.94
425.344	2.93
425.701	2.93
426.058	2.96
426.415	2.95
426.772	2.95
427.128	2.95
427.485	2.96
427.842	2.97
428.199	2.98
428.555	2.96
428.912	2.94
429.269	2.92
429.625	2.92
429.982	2.92
430.338	2.91
430.695	2.92
431.051	2.9
431.407	2.91
431.764	2.93
432.12	2.9
432.476	2.91
432.832	2.93
433.189	2.93
433.545	2.92
433.901	2.92
434.257	2.9
434.613	2.89
434.969	2.87
435.325	2.87
435.681	2.87
436.036	2.89
436.392	2.9
436.748	2.92
437.104	2.92
437.459	2.9
437.815	2.9
438.171	2.89
438.526	2.89
438.882	2.89
439.237	2.88
439.593	2.88
439.948	2.86
440.304	2.84
440.659	2.83
441.014	2.83
441.369	2.84
441.725	2.85
442.08	2.86
442.435	2.88
442.79	2.85
443.145	2.85
443.5	2.84
443.855	2.82
444.21	2.82
444.565	2.82
444.92	2.82
445.275	2.82
445.629	2.82
445.984	2.81
446.339	2.81
446.693	2.81
447.048	2.8
447.403	2.8
447.757	2.81
448.112	2.8
448.466	2.8
448.82	2.78
449.175	2.75
449.529	2.76
449.883	2.74
450.238	2.75
450.592	2.75
450.946	2.72
451.3	2.74
451.654	2.73
452.008	2.72
452.362	2.72
452.716	2.71
453.07	2.73
453.424	2.72
453.778	2.71
454.132	2.69
454.486	2.7
454.839	2.71
455.193	2.73
455.547	2.74
455.9	2.75
456.254	2.76
456.607	2.77
456.961	2.77
457.314	2.77
457.668	2.76
458.021	2.76
458.375	2.77
458.728	2.75
459.081	2.75
459.434	2.75
459.787	2.76
460.141	2.77
460.494	2.75
460.847	2.75
461.2	2.77
461.553	2.78
461.906	2.78
462.259	2.79
462.611	2.77
462.964	2.77
463.317	2.76
463.67	2.75
464.022	2.74
464.375	2.75
464.728	2.74
465.08	2.74
465.433	2.73
465.785	2.76
466.138	2.77
466.49	2.8
466.843	2.82
467.195	2.83
467.547	2.82
467.899	2.84
468.252	2.85
468.604	2.85
468.956	2.84
469.308	2.85
469.66	2.86
470.012	2.88
470.364	2.89
470.716	2.9
471.068	2.91
471.42	2.94
471.772	2.94
472.123	2.95
472.475	2.93
472.827	2.92
473.178	2.91
473.53	2.91
473.882	2.9
474.233	2.88
474.585	2.86
474.936	2.88
475.288	2.86
475.639	2.87
475.99	2.86
476.342	2.89
476.693	2.89
477.044	2.89
477.395	2.86
477.746	2.84
478.097	2.83
478.448	2.84
478.8	2.83
479.15	2.83
479.501	2.84
479.852	2.83
480.203	2.84
480.554	2.85
480.905	2.85
481.255	2.85
481.606	2.85
481.957	2.86
482.307	2.85
482.658	2.86
483.009	2.85
483.359	2.86
483.709	2.85
484.06	2.86
484.41	2.86
484.761	2.87
485.111	2.87
485.461	2.87
485.811	2.86
486.162	2.87
486.512	2.87
486.862	2.87
487.212	2.88
487.562	2.88
487.912	2.88
488.262	2.88
488.612	2.89
488.961	2.89
489.311	2.89
489.661	2.89
490.011	2.89
490.36	2.89
490.71	2.89
491.06	2.88
491.409	2.88
491.759	2.88
492.108	2.86
492.458	2.86
492.807	2.87
493.157	2.88
493.506	2.87
493.855	2.86
494.204	2.87
494.554	2.89
494.903	2.88
495.252	2.89
495.601	2.89
495.95	2.88
496.299	2.89
496.648	2.9
496.997	2.93
497.346	2.95
497.695	2.96
498.043	2.97
498.392	2.99
498.741	3
499.09	3.02
499.438	3.06
499.787	3.1
500.135	3.12
500.484	3.12
500.832	3.13
501.181	3.16
501.529	3.19
501.878	3.2
502.226	3.22
502.574	3.25
502.923	3.26
503.271	3.28
503.619	3.3
503.967	3.32
504.315	3.34
504.663	3.33
505.011	3.36
505.359	3.39
505.707	3.41
506.055	3.44
506.403	3.46
506.751	3.49
507.098	3.49
507.446	3.53
507.794	3.55
508.141	3.59
508.489	3.63
508.837	3.66
509.184	3.72
509.531	3.75
509.879	3.78
510.226	3.81
510.574	3.87
510.921	3.91
511.268	3.94
511.616	3.98
511.963	4.03
512.31	4.07
512.657	4.11
513.004	4.14
513.351	4.19
513.698	4.23
514.045	4.27
514.392	4.33
514.739	4.38
515.086	4.45
515.432	4.51
515.779	4.55
516.126	4.62
516.473	4.66
516.819	4.71
517.166	4.75
517.512	4.81
517.859	4.85
518.205	4.91
518.552	4.96
518.898	5.01
519.245	5.07
519.591	5.11
519.937	5.16
520.283	5.23
520.629	5.27
520.976	5.33
521.322	5.41
521.668	5.46
522.014	5.52
522.36	5.57
522.706	5.63
523.052	5.71
523.398	5.77
523.743	5.84
524.089	5.93
524.435	6.01
524.781	6.09
525.126	6.16
525.472	6.22
525.817	6.27
526.163	6.33
526.509	6.41
526.854	6.48
527.199	6.54
527.545	6.59
527.89	6.65
528.235	6.7
528.581	6.75
528.926	6.82
529.271	6.89
529.616	6.94
529.961	6.99
530.306	7.04
530.651	7.1
530.996	7.18
531.341	7.24
531.686	7.32
532.031	7.4
532.376	7.47
532.721	7.55
533.065	7.64
533.41	7.72
533.755	7.79
534.099	7.85
534.444	7.93
534.788	8.02
535.133	8.1
535.477	8.2
535.822	8.3
536.166	8.41
536.51	8.53
536.855	8.67
537.199	8.81
537.543	8.96
537.887	9.12
538.231	9.24
538.576	9.39
538.92	9.53
539.264	9.65
539.608	9.78
539.951	9.91
540.295	10.06
540.639	10.18
540.983	10.3
541.327	10.46
541.671	10.57
542.014	10.72
542.358	10.84
542.701	10.98
543.045	11.13
543.389	11.25
543.732	11.38
544.075	11.52
544.419	11.67
544.762	11.83
545.105	12
545.449	12.18
545.792	12.36
546.135	12.56
546.478	12.78
546.821	13.01
547.165	13.24
547.508	13.43
547.851	13.68
548.194	13.91
548.536	14.14
548.879	14.37
549.222	14.6
549.565	14.87
549.908	15.11
550.25	15.33
550.593	15.61
550.936	15.87
551.278	16.14
551.621	16.4
551.963	16.67
552.306	16.92
552.648	17.22
552.991	17.47
553.333	17.75
553.675	18.01
554.017	18.28
554.36	18.54
554.702	18.84
555.044	19.1
555.386	19.39
555.728	19.68
556.07	20.03
556.412	20.32
556.754	20.59
557.096	20.89
557.438	21.19
557.78	21.5
558.121	21.84
558.463	22.14
558.805	22.49
559.147	22.79
559.488	23.11
559.83	23.4
560.171	23.73
560.513	24.08
560.854	24.44
561.196	24.75
561.537	25.11
561.878	25.44
562.22	25.75
562.561	26.08
562.902	26.39
563.243	26.71
563.584	27.01
563.925	27.37
564.266	27.73
564.607	28.11
564.948	28.4
565.289	28.71
565.63	29.08
565.971	29.38
566.312	29.72
566.653	30.05
566.993	30.37
567.334	30.75
567.675	31.07
568.015	31.32
568.356	31.68
568.696	31.94
569.037	32.26
569.377	32.59
569.718	32.9
570.058	33.23
570.398	33.54
570.739	33.85
571.079	34.14
571.419	34.45
571.759	34.68
572.099	34.97
572.439	35.32
572.779	35.57
573.119	35.82
573.459	36.05
573.799	36.29
574.139	36.5
574.479	36.73
574.819	37
575.158	37.36
575.498	37.62
575.838	37.95
576.177	38.25
576.517	38.58
576.856	38.87
577.196	39.16
577.535	39.41
577.875	39.72
578.214	39.97
578.553	40.23
578.893	40.54
579.232	40.83
579.571	41.07
579.91	41.39
580.25	41.72
580.589	42.06
580.928	42.38
581.267	42.68
581.606	42.94
581.945	43.14
582.283	43.29
582.622	43.51
582.961	43.79
583.3	44.03
583.639	44.19
583.977	44.42
584.316	44.67
584.654	45.01
584.993	45.23
585.332	45.52
585.67	45.74
586.008	46.04
586.347	46.31
586.685	46.42
587.024	46.62
587.362	46.86
587.7	47.07
588.038	47.3
588.376	47.49
588.715	47.69
589.053	47.9
589.391	48.12
589.729	48.4
590.067	48.59
590.404	48.81
590.742	49.07
591.08	49.29
591.418	49.5
591.756	49.67
592.093	49.88
592.431	50.07
592.769	50.31
593.106	50.47
593.444	50.63
593.781	50.88
594.119	51.09
594.456	51.19
594.793	51.35
595.131	51.59
595.468	51.82
595.805	51.96
596.143	52.1
596.48	52.28
596.817	52.41
597.154	52.48
597.491	52.58
597.828	52.72
598.165	52.88
598.502	52.98
598.839	53.18
599.176	53.3
599.512	53.44
599.849	53.61
600.186	53.71
600.523	53.89
600.859	54.08
601.196	54.19
601.532	54.4
601.869	54.51
602.205	54.55
602.542	54.67
602.878	54.83
603.215	54.96
603.551	55.01
603.887	55.06
604.223	55.16
604.56	55.26
604.896	55.33
605.232	55.45
605.568	55.58
605.904	55.62
606.24	55.78
606.576	55.92
606.912	55.95
607.248	56.12
607.583	56.23
607.919	56.29
608.255	56.49
608.591	56.6
608.926	56.72
609.262	56.84
609.597	56.97
609.933	57.07
610.268	57.19
610.604	57.32
610.939	57.43
611.275	57.58
611.61	57.77
611.945	57.85
612.281	57.84
612.616	57.96
612.951	57.99
613.286	58.04
613.621	58.14
613.956	58.33
614.291	58.45
614.626	58.51
614.961	58.62
615.296	58.53
615.631	58.54
615.966	58.72
616.3	58.81
616.635	58.81
616.97	58.85
617.304	58.9
617.639	58.96
617.973	59.02
618.308	59.1
618.642	59.07
618.977	59.16
619.311	59.32
619.646	59.4
619.98	59.56
620.314	59.68
620.648	59.72
620.983	59.7
621.317	59.68
621.651	59.7
621.985	59.76
622.319	59.89
622.653	59.98
622.987	59.91
623.321	59.95
623.655	60.08
623.988	60.19
624.322	60.23
624.656	60.25
624.99	60.28
625.323	60.31
625.657	60.31
625.99	60.34
626.324	60.38
626.657	60.41
626.991	60.47
627.324	60.52
627.658	60.6
627.991	60.66
628.324	60.74
628.657	60.84
628.991	60.89
629.324	60.95
629.657	61.02
629.99	61.12
630.323	61.23
630.656	61.27
630.989	61.33
631.322	61.46
631.655	61.55
631.987	61.62
632.32	61.7
632.653	61.77
632.986	61.77
633.318	61.82
633.651	61.75
633.984	61.84
634.316	61.88
634.649	61.84
634.981	61.97
635.313	61.94
635.646	61.97
635.978	62.05
636.31	62.13
636.643	62.16
636.975	62.08
637.307	62.08
637.639	62.04
637.971	62.14
638.303	62.09
638.635	62.16
638.967	62.24
639.299	62.23
639.631	62.39
639.963	62.47
640.295	62.49
640.626	62.57
640.958	62.48
641.29	62.53
641.621	62.61
641.953	62.58
642.285	62.78
642.616	62.86
642.948	62.88
643.279	62.93
643.61	62.98
643.942	63.15
644.273	63.17
644.604	63.33
644.936	63.16
645.267	63.24
645.598	63.27
645.929	63.34
646.26	63.46
646.591	63.43
646.922	63.59
647.253	63.58
647.584	63.72
647.915	63.82
648.245	63.97
648.576	64.17
648.907	64.18
649.238	64.18
649.568	64.26
649.899	64.19
650.229	64.15
650.56	64.17
650.89	64.18
651.221	64.27
651.551	64.27
651.882	64.39
652.212	64.42
652.542	64.5
652.872	64.41
653.203	64.44
653.533	64.52
653.863	64.44
654.193	64.54
654.523	64.59
654.853	64.51
655.183	64.29
655.513	64.1
655.843	64.05
656.172	64.03
656.502	64.01
656.832	64.11
657.162	64.16
657.491	64.18
657.821	64.18
658.15	64.23
658.48	64.3
658.809	64.25
659.139	64.27
659.468	64.16
659.798	64.18
660.127	64.17
660.456	64.2
660.785	64.22
661.115	64.2
661.444	64.15
661.773	64.26
662.102	64.43
662.431	64.43
662.76	64.58
663.089	64.57
663.418	64.65
663.747	64.71
664.076	64.68
664.404	64.73
664.733	64.86
665.062	64.82
665.39	64.71
665.719	64.69
666.048	64.65
666.376	64.76
666.705	64.78
667.033	64.72
667.362	64.67
667.69	64.58
668.018	64.62
668.347	64.51
668.675	64.59
669.003	64.49
669.331	64.81
669.659	64.8
669.987	64.74
670.315	64.71
670.643	64.81
670.971	64.78
671.299	64.89
671.627	64.91
671.955	65.07
672.283	65.11
672.61	65.27
672.938	65.36
673.266	65.4
673.593	65.48
673.921	65.6
674.249	65.44
674.576	65.54
674.904	65.55
675.231	65.59
675.558	65.54
675.886	65.61
676.213	65.4
676.54	65.25
676.867	65.49
677.195	65.5
677.522	65.4
677.849	65.37
678.176	65.31
678.503	65.3
678.83	65.26
679.157	65.24
679.484	65.2
679.81	65.09
680.137	65.02
680.464	64.99
680.791	64.93
681.117	65.18
681.444	65.28
681.771	65.39
682.097	65.52
682.424	65.54
682.75	65.51
683.077	65.49
683.403	65.7
683.729	65.62
684.056	65.51
684.382	65.6
684.708	65.61
685.034	65.59
685.36	65.46
685.686	65.34
686.012	65.35
686.339	65.22
686.664	65.33
686.99	65.46
687.316	65.45
687.642	65.51
687.968	65.45
688.294	65.36
688.619	65.25
688.945	65.13
689.271	65.07
689.596	65.09
689.922	65.11
690.247	65.01
690.573	65.06
690.898	65.06
691.224	64.96
691.549	65.04
691.874	64.97
692.2	65.01
692.525	65.04
692.85	65.13
693.175	65.38
693.5	65.33
693.825	65.35
694.15	65.48
694.475	65.44
694.8	65.44
695.125	65.57
695.45	65.73
695.775	65.93
696.099	65.96
696.424	65.96
696.749	65.97
697.073	66.08
697.398	65.97
697.723	66.06
698.047	66.1
698.372	66.14
698.696	66.13
699.02	66.18
699.345	66.26
699.669	66.19
699.993	66.19
700.318	66.2
700.642	66.04
700.966	66.05
701.29	66.12
701.614	66.14
701.938	65.98
702.262	65.83
702.586	65.81
702.91	65.78
703.234	65.75
703.557	65.7
703.881	65.47
704.205	65.56
704.529	65.55
704.852	65.45
705.176	65.41
705.499	65.54
705.823	65.6
706.146	65.6
706.47	65.83
706.793	65.8
707.117	65.99
707.44	66.17
707.763	66.12
708.086	66.06
708.409	65.86
708.733	65.95
709.056	65.9
709.379	65.57
709.702	65.5
710.025	65.69
710.348	65.75
710.671	65.89
710.993	65.77
711.316	65.94
711.639	66
711.962	66.03
712.284	66.12
712.607	66.06
712.93	65.86
713.252	65.78
713.575	65.92
713.897	65.82
714.22	65.92
714.542	65.82
714.864	65.79
715.187	65.93
715.509	65.88
715.831	66.1
716.153	66.31
716.475	66.49
716.798	66.49
717.12	66.38
717.442	66.34
717.764	66.4
718.085	66.39
718.407	66.24
718.729	66.22
719.051	66.49
719.373	66.49
719.695	66.69
720.016	66.65
720.338	66.55
720.659	66.48
720.981	66.4
721.302	66.69
721.624	66.78
721.945	66.75
722.267	66.96
722.588	66.92
722.909	66.84
723.231	66.87
723.552	66.63
723.873	67.02
724.194	67.18
724.515	67.33
724.836	67.04
725.157	67.16
725.478	67.24
725.799	66.83
726.12	66.87
726.441	66.89
726.762	66.95
727.083	66.92
727.403	67.01
727.724	67.05
728.045	67.02
728.365	66.92
728.686	66.94
729.006	66.92
729.327	66.79
729.647	66.77
729.967	66.71
730.288	66.57
730.608	66.48
730.928	66.48
731.249	66.48
731.569	66.75
731.889	66.7
732.209	66.55
732.529	66.61
732.849	66.61
733.169	66.47
733.489	66.32
733.809	66.37
734.129	66.59
734.448	66.52
734.768	66.37
735.088	66.42
735.408	66.29
735.727	66.25
736.047	66.03
736.366	66.11
736.686	66.25
737.005	66.41
737.325	66.28
737.644	66.16
737.963	66.19
738.283	65.99
738.602	66.17
738.921	66.28
739.24	66.15
739.56	66.36
739.879	66.32
740.198	66.38
740.517	66.44
740.836	66.07
741.155	65.99
741.473	66
741.792	65.85
742.111	65.87
742.43	65.7
742.748	65.78
743.067	65.69
743.386	65.55
743.704	65.79
744.023	65.94
744.341	66.05
744.66	65.92
744.978	65.86
745.297	65.88
745.615	65.76
745.933	65.79
746.252	65.56
746.57	65.65
746.888	65.79
747.206	65.49
747.524	65.5
747.842	65.5
748.16	65.76
748.478	66.11
748.796	66.35
749.114	66.61
749.432	67.2
749.749	67.24
750.067	67.11
750.385	66.94
750.703	66.85
751.02	66.79
751.338	66.51
751.655	66.54
751.973	66.41
752.29	66.59
752.608	66.55
752.925	66.73
753.242	66.9
753.56	66.63
753.877	66.57
754.194	66.64
754.511	66.73
754.828	66.49
755.145	66.1
755.462	66.19
755.779	66.18
756.096	65.93
756.413	66.19
756.73	66.55
757.047	66.71
757.364	66.85
757.68	66.83
757.997	67.4
758.314	67.52
758.63	67.57
758.947	67.55
759.264	67.47
759.58	67.51
759.896	67.4
760.213	67.97
760.529	67.91
760.846	67.83
761.162	67.76
761.478	67.91
761.794	68.21
762.11	68.02
762.426	67.82
762.743	67.78
763.059	67.4
763.375	67.13
763.69	67.01
764.006	66.85
764.322	67.09
764.638	66.64
764.954	66.77
765.27	66.84
765.585	66.72
765.901	66.55
766.216	66.53
766.532	66.44
766.848	65.95
767.163	66.07
767.478	66.1
767.794	66.22
768.109	66.3
768.424	66.27
768.74	66.31
769.055	66.56
769.37	66.42
769.685	66.7
770	66.63
770.315	66.95
770.63	67.11
770.945	66.71
771.26	67.1
771.575	66.97
771.89	66.65
772.205	67
772.52	67.71
772.834	67.47
773.149	67.82
773.464	68.05
773.778	68.02
774.093	67.68
774.407	67.52
774.722	66.94
775.036	66.7
775.351	66.43
775.665	66.08
775.979	66.17
776.293	66.02
776.608	66.52
776.922	66.06
777.236	65.83
777.55	65.81
777.864	65.72
778.178	65.31
778.492	65.58
778.806	65.82
779.12	64.82
779.434	64.9
779.747	64.92
780.061	65.04
780.375	65.3
780.689	65.67
781.002	65.71
781.316	66.16
781.629	66.43
781.943	66.31
782.256	66.37
782.57	66.46
782.883	66.93
783.196	66.82
783.51	67.37
783.823	67.57
784.136	67.31
784.449	67.55
784.762	67.75
785.075	67.83
785.388	67.48
785.701	68.47
786.014	68.89
786.327	68.44
786.64	68.58
786.953	68.08
787.266	68.13
787.578	68.04
787.891	67.68
788.204	67.73
788.516	68.64
788.829	68.33
789.141	68.5
789.454	68.04
789.766	67.77
790.079	67.33
790.391	67.24
790.703	67.44
791.016	67.35
791.328	67.29
791.64	67.46
791.952	67.43
792.264	67.41
792.576	66.85
792.888	67.2
793.2	67.18
793.512	67.57
793.824	67.58
794.136	67.9
794.448	68.46
794.76	68.53
795.071	68
795.383	68.53
795.695	68.42
796.006	68.17
796.318	68.39
796.629	68.04
796.941	68.12
797.252	68.45
797.564	68.28
797.875	68.52
798.186	68.06
798.497	68.31
798.809	68.63
799.12	68.41
799.431	67.7
799.742	67.85
800.053	67.56
800.364	67.52
800.675	67.62
800.986	67.67
801.297	67.3
801.608	66.98
801.918	67.13
802.229	67.26
802.54	67.68
802.851	67.34
803.161	67.54
803.472	67.03
803.782	67.44
804.093	67.49
804.403	67.82
804.714	67.82
805.024	67.37
805.334	66.6
805.645	66.45
805.955	66.93
806.265	66.94
806.575	67.66
806.885	68.13
807.195	67.8
807.505	67.2
807.815	67.73
808.125	67.95
808.435	67.44
808.745	66.84
809.055	66.77
809.365	66.79
809.674	67.55
809.984	67.89
810.294	67.47
810.603	67.69
810.913	67.48
811.222	67.72
811.532	67.81
811.841	68.12
812.151	68.1
812.46	68.67
812.769	68.01
813.079	67.8
813.388	67.4
813.697	66.53
814.006	67.01
814.315	67.11
814.624	67.24
814.933	67.8
815.242	67.98
815.551	67.98
815.86	68.29
816.169	67.13
816.478	68.35
816.786	68.35
817.095	68.37
817.404	67.99
817.712	67.72
818.021	68.08
818.33	68.03
818.638	68.61
818.947	68.4
819.255	68.33
819.563	68.1
819.872	68.31
820.18	68.48
820.488	67.84
820.796	67.69
821.105	67.78
821.413	67.82
821.721	67.85
822.029	67.87
822.337	67.93
822.645	67.82
822.953	67.55
823.26	67.3
823.568	67.13
823.876	67.21
824.184	67.31
824.491	67.32
824.799	67.08
825.107	67.23
825.414	67.21
825.722	67.19
826.029	67.3
826.337	67.28
826.644	67.5
826.951	67.78
827.259	67.85
827.566	67.74
827.873	67.53
828.18	67.42
828.488	67.39
828.795	67.33
829.102	67.85
829.409	67.68
829.716	68.01
830.023	68.34
830.329	68.51
830.636	68.69
830.943	68.47
831.25	69.21
831.557	68.95
831.863	68.97
832.17	68.67
832.476	68.37
832.783	68.01
833.089	67.91
833.396	67.52
833.702	67.27
834.009	67.28
834.315	67.54
834.621	67.71
834.928	67.76
835.234	67.39
835.54	67.29
835.846	67.62
836.152	67.63
836.458	67.3
836.764	67.05
837.07	66.85
837.376	67.15
837.682	67.04
837.988	66.41
838.293	66.08
838.599	66.93
838.905	67.35
839.211	67.84
839.516	68.04
839.822	69.59
840.127	69.81
840.433	70.3
840.738	70.88
841.044	70.86
841.349	72.03
841.654	73.53
841.959	72.86
842.265	73.31
842.57	73.34
842.875	73.87
843.18	73.18
843.485	72.81
843.79	72.26
844.095	72.3
844.4	74.49
844.705	75.18
845.01	74.35
845.315	74.04
845.619	74.69
845.924	74.98
846.229	73.25
846.533	73.51
846.838	73.11
847.142	72.3
847.447	72.59
847.751	70.32
848.056	68.69
848.36	68.77
848.664	67.6
848.969	67.54
849.273	67.46
849.577	69.21
849.881	69.88
850.185	71.21
850.489	70.57
850.794	69.14
851.097	69.04
851.401	68.98
851.705	69.49
852.009	68.71
852.313	68
852.617	65.75
852.92	64.85
853.224	64.82
853.528	65.07
853.831	65.67
854.135	66.7
854.438	67.68
854.742	66.83
855.045	69.54
855.349	69.15
855.652	68.34
855.955	65.84
856.259	65.94
856.562	63.92
856.865	64.39
857.168	64.12
857.471	63.92
857.774	66.24
858.077	64.31
858.38	63.42
858.683	61.87
858.986	66.83
859.289	67.77
859.592	67.43
859.894	65.31
860.197	64.39
860.5	63.56
860.802	63.13
861.105	65.32
861.407	62.73
861.71	63.86
862.012	65.54
862.315	69.17
862.617	71.2
862.919	71.37
863.222	69.49
863.524	70.81
863.826	69.77
864.128	66.18
864.43	68.28
864.732	67.77
865.034	69.26
865.336	66.15
865.638	66.6
865.94	68.5
866.242	68.16
866.544	69.3
866.846	71.01
867.147	69.21
867.449	70.5
867.751	71.07
868.052	71.58
868.354	71.44
868.655	71.27
868.957	69.4
869.258	71.53
869.56	73.88
869.861	74.73
870.162	75.98
870.463	78.72
870.765	78.24
871.066	78.4
871.367	76.17
871.668	75.85
871.969	74.37
872.27	74.11
872.571	77.8
872.872	75.72
873.173	75.6
873.473	76.19
873.774	73.59
874.075	74.21
874.376	72.58
874.676	75.21
874.977	73.93
875.277	73.06
875.578	70.73
875.878	69.93
876.179	68.14
876.479	68.5
876.78	67.95
877.08	66.88
877.38	67.41
877.68	69.86
877.981	71.36
878.281	71.83
878.581	70.74
