Data from BU57653_Reflection_00007.txt Node
Date: Mon Nov 18 16:52:09 EST 2019
User: vgr7
Spectrometer: USB2G7710
Scans to average: 3
Trigger mode: 4
Integration Time (sec): 2.000000E-2
Electric dark correction enabled: true
Boxcar width: 10
XAxis mode: Wavelengths
Number of Pixels in Spectrum: 2048
>>>>>Begin Spectral Data<<<<<
177.721	-157.9
178.105	-226.2
178.488	-154.75
178.871	-52.88
179.254	-40.48
179.636	19.28
180.019	56.09
180.402	106.67
180.785	2.05
181.168	-80.41
181.55	-27.46
181.933	13.22
182.316	25.42
182.698	38.85
183.081	16.61
183.463	115.21
183.846	-60.74
184.228	-59.65
184.611	-63.78
184.993	-47.16
185.376	304.72
185.758	87.58
186.14	335.29
186.522	21.9
186.904	9.02
187.287	17.26
187.669	48.87
188.051	55.09
188.433	-21.84
188.815	-0.67
189.197	-13.59
189.579	1.9
189.961	-14.12
190.342	-23.21
190.724	-9.74
191.106	-17.02
191.488	-33.81
191.869	-56.63
192.251	-46.03
192.633	-26.5
193.014	-33.64
193.396	-68.18
193.777	-57.64
194.159	-47.1
194.54	-68.21
194.922	-52.84
195.303	-65.53
195.684	-65.91
196.065	-38.4
196.447	-20.4
196.828	-29.72
197.209	-35.59
197.59	-32.81
197.971	-35.09
198.352	-27.53
198.733	-43.77
199.114	-21.52
199.495	-23.56
199.876	-18.05
200.257	-6.72
200.638	-14.51
201.018	-24.71
201.399	-9.34
201.78	-3.06
202.16	9.39
202.541	17.01
202.922	8.52
203.302	4.8
203.683	8.63
204.063	-21.87
204.444	-37.01
204.824	-34.81
205.204	-28.03
205.585	-61.27
205.965	-75.25
206.345	-113.08
206.725	-130.37
207.106	-1095.27
207.486	-4386.49
207.866	173.55
208.246	639.92
208.626	-688.38
209.006	-82.81
209.386	-118.33
209.766	-133.65
210.145	-78.96
210.525	-63.47
210.905	-33.82
211.285	-34.05
211.664	-41.15
212.044	-27.18
212.424	-8.22
212.803	8.05
213.183	19
213.562	24.6
213.942	50.22
214.321	55.33
214.701	45.47
215.08	31.66
215.459	30.16
215.838	37.38
216.218	42.09
216.597	46.35
216.976	38.16
217.355	47.8
217.734	52.03
218.113	46.35
218.492	54.34
218.871	40.89
219.25	57.4
219.629	40.66
220.008	43.13
220.387	26.69
220.766	13.55
221.144	-16.77
221.523	-32.17
221.902	-33.3
222.28	-29.03
222.659	-31.94
223.037	-27.31
223.416	-20.22
223.794	-33.45
224.173	-29.92
224.551	-20.73
224.929	-20.1
225.308	-18.82
225.686	-17.24
226.064	-8.09
226.442	-8.16
226.821	-1.67
227.199	-1.18
227.577	-0.63
227.955	0.96
228.333	3.3
228.711	6.01
229.089	10.65
229.467	9.55
229.845	7.87
230.222	7.26
230.6	8.23
230.978	9.4
231.356	8.07
231.733	9.3
232.111	8.66
232.488	9.54
232.866	10.33
233.243	11.48
233.621	12.25
233.998	10.79
234.376	11.16
234.753	11.36
235.13	10.81
235.508	11.56
235.885	11.52
236.262	8.66
236.639	7.48
237.016	6.72
237.393	7.62
237.77	8.24
238.147	7.25
238.524	6.7
238.901	5.8
239.278	6.71
239.655	6.68
240.032	7.03
240.409	5.98
240.785	5.94
241.162	5.54
241.539	5.5
241.915	5.36
242.292	4.56
242.668	4.48
243.045	4.23
243.421	3.87
243.798	3.21
244.174	3.38
244.551	3.11
244.927	2.91
245.303	3.2
245.679	3.1
246.056	3.38
246.432	3.27
246.808	3.53
247.184	3.3
247.56	3.15
247.936	3.08
248.312	2.99
248.688	2.99
249.064	2.9
249.44	2.72
249.815	2.64
250.191	2.72
250.567	2.63
250.943	2.52
251.318	2.67
251.694	2.81
252.069	2.94
252.445	3.26
252.82	3.42
253.196	3.06
253.571	3.16
253.947	3.01
254.322	3.13
254.697	2.64
255.073	2.68
255.448	2.51
255.823	2.34
256.198	2.56
256.573	2.48
256.948	2.61
257.323	2.44
257.698	2.38
258.073	2.41
258.448	2.16
258.823	2.12
259.198	2.09
259.573	2.12
259.948	2.11
260.322	2.01
260.697	1.99
261.072	1.96
261.446	1.78
261.821	1.67
262.195	1.76
262.57	1.85
262.944	1.83
263.319	1.94
263.693	1.99
264.067	1.97
264.442	2.04
264.816	2.13
265.19	2.22
265.564	2.3
265.938	2.32
266.313	2.53
266.687	2.86
267.061	2.83
267.435	2.99
267.809	2.93
268.183	2.93
268.556	2.84
268.93	3.03
269.304	2.99
269.678	3.08
270.051	2.97
270.425	3.02
270.799	2.92
271.172	2.83
271.546	2.77
271.919	2.57
272.293	2.51
272.666	2.42
273.04	2.35
273.413	2.31
273.787	2.28
274.16	2.29
274.533	2.27
274.906	2.28
275.279	2.09
275.653	2.11
276.026	2.25
276.399	2.35
276.772	2.25
277.145	2.17
277.518	2.13
277.891	2.19
278.263	2.09
278.636	2.22
279.009	2.27
279.382	2.24
279.755	2.33
280.127	2.34
280.5	2.48
280.872	2.57
281.245	2.5
281.617	2.74
281.99	2.9
282.362	2.89
282.735	2.7
283.107	2.68
283.479	2.69
283.852	2.5
284.224	2.42
284.596	2.52
284.968	2.62
285.34	2.78
285.713	2.8
286.085	2.83
286.457	2.87
286.829	2.84
287.201	3.05
287.572	3.12
287.944	3.06
288.316	2.99
288.688	3.07
289.06	3.05
289.431	2.84
289.803	2.68
290.175	2.64
290.546	2.72
290.918	2.8
291.289	2.91
291.661	3.15
292.032	3.19
292.403	3.15
292.775	3.25
293.146	3.06
293.517	3.1
293.889	3.28
294.26	3.13
294.631	3.19
295.002	2.99
295.373	2.96
295.744	3.03
296.115	2.97
296.486	2.8
296.857	2.84
297.228	3
297.599	2.93
297.97	2.95
298.34	3.1
298.711	3.26
299.082	3.17
299.452	3.15
299.823	3.41
300.194	3.5
300.564	3.34
300.935	3.47
301.305	3.41
301.676	3.4
302.046	3.68
302.416	3.82
302.787	3.89
303.157	4.03
303.527	4.03
303.897	4.14
304.267	4.44
304.637	4.62
305.008	4.62
305.378	4.94
305.748	4.99
306.117	4.91
306.487	4.84
306.857	4.91
307.227	4.85
307.597	4.6
307.967	4.53
308.336	4.77
308.706	4.71
309.076	4.84
309.445	4.79
309.815	4.63
310.184	4.48
310.554	4.55
310.923	4.59
311.293	4.7
311.662	4.65
312.031	4.64
312.401	4.55
312.77	4.55
313.139	4.58
313.508	4.55
313.877	4.53
314.246	4.65
314.616	4.71
314.985	4.79
315.353	4.78
315.722	4.89
316.091	4.87
316.46	4.97
316.829	4.93
317.198	5.03
317.567	5.1
317.935	5.23
318.304	5.34
318.672	5.23
319.041	5.31
319.41	5.4
319.778	5.26
320.147	5.36
320.515	5.36
320.883	5.23
321.252	5.42
321.62	5.53
321.988	5.5
322.357	5.5
322.725	5.38
323.093	5.45
323.461	5.52
323.829	5.65
324.197	5.62
324.565	5.61
324.933	5.49
325.301	5.51
325.669	5.62
326.037	5.51
326.405	5.64
326.772	5.58
327.14	5.67
327.508	5.83
327.875	5.84
328.243	5.99
328.61	6.1
328.978	6.11
329.346	6.23
329.713	6.08
330.08	6.05
330.448	6.07
330.815	6.08
331.182	6.02
331.55	5.93
331.917	6.03
332.284	6.13
332.651	6.21
333.018	6.24
333.385	6.08
333.752	6.21
334.119	6.13
334.486	6.18
334.853	6.19
335.22	6.06
335.587	6.2
335.954	6.04
336.32	5.95
336.687	5.85
337.054	5.65
337.42	5.81
337.787	5.88
338.153	5.88
338.52	5.95
338.886	5.92
339.253	5.89
339.619	5.95
339.986	5.86
340.352	5.94
340.718	6.01
341.084	6.05
341.451	6.09
341.817	6.18
342.183	6.2
342.549	6.18
342.915	6.28
343.281	6.17
343.647	6.19
344.013	6.29
344.379	6.29
344.745	6.38
345.11	6.4
345.476	6.35
345.842	6.45
346.208	6.35
346.573	6.44
346.939	6.55
347.304	6.44
347.67	6.49
348.035	6.38
348.401	6.38
348.766	6.49
349.132	6.5
349.497	6.41
349.862	6.41
350.228	6.37
350.593	6.29
350.958	6.33
351.323	6.38
351.688	6.27
352.053	6.39
352.418	6.46
352.783	6.37
353.148	6.35
353.513	6.27
353.878	6.34
354.243	6.19
354.608	6.14
354.972	6.15
355.337	6.13
355.702	6.21
356.066	6.11
356.431	6.02
356.795	6.03
357.16	5.96
357.524	5.95
357.889	5.91
358.253	5.94
358.618	5.92
358.982	5.87
359.346	5.85
359.71	5.81
360.075	5.74
360.439	5.76
360.803	5.74
361.167	5.72
361.531	5.69
361.895	5.72
362.259	5.68
362.623	5.68
362.987	5.65
363.351	5.6
363.714	5.65
364.078	5.65
364.442	5.59
364.806	5.65
365.169	5.56
365.533	5.56
365.896	5.56
366.26	5.52
366.623	5.62
366.987	5.62
367.35	5.48
367.714	5.49
368.077	5.38
368.44	5.39
368.803	5.4
369.167	5.36
369.53	5.29
369.893	5.28
370.256	5.23
370.619	5.19
370.982	5.15
371.345	5
371.708	4.94
372.071	4.84
372.434	4.75
372.797	4.77
373.159	4.73
373.522	4.65
373.885	4.56
374.247	4.47
374.61	4.46
374.973	4.49
375.335	4.46
375.698	4.44
376.06	4.42
376.423	4.35
376.785	4.33
377.147	4.35
377.51	4.29
377.872	4.28
378.234	4.29
378.596	4.27
378.958	4.29
379.321	4.26
379.683	4.29
380.045	4.29
380.407	4.23
380.769	4.17
381.13	4.21
381.492	4.23
381.854	4.15
382.216	4.1
382.578	4.07
382.939	4.01
383.301	3.96
383.663	3.92
384.024	3.94
384.386	3.96
384.747	3.96
385.109	3.95
385.47	3.87
385.832	3.84
386.193	3.8
386.554	3.77
386.916	3.73
387.277	3.68
387.638	3.68
387.999	3.64
388.36	3.66
388.721	3.59
389.082	3.61
389.443	3.55
389.804	3.54
390.165	3.48
390.526	3.48
390.887	3.5
391.248	3.52
391.609	3.48
391.969	3.48
392.33	3.45
392.691	3.41
393.051	3.4
393.412	3.41
393.772	3.38
394.133	3.33
394.493	3.3
394.854	3.29
395.214	3.25
395.574	3.25
395.935	3.23
396.295	3.24
396.655	3.17
397.015	3.2
397.376	3.17
397.736	3.18
398.096	3.14
398.456	3.13
398.816	3.1
399.176	3.09
399.535	3.01
399.895	2.96
400.255	2.96
400.615	2.95
400.975	2.88
401.334	2.89
401.694	2.91
402.054	2.93
402.413	2.92
402.773	2.88
403.132	2.85
403.492	2.83
403.851	2.8
404.211	2.82
404.57	2.78
404.929	2.8
405.288	2.8
405.648	2.82
406.007	2.8
406.366	2.78
406.725	2.77
407.084	2.78
407.443	2.78
407.802	2.77
408.161	2.75
408.52	2.78
408.879	2.78
409.238	2.8
409.596	2.8
409.955	2.79
410.314	2.84
410.673	2.82
411.031	2.83
411.39	2.83
411.748	2.82
412.107	2.81
412.465	2.8
412.824	2.79
413.182	2.75
413.54	2.73
413.899	2.75
414.257	2.73
414.615	2.69
414.974	2.69
415.332	2.68
415.69	2.68
416.048	2.66
416.406	2.62
416.764	2.59
417.122	2.57
417.48	2.55
417.838	2.53
418.195	2.54
418.553	2.53
418.911	2.53
419.269	2.52
419.626	2.51
419.984	2.49
420.342	2.49
420.699	2.5
421.057	2.5
421.414	2.47
421.772	2.47
422.129	2.47
422.486	2.47
422.844	2.48
423.201	2.47
423.558	2.46
423.915	2.46
424.273	2.47
424.63	2.45
424.987	2.45
425.344	2.44
425.701	2.45
426.058	2.45
426.415	2.43
426.772	2.43
427.128	2.44
427.485	2.44
427.842	2.42
428.199	2.41
428.555	2.4
428.912	2.41
429.269	2.42
429.625	2.42
429.982	2.41
430.338	2.38
430.695	2.4
431.051	2.41
431.407	2.42
431.764	2.4
432.12	2.4
432.476	2.41
432.832	2.41
433.189	2.39
433.545	2.37
433.901	2.37
434.257	2.36
434.613	2.35
434.969	2.36
435.325	2.37
435.681	2.38
436.036	2.38
436.392	2.38
436.748	2.38
437.104	2.37
437.459	2.36
437.815	2.36
438.171	2.35
438.526	2.36
438.882	2.35
439.237	2.36
439.593	2.36
439.948	2.35
440.304	2.35
440.659	2.35
441.014	2.36
441.369	2.36
441.725	2.36
442.08	2.36
442.435	2.35
442.79	2.35
443.145	2.35
443.5	2.34
443.855	2.34
444.21	2.32
444.565	2.33
444.92	2.35
445.275	2.34
445.629	2.33
445.984	2.33
446.339	2.32
446.693	2.31
447.048	2.32
447.403	2.32
447.757	2.32
448.112	2.33
448.466	2.31
448.82	2.31
449.175	2.31
449.529	2.29
449.883	2.29
450.238	2.28
450.592	2.27
450.946	2.26
451.3	2.25
451.654	2.25
452.008	2.24
452.362	2.22
452.716	2.23
453.07	2.24
453.424	2.24
453.778	2.23
454.132	2.21
454.486	2.21
454.839	2.21
455.193	2.21
455.547	2.2
455.9	2.22
456.254	2.2
456.607	2.2
456.961	2.22
457.314	2.23
457.668	2.22
458.021	2.22
458.375	2.24
458.728	2.25
459.081	2.24
459.434	2.23
459.787	2.25
460.141	2.26
460.494	2.25
460.847	2.24
461.2	2.24
461.553	2.26
461.906	2.26
462.259	2.28
462.611	2.29
462.964	2.31
463.317	2.3
463.67	2.32
464.022	2.32
464.375	2.31
464.728	2.33
465.08	2.36
465.433	2.38
465.785	2.39
466.138	2.4
466.49	2.43
466.843	2.44
467.195	2.44
467.547	2.45
467.899	2.47
468.252	2.46
468.604	2.48
468.956	2.48
469.308	2.48
469.66	2.45
470.012	2.48
470.364	2.46
470.716	2.47
471.068	2.46
471.42	2.47
471.772	2.48
472.123	2.47
472.475	2.45
472.827	2.45
473.178	2.45
473.53	2.45
473.882	2.43
474.233	2.44
474.585	2.41
474.936	2.4
475.288	2.39
475.639	2.41
475.99	2.4
476.342	2.4
476.693	2.4
477.044	2.43
477.395	2.41
477.746	2.41
478.097	2.4
478.448	2.4
478.8	2.4
479.15	2.4
479.501	2.41
479.852	2.41
480.203	2.4
480.554	2.4
480.905	2.4
481.255	2.4
481.606	2.39
481.957	2.4
482.307	2.39
482.658	2.39
483.009	2.4
483.359	2.41
483.709	2.41
484.06	2.4
484.41	2.4
484.761	2.4
485.111	2.4
485.461	2.4
485.811	2.4
486.162	2.4
486.512	2.4
486.862	2.4
487.212	2.4
487.562	2.41
487.912	2.4
488.262	2.4
488.612	2.39
488.961	2.4
489.311	2.41
489.661	2.42
490.011	2.42
490.36	2.42
490.71	2.41
491.06	2.41
491.409	2.42
491.759	2.42
492.108	2.43
492.458	2.44
492.807	2.44
493.157	2.46
493.506	2.48
493.855	2.49
494.204	2.49
494.554	2.5
494.903	2.5
495.252	2.52
495.601	2.55
495.95	2.57
496.299	2.58
496.648	2.6
496.997	2.59
497.346	2.62
497.695	2.63
498.043	2.63
498.392	2.64
498.741	2.66
499.09	2.68
499.438	2.7
499.787	2.71
500.135	2.74
500.484	2.74
500.832	2.75
501.181	2.78
501.529	2.81
501.878	2.82
502.226	2.85
502.574	2.86
502.923	2.88
503.271	2.9
503.619	2.91
503.967	2.93
504.315	2.97
504.663	2.99
505.011	3.02
505.359	3.06
505.707	3.11
506.055	3.13
506.403	3.15
506.751	3.18
507.098	3.22
507.446	3.26
507.794	3.3
508.141	3.33
508.489	3.38
508.837	3.41
509.184	3.46
509.531	3.48
509.879	3.54
510.226	3.58
510.574	3.62
510.921	3.66
511.268	3.71
511.616	3.76
511.963	3.81
512.31	3.86
512.657	3.92
513.004	3.96
513.351	4.03
513.698	4.09
514.045	4.14
514.392	4.19
514.739	4.23
515.086	4.31
515.432	4.38
515.779	4.43
516.126	4.51
516.473	4.58
516.819	4.65
517.166	4.69
517.512	4.75
517.859	4.8
518.205	4.86
518.552	4.92
518.898	4.97
519.245	5.05
519.591	5.11
519.937	5.16
520.283	5.22
520.629	5.27
520.976	5.35
521.322	5.41
521.668	5.49
522.014	5.59
522.36	5.65
522.706	5.73
523.052	5.82
523.398	5.92
523.743	6
524.089	6.11
524.435	6.21
524.781	6.31
525.126	6.4
525.472	6.47
525.817	6.54
526.163	6.59
526.509	6.66
526.854	6.73
527.199	6.8
527.545	6.87
527.89	6.94
528.235	6.99
528.581	7.07
528.926	7.13
529.271	7.2
529.616	7.27
529.961	7.33
530.306	7.4
530.651	7.47
530.996	7.55
531.341	7.62
531.686	7.69
532.031	7.77
532.376	7.87
532.721	7.96
533.065	8.08
533.41	8.2
533.755	8.29
534.099	8.39
534.444	8.49
534.788	8.6
535.133	8.7
535.477	8.81
535.822	8.91
536.166	9.04
536.51	9.17
536.855	9.31
537.199	9.46
537.543	9.62
537.887	9.77
538.231	9.93
538.576	10.08
538.92	10.26
539.264	10.38
539.608	10.51
539.951	10.64
540.295	10.74
540.639	10.88
540.983	11.01
541.327	11.13
541.671	11.27
542.014	11.4
542.358	11.54
542.701	11.65
543.045	11.79
543.389	11.92
543.732	12.08
544.075	12.2
544.419	12.34
544.762	12.49
545.105	12.65
545.449	12.82
545.792	13
546.135	13.17
546.478	13.39
546.821	13.61
547.165	13.83
547.508	14.08
547.851	14.28
548.194	14.5
548.536	14.74
548.879	14.99
549.222	15.24
549.565	15.46
549.908	15.75
550.25	16.01
550.593	16.26
550.936	16.53
551.278	16.79
551.621	17.06
551.963	17.33
552.306	17.61
552.648	17.84
552.991	18.14
553.333	18.41
553.675	18.66
554.017	18.9
554.36	19.15
554.702	19.38
555.044	19.66
555.386	19.93
555.728	20.19
556.07	20.47
556.412	20.7
556.754	20.99
557.096	21.28
557.438	21.59
557.78	21.88
558.121	22.12
558.463	22.46
558.805	22.74
559.147	23.02
559.488	23.26
559.83	23.59
560.171	23.83
560.513	24.13
560.854	24.46
561.196	24.78
561.537	25.1
561.878	25.39
562.22	25.65
562.561	25.94
562.902	26.31
563.243	26.54
563.584	26.88
563.925	27.17
564.266	27.41
564.607	27.66
564.948	27.91
565.289	28.24
565.63	28.48
565.971	28.76
566.312	29
566.653	29.32
566.993	29.56
567.334	29.82
567.675	30.01
568.015	30.26
568.356	30.49
568.696	30.73
569.037	31
569.377	31.25
569.718	31.5
570.058	31.72
570.398	31.95
570.739	32.22
571.079	32.53
571.419	32.77
571.759	33.04
572.099	33.26
572.439	33.47
572.779	33.7
573.119	33.92
573.459	34.14
573.799	34.37
574.139	34.6
574.479	34.8
574.819	35.04
575.158	35.25
575.498	35.48
575.838	35.71
576.177	35.94
576.517	36.21
576.856	36.48
577.196	36.67
577.535	36.91
577.875	37.12
578.214	37.29
578.553	37.56
578.893	37.77
579.232	38.05
579.571	38.26
579.91	38.48
580.25	38.69
580.589	38.92
580.928	39.12
581.267	39.32
581.606	39.61
581.945	39.78
582.283	39.98
582.622	40.22
582.961	40.44
583.3	40.67
583.639	40.84
583.977	41.02
584.316	41.2
584.654	41.34
584.993	41.5
585.332	41.7
585.67	41.9
586.008	42.1
586.347	42.27
586.685	42.48
587.024	42.65
587.362	42.81
587.7	42.99
588.038	43.15
588.376	43.26
588.715	43.36
589.053	43.58
589.391	43.78
589.729	43.9
590.067	44.01
590.404	44.07
590.742	44.23
591.08	44.31
591.418	44.53
591.756	44.7
592.093	44.81
592.431	44.9
592.769	44.95
593.106	45.04
593.444	45.15
593.781	45.24
594.119	45.29
594.456	45.42
594.793	45.48
595.131	45.62
595.468	45.75
595.805	45.87
596.143	45.98
596.48	46.04
596.817	46.17
597.154	46.33
597.491	46.41
597.828	46.48
598.165	46.57
598.502	46.59
598.839	46.73
599.176	46.89
599.512	47.01
599.849	47.21
600.186	47.32
600.523	47.43
600.859	47.56
601.196	47.71
601.532	47.86
601.869	48.01
602.205	48.07
602.542	48.19
602.878	48.29
603.215	48.34
603.551	48.41
603.887	48.44
604.223	48.48
604.56	48.57
604.896	48.61
605.232	48.73
605.568	48.75
605.904	48.81
606.24	48.84
606.576	48.9
606.912	48.91
607.248	48.95
607.583	49.04
607.919	49.09
608.255	49.13
608.591	49.19
608.926	49.29
609.262	49.39
609.597	49.39
609.933	49.49
610.268	49.53
610.604	49.6
610.939	49.68
611.275	49.75
611.61	49.81
611.945	49.95
612.281	49.98
612.616	50.13
612.951	50.18
613.286	50.29
613.621	50.36
613.956	50.52
614.291	50.57
614.626	50.59
614.961	50.72
615.296	50.73
615.631	50.79
615.966	50.83
616.3	50.86
616.635	50.96
616.97	50.92
617.304	50.95
617.639	51
617.973	51.05
618.308	51.04
618.642	51.09
618.977	51.15
619.311	51.16
619.646	51.12
619.98	51.21
620.314	51.27
620.648	51.32
620.983	51.18
621.317	51.31
621.651	51.43
621.985	51.49
622.319	51.53
622.653	51.48
622.987	51.51
623.321	51.54
623.655	51.63
623.988	51.73
624.322	51.89
624.656	52.02
624.99	52
625.323	52.03
625.657	52.07
625.99	52.11
626.324	52.1
626.657	52.18
626.991	52.15
627.324	52.12
627.658	52.11
627.991	52.19
628.324	52.2
628.657	52.13
628.991	52.11
629.324	52.17
629.657	52.22
629.99	52.25
630.323	52.32
630.656	52.26
630.989	52.27
631.322	52.26
631.655	52.22
631.987	52.32
632.32	52.31
632.653	52.36
632.986	52.36
633.318	52.4
633.651	52.54
633.984	52.55
634.316	52.67
634.649	52.7
634.981	52.76
635.313	52.8
635.646	52.93
635.978	52.95
636.31	52.93
636.643	52.96
636.975	52.98
637.307	52.99
637.639	53.07
637.971	53.04
638.303	53.03
638.635	53.01
638.967	53.04
639.299	53.19
639.631	53.11
639.963	53.09
640.295	53.23
640.626	53.15
640.958	53.14
641.29	53.08
641.621	53.1
641.953	53.12
642.285	53.23
642.616	53.26
642.948	53.32
643.279	53.46
643.61	53.44
643.942	53.48
644.273	53.47
644.604	53.48
644.936	53.59
645.267	53.53
645.598	53.57
645.929	53.45
646.26	53.57
646.591	53.66
646.922	53.75
647.253	53.68
647.584	53.78
647.915	53.86
648.245	53.87
648.576	54.03
648.907	54.09
649.238	54
649.568	54.02
649.899	54
650.229	54.04
650.56	54.13
650.89	54.11
651.221	54.12
651.551	54.22
651.882	54.15
652.212	54.26
652.542	54.29
652.872	54.43
653.203	54.36
653.533	54.37
653.863	54.4
654.193	54.4
654.523	54.41
654.853	54.56
655.183	54.63
655.513	54.56
655.843	54.6
656.172	54.76
656.502	54.71
656.832	54.81
657.162	54.87
657.491	54.86
657.821	54.87
658.15	54.89
658.48	54.92
658.809	55.04
659.139	54.94
659.468	54.96
659.798	54.94
660.127	54.94
660.456	54.99
660.785	54.99
661.115	55.02
661.444	54.93
661.773	54.84
662.102	54.79
662.431	54.67
662.76	54.67
663.089	54.54
663.418	54.63
663.747	54.58
664.076	54.5
664.404	54.51
664.733	54.51
665.062	54.5
665.39	54.46
665.719	54.46
666.048	54.61
666.376	54.65
666.705	54.7
667.033	54.59
667.362	54.53
667.69	54.61
668.018	54.6
668.347	54.61
668.675	54.57
669.003	54.62
669.331	54.71
669.659	54.81
669.987	54.76
670.315	54.62
670.643	54.6
670.971	54.57
671.299	54.59
671.627	54.61
671.955	54.65
672.283	54.61
672.61	54.59
672.938	54.43
673.266	54.54
673.593	54.62
673.921	54.8
674.249	54.98
674.576	54.81
674.904	54.86
675.231	54.95
675.558	55.06
675.886	55.07
676.213	55.12
676.54	55.02
676.867	55.16
677.195	55.35
677.522	55.39
677.849	55.53
678.176	55.5
678.503	55.63
678.83	55.78
679.157	55.69
679.484	55.66
679.81	55.83
680.137	55.82
680.464	55.66
680.791	55.7
681.117	55.61
681.444	55.76
681.771	55.8
682.097	55.74
682.424	55.7
682.75	55.67
683.077	55.72
683.403	55.85
683.729	55.77
684.056	55.67
684.382	55.62
684.708	55.61
685.034	55.73
685.36	55.69
685.686	55.58
686.012	55.61
686.339	55.63
686.664	55.62
686.99	55.54
687.316	55.78
687.642	55.73
687.968	55.7
688.294	55.66
688.619	55.73
688.945	55.78
689.271	55.92
689.596	55.98
689.922	55.99
690.247	55.8
690.573	56.06
690.898	56.2
691.224	56.15
691.549	56.28
691.874	56.25
692.2	56.11
692.525	56.11
692.85	56.26
693.175	56.36
693.5	56.12
693.825	56.02
694.15	55.9
694.475	55.78
694.8	55.7
695.125	55.73
695.45	55.63
695.775	55.68
696.099	55.62
696.424	55.54
696.749	55.5
697.073	55.59
697.398	55.41
697.723	55.41
698.047	55.49
698.372	55.36
698.696	55.33
699.02	55.47
699.345	55.64
699.669	55.71
699.993	55.67
700.318	55.79
700.642	55.85
700.966	55.83
701.29	55.78
701.614	55.92
701.938	55.93
702.262	55.96
702.586	55.87
702.91	55.81
703.234	55.98
703.557	56.06
703.881	55.98
704.205	56
704.529	55.81
704.852	55.92
705.176	55.94
705.499	56.1
705.823	55.95
706.146	55.6
706.47	55.42
706.793	55.27
707.117	55.29
707.44	55.34
707.763	55.34
708.086	55.62
708.409	55.64
708.733	55.47
709.056	55.35
709.379	55.61
709.702	55.79
710.025	55.55
710.348	55.53
710.671	55.63
710.993	55.57
711.316	55.71
711.639	55.68
711.962	55.67
712.284	55.55
712.607	55.81
712.93	55.87
713.252	55.87
713.575	56.01
713.897	56.15
714.22	56.21
714.542	56.31
714.864	56.19
715.187	55.88
715.509	55.99
715.831	56.28
716.153	56.11
716.475	55.95
716.798	56.07
717.12	56.07
717.442	56.02
717.764	56.04
718.085	55.87
718.407	55.92
718.729	55.96
719.051	55.86
719.373	55.65
719.695	55.68
720.016	55.8
720.338	55.71
720.659	55.67
720.981	55.52
721.302	55.28
721.624	55.4
721.945	55.86
722.267	55.85
722.588	55.74
722.909	55.8
723.231	55.64
723.552	55.7
723.873	55.74
724.194	56.02
724.515	56.29
724.836	56.46
725.157	56.29
725.478	56.38
725.799	56.42
726.12	56.45
726.441	56.45
726.762	56.2
727.083	56.38
727.403	56.18
727.724	56.21
728.045	56.42
728.365	56.46
728.686	56.3
729.006	56.26
729.327	56.06
729.647	56.02
729.967	56.26
730.288	56.42
730.608	56.23
730.928	56.01
731.249	55.96
731.569	56
731.889	56.15
732.209	55.93
732.529	56
732.849	56.08
733.169	55.99
733.489	56.26
733.809	56.24
734.129	56.42
734.448	56.54
734.768	56.6
735.088	56.55
735.408	56.56
735.727	56.53
736.047	56.76
736.366	56.84
736.686	56.77
737.005	56.69
737.325	56.8
737.644	56.77
737.963	56.74
738.283	56.56
738.602	56.33
738.921	56.37
739.24	56.32
739.56	56.03
739.879	56.06
740.198	55.94
740.517	55.87
740.836	55.8
741.155	55.75
741.473	55.59
741.792	55.74
742.111	55.83
742.43	56.19
742.748	55.99
743.067	56.06
743.386	56.11
743.704	55.86
744.023	56.06
744.341	56.06
744.66	55.72
744.978	56
745.297	55.98
745.615	56.24
745.933	56.28
746.252	56.44
746.57	56.75
746.888	56.78
747.206	56.76
747.524	56.93
747.842	57.04
748.16	56.98
748.478	56.76
748.796	57.02
749.114	56.88
749.432	57.01
749.749	56.97
750.067	56.94
750.385	57.04
750.703	57.01
751.02	56.9
751.338	57.19
751.655	57.05
751.973	57.22
752.29	57.01
752.608	57.01
752.925	57.13
753.242	57.13
753.56	56.89
753.877	56.9
754.194	56.55
754.511	56.7
754.828	56.75
755.145	56.55
755.462	56.1
755.779	55.93
756.096	56.1
756.413	56.03
756.73	56.11
757.047	55.97
757.364	56.05
757.68	56.45
757.997	56.68
758.314	56.68
758.63	56.36
758.947	56.64
759.264	56.7
759.58	56.46
759.896	56.27
760.213	56.78
760.529	56.88
760.846	56.98
761.162	56.74
761.478	56.63
761.794	56.94
762.11	57.19
762.426	57.03
762.743	57.16
763.059	57.04
763.375	57.17
763.69	57.47
764.006	57.31
764.322	57.41
764.638	57.44
764.954	57.51
765.27	57.62
765.585	57.54
765.901	57.65
766.216	57.61
766.532	57.78
766.848	57.58
767.163	57.56
767.478	57.88
767.794	58.03
768.109	58.25
768.424	57.99
768.74	57.82
769.055	58.26
769.37	58.24
769.685	58.39
770	58.15
770.315	57.81
770.63	57.76
770.945	57.59
771.26	57.15
771.575	56.98
771.89	56.81
772.205	56.7
772.52	56.6
772.834	56.79
773.149	56.7
773.464	56.57
773.778	56.61
774.093	56.14
774.407	56.18
774.722	55.72
775.036	55.95
775.351	56.11
775.665	55.86
775.979	55.81
776.293	56.08
776.608	56.2
776.922	56.6
777.236	56.75
777.55	56.38
777.864	56.36
778.178	56.38
778.492	57
778.806	56.84
779.12	56.71
779.434	56.3
779.747	55.84
780.061	55.79
780.375	55.89
780.689	55.97
781.002	55.88
781.316	56.59
781.629	56.81
781.943	56.71
782.256	57.04
782.57	56.58
782.883	56.39
783.196	56.17
783.51	55.88
783.823	55.42
784.136	55.83
784.449	56.31
784.762	56.26
785.075	56.36
785.388	56.8
785.701	56.94
786.014	57.54
786.327	57.32
786.64	58.01
786.953	57.99
787.266	57.97
787.578	57.83
787.891	57.3
788.204	56.65
788.516	57.16
788.829	56.68
789.141	57.19
789.454	57.27
789.766	57.58
790.079	57.66
790.391	57.91
790.703	57.93
791.016	57.34
791.328	57.38
791.64	57.18
791.952	56.78
792.264	56.42
792.576	55.87
792.888	56.14
793.2	56.01
793.512	55.81
793.824	55.86
794.136	55.74
794.448	55.98
794.76	56.75
795.071	56.2
795.383	56.44
795.695	55.71
796.006	55.64
796.318	55.23
796.629	55.57
796.941	55.61
797.252	55.68
797.564	55.96
797.875	56.16
798.186	56.1
798.497	56.75
798.809	56.71
799.12	56.91
799.431	56.76
799.742	56.25
800.053	56.9
800.364	56.92
800.675	57.21
800.986	56.9
801.297	56.62
801.608	56.26
801.918	56.53
802.229	57.02
802.54	56.83
802.851	57
803.161	56.22
803.472	55.75
803.782	55.42
804.093	55.79
804.403	55.89
804.714	55.4
805.024	54.16
805.334	54.03
805.645	54.36
805.955	54.79
806.265	54.86
806.575	53.58
806.885	53.9
807.195	53.77
807.505	53.54
807.815	53.16
808.125	53.88
808.435	53.86
808.745	54.19
809.055	54.82
809.365	55.52
809.674	55.51
809.984	55.96
810.294	56.19
810.603	55.52
810.913	55.37
811.222	55.9
811.532	56.8
811.841	57.27
812.151	57.34
812.46	57.65
812.769	57.26
813.079	57.43
813.388	57.25
813.697	57.41
814.006	57.44
814.315	58.04
814.624	57.95
814.933	57.73
815.242	56.87
815.551	57.19
815.86	57.05
816.169	57.34
816.478	56.76
816.786	55.67
817.095	55.83
817.404	56.59
817.712	56.66
818.021	56.76
818.33	56.2
818.638	56.04
818.947	56.04
819.255	56.48
819.563	56.89
819.872	56.66
820.18	56.65
820.488	57.3
820.796	57.3
821.105	57
821.413	56.82
821.721	57.16
822.029	56.93
822.337	56.88
822.645	56.92
822.953	57.14
823.26	57.39
823.568	57.61
823.876	57.62
824.184	57.46
824.491	57.28
824.799	57.43
825.107	57.48
825.414	57.5
825.722	57.56
826.029	57.43
826.337	57.61
826.644	57.67
826.951	57.61
827.259	57.58
827.566	57.82
827.873	57.94
828.18	57.82
828.488	57.77
828.795	57.8
829.102	57.92
829.409	57.77
829.716	57.62
830.023	57.53
830.329	57.06
830.636	57.63
830.943	57.88
831.25	57.99
831.557	57.74
831.863	57.57
832.17	57.49
832.476	58.04
832.783	57.91
833.089	58.02
833.396	58.04
833.702	57.76
834.009	57.49
834.315	57.82
834.621	58.1
834.928	58.54
835.234	58.44
835.54	58.12
835.846	58.22
836.152	58.48
836.458	58.32
836.764	58.66
837.07	58.24
837.376	57.96
837.682	57.98
837.988	58.39
838.293	58.9
838.599	58.82
838.905	58.26
839.211	58.14
839.516	57.63
839.822	56.77
840.127	57.27
840.433	57.49
840.738	57.27
841.044	56.59
841.349	55.24
841.654	55.81
841.959	56.1
842.265	57.62
842.57	56.63
842.875	56.87
843.18	56.62
843.485	56.58
843.79	57.94
844.095	57.75
844.4	57.47
844.705	56.96
845.01	56.38
845.315	56.06
845.619	55.94
845.924	57.06
846.229	57.71
846.533	56.93
846.838	56.94
847.142	56.95
847.447	56.72
847.751	58.09
848.056	55.84
848.36	55.4
848.664	54.59
848.969	55.78
849.273	53.63
849.577	53.49
849.881	54.2
850.185	51.91
850.489	51.6
850.794	53.41
851.097	55.43
851.401	57.16
851.705	57.59
852.009	57.03
852.313	56.6
852.617	55.73
852.92	55.48
853.224	54.89
853.528	55.99
853.831	55.7
854.135	54.56
854.438	54.86
854.742	57.75
855.045	56.15
855.349	55.98
855.652	57.39
855.955	59.02
856.259	57.43
856.562	58.18
856.865	59.6
857.168	55.26
857.471	52.94
857.774	54.02
858.077	54.91
858.38	56.64
858.683	55.66
858.986	56.96
859.289	60.65
859.592	61.47
859.894	59.93
860.197	60.17
860.5	62.19
860.802	62.27
861.105	60.15
861.407	59.47
861.71	59.97
862.012	60.11
862.315	55.05
862.617	56.41
862.919	58.13
863.222	55.64
863.524	59.4
863.826	61.12
864.128	59.44
864.43	59.86
864.732	60.57
865.034	59.65
865.336	59.72
865.638	59.09
865.94	57.17
866.242	55.28
866.544	54.2
866.846	54.07
867.147	56.36
867.449	58.42
867.751	58.68
868.052	57.56
868.354	58.34
868.655	60.85
868.957	58.39
869.258	55.57
869.56	57.69
869.861	58.59
870.162	54.42
870.463	56.69
870.765	56.31
871.066	54.36
871.367	53.77
871.668	53.7
871.969	53.25
872.27	54.35
872.571	55.07
872.872	55.31
873.173	54.86
873.473	53.65
873.774	51.8
874.075	51.86
874.376	54.22
874.676	53.36
874.977	52.66
875.277	54.63
875.578	57.63
875.878	56.77
876.179	55.04
876.479	57.46
876.78	54.65
877.08	54.09
877.38	54.72
877.68	56.51
877.981	57.15
878.281	54.73
878.581	56.27
