Data from BU57994_Reflection_00006.txt Node
Date: Mon Nov 18 16:53:08 EST 2019
User: vgr7
Spectrometer: USB2G7710
Scans to average: 3
Trigger mode: 4
Integration Time (sec): 2.000000E-2
Electric dark correction enabled: true
Boxcar width: 10
XAxis mode: Wavelengths
Number of Pixels in Spectrum: 2048
>>>>>Begin Spectral Data<<<<<
177.721	-82.28
178.105	-110.68
178.488	-64.31
178.871	-148.77
179.254	-232.68
179.636	-69.63
180.019	-55.42
180.402	76.92
180.785	329.1
181.168	68.75
181.55	78.86
181.933	73.42
182.316	59.25
182.698	33.3
183.081	20.49
183.463	23.11
183.846	65.72
184.228	94.04
184.611	186.96
184.993	1120.13
185.376	-163.01
185.758	-695.85
186.14	-703.63
186.522	-195.97
186.904	-348.74
187.287	-357.86
187.669	-141.89
188.051	-143.09
188.433	-74.13
188.815	-52.61
189.197	-83.46
189.579	-45.93
189.961	-37.25
190.342	-35.94
190.724	-37.79
191.106	-50.18
191.488	-51.34
191.869	-24.71
192.251	-24.41
192.633	-1.94
193.014	-23.61
193.396	-50.28
193.777	-21.49
194.159	-23.02
194.54	-31.45
194.922	-12.68
195.303	10.47
195.684	34.3
196.065	13.68
196.447	-26.19
196.828	6.33
197.209	-2.24
197.59	-11.35
197.971	-24.82
198.352	-8.48
198.733	-18.46
199.114	-7.55
199.495	-0.32
199.876	-26.37
200.257	-27.08
200.638	-35.48
201.018	-31.84
201.399	-26.69
201.78	-27.14
202.16	-35.4
202.541	-59.6
202.922	-97.91
203.302	-105.84
203.683	-127.83
204.063	-129.39
204.444	-98.65
204.824	-113.88
205.204	-99.31
205.585	-85.96
205.965	-72.23
206.345	-96.73
206.725	-102.4
207.106	-133.2
207.486	-208.26
207.866	-160.18
208.246	-168.63
208.626	-189.46
209.006	-172.24
209.386	-191.27
209.766	-161.24
210.145	-133.61
210.525	-69.57
210.905	-47.5
211.285	-22.76
211.664	-23.63
212.044	-14.45
212.424	-19
212.803	-11.86
213.183	-6.38
213.562	-6.82
213.942	-21.83
214.321	-9.17
214.701	-4.33
215.08	-8.5
215.459	-8.52
215.838	-10.98
216.218	-22.74
216.597	-12.68
216.976	-8.96
217.355	-9.14
217.734	-11.46
218.113	-5.26
218.492	-20.59
218.871	-29.52
219.25	-34.79
219.629	-32.22
220.008	-40.65
220.387	-38.64
220.766	-41.11
221.144	-57.01
221.523	-70.35
221.902	-57.32
222.28	-75.91
222.659	-74.42
223.037	-61.64
223.416	-57.54
223.794	-49.08
224.173	-36.63
224.551	-34.85
224.929	-37.06
225.308	-25.43
225.686	-22.42
226.064	-24.12
226.442	-18.08
226.821	-14.74
227.199	-12.91
227.577	-16.36
227.955	-17.5
228.333	-16.17
228.711	-15.55
229.089	-10.02
229.467	-9.99
229.845	-9.77
230.222	-9.94
230.6	-9.09
230.978	-10.23
231.356	-7.6
231.733	-7.75
232.111	-7.25
232.488	-4.5
232.866	-3.64
233.243	-4.62
233.621	-6.33
233.998	-4.1
234.376	-4.79
234.753	-4.25
235.13	-4.82
235.508	-4.78
235.885	-1.55
236.262	-3.59
236.639	-2.76
237.016	-4.05
237.393	-1.33
237.77	-0.57
238.147	1.47
238.524	1.65
238.901	3.63
239.278	3.46
239.655	4.38
240.032	4.46
240.409	3.91
240.785	3.98
241.162	4.56
241.539	5.23
241.915	5.2
242.292	5.21
242.668	5.13
243.045	5.25
243.421	5.64
243.798	5.22
244.174	5.45
244.551	5.58
244.927	5.68
245.303	5.58
245.679	5.75
246.056	5.58
246.432	5.4
246.808	5.37
247.184	5.27
247.56	5.05
247.936	5.06
248.312	4.99
248.688	5.24
249.064	5.09
249.44	4.99
249.815	4.86
250.191	5.01
250.567	4.94
250.943	4.96
251.318	5.12
251.694	5.2
252.069	4.9
252.445	5
252.82	5.21
253.196	4.93
253.571	4.51
253.947	4.42
254.322	4.93
254.697	4.53
255.073	4.47
255.448	4.1
255.823	4.09
256.198	4.14
256.573	3.95
256.948	3.87
257.323	3.97
257.698	4.06
258.073	3.91
258.448	4.12
258.823	4.03
259.198	3.87
259.573	3.88
259.948	3.98
260.322	3.8
260.697	3.76
261.072	3.9
261.446	4.09
261.821	4.08
262.195	4
262.57	4.02
262.944	4.09
263.319	4.22
263.693	4.22
264.067	4.27
264.442	4.27
264.816	4.38
265.19	4.36
265.564	4.35
265.938	4.42
266.313	4.42
266.687	4.48
267.061	4.64
267.435	4.68
267.809	4.85
268.183	4.9
268.556	4.87
268.93	4.93
269.304	4.89
269.678	4.98
270.051	4.9
270.425	4.97
270.799	5.05
271.172	5.14
271.546	5.24
271.919	5.2
272.293	5.15
272.666	5.17
273.04	5.25
273.413	5.22
273.787	5.18
274.16	5.09
274.533	5.19
274.906	5.1
275.279	5.02
275.653	5.04
276.026	5.04
276.399	5
276.772	4.95
277.145	4.81
277.518	4.8
277.891	4.83
278.263	4.78
278.636	4.55
279.009	4.45
279.382	4.48
279.755	4.34
280.127	4.48
280.5	4.57
280.872	4.49
281.245	4.48
281.617	4.55
281.99	4.66
282.362	4.61
282.735	4.54
283.107	4.57
283.479	4.62
283.852	4.63
284.224	4.72
284.596	4.69
284.968	4.65
285.34	4.67
285.713	4.63
286.085	4.7
286.457	4.86
286.829	4.93
287.201	4.82
287.572	4.88
287.944	4.69
288.316	4.7
288.688	4.64
289.06	4.57
289.431	4.57
289.803	4.4
290.175	4.32
290.546	4.42
290.918	4.43
291.289	4.36
291.661	4.54
292.032	4.55
292.403	4.57
292.775	4.73
293.146	4.73
293.517	4.79
293.889	4.79
294.26	4.81
294.631	4.84
295.002	4.8
295.373	4.72
295.744	4.82
296.115	4.77
296.486	4.73
296.857	4.79
297.228	4.91
297.599	4.93
297.97	5.04
298.34	5
298.711	5.03
299.082	5.17
299.452	5.04
299.823	4.98
300.194	4.98
300.564	4.88
300.935	4.88
301.305	4.85
301.676	4.94
302.046	4.93
302.416	5.01
302.787	5.08
303.157	5.26
303.527	5.35
303.897	5.29
304.267	5.56
304.637	5.62
305.008	5.54
305.378	5.67
305.748	5.61
306.117	5.65
306.487	5.8
306.857	5.66
307.227	5.78
307.597	5.8
307.967	5.85
308.336	5.97
308.706	5.98
309.076	6.05
309.445	5.86
309.815	5.76
310.184	5.55
310.554	5.54
310.923	5.46
311.293	5.45
311.662	5.41
312.031	5.34
312.401	5.35
312.77	5.47
313.139	5.49
313.508	5.61
313.877	5.54
314.246	5.35
314.616	5.36
314.985	5.31
315.353	5.34
315.722	5.3
316.091	5.32
316.46	5.28
316.829	5.26
317.198	5.35
317.567	5.4
317.935	5.56
318.304	5.53
318.672	5.61
319.041	5.54
319.41	5.65
319.778	5.63
320.147	5.65
320.515	5.45
320.883	5.46
321.252	5.33
321.62	5.46
321.988	5.48
322.357	5.62
322.725	5.62
323.093	5.7
323.461	5.73
323.829	5.59
324.197	5.61
324.565	5.56
324.933	5.61
325.301	5.58
325.669	5.6
326.037	5.75
326.405	5.76
326.772	5.88
327.14	6.01
327.508	5.99
327.875	5.93
328.243	5.98
328.61	5.85
328.978	5.87
329.346	5.95
329.713	6.03
330.08	5.97
330.448	5.86
330.815	5.6
331.182	5.59
331.55	5.57
331.917	5.67
332.284	5.75
332.651	5.8
333.018	5.94
333.385	5.87
333.752	5.85
334.119	5.86
334.486	5.74
334.853	5.65
335.22	5.54
335.587	5.59
335.954	5.63
336.32	5.77
336.687	5.82
337.054	5.7
337.42	5.62
337.787	5.59
338.153	5.59
338.52	5.72
338.886	5.69
339.253	5.76
339.619	5.68
339.986	5.66
340.352	5.59
340.718	5.53
341.084	5.48
341.451	5.44
341.817	5.41
342.183	5.35
342.549	5.37
342.915	5.52
343.281	5.47
343.647	5.42
344.013	5.48
344.379	5.42
344.745	5.44
345.11	5.43
345.476	5.42
345.842	5.45
346.208	5.42
346.573	5.4
346.939	5.46
347.304	5.34
347.67	5.37
348.035	5.39
348.401	5.39
348.766	5.4
349.132	5.4
349.497	5.36
349.862	5.46
350.228	5.45
350.593	5.41
350.958	5.43
351.323	5.45
351.688	5.3
352.053	5.37
352.418	5.39
352.783	5.47
353.148	5.46
353.513	5.48
353.878	5.53
354.243	5.58
354.608	5.51
354.972	5.66
355.337	5.61
355.702	5.7
356.066	5.69
356.431	5.71
356.795	5.71
357.16	5.79
357.524	5.76
357.889	5.67
358.253	5.63
358.618	5.62
358.982	5.64
359.346	5.64
359.71	5.54
360.075	5.57
360.439	5.51
360.803	5.44
361.167	5.38
361.531	5.37
361.895	5.3
362.259	5.29
362.623	5.29
362.987	5.25
363.351	5.19
363.714	5.2
364.078	5.15
364.442	5.06
364.806	4.94
365.169	4.9
365.533	4.92
365.896	4.91
366.26	4.92
366.623	4.92
366.987	4.94
367.35	4.96
367.714	5.02
368.077	5.01
368.44	5.12
368.803	5.18
369.167	5.16
369.53	5.17
369.893	5.18
370.256	5.11
370.619	5.11
370.982	5.07
371.345	5.02
371.708	5.06
372.071	5.11
372.434	5.16
372.797	5.22
373.159	5.24
373.522	5.27
373.885	5.3
374.247	5.23
374.61	5.23
374.973	5.25
375.335	5.13
375.698	5.21
376.06	5.16
376.423	5.09
376.785	5.09
377.147	5.14
377.51	5.13
377.872	5.16
378.234	5.15
378.596	5.19
378.958	5.24
379.321	5.28
379.683	5.31
380.045	5.29
380.407	5.28
380.769	5.26
381.13	5.22
381.492	5.25
381.854	5.26
382.216	5.26
382.578	5.23
382.939	5.22
383.301	5.12
383.663	5.09
384.024	5.08
384.386	5.14
384.747	5.08
385.109	5.05
385.47	5.03
385.832	5.02
386.193	5.01
386.554	5.02
386.916	5.02
387.277	4.99
387.638	4.98
387.999	4.94
388.36	4.95
388.721	4.99
389.082	4.95
389.443	4.97
389.804	5.02
390.165	5.02
390.526	5.06
390.887	5.06
391.248	5.13
391.609	5.18
391.969	5.13
392.33	5.14
392.691	5.17
393.051	5.19
393.412	5.21
393.772	5.19
394.133	5.14
394.493	5.12
394.854	5.16
395.214	5.19
395.574	5.19
395.935	5.2
396.295	5.19
396.655	5.16
397.015	5.15
397.376	5.11
397.736	5.13
398.096	5.14
398.456	5.16
398.816	5.13
399.176	5.11
399.535	5.1
399.895	5.1
400.255	5.1
400.615	5.09
400.975	5.1
401.334	5.12
401.694	5.15
402.054	5.14
402.413	5.13
402.773	5.11
403.132	5.09
403.492	5.07
403.851	5.1
404.211	5.15
404.57	5.14
404.929	5.16
405.288	5.15
405.648	5.13
406.007	5.15
406.366	5.15
406.725	5.2
407.084	5.26
407.443	5.25
407.802	5.26
408.161	5.26
408.52	5.23
408.879	5.21
409.238	5.24
409.596	5.26
409.955	5.21
410.314	5.25
410.673	5.28
411.031	5.28
411.39	5.29
411.748	5.25
412.107	5.25
412.465	5.22
412.824	5.22
413.182	5.21
413.54	5.19
413.899	5.19
414.257	5.16
414.615	5.11
414.974	5.13
415.332	5.14
415.69	5.12
416.048	5.13
416.406	5.13
416.764	5.09
417.122	5.08
417.48	5.09
417.838	5.09
418.195	5.11
418.553	5.1
418.911	5.07
419.269	5.08
419.626	5.09
419.984	5.08
420.342	5.1
420.699	5.11
421.057	5.12
421.414	5.12
421.772	5.11
422.129	5.12
422.486	5.11
422.844	5.11
423.201	5.1
423.558	5.1
423.915	5.1
424.273	5.12
424.63	5.12
424.987	5.13
425.344	5.12
425.701	5.13
426.058	5.12
426.415	5.13
426.772	5.12
427.128	5.11
427.485	5.13
427.842	5.12
428.199	5.13
428.555	5.12
428.912	5.11
429.269	5.13
429.625	5.12
429.982	5.12
430.338	5.11
430.695	5.12
431.051	5.13
431.407	5.11
431.764	5.09
432.12	5.06
432.476	5.07
432.832	5.06
433.189	5.06
433.545	5.05
433.901	5.04
434.257	5.03
434.613	5.05
434.969	5.04
435.325	5.02
435.681	5.04
436.036	5.02
436.392	5.01
436.748	4.99
437.104	4.99
437.459	5
437.815	5.03
438.171	5.04
438.526	5.04
438.882	5.05
439.237	5.06
439.593	5.06
439.948	5.05
440.304	5.04
440.659	5.03
441.014	5.05
441.369	5.06
441.725	5.08
442.08	5.05
442.435	5.05
442.79	5.04
443.145	5.01
443.5	5.02
443.855	5.02
444.21	5.03
444.565	5.03
444.92	5.04
445.275	5.01
445.629	4.99
445.984	4.98
446.339	4.97
446.693	4.96
447.048	4.97
447.403	4.97
447.757	4.98
448.112	4.96
448.466	4.95
448.82	4.95
449.175	4.94
449.529	4.94
449.883	4.95
450.238	4.95
450.592	4.96
450.946	4.96
451.3	4.95
451.654	4.93
452.008	4.93
452.362	4.91
452.716	4.92
453.07	4.93
453.424	4.94
453.778	4.94
454.132	4.96
454.486	4.95
454.839	4.93
455.193	4.92
455.547	4.92
455.9	4.92
456.254	4.91
456.607	4.91
456.961	4.93
457.314	4.93
457.668	4.91
458.021	4.92
458.375	4.93
458.728	4.95
459.081	4.97
459.434	4.95
459.787	4.97
460.141	4.96
460.494	4.96
460.847	4.97
461.2	4.96
461.553	4.97
461.906	4.98
462.259	5
462.611	5.01
462.964	5.02
463.317	5.03
463.67	5.05
464.022	5.07
464.375	5.05
464.728	5.06
465.08	5.08
465.433	5.08
465.785	5.09
466.138	5.05
466.49	5.06
466.843	5.08
467.195	5.07
467.547	5.08
467.899	5.08
468.252	5.08
468.604	5.09
468.956	5.06
469.308	5.07
469.66	5.05
470.012	5.07
470.364	5.08
470.716	5.05
471.068	5.03
471.42	5.03
471.772	5.05
472.123	5.04
472.475	5.04
472.827	5.04
473.178	5.05
473.53	5.08
473.882	5.08
474.233	5.08
474.585	5.07
474.936	5.06
475.288	5.07
475.639	5.08
475.99	5.08
476.342	5.1
476.693	5.1
477.044	5.12
477.395	5.1
477.746	5.1
478.097	5.1
478.448	5.11
478.8	5.1
479.15	5.1
479.501	5.1
479.852	5.12
480.203	5.14
480.554	5.13
480.905	5.13
481.255	5.12
481.606	5.13
481.957	5.16
482.307	5.17
482.658	5.17
483.009	5.17
483.359	5.17
483.709	5.17
484.06	5.17
484.41	5.17
484.761	5.18
485.111	5.18
485.461	5.18
485.811	5.18
486.162	5.18
486.512	5.19
486.862	5.18
487.212	5.18
487.562	5.17
487.912	5.18
488.262	5.17
488.612	5.17
488.961	5.18
489.311	5.16
489.661	5.16
490.011	5.15
490.36	5.14
490.71	5.15
491.06	5.14
491.409	5.15
491.759	5.15
492.108	5.14
492.458	5.14
492.807	5.15
493.157	5.17
493.506	5.18
493.855	5.17
494.204	5.16
494.554	5.15
494.903	5.14
495.252	5.14
495.601	5.16
495.95	5.17
496.299	5.15
496.648	5.16
496.997	5.17
497.346	5.19
497.695	5.21
498.043	5.2
498.392	5.2
498.741	5.18
499.09	5.18
499.438	5.2
499.787	5.19
500.135	5.19
500.484	5.17
500.832	5.18
501.181	5.18
501.529	5.19
501.878	5.21
502.226	5.23
502.574	5.22
502.923	5.23
503.271	5.22
503.619	5.21
503.967	5.21
504.315	5.2
504.663	5.2
505.011	5.21
505.359	5.21
505.707	5.22
506.055	5.23
506.403	5.25
506.751	5.26
507.098	5.28
507.446	5.27
507.794	5.3
508.141	5.3
508.489	5.3
508.837	5.33
509.184	5.34
509.531	5.35
509.879	5.38
510.226	5.36
510.574	5.38
510.921	5.4
511.268	5.41
511.616	5.41
511.963	5.42
512.31	5.43
512.657	5.45
513.004	5.47
513.351	5.48
513.698	5.46
514.045	5.44
514.392	5.45
514.739	5.44
515.086	5.45
515.432	5.45
515.779	5.46
516.126	5.46
516.473	5.46
516.819	5.44
517.166	5.43
517.512	5.45
517.859	5.43
518.205	5.44
518.552	5.45
518.898	5.44
519.245	5.43
519.591	5.44
519.937	5.43
520.283	5.43
520.629	5.45
520.976	5.45
521.322	5.47
521.668	5.45
522.014	5.47
522.36	5.46
522.706	5.48
523.052	5.47
523.398	5.49
523.743	5.48
524.089	5.5
524.435	5.5
524.781	5.51
525.126	5.54
525.472	5.55
525.817	5.55
526.163	5.56
526.509	5.58
526.854	5.59
527.199	5.6
527.545	5.59
527.89	5.58
528.235	5.58
528.581	5.58
528.926	5.59
529.271	5.59
529.616	5.59
529.961	5.57
530.306	5.59
530.651	5.59
530.996	5.6
531.341	5.6
531.686	5.6
532.031	5.6
532.376	5.6
532.721	5.6
533.065	5.59
533.41	5.6
533.755	5.58
534.099	5.57
534.444	5.56
534.788	5.58
535.133	5.59
535.477	5.59
535.822	5.58
536.166	5.59
536.51	5.59
536.855	5.59
537.199	5.6
537.543	5.59
537.887	5.59
538.231	5.59
538.576	5.6
538.92	5.58
539.264	5.57
539.608	5.56
539.951	5.56
540.295	5.57
540.639	5.57
540.983	5.58
541.327	5.59
541.671	5.59
542.014	5.58
542.358	5.58
542.701	5.6
543.045	5.6
543.389	5.6
543.732	5.6
544.075	5.62
544.419	5.61
544.762	5.61
545.105	5.6
545.449	5.6
545.792	5.59
546.135	5.62
546.478	5.63
546.821	5.62
547.165	5.6
547.508	5.59
547.851	5.6
548.194	5.59
548.536	5.57
548.879	5.56
549.222	5.56
549.565	5.56
549.908	5.57
550.25	5.59
550.593	5.61
550.936	5.59
551.278	5.58
551.621	5.59
551.963	5.61
552.306	5.63
552.648	5.62
552.991	5.64
553.333	5.61
553.675	5.62
554.017	5.63
554.36	5.65
554.702	5.67
555.044	5.65
555.386	5.67
555.728	5.68
556.07	5.7
556.412	5.68
556.754	5.68
557.096	5.66
557.438	5.63
557.78	5.64
558.121	5.67
558.463	5.67
558.805	5.67
559.147	5.68
559.488	5.67
559.83	5.67
560.171	5.67
560.513	5.66
560.854	5.65
561.196	5.65
561.537	5.65
561.878	5.64
562.22	5.62
562.561	5.62
562.902	5.61
563.243	5.6
563.584	5.63
563.925	5.63
564.266	5.62
564.607	5.62
564.948	5.57
565.289	5.58
565.63	5.58
565.971	5.57
566.312	5.54
566.653	5.55
566.993	5.56
567.334	5.55
567.675	5.55
568.015	5.55
568.356	5.58
568.696	5.58
569.037	5.57
569.377	5.63
569.718	5.64
570.058	5.65
570.398	5.66
570.739	5.67
571.079	5.67
571.419	5.67
571.759	5.68
572.099	5.69
572.439	5.68
572.779	5.68
573.119	5.7
573.459	5.73
573.799	5.73
574.139	5.73
574.479	5.73
574.819	5.74
575.158	5.74
575.498	5.74
575.838	5.76
576.177	5.75
576.517	5.7
576.856	5.71
577.196	5.71
577.535	5.69
577.875	5.68
578.214	5.65
578.553	5.67
578.893	5.67
579.232	5.64
579.571	5.68
579.91	5.68
580.25	5.67
580.589	5.63
580.928	5.62
581.267	5.6
581.606	5.65
581.945	5.66
582.283	5.66
582.622	5.6
582.961	5.59
583.3	5.61
583.639	5.64
583.977	5.61
584.316	5.6
584.654	5.6
584.993	5.62
585.332	5.65
585.67	5.63
586.008	5.67
586.347	5.67
586.685	5.6
587.024	5.59
587.362	5.59
587.7	5.57
588.038	5.6
588.376	5.6
588.715	5.53
589.053	5.58
589.391	5.56
589.729	5.61
590.067	5.59
590.404	5.59
590.742	5.57
591.08	5.52
591.418	5.55
591.756	5.57
592.093	5.58
592.431	5.56
592.769	5.58
593.106	5.55
593.444	5.57
593.781	5.59
594.119	5.62
594.456	5.58
594.793	5.6
595.131	5.55
595.468	5.58
595.805	5.61
596.143	5.57
596.48	5.56
596.817	5.58
597.154	5.58
597.491	5.58
597.828	5.6
598.165	5.64
598.502	5.64
598.839	5.59
599.176	5.57
599.512	5.59
599.849	5.61
600.186	5.61
600.523	5.6
600.859	5.61
601.196	5.6
601.532	5.62
601.869	5.61
602.205	5.63
602.542	5.64
602.878	5.65
603.215	5.64
603.551	5.71
603.887	5.7
604.223	5.71
604.56	5.72
604.896	5.71
605.232	5.73
605.568	5.73
605.904	5.78
606.24	5.81
606.576	5.8
606.912	5.8
607.248	5.82
607.583	5.84
607.919	5.83
608.255	5.82
608.591	5.85
608.926	5.85
609.262	5.9
609.597	5.94
609.933	5.97
610.268	5.98
610.604	5.98
610.939	5.96
611.275	5.92
611.61	5.87
611.945	5.92
612.281	5.91
612.616	5.9
612.951	5.9
613.286	5.85
613.621	5.87
613.956	5.81
614.291	5.82
614.626	5.82
614.961	5.78
615.296	5.79
615.631	5.76
615.966	5.8
616.3	5.74
616.635	5.66
616.97	5.63
617.304	5.63
617.639	5.59
617.973	5.63
618.308	5.66
618.642	5.73
618.977	5.71
619.311	5.7
619.646	5.75
619.98	5.71
620.314	5.77
620.648	5.8
620.983	5.88
621.317	5.87
621.651	5.9
621.985	5.93
622.319	5.96
622.653	6.03
622.987	6.09
623.321	6.1
623.655	6.15
623.988	6.12
624.322	6.11
624.656	6.15
624.99	6.15
625.323	6.14
625.657	6.17
625.99	6.13
626.324	6.08
626.657	6.07
626.991	6.11
627.324	6.09
627.658	6.09
627.991	6.05
628.324	6.04
628.657	6
628.991	6.03
629.324	6
629.657	5.96
629.99	5.89
630.323	5.92
630.656	5.84
630.989	5.92
631.322	5.91
631.655	5.91
631.987	5.88
632.32	5.9
632.653	5.86
632.986	5.87
633.318	5.98
633.651	5.95
633.984	5.92
634.316	5.92
634.649	5.91
634.981	5.86
635.313	5.88
635.646	5.95
635.978	5.93
636.31	5.96
636.643	5.98
636.975	6.02
637.307	6.01
637.639	6.06
637.971	5.99
638.303	5.99
638.635	5.92
638.967	5.96
639.299	5.95
639.631	5.93
639.963	5.89
640.295	5.93
640.626	5.92
640.958	5.91
641.29	5.94
641.621	5.95
641.953	5.97
642.285	5.94
642.616	5.96
642.948	5.92
643.279	5.95
643.61	5.92
643.942	5.88
644.273	5.86
644.604	5.89
644.936	5.91
645.267	5.91
645.598	5.96
645.929	5.91
646.26	5.89
646.591	5.87
646.922	5.91
647.253	5.8
647.584	5.84
647.915	5.85
648.245	5.84
648.576	5.82
648.907	5.86
649.238	5.88
649.568	5.84
649.899	5.84
650.229	5.79
650.56	5.78
650.89	5.8
651.221	5.81
651.551	5.78
651.882	5.79
652.212	5.8
652.542	5.86
652.872	5.95
653.203	5.94
653.533	5.97
653.863	5.97
654.193	5.99
654.523	5.98
654.853	5.94
655.183	5.92
655.513	5.92
655.843	5.97
656.172	5.98
656.502	5.96
656.832	5.97
657.162	6.05
657.491	6.11
657.821	6.12
658.15	6.14
658.48	6.15
658.809	6.12
659.139	6.1
659.468	6.03
659.798	6.01
660.127	6.07
660.456	6.08
660.785	6.15
661.115	6.17
661.444	6.17
661.773	6.28
662.102	6.29
662.431	6.36
662.76	6.27
663.089	6.34
663.418	6.35
663.747	6.39
664.076	6.32
664.404	6.23
664.733	6.3
665.062	6.25
665.39	6.23
665.719	6.2
666.048	6.28
666.376	6.24
666.705	6.18
667.033	6.11
667.362	6.16
667.69	6.13
668.018	6.05
668.347	6.06
668.675	6.07
669.003	6.05
669.331	6.04
669.659	6.12
669.987	6.07
670.315	6.09
670.643	6.09
670.971	6.2
671.299	6.3
671.627	6.23
671.955	6.21
672.283	6.22
672.61	6.35
672.938	6.38
673.266	6.42
673.593	6.51
673.921	6.49
674.249	6.5
674.576	6.54
674.904	6.59
675.231	6.58
675.558	6.51
675.886	6.49
676.213	6.47
676.54	6.4
676.867	6.48
677.195	6.51
677.522	6.44
677.849	6.35
678.176	6.29
678.503	6.25
678.83	6.27
679.157	6.18
679.484	6.19
679.81	6.11
680.137	6.07
680.464	6.06
680.791	6.12
681.117	6.08
681.444	6.1
681.771	6.1
682.097	6.13
682.424	6.23
682.75	6.23
683.077	6.17
683.403	6.19
683.729	6.11
684.056	6.06
684.382	6.09
684.708	6.11
685.034	6.13
685.36	6.2
685.686	6.23
686.012	6.39
686.339	6.43
686.664	6.5
686.99	6.59
687.316	6.58
687.642	6.64
687.968	6.7
688.294	6.61
688.619	6.57
688.945	6.61
689.271	6.47
689.596	6.44
689.922	6.45
690.247	6.35
690.573	6.37
690.898	6.4
691.224	6.47
691.549	6.51
691.874	6.48
692.2	6.46
692.525	6.54
692.85	6.5
693.175	6.54
693.5	6.39
693.825	6.33
694.15	6.39
694.475	6.28
694.8	6.25
695.125	6.3
695.45	6.35
695.775	6.28
696.099	6.36
696.424	6.41
696.749	6.43
697.073	6.57
697.398	6.6
697.723	6.57
698.047	6.45
698.372	6.38
698.696	6.41
699.02	6.37
699.345	6.3
699.669	6.33
699.993	6.22
700.318	6.3
700.642	6.37
700.966	6.39
701.29	6.46
701.614	6.43
701.938	6.42
702.262	6.47
702.586	6.56
702.91	6.49
703.234	6.6
703.557	6.64
703.881	6.6
704.205	6.71
704.529	6.74
704.852	6.86
705.176	6.9
705.499	6.8
705.823	6.9
706.146	6.91
706.47	6.85
706.793	6.86
707.117	6.88
707.44	6.79
707.763	6.62
708.086	6.58
708.409	6.59
708.733	6.57
709.056	6.56
709.379	6.48
709.702	6.48
710.025	6.34
710.348	6.26
710.671	6.27
710.993	6.23
711.316	6.21
711.639	6.24
711.962	6.28
712.284	6.26
712.607	6.19
712.93	6.28
713.252	6.29
713.575	6.36
713.897	6.27
714.22	6.36
714.542	6.39
714.864	6.45
715.187	6.49
715.509	6.51
715.831	6.46
716.153	6.55
716.475	6.55
716.798	6.62
717.12	6.62
717.442	6.55
717.764	6.33
718.085	6.33
718.407	6.22
718.729	6.27
719.051	6.45
719.373	6.47
719.695	6.37
720.016	6.37
720.338	6.33
720.659	6.37
720.981	6.4
721.302	6.47
721.624	6.51
721.945	6.3
722.267	6.25
722.588	6.24
722.909	6.22
723.231	6.2
723.552	6.14
723.873	6.43
724.194	6.52
724.515	6.85
724.836	6.95
725.157	7.13
725.478	6.97
725.799	6.87
726.12	6.88
726.441	6.84
726.762	6.9
727.083	6.89
727.403	6.96
727.724	6.9
728.045	6.93
728.365	6.78
728.686	6.94
729.006	7.1
729.327	7.28
729.647	7.26
729.967	7.33
730.288	7.47
730.608	7.2
730.928	7.38
731.249	7.32
731.569	7.33
731.889	7.28
732.209	7.33
732.529	7.39
732.849	7.44
733.169	7.51
733.489	7.51
733.809	7.4
734.129	7.31
734.448	7.26
734.768	7.19
735.088	7.43
735.408	7.41
735.727	7.43
736.047	7.33
736.366	7.23
736.686	7.23
737.005	6.99
737.325	7.06
737.644	6.87
737.963	6.75
738.283	6.56
738.602	6.46
738.921	6.49
739.24	6.45
739.56	6.53
739.879	6.54
740.198	6.5
740.517	6.69
740.836	6.68
741.155	6.67
741.473	6.53
741.792	6.36
742.111	6.3
742.43	6.22
742.748	6.04
743.067	6.38
743.386	6.35
743.704	6.55
744.023	6.58
744.341	6.61
744.66	6.81
744.978	6.74
745.297	6.91
745.615	6.93
745.933	7.03
746.252	6.76
746.57	6.65
746.888	6.69
747.206	6.65
747.524	6.78
747.842	6.79
748.16	7.3
748.478	7.43
748.796	7.65
749.114	7.73
749.432	7.6
749.749	7.19
750.067	7.23
750.385	7.27
750.703	7.42
751.02	7.35
751.338	7.28
751.655	7.53
751.973	7.7
752.29	7.46
752.608	7.65
752.925	7.8
753.242	7.93
753.56	7.61
753.877	7.56
754.194	7.55
754.511	7.45
754.828	7.06
755.145	6.72
755.462	6.61
755.779	6.6
756.096	6.96
756.413	7.29
756.73	7.18
757.047	7.16
757.364	7.04
757.68	7.14
757.997	7.02
758.314	6.94
758.63	6.85
758.947	6.98
759.264	6.81
759.58	7.03
759.896	7.03
760.213	7.16
760.529	7.18
760.846	7.07
761.162	7.29
761.478	7.35
761.794	7.31
762.11	7.36
762.426	7.19
762.743	7.18
763.059	7.07
763.375	7.38
763.69	7.3
764.006	7.5
764.322	7.57
764.638	7.63
764.954	7.57
765.27	7.52
765.585	7.73
765.901	7.85
766.216	7.71
766.532	7.64
766.848	7.59
767.163	7.67
767.478	7.79
767.794	7.68
768.109	7.78
768.424	8.05
768.74	8.01
769.055	8.19
769.37	8.19
769.685	8.08
770	7.76
770.315	7.57
770.63	7.37
770.945	7.24
771.26	7.34
771.575	7.41
771.89	7.34
772.205	7.31
772.52	6.95
772.834	6.76
773.149	7.15
773.464	7.44
773.778	7.65
774.093	7.71
774.407	7.57
774.722	7.48
775.036	7.59
775.351	7.43
775.665	7.38
775.979	7.25
776.293	7.44
776.608	7.49
776.922	8.06
777.236	8
777.55	7.86
777.864	7.59
778.178	7.89
778.492	7.93
778.806	7.51
779.12	7.73
779.434	7.69
779.747	7.34
780.061	7.21
780.375	6.74
780.689	7
781.002	7.35
781.316	7.7
781.629	7.43
781.943	7.63
782.256	7.77
782.57	7.58
782.883	7.5
783.196	7.41
783.51	6.83
783.823	6.79
784.136	7.02
784.449	7.3
784.762	7.16
785.075	7.17
785.388	7.03
785.701	7.03
786.014	6.86
786.327	6.76
786.64	7.08
786.953	7.26
787.266	6.37
787.578	5.77
787.891	5.74
788.204	6.07
788.516	6
788.829	6.04
789.141	6.57
789.454	6.56
789.766	6.53
790.079	6.62
790.391	6.22
790.703	6.61
791.016	6.65
791.328	6.87
791.64	6.69
791.952	7.27
792.264	7.01
792.576	7.6
792.888	7.89
793.2	8.16
793.512	8.04
793.824	8.87
794.136	9.79
794.448	9.22
794.76	9.03
795.071	8.84
795.383	8.83
795.695	8.45
796.006	8.38
796.318	8.86
796.629	8.92
796.941	9.31
797.252	9.11
797.564	8.79
797.875	8.35
798.186	8.53
798.497	8.81
798.809	9.05
799.12	8.59
799.431	8.21
799.742	7.97
800.053	8.75
800.364	8.45
800.675	7.85
800.986	8.08
801.297	7.6
801.608	8.05
801.918	7.74
802.229	7.89
802.54	8.23
802.851	7.9
803.161	7.99
803.472	7.79
803.782	7.34
804.093	8.06
804.403	8.11
804.714	8.37
805.024	7.39
805.334	7.21
805.645	7.79
805.955	7.62
806.265	7.39
806.575	7.04
806.885	7.5
807.195	7.57
807.505	7.4
807.815	7.54
808.125	7.53
808.435	7.5
808.745	7.46
809.055	7.22
809.365	7.32
809.674	7.76
809.984	8.35
810.294	8.46
810.603	8.44
810.913	9.13
811.222	9.2
811.532	9.8
811.841	10.19
812.151	10.16
812.46	10.28
812.769	9.56
813.079	8.86
813.388	8.83
813.697	8.97
814.006	9.52
814.315	9.89
814.624	9.74
814.933	10.14
815.242	10.54
815.551	11
815.86	10.81
816.169	10.77
816.478	10.17
816.786	9.76
817.095	9.38
817.404	9.05
817.712	8.45
818.021	8.04
818.33	8.09
818.638	8.23
818.947	8.97
819.255	9.35
819.563	9.41
819.872	9.41
820.18	9.44
820.488	9.36
820.796	9.64
821.105	9.68
821.413	9.58
821.721	9.58
822.029	9.44
822.337	9.61
822.645	9.49
822.953	9.57
823.26	9.75
823.568	9.73
823.876	9.8
824.184	9.91
824.491	9.86
824.799	9.88
825.107	9.98
825.414	9.93
825.722	10.1
826.029	10.09
826.337	9.9
826.644	10.03
826.951	9.88
827.259	9.82
827.566	9.72
827.873	9.87
828.18	9.97
828.488	10.16
828.795	9.95
829.102	10.26
829.409	10.39
829.716	10.01
830.023	10.09
830.329	9.88
830.636	9.87
830.943	10.31
831.25	10.24
831.557	9.83
831.863	9.58
832.17	9.28
832.476	9.55
832.783	10.47
833.089	10.26
833.396	10.58
833.702	10.71
834.009	10.57
834.315	10.04
834.621	9.71
834.928	9.38
835.234	9.23
835.54	8.69
835.846	8.17
836.152	8.96
836.458	8.81
836.764	9.04
837.07	9.13
837.376	8.4
837.682	8.76
837.988	8.58
838.293	8.79
838.599	9.39
838.905	9.33
839.211	7.58
839.516	7.63
839.822	7.42
840.127	6.88
840.433	7.48
840.738	7.94
841.044	7.39
841.349	7.81
841.654	8.03
841.959	7.87
842.265	8.24
842.57	8.02
842.875	8.03
843.18	8.22
843.485	7.85
843.79	9.09
844.095	6.65
844.4	7.45
844.705	6.86
845.01	6.28
845.315	5.9
845.619	6.67
845.924	6.7
846.229	6.43
846.533	6.53
846.838	4.94
847.142	4.33
847.447	4.54
847.751	3.43
848.056	2.88
848.36	4.93
848.664	6.72
848.969	6.51
849.273	4.55
849.577	2.77
849.881	2.57
850.185	3.54
850.489	8.09
850.794	7.8
851.097	9.3
851.401	7.59
851.705	7.77
852.009	9.44
852.313	8.39
852.617	8.09
852.92	8.97
853.224	9.8
853.528	9.87
853.831	10.19
854.135	11.06
854.438	11.84
854.742	10.2
855.045	9.84
855.349	11.04
855.652	12.93
855.955	13.03
856.259	14.89
856.562	13.63
856.865	11.64
857.168	10.84
857.471	10.01
857.774	12.51
858.077	12.33
858.38	11.96
858.683	11.53
858.986	12.85
859.289	10.72
859.592	10.59
859.894	12.29
860.197	11.58
860.5	10.94
860.802	12.43
861.105	13.51
861.407	12.77
861.71	11.24
862.012	10.46
862.315	10.16
862.617	9.67
862.919	8.23
863.222	8.49
863.524	9.7
863.826	8.11
864.128	7.3
864.43	9.41
864.732	10.31
865.034	10.83
865.336	9.45
865.638	10.04
865.94	10.2
866.242	9.48
866.544	10.05
866.846	9.92
867.147	9.04
867.449	6.6
867.751	6.04
868.052	4.8
868.354	8.69
868.655	10.39
868.957	7.4
869.258	9.73
869.56	9.91
869.861	8.57
870.162	10.29
870.463	9.38
870.765	9.4
871.066	7.46
871.367	6.71
871.668	7.95
871.969	6.61
872.27	6.58
872.571	5.28
872.872	5.98
873.173	6.46
873.473	5.29
873.774	7.95
874.075	10.47
874.376	9.87
874.676	7.75
874.977	4.98
875.277	7.26
875.578	5.53
875.878	4.25
876.179	4.65
876.479	4.51
876.78	4.29
877.08	2
877.38	1.93
877.68	3.59
877.981	3.08
878.281	5.5
878.581	6.41
