Data from BU57653_Reflection_00015.txt Node
Date: Mon Nov 18 16:52:28 EST 2019
User: vgr7
Spectrometer: USB2G7710
Scans to average: 3
Trigger mode: 4
Integration Time (sec): 2.000000E-2
Electric dark correction enabled: true
Boxcar width: 10
XAxis mode: Wavelengths
Number of Pixels in Spectrum: 2048
>>>>>Begin Spectral Data<<<<<
177.721	193.33
178.105	276.47
178.488	184.45
178.871	46.04
179.254	0.18
179.636	48.28
180.019	50.04
180.402	286.67
180.785	-93.43
181.168	-116.49
181.55	-122.48
181.933	-54.58
182.316	-46.44
182.698	-60.09
183.081	-118.89
183.463	-903.8
183.846	-437.87
184.228	-422.5
184.611	-485.83
184.993	-1144.15
185.376	2037.01
185.758	-1688.82
186.14	-2017.65
186.522	405.6
186.904	148.42
187.287	124.22
187.669	113.15
188.051	226.82
188.433	206.98
188.815	64.47
189.197	34.91
189.579	26.43
189.961	-17.45
190.342	-11.31
190.724	11.68
191.106	-9.87
191.488	-15.85
191.869	-44.07
192.251	-44.74
192.633	-23.71
193.014	-41.1
193.396	-53.8
193.777	-54.74
194.159	-40.88
194.54	-30.48
194.922	-22.01
195.303	-12.27
195.684	-8.3
196.065	0.21
196.447	8.23
196.828	5.39
197.209	13.82
197.59	-12.56
197.971	-4.07
198.352	8.51
198.733	-7.83
199.114	-2.36
199.495	-4.42
199.876	7.76
200.257	20.23
200.638	23
201.018	31.75
201.399	60.07
201.78	49.6
202.16	67.16
202.541	42.98
202.922	53.78
203.302	43.37
203.683	38.56
204.063	19.69
204.444	18.19
204.824	31.06
205.204	42.74
205.585	100
205.965	132.11
206.345	120.23
206.725	156.54
207.106	668.05
207.486	2856.76
207.866	-137.62
208.246	-59.7
208.626	25.31
209.006	56.56
209.386	23.51
209.766	73.84
210.145	11.47
210.525	17.87
210.905	17.21
211.285	15.09
211.664	26.36
212.044	25.4
212.424	20.97
212.803	7.32
213.183	4.54
213.562	8.25
213.942	7.26
214.321	0.63
214.701	3.16
215.08	13.17
215.459	8.6
215.838	14.6
216.218	35.25
216.597	25.72
216.976	19.28
217.355	20.2
217.734	7.6
218.113	2.5
218.492	12.84
218.871	-1.96
219.25	15.49
219.629	-12.98
220.008	-5.24
220.387	5.96
220.766	22.2
221.144	22.34
221.523	27.49
221.902	15.25
222.28	11.24
222.659	13.37
223.037	3.91
223.416	12.5
223.794	3.44
224.173	-4.78
224.551	3.88
224.929	4.33
225.308	7.99
225.686	12.21
226.064	15.8
226.442	13.63
226.821	16.78
227.199	15.2
227.577	16.16
227.955	14.34
228.333	12.65
228.711	10.48
229.089	12.26
229.467	10.81
229.845	9.36
230.222	9.46
230.6	9.12
230.978	10.23
231.356	9.72
231.733	10.06
232.111	13.67
232.488	14.85
232.866	15.75
233.243	14.56
233.621	14.37
233.998	15.01
234.376	12.86
234.753	10.96
235.13	9.08
235.508	11.02
235.885	9.91
236.262	8.17
236.639	8.27
237.016	7.59
237.393	7.34
237.77	8.53
238.147	8
238.524	7.83
238.901	7.8
239.278	7.93
239.655	7.8
240.032	7.39
240.409	6.32
240.785	5.81
241.162	6
241.539	5.98
241.915	5.39
242.292	5.45
242.668	5.55
243.045	5.55
243.421	5.33
243.798	5.51
244.174	5.99
244.551	5.71
244.927	5.56
245.303	5.71
245.679	5.58
246.056	5.53
246.432	5.42
246.808	5.4
247.184	5.22
247.56	5.35
247.936	5.05
248.312	5.19
248.688	5.19
249.064	5.02
249.44	4.97
249.815	5.22
250.191	5.38
250.567	5.52
250.943	5.47
251.318	5.49
251.694	5.48
252.069	5.11
252.445	5.15
252.82	5.23
253.196	5.13
253.571	4.99
253.947	5.17
254.322	5.37
254.697	5.16
255.073	5.03
255.448	4.7
255.823	4.77
256.198	4.99
256.573	4.94
256.948	5.1
257.323	5.11
257.698	5.04
258.073	5.15
258.448	4.87
258.823	4.94
259.198	4.93
259.573	4.97
259.948	5.03
260.322	4.93
260.697	4.79
261.072	4.7
261.446	4.67
261.821	4.61
262.195	4.57
262.57	4.47
262.944	4.55
263.319	4.6
263.693	4.67
264.067	4.54
264.442	4.55
264.816	4.33
265.19	4.32
265.564	4.19
265.938	4
266.313	4.13
266.687	4.31
267.061	4.45
267.435	4.43
267.809	4.5
268.183	4.62
268.556	4.66
268.93	4.85
269.304	4.94
269.678	4.91
270.051	4.89
270.425	4.93
270.799	4.86
271.172	4.74
271.546	4.58
271.919	4.6
272.293	4.68
272.666	4.86
273.04	4.76
273.413	4.83
273.787	4.9
274.16	4.82
274.533	4.84
274.906	4.55
275.279	4.77
275.653	4.57
276.026	4.48
276.399	4.48
276.772	4.32
277.145	4.18
277.518	4.18
277.891	4.32
278.263	4.38
278.636	4.42
279.009	4.53
279.382	4.83
279.755	4.71
280.127	4.78
280.5	4.85
280.872	4.78
281.245	4.72
281.617	4.63
281.99	4.69
282.362	4.52
282.735	4.57
283.107	4.28
283.479	4.45
283.852	4.53
284.224	4.61
284.596	4.68
284.968	4.77
285.34	4.91
285.713	4.76
286.085	4.8
286.457	4.81
286.829	4.76
287.201	4.68
287.572	4.74
287.944	4.62
288.316	4.58
288.688	4.64
289.06	4.78
289.431	4.87
289.803	4.94
290.175	5.03
290.546	5.2
290.918	5.3
291.289	5.36
291.661	5.46
292.032	5.44
292.403	5.57
292.775	5.71
293.146	5.64
293.517	5.79
293.889	5.85
294.26	6
294.631	6.15
295.002	6.15
295.373	6.25
295.744	6.38
296.115	6.46
296.486	6.4
296.857	6.39
297.228	6.49
297.599	6.47
297.97	6.56
298.34	6.71
298.711	6.88
299.082	6.9
299.452	6.95
299.823	7.12
300.194	7.24
300.564	7.29
300.935	7.49
301.305	7.48
301.676	7.67
302.046	7.77
302.416	7.9
302.787	7.99
303.157	7.98
303.527	8.01
303.897	8.13
304.267	8.55
304.637	8.72
305.008	8.78
305.378	8.97
305.748	9.07
306.117	8.99
306.487	9.04
306.857	9.21
307.227	9.42
307.597	9.34
307.967	9.27
308.336	9.35
308.706	9.33
309.076	9.55
309.445	9.56
309.815	9.7
310.184	9.73
310.554	9.94
310.923	10.05
311.293	10.23
311.662	10.24
312.031	10.2
312.401	10.22
312.77	10.31
313.139	10.46
313.508	10.46
313.877	10.57
314.246	10.65
314.616	10.66
314.985	10.78
315.353	10.96
315.722	11.17
316.091	11.15
316.46	11.29
316.829	11.42
317.198	11.57
317.567	11.6
317.935	11.72
318.304	11.6
318.672	11.91
319.041	11.98
319.41	12.08
319.778	12.08
320.147	12.17
320.515	12.19
320.883	12.26
321.252	12.42
321.62	12.55
321.988	12.62
322.357	12.82
322.725	12.58
323.093	12.6
323.461	12.68
323.829	12.98
324.197	13.1
324.565	13.21
324.933	13.22
325.301	13.25
325.669	13.37
326.037	13.59
326.405	13.53
326.772	13.6
327.14	13.77
327.508	13.84
327.875	13.79
328.243	13.93
328.61	13.91
328.978	14.03
329.346	14.07
329.713	14.07
330.08	14
330.448	14.11
330.815	14.17
331.182	14.2
331.55	14.12
331.917	14.04
332.284	14
332.651	14.06
333.018	14.04
333.385	14.01
333.752	14.05
334.119	13.99
334.486	14
334.853	14.02
335.22	14.19
335.587	14.29
335.954	14.3
336.32	14.23
336.687	14.25
337.054	14.3
337.42	14.43
337.787	14.54
338.153	14.6
338.52	14.54
338.886	14.51
339.253	14.55
339.619	14.68
339.986	14.77
340.352	14.77
340.718	14.81
341.084	14.91
341.451	14.92
341.817	15.03
342.183	15.13
342.549	15.13
342.915	15.14
343.281	15.24
343.647	15.25
344.013	15.5
344.379	15.53
344.745	15.58
345.11	15.58
345.476	15.59
345.842	15.63
346.208	15.86
346.573	15.95
346.939	15.97
347.304	16.04
347.67	15.97
348.035	16.02
348.401	16.02
348.766	15.96
349.132	15.92
349.497	16.05
349.862	16.08
350.228	16.07
350.593	16.02
350.958	16.02
351.323	15.96
351.688	15.75
352.053	15.72
352.418	15.67
352.783	15.62
353.148	15.68
353.513	15.64
353.878	15.46
354.243	15.32
354.608	15.28
354.972	15.1
355.337	15.11
355.702	15.08
356.066	15.08
356.431	15.01
356.795	15.02
357.16	14.87
357.524	14.71
357.889	14.65
358.253	14.6
358.618	14.53
358.982	14.44
359.346	14.45
359.71	14.36
360.075	14.32
360.439	14.36
360.803	14.21
361.167	14.09
361.531	14.01
361.895	14.01
362.259	13.95
362.623	14
362.987	13.88
363.351	13.8
363.714	13.76
364.078	13.76
364.442	13.62
364.806	13.59
365.169	13.55
365.533	13.47
365.896	13.43
366.26	13.34
366.623	13.34
366.987	13.31
367.35	13.23
367.714	13.07
368.077	12.75
368.44	12.72
368.803	12.72
369.167	12.69
369.53	12.51
369.893	12.4
370.256	12.25
370.619	12.19
370.982	12.06
371.345	11.87
371.708	11.7
372.071	11.57
372.434	11.44
372.797	11.33
373.159	11.13
373.522	11.03
373.885	10.93
374.247	10.74
374.61	10.55
374.973	10.45
375.335	10.38
375.698	10.4
376.06	10.28
376.423	10.2
376.785	10.12
377.147	10.09
377.51	10
377.872	9.94
378.234	9.86
378.596	9.74
378.958	9.67
379.321	9.61
379.683	9.63
380.045	9.48
380.407	9.4
380.769	9.39
381.13	9.28
381.492	9.2
381.854	9.2
382.216	9.11
382.578	9.04
382.939	8.99
383.301	8.88
383.663	8.71
384.024	8.62
384.386	8.58
384.747	8.52
385.109	8.48
385.47	8.36
385.832	8.3
386.193	8.31
386.554	8.25
386.916	8.13
387.277	8.02
387.638	8.05
387.999	7.98
388.36	7.93
388.721	7.9
389.082	7.87
389.443	7.79
389.804	7.73
390.165	7.63
390.526	7.51
390.887	7.48
391.248	7.52
391.609	7.46
391.969	7.37
392.33	7.29
392.691	7.21
393.051	7.12
393.412	7.05
393.772	6.96
394.133	6.9
394.493	6.93
394.854	6.86
395.214	6.76
395.574	6.7
395.935	6.62
396.295	6.52
396.655	6.44
397.015	6.39
397.376	6.34
397.736	6.31
398.096	6.32
398.456	6.28
398.816	6.21
399.176	6.15
399.535	6.1
399.895	6.05
400.255	6.01
400.615	6.03
400.975	5.97
401.334	5.89
401.694	5.85
402.054	5.78
402.413	5.75
402.773	5.74
403.132	5.69
403.492	5.66
403.851	5.64
404.211	5.64
404.57	5.58
404.929	5.55
405.288	5.51
405.648	5.44
406.007	5.41
406.366	5.4
406.725	5.39
407.084	5.36
407.443	5.34
407.802	5.35
408.161	5.3
408.52	5.28
408.879	5.29
409.238	5.28
409.596	5.26
409.955	5.23
410.314	5.24
410.673	5.22
411.031	5.22
411.39	5.19
411.748	5.15
412.107	5.12
412.465	5.09
412.824	5.06
413.182	5.03
413.54	5.01
413.899	4.96
414.257	4.93
414.615	4.91
414.974	4.9
415.332	4.85
415.69	4.79
416.048	4.75
416.406	4.73
416.764	4.68
417.122	4.64
417.48	4.6
417.838	4.55
418.195	4.52
418.553	4.48
418.911	4.46
419.269	4.45
419.626	4.47
419.984	4.44
420.342	4.42
420.699	4.4
421.057	4.38
421.414	4.34
421.772	4.32
422.129	4.3
422.486	4.26
422.844	4.24
423.201	4.23
423.558	4.22
423.915	4.19
424.273	4.18
424.63	4.16
424.987	4.16
425.344	4.13
425.701	4.12
426.058	4.1
426.415	4.07
426.772	4.05
427.128	4.01
427.485	3.99
427.842	3.97
428.199	3.98
428.555	3.95
428.912	3.95
429.269	3.95
429.625	3.91
429.982	3.91
430.338	3.9
430.695	3.92
431.051	3.91
431.407	3.92
431.764	3.92
432.12	3.9
432.476	3.89
432.832	3.89
433.189	3.88
433.545	3.88
433.901	3.9
434.257	3.9
434.613	3.89
434.969	3.91
435.325	3.9
435.681	3.89
436.036	3.87
436.392	3.87
436.748	3.87
437.104	3.86
437.459	3.87
437.815	3.88
438.171	3.89
438.526	3.9
438.882	3.9
439.237	3.9
439.593	3.9
439.948	3.9
440.304	3.9
440.659	3.88
441.014	3.89
441.369	3.87
441.725	3.85
442.08	3.83
442.435	3.81
442.79	3.81
443.145	3.8
443.5	3.79
443.855	3.79
444.21	3.79
444.565	3.79
444.92	3.78
445.275	3.75
445.629	3.73
445.984	3.7
446.339	3.67
446.693	3.63
447.048	3.62
447.403	3.61
447.757	3.6
448.112	3.59
448.466	3.55
448.82	3.54
449.175	3.54
449.529	3.54
449.883	3.53
450.238	3.51
450.592	3.5
450.946	3.48
451.3	3.47
451.654	3.45
452.008	3.45
452.362	3.45
452.716	3.43
453.07	3.44
453.424	3.45
453.778	3.45
454.132	3.46
454.486	3.47
454.839	3.45
455.193	3.46
455.547	3.46
455.9	3.49
456.254	3.49
456.607	3.5
456.961	3.5
457.314	3.49
457.668	3.51
458.021	3.5
458.375	3.53
458.728	3.54
459.081	3.55
459.434	3.54
459.787	3.54
460.141	3.56
460.494	3.55
460.847	3.55
461.2	3.56
461.553	3.58
461.906	3.59
462.259	3.61
462.611	3.61
462.964	3.62
463.317	3.63
463.67	3.64
464.022	3.65
464.375	3.66
464.728	3.69
465.08	3.7
465.433	3.71
465.785	3.71
466.138	3.73
466.49	3.75
466.843	3.77
467.195	3.77
467.547	3.79
467.899	3.8
468.252	3.81
468.604	3.83
468.956	3.83
469.308	3.84
469.66	3.86
470.012	3.9
470.364	3.91
470.716	3.92
471.068	3.95
471.42	3.95
471.772	3.96
472.123	3.98
472.475	4
472.827	4.01
473.178	4.04
473.53	4.02
473.882	4
474.233	4.03
474.585	4.03
474.936	4.03
475.288	4.02
475.639	4.03
475.99	4.02
476.342	4
476.693	4.01
477.044	4.01
477.395	3.99
477.746	3.99
478.097	3.98
478.448	3.95
478.8	3.96
479.15	3.93
479.501	3.92
479.852	3.9
480.203	3.91
480.554	3.91
480.905	3.9
481.255	3.91
481.606	3.88
481.957	3.89
482.307	3.87
482.658	3.88
483.009	3.88
483.359	3.87
483.709	3.88
484.06	3.86
484.41	3.86
484.761	3.87
485.111	3.87
485.461	3.87
485.811	3.86
486.162	3.86
486.512	3.87
486.862	3.88
487.212	3.88
487.562	3.87
487.912	3.86
488.262	3.86
488.612	3.86
488.961	3.86
489.311	3.86
489.661	3.88
490.011	3.88
490.36	3.88
490.71	3.89
491.06	3.9
491.409	3.91
491.759	3.92
492.108	3.92
492.458	3.94
492.807	3.94
493.157	3.96
493.506	3.99
493.855	4.01
494.204	4
494.554	4.03
494.903	4.06
495.252	4.09
495.601	4.13
495.95	4.16
496.299	4.2
496.648	4.23
496.997	4.24
497.346	4.29
497.695	4.32
498.043	4.37
498.392	4.42
498.741	4.49
499.09	4.51
499.438	4.57
499.787	4.61
500.135	4.67
500.484	4.73
500.832	4.78
501.181	4.82
501.529	4.91
501.878	4.96
502.226	5.06
502.574	5.13
502.923	5.2
503.271	5.28
503.619	5.39
503.967	5.48
504.315	5.59
504.663	5.7
505.011	5.8
505.359	5.9
505.707	5.98
506.055	6.04
506.403	6.16
506.751	6.25
507.098	6.37
507.446	6.46
507.794	6.58
508.141	6.69
508.489	6.81
508.837	6.92
509.184	7.05
509.531	7.14
509.879	7.27
510.226	7.39
510.574	7.52
510.921	7.64
511.268	7.75
511.616	7.85
511.963	7.98
512.31	8.1
512.657	8.21
513.004	8.36
513.351	8.52
513.698	8.69
514.045	8.81
514.392	8.96
514.739	9.12
515.086	9.27
515.432	9.4
515.779	9.56
516.126	9.75
516.473	9.88
516.819	10.04
517.166	10.17
517.512	10.29
517.859	10.44
518.205	10.57
518.552	10.72
518.898	10.85
519.245	10.94
519.591	11.08
519.937	11.21
520.283	11.37
520.629	11.53
520.976	11.71
521.322	11.9
521.668	12.06
522.014	12.24
522.36	12.41
522.706	12.62
523.052	12.82
523.398	12.98
523.743	13.2
524.089	13.39
524.435	13.61
524.781	13.81
525.126	13.98
525.472	14.16
525.817	14.31
526.163	14.45
526.509	14.59
526.854	14.72
527.199	14.87
527.545	14.97
527.89	15.07
528.235	15.18
528.581	15.3
528.926	15.43
529.271	15.55
529.616	15.68
529.961	15.81
530.306	15.93
530.651	16.06
530.996	16.19
531.341	16.34
531.686	16.47
532.031	16.63
532.376	16.78
532.721	16.92
533.065	17.09
533.41	17.28
533.755	17.48
534.099	17.65
534.444	17.82
534.788	18.01
535.133	18.18
535.477	18.37
535.822	18.55
536.166	18.76
536.51	18.98
536.855	19.23
537.199	19.46
537.543	19.72
537.887	19.99
538.231	20.26
538.576	20.53
538.92	20.79
539.264	21.02
539.608	21.23
539.951	21.44
540.295	21.64
540.639	21.85
540.983	22.04
541.327	22.25
541.671	22.44
542.014	22.63
542.358	22.84
542.701	23.03
543.045	23.26
543.389	23.45
543.732	23.65
544.075	23.84
544.419	24.06
544.762	24.29
545.105	24.52
545.449	24.75
545.792	25.01
546.135	25.28
546.478	25.55
546.821	25.91
547.165	26.24
547.508	26.58
547.851	26.89
548.194	27.23
548.536	27.59
548.879	27.95
549.222	28.3
549.565	28.62
549.908	28.99
550.25	29.33
550.593	29.7
550.936	30.05
551.278	30.38
551.621	30.71
551.963	31.06
552.306	31.43
552.648	31.77
552.991	32.08
553.333	32.38
553.675	32.72
554.017	33.01
554.36	33.37
554.702	33.65
555.044	33.97
555.386	34.26
555.728	34.55
556.07	34.88
556.412	35.18
556.754	35.5
557.096	35.84
557.438	36.15
557.78	36.43
558.121	36.79
558.463	37.2
558.805	37.6
559.147	37.91
559.488	38.16
559.83	38.55
560.171	38.89
560.513	39.22
560.854	39.56
561.196	39.86
561.537	40.09
561.878	40.44
562.22	40.72
562.561	41.04
562.902	41.38
563.243	41.62
563.584	41.94
563.925	42.26
564.266	42.51
564.607	42.81
564.948	43.14
565.289	43.41
565.63	43.62
565.971	43.81
566.312	44.04
566.653	44.34
566.993	44.56
567.334	44.83
567.675	45.07
568.015	45.3
568.356	45.61
568.696	45.89
569.037	46.12
569.377	46.37
569.718	46.59
570.058	46.79
570.398	47.05
570.739	47.28
571.079	47.54
571.419	47.8
571.759	48.05
572.099	48.25
572.439	48.54
572.779	48.82
573.119	49.06
573.459	49.31
573.799	49.52
574.139	49.76
574.479	49.91
574.819	50.07
575.158	50.26
575.498	50.44
575.838	50.64
576.177	50.86
576.517	51.09
576.856	51.37
577.196	51.6
577.535	51.86
577.875	52.1
578.214	52.3
578.553	52.49
578.893	52.63
579.232	52.83
579.571	52.93
579.91	53.06
580.25	53.31
580.589	53.52
580.928	53.76
581.267	53.91
581.606	54.21
581.945	54.44
582.283	54.63
582.622	54.8
582.961	55.01
583.3	55.16
583.639	55.33
583.977	55.46
584.316	55.63
584.654	55.71
584.993	55.89
585.332	56.04
585.67	56.22
586.008	56.4
586.347	56.58
586.685	56.72
587.024	56.93
587.362	56.92
587.7	57.12
588.038	57.23
588.376	57.32
588.715	57.4
589.053	57.6
589.391	57.74
589.729	57.86
590.067	57.96
590.404	58.05
590.742	58.12
591.08	58.17
591.418	58.25
591.756	58.42
592.093	58.46
592.431	58.51
592.769	58.6
593.106	58.65
593.444	58.78
593.781	58.88
594.119	58.92
594.456	59.03
594.793	59.02
595.131	59.04
595.468	59.13
595.805	59.21
596.143	59.31
596.48	59.41
596.817	59.52
597.154	59.55
597.491	59.68
597.828	59.76
598.165	59.82
598.502	59.9
598.839	60.03
599.176	60.1
599.512	60.17
599.849	60.33
600.186	60.48
600.523	60.5
600.859	60.57
601.196	60.68
601.532	60.83
601.869	60.96
602.205	61.03
602.542	61.09
602.878	61.1
603.215	61.11
603.551	61.12
603.887	61.13
604.223	61.24
604.56	61.24
604.896	61.33
605.232	61.31
605.568	61.33
605.904	61.3
606.24	61.4
606.576	61.54
606.912	61.47
607.248	61.46
607.583	61.54
607.919	61.56
608.255	61.64
608.591	61.66
608.926	61.65
609.262	61.73
609.597	61.82
609.933	61.97
610.268	62.02
610.604	62.09
610.939	62.18
611.275	62.3
611.61	62.41
611.945	62.43
612.281	62.58
612.616	62.68
612.951	62.73
613.286	62.81
613.621	62.76
613.956	62.92
614.291	63.05
614.626	63.07
614.961	63.19
615.296	63.12
615.631	63.2
615.966	63.27
616.3	63.34
616.635	63.37
616.97	63.34
617.304	63.31
617.639	63.32
617.973	63.21
618.308	63.16
618.642	63.19
618.977	63.3
619.311	63.28
619.646	63.29
619.98	63.41
620.314	63.42
620.648	63.5
620.983	63.52
621.317	63.67
621.651	63.71
621.985	63.63
622.319	63.71
622.653	63.7
622.987	63.68
623.321	63.64
623.655	63.64
623.988	63.62
624.322	63.78
624.656	63.91
624.99	63.98
625.323	63.9
625.657	63.85
625.99	63.84
626.324	63.92
626.657	63.95
626.991	63.96
627.324	63.93
627.658	63.92
627.991	63.86
628.324	63.69
628.657	63.75
628.991	63.85
629.324	63.79
629.657	63.8
629.99	63.88
630.323	63.99
630.656	64.04
630.989	64.17
631.322	64.16
631.655	64.08
631.987	64.15
632.32	64.23
632.653	64.29
632.986	64.24
633.318	64.3
633.651	64.39
633.984	64.38
634.316	64.43
634.649	64.57
634.981	64.71
635.313	64.82
635.646	64.79
635.978	64.88
636.31	64.98
636.643	65
636.975	65.09
637.307	65.07
637.639	65.12
637.971	64.98
638.303	65.06
638.635	65.08
638.967	65.12
639.299	65.19
639.631	65.25
639.963	65.28
640.295	65.24
640.626	65.25
640.958	65.18
641.29	65.28
641.621	65.28
641.953	65.31
642.285	65.39
642.616	65.45
642.948	65.43
643.279	65.48
643.61	65.39
643.942	65.24
644.273	65.26
644.604	65.2
644.936	65.2
645.267	65.02
645.598	65.09
645.929	65.06
646.26	65.12
646.591	65.11
646.922	65.16
647.253	65.25
647.584	65.3
647.915	65.27
648.245	65.17
648.576	65.09
648.907	65.06
649.238	65.02
649.568	65.03
649.899	64.96
650.229	65.05
650.56	65.26
650.89	65.38
651.221	65.34
651.551	65.4
651.882	65.39
652.212	65.48
652.542	65.52
652.872	65.5
653.203	65.39
653.533	65.35
653.863	65.41
654.193	65.32
654.523	65.35
654.853	65.47
655.183	65.58
655.513	65.61
655.843	65.57
656.172	65.6
656.502	65.59
656.832	65.61
657.162	65.61
657.491	65.56
657.821	65.57
658.15	65.65
658.48	65.67
658.809	65.76
659.139	65.6
659.468	65.55
659.798	65.59
660.127	65.65
660.456	65.67
660.785	65.67
661.115	65.65
661.444	65.57
661.773	65.55
662.102	65.37
662.431	65.31
662.76	65.33
663.089	65.25
663.418	65.29
663.747	65.29
664.076	65.2
664.404	65.19
664.733	65.21
665.062	65.08
665.39	64.99
665.719	65.13
666.048	65.34
666.376	65.38
666.705	65.43
667.033	65.42
667.362	65.34
667.69	65.39
668.018	65.45
668.347	65.48
668.675	65.52
669.003	65.61
669.331	65.56
669.659	65.48
669.987	65.51
670.315	65.49
670.643	65.45
670.971	65.47
671.299	65.64
671.627	65.6
671.955	65.81
672.283	65.9
672.61	65.76
672.938	65.58
673.266	65.65
673.593	65.63
673.921	65.63
674.249	65.74
674.576	65.64
674.904	65.84
675.231	65.84
675.558	65.84
675.886	66.07
676.213	66.15
676.54	66.23
676.867	66.27
677.195	66.35
677.522	66.44
677.849	66.47
678.176	66.35
678.503	66.38
678.83	66.4
679.157	66.31
679.484	66.28
679.81	66.51
680.137	66.45
680.464	66.31
680.791	66.29
681.117	66.32
681.444	66.5
681.771	66.44
682.097	66.36
682.424	66.4
682.75	66.27
683.077	66.34
683.403	66.44
683.729	66.45
684.056	66.52
684.382	66.48
684.708	66.46
685.034	66.51
685.36	66.45
685.686	66.31
686.012	66.33
686.339	66.32
686.664	66.34
686.99	66.22
687.316	66.4
687.642	66.42
687.968	66.37
688.294	66.23
688.619	66.06
688.945	66.12
689.271	66.09
689.596	66.04
689.922	65.95
690.247	65.63
690.573	65.64
690.898	65.42
691.224	65.33
691.549	65.4
691.874	65.44
692.2	65.57
692.525	65.57
692.85	65.61
693.175	65.77
693.5	65.54
693.825	65.64
694.15	65.64
694.475	65.52
694.8	65.6
695.125	65.68
695.45	65.79
695.775	65.75
696.099	65.82
696.424	65.71
696.749	65.6
697.073	65.74
697.398	65.79
697.723	65.78
698.047	65.81
698.372	65.72
698.696	65.64
699.02	65.72
699.345	65.82
699.669	65.95
699.993	65.94
700.318	65.97
700.642	66.07
700.966	66.07
701.29	66.15
701.614	66.13
701.938	65.97
702.262	65.8
702.586	65.79
702.91	65.76
703.234	65.97
703.557	66.11
703.881	66.01
704.205	65.86
704.529	65.98
704.852	66.07
705.176	66.17
705.499	66.13
705.823	66
706.146	65.83
706.47	65.69
706.793	65.7
707.117	65.55
707.44	65.44
707.763	65.37
708.086	65.23
708.409	65.23
708.733	65.4
709.056	65.72
709.379	65.99
709.702	66.07
710.025	65.95
710.348	65.98
710.671	66.13
710.993	66.32
711.316	66.34
711.639	66.51
711.962	66.65
712.284	66.62
712.607	66.64
712.93	66.64
713.252	66.76
713.575	66.7
713.897	67.04
714.22	67.24
714.542	67.34
714.864	67.57
715.187	67.56
715.509	67.53
715.831	67.45
716.153	67.32
716.475	67.22
716.798	67.45
717.12	67.34
717.442	67.36
717.764	67.2
718.085	67.02
718.407	66.82
718.729	66.83
719.051	66.91
719.373	66.9
719.695	66.97
720.016	66.91
720.338	67.02
720.659	66.86
720.981	66.53
721.302	66.49
721.624	66.59
721.945	66.53
722.267	66.44
722.588	66.09
722.909	66.13
723.231	66.24
723.552	66.05
723.873	66.18
724.194	66.31
724.515	66.51
724.836	66.72
725.157	66.69
725.478	66.63
725.799	66.73
726.12	66.78
726.441	66.68
726.762	66.65
727.083	66.54
727.403	66.61
727.724	66.75
728.045	66.63
728.365	66.36
728.686	66.39
729.006	66.41
729.327	66.57
729.647	66.41
729.967	66.34
730.288	66.39
730.608	66.43
730.928	66.47
731.249	66.36
731.569	66.47
731.889	66.47
732.209	66.29
732.529	66.38
732.849	66.39
733.169	66.5
733.489	66.49
733.809	66.46
734.129	66.45
734.448	66.54
734.768	66.55
735.088	66.71
735.408	66.81
735.727	66.84
736.047	67.04
736.366	66.98
736.686	67.01
737.005	67.05
737.325	67.13
737.644	67.13
737.963	67.24
738.283	66.84
738.602	66.98
738.921	66.98
739.24	66.95
739.56	66.61
739.879	66.55
740.198	66.56
740.517	66.55
740.836	66.6
741.155	66.37
741.473	66.65
741.792	66.92
742.111	66.99
742.43	67.05
742.748	67.03
743.067	67.19
743.386	67.08
743.704	66.75
744.023	66.77
744.341	66.68
744.66	66.4
744.978	66.97
745.297	67.18
745.615	67.08
745.933	66.87
746.252	66.86
746.57	66.74
746.888	66.8
747.206	66.84
747.524	66.75
747.842	66.83
748.16	66.91
748.478	66.56
748.796	66.57
749.114	66.63
749.432	66.44
749.749	66.42
750.067	66.47
750.385	66.91
750.703	67.12
751.02	66.94
751.338	67.4
751.655	67.04
751.973	66.83
752.29	67.06
752.608	67.09
752.925	67.47
753.242	67.9
753.56	67.79
753.877	67.87
754.194	67.57
754.511	67.68
754.828	67.3
755.145	67.39
755.462	67.52
755.779	67.22
756.096	67.38
756.413	67.25
756.73	67.56
757.047	67.45
757.364	67.29
757.68	67.64
757.997	67.31
758.314	67.24
758.63	66.87
758.947	66.59
759.264	66.97
759.58	66.72
759.896	66.77
760.213	66.78
760.529	66.77
760.846	66.84
761.162	66.68
761.478	66.37
761.794	66.46
762.11	66.38
762.426	66.35
762.743	66.18
763.059	66.31
763.375	66.19
763.69	66.4
764.006	66.22
764.322	66.33
764.638	66.3
764.954	66.51
765.27	66.8
765.585	66.91
765.901	66.56
766.216	66.63
766.532	66.41
766.848	66.24
767.163	66.39
767.478	66.59
767.794	66.67
768.109	67.17
768.424	67.01
768.74	66.92
769.055	67.37
769.37	67.4
769.685	67.28
770	66.91
770.315	66.43
770.63	66.45
770.945	65.95
771.26	66.09
771.575	65.9
771.89	65.81
772.205	66.17
772.52	66.3
772.834	66.6
773.149	66.54
773.464	66.75
773.778	66.55
774.093	66.14
774.407	66.45
774.722	66.15
775.036	66.2
775.351	66.39
775.665	66.02
775.979	66.63
776.293	66.87
776.608	66.92
776.922	67
777.236	66.92
777.55	66.9
777.864	66.75
778.178	66.79
778.492	67.04
778.806	66.69
779.12	66.6
779.434	66.54
779.747	66.56
780.061	66.42
780.375	66.44
780.689	66.66
781.002	66.58
781.316	67.04
781.629	66.85
781.943	66.77
782.256	66.95
782.57	66.25
782.883	66.18
783.196	66.15
783.51	66.62
783.823	66.91
784.136	67.24
784.449	67.47
784.762	67.48
785.075	67.25
785.388	67.54
785.701	67.08
786.014	67.03
786.327	66.8
786.64	66.76
786.953	66.25
787.266	66.73
787.578	66.8
787.891	65.89
788.204	65.98
788.516	66.29
788.829	66.1
789.141	66.44
789.454	66.92
789.766	67.1
790.079	66.62
790.391	66.16
790.703	66.05
791.016	65.98
791.328	66.13
791.64	66.01
791.952	65.64
792.264	65.41
792.576	64.99
792.888	65.25
793.2	65.54
793.512	66.36
793.824	66.09
794.136	65.24
794.448	65.65
794.76	65.62
795.071	65.08
795.383	64.98
795.695	65
796.006	64.83
796.318	64.8
796.629	64.63
796.941	65.07
797.252	64.71
797.564	64.88
797.875	65.08
798.186	65.46
798.497	66.11
798.809	66.15
799.12	66.37
799.431	66.5
799.742	66.63
800.053	66.49
800.364	66.67
800.675	67.85
800.986	68.43
801.297	69.08
801.608	69.23
801.918	69.34
802.229	69.46
802.54	69.08
802.851	69.13
803.161	69.31
803.472	69.22
803.782	69.89
804.093	69.12
804.403	69.42
804.714	68.47
805.024	68.02
805.334	68.88
805.645	69.26
805.955	68.93
806.265	68.64
806.575	68.27
806.885	68.14
807.195	67.88
807.505	67.31
807.815	66.48
808.125	67.01
808.435	67.47
808.745	67.56
809.055	67.85
809.365	68.33
809.674	68.79
809.984	69.31
810.294	69.2
810.603	70.1
810.913	70.09
811.222	70.24
811.532	70.05
811.841	70.31
812.151	69.96
812.46	70.6
812.769	70.69
813.079	70.96
813.388	70.41
813.697	70.18
814.006	70.03
814.315	70.04
814.624	69.73
814.933	69.62
815.242	68.51
815.551	68.31
815.86	68.7
816.169	68.59
816.478	68
816.786	67.67
817.095	67.59
817.404	66.13
817.712	66.62
818.021	66.63
818.33	66.41
818.638	66.57
818.947	65.7
819.255	65.73
819.563	65.49
819.872	65.29
820.18	65.25
820.488	65.93
820.796	66.16
821.105	66.02
821.413	65.84
821.721	66.13
822.029	66.15
822.337	66.19
822.645	66.43
822.953	66.34
823.26	66.18
823.568	66.32
823.876	66.64
824.184	66.6
824.491	66.56
824.799	66.61
825.107	66.6
825.414	66.82
825.722	66.8
826.029	66.82
826.337	67.37
826.644	67.42
826.951	67.28
827.259	67.2
827.566	67.32
827.873	67.44
828.18	67.35
828.488	67.33
828.795	67.27
829.102	67.04
829.409	67.43
829.716	67.6
830.023	67.35
830.329	66.94
830.636	67
830.943	67.06
831.25	67.09
831.557	66.89
831.863	66.97
832.17	67.35
832.476	67.14
832.783	66.58
833.089	66.98
833.396	67.14
833.702	66.79
834.009	66.55
834.315	67
834.621	66.95
834.928	67.17
835.234	66.54
835.54	66.38
835.846	66.09
836.152	66.46
836.458	66.69
836.764	67.35
837.07	67.38
837.376	67.36
837.682	67.39
837.988	67.52
838.293	67.35
838.599	67.19
838.905	67.82
839.211	67.8
839.516	67.73
839.822	67.69
840.127	68.48
840.433	68.52
840.738	67.59
841.044	68.21
841.349	67.87
841.654	69.36
841.959	69.66
842.265	69.64
842.57	69.19
842.875	69.21
843.18	69.76
843.485	69.31
843.79	69.61
844.095	69.87
844.4	70.68
844.705	69.74
845.01	69.01
845.315	68.36
845.619	67.44
845.924	66.51
846.229	65.59
846.533	65.42
846.838	66.26
847.142	66.03
847.447	65.53
847.751	65.13
848.056	63.52
848.36	62.59
848.664	64.08
848.969	65.07
849.273	64.57
849.577	62.79
849.881	63.41
850.185	62.54
850.489	60.25
850.794	58.72
851.097	61.54
851.401	63.42
851.705	64.48
852.009	66
852.313	64.92
852.617	64.32
852.92	64.63
853.224	63.65
853.528	66.5
853.831	66.45
854.135	69.06
854.438	70.32
854.742	71.97
855.045	70.44
855.349	69.75
855.652	69.05
855.955	68.73
856.259	68.74
856.562	69.09
856.865	71.55
857.168	72.72
857.471	70.42
857.774	71.3
858.077	71.23
858.38	70.13
858.683	72.82
858.986	73.64
859.289	75.14
859.592	75.75
859.894	72.51
860.197	72.86
860.5	71.49
860.802	73.06
861.105	73.99
861.407	73.73
861.71	72.2
862.012	72.63
862.315	70.53
862.617	68.88
862.919	68.09
863.222	67.02
863.524	66.51
863.826	67.34
864.128	65.15
864.43	64.64
864.732	65.94
865.034	62.77
865.336	63.05
865.638	63.37
865.94	61.38
866.242	62.65
866.544	65.75
866.846	64.36
867.147	62.77
867.449	62.06
867.751	64.2
868.052	67.66
868.354	65.67
868.655	67.73
868.957	68.39
869.258	71.42
869.56	70.44
869.861	69.2
870.162	66.12
870.463	67.12
870.765	68.92
871.066	68.59
871.367	72.22
871.668	72.14
871.969	69.06
872.27	71.74
872.571	70.49
872.872	65.73
873.173	64.73
873.473	63.59
873.774	61.94
874.075	59.34
874.376	58.14
874.676	59.69
874.977	60.82
875.277	60.75
875.578	62.46
875.878	63.16
876.179	63.75
876.479	66.53
876.78	65.24
877.08	63.37
877.38	63.29
877.68	61.47
877.981	61.09
878.281	63.49
878.581	63.32
