Data from BU57648_Reflection_00012.txt Node
Date: Tue Nov 19 10:46:51 EST 2019
User: vgr7
Spectrometer: USB2G7710
Scans to average: 3
Trigger mode: 4
Integration Time (sec): 2.000000E-2
Electric dark correction enabled: true
Boxcar width: 10
XAxis mode: Wavelengths
Number of Pixels in Spectrum: 2048
>>>>>Begin Spectral Data<<<<<
177.721	87.52
178.105	106.17
178.488	11.21
178.871	2.78
179.254	-1.11
179.636	12.04
180.019	-22.86
180.402	214.29
180.785	66.11
181.168	208.8
181.55	183.33
181.933	80.65
182.316	15.85
182.698	115.54
183.081	38.76
183.463	47.59
183.846	21.63
184.228	313.54
184.611	66.49
184.993	42.38
185.376	22.14
185.758	33.53
186.14	51.98
186.522	30.38
186.904	30.06
187.287	27.52
187.669	39.7
188.051	29.38
188.433	24.84
188.815	-16.48
189.197	-20.1
189.579	0.87
189.961	-1.47
190.342	16.19
190.724	-24.76
191.106	0.08
191.488	1.32
191.869	11.79
192.251	7.25
192.633	-5.84
193.014	0.99
193.396	59.66
193.777	61.14
194.159	41.42
194.54	48.29
194.922	40.68
195.303	25.72
195.684	10.74
196.065	11.53
196.447	10.47
196.828	38.65
197.209	21.44
197.59	14.19
197.971	6.18
198.352	15.45
198.733	41.29
199.114	41.94
199.495	44.35
199.876	25.65
200.257	53.58
200.638	52.13
201.018	62.27
201.399	42.91
201.78	39.52
202.16	34.72
202.541	37.63
202.922	44.53
203.302	49.21
203.683	68.21
204.063	67.51
204.444	61.06
204.824	64.25
205.204	75.28
205.585	85.87
205.965	87.62
206.345	70.49
206.725	59.1
207.106	74.15
207.486	70.9
207.866	82.77
208.246	63.45
208.626	64.35
209.006	50.61
209.386	35.88
209.766	47.08
210.145	74.97
210.525	70.08
210.905	72.09
211.285	67.29
211.664	68.06
212.044	72.4
212.424	81.63
212.803	65.53
213.183	89.67
213.562	62.82
213.942	53.36
214.321	68.6
214.701	64.03
215.08	47.19
215.459	41.72
215.838	28.53
216.218	26.79
216.597	30.13
216.976	17.83
217.355	23.76
217.734	28.96
218.113	23.06
218.492	13.85
218.871	4.29
219.25	16.02
219.629	-6.84
220.008	-17.41
220.387	-21.32
220.766	0.53
221.144	-9.79
221.523	-1.19
221.902	17.24
222.28	13.85
222.659	33.22
223.037	37
223.416	46.44
223.794	56.75
224.173	50.55
224.551	50.85
224.929	41.9
225.308	49.17
225.686	32.83
226.064	18.26
226.442	19.25
226.821	21.67
227.199	18.38
227.577	24.32
227.955	26.36
228.333	23.84
228.711	21.03
229.089	23.04
229.467	19.92
229.845	18.87
230.222	19.53
230.6	15.77
230.978	15.01
231.356	14.08
231.733	13.87
232.111	13.74
232.488	13.91
232.866	15.13
233.243	12.61
233.621	14.61
233.998	18.1
234.376	18.54
234.753	17.26
235.13	15.84
235.508	14.59
235.885	14.42
236.262	13.46
236.639	12.27
237.016	9.84
237.393	11.74
237.77	11.26
238.147	10.44
238.524	10.5
238.901	9.97
239.278	8.97
239.655	8.44
240.032	7.88
240.409	7.16
240.785	7.16
241.162	7.1
241.539	6.26
241.915	5.58
242.292	5.6
242.668	6.26
243.045	6.67
243.421	6.78
243.798	6.84
244.174	7.02
244.551	7.44
244.927	7.52
245.303	7.09
245.679	7.17
246.056	7.02
246.432	7.02
246.808	6.89
247.184	7.05
247.56	6.81
247.936	6.75
248.312	7.31
248.688	7.35
249.064	7.26
249.44	7.31
249.815	7.61
250.191	7.76
250.567	7.35
250.943	7.31
251.318	7.24
251.694	6.79
252.069	6.64
252.445	6.7
252.82	6.89
253.196	7.01
253.571	7.23
253.947	7.32
254.322	6.86
254.697	6.98
255.073	6.61
255.448	6.63
255.823	6.7
256.198	6.02
256.573	6.09
256.948	6.17
257.323	6.22
257.698	6.19
258.073	5.96
258.448	5.87
258.823	5.61
259.198	5.51
259.573	5.7
259.948	5.85
260.322	5.79
260.697	5.79
261.072	5.68
261.446	5.55
261.821	5.48
262.195	5.31
262.57	5.22
262.944	5.32
263.319	5.4
263.693	5.39
264.067	5.36
264.442	5.26
264.816	5.17
265.19	5.07
265.564	4.68
265.938	4.69
266.313	4.83
266.687	4.87
267.061	5.03
267.435	5.19
267.809	4.81
268.183	4.64
268.556	4.65
268.93	4.67
269.304	4.54
269.678	4.49
270.051	4.78
270.425	4.84
270.799	4.78
271.172	4.8
271.546	5.05
271.919	5.12
272.293	5.09
272.666	5.23
273.04	5.23
273.413	5.4
273.787	5.36
274.16	5.32
274.533	5.51
274.906	5.54
275.279	5.22
275.653	5.41
276.026	5.59
276.399	5.5
276.772	5.6
277.145	5.62
277.518	5.72
277.891	5.8
278.263	6
278.636	5.92
279.009	5.99
279.382	5.79
279.755	5.76
280.127	5.82
280.5	5.72
280.872	5.78
281.245	5.72
281.617	5.73
281.99	5.64
282.362	5.57
282.735	5.45
283.107	5.45
283.479	5.52
283.852	5.55
284.224	5.67
284.596	5.56
284.968	5.53
285.34	5.38
285.713	5.3
286.085	5.22
286.457	5.17
286.829	5.07
287.201	5.01
287.572	5.19
287.944	5.16
288.316	5.26
288.688	5.35
289.06	5.45
289.431	5.46
289.803	5.65
290.175	5.69
290.546	5.81
290.918	5.86
291.289	5.77
291.661	5.76
292.032	5.81
292.403	5.88
292.775	6.04
293.146	6.34
293.517	6.39
293.889	6.59
294.26	6.88
294.631	7.18
295.002	7.36
295.373	7.36
295.744	7.51
296.115	7.44
296.486	7.51
296.857	7.52
297.228	7.55
297.599	7.57
297.97	7.72
298.34	7.69
298.711	7.75
299.082	7.84
299.452	7.85
299.823	7.84
300.194	8.02
300.564	7.91
300.935	8.01
301.305	8.09
301.676	7.94
302.046	7.99
302.416	7.76
302.787	7.81
303.157	7.89
303.527	7.96
303.897	8.1
304.267	8.04
304.637	8.08
305.008	8.15
305.378	8.36
305.748	8.33
306.117	8.48
306.487	8.83
306.857	9.05
307.227	9.2
307.597	9.22
307.967	9.3
308.336	9.58
308.706	9.57
309.076	9.74
309.445	10.07
309.815	10.14
310.184	10.25
310.554	10.23
310.923	10.2
311.293	10.11
311.662	10.17
312.031	10.32
312.401	10.47
312.77	10.69
313.139	10.79
313.508	10.84
313.877	10.86
314.246	10.79
314.616	10.77
314.985	10.82
315.353	11.06
315.722	11.19
316.091	11.29
316.46	11.43
316.829	11.48
317.198	11.46
317.567	11.52
317.935	11.91
318.304	12.25
318.672	12.62
319.041	12.9
319.41	12.88
319.778	12.92
320.147	12.96
320.515	12.83
320.883	12.66
321.252	12.84
321.62	12.98
321.988	13.05
322.357	13.24
322.725	13.36
323.093	13.34
323.461	13.37
323.829	13.39
324.197	13.49
324.565	13.43
324.933	13.42
325.301	13.51
325.669	13.4
326.037	13.47
326.405	13.33
326.772	13.56
327.14	13.63
327.508	13.67
327.875	13.64
328.243	13.7
328.61	13.98
328.978	14.05
329.346	14.18
329.713	14.4
330.08	14.47
330.448	14.43
330.815	14.53
331.182	14.58
331.55	14.67
331.917	14.65
332.284	14.85
332.651	14.88
333.018	14.9
333.385	14.96
333.752	14.83
334.119	14.96
334.486	14.76
334.853	14.85
335.22	14.97
335.587	15.06
335.954	15.17
336.32	15.08
336.687	15.07
337.054	14.97
337.42	14.86
337.787	14.78
338.153	14.81
338.52	14.75
338.886	14.75
339.253	14.79
339.619	14.66
339.986	14.63
340.352	14.75
340.718	14.83
341.084	14.63
341.451	14.75
341.817	14.81
342.183	14.85
342.549	14.93
342.915	14.99
343.281	14.99
343.647	15.03
344.013	15.01
344.379	14.97
344.745	15.06
345.11	15.08
345.476	15.18
345.842	15.25
346.208	15.35
346.573	15.32
346.939	15.46
347.304	15.64
347.67	15.71
348.035	15.69
348.401	15.62
348.766	15.68
349.132	15.6
349.497	15.59
349.862	15.57
350.228	15.48
350.593	15.42
350.958	15.43
351.323	15.36
351.688	15.43
352.053	15.49
352.418	15.45
352.783	15.49
353.148	15.31
353.513	15.17
353.878	15.1
354.243	15.08
354.608	14.93
354.972	14.86
355.337	14.86
355.702	14.81
356.066	14.8
356.431	14.95
356.795	14.89
357.16	14.78
357.524	14.75
357.889	14.74
358.253	14.63
358.618	14.64
358.982	14.71
359.346	14.63
359.71	14.49
360.075	14.45
360.439	14.37
360.803	14.37
361.167	14.36
361.531	14.32
361.895	14.3
362.259	14.31
362.623	14.25
362.987	14.2
363.351	14.06
363.714	14.08
364.078	13.93
364.442	13.87
364.806	13.87
365.169	13.78
365.533	13.74
365.896	13.73
366.26	13.63
366.623	13.47
366.987	13.37
367.35	13.37
367.714	13.3
368.077	13.25
368.44	13.24
368.803	13.23
369.167	13.11
369.53	12.94
369.893	12.82
370.256	12.76
370.619	12.58
370.982	12.51
371.345	12.33
371.708	12.31
372.071	12.29
372.434	12.2
372.797	12.11
373.159	12.01
373.522	11.93
373.885	11.8
374.247	11.74
374.61	11.63
374.973	11.52
375.335	11.45
375.698	11.25
376.06	11.12
376.423	10.99
376.785	10.93
377.147	10.9
377.51	10.78
377.872	10.72
378.234	10.68
378.596	10.65
378.958	10.64
379.321	10.49
379.683	10.38
380.045	10.26
380.407	10.18
380.769	10.1
381.13	9.96
381.492	9.92
381.854	9.84
382.216	9.76
382.578	9.66
382.939	9.57
383.301	9.49
383.663	9.39
384.024	9.32
384.386	9.23
384.747	9.11
385.109	9.05
385.47	8.98
385.832	8.88
386.193	8.79
386.554	8.65
386.916	8.61
387.277	8.49
387.638	8.45
387.999	8.43
388.36	8.32
388.721	8.3
389.082	8.25
389.443	8.15
389.804	8.14
390.165	8.09
390.526	8.04
390.887	8.01
391.248	7.98
391.609	7.93
391.969	7.88
392.33	7.85
392.691	7.82
393.051	7.72
393.412	7.69
393.772	7.66
394.133	7.62
394.493	7.53
394.854	7.49
395.214	7.38
395.574	7.3
395.935	7.28
396.295	7.2
396.655	7.1
397.015	7.04
397.376	6.97
397.736	6.86
398.096	6.8
398.456	6.76
398.816	6.72
399.176	6.63
399.535	6.56
399.895	6.49
400.255	6.42
400.615	6.37
400.975	6.3
401.334	6.23
401.694	6.18
402.054	6.17
402.413	6.14
402.773	6.11
403.132	6.07
403.492	6.03
403.851	5.98
404.211	5.98
404.57	5.98
404.929	5.9
405.288	5.87
405.648	5.81
406.007	5.78
406.366	5.71
406.725	5.63
407.084	5.62
407.443	5.61
407.802	5.59
408.161	5.58
408.52	5.56
408.879	5.51
409.238	5.52
409.596	5.48
409.955	5.43
410.314	5.4
410.673	5.35
411.031	5.29
411.39	5.26
411.748	5.25
412.107	5.25
412.465	5.26
412.824	5.25
413.182	5.22
413.54	5.23
413.899	5.22
414.257	5.25
414.615	5.21
414.974	5.16
415.332	5.14
415.69	5.11
416.048	5.07
416.406	5.01
416.764	4.98
417.122	4.95
417.48	4.96
417.838	4.94
418.195	4.92
418.553	4.92
418.911	4.88
419.269	4.86
419.626	4.79
419.984	4.75
420.342	4.72
420.699	4.71
421.057	4.67
421.414	4.66
421.772	4.65
422.129	4.63
422.486	4.61
422.844	4.59
423.201	4.58
423.558	4.57
423.915	4.58
424.273	4.55
424.63	4.55
424.987	4.52
425.344	4.5
425.701	4.48
426.058	4.46
426.415	4.45
426.772	4.43
427.128	4.43
427.485	4.43
427.842	4.42
428.199	4.41
428.555	4.39
428.912	4.35
429.269	4.31
429.625	4.3
429.982	4.29
430.338	4.28
430.695	4.24
431.051	4.23
431.407	4.2
431.764	4.18
432.12	4.16
432.476	4.14
432.832	4.16
433.189	4.15
433.545	4.15
433.901	4.13
434.257	4.14
434.613	4.13
434.969	4.13
435.325	4.14
435.681	4.14
436.036	4.14
436.392	4.16
436.748	4.17
437.104	4.19
437.459	4.17
437.815	4.17
438.171	4.18
438.526	4.18
438.882	4.18
439.237	4.19
439.593	4.18
439.948	4.17
440.304	4.17
440.659	4.16
441.014	4.15
441.369	4.17
441.725	4.14
442.08	4.13
442.435	4.11
442.79	4.08
443.145	4.07
443.5	4.06
443.855	4.04
444.21	4.03
444.565	4.02
444.92	4.02
445.275	4
445.629	3.99
445.984	3.98
446.339	3.97
446.693	3.96
447.048	3.95
447.403	3.94
447.757	3.91
448.112	3.9
448.466	3.89
448.82	3.87
449.175	3.85
449.529	3.85
449.883	3.85
450.238	3.86
450.592	3.84
450.946	3.83
451.3	3.82
451.654	3.8
452.008	3.79
452.362	3.76
452.716	3.76
453.07	3.77
453.424	3.76
453.778	3.76
454.132	3.73
454.486	3.74
454.839	3.77
455.193	3.79
455.547	3.79
455.9	3.8
456.254	3.8
456.607	3.82
456.961	3.82
457.314	3.82
457.668	3.81
458.021	3.81
458.375	3.81
458.728	3.81
459.081	3.82
459.434	3.83
459.787	3.84
460.141	3.84
460.494	3.84
460.847	3.84
461.2	3.83
461.553	3.86
461.906	3.87
462.259	3.85
462.611	3.86
462.964	3.85
463.317	3.86
463.67	3.86
464.022	3.85
464.375	3.86
464.728	3.88
465.08	3.9
465.433	3.91
465.785	3.92
466.138	3.92
466.49	3.93
466.843	3.93
467.195	3.95
467.547	3.98
467.899	4.01
468.252	4.01
468.604	4.03
468.956	4.04
469.308	4.03
469.66	4.06
470.012	4.06
470.364	4.08
470.716	4.07
471.068	4.09
471.42	4.11
471.772	4.12
472.123	4.11
472.475	4.09
472.827	4.11
473.178	4.11
473.53	4.13
473.882	4.12
474.233	4.13
474.585	4.13
474.936	4.11
475.288	4.1
475.639	4.09
475.99	4.1
476.342	4.11
476.693	4.1
477.044	4.09
477.395	4.1
477.746	4.09
478.097	4.12
478.448	4.1
478.8	4.08
479.15	4.07
479.501	4.05
479.852	4.05
480.203	4.04
480.554	4.04
480.905	4.03
481.255	4.03
481.606	4.03
481.957	4.02
482.307	4.02
482.658	4.02
483.009	4.03
483.359	4.04
483.709	4.05
484.06	4.04
484.41	4.04
484.761	4.04
485.111	4.04
485.461	4.04
485.811	4.04
486.162	4.05
486.512	4.05
486.862	4.07
487.212	4.08
487.562	4.09
487.912	4.1
488.262	4.13
488.612	4.14
488.961	4.14
489.311	4.14
489.661	4.15
490.011	4.15
490.36	4.15
490.71	4.14
491.06	4.14
491.409	4.14
491.759	4.15
492.108	4.15
492.458	4.15
492.807	4.16
493.157	4.17
493.506	4.19
493.855	4.2
494.204	4.2
494.554	4.21
494.903	4.2
495.252	4.22
495.601	4.23
495.95	4.26
496.299	4.29
496.648	4.33
496.997	4.36
497.346	4.4
497.695	4.41
498.043	4.46
498.392	4.49
498.741	4.55
499.09	4.59
499.438	4.62
499.787	4.65
500.135	4.68
500.484	4.74
500.832	4.75
501.181	4.8
501.529	4.86
501.878	4.92
502.226	4.98
502.574	5.01
502.923	5.04
503.271	5.08
503.619	5.14
503.967	5.19
504.315	5.25
504.663	5.3
505.011	5.37
505.359	5.42
505.707	5.46
506.055	5.52
506.403	5.58
506.751	5.65
507.098	5.72
507.446	5.78
507.794	5.83
508.141	5.9
508.489	5.99
508.837	6.03
509.184	6.08
509.531	6.15
509.879	6.23
510.226	6.3
510.574	6.37
510.921	6.44
511.268	6.54
511.616	6.59
511.963	6.67
512.31	6.76
512.657	6.83
513.004	6.92
513.351	7.03
513.698	7.12
514.045	7.22
514.392	7.31
514.739	7.39
515.086	7.5
515.432	7.61
515.779	7.67
516.126	7.79
516.473	7.9
516.819	7.99
517.166	8.06
517.512	8.16
517.859	8.25
518.205	8.32
518.552	8.38
518.898	8.47
519.245	8.55
519.591	8.63
519.937	8.75
520.283	8.85
520.629	8.94
520.976	9.04
521.322	9.17
521.668	9.26
522.014	9.4
522.36	9.53
522.706	9.65
523.052	9.82
523.398	9.94
523.743	10.09
524.089	10.25
524.435	10.38
524.781	10.52
525.126	10.66
525.472	10.79
525.817	10.89
526.163	11.02
526.509	11.12
526.854	11.2
527.199	11.26
527.545	11.36
527.89	11.43
528.235	11.51
528.581	11.58
528.926	11.69
529.271	11.77
529.616	11.84
529.961	11.94
530.306	12.03
530.651	12.12
530.996	12.23
531.341	12.34
531.686	12.45
532.031	12.56
532.376	12.66
532.721	12.77
533.065	12.9
533.41	13.03
533.755	13.16
534.099	13.32
534.444	13.46
534.788	13.58
535.133	13.74
535.477	13.88
535.822	14.04
536.166	14.19
536.51	14.35
536.855	14.54
537.199	14.71
537.543	14.89
537.887	15.1
538.231	15.31
538.576	15.49
538.92	15.69
539.264	15.87
539.608	16.03
539.951	16.2
540.295	16.38
540.639	16.52
540.983	16.68
541.327	16.87
541.671	17.03
542.014	17.2
542.358	17.34
542.701	17.51
543.045	17.67
543.389	17.84
543.732	18.01
544.075	18.19
544.419	18.38
544.762	18.57
545.105	18.78
545.449	18.98
545.792	19.21
546.135	19.42
546.478	19.65
546.821	19.93
547.165	20.16
547.508	20.4
547.851	20.64
548.194	20.9
548.536	21.1
548.879	21.38
549.222	21.62
549.565	21.88
549.908	22.11
550.25	22.37
550.593	22.66
550.936	22.95
551.278	23.26
551.621	23.54
551.963	23.83
552.306	24.1
552.648	24.36
552.991	24.59
553.333	24.9
553.675	25.22
554.017	25.46
554.36	25.77
554.702	26.06
555.044	26.43
555.386	26.7
555.728	27.03
556.07	27.3
556.412	27.63
556.754	27.94
557.096	28.33
557.438	28.71
557.78	29.02
558.121	29.38
558.463	29.66
558.805	30
559.147	30.3
559.488	30.61
559.83	30.94
560.171	31.27
560.513	31.61
560.854	31.96
561.196	32.29
561.537	32.7
561.878	33.02
562.22	33.33
562.561	33.69
562.902	34.02
563.243	34.34
563.584	34.65
563.925	34.98
564.266	35.26
564.607	35.54
564.948	35.89
565.289	36.19
565.63	36.52
565.971	36.8
566.312	37.08
566.653	37.4
566.993	37.67
567.334	37.98
567.675	38.28
568.015	38.53
568.356	38.86
568.696	39.16
569.037	39.5
569.377	39.8
569.718	40.06
570.058	40.35
570.398	40.68
570.739	40.98
571.079	41.23
571.419	41.57
571.759	41.88
572.099	42.13
572.439	42.41
572.779	42.71
573.119	42.97
573.459	43.25
573.799	43.49
574.139	43.74
574.479	43.99
574.819	44.29
575.158	44.57
575.498	44.8
575.838	44.99
576.177	45.14
576.517	45.38
576.856	45.63
577.196	45.94
577.535	46.11
577.875	46.39
578.214	46.72
578.553	46.87
578.893	47.15
579.232	47.4
579.571	47.67
579.91	47.85
580.25	48.11
580.589	48.33
580.928	48.55
581.267	48.84
581.606	49.1
581.945	49.34
582.283	49.48
582.622	49.62
582.961	49.85
583.3	50.15
583.639	50.43
583.977	50.63
584.316	50.73
584.654	50.98
584.993	51.18
585.332	51.42
585.67	51.71
586.008	51.82
586.347	52.03
586.685	52.19
587.024	52.36
587.362	52.55
587.7	52.72
588.038	52.94
588.376	53.12
588.715	53.25
589.053	53.45
589.391	53.65
589.729	53.91
590.067	54.14
590.404	54.24
590.742	54.38
591.08	54.56
591.418	54.84
591.756	55.07
592.093	55.22
592.431	55.36
592.769	55.49
593.106	55.68
593.444	55.83
593.781	56
594.119	56.25
594.456	56.37
594.793	56.6
595.131	56.71
595.468	56.79
595.805	56.93
596.143	56.95
596.48	57.1
596.817	57.23
597.154	57.26
597.491	57.39
597.828	57.53
598.165	57.66
598.502	57.78
598.839	57.89
599.176	58.07
599.512	58.15
599.849	58.26
600.186	58.44
600.523	58.55
600.859	58.67
601.196	58.72
601.532	58.87
601.869	58.93
602.205	59.06
602.542	59.16
602.878	59.28
603.215	59.36
603.551	59.43
603.887	59.51
604.223	59.64
604.56	59.72
604.896	59.76
605.232	59.84
605.568	59.9
605.904	59.95
606.24	59.94
606.576	60.07
606.912	60.12
607.248	60.2
607.583	60.27
607.919	60.32
608.255	60.4
608.591	60.36
608.926	60.46
609.262	60.44
609.597	60.58
609.933	60.69
610.268	60.79
610.604	60.9
610.939	60.99
611.275	61.02
611.61	61.07
611.945	61.09
612.281	61.09
612.616	61.06
612.951	61.11
613.286	61.24
613.621	61.27
613.956	61.43
614.291	61.38
614.626	61.28
614.961	61.34
615.296	61.39
615.631	61.6
615.966	61.63
616.3	61.86
616.635	61.85
616.97	61.85
617.304	61.84
617.639	61.86
617.973	61.86
618.308	61.93
618.642	62.02
618.977	62.06
619.311	62.11
619.646	62.25
619.98	62.25
620.314	62.23
620.648	62.29
620.983	62.25
621.317	62.26
621.651	62.51
621.985	62.56
622.319	62.6
622.653	62.69
622.987	62.69
623.321	62.75
623.655	62.79
623.988	62.82
624.322	62.92
624.656	63
624.99	63.05
625.323	63.09
625.657	63.14
625.99	63.17
626.324	63.2
626.657	63.25
626.991	63.27
627.324	63.26
627.658	63.19
627.991	63.24
628.324	63.35
628.657	63.27
628.991	63.29
629.324	63.27
629.657	63.23
629.99	63.27
630.323	63.14
630.656	63.27
630.989	63.27
631.322	63.28
631.655	63.23
631.987	63.33
632.32	63.45
632.653	63.5
632.986	63.54
633.318	63.56
633.651	63.53
633.984	63.76
634.316	63.81
634.649	63.98
634.981	64.04
635.313	64.16
635.646	64.21
635.978	64.2
636.31	64.35
636.643	64.39
636.975	64.51
637.307	64.56
637.639	64.53
637.971	64.64
638.303	64.67
638.635	64.76
638.967	64.68
639.299	64.58
639.631	64.6
639.963	64.62
640.295	64.61
640.626	64.75
640.958	64.58
641.29	64.74
641.621	64.72
641.953	64.62
642.285	64.53
642.616	64.6
642.948	64.56
643.279	64.46
643.61	64.39
643.942	64.4
644.273	64.54
644.604	64.58
644.936	64.5
645.267	64.48
645.598	64.45
645.929	64.49
646.26	64.48
646.591	64.38
646.922	64.41
647.253	64.5
647.584	64.46
647.915	64.55
648.245	64.47
648.576	64.49
648.907	64.68
649.238	64.66
649.568	64.61
649.899	64.71
650.229	64.8
650.56	64.94
650.89	64.94
651.221	64.74
651.551	64.79
651.882	64.79
652.212	64.92
652.542	64.96
652.872	65.04
653.203	65.03
653.533	65.16
653.863	65.33
654.193	65.4
654.523	65.38
654.853	65.44
655.183	65.64
655.513	65.68
655.843	65.59
656.172	65.52
656.502	65.64
656.832	65.81
657.162	65.96
657.491	65.98
657.821	65.99
658.15	66.17
658.48	66.24
658.809	66.35
659.139	66.38
659.468	66.48
659.798	66.43
660.127	66.59
660.456	66.57
660.785	66.6
661.115	66.58
661.444	66.66
661.773	66.55
662.102	66.41
662.431	66.41
662.76	66.45
663.089	66.48
663.418	66.35
663.747	66.34
664.076	66.3
664.404	66.22
664.733	66.1
665.062	66.11
665.39	65.93
665.719	66.07
666.048	65.94
666.376	65.87
666.705	65.89
667.033	65.81
667.362	65.94
667.69	65.81
668.018	65.88
668.347	65.88
668.675	65.96
669.003	65.97
669.331	66.06
669.659	66.09
669.987	66.2
670.315	66.27
670.643	66.2
670.971	66.16
671.299	66.22
671.627	66.39
671.955	66.37
672.283	66.49
672.61	66.25
672.938	66.41
673.266	66.39
673.593	66.48
673.921	66.45
674.249	66.33
674.576	66.41
674.904	66.46
675.231	66.55
675.558	66.7
675.886	66.77
676.213	66.77
676.54	66.75
676.867	66.89
677.195	66.84
677.522	66.84
677.849	66.79
678.176	66.8
678.503	66.59
678.83	66.5
679.157	66.42
679.484	66.6
679.81	66.54
680.137	66.55
680.464	66.51
680.791	66.46
681.117	66.45
681.444	66.45
681.771	66.35
682.097	66.29
682.424	66.32
682.75	66.3
683.077	66.14
683.403	66.07
683.729	66.03
684.056	66.1
684.382	66.04
684.708	66.05
685.034	65.96
685.36	66.26
685.686	66.35
686.012	66.27
686.339	66.17
686.664	66.09
686.99	66.15
687.316	66.29
687.642	66.48
687.968	66.57
688.294	66.69
688.619	66.73
688.945	66.81
689.271	66.62
689.596	66.68
689.922	66.78
690.247	66.85
690.573	66.72
690.898	66.86
691.224	66.82
691.549	66.81
691.874	66.89
692.2	66.64
692.525	66.67
692.85	66.77
693.175	66.74
693.5	66.69
693.825	66.6
694.15	66.55
694.475	66.38
694.8	66.47
695.125	66.28
695.45	66.34
695.775	66.29
696.099	66.54
696.424	66.52
696.749	66.51
697.073	66.45
697.398	66.54
697.723	66.5
698.047	66.58
698.372	66.79
698.696	66.72
699.02	66.88
699.345	66.79
699.669	66.92
699.993	66.91
700.318	66.98
700.642	67.03
700.966	66.95
701.29	67.15
701.614	67.04
701.938	67.12
702.262	67
702.586	66.98
702.91	66.87
703.234	66.96
703.557	67.03
703.881	67.21
704.205	67.13
704.529	67.03
704.852	67
705.176	66.75
705.499	66.7
705.823	66.86
706.146	66.97
706.47	66.76
706.793	66.69
707.117	66.71
707.44	66.53
707.763	66.53
708.086	66.5
708.409	66.56
708.733	66.48
709.056	66.45
709.379	66.35
709.702	66.42
710.025	66.29
710.348	66.13
710.671	66.02
710.993	66.08
711.316	66.24
711.639	66.4
711.962	66.41
712.284	66.52
712.607	66.41
712.93	66.55
713.252	66.79
713.575	66.92
713.897	66.78
714.22	66.86
714.542	66.95
714.864	66.92
715.187	66.86
715.509	67.03
715.831	67.33
716.153	67.53
716.475	67.33
716.798	67.4
717.12	67.79
717.442	68.03
717.764	68.27
718.085	68.47
718.407	68.58
718.729	68.65
719.051	68.8
719.373	68.54
719.695	68.14
720.016	68.01
720.338	67.9
720.659	68.14
720.981	68.01
721.302	67.91
721.624	68.06
721.945	67.87
722.267	68.12
722.588	67.92
722.909	67.9
723.231	67.74
723.552	67.71
723.873	67.45
724.194	67.4
724.515	67.26
724.836	66.89
725.157	66.6
725.478	66.71
725.799	66.69
726.12	66.94
726.441	67.24
726.762	67.36
727.083	67.56
727.403	67.31
727.724	67.39
728.045	67.43
728.365	67.34
728.686	67.49
729.006	67.1
729.327	67.29
729.647	67.36
729.967	67.54
730.288	67.54
730.608	67.67
730.928	67.76
731.249	67.68
731.569	67.88
731.889	67.68
732.209	67.57
732.529	67.7
732.849	67.63
733.169	67.78
733.489	67.68
733.809	67.62
734.129	68.01
734.448	68.17
734.768	68.2
735.088	68.17
735.408	68.21
735.727	68.33
736.047	68.32
736.366	68.15
736.686	67.97
737.005	67.92
737.325	67.74
737.644	67.48
737.963	67.31
738.283	67.21
738.602	67.65
738.921	67.71
739.24	67.53
739.56	67.62
739.879	67.61
740.198	67.5
740.517	67.63
740.836	67.6
741.155	67.71
741.473	67.66
741.792	67.73
742.111	67.7
742.43	67.65
742.748	67.46
743.067	67.39
743.386	67.71
743.704	67.67
744.023	67.79
744.341	67.98
744.66	68.01
744.978	68.19
745.297	68.17
745.615	68.1
745.933	68.21
746.252	68.12
746.57	68.45
746.888	68.48
747.206	68.03
747.524	67.69
747.842	67.55
748.16	67.58
748.478	67.66
748.796	67.92
749.114	67.87
749.432	68.01
749.749	68.49
750.067	68.16
750.385	68.45
750.703	68.3
751.02	68.35
751.338	68.68
751.655	68.74
751.973	68.63
752.29	68.64
752.608	68.46
752.925	68.82
753.242	68.25
753.56	68.22
753.877	68.58
754.194	68.6
754.511	68.69
754.828	68.77
755.145	68.72
755.462	68.49
755.779	68.5
756.096	68.26
756.413	68.33
756.73	68.41
757.047	68.51
757.364	68.51
757.68	68.56
757.997	68.57
758.314	68.43
758.63	68.29
758.947	68.55
759.264	68.72
759.58	68.54
759.896	68.72
760.213	68.69
760.529	68.71
760.846	69.02
761.162	69.34
761.478	69.31
761.794	69.33
762.11	69.34
762.426	69.17
762.743	69.02
763.059	68.84
763.375	69.03
763.69	68.77
764.006	69.11
764.322	68.95
764.638	68.98
764.954	68.92
765.27	69.08
765.585	68.92
765.901	69.04
766.216	69.07
766.532	68.98
766.848	69.17
767.163	69.01
767.478	69.13
767.794	68.76
768.109	68.77
768.424	68.51
768.74	68.52
769.055	68.8
769.37	69.18
769.685	69.45
770	69.16
770.315	69.16
770.63	68.77
770.945	68.69
771.26	68.7
771.575	68.63
771.89	68.39
772.205	68.53
772.52	68.23
772.834	68.18
773.149	68.02
773.464	67.86
773.778	67.76
774.093	67.39
774.407	67.69
774.722	67.56
775.036	67.67
775.351	68
775.665	68.27
775.979	68.28
776.293	68.23
776.608	68.2
776.922	68.24
777.236	68.48
777.55	68.53
777.864	68.51
778.178	68.97
778.492	69.17
778.806	68.99
779.12	69.15
779.434	68.86
779.747	69.35
780.061	69.21
780.375	69.83
780.689	70.19
781.002	70.12
781.316	70.25
781.629	70.32
781.943	69.86
782.256	69.92
782.57	70.37
782.883	69.85
783.196	69.81
783.51	70.34
783.823	70.42
784.136	70.58
784.449	70.52
784.762	69.99
785.075	70.09
785.388	70.36
785.701	70.28
786.014	71.09
786.327	70.53
786.64	70.74
786.953	70.6
787.266	70.13
787.578	69.69
787.891	69.79
788.204	70.01
788.516	70.15
788.829	69.79
789.141	69.34
789.454	69.57
789.766	70.16
790.079	69.31
790.391	69.19
790.703	69.42
791.016	69.84
791.328	70.54
791.64	70.42
791.952	70.18
792.264	70.06
792.576	69.97
792.888	70.77
793.2	70.97
793.512	70.59
793.824	70.84
794.136	70.91
794.448	71.23
794.76	71
795.071	70.86
795.383	71.07
795.695	70.86
796.006	70.49
796.318	69.77
796.629	70.55
796.941	70.62
797.252	70.84
797.564	70.26
797.875	69.51
798.186	69.6
798.497	69.45
798.809	69.77
799.12	68.8
799.431	68.9
799.742	68.5
800.053	68.63
800.364	68.89
800.675	69.29
800.986	68.78
801.297	69.33
801.608	69.52
801.918	69.01
802.229	69.05
802.54	69.76
802.851	70.64
803.161	70.77
803.472	71.04
803.782	70.54
804.093	70.79
804.403	70.64
804.714	70.39
805.024	70.23
805.334	70.65
805.645	71.44
805.955	70.6
806.265	71.24
806.575	72.07
806.885	72.34
807.195	72.6
807.505	72.92
807.815	72.64
808.125	72.86
808.435	73.34
808.745	73.95
809.055	73.65
809.365	73.3
809.674	72.44
809.984	71.92
810.294	71.6
810.603	71.4
810.913	72.66
811.222	72.25
811.532	72.93
811.841	72.01
812.151	72.02
812.46	71.99
812.769	72.25
813.079	71.45
813.388	70.84
813.697	70.11
814.006	70.06
814.315	69.75
814.624	69.45
814.933	69.94
815.242	69.58
815.551	70.04
815.86	70.25
816.169	71.17
816.478	71.8
816.786	72.32
817.095	72.25
817.404	71.32
817.712	72.09
818.021	72.15
818.33	72.45
818.638	72.04
818.947	71.74
819.255	71.14
819.563	70.92
819.872	71.37
820.18	71.29
820.488	71.28
820.796	71.1
821.105	70.99
821.413	70.34
821.721	70.35
822.029	70.06
822.337	69.82
822.645	69.7
822.953	69.23
823.26	69.18
823.568	68.99
823.876	68.75
824.184	68.89
824.491	68.96
824.799	68.68
825.107	68.71
825.414	68.76
825.722	68.75
826.029	68.69
826.337	68.35
826.644	68.28
826.951	67.87
827.259	67.6
827.566	67.42
827.873	67.62
828.18	67.35
828.488	67.14
828.795	67.29
829.102	66.86
829.409	67.23
829.716	66.97
830.023	67.32
830.329	68.03
830.636	67.69
830.943	67.14
831.25	67.29
831.557	67.3
831.863	67.1
832.17	66.83
832.476	67.24
832.783	67.03
833.089	67.13
833.396	67.11
833.702	67.54
834.009	67.89
834.315	67.86
834.621	67.5
834.928	67.56
835.234	67
835.54	67.56
835.846	67.63
836.152	68.01
836.458	67.99
836.764	67.44
837.07	66.88
837.376	67.53
837.682	67.18
837.988	66.83
838.293	67.27
838.599	67.49
838.905	66.6
839.211	66.89
839.516	66.37
839.822	67.26
840.127	67.4
840.433	66.5
840.738	66.11
841.044	66.69
841.349	66.76
841.654	68.4
841.959	68.29
842.265	68.41
842.57	67.31
842.875	67.57
843.18	67.25
843.485	67.63
843.79	66.19
844.095	67.32
844.4	68.98
844.705	68.61
845.01	68.35
845.315	68.38
845.619	69.34
845.924	69.65
846.229	69.46
846.533	69.68
846.838	70.61
847.142	71.06
847.447	70.92
847.751	70.93
848.056	69.45
848.36	69.35
848.664	69.5
848.969	71.57
849.273	71.38
849.577	72.2
849.881	71.68
850.185	74.15
850.489	73.34
850.794	71.23
851.097	71.69
851.401	73.5
851.705	73.66
852.009	73.64
852.313	73.18
852.617	72.89
852.92	72.64
853.224	72.57
853.528	72.08
853.831	72.18
854.135	75.89
854.438	75.42
854.742	77.59
855.045	77.37
855.349	76.44
855.652	77.77
855.955	79.57
856.259	82.56
856.562	81.59
856.865	80.83
857.168	80.49
857.471	76.61
857.774	75.92
858.077	76.67
858.38	75.78
858.683	78.15
858.986	79.13
859.289	79.98
859.592	80.01
859.894	82.05
860.197	81.95
860.5	78.03
860.802	77.23
861.105	74.17
861.407	71.37
861.71	68.89
862.012	64.19
862.315	62.94
862.617	62.51
862.919	63.45
863.222	63.56
863.524	62.11
863.826	64.35
864.128	65.64
864.43	67.06
864.732	66.74
865.034	66.85
865.336	65.06
865.638	65.85
865.94	64.97
866.242	62.81
866.544	63.1
866.846	62.38
867.147	64.87
867.449	65.14
867.751	66.71
868.052	68.66
868.354	71.14
868.655	69.81
868.957	70.08
869.258	66.69
869.56	67.05
869.861	69.97
870.162	71.23
870.463	68.39
870.765	67.05
871.066	66.86
871.367	66.45
871.668	69.12
871.969	67.14
872.27	68.15
872.571	70.47
872.872	71.29
873.173	70.48
873.473	67.12
873.774	69.72
874.075	71.55
874.376	71.2
874.676	71.96
874.977	72.17
875.277	70.82
875.578	71.52
875.878	72.95
876.179	72.41
876.479	71.29
876.78	72.71
877.08	73.28
877.38	73.61
877.68	72.01
877.981	68.45
878.281	69.09
878.581	69.34
