Data from BU57649_Reflection_00006.txt Node
Date: Tue Nov 19 10:55:39 EST 2019
User: vgr7
Spectrometer: USB2G7710
Scans to average: 3
Trigger mode: 4
Integration Time (sec): 2.000000E-2
Electric dark correction enabled: true
Boxcar width: 10
XAxis mode: Wavelengths
Number of Pixels in Spectrum: 2048
>>>>>Begin Spectral Data<<<<<
177.721	-22.35
178.105	-27.93
178.488	-18.92
178.871	-8.16
179.254	5.76
179.636	21.4
180.019	16.03
180.402	-66.67
180.785	270.59
181.168	10475
181.55	-400
181.933	256.8
182.316	262.58
182.698	-172.04
183.081	-116.71
183.463	-37.67
183.846	-18.58
184.228	-32.55
184.611	-21.76
184.993	-10.48
185.376	-7.62
185.758	-7.41
186.14	-8.47
186.522	-10.53
186.904	-10.2
187.287	-14.74
187.669	-14.8
188.051	-12.29
188.433	-19.53
188.815	-15.22
189.197	-14.84
189.579	-8.34
189.961	-13.64
190.342	-12.17
190.724	-12.34
191.106	-14.54
191.488	-14.01
191.869	-18.54
192.251	-23.3
192.633	-25.76
193.014	-24.54
193.396	-43.12
193.777	-48.48
194.159	-45.35
194.54	-33.01
194.922	-36.31
195.303	-21.26
195.684	-17.51
196.065	-29.38
196.447	-25.69
196.828	-37.02
197.209	-17.83
197.59	-27.93
197.971	-27.96
198.352	-37.09
198.733	-40.37
199.114	-40.78
199.495	-40.94
199.876	-45.17
200.257	-39.74
200.638	-36.33
201.018	-41.23
201.399	-34.91
201.78	-36.25
202.16	-42.5
202.541	-44.63
202.922	-36.7
203.302	-38.5
203.683	-38.32
204.063	-37.08
204.444	-27.71
204.824	-21.25
205.204	-21.16
205.585	-22.74
205.965	-20.06
206.345	-7.32
206.725	-0.36
207.106	0.1
207.486	1.68
207.866	0.82
208.246	0.09
208.626	-0.82
209.006	2.84
209.386	6.5
209.766	7.23
210.145	14.97
210.525	20.25
210.905	20.65
211.285	18.59
211.664	19.46
212.044	13.35
212.424	10.37
212.803	4.1
213.183	5.8
213.562	10.35
213.942	11.52
214.321	6.15
214.701	-1.96
215.08	1.05
215.459	-12.09
215.838	-9
216.218	-15.25
216.597	-5.29
216.976	-6.76
217.355	-4.73
217.734	-13.77
218.113	-7.67
218.492	-12.8
218.871	-18.37
219.25	-23.33
219.629	-34.02
220.008	-15.24
220.387	-13.08
220.766	-6.92
221.144	-22.08
221.523	-37.99
221.902	-22.16
222.28	-21.34
222.659	-12.34
223.037	-9.79
223.416	-4.92
223.794	-4.39
224.173	-2.54
224.551	-3.36
224.929	-6.07
225.308	-2.34
225.686	4.36
226.064	1.25
226.442	3.91
226.821	4.63
227.199	5.95
227.577	9.14
227.955	6.73
228.333	5.45
228.711	4.73
229.089	7.45
229.467	11.09
229.845	9.26
230.222	8.33
230.6	9.59
230.978	11.07
231.356	13.24
231.733	14.21
232.111	14.01
232.488	13.38
232.866	15.3
233.243	13.58
233.621	12.85
233.998	12.97
234.376	12.54
234.753	12.1
235.13	12.28
235.508	12.65
235.885	13.67
236.262	14.11
236.639	13.91
237.016	13.64
237.393	12.75
237.77	12.55
238.147	11.28
238.524	10.12
238.901	9.17
239.278	7.9
239.655	7.79
240.032	7.7
240.409	8.06
240.785	7.43
241.162	7.35
241.539	6.84
241.915	6.05
242.292	5.77
242.668	5.87
243.045	5.65
243.421	5.44
243.798	5.29
244.174	5.04
244.551	4.85
244.927	4.91
245.303	4.5
245.679	4.31
246.056	4.31
246.432	4.22
246.808	4.1
247.184	4.38
247.56	4.36
247.936	4.46
248.312	4.3
248.688	4.34
249.064	4.17
249.44	4.23
249.815	4.35
250.191	4.35
250.567	4.41
250.943	4.43
251.318	4.27
251.694	4.06
252.069	3.98
252.445	4.17
252.82	3.99
253.196	4.1
253.571	4.05
253.947	4.26
254.322	4.17
254.697	4.06
255.073	3.96
255.448	3.78
255.823	3.83
256.198	3.78
256.573	3.74
256.948	3.7
257.323	3.54
257.698	3.69
258.073	3.76
258.448	3.71
258.823	3.76
259.198	3.86
259.573	3.84
259.948	3.94
260.322	3.91
260.697	4.13
261.072	4.28
261.446	4.33
261.821	4.35
262.195	4.37
262.57	4.43
262.944	4.23
263.319	4.15
263.693	3.95
264.067	4
264.442	3.9
264.816	3.85
265.19	3.88
265.564	3.9
265.938	3.87
266.313	3.81
266.687	3.87
267.061	3.89
267.435	4.11
267.809	3.96
268.183	3.94
268.556	3.75
268.93	3.61
269.304	3.52
269.678	3.54
270.051	3.57
270.425	3.5
270.799	3.6
271.172	3.77
271.546	4.03
271.919	3.96
272.293	4.09
272.666	4.26
273.04	4.36
273.413	4.4
273.787	4.39
274.16	4.47
274.533	4.38
274.906	4.27
275.279	4.13
275.653	4.18
276.026	4.2
276.399	4.27
276.772	4.49
277.145	4.47
277.518	4.4
277.891	4.16
278.263	4.34
278.636	4.37
279.009	4.26
279.382	3.9
279.755	3.94
280.127	3.88
280.5	3.82
280.872	3.87
281.245	3.77
281.617	3.84
281.99	3.82
282.362	3.76
282.735	3.85
283.107	3.81
283.479	3.88
283.852	3.9
284.224	3.92
284.596	3.78
284.968	3.89
285.34	3.85
285.713	4.1
286.085	3.9
286.457	3.83
286.829	3.81
287.201	4.02
287.572	3.97
287.944	4.02
288.316	4.12
288.688	4.22
289.06	4.1
289.431	4.11
289.803	4.11
290.175	4.11
290.546	4.05
290.918	4.17
291.289	4.01
291.661	3.95
292.032	3.82
292.403	3.84
292.775	3.85
293.146	3.95
293.517	3.81
293.889	3.92
294.26	3.94
294.631	3.98
295.002	3.94
295.373	3.88
295.744	3.89
296.115	3.79
296.486	3.63
296.857	3.8
297.228	3.7
297.599	3.67
297.97	3.84
298.34	3.91
298.711	3.77
299.082	3.83
299.452	3.95
299.823	3.95
300.194	3.99
300.564	3.93
300.935	3.93
301.305	3.96
301.676	4
302.046	4.06
302.416	4.12
302.787	4.18
303.157	4.33
303.527	4.21
303.897	4.19
304.267	4.15
304.637	3.97
305.008	4.01
305.378	4.09
305.748	3.95
306.117	3.84
306.487	4.01
306.857	4.1
307.227	4.12
307.597	4.11
307.967	4.05
308.336	4.14
308.706	4.18
309.076	4.31
309.445	4.34
309.815	4.29
310.184	4.2
310.554	4.16
310.923	3.88
311.293	4.02
311.662	4.15
312.031	4.13
312.401	4.2
312.77	4.08
313.139	4.04
313.508	3.87
313.877	3.89
314.246	3.77
314.616	3.77
314.985	3.67
315.353	3.69
315.722	3.75
316.091	3.64
316.46	3.46
316.829	3.3
317.198	3.33
317.567	3.42
317.935	3.43
318.304	3.38
318.672	3.72
319.041	3.67
319.41	3.46
319.778	3.6
320.147	3.63
320.515	3.87
320.883	3.87
321.252	4.12
321.62	4.14
321.988	4.23
322.357	4.06
322.725	4.15
323.093	4.11
323.461	4
323.829	4.04
324.197	4.15
324.565	4.24
324.933	4.09
325.301	4.04
325.669	4.1
326.037	4.14
326.405	4.05
326.772	4
327.14	4.03
327.508	3.91
327.875	3.78
328.243	3.71
328.61	3.6
328.978	3.46
329.346	3.36
329.713	3.28
330.08	3.42
330.448	3.31
330.815	3.36
331.182	3.22
331.55	3.22
331.917	3.26
332.284	3.15
332.651	3.2
333.018	3.25
333.385	3.14
333.752	3.16
334.119	3.17
334.486	3.21
334.853	3.1
335.22	3.11
335.587	3.13
335.954	3.15
336.32	3.28
336.687	3.3
337.054	3.32
337.42	3.39
337.787	3.29
338.153	3.19
338.52	3.25
338.886	3.49
339.253	3.41
339.619	3.28
339.986	3.32
340.352	3.34
340.718	3.27
341.084	3.29
341.451	3.25
341.817	3.21
342.183	3.15
342.549	3.27
342.915	3.37
343.281	3.42
343.647	3.43
344.013	3.37
344.379	3.39
344.745	3.52
345.11	3.52
345.476	3.62
345.842	3.67
346.208	3.64
346.573	3.55
346.939	3.61
347.304	3.66
347.67	3.63
348.035	3.61
348.401	3.64
348.766	3.59
349.132	3.59
349.497	3.62
349.862	3.69
350.228	3.71
350.593	3.71
350.958	3.73
351.323	3.72
351.688	3.68
352.053	3.69
352.418	3.55
352.783	3.48
353.148	3.43
353.513	3.45
353.878	3.38
354.243	3.33
354.608	3.41
354.972	3.39
355.337	3.42
355.702	3.42
356.066	3.37
356.431	3.43
356.795	3.45
357.16	3.38
357.524	3.38
357.889	3.3
358.253	3.29
358.618	3.21
358.982	3.21
359.346	3.23
359.71	3.22
360.075	3.28
360.439	3.33
360.803	3.33
361.167	3.31
361.531	3.37
361.895	3.37
362.259	3.3
362.623	3.33
362.987	3.32
363.351	3.3
363.714	3.33
364.078	3.35
364.442	3.29
364.806	3.31
365.169	3.28
365.533	3.33
365.896	3.34
366.26	3.35
366.623	3.39
366.987	3.41
367.35	3.47
367.714	3.44
368.077	3.36
368.44	3.31
368.803	3.3
369.167	3.23
369.53	3.25
369.893	3.25
370.256	3.25
370.619	3.22
370.982	3.24
371.345	3.25
371.708	3.25
372.071	3.26
372.434	3.32
372.797	3.33
373.159	3.31
373.522	3.24
373.885	3.28
374.247	3.2
374.61	3.14
374.973	3.13
375.335	3.12
375.698	3.15
376.06	3.19
376.423	3.17
376.785	3.24
377.147	3.23
377.51	3.27
377.872	3.25
378.234	3.31
378.596	3.3
378.958	3.32
379.321	3.3
379.683	3.32
380.045	3.3
380.407	3.31
380.769	3.34
381.13	3.4
381.492	3.4
381.854	3.39
382.216	3.45
382.578	3.42
382.939	3.43
383.301	3.43
383.663	3.43
384.024	3.43
384.386	3.39
384.747	3.37
385.109	3.35
385.47	3.35
385.832	3.32
386.193	3.28
386.554	3.21
386.916	3.19
387.277	3.14
387.638	3.14
387.999	3.16
388.36	3.14
388.721	3.13
389.082	3.1
389.443	3.14
389.804	3.14
390.165	3.16
390.526	3.15
390.887	3.17
391.248	3.13
391.609	3.15
391.969	3.18
392.33	3.18
392.691	3.18
393.051	3.15
393.412	3.17
393.772	3.2
394.133	3.23
394.493	3.24
394.854	3.27
395.214	3.29
395.574	3.27
395.935	3.29
396.295	3.31
396.655	3.32
397.015	3.32
397.376	3.3
397.736	3.25
398.096	3.24
398.456	3.24
398.816	3.24
399.176	3.2
399.535	3.16
399.895	3.18
400.255	3.15
400.615	3.2
400.975	3.18
401.334	3.18
401.694	3.17
402.054	3.2
402.413	3.19
402.773	3.17
403.132	3.16
403.492	3.14
403.851	3.12
404.211	3.1
404.57	3.11
404.929	3.1
405.288	3.12
405.648	3.12
406.007	3.13
406.366	3.14
406.725	3.17
407.084	3.18
407.443	3.18
407.802	3.21
408.161	3.19
408.52	3.19
408.879	3.2
409.238	3.21
409.596	3.17
409.955	3.16
410.314	3.14
410.673	3.16
411.031	3.15
411.39	3.19
411.748	3.21
412.107	3.2
412.465	3.2
412.824	3.18
413.182	3.2
413.54	3.23
413.899	3.2
414.257	3.18
414.615	3.17
414.974	3.17
415.332	3.17
415.69	3.13
416.048	3.15
416.406	3.1
416.764	3.09
417.122	3.09
417.48	3.09
417.838	3.09
418.195	3.09
418.553	3.1
418.911	3.07
419.269	3.08
419.626	3.07
419.984	3.08
420.342	3.1
420.699	3.1
421.057	3.07
421.414	3.08
421.772	3.09
422.129	3.09
422.486	3.09
422.844	3.08
423.201	3.09
423.558	3.07
423.915	3.09
424.273	3.09
424.63	3.1
424.987	3.11
425.344	3.12
425.701	3.12
426.058	3.11
426.415	3.1
426.772	3.09
427.128	3.1
427.485	3.09
427.842	3.08
428.199	3.07
428.555	3.09
428.912	3.09
429.269	3.08
429.625	3.08
429.982	3.08
430.338	3.1
430.695	3.08
431.051	3.1
431.407	3.09
431.764	3.09
432.12	3.09
432.476	3.09
432.832	3.08
433.189	3.06
433.545	3.08
433.901	3.08
434.257	3.07
434.613	3.06
434.969	3.05
435.325	3.07
435.681	3.08
436.036	3.06
436.392	3.07
436.748	3.07
437.104	3.08
437.459	3.08
437.815	3.06
438.171	3.05
438.526	3.04
438.882	3.05
439.237	3.05
439.593	3.04
439.948	3.04
440.304	3.04
440.659	3.04
441.014	3.03
441.369	3.03
441.725	3.03
442.08	3.02
442.435	3.03
442.79	3.01
443.145	3.03
443.5	3.02
443.855	3.01
444.21	3.01
444.565	3.02
444.92	3.02
445.275	3.03
445.629	3.04
445.984	3.04
446.339	3.04
446.693	3.04
447.048	3.03
447.403	3.02
447.757	3.03
448.112	3.04
448.466	3.05
448.82	3.06
449.175	3.06
449.529	3.06
449.883	3.05
450.238	3.07
450.592	3.06
450.946	3.08
451.3	3.09
451.654	3.1
452.008	3.09
452.362	3.07
452.716	3.08
453.07	3.08
453.424	3.09
453.778	3.08
454.132	3.07
454.486	3.07
454.839	3.08
455.193	3.07
455.547	3.08
455.9	3.05
456.254	3.05
456.607	3.07
456.961	3.07
457.314	3.06
457.668	3.06
458.021	3.05
458.375	3.04
458.728	3.05
459.081	3.04
459.434	3.06
459.787	3.07
460.141	3.08
460.494	3.07
460.847	3.06
461.2	3.07
461.553	3.08
461.906	3.09
462.259	3.09
462.611	3.1
462.964	3.11
463.317	3.11
463.67	3.13
464.022	3.13
464.375	3.14
464.728	3.13
465.08	3.11
465.433	3.09
465.785	3.1
466.138	3.1
466.49	3.11
466.843	3.09
467.195	3.08
467.547	3.07
467.899	3.09
468.252	3.09
468.604	3.1
468.956	3.12
469.308	3.08
469.66	3.11
470.012	3.11
470.364	3.11
470.716	3.1
471.068	3.09
471.42	3.1
471.772	3.11
472.123	3.14
472.475	3.14
472.827	3.16
473.178	3.13
473.53	3.13
473.882	3.14
474.233	3.16
474.585	3.16
474.936	3.16
475.288	3.15
475.639	3.14
475.99	3.13
476.342	3.12
476.693	3.14
477.044	3.13
477.395	3.11
477.746	3.12
478.097	3.13
478.448	3.12
478.8	3.12
479.15	3.11
479.501	3.1
479.852	3.09
480.203	3.1
480.554	3.12
480.905	3.13
481.255	3.13
481.606	3.12
481.957	3.12
482.307	3.13
482.658	3.13
483.009	3.14
483.359	3.15
483.709	3.14
484.06	3.15
484.41	3.15
484.761	3.15
485.111	3.15
485.461	3.16
485.811	3.17
486.162	3.17
486.512	3.18
486.862	3.18
487.212	3.19
487.562	3.19
487.912	3.19
488.262	3.19
488.612	3.19
488.961	3.19
489.311	3.18
489.661	3.2
490.011	3.19
490.36	3.18
490.71	3.17
491.06	3.17
491.409	3.17
491.759	3.18
492.108	3.17
492.458	3.17
492.807	3.17
493.157	3.15
493.506	3.14
493.855	3.13
494.204	3.12
494.554	3.12
494.903	3.12
495.252	3.12
495.601	3.12
495.95	3.13
496.299	3.12
496.648	3.15
496.997	3.13
497.346	3.16
497.695	3.17
498.043	3.18
498.392	3.19
498.741	3.2
499.09	3.18
499.438	3.18
499.787	3.18
500.135	3.19
500.484	3.22
500.832	3.23
501.181	3.25
501.529	3.28
501.878	3.3
502.226	3.31
502.574	3.31
502.923	3.31
503.271	3.3
503.619	3.31
503.967	3.3
504.315	3.31
504.663	3.29
505.011	3.3
505.359	3.29
505.707	3.3
506.055	3.29
506.403	3.32
506.751	3.32
507.098	3.33
507.446	3.34
507.794	3.35
508.141	3.35
508.489	3.35
508.837	3.32
509.184	3.33
509.531	3.32
509.879	3.33
510.226	3.34
510.574	3.36
510.921	3.37
511.268	3.38
511.616	3.36
511.963	3.37
512.31	3.39
512.657	3.4
513.004	3.39
513.351	3.4
513.698	3.38
514.045	3.4
514.392	3.4
514.739	3.41
515.086	3.4
515.432	3.41
515.779	3.42
516.126	3.43
516.473	3.43
516.819	3.44
517.166	3.46
517.512	3.44
517.859	3.44
518.205	3.43
518.552	3.44
518.898	3.47
519.245	3.48
519.591	3.47
519.937	3.5
520.283	3.49
520.629	3.5
520.976	3.52
521.322	3.54
521.668	3.53
522.014	3.54
522.36	3.55
522.706	3.55
523.052	3.55
523.398	3.57
523.743	3.57
524.089	3.6
524.435	3.59
524.781	3.6
525.126	3.6
525.472	3.61
525.817	3.61
526.163	3.61
526.509	3.62
526.854	3.63
527.199	3.62
527.545	3.64
527.89	3.64
528.235	3.64
528.581	3.64
528.926	3.63
529.271	3.64
529.616	3.63
529.961	3.63
530.306	3.64
530.651	3.63
530.996	3.64
531.341	3.64
531.686	3.65
532.031	3.65
532.376	3.65
532.721	3.66
533.065	3.66
533.41	3.67
533.755	3.66
534.099	3.66
534.444	3.66
534.788	3.65
535.133	3.65
535.477	3.65
535.822	3.64
536.166	3.66
536.51	3.66
536.855	3.68
537.199	3.69
537.543	3.71
537.887	3.72
538.231	3.71
538.576	3.69
538.92	3.69
539.264	3.7
539.608	3.7
539.951	3.69
540.295	3.7
540.639	3.7
540.983	3.71
541.327	3.71
541.671	3.71
542.014	3.71
542.358	3.72
542.701	3.74
543.045	3.74
543.389	3.74
543.732	3.74
544.075	3.73
544.419	3.73
544.762	3.71
545.105	3.72
545.449	3.73
545.792	3.73
546.135	3.73
546.478	3.73
546.821	3.75
547.165	3.74
547.508	3.73
547.851	3.72
548.194	3.71
548.536	3.72
548.879	3.74
549.222	3.74
549.565	3.74
549.908	3.7
550.25	3.7
550.593	3.71
550.936	3.72
551.278	3.72
551.621	3.7
551.963	3.72
552.306	3.7
552.648	3.71
552.991	3.7
553.333	3.71
553.675	3.71
554.017	3.69
554.36	3.71
554.702	3.69
555.044	3.7
555.386	3.72
555.728	3.72
556.07	3.69
556.412	3.7
556.754	3.67
557.096	3.71
557.438	3.69
557.78	3.65
558.121	3.64
558.463	3.63
558.805	3.65
559.147	3.66
559.488	3.67
559.83	3.68
560.171	3.67
560.513	3.69
560.854	3.69
561.196	3.72
561.537	3.69
561.878	3.74
562.22	3.72
562.561	3.73
562.902	3.71
563.243	3.71
563.584	3.7
563.925	3.73
564.266	3.7
564.607	3.74
564.948	3.75
565.289	3.76
565.63	3.77
565.971	3.76
566.312	3.74
566.653	3.73
566.993	3.71
567.334	3.75
567.675	3.72
568.015	3.7
568.356	3.69
568.696	3.69
569.037	3.68
569.377	3.69
569.718	3.68
570.058	3.7
570.398	3.71
570.739	3.71
571.079	3.72
571.419	3.73
571.759	3.7
572.099	3.72
572.439	3.72
572.779	3.72
573.119	3.73
573.459	3.73
573.799	3.72
574.139	3.72
574.479	3.72
574.819	3.74
575.158	3.75
575.498	3.76
575.838	3.77
576.177	3.78
576.517	3.78
576.856	3.77
577.196	3.77
577.535	3.75
577.875	3.74
578.214	3.71
578.553	3.71
578.893	3.73
579.232	3.7
579.571	3.7
579.91	3.69
580.25	3.71
580.589	3.7
580.928	3.7
581.267	3.7
581.606	3.7
581.945	3.69
582.283	3.7
582.622	3.7
582.961	3.7
583.3	3.65
583.639	3.65
583.977	3.64
584.316	3.61
584.654	3.66
584.993	3.67
585.332	3.69
585.67	3.69
586.008	3.72
586.347	3.77
586.685	3.75
587.024	3.78
587.362	3.72
587.7	3.77
588.038	3.82
588.376	3.8
588.715	3.79
589.053	3.78
589.391	3.77
589.729	3.75
590.067	3.76
590.404	3.78
590.742	3.73
591.08	3.78
591.418	3.78
591.756	3.81
592.093	3.81
592.431	3.82
592.769	3.8
593.106	3.77
593.444	3.77
593.781	3.78
594.119	3.77
594.456	3.82
594.793	3.81
595.131	3.8
595.468	3.82
595.805	3.82
596.143	3.85
596.48	3.85
596.817	3.86
597.154	3.87
597.491	3.88
597.828	3.93
598.165	3.9
598.502	3.91
598.839	3.86
599.176	3.87
599.512	3.87
599.849	3.88
600.186	3.89
600.523	3.89
600.859	3.9
601.196	3.9
601.532	3.86
601.869	3.84
602.205	3.82
602.542	3.83
602.878	3.82
603.215	3.78
603.551	3.79
603.887	3.78
604.223	3.75
604.56	3.78
604.896	3.79
605.232	3.82
605.568	3.84
605.904	3.84
606.24	3.85
606.576	3.85
606.912	3.86
607.248	3.86
607.583	3.85
607.919	3.82
608.255	3.84
608.591	3.86
608.926	3.88
609.262	3.89
609.597	3.86
609.933	3.88
610.268	3.92
610.604	3.93
610.939	3.96
611.275	3.96
611.61	3.94
611.945	3.91
612.281	3.91
612.616	3.92
612.951	3.95
613.286	3.93
613.621	3.93
613.956	3.96
614.291	3.96
614.626	3.97
614.961	4
615.296	4.03
615.631	4.06
615.966	4.02
616.3	3.98
616.635	4.05
616.97	4.06
617.304	4.04
617.639	4.05
617.973	4.02
618.308	4.03
618.642	4.08
618.977	4.06
619.311	4.03
619.646	4
619.98	3.94
620.314	3.92
620.648	3.92
620.983	3.84
621.317	3.88
621.651	3.9
621.985	3.9
622.319	3.84
622.653	3.83
622.987	3.84
623.321	3.86
623.655	3.84
623.988	3.83
624.322	3.88
624.656	3.91
624.99	3.95
625.323	3.94
625.657	3.96
625.99	4
626.324	3.99
626.657	3.97
626.991	4.06
627.324	4.08
627.658	4.09
627.991	4.12
628.324	4.07
628.657	4.02
628.991	4.03
629.324	3.99
629.657	3.95
629.99	3.97
630.323	3.96
630.656	3.94
630.989	3.91
631.322	3.9
631.655	3.85
631.987	3.88
632.32	3.91
632.653	3.87
632.986	3.85
633.318	3.89
633.651	3.91
633.984	3.88
634.316	3.89
634.649	3.89
634.981	3.88
635.313	3.86
635.646	3.89
635.978	3.88
636.31	3.93
636.643	3.96
636.975	3.95
637.307	3.97
637.639	3.98
637.971	3.98
638.303	3.95
638.635	3.95
638.967	3.87
639.299	3.85
639.631	3.85
639.963	3.83
640.295	3.79
640.626	3.79
640.958	3.74
641.29	3.77
641.621	3.73
641.953	3.71
642.285	3.74
642.616	3.74
642.948	3.73
643.279	3.68
643.61	3.71
643.942	3.69
644.273	3.65
644.604	3.66
644.936	3.69
645.267	3.72
645.598	3.74
645.929	3.75
646.26	3.7
646.591	3.7
646.922	3.74
647.253	3.76
647.584	3.76
647.915	3.82
648.245	3.84
648.576	3.87
648.907	3.87
649.238	3.85
649.568	3.85
649.899	3.9
650.229	4.01
650.56	4
650.89	4.07
651.221	4.08
651.551	4.11
651.882	4.13
652.212	4.07
652.542	4.09
652.872	4.11
653.203	4.16
653.533	4.19
653.863	4.2
654.193	4.18
654.523	4.22
654.853	4.27
655.183	4.21
655.513	4.27
655.843	4.29
656.172	4.35
656.502	4.41
656.832	4.38
657.162	4.3
657.491	4.36
657.821	4.31
658.15	4.33
658.48	4.29
658.809	4.28
659.139	4.36
659.468	4.3
659.798	4.3
660.127	4.29
660.456	4.23
660.785	4.21
661.115	4.24
661.444	4.31
661.773	4.27
662.102	4.27
662.431	4.19
662.76	4.2
663.089	4.22
663.418	4.19
663.747	4.24
664.076	4.27
664.404	4.28
664.733	4.29
665.062	4.33
665.39	4.31
665.719	4.24
666.048	4.25
666.376	4.28
666.705	4.29
667.033	4.34
667.362	4.38
667.69	4.4
668.018	4.42
668.347	4.27
668.675	4.15
669.003	4.17
669.331	4.3
669.659	4.24
669.987	4.26
670.315	4.3
670.643	4.18
670.971	4.19
671.299	4.13
671.627	4.14
671.955	4.12
672.283	4.22
672.61	4.29
672.938	4.17
673.266	4.14
673.593	4.07
673.921	4
674.249	4.03
674.576	4.04
674.904	3.98
675.231	4.08
675.558	4.18
675.886	4.22
676.213	4.12
676.54	4.15
676.867	4.14
677.195	4.14
677.522	4.18
677.849	4.23
678.176	4.28
678.503	4.23
678.83	4.22
679.157	4.15
679.484	4.1
679.81	4.17
680.137	4.28
680.464	4.32
680.791	4.35
681.117	4.26
681.444	4.16
681.771	4.2
682.097	4.16
682.424	4.13
682.75	4.16
683.077	4.2
683.403	4.3
683.729	4.32
684.056	4.28
684.382	4.26
684.708	4.23
685.034	4.2
685.36	4.25
685.686	4.26
686.012	4.33
686.339	4.38
686.664	4.39
686.99	4.27
687.316	4.31
687.642	4.35
687.968	4.51
688.294	4.69
688.619	4.67
688.945	4.72
689.271	4.83
689.596	4.75
689.922	4.69
690.247	4.55
690.573	4.52
690.898	4.49
691.224	4.59
691.549	4.63
691.874	4.59
692.2	4.51
692.525	4.43
692.85	4.35
693.175	4.36
693.5	4.3
693.825	4.35
694.15	4.32
694.475	4.24
694.8	4.09
695.125	3.95
695.45	3.95
695.775	3.91
696.099	3.9
696.424	3.88
696.749	3.97
697.073	3.98
697.398	3.94
697.723	3.96
698.047	4
698.372	3.97
698.696	3.98
699.02	3.99
699.345	4.11
699.669	4.09
699.993	4.09
700.318	4.14
700.642	4.13
700.966	4.19
701.29	4.14
701.614	4.16
701.938	4.09
702.262	4.12
702.586	4.15
702.91	4.08
703.234	4.03
703.557	4.06
703.881	4.06
704.205	4.09
704.529	4.08
704.852	4
705.176	3.95
705.499	3.94
705.823	3.95
706.146	3.86
706.47	3.97
706.793	4.02
707.117	3.99
707.44	3.93
707.763	3.85
708.086	3.95
708.409	4.03
708.733	4.12
709.056	4.09
709.379	4.06
709.702	4.01
710.025	4.26
710.348	4.17
710.671	4.31
710.993	4.26
711.316	4.28
711.639	4.36
711.962	4.35
712.284	4.34
712.607	4.4
712.93	4.47
713.252	4.38
713.575	4.41
713.897	4.38
714.22	4.41
714.542	4.48
714.864	4.41
715.187	4.51
715.509	4.48
715.831	4.5
716.153	4.6
716.475	4.71
716.798	4.45
717.12	4.48
717.442	4.42
717.764	4.33
718.085	4.36
718.407	4.27
718.729	4.29
719.051	4.38
719.373	4.43
719.695	4.36
720.016	4.38
720.338	4.36
720.659	4.42
720.981	4.49
721.302	4.38
721.624	4.51
721.945	4.49
722.267	4.75
722.588	4.63
722.909	4.47
723.231	4.51
723.552	4.72
723.873	4.66
724.194	4.74
724.515	5.1
724.836	4.99
725.157	5.02
725.478	4.98
725.799	4.92
726.12	4.73
726.441	4.75
726.762	4.89
727.083	4.8
727.403	4.71
727.724	4.83
728.045	4.96
728.365	4.86
728.686	4.85
729.006	4.63
729.327	4.71
729.647	4.77
729.967	4.64
730.288	4.52
730.608	4.63
730.928	4.63
731.249	4.49
731.569	4.53
731.889	4.43
732.209	4.52
732.529	4.59
732.849	4.79
733.169	4.73
733.489	4.63
733.809	4.51
734.129	4.53
734.448	4.49
734.768	4.43
735.088	4.55
735.408	4.59
735.727	4.72
736.047	4.86
736.366	4.88
736.686	5
737.005	5.15
737.325	4.87
737.644	4.67
737.963	4.62
738.283	4.58
738.602	4.87
738.921	4.91
739.24	4.85
739.56	4.86
739.879	4.81
740.198	4.99
740.517	5.04
740.836	5.09
741.155	5.25
741.473	5.23
741.792	5.17
742.111	5.12
742.43	5.23
742.748	5.07
743.067	5.15
743.386	5.08
743.704	5.04
744.023	5.28
744.341	5.5
744.66	5.57
744.978	5.57
745.297	5.42
745.615	5.43
745.933	5.41
746.252	5.26
746.57	5.35
746.888	5.28
747.206	5.29
747.524	5.44
747.842	5.21
748.16	5.42
748.478	5.71
748.796	5.69
749.114	5.55
749.432	5.47
749.749	5.39
750.067	5.33
750.385	5.22
750.703	5.13
751.02	5.24
751.338	4.95
751.655	5.13
751.973	5.16
752.29	4.91
752.608	4.92
752.925	4.99
753.242	5.12
753.56	5.01
753.877	5.05
754.194	5.01
754.511	4.94
754.828	4.49
755.145	4.4
755.462	4.23
755.779	4.14
756.096	4.36
756.413	4.36
756.73	4.68
757.047	4.66
757.364	4.9
757.68	4.69
757.997	5.05
758.314	5.13
758.63	5.08
758.947	5.14
759.264	5.13
759.58	5.23
759.896	5.16
760.213	5.22
760.529	5.4
760.846	5.28
761.162	5.47
761.478	5.72
761.794	5.45
762.11	5.58
762.426	5.47
762.743	5.51
763.059	5.54
763.375	5.27
763.69	5.38
764.006	5.33
764.322	5.34
764.638	5.36
764.954	5.38
765.27	5.46
765.585	5.59
765.901	5.67
766.216	5.73
766.532	5.65
766.848	5.71
767.163	5.67
767.478	5.55
767.794	5.31
768.109	5.25
768.424	5.39
768.74	5.37
769.055	5.62
769.37	5.45
769.685	5.6
770	5.69
770.315	5.83
770.63	6.03
770.945	6.19
771.26	6.08
771.575	5.76
771.89	5.52
772.205	5.79
772.52	5.55
772.834	5.34
773.149	5.59
773.464	5.47
773.778	5.59
774.093	5.9
774.407	6.15
774.722	6.4
775.036	6.5
775.351	6.68
775.665	6.84
775.979	7.01
776.293	6.87
776.608	6.79
776.922	6.83
777.236	6.38
777.55	6.11
777.864	6.18
778.178	6.29
778.492	6.4
778.806	6.32
779.12	6.67
779.434	7
779.747	6.83
780.061	7.02
780.375	7.24
780.689	7.16
781.002	7.25
781.316	7.01
781.629	6.78
781.943	6.43
782.256	6.03
782.57	6.08
782.883	6.16
783.196	6.3
783.51	6.21
783.823	6.56
784.136	6.55
784.449	6.58
784.762	6.59
785.075	6.66
785.388	6.79
785.701	6.8
786.014	6.65
786.327	6.73
786.64	6.71
786.953	6.3
787.266	6.72
787.578	6.48
787.891	6.56
788.204	6.83
788.516	7.26
788.829	7.14
789.141	7.59
789.454	7.35
789.766	7.78
790.079	7.85
790.391	7.64
790.703	7.89
791.016	8.1
791.328	8.48
791.64	8.51
791.952	8.34
792.264	8.05
792.576	8.23
792.888	8.65
793.2	8.68
793.512	8.75
793.824	8.65
794.136	8.95
794.448	8.95
794.76	8.81
795.071	8.2
795.383	8.57
795.695	8.15
796.006	8.22
796.318	8.02
796.629	7.91
796.941	8.31
797.252	8.11
797.564	8.04
797.875	7.75
798.186	7.68
798.497	7.27
798.809	7.57
799.12	6.84
799.431	6.11
799.742	6.02
800.053	5.82
800.364	5.87
800.675	5.64
800.986	5.98
801.297	6.19
801.608	6.43
801.918	6.41
802.229	6.61
802.54	6.63
802.851	5.96
803.161	5.29
803.472	4.8
803.782	4.89
804.093	4.51
804.403	4.32
804.714	4.33
805.024	4.44
805.334	4.42
805.645	5.02
805.955	5.64
806.265	5.54
806.575	5.3
806.885	5.41
807.195	5.89
807.505	5.6
807.815	5.31
808.125	5.03
808.435	5.47
808.745	5.08
809.055	5.14
809.365	6.38
809.674	7.34
809.984	7.43
810.294	7.51
810.603	7.88
810.913	8.44
811.222	8.71
811.532	9.6
811.841	9.53
812.151	8.89
812.46	8.28
812.769	8.62
813.079	9.51
813.388	9.1
813.697	8.18
814.006	8.53
814.315	8.69
814.624	9.85
814.933	9.44
815.242	9.76
815.551	9.56
815.86	8.71
816.169	8.2
816.478	8.32
816.786	7.8
817.095	7.22
817.404	7.18
817.712	6.88
818.021	5.94
818.33	5.94
818.638	6.19
818.947	6.61
819.255	6.43
819.563	6.17
819.872	5.86
820.18	6.15
820.488	6.04
820.796	6.16
821.105	5.99
821.413	6.25
821.721	6.15
822.029	6.3
822.337	6.38
822.645	6.45
822.953	6.41
823.26	6.59
823.568	6.64
823.876	6.65
824.184	6.62
824.491	6.6
824.799	6.71
825.107	6.77
825.414	6.86
825.722	6.78
826.029	6.87
826.337	7.11
826.644	7.19
826.951	7.18
827.259	7.03
827.566	6.94
827.873	6.79
828.18	6.78
828.488	6.72
828.795	6.62
829.102	6.46
829.409	6.48
829.716	6.6
830.023	6.35
830.329	6.2
830.636	6.14
830.943	5.82
831.25	5.38
831.557	5.34
831.863	5.02
832.17	5.13
832.476	4.74
832.783	4.68
833.089	4.71
833.396	4.64
833.702	4.76
834.009	5.07
834.315	4.77
834.621	4.75
834.928	4.67
835.234	4.59
835.54	4.48
835.846	4.66
836.152	4.28
836.458	4.45
836.764	4.71
837.07	4.84
837.376	5.6
837.682	5.66
837.988	5.48
838.293	5.49
838.599	5.32
838.905	5.62
839.211	5.43
839.516	5.3
839.822	5.42
840.127	5.86
840.433	6.03
840.738	6.95
841.044	7.36
841.349	7.55
841.654	7.6
841.959	8.66
842.265	8.3
842.57	9.05
842.875	9.78
843.18	8.99
843.485	8.91
843.79	8.43
844.095	9.08
844.4	9.64
844.705	10.24
845.01	10.83
845.315	10.5
845.619	11.13
845.924	10.23
846.229	9.75
846.533	9.58
846.838	7.47
847.142	6.35
847.447	6.6
847.751	6.72
848.056	7.07
848.36	6
848.664	6.31
848.969	6.34
849.273	4.94
849.577	5.28
849.881	7.4
850.185	7.48
850.489	8
850.794	9.24
851.097	7.59
851.401	7.22
851.705	8.04
852.009	8.74
852.313	10.13
852.617	10.56
852.92	12.04
853.224	14.46
853.528	16.22
853.831	15.49
854.135	16.66
854.438	16.11
854.742	18.88
855.045	17.54
855.349	16.91
855.652	18.9
855.955	19.05
856.259	18.65
856.562	18.87
856.865	17.43
857.168	17.56
857.471	19.69
857.774	20.28
858.077	21.36
858.38	19.09
858.683	18.89
858.986	19.11
859.289	16.58
859.592	16.36
859.894	14.46
860.197	15.07
860.5	14.91
860.802	15.37
861.105	14.63
861.407	15.79
861.71	16.84
862.012	17.51
862.315	16.36
862.617	14.06
862.919	13.33
863.222	13.37
863.524	12.36
863.826	10.83
864.128	10.35
864.43	10.38
864.732	8.41
865.034	8.25
865.336	7.18
865.638	8.63
865.94	8.67
866.242	8.12
866.544	9.42
866.846	10.31
867.147	12.02
867.449	12.06
867.751	12.35
868.052	10.07
868.354	8.43
868.655	11.8
868.957	12.18
869.258	12.78
869.56	13.15
869.861	12
870.162	11.07
870.463	12.41
870.765	12.36
871.066	13.65
871.367	10.61
871.668	11.39
871.969	10.34
872.27	9.53
872.571	9.28
872.872	7.23
873.173	3.6
873.473	2.19
873.774	0.7
874.075	1.91
874.376	2.46
874.676	3.41
874.977	2.18
875.277	3
875.578	3.55
875.878	3.64
876.179	3.42
876.479	4.6
876.78	2.83
877.08	1.03
877.38	1.81
877.68	5.04
877.981	5.36
878.281	5.72
878.581	6.31
