Data from BU57652_Reflection_00015.txt Node
Date: Tue Nov 19 10:43:32 EST 2019
User: vgr7
Spectrometer: USB2G7710
Scans to average: 3
Trigger mode: 4
Integration Time (sec): 2.000000E-2
Electric dark correction enabled: true
Boxcar width: 10
XAxis mode: Wavelengths
Number of Pixels in Spectrum: 2048
>>>>>Begin Spectral Data<<<<<
177.721	57.9
178.105	45.26
178.488	-23.64
178.871	17.89
179.254	90.32
179.636	64.53
180.019	67.12
180.402	70.83
180.785	183.61
181.168	49.32
181.55	446.15
181.933	-330.69
182.316	-697.87
182.698	-207.53
183.081	-151.45
183.463	-268.26
183.846	-93.78
184.228	-122.77
184.611	29.98
184.993	5.18
185.376	-22.01
185.758	-30.13
186.14	-22.36
186.522	-16.25
186.904	-10.53
187.287	-8.25
187.669	-5.73
188.051	-5.7
188.433	-16.74
188.815	-17.44
189.197	-19.63
189.579	-9.38
189.961	2.91
190.342	9.11
190.724	9.53
191.106	-5.27
191.488	-3.13
191.869	-5.46
192.251	-0.93
192.633	-6.89
193.014	2.55
193.396	16.23
193.777	22.07
194.159	17.87
194.54	4.92
194.922	2.71
195.303	0.74
195.684	-8.23
196.065	-2.43
196.447	-4.59
196.828	-14.64
197.209	7.28
197.59	-2.29
197.971	-2.72
198.352	7.77
198.733	-0.22
199.114	10.97
199.495	15.15
199.876	13.22
200.257	-6.46
200.638	0.12
201.018	-9.07
201.399	0.46
201.78	-7.32
202.16	-12.88
202.541	-10.86
202.922	-9.23
203.302	5.06
203.683	7.51
204.063	14.39
204.444	5.27
204.824	12.06
205.204	0.09
205.585	10.44
205.965	8.13
206.345	2.03
206.725	6.86
207.106	8.6
207.486	-4.01
207.866	8.94
208.246	28.38
208.626	-3.79
209.006	-26.75
209.386	-38.22
209.766	-45.99
210.145	-44.26
210.525	-8.28
210.905	-16.3
211.285	-6.73
211.664	3.53
212.044	-29.33
212.424	-2.79
212.803	-26.09
213.183	-25.56
213.562	-19.86
213.942	-10.82
214.321	-21.96
214.701	-23.73
215.08	-30.68
215.459	-20.31
215.838	-29.69
216.218	-42.37
216.597	-18.97
216.976	3.14
217.355	-4.58
217.734	-11.58
218.113	-9.71
218.492	-21.41
218.871	-15.7
219.25	-26.31
219.629	-28.14
220.008	-26.73
220.387	-29.28
220.766	-10.46
221.144	-14.54
221.523	-10.72
221.902	-12.6
222.28	-5.38
222.659	7.46
223.037	8.3
223.416	16.47
223.794	23.95
224.173	34
224.551	25.86
224.929	3.11
225.308	10.49
225.686	8.45
226.064	6.19
226.442	10.89
226.821	10.38
227.199	10.85
227.577	11.17
227.955	12.2
228.333	9.02
228.711	7.95
229.089	6.91
229.467	3.45
229.845	3.48
230.222	6.14
230.6	1.73
230.978	5.09
231.356	1.29
231.733	-0.39
232.111	-2.76
232.488	-0.92
232.866	3.76
233.243	3.19
233.621	5.31
233.998	5.09
234.376	6.88
234.753	4.96
235.13	4.15
235.508	4.48
235.885	5.41
236.262	4.52
236.639	3.39
237.016	3.28
237.393	4.8
237.77	5.35
238.147	4.24
238.524	4.74
238.901	3.86
239.278	4.2
239.655	4.86
240.032	4.82
240.409	4.55
240.785	3.74
241.162	3.62
241.539	3.64
241.915	3.95
242.292	3.51
242.668	4.35
243.045	5
243.421	5.16
243.798	5.58
244.174	6.05
244.551	5.95
244.927	6.03
245.303	5.62
245.679	5.56
246.056	5.54
246.432	5.41
246.808	5.62
247.184	5.57
247.56	5.36
247.936	5.34
248.312	5.36
248.688	5.47
249.064	5.48
249.44	5.4
249.815	5.6
250.191	5.62
250.567	5.38
250.943	5.27
251.318	5.12
251.694	4.68
252.069	4.37
252.445	4.25
252.82	4.62
253.196	4.88
253.571	4.47
253.947	4.47
254.322	4.25
254.697	4.2
255.073	4.47
255.448	4.63
255.823	4.98
256.198	4.75
256.573	4.84
256.948	4.93
257.323	5.29
257.698	5.09
258.073	5.08
258.448	5.17
258.823	5
259.198	5.04
259.573	4.99
259.948	5.07
260.322	5.25
260.697	5.02
261.072	4.99
261.446	5.16
261.821	5.16
262.195	5.35
262.57	5.26
262.944	5.26
263.319	5.1
263.693	4.91
264.067	5.16
264.442	5.17
264.816	5.05
265.19	4.82
265.564	4.7
265.938	4.89
266.313	4.68
266.687	4.74
267.061	4.63
267.435	4.62
267.809	4.29
268.183	4.1
268.556	4.05
268.93	4.15
269.304	4.05
269.678	4.11
270.051	3.93
270.425	3.87
270.799	3.61
271.172	3.73
271.546	3.64
271.919	3.56
272.293	3.52
272.666	3.54
273.04	3.63
273.413	3.8
273.787	3.63
274.16	3.62
274.533	3.75
274.906	3.68
275.279	3.71
275.653	3.97
276.026	3.87
276.399	3.92
276.772	3.86
277.145	3.9
277.518	3.72
277.891	3.89
278.263	4.06
278.636	4.28
279.009	4.38
279.382	4.58
279.755	4.54
280.127	4.4
280.5	4.26
280.872	4.15
281.245	4.07
281.617	4.1
281.99	4.26
282.362	4.12
282.735	4.31
283.107	4.2
283.479	4.29
283.852	4.39
284.224	4.43
284.596	4.34
284.968	4.41
285.34	4.52
285.713	4.52
286.085	4.41
286.457	4.37
286.829	4.39
287.201	4.41
287.572	4.4
287.944	4.53
288.316	4.62
288.688	4.63
289.06	4.65
289.431	4.68
289.803	4.69
290.175	4.65
290.546	4.59
290.918	4.87
291.289	4.76
291.661	4.76
292.032	4.72
292.403	4.92
292.775	4.95
293.146	5.11
293.517	5.2
293.889	5.26
294.26	5.31
294.631	5.38
295.002	5.33
295.373	5.46
295.744	5.53
296.115	5.64
296.486	5.77
296.857	5.87
297.228	5.84
297.599	5.98
297.97	6.16
298.34	6.34
298.711	6.31
299.082	6.47
299.452	6.53
299.823	6.59
300.194	6.57
300.564	6.5
300.935	6.46
301.305	6.56
301.676	6.71
302.046	6.86
302.416	6.91
302.787	6.96
303.157	6.95
303.527	6.99
303.897	7.06
304.267	7.1
304.637	7.26
305.008	7.51
305.378	7.7
305.748	7.82
306.117	7.7
306.487	7.93
306.857	8.02
307.227	8.3
307.597	8.5
307.967	8.61
308.336	8.83
308.706	9
309.076	9.04
309.445	9.25
309.815	9.42
310.184	9.5
310.554	9.81
310.923	9.84
311.293	9.98
311.662	10.1
312.031	10.21
312.401	10.21
312.77	10.23
313.139	10.11
313.508	10.17
313.877	10.44
314.246	10.54
314.616	10.64
314.985	10.79
315.353	10.98
315.722	11.26
316.091	11.48
316.46	11.67
316.829	11.86
317.198	11.89
317.567	12.09
317.935	12.14
318.304	12.16
318.672	12.45
319.041	12.6
319.41	12.62
319.778	12.89
320.147	13.19
320.515	13.38
320.883	13.5
321.252	13.71
321.62	13.71
321.988	13.67
322.357	13.87
322.725	13.83
323.093	13.88
323.461	13.94
323.829	13.91
324.197	13.82
324.565	13.99
324.933	13.88
325.301	13.8
325.669	13.85
326.037	13.99
326.405	14.03
326.772	14.02
327.14	14.17
327.508	14.11
327.875	14.05
328.243	14
328.61	14.18
328.978	14.11
329.346	14.29
329.713	14.49
330.08	14.54
330.448	14.61
330.815	14.61
331.182	14.5
331.55	14.59
331.917	14.71
332.284	14.68
332.651	14.88
333.018	14.8
333.385	14.88
333.752	14.99
334.119	15.11
334.486	15.17
334.853	15.25
335.22	15.31
335.587	15.41
335.954	15.52
336.32	15.56
336.687	15.7
337.054	15.71
337.42	15.69
337.787	15.57
338.153	15.59
338.52	15.55
338.886	15.65
339.253	15.73
339.619	15.79
339.986	15.82
340.352	15.82
340.718	16.1
341.084	16.18
341.451	16.01
341.817	15.97
342.183	16.03
342.549	16.06
342.915	16.12
343.281	16.13
343.647	16.18
344.013	16.13
344.379	16.18
344.745	16.11
345.11	16.06
345.476	16.16
345.842	16.21
346.208	16.41
346.573	16.48
346.939	16.53
347.304	16.56
347.67	16.58
348.035	16.64
348.401	16.52
348.766	16.5
349.132	16.73
349.497	16.82
349.862	16.8
350.228	16.74
350.593	16.66
350.958	16.64
351.323	16.59
351.688	16.59
352.053	16.51
352.418	16.63
352.783	16.66
353.148	16.63
353.513	16.54
353.878	16.36
354.243	16.34
354.608	16.35
354.972	16.32
355.337	16.35
355.702	16.24
356.066	16.25
356.431	16.22
356.795	16.08
357.16	16.05
357.524	16.07
357.889	16
358.253	15.91
358.618	15.95
358.982	15.89
359.346	15.9
359.71	15.85
360.075	15.76
360.439	15.73
360.803	15.72
361.167	15.63
361.531	15.65
361.895	15.52
362.259	15.43
362.623	15.39
362.987	15.27
363.351	15.26
363.714	15.24
364.078	15.19
364.442	15.11
364.806	15.04
365.169	14.89
365.533	14.84
365.896	14.87
366.26	14.59
366.623	14.54
366.987	14.38
367.35	14.33
367.714	14.24
368.077	14.14
368.44	14.01
368.803	13.91
369.167	13.75
369.53	13.67
369.893	13.51
370.256	13.39
370.619	13.25
370.982	13.11
371.345	12.93
371.708	12.88
372.071	12.79
372.434	12.65
372.797	12.57
373.159	12.42
373.522	12.28
373.885	12.26
374.247	12.1
374.61	12.03
374.973	11.94
375.335	11.8
375.698	11.65
376.06	11.47
376.423	11.36
376.785	11.27
377.147	11.21
377.51	11.06
377.872	10.96
378.234	10.93
378.596	10.85
378.958	10.76
379.321	10.65
379.683	10.5
380.045	10.38
380.407	10.28
380.769	10.19
381.13	10.06
381.492	9.96
381.854	9.88
382.216	9.73
382.578	9.59
382.939	9.49
383.301	9.39
383.663	9.35
384.024	9.34
384.386	9.28
384.747	9.15
385.109	9.1
385.47	9.03
385.832	8.9
386.193	8.82
386.554	8.69
386.916	8.58
387.277	8.46
387.638	8.39
387.999	8.33
388.36	8.3
388.721	8.25
389.082	8.15
389.443	8.11
389.804	8.06
390.165	7.98
390.526	7.93
390.887	7.87
391.248	7.8
391.609	7.73
391.969	7.67
392.33	7.61
392.691	7.53
393.051	7.46
393.412	7.38
393.772	7.34
394.133	7.3
394.493	7.22
394.854	7.18
395.214	7.11
395.574	7.04
395.935	6.95
396.295	6.87
396.655	6.82
397.015	6.75
397.376	6.69
397.736	6.59
398.096	6.5
398.456	6.47
398.816	6.43
399.176	6.34
399.535	6.26
399.895	6.21
400.255	6.2
400.615	6.14
400.975	6.11
401.334	6.02
401.694	6.02
402.054	5.97
402.413	5.94
402.773	5.88
403.132	5.84
403.492	5.79
403.851	5.74
404.211	5.68
404.57	5.63
404.929	5.6
405.288	5.58
405.648	5.54
406.007	5.5
406.366	5.42
406.725	5.39
407.084	5.34
407.443	5.3
407.802	5.27
408.161	5.22
408.52	5.18
408.879	5.16
409.238	5.12
409.596	5.11
409.955	5.07
410.314	5.08
410.673	5.04
411.031	5.01
411.39	4.97
411.748	4.97
412.107	4.94
412.465	4.9
412.824	4.88
413.182	4.86
413.54	4.81
413.899	4.8
414.257	4.77
414.615	4.76
414.974	4.74
415.332	4.71
415.69	4.69
416.048	4.71
416.406	4.66
416.764	4.62
417.122	4.6
417.48	4.59
417.838	4.55
418.195	4.53
418.553	4.51
418.911	4.49
419.269	4.47
419.626	4.43
419.984	4.41
420.342	4.41
420.699	4.39
421.057	4.37
421.414	4.35
421.772	4.32
422.129	4.29
422.486	4.28
422.844	4.25
423.201	4.23
423.558	4.2
423.915	4.2
424.273	4.17
424.63	4.14
424.987	4.11
425.344	4.09
425.701	4.08
426.058	4.05
426.415	4.04
426.772	4.01
427.128	4.02
427.485	4
427.842	3.97
428.199	3.94
428.555	3.93
428.912	3.9
429.269	3.9
429.625	3.89
429.982	3.87
430.338	3.88
430.695	3.85
431.051	3.83
431.407	3.82
431.764	3.81
432.12	3.81
432.476	3.82
432.832	3.81
433.189	3.81
433.545	3.82
433.901	3.8
434.257	3.8
434.613	3.78
434.969	3.76
435.325	3.77
435.681	3.77
436.036	3.77
436.392	3.78
436.748	3.8
437.104	3.79
437.459	3.79
437.815	3.77
438.171	3.77
438.526	3.77
438.882	3.75
439.237	3.75
439.593	3.76
439.948	3.75
440.304	3.74
440.659	3.74
441.014	3.74
441.369	3.74
441.725	3.74
442.08	3.73
442.435	3.74
442.79	3.72
443.145	3.72
443.5	3.7
443.855	3.7
444.21	3.69
444.565	3.7
444.92	3.69
445.275	3.69
445.629	3.7
445.984	3.7
446.339	3.69
446.693	3.69
447.048	3.66
447.403	3.65
447.757	3.62
448.112	3.62
448.466	3.6
448.82	3.6
449.175	3.59
449.529	3.58
449.883	3.56
450.238	3.55
450.592	3.54
450.946	3.53
451.3	3.51
451.654	3.48
452.008	3.45
452.362	3.43
452.716	3.41
453.07	3.41
453.424	3.37
453.778	3.35
454.132	3.34
454.486	3.35
454.839	3.36
455.193	3.37
455.547	3.35
455.9	3.36
456.254	3.37
456.607	3.36
456.961	3.38
457.314	3.39
457.668	3.4
458.021	3.39
458.375	3.38
458.728	3.39
459.081	3.39
459.434	3.39
459.787	3.4
460.141	3.4
460.494	3.38
460.847	3.39
461.2	3.42
461.553	3.44
461.906	3.45
462.259	3.44
462.611	3.46
462.964	3.47
463.317	3.48
463.67	3.49
464.022	3.5
464.375	3.51
464.728	3.49
465.08	3.51
465.433	3.54
465.785	3.56
466.138	3.57
466.49	3.59
466.843	3.65
467.195	3.68
467.547	3.69
467.899	3.7
468.252	3.73
468.604	3.74
468.956	3.75
469.308	3.75
469.66	3.8
470.012	3.82
470.364	3.85
470.716	3.85
471.068	3.86
471.42	3.86
471.772	3.87
472.123	3.92
472.475	3.91
472.827	3.95
473.178	3.97
473.53	3.99
473.882	4
474.233	3.99
474.585	3.97
474.936	3.98
475.288	3.99
475.639	3.98
475.99	3.96
476.342	3.95
476.693	3.98
477.044	3.97
477.395	3.92
477.746	3.89
478.097	3.89
478.448	3.88
478.8	3.88
479.15	3.86
479.501	3.84
479.852	3.85
480.203	3.83
480.554	3.84
480.905	3.84
481.255	3.85
481.606	3.85
481.957	3.84
482.307	3.83
482.658	3.83
483.009	3.82
483.359	3.82
483.709	3.81
484.06	3.81
484.41	3.8
484.761	3.81
485.111	3.81
485.461	3.81
485.811	3.81
486.162	3.8
486.512	3.81
486.862	3.81
487.212	3.79
487.562	3.79
487.912	3.78
488.262	3.77
488.612	3.76
488.961	3.75
489.311	3.75
489.661	3.75
490.011	3.75
490.36	3.76
490.71	3.76
491.06	3.77
491.409	3.77
491.759	3.79
492.108	3.79
492.458	3.8
492.807	3.8
493.157	3.81
493.506	3.83
493.855	3.83
494.204	3.83
494.554	3.86
494.903	3.9
495.252	3.91
495.601	3.94
495.95	3.97
496.299	4.01
496.648	4.03
496.997	4.06
497.346	4.1
497.695	4.13
498.043	4.17
498.392	4.2
498.741	4.24
499.09	4.28
499.438	4.33
499.787	4.38
500.135	4.45
500.484	4.51
500.832	4.57
501.181	4.65
501.529	4.74
501.878	4.82
502.226	4.87
502.574	4.96
502.923	5.04
503.271	5.11
503.619	5.18
503.967	5.29
504.315	5.38
504.663	5.47
505.011	5.54
505.359	5.65
505.707	5.75
506.055	5.86
506.403	5.96
506.751	6.04
507.098	6.13
507.446	6.23
507.794	6.35
508.141	6.48
508.489	6.59
508.837	6.7
509.184	6.81
509.531	6.93
509.879	7.04
510.226	7.13
510.574	7.27
510.921	7.39
511.268	7.53
511.616	7.69
511.963	7.82
512.31	7.98
512.657	8.1
513.004	8.23
513.351	8.37
513.698	8.55
514.045	8.71
514.392	8.89
514.739	9.08
515.086	9.26
515.432	9.43
515.779	9.59
516.126	9.77
516.473	9.94
516.819	10.12
517.166	10.3
517.512	10.49
517.859	10.67
518.205	10.82
518.552	10.96
518.898	11.09
519.245	11.24
519.591	11.4
519.937	11.58
520.283	11.76
520.629	11.93
520.976	12.12
521.322	12.33
521.668	12.53
522.014	12.73
522.36	12.94
522.706	13.16
523.052	13.42
523.398	13.67
523.743	13.92
524.089	14.16
524.435	14.38
524.781	14.61
525.126	14.81
525.472	15.02
525.817	15.19
526.163	15.35
526.509	15.51
526.854	15.66
527.199	15.8
527.545	15.94
527.89	16.07
528.235	16.2
528.581	16.33
528.926	16.46
529.271	16.6
529.616	16.73
529.961	16.86
530.306	16.99
530.651	17.13
530.996	17.27
531.341	17.42
531.686	17.59
532.031	17.73
532.376	17.89
532.721	18.06
533.065	18.25
533.41	18.45
533.755	18.64
534.099	18.82
534.444	19
534.788	19.19
535.133	19.39
535.477	19.59
535.822	19.82
536.166	20.06
536.51	20.27
536.855	20.53
537.199	20.77
537.543	21.04
537.887	21.3
538.231	21.56
538.576	21.83
538.92	22.08
539.264	22.34
539.608	22.59
539.951	22.79
540.295	23.02
540.639	23.23
540.983	23.42
541.327	23.65
541.671	23.86
542.014	24.08
542.358	24.28
542.701	24.46
543.045	24.66
543.389	24.84
543.732	25.05
544.075	25.24
544.419	25.45
544.762	25.65
545.105	25.88
545.449	26.12
545.792	26.33
546.135	26.62
546.478	26.87
546.821	27.16
547.165	27.46
547.508	27.72
547.851	28.01
548.194	28.34
548.536	28.63
548.879	28.94
549.222	29.24
549.565	29.57
549.908	29.9
550.25	30.17
550.593	30.48
550.936	30.79
551.278	31.13
551.621	31.46
551.963	31.79
552.306	32.12
552.648	32.49
552.991	32.87
553.333	33.14
553.675	33.49
554.017	33.76
554.36	34.06
554.702	34.36
555.044	34.64
555.386	34.93
555.728	35.22
556.07	35.52
556.412	35.82
556.754	36.09
557.096	36.43
557.438	36.79
557.78	37.16
558.121	37.52
558.463	37.85
558.805	38.18
559.147	38.51
559.488	38.82
559.83	39.03
560.171	39.36
560.513	39.68
560.854	39.96
561.196	40.34
561.537	40.64
561.878	40.98
562.22	41.29
562.561	41.63
562.902	41.93
563.243	42.2
563.584	42.46
563.925	42.73
564.266	42.98
564.607	43.24
564.948	43.44
565.289	43.68
565.63	43.89
565.971	44.15
566.312	44.39
566.653	44.66
566.993	44.95
567.334	45.16
567.675	45.41
568.015	45.63
568.356	45.87
568.696	46.14
569.037	46.41
569.377	46.68
569.718	46.94
570.058	47.16
570.398	47.41
570.739	47.67
571.079	47.97
571.419	48.2
571.759	48.43
572.099	48.71
572.439	48.92
572.779	49.17
573.119	49.38
573.459	49.58
573.799	49.78
574.139	50.03
574.479	50.22
574.819	50.44
575.158	50.67
575.498	50.82
575.838	50.98
576.177	51.07
576.517	51.22
576.856	51.41
577.196	51.61
577.535	51.8
577.875	52
578.214	52.19
578.553	52.39
578.893	52.62
579.232	52.8
579.571	53.08
579.91	53.29
580.25	53.48
580.589	53.69
580.928	53.95
581.267	54.06
581.606	54.31
581.945	54.51
582.283	54.71
582.622	54.98
582.961	55.22
583.3	55.46
583.639	55.68
583.977	55.82
584.316	55.97
584.654	56.16
584.993	56.29
585.332	56.41
585.67	56.57
586.008	56.76
586.347	56.78
586.685	56.9
587.024	57.07
587.362	57.22
587.7	57.36
588.038	57.43
588.376	57.6
588.715	57.7
589.053	57.8
589.391	57.84
589.729	57.84
590.067	57.94
590.404	58.08
590.742	58.21
591.08	58.36
591.418	58.43
591.756	58.54
592.093	58.6
592.431	58.8
592.769	58.85
593.106	58.87
593.444	59.07
593.781	59.14
594.119	59.17
594.456	59.25
594.793	59.31
595.131	59.4
595.468	59.44
595.805	59.5
596.143	59.56
596.48	59.67
596.817	59.78
597.154	59.88
597.491	59.92
597.828	59.97
598.165	59.99
598.502	60.14
598.839	60.23
599.176	60.32
599.512	60.35
599.849	60.5
600.186	60.67
600.523	60.74
600.859	60.85
601.196	61.04
601.532	61.14
601.869	61.32
602.205	61.32
602.542	61.4
602.878	61.5
603.215	61.64
603.551	61.68
603.887	61.75
604.223	61.74
604.56	61.81
604.896	61.92
605.232	61.96
605.568	62.02
605.904	61.97
606.24	62.05
606.576	62.15
606.912	62.21
607.248	62.19
607.583	62.27
607.919	62.28
608.255	62.3
608.591	62.34
608.926	62.32
609.262	62.46
609.597	62.49
609.933	62.54
610.268	62.51
610.604	62.55
610.939	62.65
611.275	62.73
611.61	62.76
611.945	62.72
612.281	62.79
612.616	62.84
612.951	63.08
613.286	63.21
613.621	63.17
613.956	63.19
614.291	63.28
614.626	63.26
614.961	63.29
615.296	63.39
615.631	63.5
615.966	63.62
616.3	63.6
616.635	63.7
616.97	63.69
617.304	63.83
617.639	63.92
617.973	63.91
618.308	63.97
618.642	64.04
618.977	64.04
619.311	64.12
619.646	64.22
619.98	64.19
620.314	64.2
620.648	64.26
620.983	64.35
621.317	64.37
621.651	64.48
621.985	64.68
622.319	64.67
622.653	64.66
622.987	64.62
623.321	64.69
623.655	64.76
623.988	64.86
624.322	64.83
624.656	64.95
624.99	64.87
625.323	64.9
625.657	64.87
625.99	65.03
626.324	65.09
626.657	65.13
626.991	65.21
627.324	65.17
627.658	65.24
627.991	65.27
628.324	65.28
628.657	65.28
628.991	65.21
629.324	65.21
629.657	65.23
629.99	65.19
630.323	65.13
630.656	65.09
630.989	65.16
631.322	65.19
631.655	65.06
631.987	65.12
632.32	65.04
632.653	65.11
632.986	65.1
633.318	64.96
633.651	64.79
633.984	64.76
634.316	64.8
634.649	64.81
634.981	64.82
635.313	64.83
635.646	64.9
635.978	64.91
636.31	64.93
636.643	64.83
636.975	64.82
637.307	64.96
637.639	64.97
637.971	64.85
638.303	64.93
638.635	64.98
638.967	65.05
639.299	65.17
639.631	65.17
639.963	65.17
640.295	65.19
640.626	65.26
640.958	65.25
641.29	65.34
641.621	65.34
641.953	65.31
642.285	65.42
642.616	65.41
642.948	65.31
643.279	65.37
643.61	65.5
643.942	65.51
644.273	65.5
644.604	65.6
644.936	65.75
645.267	65.58
645.598	65.62
645.929	65.68
646.26	65.68
646.591	65.75
646.922	65.82
647.253	65.95
647.584	66.09
647.915	66.16
648.245	66.14
648.576	66.04
648.907	66.1
649.238	66.02
649.568	65.99
649.899	66.14
650.229	66.16
650.56	66.22
650.89	66.35
651.221	66.27
651.551	66.08
651.882	66.03
652.212	66.12
652.542	66.02
652.872	66.09
653.203	66.05
653.533	65.98
653.863	65.98
654.193	65.88
654.523	65.81
654.853	65.66
655.183	65.67
655.513	65.76
655.843	65.78
656.172	65.72
656.502	65.83
656.832	65.7
657.162	65.58
657.491	65.52
657.821	65.41
658.15	65.47
658.48	65.57
658.809	65.71
659.139	65.68
659.468	65.75
659.798	65.67
660.127	65.84
660.456	65.82
660.785	65.8
661.115	65.94
661.444	65.91
661.773	66.04
662.102	66.07
662.431	66.13
662.76	66.03
663.089	66.13
663.418	66.06
663.747	66.26
664.076	66.29
664.404	66.39
664.733	66.45
665.062	66.56
665.39	66.74
665.719	66.57
666.048	66.79
666.376	66.84
666.705	67.04
667.033	66.82
667.362	66.94
667.69	67.04
668.018	66.99
668.347	67.06
668.675	66.89
669.003	66.89
669.331	66.83
669.659	66.92
669.987	66.89
670.315	66.91
670.643	66.89
670.971	66.99
671.299	66.96
671.627	67.09
671.955	66.89
672.283	66.67
672.61	66.75
672.938	66.55
673.266	66.53
673.593	66.37
673.921	66.47
674.249	66.42
674.576	66.34
674.904	66.22
675.231	66.25
675.558	66.47
675.886	66.41
676.213	66.39
676.54	66.28
676.867	66.32
677.195	66.07
677.522	66
677.849	66.06
678.176	65.91
678.503	65.83
678.83	65.92
679.157	66.15
679.484	66.15
679.81	66.28
680.137	66.21
680.464	66.29
680.791	66.25
681.117	66.33
681.444	66.3
681.771	66.37
682.097	66.33
682.424	66.23
682.75	66.33
683.077	66.42
683.403	66.59
683.729	66.59
684.056	66.8
684.382	66.85
684.708	66.81
685.034	67.06
685.36	67.16
685.686	67.25
686.012	67.07
686.339	67.07
686.664	67.07
686.99	67.1
687.316	67.01
687.642	67.16
687.968	67.08
688.294	67.05
688.619	67.06
688.945	66.96
689.271	66.97
689.596	66.94
689.922	66.86
690.247	66.85
690.573	66.76
690.898	66.81
691.224	66.87
691.549	66.73
691.874	66.7
692.2	66.67
692.525	66.59
692.85	66.78
693.175	66.74
693.5	66.66
693.825	66.73
694.15	66.78
694.475	66.65
694.8	66.59
695.125	66.53
695.45	66.4
695.775	66.4
696.099	66.47
696.424	66.32
696.749	66.45
697.073	66.35
697.398	66.51
697.723	66.48
698.047	66.4
698.372	66.53
698.696	66.51
699.02	66.44
699.345	66.48
699.669	66.31
699.993	66.33
700.318	66.3
700.642	66.23
700.966	66.19
701.29	66.38
701.614	66.41
701.938	66.67
702.262	66.76
702.586	66.7
702.91	66.74
703.234	66.84
703.557	66.77
703.881	66.85
704.205	66.65
704.529	66.62
704.852	66.68
705.176	66.6
705.499	66.62
705.823	66.81
706.146	66.73
706.47	66.72
706.793	66.74
707.117	66.96
707.44	66.92
707.763	67.01
708.086	66.86
708.409	67.02
708.733	66.99
709.056	67.01
709.379	67.26
709.702	67.3
710.025	67.29
710.348	67.42
710.671	67.5
710.993	67.46
711.316	67.56
711.639	67.39
711.962	67.23
712.284	67.42
712.607	67.47
712.93	67.42
713.252	67.63
713.575	67.47
713.897	67.23
714.22	67.33
714.542	67.34
714.864	67.24
715.187	67.14
715.509	66.97
715.831	66.99
716.153	66.91
716.475	66.84
716.798	66.88
717.12	66.76
717.442	66.87
717.764	67.22
718.085	67.18
718.407	67.2
718.729	67.38
719.051	67.16
719.373	66.87
719.695	67.04
720.016	67.05
720.338	67.29
720.659	67.39
720.981	67.58
721.302	67.63
721.624	67.73
721.945	67.79
722.267	67.9
722.588	67.95
722.909	68.1
723.231	68.01
723.552	67.88
723.873	67.73
724.194	67.33
724.515	67.15
724.836	67.16
725.157	67.51
725.478	67.62
725.799	67.62
726.12	67.64
726.441	67.88
726.762	67.95
727.083	68.01
727.403	68.55
727.724	68.4
728.045	68.23
728.365	68.15
728.686	68.01
729.006	67.97
729.327	68.08
729.647	68.09
729.967	68.14
730.288	68.42
730.608	68.41
730.928	68.54
731.249	68.68
731.569	68.63
731.889	68.69
732.209	68.36
732.529	68.5
732.849	68.56
733.169	68.28
733.489	67.97
733.809	67.88
734.129	67.37
734.448	67.44
734.768	67.72
735.088	67.65
735.408	67.8
735.727	67.92
736.047	67.83
736.366	67.94
736.686	68.17
737.005	68.19
737.325	68.26
737.644	68.3
737.963	67.99
738.283	67.97
738.602	68
738.921	68.34
739.24	68.41
739.56	68.6
739.879	68.76
740.198	69.04
740.517	69.1
740.836	68.98
741.155	69.16
741.473	69.03
741.792	69.4
742.111	69.09
742.43	68.76
742.748	68.88
743.067	68.81
743.386	68.83
743.704	68.74
744.023	68.84
744.341	68.94
744.66	69.31
744.978	69.58
745.297	69.1
745.615	69.1
745.933	68.69
746.252	68.66
746.57	68.34
746.888	68.07
747.206	67.8
747.524	67.85
747.842	67.33
748.16	67.32
748.478	67.17
748.796	67.36
749.114	67.74
749.432	67.77
749.749	67.31
750.067	66.87
750.385	66.76
750.703	66.42
751.02	66.09
751.338	65.93
751.655	65.57
751.973	65.71
752.29	65.65
752.608	65.78
752.925	65.4
753.242	65.89
753.56	66.33
753.877	66.32
754.194	66.25
754.511	66.54
754.828	66.37
755.145	66.44
755.462	66.3
755.779	66.38
756.096	66.5
756.413	66.66
756.73	67.02
757.047	66.78
757.364	66.89
757.68	67.07
757.997	67.03
758.314	67.33
758.63	67.24
758.947	67.29
759.264	67.35
759.58	67.55
759.896	67.22
760.213	66.73
760.529	67.01
760.846	67.38
761.162	67.47
761.478	67.74
761.794	67.73
762.11	67.8
762.426	67.34
762.743	67.37
763.059	67.58
763.375	67.34
763.69	67.64
764.006	67.68
764.322	67.82
764.638	67.75
764.954	67.58
765.27	67.71
765.585	67.71
765.901	67.7
766.216	67.68
766.532	67.94
766.848	68.31
767.163	68.5
767.478	68.58
767.794	68.61
768.109	67.98
768.424	67.78
768.74	67.7
769.055	68.15
769.37	67.96
769.685	67.85
770	67.74
770.315	67.63
770.63	67.93
770.945	67.86
771.26	68.2
771.575	68.67
771.89	68.57
772.205	68.76
772.52	68.45
772.834	68.75
773.149	68.59
773.464	68.28
773.778	67.75
774.093	67.56
774.407	67.52
774.722	68.34
775.036	68.22
775.351	68.43
775.665	68.62
775.979	68.22
776.293	67.96
776.608	68.51
776.922	68.58
777.236	68.65
777.55	68.41
777.864	68.21
778.178	67.77
778.492	67.52
778.806	67.27
779.12	67.64
779.434	67.39
779.747	67.29
780.061	67.24
780.375	67.41
780.689	66.94
781.002	66.9
781.316	66.66
781.629	66.85
781.943	67.03
782.256	66.64
782.57	66.88
782.883	66.91
783.196	66.94
783.51	66.99
783.823	66.37
784.136	66.9
784.449	66.76
784.762	66.66
785.075	66.88
785.388	66.73
785.701	66.91
786.014	67.05
786.327	66.73
786.64	66.82
786.953	67.01
787.266	67.09
787.578	67.24
787.891	67.36
788.204	67.1
788.516	66.81
788.829	66.83
789.141	66.81
789.454	66.87
789.766	66.77
790.079	67.15
790.391	67.85
790.703	67.38
791.016	67.21
791.328	67.06
791.64	67.34
791.952	67.57
792.264	67.23
792.576	67.1
792.888	67.1
793.2	67.09
793.512	66.93
793.824	67.18
794.136	66.78
794.448	66.74
794.76	67.16
795.071	67.41
795.383	67.68
795.695	68.3
796.006	68.62
796.318	68.29
796.629	67.99
796.941	67.67
797.252	67.6
797.564	67.92
797.875	68.01
798.186	68.4
798.497	68.57
798.809	68.78
799.12	68.3
799.431	68.74
799.742	67.98
800.053	68.13
800.364	68.35
800.675	68.07
800.986	68.08
801.297	68.1
801.608	67.89
801.918	68.08
802.229	67.62
802.54	67.91
802.851	68.27
803.161	68.4
803.472	68.56
803.782	69.08
804.093	68.77
804.403	69.16
804.714	69.23
805.024	69.01
805.334	68.81
805.645	69.77
805.955	69.57
806.265	70.4
806.575	70.02
806.885	69.84
807.195	70.58
807.505	70.68
807.815	71.02
808.125	71.59
808.435	71.14
808.745	71.64
809.055	71.69
809.365	71.83
809.674	71.72
809.984	71.47
810.294	70.99
810.603	70
810.913	70.31
811.222	69.77
811.532	70.36
811.841	70.43
812.151	70.17
812.46	69.35
812.769	69.88
813.079	69.02
813.388	69.48
813.697	69.4
814.006	69.8
814.315	69.38
814.624	69.21
814.933	69.67
815.242	68.67
815.551	68
815.86	68.56
816.169	67.87
816.478	68.03
816.786	68.47
817.095	69.49
817.404	68.63
817.712	68.76
818.021	68.45
818.33	68.16
818.638	67.76
818.947	68.56
819.255	68.56
819.563	69.48
819.872	68.59
820.18	68.36
820.488	68.06
820.796	67.88
821.105	67.49
821.413	67.29
821.721	67.26
822.029	67.41
822.337	67.18
822.645	67.63
822.953	67.83
823.26	67.86
823.568	67.87
823.876	68.02
824.184	67.81
824.491	67.89
824.799	67.85
825.107	67.89
825.414	67.96
825.722	67.65
826.029	67.35
826.337	67.54
826.644	67.57
826.951	67.64
827.259	67.79
827.566	68
827.873	68.12
828.18	68.26
828.488	68.37
828.795	68.58
829.102	68
829.409	67.82
829.716	67.41
830.023	67.21
830.329	67.35
830.636	67.41
830.943	67.27
831.25	67.68
831.557	68.11
831.863	67.74
832.17	68.41
832.476	68.74
832.783	68.39
833.089	68.25
833.396	68.39
833.702	68.35
834.009	68.2
834.315	68.46
834.621	68.76
834.928	68.11
835.234	68.47
835.54	68.95
835.846	68.37
836.152	68.55
836.458	68.74
836.764	68.89
837.07	68.77
837.376	67.98
837.682	67.15
837.988	67.05
838.293	67.3
838.599	66.94
838.905	66.76
839.211	66.83
839.516	66.74
839.822	66.36
840.127	66.23
840.433	66.44
840.738	65.81
841.044	65.32
841.349	66.08
841.654	63.8
841.959	63.36
842.265	63.72
842.57	62.73
842.875	63.19
843.18	61.85
843.485	63.13
843.79	64.11
844.095	65.28
844.4	64.68
844.705	64.51
845.01	64.76
845.315	63.6
845.619	64.51
845.924	64.94
846.229	65.03
846.533	65.98
846.838	65.09
847.142	64.93
847.447	64.04
847.751	64.51
848.056	65.42
848.36	65.9
848.664	66.33
848.969	68.48
849.273	68.65
849.577	68.11
849.881	66.5
850.185	67.79
850.489	69.07
850.794	69.31
851.097	69.61
851.401	68.05
851.705	71.55
852.009	72.09
852.313	70.62
852.617	69.09
852.92	69
853.224	71.84
853.528	73.03
853.831	74.47
854.135	73.98
854.438	74.48
854.742	74.47
855.045	74.08
855.349	73.87
855.652	72.08
855.955	73.2
856.259	73.43
856.562	72.29
856.865	70.56
857.168	68.49
857.471	69.24
857.774	71.11
858.077	68.32
858.38	68.87
858.683	72.63
858.986	74.62
859.289	73.48
859.592	70.25
859.894	70.53
860.197	71.2
860.5	70.65
860.802	71.63
861.105	70.94
861.407	72.1
861.71	71.74
862.012	75.16
862.315	74.36
862.617	75.97
862.919	76.96
863.222	75.47
863.524	78.78
863.826	76.46
864.128	76.01
864.43	77.03
864.732	76.57
865.034	75.5
865.336	73.24
865.638	71.72
865.94	73.35
866.242	72.77
866.544	72.03
866.846	73.42
867.147	72.86
867.449	73.98
867.751	72.77
868.052	74.66
868.354	72.57
868.655	71.49
868.957	71.15
869.258	69.81
869.56	71.13
869.861	69.92
870.162	69.78
870.463	69.39
870.765	68.7
871.066	70.54
871.367	67.95
871.668	70.91
871.969	72.84
872.27	73.11
872.571	72.25
872.872	72.89
873.173	72.1
873.473	72.23
873.774	70.87
874.075	71.36
874.376	70.65
874.676	70.26
874.977	73.66
875.277	72.76
875.578	71.5
875.878	72.13
876.179	71.88
876.479	72.85
876.78	73.41
877.08	74.92
877.38	72.05
877.68	74.29
877.981	72.02
878.281	71.77
878.581	71.21
