Data from BU57614_Reflection_00014.txt Node
Date: Mon Nov 18 16:24:43 EST 2019
User: vgr7
Spectrometer: USB2G7710
Scans to average: 3
Trigger mode: 4
Integration Time (sec): 2.000000E-2
Electric dark correction enabled: true
Boxcar width: 10
XAxis mode: Wavelengths
Number of Pixels in Spectrum: 2048
>>>>>Begin Spectral Data<<<<<
177.721	0.68
178.105	29.71
178.488	6.06
178.871	-78.39
179.254	-59.17
179.636	32.04
180.019	-46.68
180.402	9.43
180.785	-182.98
181.168	-627.27
181.55	49.19
181.933	97.65
182.316	62.86
182.698	63.33
183.081	78.78
183.463	80.73
183.846	57.96
184.228	137.25
184.611	145.25
184.993	140.06
185.376	-4605.88
185.758	-1831.03
186.14	668.81
186.522	-442.37
186.904	374.68
187.287	306.41
187.669	97.43
188.051	96.91
188.433	22.46
188.815	22.16
189.197	56.94
189.579	61.64
189.961	50.53
190.342	38.97
190.724	49.32
191.106	69.53
191.488	87.36
191.869	60.44
192.251	45.32
192.633	57.96
193.014	42.19
193.396	70.88
193.777	34.43
194.159	39.8
194.54	18.93
194.922	-7.76
195.303	-2.39
195.684	-1.47
196.065	23.03
196.447	25.61
196.828	22.71
197.209	20.81
197.59	0.46
197.971	7.54
198.352	12.55
198.733	1.85
199.114	-1.96
199.495	-0.54
199.876	2.76
200.257	5.71
200.638	8.14
201.018	11.74
201.399	4.41
201.78	9.9
202.16	1.68
202.541	6.28
202.922	14.97
203.302	10.13
203.683	-19.51
204.063	-49.08
204.444	-37.38
204.824	-56.84
205.204	-39.06
205.585	-21.41
205.965	-21.76
206.345	-35.44
206.725	-24.97
207.106	-8.36
207.486	-22.29
207.866	-12.9
208.246	-6.61
208.626	-18.08
209.006	-7.71
209.386	-15.51
209.766	-18.03
210.145	-5.75
210.525	-15.54
210.905	-12.82
211.285	-2.85
211.664	14.64
212.044	12.74
212.424	17.83
212.803	21.92
213.183	10.24
213.562	7.1
213.942	9.03
214.321	13.11
214.701	5.64
215.08	-6.75
215.459	-7.32
215.838	-12.71
216.218	-14.65
216.597	-4.72
216.976	-4.97
217.355	-5.32
217.734	-2.71
218.113	-0.35
218.492	5.71
218.871	-0.66
219.25	-6.98
219.629	-10.91
220.008	-8.16
220.387	-10.92
220.766	-13.56
221.144	-24.22
221.523	-24.88
221.902	-24.76
222.28	-30.06
222.659	-23.46
223.037	-12.75
223.416	-1.28
223.794	0.98
224.173	3.08
224.551	6.02
224.929	-1.63
225.308	2.52
225.686	0.14
226.064	1.21
226.442	3.05
226.821	5.28
227.199	7.26
227.577	8.71
227.955	7.41
228.333	7.89
228.711	11.71
229.089	15.83
229.467	13.76
229.845	11.79
230.222	12.84
230.6	13.02
230.978	12.54
231.356	12.57
231.733	12.85
232.111	12.29
232.488	12.04
232.866	12.74
233.243	12.09
233.621	11.66
233.998	13.37
234.376	13.38
234.753	12.99
235.13	12.6
235.508	12.74
235.885	11.84
236.262	10.66
236.639	9.71
237.016	8.02
237.393	9.18
237.77	9.69
238.147	9.76
238.524	8.96
238.901	9.01
239.278	8.16
239.655	8.17
240.032	7.71
240.409	6.29
240.785	6.17
241.162	6.6
241.539	6.69
241.915	5.45
242.292	4.64
242.668	4.64
243.045	4.96
243.421	4.44
243.798	4.24
244.174	4.06
244.551	4.04
244.927	4.13
245.303	3.96
245.679	3.81
246.056	3.49
246.432	3.36
246.808	3.24
247.184	2.95
247.56	2.72
247.936	2.7
248.312	2.67
248.688	2.74
249.064	2.63
249.44	2.58
249.815	2.73
250.191	3.07
250.567	3.05
250.943	2.58
251.318	2.88
251.694	3.04
252.069	3.12
252.445	3.5
252.82	3.52
253.196	3.49
253.571	3.66
253.947	3.96
254.322	4.45
254.697	4.42
255.073	4.49
255.448	4.29
255.823	4.15
256.198	4.38
256.573	4.37
256.948	4.23
257.323	4.22
257.698	4.09
258.073	3.92
258.448	3.89
258.823	3.96
259.198	3.69
259.573	3.66
259.948	3.61
260.322	3.32
260.697	3.23
261.072	3.17
261.446	3.1
261.821	2.92
262.195	2.85
262.57	2.81
262.944	2.72
263.319	2.82
263.693	2.95
264.067	2.96
264.442	2.83
264.816	2.83
265.19	2.79
265.564	2.82
265.938	2.64
266.313	2.53
266.687	2.54
267.061	2.71
267.435	2.64
267.809	2.58
268.183	2.65
268.556	2.74
268.93	2.93
269.304	2.8
269.678	3.02
270.051	2.88
270.425	2.93
270.799	3.05
271.172	3.07
271.546	2.96
271.919	2.92
272.293	2.92
272.666	2.91
273.04	2.99
273.413	2.96
273.787	3
274.16	3.04
274.533	3.03
274.906	2.99
275.279	3.06
275.653	3.09
276.026	3.05
276.399	3
276.772	2.85
277.145	2.82
277.518	2.87
277.891	3.05
278.263	3.12
278.636	3.15
279.009	3.15
279.382	3.28
279.755	3.15
280.127	3.33
280.5	3.39
280.872	3.34
281.245	3.27
281.617	3.41
281.99	3.42
282.362	3.42
282.735	3.41
283.107	3.4
283.479	3.44
283.852	3.54
284.224	3.57
284.596	3.44
284.968	3.43
285.34	3.37
285.713	3.22
286.085	3.1
286.457	3.17
286.829	3.19
287.201	3.17
287.572	3.17
287.944	3.08
288.316	2.98
288.688	2.95
289.06	3.04
289.431	3
289.803	2.99
290.175	3.09
290.546	3.06
290.918	3.01
291.289	3.05
291.661	2.93
292.032	2.94
292.403	3.03
292.775	3.21
293.146	3.17
293.517	3.17
293.889	3.28
294.26	3.2
294.631	3.18
295.002	3.23
295.373	3.29
295.744	3.33
296.115	3.35
296.486	3.25
296.857	3.21
297.228	3.26
297.599	3.31
297.97	3.18
298.34	3.29
298.711	3.32
299.082	3.29
299.452	3.34
299.823	3.38
300.194	3.47
300.564	3.45
300.935	3.41
301.305	3.57
301.676	3.65
302.046	3.8
302.416	3.89
302.787	3.91
303.157	3.9
303.527	3.84
303.897	4.03
304.267	4.35
304.637	4.43
305.008	4.5
305.378	4.59
305.748	4.82
306.117	4.63
306.487	4.63
306.857	4.76
307.227	4.71
307.597	4.74
307.967	4.68
308.336	4.77
308.706	4.82
309.076	4.8
309.445	4.78
309.815	4.8
310.184	4.9
310.554	4.76
310.923	4.84
311.293	4.89
311.662	4.8
312.031	4.75
312.401	4.79
312.77	4.95
313.139	4.94
313.508	4.91
313.877	5
314.246	5.26
314.616	5.28
314.985	5.38
315.353	5.34
315.722	5.5
316.091	5.5
316.46	5.63
316.829	5.66
317.198	5.77
317.567	5.69
317.935	5.64
318.304	5.78
318.672	5.83
319.041	6.01
319.41	6.02
319.778	5.97
320.147	6.13
320.515	5.86
320.883	5.9
321.252	5.99
321.62	6.1
321.988	6
322.357	5.96
322.725	6.15
323.093	6.35
323.461	6.35
323.829	6.34
324.197	6.48
324.565	6.61
324.933	6.57
325.301	6.68
325.669	6.64
326.037	6.61
326.405	6.62
326.772	6.76
327.14	7.01
327.508	7.09
327.875	7.04
328.243	7.24
328.61	7.33
328.978	7.33
329.346	7.54
329.713	7.67
330.08	7.81
330.448	7.81
330.815	7.86
331.182	7.86
331.55	8.04
331.917	8.03
332.284	8.11
332.651	8.23
333.018	8.38
333.385	8.44
333.752	8.68
334.119	8.79
334.486	8.68
334.853	8.68
335.22	8.71
335.587	8.77
335.954	8.79
336.32	8.8
336.687	8.95
337.054	8.91
337.42	8.94
337.787	8.99
338.153	8.92
338.52	8.97
338.886	8.95
339.253	8.87
339.619	8.89
339.986	8.78
340.352	8.76
340.718	8.68
341.084	8.77
341.451	8.77
341.817	8.84
342.183	8.97
342.549	8.94
342.915	9.06
343.281	9.08
343.647	9.17
344.013	9.25
344.379	9.25
344.745	9.26
345.11	9.12
345.476	9.22
345.842	9.29
346.208	9.26
346.573	9.43
346.939	9.53
347.304	9.54
347.67	9.6
348.035	9.54
348.401	9.59
348.766	9.56
349.132	9.52
349.497	9.42
349.862	9.37
350.228	9.32
350.593	9.24
350.958	9.2
351.323	9.19
351.688	9.13
352.053	9.05
352.418	9.07
352.783	9.18
353.148	9.05
353.513	9.07
353.878	9.14
354.243	9.07
354.608	9.02
354.972	9.01
355.337	9.09
355.702	9.14
356.066	9.16
356.431	9.09
356.795	9.12
357.16	9.1
357.524	9.03
357.889	9.02
358.253	9.06
358.618	9.02
358.982	8.96
359.346	8.82
359.71	8.87
360.075	8.85
360.439	8.78
360.803	8.76
361.167	8.7
361.531	8.57
361.895	8.51
362.259	8.4
362.623	8.38
362.987	8.27
363.351	8.19
363.714	8.15
364.078	8.12
364.442	7.99
364.806	7.94
365.169	8.02
365.533	8
365.896	7.87
366.26	7.86
366.623	7.79
366.987	7.87
367.35	7.74
367.714	7.62
368.077	7.54
368.44	7.49
368.803	7.41
369.167	7.42
369.53	7.37
369.893	7.45
370.256	7.37
370.619	7.38
370.982	7.31
371.345	7.19
371.708	7.19
372.071	7.17
372.434	7.13
372.797	6.99
373.159	6.9
373.522	6.96
373.885	6.88
374.247	6.83
374.61	6.76
374.973	6.7
375.335	6.65
375.698	6.67
376.06	6.65
376.423	6.62
376.785	6.59
377.147	6.58
377.51	6.46
377.872	6.43
378.234	6.35
378.596	6.37
378.958	6.37
379.321	6.28
379.683	6.29
380.045	6.24
380.407	6.18
380.769	6.11
381.13	5.98
381.492	5.99
381.854	5.93
382.216	5.83
382.578	5.81
382.939	5.77
383.301	5.68
383.663	5.62
384.024	5.57
384.386	5.54
384.747	5.47
385.109	5.47
385.47	5.4
385.832	5.4
386.193	5.3
386.554	5.23
386.916	5.17
387.277	5.11
387.638	5.09
387.999	5.07
388.36	5.08
388.721	5.06
389.082	4.93
389.443	4.9
389.804	4.85
390.165	4.77
390.526	4.73
390.887	4.7
391.248	4.68
391.609	4.64
391.969	4.59
392.33	4.57
392.691	4.54
393.051	4.49
393.412	4.43
393.772	4.4
394.133	4.34
394.493	4.34
394.854	4.29
395.214	4.25
395.574	4.17
395.935	4.1
396.295	4.07
396.655	4.06
397.015	4.01
397.376	3.99
397.736	3.96
398.096	3.93
398.456	3.92
398.816	3.88
399.176	3.85
399.535	3.81
399.895	3.76
400.255	3.67
400.615	3.67
400.975	3.59
401.334	3.57
401.694	3.6
402.054	3.55
402.413	3.52
402.773	3.46
403.132	3.47
403.492	3.45
403.851	3.43
404.211	3.42
404.57	3.4
404.929	3.39
405.288	3.37
405.648	3.34
406.007	3.3
406.366	3.29
406.725	3.29
407.084	3.26
407.443	3.24
407.802	3.27
408.161	3.26
408.52	3.25
408.879	3.22
409.238	3.18
409.596	3.18
409.955	3.18
410.314	3.16
410.673	3.14
411.031	3.13
411.39	3.12
411.748	3.09
412.107	3.1
412.465	3.04
412.824	3.06
413.182	3.04
413.54	3.03
413.899	2.98
414.257	2.96
414.615	2.95
414.974	2.96
415.332	2.93
415.69	2.87
416.048	2.88
416.406	2.87
416.764	2.85
417.122	2.83
417.48	2.83
417.838	2.83
418.195	2.84
418.553	2.82
418.911	2.82
419.269	2.81
419.626	2.79
419.984	2.79
420.342	2.78
420.699	2.77
421.057	2.77
421.414	2.76
421.772	2.75
422.129	2.75
422.486	2.73
422.844	2.72
423.201	2.72
423.558	2.71
423.915	2.72
424.273	2.71
424.63	2.71
424.987	2.7
425.344	2.7
425.701	2.67
426.058	2.66
426.415	2.64
426.772	2.64
427.128	2.62
427.485	2.62
427.842	2.59
428.199	2.59
428.555	2.58
428.912	2.6
429.269	2.59
429.625	2.59
429.982	2.58
430.338	2.57
430.695	2.57
431.051	2.58
431.407	2.56
431.764	2.55
432.12	2.54
432.476	2.55
432.832	2.53
433.189	2.55
433.545	2.55
433.901	2.54
434.257	2.54
434.613	2.55
434.969	2.56
435.325	2.57
435.681	2.57
436.036	2.58
436.392	2.57
436.748	2.55
437.104	2.53
437.459	2.53
437.815	2.55
438.171	2.55
438.526	2.56
438.882	2.57
439.237	2.57
439.593	2.59
439.948	2.57
440.304	2.58
440.659	2.57
441.014	2.57
441.369	2.56
441.725	2.56
442.08	2.57
442.435	2.57
442.79	2.57
443.145	2.56
443.5	2.54
443.855	2.53
444.21	2.55
444.565	2.56
444.92	2.56
445.275	2.55
445.629	2.55
445.984	2.52
446.339	2.51
446.693	2.5
447.048	2.48
447.403	2.47
447.757	2.45
448.112	2.44
448.466	2.44
448.82	2.44
449.175	2.44
449.529	2.44
449.883	2.41
450.238	2.41
450.592	2.41
450.946	2.41
451.3	2.38
451.654	2.37
452.008	2.35
452.362	2.35
452.716	2.34
453.07	2.33
453.424	2.34
453.778	2.34
454.132	2.34
454.486	2.35
454.839	2.36
455.193	2.36
455.547	2.37
455.9	2.38
456.254	2.38
456.607	2.39
456.961	2.39
457.314	2.38
457.668	2.37
458.021	2.36
458.375	2.37
458.728	2.39
459.081	2.39
459.434	2.39
459.787	2.38
460.141	2.38
460.494	2.38
460.847	2.37
461.2	2.37
461.553	2.38
461.906	2.39
462.259	2.4
462.611	2.41
462.964	2.4
463.317	2.39
463.67	2.4
464.022	2.38
464.375	2.38
464.728	2.41
465.08	2.41
465.433	2.42
465.785	2.43
466.138	2.42
466.49	2.44
466.843	2.44
467.195	2.44
467.547	2.46
467.899	2.47
468.252	2.48
468.604	2.51
468.956	2.51
469.308	2.5
469.66	2.48
470.012	2.48
470.364	2.51
470.716	2.5
471.068	2.51
471.42	2.52
471.772	2.54
472.123	2.55
472.475	2.56
472.827	2.56
473.178	2.58
473.53	2.56
473.882	2.56
474.233	2.57
474.585	2.57
474.936	2.57
475.288	2.58
475.639	2.57
475.99	2.57
476.342	2.54
476.693	2.55
477.044	2.56
477.395	2.56
477.746	2.55
478.097	2.55
478.448	2.54
478.8	2.54
479.15	2.51
479.501	2.51
479.852	2.49
480.203	2.49
480.554	2.5
480.905	2.51
481.255	2.5
481.606	2.51
481.957	2.51
482.307	2.5
482.658	2.49
483.009	2.5
483.359	2.49
483.709	2.49
484.06	2.48
484.41	2.48
484.761	2.48
485.111	2.49
485.461	2.5
485.811	2.5
486.162	2.5
486.512	2.51
486.862	2.5
487.212	2.5
487.562	2.5
487.912	2.49
488.262	2.5
488.612	2.5
488.961	2.5
489.311	2.5
489.661	2.5
490.011	2.51
490.36	2.5
490.71	2.51
491.06	2.53
491.409	2.53
491.759	2.53
492.108	2.53
492.458	2.53
492.807	2.51
493.157	2.53
493.506	2.54
493.855	2.53
494.204	2.56
494.554	2.56
494.903	2.56
495.252	2.58
495.601	2.58
495.95	2.59
496.299	2.61
496.648	2.62
496.997	2.65
497.346	2.69
497.695	2.71
498.043	2.71
498.392	2.71
498.741	2.74
499.09	2.75
499.438	2.78
499.787	2.8
500.135	2.85
500.484	2.86
500.832	2.89
501.181	2.93
501.529	2.95
501.878	2.99
502.226	3.03
502.574	3.05
502.923	3.07
503.271	3.09
503.619	3.09
503.967	3.12
504.315	3.13
504.663	3.15
505.011	3.18
505.359	3.2
505.707	3.25
506.055	3.29
506.403	3.35
506.751	3.38
507.098	3.42
507.446	3.47
507.794	3.5
508.141	3.55
508.489	3.63
508.837	3.66
509.184	3.71
509.531	3.76
509.879	3.83
510.226	3.9
510.574	3.94
510.921	4.02
511.268	4.08
511.616	4.13
511.963	4.17
512.31	4.26
512.657	4.35
513.004	4.41
513.351	4.49
513.698	4.57
514.045	4.64
514.392	4.73
514.739	4.78
515.086	4.86
515.432	4.95
515.779	5
516.126	5.11
516.473	5.2
516.819	5.28
517.166	5.35
517.512	5.42
517.859	5.51
518.205	5.56
518.552	5.64
518.898	5.72
519.245	5.79
519.591	5.85
519.937	5.92
520.283	6
520.629	6.09
520.976	6.17
521.322	6.28
521.668	6.38
522.014	6.49
522.36	6.63
522.706	6.74
523.052	6.86
523.398	6.99
523.743	7.1
524.089	7.23
524.435	7.36
524.781	7.48
525.126	7.59
525.472	7.72
525.817	7.84
526.163	7.95
526.509	8.05
526.854	8.15
527.199	8.25
527.545	8.33
527.89	8.42
528.235	8.52
528.581	8.62
528.926	8.73
529.271	8.84
529.616	8.92
529.961	9.03
530.306	9.14
530.651	9.25
530.996	9.39
531.341	9.53
531.686	9.68
532.031	9.84
532.376	9.99
532.721	10.14
533.065	10.3
533.41	10.48
533.755	10.66
534.099	10.83
534.444	11.01
534.788	11.22
535.133	11.38
535.477	11.58
535.822	11.77
536.166	11.97
536.51	12.21
536.855	12.47
537.199	12.73
537.543	13
537.887	13.28
538.231	13.52
538.576	13.82
538.92	14.07
539.264	14.34
539.608	14.6
539.951	14.85
540.295	15.07
540.639	15.29
540.983	15.51
541.327	15.76
541.671	15.97
542.014	16.18
542.358	16.41
542.701	16.61
543.045	16.8
543.389	17.04
543.732	17.26
544.075	17.49
544.419	17.73
544.762	17.99
545.105	18.26
545.449	18.55
545.792	18.82
546.135	19.13
546.478	19.4
546.821	19.71
547.165	20.03
547.508	20.35
547.851	20.67
548.194	21
548.536	21.32
548.879	21.65
549.222	21.98
549.565	22.34
549.908	22.7
550.25	23.1
550.593	23.46
550.936	23.8
551.278	24.13
551.621	24.47
551.963	24.81
552.306	25.08
552.648	25.41
552.991	25.72
553.333	26.03
553.675	26.36
554.017	26.68
554.36	26.96
554.702	27.29
555.044	27.59
555.386	27.88
555.728	28.22
556.07	28.54
556.412	28.83
556.754	29.12
557.096	29.44
557.438	29.73
557.78	30.06
558.121	30.36
558.463	30.67
558.805	30.97
559.147	31.24
559.488	31.58
559.83	31.86
560.171	32.17
560.513	32.42
560.854	32.69
561.196	32.94
561.537	33.27
561.878	33.53
562.22	33.79
562.561	34.05
562.902	34.3
563.243	34.52
563.584	34.79
563.925	35.08
564.266	35.33
564.607	35.57
564.948	35.71
565.289	35.95
565.63	36.19
565.971	36.43
566.312	36.61
566.653	36.83
566.993	37.05
567.334	37.26
567.675	37.5
568.015	37.67
568.356	37.89
568.696	38
569.037	38.15
569.377	38.38
569.718	38.56
570.058	38.71
570.398	38.91
570.739	39.14
571.079	39.3
571.419	39.45
571.759	39.65
572.099	39.87
572.439	40.02
572.779	40.16
573.119	40.34
573.459	40.5
573.799	40.62
574.139	40.75
574.479	40.91
574.819	41
575.158	41.16
575.498	41.25
575.838	41.47
576.177	41.67
576.517	41.8
576.856	42
577.196	42.16
577.535	42.29
577.875	42.44
578.214	42.57
578.553	42.76
578.893	42.92
579.232	43.1
579.571	43.26
579.91	43.43
580.25	43.54
580.589	43.69
580.928	43.81
581.267	43.96
581.606	43.95
581.945	44.1
582.283	44.26
582.622	44.44
582.961	44.55
583.3	44.61
583.639	44.75
583.977	44.88
584.316	45.03
584.654	45.15
584.993	45.18
585.332	45.27
585.67	45.27
586.008	45.36
586.347	45.36
586.685	45.49
587.024	45.55
587.362	45.64
587.7	45.71
588.038	45.82
588.376	45.93
588.715	46.11
589.053	46.28
589.391	46.34
589.729	46.4
590.067	46.47
590.404	46.61
590.742	46.7
591.08	46.73
591.418	46.85
591.756	46.98
592.093	47.05
592.431	47.12
592.769	47.23
593.106	47.27
593.444	47.36
593.781	47.36
594.119	47.47
594.456	47.44
594.793	47.47
595.131	47.45
595.468	47.45
595.805	47.49
596.143	47.51
596.48	47.55
596.817	47.64
597.154	47.69
597.491	47.73
597.828	47.72
598.165	47.71
598.502	47.67
598.839	47.69
599.176	47.74
599.512	47.82
599.849	47.9
600.186	47.9
600.523	47.99
600.859	48
601.196	48.01
601.532	48.08
601.869	48.14
602.205	48.26
602.542	48.31
602.878	48.35
603.215	48.37
603.551	48.45
603.887	48.48
604.223	48.56
604.56	48.57
604.896	48.62
605.232	48.75
605.568	48.82
605.904	48.86
606.24	48.94
606.576	49
606.912	49.04
607.248	49.1
607.583	49.09
607.919	49.17
608.255	49.16
608.591	49.26
608.926	49.34
609.262	49.43
609.597	49.53
609.933	49.59
610.268	49.57
610.604	49.61
610.939	49.61
611.275	49.6
611.61	49.72
611.945	49.74
612.281	49.73
612.616	49.69
612.951	49.67
613.286	49.71
613.621	49.73
613.956	49.73
614.291	49.82
614.626	49.93
614.961	49.95
615.296	50.15
615.631	50.16
615.966	50.24
616.3	50.26
616.635	50.22
616.97	50.21
617.304	50.35
617.639	50.32
617.973	50.42
618.308	50.38
618.642	50.3
618.977	50.33
619.311	50.32
619.646	50.3
619.98	50.43
620.314	50.48
620.648	50.42
620.983	50.51
621.317	50.51
621.651	50.49
621.985	50.54
622.319	50.41
622.653	50.41
622.987	50.41
623.321	50.42
623.655	50.42
623.988	50.5
624.322	50.48
624.656	50.54
624.99	50.41
625.323	50.49
625.657	50.5
625.99	50.53
626.324	50.58
626.657	50.7
626.991	50.66
627.324	50.63
627.658	50.66
627.991	50.6
628.324	50.58
628.657	50.65
628.991	50.73
629.324	50.87
629.657	50.84
629.99	50.81
630.323	50.81
630.656	50.92
630.989	50.9
631.322	50.97
631.655	51.03
631.987	51.23
632.32	51.25
632.653	51.23
632.986	51.29
633.318	51.35
633.651	51.34
633.984	51.28
634.316	51.21
634.649	51.29
634.981	51.36
635.313	51.48
635.646	51.49
635.978	51.54
636.31	51.48
636.643	51.61
636.975	51.64
637.307	51.6
637.639	51.57
637.971	51.55
638.303	51.56
638.635	51.38
638.967	51.3
639.299	51.23
639.631	51.33
639.963	51.3
640.295	51.36
640.626	51.37
640.958	51.48
641.29	51.59
641.621	51.59
641.953	51.63
642.285	51.55
642.616	51.52
642.948	51.39
643.279	51.31
643.61	51.29
643.942	51.34
644.273	51.43
644.604	51.38
644.936	51.44
645.267	51.39
645.598	51.47
645.929	51.49
646.26	51.66
646.591	51.73
646.922	51.77
647.253	51.67
647.584	51.72
647.915	51.7
648.245	51.81
648.576	51.77
648.907	51.75
649.238	51.65
649.568	51.62
649.899	51.65
650.229	51.66
650.56	51.64
650.89	51.64
651.221	51.62
651.551	51.69
651.882	51.63
652.212	51.74
652.542	51.74
652.872	51.69
653.203	51.6
653.533	51.44
653.863	51.45
654.193	51.35
654.523	51.31
654.853	51.2
655.183	51.06
655.513	51.22
655.843	51.2
656.172	51.41
656.502	51.5
656.832	51.53
657.162	51.62
657.491	51.68
657.821	51.73
658.15	51.81
658.48	51.73
658.809	51.79
659.139	51.8
659.468	51.8
659.798	51.8
660.127	51.83
660.456	51.9
660.785	51.88
661.115	52.1
661.444	52.12
661.773	52.15
662.102	52.18
662.431	52.07
662.76	52.13
663.089	52.01
663.418	52.02
663.747	52.02
664.076	52.02
664.404	52.01
664.733	51.83
665.062	51.69
665.39	51.88
665.719	51.9
666.048	51.79
666.376	51.82
666.705	51.83
667.033	51.94
667.362	51.89
667.69	51.93
668.018	51.74
668.347	51.73
668.675	51.92
669.003	51.92
669.331	51.87
669.659	51.85
669.987	51.91
670.315	51.85
670.643	51.85
670.971	51.86
671.299	51.87
671.627	52.07
671.955	52.2
672.283	52.13
672.61	52.12
672.938	52.08
673.266	52.22
673.593	52.39
673.921	52.34
674.249	52.36
674.576	52.27
674.904	52.42
675.231	52.61
675.558	52.54
675.886	52.64
676.213	52.75
676.54	52.74
676.867	52.78
677.195	52.74
677.522	52.74
677.849	52.78
678.176	52.72
678.503	52.7
678.83	52.61
679.157	52.57
679.484	52.66
679.81	52.68
680.137	52.62
680.464	52.6
680.791	52.49
681.117	52.53
681.444	52.62
681.771	52.61
682.097	52.4
682.424	52.33
682.75	52.29
683.077	52.18
683.403	52.21
683.729	52.18
684.056	52.22
684.382	52.25
684.708	52.06
685.034	52.13
685.36	52.02
685.686	52.03
686.012	51.99
686.339	51.95
686.664	51.93
686.99	51.81
687.316	51.7
687.642	51.72
687.968	51.78
688.294	51.85
688.619	51.96
688.945	51.94
689.271	52.14
689.596	52.08
689.922	52.15
690.247	52.07
690.573	52.08
690.898	51.99
691.224	51.98
691.549	52.21
691.874	52.1
692.2	52.27
692.525	52.28
692.85	52.34
693.175	52.35
693.5	52.29
693.825	52.47
694.15	52.49
694.475	52.5
694.8	52.48
695.125	52.34
695.45	52.32
695.775	52.4
696.099	52.25
696.424	52.23
696.749	52.21
697.073	52.38
697.398	52.52
697.723	52.56
698.047	52.46
698.372	52.43
698.696	52.61
699.02	52.54
699.345	52.53
699.669	52.46
699.993	52.35
700.318	52.42
700.642	52.28
700.966	52.33
701.29	52.37
701.614	52.21
701.938	52.34
702.262	52.16
702.586	52.22
702.91	52.21
703.234	52.34
703.557	52.37
703.881	52.14
704.205	51.91
704.529	51.92
704.852	51.98
705.176	51.94
705.499	51.7
705.823	51.6
706.146	51.61
706.47	51.75
706.793	51.92
707.117	51.87
707.44	51.96
707.763	52.16
708.086	52.18
708.409	52.29
708.733	52.28
709.056	52.34
709.379	52.41
709.702	52.42
710.025	52.34
710.348	52.22
710.671	52.17
710.993	52.31
711.316	52.32
711.639	52.4
711.962	52.48
712.284	52.55
712.607	52.62
712.93	52.61
713.252	52.5
713.575	52.49
713.897	52.35
714.22	52.45
714.542	52.08
714.864	52.13
715.187	52.21
715.509	51.9
715.831	52.01
716.153	52.07
716.475	52.03
716.798	52.12
717.12	52.13
717.442	52.1
717.764	52.1
718.085	52.07
718.407	52.16
718.729	52.06
719.051	52.15
719.373	52.17
719.695	52.16
720.016	52.16
720.338	52.04
720.659	52.37
720.981	52.23
721.302	52.47
721.624	52.22
721.945	52.15
722.267	52.33
722.588	52.16
722.909	52.04
723.231	52.12
723.552	51.95
723.873	52.13
724.194	52.25
724.515	52.28
724.836	52.35
725.157	52.28
725.478	52.2
725.799	52.15
726.12	52.25
726.441	52.3
726.762	52.18
727.083	52.25
727.403	52.15
727.724	52.4
728.045	52.43
728.365	52.71
728.686	52.74
729.006	52.79
729.327	52.84
729.647	52.7
729.967	52.88
730.288	52.96
730.608	52.83
730.928	53.03
731.249	52.84
731.569	52.93
731.889	52.94
732.209	53.15
732.529	53.25
732.849	53.01
733.169	53.07
733.489	53.27
733.809	53.32
734.129	53.24
734.448	53.07
734.768	53
735.088	52.97
735.408	53.1
735.727	53.15
736.047	53.19
736.366	53.26
736.686	53.04
737.005	53.13
737.325	53.24
737.644	52.99
737.963	53.05
738.283	53.02
738.602	52.92
738.921	52.94
739.24	53.08
739.56	53.41
739.879	53.58
740.198	53.66
740.517	53.61
740.836	53.71
741.155	53.4
741.473	53.45
741.792	53.28
742.111	53.24
742.43	53.1
742.748	52.95
743.067	52.91
743.386	52.83
743.704	52.62
744.023	52.5
744.341	52.5
744.66	52.49
744.978	52.39
745.297	52.35
745.615	52.25
745.933	51.88
746.252	51.65
746.57	51.52
746.888	51.65
747.206	51.65
747.524	51.63
747.842	51.78
748.16	51.72
748.478	51.93
748.796	51.8
749.114	52.05
749.432	52.21
749.749	52.24
750.067	52.3
750.385	52.49
750.703	52.83
751.02	52.82
751.338	52.76
751.655	52.89
751.973	53.15
752.29	53.13
752.608	53.09
752.925	52.75
753.242	52.56
753.56	52.28
753.877	52.41
754.194	52.51
754.511	52.85
754.828	52.76
755.145	52.73
755.462	52.86
755.779	52.77
756.096	52.63
756.413	52.61
756.73	52.47
757.047	52.26
757.364	51.87
757.68	51.56
757.997	51.72
758.314	51.69
758.63	51.51
758.947	51.26
759.264	50.95
759.58	51.15
759.896	51.69
760.213	51.73
760.529	51.71
760.846	51.63
761.162	51.63
761.478	51.7
761.794	51.6
762.11	51.61
762.426	51.56
762.743	51.68
763.059	51.66
763.375	51.98
763.69	52.15
764.006	52.13
764.322	52.34
764.638	52.36
764.954	52.4
765.27	52.58
765.585	52.6
765.901	53.09
766.216	53.15
766.532	52.67
766.848	52.59
767.163	52.47
767.478	52.43
767.794	52.5
768.109	52.57
768.424	52.48
768.74	52.71
769.055	52.73
769.37	52.58
769.685	52.76
770	52.79
770.315	52.54
770.63	52.55
770.945	52.38
771.26	52.31
771.575	52.37
771.89	52.24
772.205	52.32
772.52	51.8
772.834	52.1
773.149	52.34
773.464	52.59
773.778	52.85
774.093	52.74
774.407	52.67
774.722	52.59
775.036	52.68
775.351	51.86
775.665	51.56
775.979	51.3
776.293	50.77
776.608	50.37
776.922	50.49
777.236	50.89
777.55	51.25
777.864	51.6
778.178	51.46
778.492	51.26
778.806	51.5
779.12	51.38
779.434	51.1
779.747	50.94
780.061	50.98
780.375	50.51
780.689	50.78
781.002	50.98
781.316	51.26
781.629	51.35
781.943	51.89
782.256	52.24
782.57	52.64
782.883	52.94
783.196	52.74
783.51	52.98
783.823	53.04
784.136	52.9
784.449	52.52
784.762	52.45
785.075	52.88
785.388	53.1
785.701	53.58
786.014	54.08
786.327	54.12
786.64	54.24
786.953	54.81
787.266	54.68
787.578	54.03
787.891	53.59
788.204	53.72
788.516	53.45
788.829	53.39
789.141	53.14
789.454	53.28
789.766	53.86
790.079	54.05
790.391	54.49
790.703	54.53
791.016	54.52
791.328	54.78
791.64	54.52
791.952	54.34
792.264	54.33
792.576	53.85
792.888	53.93
793.2	53.86
793.512	53.7
793.824	53.51
794.136	53.62
794.448	54.05
794.76	54.08
795.071	53.99
795.383	53.71
795.695	54.27
796.006	53.81
796.318	53.58
796.629	53.31
796.941	52.56
797.252	53.09
797.564	53.66
797.875	52.91
798.186	52.68
798.497	52.28
798.809	51.64
799.12	51.69
799.431	51.66
799.742	51.62
800.053	51.58
800.364	51.72
800.675	51.73
800.986	51.57
801.297	51.49
801.608	51.87
801.918	52.17
802.229	51.86
802.54	52.25
802.851	52.61
803.161	52.83
803.472	53.04
803.782	52.52
804.093	51.97
804.403	52.5
804.714	53.36
805.024	53.55
805.334	54.32
805.645	54.32
805.955	54.22
806.265	54.36
806.575	54.56
806.885	54.85
807.195	55.05
807.505	55.36
807.815	55.69
808.125	55.64
808.435	55.75
808.745	55.66
809.055	55.58
809.365	54.86
809.674	54.92
809.984	54.78
810.294	55.3
810.603	55.11
810.913	55.06
811.222	54.24
811.532	54.85
811.841	54.96
812.151	55.4
812.46	55.73
812.769	55.15
813.079	54.25
813.388	54.06
813.697	54.25
814.006	53.91
814.315	53.09
814.624	52.55
814.933	52.64
815.242	53.63
815.551	54.14
815.86	55
816.169	54.73
816.478	54.37
816.786	53.58
817.095	53.41
817.404	53.78
817.712	53.11
818.021	52.72
818.33	52.62
818.638	52.12
818.947	51.55
819.255	51.84
819.563	51.86
819.872	51.75
820.18	51.63
820.488	51.48
820.796	51.82
821.105	51.82
821.413	51.54
821.721	51.15
822.029	51.17
822.337	51.12
822.645	51.16
822.953	51.34
823.26	51.51
823.568	51.48
823.876	51.41
824.184	51.54
824.491	51.38
824.799	51.32
825.107	51.35
825.414	51.47
825.722	51.43
826.029	51.45
826.337	51.6
826.644	51.58
826.951	51.83
827.259	51.74
827.566	51.77
827.873	51.8
828.18	51.97
828.488	51.94
828.795	51.92
829.102	51.65
829.409	51.43
829.716	51.32
830.023	51.47
830.329	51.34
830.636	51.42
830.943	51.76
831.25	51.81
831.557	51.75
831.863	52.19
832.17	51.68
832.476	51.7
832.783	51.5
833.089	51.95
833.396	51.62
833.702	51.51
834.009	51.48
834.315	51.57
834.621	51.75
834.928	51.72
835.234	51.46
835.54	51.61
835.846	51.47
836.152	51.16
836.458	51.19
836.764	50.61
837.07	50.35
837.376	50.35
837.682	50.29
837.988	50.6
838.293	50.24
838.599	50.88
838.905	51.42
839.211	51.15
839.516	50.96
839.822	50.78
840.127	50.43
840.433	50.85
840.738	50.71
841.044	50.56
841.349	51.07
841.654	51.59
841.959	51.8
842.265	53.24
842.57	54.32
842.875	53.94
843.18	55.14
843.485	55.93
843.79	54.63
844.095	55.41
844.4	54.36
844.705	54.26
845.01	53.81
845.315	53.42
845.619	54.72
845.924	53.71
846.229	53.48
846.533	53.8
846.838	53.77
847.142	55.19
847.447	55.41
847.751	54.04
848.056	53.84
848.36	55.15
848.664	53.8
848.969	52.71
849.273	52.07
849.577	52.04
849.881	52.03
850.185	52.99
850.489	52.46
850.794	52.57
851.097	51.02
851.401	53.66
851.705	52.32
852.009	51.2
852.313	50.32
852.617	49.43
852.92	50.6
853.224	50.9
853.528	50.04
853.831	48.47
854.135	48.12
854.438	48.22
854.742	47.93
855.045	48.15
855.349	48.45
855.652	48.85
855.955	49.32
856.259	49.8
856.562	51.11
856.865	50.65
857.168	51.26
857.471	52.14
857.774	49.53
858.077	49.05
858.38	51.32
858.683	52.42
858.986	55.18
859.289	53.62
859.592	54.81
859.894	57.02
860.197	57.3
860.5	57.78
860.802	57.51
861.105	54.92
861.407	54.9
861.71	54.85
862.012	59.19
862.315	59.8
862.617	56.27
862.919	54.67
863.222	54.85
863.524	56.22
863.826	55.88
864.128	56.17
864.43	56.41
864.732	55.16
865.034	54.63
865.336	53.47
865.638	54.24
865.94	52.12
866.242	49.64
866.544	50.13
866.846	51.09
867.147	50.57
867.449	50.47
867.751	49.98
868.052	50.17
868.354	47.81
868.655	47.8
868.957	49.37
869.258	50.77
869.56	49.94
869.861	49.47
870.162	50.1
870.463	49.7
870.765	50.13
871.066	48.83
871.367	48.83
871.668	49.06
871.969	48.57
872.27	48.37
872.571	50.12
872.872	50.77
873.173	48.97
873.473	49.39
873.774	51.67
874.075	51.48
874.376	50.59
874.676	51.08
874.977	51.63
875.277	50.26
875.578	48.68
875.878	48.99
876.179	48.23
876.479	48.4
876.78	48.99
877.08	49.85
877.38	50.76
877.68	51.31
877.981	50.55
878.281	50.83
878.581	52.51
