Data from BU57647_Reflection_00015.txt Node
Date: Mon Nov 18 16:49:51 EST 2019
User: vgr7
Spectrometer: USB2G7710
Scans to average: 3
Trigger mode: 4
Integration Time (sec): 2.000000E-2
Electric dark correction enabled: true
Boxcar width: 10
XAxis mode: Wavelengths
Number of Pixels in Spectrum: 2048
>>>>>Begin Spectral Data<<<<<
177.721	63.47
178.105	36.6
178.488	29.89
178.871	270.21
179.254	54.44
179.636	-204.35
180.019	206.58
180.402	65
180.785	239.41
181.168	181.75
181.55	124.81
181.933	86.21
182.316	60.13
182.698	55.65
183.081	145.32
183.463	271.53
183.846	-3371.7
184.228	-9536.36
184.611	-700
184.993	-146.04
185.376	-175.07
185.758	-133.56
186.14	-97.04
186.522	-154.46
186.904	-206.78
187.287	-281.05
187.669	-216.44
188.051	-273.9
188.433	-125.78
188.815	-49.67
189.197	-58.86
189.579	-56.17
189.961	-84.68
190.342	-87.53
190.724	-32.66
191.106	-10.9
191.488	-9.81
191.869	10.61
192.251	-5.26
192.633	-13.83
193.014	-11.97
193.396	16
193.777	13.96
194.159	-0.72
194.54	66.14
194.922	166.84
195.303	121.24
195.684	31.99
196.065	47.21
196.447	26.03
196.828	0.09
197.209	18.99
197.59	-12.74
197.971	-22.24
198.352	-15.52
198.733	-27.07
199.114	-36.1
199.495	-43.88
199.876	-20.14
200.257	-9.42
200.638	-5.87
201.018	-9.62
201.399	-10.63
201.78	1.94
202.16	-10.49
202.541	-17.36
202.922	-19.43
203.302	-42.79
203.683	-48.2
204.063	-86.12
204.444	-68.66
204.824	-95.03
205.204	-129.74
205.585	-130.24
205.965	-187.44
206.345	-170.86
206.725	-755.81
207.106	-722.97
207.486	341.9
207.866	488.76
208.246	1412.88
208.626	1175.38
209.006	-798.36
209.386	2335.29
209.766	-4708.51
210.145	-533.45
210.525	-109.91
210.905	-92.43
211.285	-67.14
211.664	-45.98
212.044	-44.12
212.424	-29.38
212.803	-16.7
213.183	-2.87
213.562	15.54
213.942	16.79
214.321	0.69
214.701	-8.45
215.08	-19.36
215.459	-18.82
215.838	-8.55
216.218	-7.56
216.597	8.35
216.976	8.45
217.355	6.44
217.734	3.79
218.113	-3.88
218.492	6.79
218.871	1.62
219.25	0.72
219.629	7.48
220.008	7.11
220.387	1.65
220.766	-7.1
221.144	-3.7
221.523	-25.96
221.902	-19.49
222.28	-14.16
222.659	4.53
223.037	31.65
223.416	33.2
223.794	10.01
224.173	-3.86
224.551	-7.01
224.929	-7.85
225.308	-5.93
225.686	-7.08
226.064	-6.44
226.442	-3.91
226.821	3.63
227.199	-0.29
227.577	-8.18
227.955	-7.51
228.333	-7.54
228.711	-4.18
229.089	1.13
229.467	4.76
229.845	3.73
230.222	4.05
230.6	-1
230.978	-4.12
231.356	0.54
231.733	2.36
232.111	5.54
232.488	6.55
232.866	7.19
233.243	5.41
233.621	4.92
233.998	6.46
234.376	5.55
234.753	4.47
235.13	4.8
235.508	6.31
235.885	6.92
236.262	5.45
236.639	4.77
237.016	3.42
237.393	4.28
237.77	5.23
238.147	5.55
238.524	6.44
238.901	7.37
239.278	7.25
239.655	7.96
240.032	7.89
240.409	7.05
240.785	6.85
241.162	7.25
241.539	7.31
241.915	7.25
242.292	6.79
242.668	6.93
243.045	6.94
243.421	6.9
243.798	6.31
244.174	6.54
244.551	6.83
244.927	6.42
245.303	6.4
245.679	6.2
246.056	5.88
246.432	5.87
246.808	5.72
247.184	5.31
247.56	4.92
247.936	4.63
248.312	4.69
248.688	4.69
249.064	4.69
249.44	4.72
249.815	4.71
250.191	4.87
250.567	5.12
250.943	5.03
251.318	4.94
251.694	5.07
252.069	5.08
252.445	4.73
252.82	4.76
253.196	4.64
253.571	4.81
253.947	4.95
254.322	5.35
254.697	5.27
255.073	5.17
255.448	5.41
255.823	5.4
256.198	5.62
256.573	5.6
256.948	5.63
257.323	5.7
257.698	5.73
258.073	5.56
258.448	5.21
258.823	5.22
259.198	5.19
259.573	5.27
259.948	5.16
260.322	5.35
260.697	5.38
261.072	5.2
261.446	5.15
261.821	5.03
262.195	4.84
262.57	4.72
262.944	4.83
263.319	4.68
263.693	4.69
264.067	4.75
264.442	4.75
264.816	4.56
265.19	4.54
265.564	4.34
265.938	4.49
266.313	4.38
266.687	4.8
267.061	4.9
267.435	4.76
267.809	4.8
268.183	4.69
268.556	4.72
268.93	4.86
269.304	4.93
269.678	5.18
270.051	5.08
270.425	5.15
270.799	5.15
271.172	5.11
271.546	5.39
271.919	5.24
272.293	5.36
272.666	5.28
273.04	5.28
273.413	5.22
273.787	5.09
274.16	5.34
274.533	5.08
274.906	5.04
275.279	5.13
275.653	5.13
276.026	5.25
276.399	5.18
276.772	5.14
277.145	4.97
277.518	4.85
277.891	5.12
278.263	5.1
278.636	5.32
279.009	5.47
279.382	5.36
279.755	5.39
280.127	5.41
280.5	5.41
280.872	5.41
281.245	5.44
281.617	5.73
281.99	5.7
282.362	5.8
282.735	5.63
283.107	5.45
283.479	5.69
283.852	5.56
284.224	5.57
284.596	5.56
284.968	5.53
285.34	5.61
285.713	5.55
286.085	5.57
286.457	5.53
286.829	5.54
287.201	5.47
287.572	5.37
287.944	5.38
288.316	5.59
288.688	5.64
289.06	5.72
289.431	5.64
289.803	5.76
290.175	5.62
290.546	5.9
290.918	6.13
291.289	6.05
291.661	6.21
292.032	6.33
292.403	6.51
292.775	6.69
293.146	6.71
293.517	6.62
293.889	6.7
294.26	6.76
294.631	6.67
295.002	6.73
295.373	6.79
295.744	6.93
296.115	6.88
296.486	6.78
296.857	6.86
297.228	7.02
297.599	6.88
297.97	7.01
298.34	7.06
298.711	7.19
299.082	7.18
299.452	7.24
299.823	7.42
300.194	7.44
300.564	7.55
300.935	7.61
301.305	7.72
301.676	7.79
302.046	7.78
302.416	8.11
302.787	8.17
303.157	8.31
303.527	8.25
303.897	8.28
304.267	8.46
304.637	8.53
305.008	8.4
305.378	8.64
305.748	8.8
306.117	8.8
306.487	8.91
306.857	9.03
307.227	9.07
307.597	9.26
307.967	9.38
308.336	9.4
308.706	9.58
309.076	9.8
309.445	9.94
309.815	10.06
310.184	10.08
310.554	10.19
310.923	10.32
311.293	10.4
311.662	10.59
312.031	10.77
312.401	10.87
312.77	11.09
313.139	11.24
313.508	11.23
313.877	11.33
314.246	11.29
314.616	11.4
314.985	11.64
315.353	11.56
315.722	11.81
316.091	11.91
316.46	11.91
316.829	12.1
317.198	12.25
317.567	12.45
317.935	12.39
318.304	12.55
318.672	12.67
319.041	12.91
319.41	13.04
319.778	13.08
320.147	13.2
320.515	13.33
320.883	13.32
321.252	13.52
321.62	13.7
321.988	13.88
322.357	13.93
322.725	13.89
323.093	14.01
323.461	13.95
323.829	14.15
324.197	14.39
324.565	14.37
324.933	14.44
325.301	14.45
325.669	14.69
326.037	14.7
326.405	14.69
326.772	14.88
327.14	15.01
327.508	15.12
327.875	15.23
328.243	15.4
328.61	15.51
328.978	15.67
329.346	15.72
329.713	15.79
330.08	15.99
330.448	15.97
330.815	15.89
331.182	15.93
331.55	16.04
331.917	15.87
332.284	15.97
332.651	15.88
333.018	15.99
333.385	16.07
333.752	16.25
334.119	16.39
334.486	16.36
334.853	16.24
335.22	16.2
335.587	16.27
335.954	16.25
336.32	16.21
336.687	16.1
337.054	16.17
337.42	16.31
337.787	16.26
338.153	16.4
338.52	16.57
338.886	16.57
339.253	16.55
339.619	16.77
339.986	16.77
340.352	17.05
340.718	17.11
341.084	17.17
341.451	17.15
341.817	17.34
342.183	17.39
342.549	17.51
342.915	17.6
343.281	17.67
343.647	17.61
344.013	17.7
344.379	17.83
344.745	17.89
345.11	17.78
345.476	17.83
345.842	17.97
346.208	18.02
346.573	18.1
346.939	18.24
347.304	18.27
347.67	18.31
348.035	18.19
348.401	18.26
348.766	18.3
349.132	18.31
349.497	18.14
349.862	18.1
350.228	18.04
350.593	18.14
350.958	18.16
351.323	18.22
351.688	18.27
352.053	18.32
352.418	18.32
352.783	18.34
353.148	18.26
353.513	18.11
353.878	18.09
354.243	18.13
354.608	18.02
354.972	18.02
355.337	18.05
355.702	18.05
356.066	17.88
356.431	17.7
356.795	17.81
357.16	17.85
357.524	17.77
357.889	17.66
358.253	17.62
358.618	17.53
358.982	17.52
359.346	17.44
359.71	17.38
360.075	17.32
360.439	17.34
360.803	17.37
361.167	17.28
361.531	17.22
361.895	17.05
362.259	17.02
362.623	16.98
362.987	16.9
363.351	16.84
363.714	16.82
364.078	16.86
364.442	16.65
364.806	16.53
365.169	16.51
365.533	16.6
365.896	16.46
366.26	16.52
366.623	16.49
366.987	16.47
367.35	16.4
367.714	16.32
368.077	16.17
368.44	16.08
368.803	16.1
369.167	16.04
369.53	15.96
369.893	15.88
370.256	15.75
370.619	15.68
370.982	15.6
371.345	15.43
371.708	15.37
372.071	15.35
372.434	15.25
372.797	15.16
373.159	15.02
373.522	14.9
373.885	14.71
374.247	14.56
374.61	14.5
374.973	14.36
375.335	14.25
375.698	14.21
376.06	14.09
376.423	14.01
376.785	13.93
377.147	13.88
377.51	13.82
377.872	13.76
378.234	13.68
378.596	13.57
378.958	13.58
379.321	13.44
379.683	13.39
380.045	13.32
380.407	13.18
380.769	13
381.13	12.94
381.492	12.81
381.854	12.75
382.216	12.58
382.578	12.54
382.939	12.43
383.301	12.35
383.663	12.26
384.024	12.15
384.386	12.11
384.747	12.08
385.109	12
385.47	11.9
385.832	11.81
386.193	11.79
386.554	11.71
386.916	11.61
387.277	11.5
387.638	11.43
387.999	11.37
388.36	11.39
388.721	11.36
389.082	11.31
389.443	11.18
389.804	11.15
390.165	11.02
390.526	10.97
390.887	10.87
391.248	10.85
391.609	10.78
391.969	10.73
392.33	10.65
392.691	10.58
393.051	10.51
393.412	10.47
393.772	10.36
394.133	10.26
394.493	10.26
394.854	10.19
395.214	10.14
395.574	10.08
395.935	9.97
396.295	9.9
396.655	9.79
397.015	9.76
397.376	9.71
397.736	9.68
398.096	9.63
398.456	9.59
398.816	9.53
399.176	9.45
399.535	9.34
399.895	9.25
400.255	9.17
400.615	9.1
400.975	9
401.334	8.93
401.694	8.86
402.054	8.78
402.413	8.7
402.773	8.59
403.132	8.56
403.492	8.52
403.851	8.46
404.211	8.45
404.57	8.35
404.929	8.25
405.288	8.2
405.648	8.16
406.007	8.12
406.366	8.08
406.725	8.07
407.084	8.03
407.443	8.01
407.802	8
408.161	7.96
408.52	7.97
408.879	7.97
409.238	7.96
409.596	7.96
409.955	7.93
410.314	7.93
410.673	7.88
411.031	7.84
411.39	7.81
411.748	7.79
412.107	7.79
412.465	7.81
412.824	7.76
413.182	7.72
413.54	7.68
413.899	7.64
414.257	7.57
414.615	7.53
414.974	7.52
415.332	7.47
415.69	7.44
416.048	7.38
416.406	7.33
416.764	7.29
417.122	7.26
417.48	7.23
417.838	7.2
418.195	7.18
418.553	7.15
418.911	7.14
419.269	7.1
419.626	7.05
419.984	7
420.342	6.98
420.699	6.96
421.057	6.94
421.414	6.9
421.772	6.86
422.129	6.84
422.486	6.79
422.844	6.76
423.201	6.72
423.558	6.69
423.915	6.68
424.273	6.67
424.63	6.63
424.987	6.62
425.344	6.58
425.701	6.55
426.058	6.54
426.415	6.5
426.772	6.48
427.128	6.46
427.485	6.46
427.842	6.42
428.199	6.4
428.555	6.36
428.912	6.34
429.269	6.33
429.625	6.32
429.982	6.32
430.338	6.31
430.695	6.28
431.051	6.26
431.407	6.24
431.764	6.24
432.12	6.22
432.476	6.2
432.832	6.2
433.189	6.21
433.545	6.2
433.901	6.2
434.257	6.18
434.613	6.18
434.969	6.16
435.325	6.2
435.681	6.22
436.036	6.22
436.392	6.24
436.748	6.23
437.104	6.21
437.459	6.19
437.815	6.19
438.171	6.2
438.526	6.22
438.882	6.23
439.237	6.22
439.593	6.23
439.948	6.23
440.304	6.23
440.659	6.22
441.014	6.23
441.369	6.21
441.725	6.2
442.08	6.2
442.435	6.19
442.79	6.16
443.145	6.12
443.5	6.1
443.855	6.08
444.21	6.08
444.565	6.1
444.92	6.11
445.275	6.1
445.629	6.09
445.984	6.06
446.339	6.03
446.693	6.01
447.048	5.98
447.403	5.97
447.757	5.94
448.112	5.92
448.466	5.88
448.82	5.88
449.175	5.88
449.529	5.88
449.883	5.87
450.238	5.84
450.592	5.83
450.946	5.82
451.3	5.79
451.654	5.79
452.008	5.74
452.362	5.69
452.716	5.67
453.07	5.67
453.424	5.66
453.778	5.65
454.132	5.65
454.486	5.64
454.839	5.64
455.193	5.62
455.547	5.62
455.9	5.61
456.254	5.59
456.607	5.57
456.961	5.56
457.314	5.56
457.668	5.58
458.021	5.55
458.375	5.56
458.728	5.57
459.081	5.56
459.434	5.58
459.787	5.59
460.141	5.6
460.494	5.61
460.847	5.62
461.2	5.6
461.553	5.62
461.906	5.64
462.259	5.65
462.611	5.7
462.964	5.73
463.317	5.74
463.67	5.77
464.022	5.79
464.375	5.8
464.728	5.83
465.08	5.84
465.433	5.88
465.785	5.9
466.138	5.92
466.49	5.94
466.843	5.96
467.195	5.99
467.547	6.02
467.899	6.05
468.252	6.04
468.604	6.11
468.956	6.13
469.308	6.15
469.66	6.16
470.012	6.18
470.364	6.19
470.716	6.22
471.068	6.24
471.42	6.3
471.772	6.32
472.123	6.34
472.475	6.38
472.827	6.42
473.178	6.44
473.53	6.47
473.882	6.47
474.233	6.47
474.585	6.48
474.936	6.49
475.288	6.49
475.639	6.53
475.99	6.53
476.342	6.52
476.693	6.52
477.044	6.55
477.395	6.52
477.746	6.52
478.097	6.5
478.448	6.51
478.8	6.47
479.15	6.44
479.501	6.43
479.852	6.41
480.203	6.39
480.554	6.39
480.905	6.37
481.255	6.38
481.606	6.39
481.957	6.4
482.307	6.39
482.658	6.39
483.009	6.37
483.359	6.37
483.709	6.37
484.06	6.35
484.41	6.33
484.761	6.32
485.111	6.31
485.461	6.31
485.811	6.29
486.162	6.29
486.512	6.29
486.862	6.3
487.212	6.29
487.562	6.29
487.912	6.28
488.262	6.28
488.612	6.28
488.961	6.26
489.311	6.25
489.661	6.25
490.011	6.24
490.36	6.24
490.71	6.23
491.06	6.25
491.409	6.27
491.759	6.27
492.108	6.29
492.458	6.32
492.807	6.33
493.157	6.36
493.506	6.39
493.855	6.4
494.204	6.42
494.554	6.46
494.903	6.48
495.252	6.52
495.601	6.57
495.95	6.62
496.299	6.67
496.648	6.7
496.997	6.75
497.346	6.81
497.695	6.89
498.043	6.95
498.392	6.98
498.741	7.04
499.09	7.09
499.438	7.14
499.787	7.22
500.135	7.29
500.484	7.36
500.832	7.43
501.181	7.52
501.529	7.59
501.878	7.68
502.226	7.77
502.574	7.87
502.923	7.94
503.271	8.03
503.619	8.16
503.967	8.3
504.315	8.39
504.663	8.49
505.011	8.61
505.359	8.71
505.707	8.84
506.055	8.95
506.403	9.12
506.751	9.27
507.098	9.38
507.446	9.52
507.794	9.65
508.141	9.78
508.489	9.92
508.837	10.07
509.184	10.2
509.531	10.35
509.879	10.5
510.226	10.67
510.574	10.83
510.921	10.97
511.268	11.1
511.616	11.26
511.963	11.45
512.31	11.61
512.657	11.8
513.004	11.99
513.351	12.2
513.698	12.37
514.045	12.59
514.392	12.82
514.739	13.05
515.086	13.26
515.432	13.5
515.779	13.7
516.126	13.92
516.473	14.14
516.819	14.36
517.166	14.54
517.512	14.73
517.859	14.93
518.205	15.1
518.552	15.27
518.898	15.46
519.245	15.62
519.591	15.83
519.937	16.01
520.283	16.21
520.629	16.42
520.976	16.65
521.322	16.85
521.668	17.05
522.014	17.28
522.36	17.49
522.706	17.72
523.052	18.01
523.398	18.27
523.743	18.54
524.089	18.83
524.435	19.12
524.781	19.35
525.126	19.59
525.472	19.85
525.817	20.07
526.163	20.3
526.509	20.48
526.854	20.64
527.199	20.79
527.545	20.93
527.89	21.08
528.235	21.23
528.581	21.37
528.926	21.53
529.271	21.69
529.616	21.87
529.961	22.03
530.306	22.18
530.651	22.34
530.996	22.54
531.341	22.68
531.686	22.86
532.031	23.07
532.376	23.26
532.721	23.45
533.065	23.66
533.41	23.83
533.755	24.05
534.099	24.27
534.444	24.47
534.788	24.71
535.133	24.93
535.477	25.15
535.822	25.38
536.166	25.59
536.51	25.84
536.855	26.07
537.199	26.35
537.543	26.65
537.887	26.94
538.231	27.2
538.576	27.49
538.92	27.77
539.264	28
539.608	28.24
539.951	28.44
540.295	28.64
540.639	28.86
540.983	29.06
541.327	29.26
541.671	29.46
542.014	29.65
542.358	29.84
542.701	30.03
543.045	30.21
543.389	30.42
543.732	30.57
544.075	30.78
544.419	30.97
544.762	31.17
545.105	31.38
545.449	31.61
545.792	31.87
546.135	32.1
546.478	32.35
546.821	32.55
547.165	32.81
547.508	33.08
547.851	33.32
548.194	33.55
548.536	33.85
548.879	34.15
549.222	34.43
549.565	34.71
549.908	34.98
550.25	35.29
550.593	35.61
550.936	35.95
551.278	36.25
551.621	36.51
551.963	36.78
552.306	36.99
552.648	37.24
552.991	37.48
553.333	37.7
553.675	37.97
554.017	38.24
554.36	38.48
554.702	38.73
555.044	39.05
555.386	39.31
555.728	39.51
556.07	39.75
556.412	39.98
556.754	40.14
557.096	40.39
557.438	40.63
557.78	40.8
558.121	41.01
558.463	41.19
558.805	41.46
559.147	41.7
559.488	41.98
559.83	42.18
560.171	42.39
560.513	42.61
560.854	42.86
561.196	43.12
561.537	43.36
561.878	43.56
562.22	43.73
562.561	43.94
562.902	44.11
563.243	44.25
563.584	44.35
563.925	44.58
564.266	44.75
564.607	44.88
564.948	45.09
565.289	45.25
565.63	45.45
565.971	45.58
566.312	45.72
566.653	45.88
566.993	46
567.334	46.19
567.675	46.34
568.015	46.48
568.356	46.63
568.696	46.81
569.037	46.93
569.377	47.04
569.718	47.21
570.058	47.41
570.398	47.61
570.739	47.81
571.079	47.96
571.419	48.13
571.759	48.29
572.099	48.45
572.439	48.61
572.779	48.79
573.119	48.9
573.459	49.05
573.799	49.18
574.139	49.32
574.479	49.42
574.819	49.55
575.158	49.68
575.498	49.81
575.838	49.95
576.177	50.1
576.517	50.26
576.856	50.41
577.196	50.47
577.535	50.59
577.875	50.71
578.214	50.86
578.553	50.95
578.893	51.08
579.232	51.23
579.571	51.36
579.91	51.47
580.25	51.64
580.589	51.73
580.928	51.78
581.267	51.89
581.606	52
581.945	52.09
582.283	52.17
582.622	52.28
582.961	52.28
583.3	52.35
583.639	52.43
583.977	52.5
584.316	52.56
584.654	52.62
584.993	52.77
585.332	52.8
585.67	52.9
586.008	52.97
586.347	52.99
586.685	53.05
587.024	53.08
587.362	53.17
587.7	53.27
588.038	53.34
588.376	53.4
588.715	53.43
589.053	53.56
589.391	53.59
589.729	53.66
590.067	53.78
590.404	53.89
590.742	53.99
591.08	53.99
591.418	54.18
591.756	54.29
592.093	54.21
592.431	54.31
592.769	54.38
593.106	54.43
593.444	54.48
593.781	54.54
594.119	54.66
594.456	54.7
594.793	54.72
595.131	54.84
595.468	55.04
595.805	55.13
596.143	55.09
596.48	55.12
596.817	55.2
597.154	55.23
597.491	55.26
597.828	55.28
598.165	55.39
598.502	55.38
598.839	55.47
599.176	55.64
599.512	55.73
599.849	55.77
600.186	55.87
600.523	55.92
600.859	56.02
601.196	56.03
601.532	56.01
601.869	56
602.205	55.92
602.542	55.9
602.878	55.93
603.215	56.02
603.551	56.09
603.887	56.08
604.223	56.08
604.56	56.19
604.896	56.25
605.232	56.23
605.568	56.33
605.904	56.31
606.24	56.31
606.576	56.31
606.912	56.4
607.248	56.39
607.583	56.38
607.919	56.31
608.255	56.39
608.591	56.5
608.926	56.57
609.262	56.73
609.597	56.75
609.933	56.79
610.268	56.81
610.604	56.88
610.939	56.88
611.275	56.93
611.61	56.92
611.945	56.92
612.281	56.95
612.616	56.9
612.951	56.94
613.286	57.01
613.621	57
613.956	56.99
614.291	57.02
614.626	57.08
614.961	57.25
615.296	57.25
615.631	57.27
615.966	57.35
616.3	57.27
616.635	57.27
616.97	57.28
617.304	57.25
617.639	57.3
617.973	57.28
618.308	57.31
618.642	57.29
618.977	57.31
619.311	57.35
619.646	57.36
619.98	57.41
620.314	57.38
620.648	57.43
620.983	57.53
621.317	57.67
621.651	57.78
621.985	57.75
622.319	57.72
622.653	57.75
622.987	57.87
623.321	57.81
623.655	57.85
623.988	57.87
624.322	57.82
624.656	57.75
624.99	57.85
625.323	57.85
625.657	57.82
625.99	57.79
626.324	57.87
626.657	57.92
626.991	57.93
627.324	57.91
627.658	58.01
627.991	57.97
628.324	57.86
628.657	57.8
628.991	57.84
629.324	57.88
629.657	57.86
629.99	57.77
630.323	57.9
630.656	57.94
630.989	58.03
631.322	58.21
631.655	58.28
631.987	58.3
632.32	58.34
632.653	58.43
632.986	58.46
633.318	58.42
633.651	58.45
633.984	58.48
634.316	58.46
634.649	58.36
634.981	58.31
635.313	58.34
635.646	58.42
635.978	58.41
636.31	58.44
636.643	58.53
636.975	58.54
637.307	58.53
637.639	58.49
637.971	58.47
638.303	58.4
638.635	58.43
638.967	58.47
639.299	58.47
639.631	58.39
639.963	58.45
640.295	58.44
640.626	58.43
640.958	58.48
641.29	58.58
641.621	58.54
641.953	58.63
642.285	58.69
642.616	58.69
642.948	58.83
643.279	58.81
643.61	58.74
643.942	58.67
644.273	58.73
644.604	58.72
644.936	58.56
645.267	58.63
645.598	58.48
645.929	58.43
646.26	58.43
646.591	58.56
646.922	58.54
647.253	58.62
647.584	58.6
647.915	58.49
648.245	58.45
648.576	58.58
648.907	58.51
649.238	58.51
649.568	58.57
649.899	58.49
650.229	58.56
650.56	58.71
650.89	58.82
651.221	58.69
651.551	58.68
651.882	58.79
652.212	58.76
652.542	58.9
652.872	58.96
653.203	58.87
653.533	58.9
653.863	58.86
654.193	58.77
654.523	58.84
654.853	58.79
655.183	58.82
655.513	58.82
655.843	58.9
656.172	58.93
656.502	58.88
656.832	58.84
657.162	58.83
657.491	58.58
657.821	58.6
658.15	58.68
658.48	58.7
658.809	58.68
659.139	58.72
659.468	58.7
659.798	58.68
660.127	58.8
660.456	58.7
660.785	58.89
661.115	58.92
661.444	58.93
661.773	58.95
662.102	59.03
662.431	59.03
662.76	59.03
663.089	59
663.418	58.99
663.747	58.88
664.076	58.88
664.404	59.12
664.733	59.17
665.062	59.17
665.39	59.33
665.719	59.3
666.048	59.29
666.376	59.31
666.705	59.22
667.033	59.19
667.362	59.34
667.69	59.12
668.018	59.13
668.347	59.06
668.675	59.15
669.003	59.1
669.331	59.12
669.659	59.23
669.987	59.31
670.315	59.28
670.643	59.59
670.971	59.56
671.299	59.45
671.627	59.32
671.955	59.47
672.283	59.26
672.61	59.3
672.938	59.41
673.266	59.43
673.593	59.61
673.921	59.55
674.249	59.56
674.576	59.56
674.904	59.51
675.231	59.43
675.558	59.49
675.886	59.46
676.213	59.39
676.54	59.25
676.867	59.25
677.195	59.39
677.522	59.28
677.849	59.34
678.176	59.45
678.503	59.69
678.83	59.73
679.157	59.75
679.484	59.83
679.81	59.74
680.137	59.78
680.464	59.69
680.791	59.84
681.117	59.82
681.444	59.83
681.771	59.96
682.097	60.06
682.424	59.99
682.75	59.89
683.077	59.98
683.403	60.04
683.729	60.07
684.056	60.1
684.382	60.11
684.708	60.19
685.034	60.12
685.36	59.99
685.686	59.91
686.012	59.91
686.339	59.88
686.664	59.88
686.99	59.73
687.316	59.81
687.642	59.71
687.968	59.71
688.294	59.6
688.619	59.56
688.945	59.52
689.271	59.49
689.596	59.59
689.922	59.4
690.247	59.34
690.573	59.21
690.898	59.04
691.224	59.01
691.549	58.92
691.874	58.94
692.2	58.85
692.525	58.73
692.85	58.72
693.175	58.75
693.5	58.77
693.825	58.9
694.15	58.73
694.475	58.7
694.8	58.69
695.125	58.82
695.45	58.78
695.775	58.94
696.099	58.9
696.424	59.01
696.749	59.1
697.073	59.14
697.398	59.19
697.723	59.03
698.047	59.04
698.372	58.99
698.696	59.03
699.02	59.12
699.345	59.23
699.669	59.36
699.993	59.39
700.318	59.24
700.642	59.38
700.966	59.45
701.29	59.38
701.614	59.38
701.938	59.51
702.262	59.49
702.586	59.39
702.91	59.51
703.234	59.63
703.557	59.8
703.881	59.84
704.205	60.02
704.529	60.41
704.852	60.32
705.176	60.3
705.499	60.21
705.823	60.04
706.146	60.09
706.47	60.21
706.793	60.16
707.117	60.2
707.44	60.09
707.763	60.13
708.086	60.28
708.409	60.33
708.733	60.31
709.056	60.41
709.379	60.46
709.702	60.38
710.025	60.29
710.348	60.3
710.671	60.09
710.993	59.83
711.316	59.78
711.639	60.01
711.962	59.98
712.284	59.98
712.607	60.04
712.93	59.86
713.252	59.7
713.575	59.8
713.897	59.9
714.22	59.85
714.542	59.58
714.864	59.53
715.187	59.48
715.509	59.38
715.831	59.3
716.153	59.35
716.475	59.32
716.798	59.32
717.12	59.24
717.442	59.32
717.764	59.29
718.085	59.24
718.407	59.01
718.729	59.01
719.051	59.16
719.373	59.04
719.695	59.2
720.016	59.14
720.338	59.08
720.659	59.04
720.981	59.1
721.302	59.53
721.624	59.57
721.945	59.68
722.267	59.66
722.588	59.8
722.909	59.6
723.231	59.49
723.552	59.45
723.873	59.36
724.194	59.39
724.515	59.68
724.836	59.77
725.157	59.98
725.478	60.08
725.799	59.77
726.12	59.92
726.441	59.93
726.762	59.96
727.083	59.8
727.403	59.79
727.724	59.37
728.045	59.15
728.365	59.3
728.686	59.18
729.006	59.23
729.327	58.99
729.647	59.25
729.967	59.4
730.288	59.31
730.608	59.32
730.928	59.47
731.249	59.34
731.569	59.27
731.889	59.19
732.209	59.1
732.529	59.36
732.849	59.3
733.169	59.12
733.489	59.21
733.809	59.39
734.129	59.54
734.448	59.79
734.768	60.02
735.088	59.98
735.408	59.79
735.727	59.83
736.047	60.02
736.366	59.82
736.686	59.91
737.005	59.96
737.325	60.04
737.644	59.72
737.963	59.88
738.283	59.82
738.602	59.95
738.921	59.93
739.24	59.67
739.56	59.89
739.879	59.82
740.198	60.07
740.517	60.02
740.836	60.09
741.155	60.29
741.473	60.33
741.792	60.26
742.111	60.48
742.43	60.65
742.748	60.76
743.067	60.63
743.386	60.7
743.704	60.47
744.023	60.5
744.341	60.53
744.66	60.35
744.978	60.58
745.297	60.41
745.615	60.52
745.933	60.41
746.252	60.36
746.57	60.58
746.888	60.61
747.206	60.47
747.524	60.21
747.842	59.84
748.16	59.77
748.478	59.86
748.796	59.66
749.114	59.57
749.432	59.47
749.749	59.7
750.067	59.46
750.385	59.62
750.703	59.39
751.02	59.72
751.338	59.87
751.655	59.58
751.973	59.51
752.29	59.54
752.608	60.09
752.925	60.19
753.242	60.05
753.56	59.55
753.877	59.95
754.194	59.92
754.511	60.46
754.828	60.34
755.145	60.48
755.462	61.04
755.779	60.7
756.096	60.6
756.413	60.89
756.73	61.11
757.047	61.05
757.364	61.29
757.68	61.1
757.997	61.03
758.314	61.25
758.63	61.32
758.947	61.28
759.264	60.88
759.58	60.62
759.896	60.82
760.213	60.91
760.529	60.47
760.846	60.62
761.162	60.54
761.478	60.43
761.794	60.45
762.11	59.96
762.426	60.14
762.743	60.23
763.059	60.1
763.375	60.14
763.69	60.46
764.006	60.43
764.322	60.58
764.638	60.65
764.954	60.84
765.27	60.76
765.585	60.88
765.901	61
766.216	60.83
766.532	60.65
766.848	60.55
767.163	60.88
767.478	60.66
767.794	60.71
768.109	60.82
768.424	60.81
768.74	61.16
769.055	61.27
769.37	61.31
769.685	61.18
770	61.12
770.315	60.86
770.63	60.81
770.945	60.61
771.26	60.5
771.575	60.2
771.89	60.37
772.205	60.1
772.52	59.94
772.834	60.37
773.149	60.84
773.464	60.68
773.778	60.72
774.093	61.01
774.407	60.15
774.722	59.93
775.036	59.69
775.351	59.48
775.665	59.69
775.979	59.55
776.293	59.44
776.608	59.38
776.922	59.07
777.236	59.37
777.55	59.34
777.864	58.99
778.178	59.12
778.492	58.93
778.806	59.16
779.12	59.44
779.434	59.07
779.747	58.94
780.061	58.97
780.375	58.79
780.689	59.11
781.002	59.67
781.316	60.57
781.629	61.12
781.943	61.18
782.256	61.25
782.57	61.36
782.883	61.62
783.196	61.55
783.51	61.93
783.823	61.3
784.136	62.24
784.449	62.67
784.762	62.07
785.075	62.5
785.388	62.35
785.701	62.01
786.014	62.12
786.327	61.7
786.64	62.36
786.953	62.59
787.266	62.74
787.578	62.78
787.891	61.59
788.204	61.2
788.516	61.03
788.829	60.51
789.141	60.43
789.454	60.11
789.766	60.4
790.079	60.74
790.391	61.25
790.703	60.7
791.016	61.02
791.328	61.07
791.64	60.51
791.952	61.07
792.264	61.28
792.576	61.09
792.888	61.86
793.2	61.87
793.512	60.87
793.824	60.38
794.136	60.25
794.448	60.6
794.76	60.88
795.071	61.4
795.383	61.12
795.695	60.98
796.006	60.91
796.318	60.87
796.629	60.33
796.941	60.25
797.252	60.34
797.564	60.2
797.875	60.81
798.186	61.25
798.497	60.74
798.809	60.9
799.12	60.87
799.431	59.98
799.742	59.87
800.053	60.26
800.364	60.32
800.675	60.83
800.986	60.65
801.297	60.43
801.608	60.1
801.918	60.26
802.229	60.52
802.54	60.91
802.851	60.84
803.161	61.01
803.472	61.13
803.782	60.97
804.093	60.72
804.403	60.21
804.714	60.36
805.024	59.95
805.334	59.45
805.645	59.76
805.955	60.29
806.265	59.91
806.575	59.88
806.885	60.45
807.195	60.36
807.505	60.94
807.815	61.24
808.125	61.41
808.435	61.49
808.745	60.89
809.055	60.81
809.365	61.05
809.674	61.16
809.984	61.23
810.294	60.36
810.603	60.48
810.913	60.98
811.222	60.58
811.532	60.86
811.841	61.14
812.151	61.46
812.46	60.87
812.769	60.77
813.079	61.75
813.388	60.87
813.697	61.01
814.006	60.76
814.315	60.1
814.624	59.91
814.933	59.99
815.242	60.89
815.551	60.82
815.86	61.04
816.169	61.24
816.478	60.6
816.786	61.72
817.095	61.21
817.404	61.6
817.712	62.31
818.021	62.47
818.33	62.96
818.638	63.01
818.947	63.45
819.255	63.15
819.563	62.25
819.872	62.02
820.18	62.07
820.488	62.01
820.796	61.95
821.105	62.38
821.413	62.73
821.721	62.74
822.029	62.88
822.337	62.69
822.645	62.68
822.953	62.76
823.26	62.59
823.568	62.55
823.876	62.25
824.184	62.11
824.491	61.99
824.799	61.98
825.107	62.02
825.414	61.75
825.722	61.78
826.029	61.98
826.337	62.07
826.644	61.82
826.951	61.66
827.259	61.74
827.566	61.19
827.873	60.91
828.18	60.75
828.488	60.38
828.795	59.98
829.102	59.75
829.409	59.19
829.716	59.08
830.023	59.21
830.329	58.95
830.636	59.08
830.943	59.26
831.25	58.9
831.557	58.95
831.863	59.32
832.17	59.68
832.476	59.32
832.783	59.28
833.089	59.52
833.396	59.99
833.702	59.97
834.009	60.41
834.315	60.04
834.621	59.98
834.928	60.16
835.234	60.49
835.54	60.83
835.846	61.28
836.152	61.74
836.458	61.48
836.764	62.03
837.07	61.82
837.376	61.25
837.682	61.56
837.988	61.23
838.293	60.85
838.599	60.72
838.905	60.58
839.211	60.42
839.516	60.07
839.822	59.37
840.127	59.06
840.433	59.35
840.738	59.09
841.044	58.68
841.349	58.53
841.654	58.6
841.959	57.85
842.265	58.12
842.57	57.06
842.875	56.74
843.18	56.63
843.485	56.54
843.79	57.05
844.095	56.25
844.4	55.38
844.705	55.77
845.01	55.34
845.315	56.28
845.619	55.97
845.924	56.3
846.229	57.02
846.533	56.09
846.838	55.45
847.142	56.32
847.447	56.65
847.751	56.22
848.056	56.36
848.36	56.89
848.664	56.94
848.969	57.87
849.273	57.73
849.577	57.14
849.881	57.17
850.185	57.27
850.489	57.87
850.794	57.37
851.097	59.03
851.401	58.87
851.705	56.31
852.009	57.27
852.313	57.56
852.617	58.54
852.92	60.21
853.224	59.85
853.528	59.72
853.831	62.34
854.135	62.45
854.438	61.35
854.742	59.74
855.045	60.11
855.349	58.22
855.652	59.53
855.955	62.09
856.259	61.21
856.562	60.17
856.865	59.94
857.168	60.22
857.471	59.42
857.774	61.56
858.077	63.93
858.38	65.69
858.683	65.19
858.986	65.99
859.289	66.56
859.592	66.63
859.894	66.86
860.197	65.33
860.5	67.17
860.802	67.72
861.105	67.4
861.407	66.42
861.71	66.53
862.012	65.53
862.315	62.45
862.617	63.13
862.919	64.1
863.222	62.94
863.524	64.07
863.826	63.79
864.128	61.22
864.43	61.29
864.732	60.86
865.034	59.42
865.336	57.26
865.638	57.85
865.94	57.5
866.242	59.43
866.544	57.79
866.846	55.99
867.147	56.26
867.449	56.88
867.751	59.02
868.052	59.76
868.354	60.09
868.655	61.42
868.957	61.84
869.258	62.02
869.56	62.89
869.861	64.94
870.162	65.43
870.463	65.3
870.765	63.33
871.066	61.93
871.367	64.89
871.668	65.23
871.969	60.33
872.27	60.96
872.571	59.04
872.872	61.16
873.173	62.26
873.473	61.43
873.774	62.09
874.075	61.51
874.376	63.08
874.676	63.81
874.977	62.91
875.277	62.4
875.578	63.19
875.878	63.46
876.179	61.36
876.479	60.17
876.78	60.24
877.08	62.25
877.38	62.76
877.68	61.48
877.981	62.39
878.281	67.56
878.581	67.54
