Data from BU57994_Reflection_00015.txt Node
Date: Mon Nov 18 16:53:29 EST 2019
User: vgr7
Spectrometer: USB2G7710
Scans to average: 3
Trigger mode: 4
Integration Time (sec): 2.000000E-2
Electric dark correction enabled: true
Boxcar width: 10
XAxis mode: Wavelengths
Number of Pixels in Spectrum: 2048
>>>>>Begin Spectral Data<<<<<
177.721	-17.03
178.105	-51.34
178.488	-46.9
178.871	-92.12
179.254	-152.45
179.636	-1.24
180.019	-20.41
180.402	23.08
180.785	202.17
181.168	146.88
181.55	-83.93
181.933	34.22
182.316	46.92
182.698	12.26
183.081	-3.45
183.463	-36.65
183.846	-91.83
184.228	-144.79
184.611	-205.93
184.993	-1772.48
185.376	227.72
185.758	920.07
186.14	797.89
186.522	312.19
186.904	461.07
187.287	309.16
187.669	197.31
188.051	291.79
188.433	361.2
188.815	262.82
189.197	277.27
189.579	243.74
189.961	176.21
190.342	196.42
190.724	158.63
191.106	128.05
191.488	108.13
191.869	107.07
192.251	108.44
192.633	104.78
193.014	78.84
193.396	98.71
193.777	48.98
194.159	39.89
194.54	41.54
194.922	39.44
195.303	35.77
195.684	61.99
196.065	59.86
196.447	49.61
196.828	40.61
197.209	32.91
197.59	-9.16
197.971	-13.51
198.352	-8.78
198.733	4.51
199.114	-1.14
199.495	-0.56
199.876	12.91
200.257	19.35
200.638	23.42
201.018	23.34
201.399	27.21
201.78	38.54
202.16	48.24
202.541	49.31
202.922	40.86
203.302	29.4
203.683	15.75
204.063	0.56
204.444	12.18
204.824	-9.67
205.204	-12.54
205.585	-14.02
205.965	1.18
206.345	-0.44
206.725	-16.15
207.106	-20.98
207.486	-45.36
207.866	-52.33
208.246	-43.81
208.626	-68.76
209.006	-37.1
209.386	-45.14
209.766	-16.15
210.145	-24.13
210.525	-0.62
210.905	3.89
211.285	9.17
211.664	17.64
212.044	39.05
212.424	42.48
212.803	63.1
213.183	79.58
213.562	77.11
213.942	71.59
214.321	64.78
214.701	67.69
215.08	67.45
215.459	61.93
215.838	64.66
216.218	49.45
216.597	54.96
216.976	54.84
217.355	53.97
217.734	53.95
218.113	57.25
218.492	53.36
218.871	56.21
219.25	63.28
219.629	59.51
220.008	55.83
220.387	45.19
220.766	47.73
221.144	39.46
221.523	46.67
221.902	37.11
222.28	29.19
222.659	36.34
223.037	40.55
223.416	30.8
223.794	17.2
224.173	23.25
224.551	14.24
224.929	5.09
225.308	3.41
225.686	4.44
226.064	4.44
226.442	3.53
226.821	6.18
227.199	7.56
227.577	5.56
227.955	4.52
228.333	4.18
228.711	4.41
229.089	6.58
229.467	5.45
229.845	6.18
230.222	7.98
230.6	8.38
230.978	7.28
231.356	11.15
231.733	12.34
232.111	12.02
232.488	12.97
232.866	14.15
233.243	17.25
233.621	14.97
233.998	16.02
234.376	15.54
234.753	14.23
235.13	13.85
235.508	14.92
235.885	15.42
236.262	14.16
236.639	13.7
237.016	12.29
237.393	13.09
237.77	11.81
238.147	12
238.524	11.27
238.901	11.32
239.278	10.34
239.655	10.08
240.032	9.31
240.409	8.85
240.785	8.5
241.162	7.86
241.539	8.09
241.915	7.56
242.292	7.42
242.668	7.39
243.045	6.75
243.421	6.47
243.798	5.93
244.174	6.11
244.551	6.34
244.927	6.18
245.303	6
245.679	6.01
246.056	5.55
246.432	5.37
246.808	5.08
247.184	4.74
247.56	4.42
247.936	4.46
248.312	4.54
248.688	4.38
249.064	4.25
249.44	4.17
249.815	4.02
250.191	4.11
250.567	3.93
250.943	3.81
251.318	3.94
251.694	3.99
252.069	3.81
252.445	3.39
252.82	3.56
253.196	3.51
253.571	3.51
253.947	3.7
254.322	3.65
254.697	3.78
255.073	3.93
255.448	3.97
255.823	3.99
256.198	3.97
256.573	4.09
256.948	4.18
257.323	4.19
257.698	4.39
258.073	4.41
258.448	4.34
258.823	4.56
259.198	4.22
259.573	4.33
259.948	4.28
260.322	4.29
260.697	4.22
261.072	4.2
261.446	4.21
261.821	4.29
262.195	4.45
262.57	4.36
262.944	4.29
263.319	4.46
263.693	4.52
264.067	4.49
264.442	4.39
264.816	4.33
265.19	4.18
265.564	4.03
265.938	3.89
266.313	3.84
266.687	3.76
267.061	4.07
267.435	4.17
267.809	4.03
268.183	4.03
268.556	3.89
268.93	3.75
269.304	3.74
269.678	3.74
270.051	3.65
270.425	3.86
270.799	4.03
271.172	3.91
271.546	3.81
271.919	3.81
272.293	3.82
272.666	3.96
273.04	4.11
273.413	4.1
273.787	4.05
274.16	4.31
274.533	4.19
274.906	4
275.279	3.84
275.653	4.02
276.026	4.09
276.399	4.3
276.772	4.42
277.145	4.41
277.518	4.31
277.891	4.29
278.263	4.11
278.636	3.9
279.009	3.88
279.382	4
279.755	4.04
280.127	4.2
280.5	4.16
280.872	4.24
281.245	4.23
281.617	4.35
281.99	4.23
282.362	4.28
282.735	4.29
283.107	4.2
283.479	4.23
283.852	4.29
284.224	4.14
284.596	4.14
284.968	4.23
285.34	4.26
285.713	4.13
286.085	4.15
286.457	4.43
286.829	4.5
287.201	4.45
287.572	4.37
287.944	4.32
288.316	4.25
288.688	4.13
289.06	4.12
289.431	4.07
289.803	4.07
290.175	4.16
290.546	4.45
290.918	4.57
291.289	4.48
291.661	4.43
292.032	4.55
292.403	4.37
292.775	4.39
293.146	4.29
293.517	4.35
293.889	4.54
294.26	4.47
294.631	4.49
295.002	4.58
295.373	4.7
295.744	4.66
296.115	4.58
296.486	4.54
296.857	4.68
297.228	4.74
297.599	4.83
297.97	4.81
298.34	4.74
298.711	4.85
299.082	4.85
299.452	4.81
299.823	4.87
300.194	4.96
300.564	4.93
300.935	5.05
301.305	5.16
301.676	5.12
302.046	5.13
302.416	5.12
302.787	5.07
303.157	5.08
303.527	5.15
303.897	5.22
304.267	5.44
304.637	5.33
305.008	5.43
305.378	5.44
305.748	5.59
306.117	5.46
306.487	5.4
306.857	5.49
307.227	5.62
307.597	5.76
307.967	5.95
308.336	6.13
308.706	6.28
309.076	6.34
309.445	6.28
309.815	6.41
310.184	6.52
310.554	6.57
310.923	6.6
311.293	6.83
311.662	6.89
312.031	6.91
312.401	7.01
312.77	7.05
313.139	7.14
313.508	7.02
313.877	7.21
314.246	7.32
314.616	7.44
314.985	7.6
315.353	7.56
315.722	7.74
316.091	7.77
316.46	7.81
316.829	8.06
317.198	8.21
317.567	8.25
317.935	8.32
318.304	8.56
318.672	8.64
319.041	8.72
319.41	8.97
319.778	8.97
320.147	9.11
320.515	9.17
320.883	9.25
321.252	9.4
321.62	9.5
321.988	9.46
322.357	9.61
322.725	9.55
323.093	9.68
323.461	9.58
323.829	9.57
324.197	9.66
324.565	9.57
324.933	9.66
325.301	9.75
325.669	9.81
326.037	9.85
326.405	9.83
326.772	9.82
327.14	9.84
327.508	9.9
327.875	9.89
328.243	10
328.61	9.97
328.978	10.07
329.346	10.17
329.713	10.27
330.08	10.34
330.448	10.33
330.815	10.33
331.182	10.43
331.55	10.38
331.917	10.41
332.284	10.52
332.651	10.52
333.018	10.47
333.385	10.4
333.752	10.28
334.119	10.47
334.486	10.42
334.853	10.39
335.22	10.49
335.587	10.63
335.954	10.55
336.32	10.55
336.687	10.73
337.054	10.65
337.42	10.74
337.787	10.71
338.153	10.82
338.52	10.89
338.886	10.84
339.253	11.01
339.619	11.02
339.986	10.96
340.352	11.05
340.718	10.99
341.084	10.98
341.451	11.14
341.817	11.08
342.183	11.14
342.549	11.09
342.915	11.12
343.281	11.17
343.647	11.26
344.013	11.39
344.379	11.26
344.745	11.35
345.11	11.29
345.476	11.37
345.842	11.45
346.208	11.34
346.573	11.54
346.939	11.48
347.304	11.4
347.67	11.38
348.035	11.38
348.401	11.44
348.766	11.53
349.132	11.5
349.497	11.46
349.862	11.47
350.228	11.55
350.593	11.46
350.958	11.44
351.323	11.42
351.688	11.4
352.053	11.48
352.418	11.4
352.783	11.43
353.148	11.33
353.513	11.28
353.878	11.33
354.243	11.26
354.608	11.3
354.972	11.35
355.337	11.5
355.702	11.43
356.066	11.45
356.431	11.34
356.795	11.29
357.16	11.24
357.524	11.11
357.889	11.01
358.253	11.05
358.618	11.01
358.982	10.93
359.346	10.83
359.71	10.75
360.075	10.72
360.439	10.65
360.803	10.62
361.167	10.58
361.531	10.51
361.895	10.44
362.259	10.38
362.623	10.36
362.987	10.3
363.351	10.28
363.714	10.31
364.078	10.3
364.442	10.29
364.806	10.32
365.169	10.35
365.533	10.37
365.896	10.34
366.26	10.38
366.623	10.39
366.987	10.37
367.35	10.32
367.714	10.29
368.077	10.21
368.44	10.18
368.803	10.09
369.167	10.03
369.53	9.92
369.893	9.87
370.256	9.76
370.619	9.65
370.982	9.53
371.345	9.35
371.708	9.36
372.071	9.24
372.434	9.1
372.797	8.99
373.159	8.91
373.522	8.72
373.885	8.6
374.247	8.48
374.61	8.36
374.973	8.28
375.335	8.16
375.698	8.11
376.06	7.99
376.423	7.96
376.785	7.92
377.147	7.88
377.51	7.81
377.872	7.73
378.234	7.68
378.596	7.66
378.958	7.57
379.321	7.45
379.683	7.45
380.045	7.41
380.407	7.39
380.769	7.31
381.13	7.29
381.492	7.21
381.854	7.2
382.216	7.18
382.578	7.16
382.939	7.09
383.301	7.06
383.663	6.97
384.024	6.94
384.386	6.89
384.747	6.83
385.109	6.78
385.47	6.74
385.832	6.69
386.193	6.68
386.554	6.61
386.916	6.58
387.277	6.51
387.638	6.47
387.999	6.41
388.36	6.36
388.721	6.33
389.082	6.23
389.443	6.1
389.804	6.03
390.165	6
390.526	5.97
390.887	5.89
391.248	5.88
391.609	5.82
391.969	5.73
392.33	5.68
392.691	5.64
393.051	5.59
393.412	5.52
393.772	5.46
394.133	5.47
394.493	5.43
394.854	5.36
395.214	5.28
395.574	5.24
395.935	5.2
396.295	5.18
396.655	5.18
397.015	5.14
397.376	5.12
397.736	5.04
398.096	5.02
398.456	4.97
398.816	4.92
399.176	4.87
399.535	4.85
399.895	4.79
400.255	4.76
400.615	4.73
400.975	4.7
401.334	4.64
401.694	4.59
402.054	4.54
402.413	4.5
402.773	4.5
403.132	4.48
403.492	4.46
403.851	4.43
404.211	4.4
404.57	4.38
404.929	4.39
405.288	4.37
405.648	4.34
406.007	4.35
406.366	4.33
406.725	4.34
407.084	4.33
407.443	4.35
407.802	4.33
408.161	4.34
408.52	4.29
408.879	4.29
409.238	4.29
409.596	4.27
409.955	4.28
410.314	4.28
410.673	4.27
411.031	4.28
411.39	4.25
411.748	4.22
412.107	4.22
412.465	4.18
412.824	4.17
413.182	4.15
413.54	4.12
413.899	4.12
414.257	4.12
414.615	4.12
414.974	4.09
415.332	4.03
415.69	3.95
416.048	3.95
416.406	3.9
416.764	3.88
417.122	3.86
417.48	3.82
417.838	3.79
418.195	3.76
418.553	3.73
418.911	3.71
419.269	3.71
419.626	3.71
419.984	3.68
420.342	3.67
420.699	3.64
421.057	3.62
421.414	3.59
421.772	3.56
422.129	3.54
422.486	3.54
422.844	3.55
423.201	3.55
423.558	3.53
423.915	3.54
424.273	3.52
424.63	3.51
424.987	3.51
425.344	3.51
425.701	3.51
426.058	3.49
426.415	3.49
426.772	3.48
427.128	3.45
427.485	3.45
427.842	3.44
428.199	3.46
428.555	3.46
428.912	3.47
429.269	3.49
429.625	3.46
429.982	3.44
430.338	3.44
430.695	3.44
431.051	3.46
431.407	3.45
431.764	3.46
432.12	3.45
432.476	3.44
432.832	3.42
433.189	3.43
433.545	3.41
433.901	3.42
434.257	3.42
434.613	3.43
434.969	3.43
435.325	3.42
435.681	3.4
436.036	3.39
436.392	3.39
436.748	3.38
437.104	3.37
437.459	3.37
437.815	3.36
438.171	3.36
438.526	3.35
438.882	3.34
439.237	3.35
439.593	3.34
439.948	3.35
440.304	3.35
440.659	3.36
441.014	3.37
441.369	3.35
441.725	3.33
442.08	3.33
442.435	3.34
442.79	3.32
443.145	3.32
443.5	3.3
443.855	3.3
444.21	3.3
444.565	3.32
444.92	3.31
445.275	3.3
445.629	3.29
445.984	3.28
446.339	3.27
446.693	3.27
447.048	3.25
447.403	3.24
447.757	3.23
448.112	3.2
448.466	3.19
448.82	3.19
449.175	3.19
449.529	3.18
449.883	3.16
450.238	3.16
450.592	3.16
450.946	3.16
451.3	3.13
451.654	3.1
452.008	3.09
452.362	3.09
452.716	3.09
453.07	3.09
453.424	3.09
453.778	3.1
454.132	3.09
454.486	3.08
454.839	3.08
455.193	3.08
455.547	3.08
455.9	3.09
456.254	3.09
456.607	3.09
456.961	3.09
457.314	3.1
457.668	3.11
458.021	3.11
458.375	3.11
458.728	3.13
459.081	3.15
459.434	3.15
459.787	3.15
460.141	3.15
460.494	3.17
460.847	3.17
461.2	3.16
461.553	3.17
461.906	3.19
462.259	3.2
462.611	3.22
462.964	3.23
463.317	3.25
463.67	3.26
464.022	3.26
464.375	3.25
464.728	3.27
465.08	3.28
465.433	3.3
465.785	3.32
466.138	3.35
466.49	3.34
466.843	3.35
467.195	3.37
467.547	3.38
467.899	3.37
468.252	3.39
468.604	3.42
468.956	3.42
469.308	3.44
469.66	3.43
470.012	3.46
470.364	3.47
470.716	3.47
471.068	3.5
471.42	3.52
471.772	3.56
472.123	3.57
472.475	3.56
472.827	3.55
473.178	3.58
473.53	3.55
473.882	3.56
474.233	3.58
474.585	3.56
474.936	3.57
475.288	3.58
475.639	3.58
475.99	3.58
476.342	3.59
476.693	3.59
477.044	3.61
477.395	3.59
477.746	3.57
478.097	3.54
478.448	3.53
478.8	3.49
479.15	3.45
479.501	3.42
479.852	3.42
480.203	3.41
480.554	3.39
480.905	3.4
481.255	3.38
481.606	3.38
481.957	3.38
482.307	3.38
482.658	3.38
483.009	3.37
483.359	3.36
483.709	3.35
484.06	3.35
484.41	3.33
484.761	3.33
485.111	3.32
485.461	3.32
485.811	3.33
486.162	3.34
486.512	3.34
486.862	3.35
487.212	3.35
487.562	3.37
487.912	3.36
488.262	3.36
488.612	3.38
488.961	3.38
489.311	3.38
489.661	3.38
490.011	3.38
490.36	3.38
490.71	3.39
491.06	3.4
491.409	3.4
491.759	3.42
492.108	3.42
492.458	3.45
492.807	3.45
493.157	3.46
493.506	3.47
493.855	3.48
494.204	3.49
494.554	3.5
494.903	3.5
495.252	3.52
495.601	3.56
495.95	3.59
496.299	3.62
496.648	3.64
496.997	3.66
497.346	3.7
497.695	3.76
498.043	3.77
498.392	3.82
498.741	3.86
499.09	3.89
499.438	3.95
499.787	3.97
500.135	4.04
500.484	4.08
500.832	4.12
501.181	4.19
501.529	4.24
501.878	4.32
502.226	4.39
502.574	4.46
502.923	4.51
503.271	4.56
503.619	4.62
503.967	4.69
504.315	4.78
504.663	4.86
505.011	4.91
505.359	5.01
505.707	5.1
506.055	5.19
506.403	5.29
506.751	5.39
507.098	5.5
507.446	5.6
507.794	5.7
508.141	5.82
508.489	5.94
508.837	6.06
509.184	6.17
509.531	6.28
509.879	6.42
510.226	6.56
510.574	6.69
510.921	6.83
511.268	6.98
511.616	7.12
511.963	7.27
512.31	7.43
512.657	7.6
513.004	7.76
513.351	7.94
513.698	8.15
514.045	8.34
514.392	8.54
514.739	8.74
515.086	8.95
515.432	9.15
515.779	9.34
516.126	9.53
516.473	9.74
516.819	9.91
517.166	10.08
517.512	10.25
517.859	10.42
518.205	10.62
518.552	10.77
518.898	10.97
519.245	11.12
519.591	11.3
519.937	11.47
520.283	11.67
520.629	11.88
520.976	12.09
521.322	12.31
521.668	12.54
522.014	12.77
522.36	12.99
522.706	13.26
523.052	13.53
523.398	13.81
523.743	14.07
524.089	14.38
524.435	14.64
524.781	14.87
525.126	15.12
525.472	15.29
525.817	15.5
526.163	15.66
526.509	15.85
526.854	16.02
527.199	16.2
527.545	16.34
527.89	16.49
528.235	16.63
528.581	16.79
528.926	16.95
529.271	17.1
529.616	17.25
529.961	17.39
530.306	17.56
530.651	17.74
530.996	17.91
531.341	18.09
531.686	18.27
532.031	18.48
532.376	18.7
532.721	18.93
533.065	19.14
533.41	19.39
533.755	19.61
534.099	19.85
534.444	20.07
534.788	20.29
535.133	20.5
535.477	20.72
535.822	20.94
536.166	21.18
536.51	21.45
536.855	21.75
537.199	22.04
537.543	22.29
537.887	22.57
538.231	22.88
538.576	23.17
538.92	23.47
539.264	23.73
539.608	23.98
539.951	24.25
540.295	24.48
540.639	24.68
540.983	24.9
541.327	25.11
541.671	25.3
542.014	25.53
542.358	25.75
542.701	26
543.045	26.22
543.389	26.47
543.732	26.69
544.075	26.91
544.419	27.15
544.762	27.41
545.105	27.67
545.449	27.92
545.792	28.19
546.135	28.49
546.478	28.78
546.821	29.06
547.165	29.32
547.508	29.64
547.851	29.98
548.194	30.3
548.536	30.62
548.879	31.02
549.222	31.31
549.565	31.62
549.908	31.91
550.25	32.25
550.593	32.54
550.936	32.86
551.278	33.14
551.621	33.48
551.963	33.8
552.306	34.06
552.648	34.39
552.991	34.68
553.333	34.95
553.675	35.27
554.017	35.64
554.36	35.93
554.702	36.2
555.044	36.47
555.386	36.75
555.728	37
556.07	37.22
556.412	37.49
556.754	37.81
557.096	38.1
557.438	38.36
557.78	38.67
558.121	38.92
558.463	39.24
558.805	39.47
559.147	39.73
559.488	40.07
559.83	40.36
560.171	40.59
560.513	40.8
560.854	41
561.196	41.16
561.537	41.4
561.878	41.63
562.22	41.91
562.561	42.13
562.902	42.41
563.243	42.64
563.584	42.88
563.925	43.12
564.266	43.31
564.607	43.56
564.948	43.7
565.289	43.98
565.63	44.14
565.971	44.38
566.312	44.57
566.653	44.74
566.993	44.89
567.334	45.1
567.675	45.29
568.015	45.48
568.356	45.64
568.696	45.84
569.037	46.04
569.377	46.22
569.718	46.38
570.058	46.47
570.398	46.65
570.739	46.85
571.079	46.99
571.419	47.18
571.759	47.31
572.099	47.45
572.439	47.57
572.779	47.76
573.119	47.86
573.459	48.04
573.799	48.2
574.139	48.34
574.479	48.5
574.819	48.64
575.158	48.78
575.498	48.95
575.838	49.08
576.177	49.15
576.517	49.23
576.856	49.39
577.196	49.6
577.535	49.73
577.875	49.85
578.214	50
578.553	50.16
578.893	50.32
579.232	50.48
579.571	50.61
579.91	50.76
580.25	50.91
580.589	51.03
580.928	51.18
581.267	51.33
581.606	51.51
581.945	51.63
582.283	51.79
582.622	51.94
582.961	52.14
583.3	52.31
583.639	52.48
583.977	52.51
584.316	52.61
584.654	52.76
584.993	52.79
585.332	52.96
585.67	53.06
586.008	53.16
586.347	53.28
586.685	53.35
587.024	53.45
587.362	53.59
587.7	53.68
588.038	53.75
588.376	53.77
588.715	53.84
589.053	53.97
589.391	54.1
589.729	54.13
590.067	54.2
590.404	54.33
590.742	54.4
591.08	54.55
591.418	54.63
591.756	54.68
592.093	54.75
592.431	54.69
592.769	54.77
593.106	54.77
593.444	54.86
593.781	54.97
594.119	55.04
594.456	55.02
594.793	55.13
595.131	55.17
595.468	55.28
595.805	55.37
596.143	55.41
596.48	55.41
596.817	55.47
597.154	55.55
597.491	55.66
597.828	55.74
598.165	55.84
598.502	55.84
598.839	55.91
599.176	56.02
599.512	56.18
599.849	56.21
600.186	56.3
600.523	56.31
600.859	56.35
601.196	56.41
601.532	56.51
601.869	56.46
602.205	56.48
602.542	56.46
602.878	56.45
603.215	56.62
603.551	56.66
603.887	56.75
604.223	56.75
604.56	56.66
604.896	56.68
605.232	56.68
605.568	56.73
605.904	56.81
606.24	56.88
606.576	56.91
606.912	57.01
607.248	57.12
607.583	57.17
607.919	57.21
608.255	57.26
608.591	57.28
608.926	57.37
609.262	57.49
609.597	57.58
609.933	57.65
610.268	57.52
610.604	57.52
610.939	57.55
611.275	57.61
611.61	57.73
611.945	57.79
612.281	57.84
612.616	57.96
612.951	57.95
613.286	58.01
613.621	57.96
613.956	57.96
614.291	57.92
614.626	57.95
614.961	58.02
615.296	58.05
615.631	58.14
615.966	58.15
616.3	58.18
616.635	58.24
616.97	58.2
617.304	58.23
617.639	58.37
617.973	58.33
618.308	58.32
618.642	58.38
618.977	58.28
619.311	58.35
619.646	58.32
619.98	58.41
620.314	58.43
620.648	58.53
620.983	58.64
621.317	58.69
621.651	58.79
621.985	58.82
622.319	58.92
622.653	58.91
622.987	59.03
623.321	58.99
623.655	59.01
623.988	58.99
624.322	59.04
624.656	59.06
624.99	59.08
625.323	59.07
625.657	59.1
625.99	59.24
626.324	59.22
626.657	59.22
626.991	59.19
627.324	59.22
627.658	59.15
627.991	59.2
628.324	59.2
628.657	59.22
628.991	59.18
629.324	59
629.657	59
629.99	58.98
630.323	59.04
630.656	59.11
630.989	59.26
631.322	59.34
631.655	59.33
631.987	59.33
632.32	59.38
632.653	59.26
632.986	59.26
633.318	59.27
633.651	59.35
633.984	59.39
634.316	59.35
634.649	59.53
634.981	59.58
635.313	59.55
635.646	59.62
635.978	59.74
636.31	59.93
636.643	59.95
636.975	60.01
637.307	60
637.639	59.98
637.971	59.94
638.303	59.9
638.635	59.94
638.967	59.95
639.299	60.14
639.631	60.26
639.963	60.22
640.295	60.27
640.626	60.28
640.958	60.42
641.29	60.52
641.621	60.43
641.953	60.3
642.285	60.53
642.616	60.51
642.948	60.42
643.279	60.46
643.61	60.58
643.942	60.49
644.273	60.54
644.604	60.55
644.936	60.6
645.267	60.61
645.598	60.66
645.929	60.78
646.26	60.63
646.591	60.61
646.922	60.72
647.253	60.59
647.584	60.58
647.915	60.51
648.245	60.49
648.576	60.54
648.907	60.52
649.238	60.33
649.568	60.36
649.899	60.48
650.229	60.45
650.56	60.46
650.89	60.52
651.221	60.51
651.551	60.58
651.882	60.54
652.212	60.56
652.542	60.49
652.872	60.45
653.203	60.47
653.533	60.5
653.863	60.44
654.193	60.46
654.523	60.61
654.853	60.66
655.183	60.59
655.513	60.56
655.843	60.64
656.172	60.72
656.502	60.64
656.832	60.57
657.162	60.65
657.491	60.59
657.821	60.61
658.15	60.73
658.48	60.72
658.809	60.82
659.139	60.88
659.468	60.91
659.798	60.89
660.127	60.92
660.456	60.93
660.785	61.04
661.115	61.2
661.444	61.09
661.773	61.12
662.102	61.16
662.431	61.16
662.76	61.16
663.089	61.1
663.418	61.09
663.747	61.08
664.076	60.93
664.404	60.9
664.733	60.91
665.062	60.85
665.39	60.98
665.719	60.85
666.048	60.84
666.376	60.78
666.705	60.83
667.033	60.71
667.362	60.68
667.69	60.64
668.018	60.6
668.347	60.63
668.675	60.61
669.003	60.72
669.331	60.8
669.659	60.8
669.987	60.76
670.315	60.85
670.643	60.98
670.971	60.97
671.299	60.99
671.627	61.01
671.955	60.99
672.283	60.81
672.61	60.86
672.938	60.82
673.266	60.89
673.593	60.94
673.921	61.1
674.249	61.08
674.576	60.95
674.904	60.96
675.231	60.97
675.558	60.9
675.886	60.87
676.213	60.84
676.54	60.84
676.867	60.81
677.195	60.85
677.522	60.67
677.849	60.91
678.176	60.9
678.503	60.88
678.83	60.98
679.157	61.04
679.484	60.99
679.81	60.99
680.137	61.09
680.464	61
680.791	60.97
681.117	61.11
681.444	61.25
681.771	61.25
682.097	61.32
682.424	61.28
682.75	61.15
683.077	61.18
683.403	61.25
683.729	61.48
684.056	61.47
684.382	61.69
684.708	61.66
685.034	61.62
685.36	61.59
685.686	61.54
686.012	61.59
686.339	61.55
686.664	61.64
686.99	61.55
687.316	61.7
687.642	61.69
687.968	61.58
688.294	61.58
688.619	61.55
688.945	61.5
689.271	61.56
689.596	61.55
689.922	61.52
690.247	61.46
690.573	61.34
690.898	61.48
691.224	61.31
691.549	61.24
691.874	61.38
692.2	61.4
692.525	61.44
692.85	61.38
693.175	61.62
693.5	61.57
693.825	61.6
694.15	61.45
694.475	61.37
694.8	61.36
695.125	61.26
695.45	61.29
695.775	61.18
696.099	61.08
696.424	61.27
696.749	61.23
697.073	61.22
697.398	61.25
697.723	61.27
698.047	61.31
698.372	61.18
698.696	61.15
699.02	61.1
699.345	60.98
699.669	61.07
699.993	61.02
700.318	61.08
700.642	61.08
700.966	61.15
701.29	61.2
701.614	61.32
701.938	61.38
702.262	61.35
702.586	61.62
702.91	61.76
703.234	61.63
703.557	61.72
703.881	61.76
704.205	61.81
704.529	61.72
704.852	61.88
705.176	62.03
705.499	61.99
705.823	62.19
706.146	62.39
706.47	62.22
706.793	62.15
707.117	62.07
707.44	62.06
707.763	62.08
708.086	62.15
708.409	62.12
708.733	62.09
709.056	62.11
709.379	62
709.702	61.96
710.025	61.85
710.348	61.82
710.671	61.86
710.993	61.79
711.316	61.6
711.639	61.45
711.962	61.51
712.284	61.57
712.607	61.49
712.93	61.36
713.252	61.27
713.575	61.26
713.897	61.23
714.22	61.19
714.542	61.15
714.864	61.18
715.187	61.16
715.509	61.3
715.831	61.31
716.153	61.22
716.475	61.32
716.798	61.58
717.12	61.58
717.442	61.56
717.764	61.67
718.085	61.81
718.407	61.78
718.729	61.61
719.051	61.67
719.373	61.76
719.695	61.91
720.016	62.19
720.338	62.3
720.659	62.53
720.981	62.53
721.302	62.48
721.624	62.54
721.945	62.74
722.267	62.78
722.588	62.68
722.909	62.85
723.231	62.88
723.552	62.65
723.873	62.85
724.194	62.99
724.515	62.76
724.836	62.75
725.157	62.71
725.478	62.86
725.799	62.78
726.12	62.75
726.441	62.8
726.762	62.63
727.083	62.44
727.403	62.3
727.724	62.28
728.045	62.43
728.365	62.3
728.686	62.22
729.006	61.97
729.327	62.17
729.647	62.12
729.967	61.96
730.288	62.19
730.608	61.99
730.928	62.13
731.249	62.23
731.569	62.24
731.889	62.44
732.209	62.62
732.529	62.6
732.849	62.63
733.169	62.52
733.489	62.62
733.809	62.82
734.129	62.81
734.448	62.65
734.768	62.75
735.088	62.75
735.408	62.7
735.727	63.05
736.047	63.18
736.366	63.05
736.686	63.01
737.005	62.93
737.325	62.98
737.644	62.85
737.963	63.02
738.283	63.14
738.602	63.25
738.921	63.1
739.24	63.1
739.56	62.95
739.879	62.93
740.198	62.87
740.517	62.99
740.836	63.15
741.155	63.54
741.473	63.43
741.792	63.36
742.111	63.11
742.43	62.94
742.748	62.6
743.067	62.68
743.386	62.79
743.704	62.72
744.023	62.88
744.341	62.88
744.66	62.77
744.978	62.54
745.297	62.34
745.615	62.56
745.933	62.52
746.252	62.64
746.57	62.75
746.888	62.9
747.206	62.54
747.524	62.25
747.842	62.08
748.16	62.04
748.478	62.19
748.796	62.49
749.114	62.47
749.432	62.27
749.749	62.23
750.067	62.51
750.385	62.42
750.703	62.06
751.02	61.9
751.338	61.79
751.655	61.86
751.973	61.79
752.29	61.44
752.608	61.46
752.925	61.4
753.242	61.4
753.56	61.12
753.877	61.2
754.194	61.12
754.511	61.12
754.828	61.08
755.145	60.97
755.462	61.04
755.779	60.81
756.096	60.89
756.413	60.8
756.73	60.69
757.047	61.12
757.364	61.48
757.68	61.63
757.997	62.15
758.314	62.21
758.63	62.09
758.947	62.02
759.264	62.19
759.58	62.23
759.896	62.57
760.213	62.73
760.529	62.88
760.846	63.11
761.162	63.12
761.478	63.21
761.794	63.23
762.11	63.04
762.426	62.88
762.743	63.22
763.059	63.3
763.375	63.38
763.69	63.17
764.006	63.25
764.322	63.07
764.638	62.7
764.954	62.44
765.27	62.62
765.585	62.89
765.901	62.91
766.216	62.95
766.532	62.57
766.848	62.57
767.163	62.58
767.478	62.32
767.794	62.36
768.109	62.2
768.424	62.08
768.74	62.18
769.055	62.7
769.37	62.37
769.685	62.07
770	61.66
770.315	61.34
770.63	61.06
770.945	61.45
771.26	61.52
771.575	61.92
771.89	61.55
772.205	61.48
772.52	61.26
772.834	61.48
773.149	61.26
773.464	61.08
773.778	60.93
774.093	61.02
774.407	60.96
774.722	60.89
775.036	61.28
775.351	61.16
775.665	60.98
775.979	61.26
776.293	61.77
776.608	61.96
776.922	62.65
777.236	62.87
777.55	62.62
777.864	62.61
778.178	62.64
778.492	63.09
778.806	62.63
779.12	62.91
779.434	62.79
779.747	63.12
780.061	63.21
780.375	63.12
780.689	63.41
781.002	63.56
781.316	63.42
781.629	63.24
781.943	63.59
782.256	63.61
782.57	63.77
782.883	63.4
783.196	63.9
783.51	63.66
783.823	63.34
784.136	63.06
784.449	63.33
784.762	63.1
785.075	62.9
785.388	63.11
785.701	63.11
786.014	63.09
786.327	63.24
786.64	63.25
786.953	63.27
787.266	63.17
787.578	62.82
787.891	63.36
788.204	63.58
788.516	63.18
788.829	62.91
789.141	62.97
789.454	63.08
789.766	62.8
790.079	62.76
790.391	62.67
790.703	62.97
791.016	63.22
791.328	63.12
791.64	63.04
791.952	62.98
792.264	62.92
792.576	62.9
792.888	62.86
793.2	63.11
793.512	63.67
793.824	64.03
794.136	64.27
794.448	63.73
794.76	63.54
795.071	63.87
795.383	64.13
795.695	64.07
796.006	63.99
796.318	64.31
796.629	64.51
796.941	64.36
797.252	64.29
797.564	64.4
797.875	64.61
798.186	65.2
798.497	65.4
798.809	65.4
799.12	65.78
799.431	65.92
799.742	65.87
800.053	65.53
800.364	65.21
800.675	64.76
800.986	64.99
801.297	64.92
801.608	64.5
801.918	64.08
802.229	64.31
802.54	64.7
802.851	63.69
803.161	63.48
803.472	63.93
803.782	63.91
804.093	63.23
804.403	63.04
804.714	62.31
805.024	63
805.334	63.08
805.645	62.67
805.955	62.39
806.265	62.45
806.575	62.15
806.885	62.1
807.195	62.24
807.505	62.3
807.815	62.58
808.125	62.46
808.435	62.79
808.745	62.32
809.055	61.7
809.365	62.1
809.674	62.06
809.984	61.96
810.294	61.97
810.603	61.98
810.913	62.43
811.222	62.41
811.532	61.39
811.841	61.47
812.151	61.84
812.46	62.03
812.769	61.79
813.079	61.24
813.388	61.84
813.697	62.61
814.006	62.17
814.315	62.07
814.624	62.69
814.933	62.44
815.242	62.66
815.551	63.9
815.86	64.49
816.169	64.02
816.478	65.05
816.786	64.98
817.095	65.37
817.404	65.42
817.712	65.31
818.021	65.72
818.33	65.17
818.638	64.59
818.947	63.79
819.255	63.91
819.563	64.24
819.872	63.53
820.18	63.35
820.488	63.49
820.796	63.66
821.105	63.41
821.413	63.45
821.721	63.36
822.029	63.03
822.337	62.97
822.645	62.98
822.953	62.73
823.26	62.64
823.568	62.51
823.876	62.56
824.184	62.66
824.491	62.61
824.799	62.78
825.107	62.75
825.414	62.8
825.722	62.68
826.029	62.73
826.337	62.89
826.644	62.75
826.951	62.6
827.259	62.39
827.566	62.44
827.873	62.63
828.18	62.63
828.488	62.72
828.795	62.53
829.102	62.74
829.409	62.76
829.716	62.61
830.023	62.85
830.329	62.67
830.636	62.64
830.943	62.99
831.25	62.63
831.557	62.72
831.863	63.09
832.17	63.15
832.476	62.96
832.783	63.02
833.089	63.55
833.396	64.31
833.702	64.84
834.009	64.77
834.315	64.41
834.621	64.24
834.928	64.29
835.234	64.47
835.54	64.54
835.846	64.33
836.152	64.73
836.458	64.63
836.764	64.94
837.07	65.28
837.376	64.65
837.682	65.25
837.988	65.23
838.293	64.64
838.599	64.89
838.905	65.31
839.211	65.18
839.516	65.18
839.822	65.17
840.127	64.59
840.433	65.07
840.738	64.64
841.044	64.99
841.349	64.63
841.654	64.21
841.959	64.7
842.265	65.49
842.57	67.27
842.875	67.79
843.18	67.4
843.485	65.73
843.79	66.45
844.095	65.9
844.4	67.32
844.705	67.71
845.01	67.17
845.315	67.47
845.619	68.59
845.924	68.58
846.229	66.5
846.533	68.12
846.838	67.61
847.142	68.53
847.447	67.78
847.751	68.7
848.056	68.64
848.36	67.92
848.664	67.51
848.969	64.96
849.273	64.37
849.577	63.07
849.881	63.02
850.185	62.22
850.489	61.71
850.794	60.43
851.097	61.25
851.401	62.91
851.705	62.64
852.009	63.43
852.313	62.62
852.617	65.53
852.92	64.27
853.224	64.64
853.528	66.61
853.831	65.45
854.135	64.53
854.438	65.44
854.742	65.67
855.045	64.25
855.349	63.95
855.652	64.98
855.955	66.61
856.259	68.32
856.562	71.09
856.865	70.71
857.168	70.5
857.471	71.27
857.774	69.73
858.077	69.88
858.38	66.37
858.683	66.94
858.986	66.94
859.289	64.22
859.592	66.01
859.894	62.96
860.197	64.43
860.5	63.6
860.802	64.98
861.105	64.59
861.407	67.05
861.71	68.6
862.012	66.58
862.315	65.16
862.617	64.63
862.919	62.1
863.222	62.38
863.524	62.6
863.826	64.41
864.128	66.93
864.43	67.04
864.732	69.02
865.034	69.18
865.336	66.77
865.638	67.59
865.94	65.95
866.242	65.72
866.544	66.45
866.846	68.89
867.147	68.74
867.449	67.51
867.751	65.38
868.052	62.74
868.354	64.87
868.655	66.29
868.957	67.77
869.258	68
869.56	67.77
869.861	64.31
870.162	63.7
870.463	59.2
870.765	58.49
871.066	57.31
871.367	58.65
871.668	59.63
871.969	61.77
872.27	62.35
872.571	63.54
872.872	64.62
873.173	61.91
873.473	60.51
873.774	62.95
874.075	65.71
874.376	65.77
874.676	67.21
874.977	66.63
875.277	65.71
875.578	66.24
875.878	67.08
876.179	70.5
876.479	68.54
876.78	71.26
877.08	72.68
877.38	74.13
877.68	72.9
877.981	73.43
878.281	72.37
878.581	72.13
