Data from BU57649_Reflection_00002.txt Node
Date: Tue Nov 19 10:55:31 EST 2019
User: vgr7
Spectrometer: USB2G7710
Scans to average: 3
Trigger mode: 4
Integration Time (sec): 2.000000E-2
Electric dark correction enabled: true
Boxcar width: 10
XAxis mode: Wavelengths
Number of Pixels in Spectrum: 2048
>>>>>Begin Spectral Data<<<<<
177.721	-17.9
178.105	-17.19
178.488	-16.47
178.871	2.04
179.254	-7.91
179.636	-15.62
180.019	15.49
180.402	-133.33
180.785	-570.59
181.168	-8525
181.55	333.77
181.933	-219.53
182.316	-120.86
182.698	63.53
183.081	-16.22
183.463	-4.4
183.846	-16.32
184.228	-23.29
184.611	-14.39
184.993	-16.17
185.376	-16.42
185.758	-16.52
186.14	-20
186.522	-20.81
186.904	-13.56
187.287	-14.09
187.669	-18.1
188.051	-21.52
188.433	-38.43
188.815	-43.37
189.197	-53.57
189.579	-54.84
189.961	-63.03
190.342	-68.47
190.724	-79
191.106	-63.59
191.488	-65.71
191.869	-61.6
192.251	-54.87
192.633	-51.39
193.014	-56.54
193.396	-81.63
193.777	-82.27
194.159	-59.34
194.54	-40.22
194.922	-50.1
195.303	-71.43
195.684	-48.74
196.065	-37.95
196.447	-11.18
196.828	-3.99
197.209	9.67
197.59	-6.31
197.971	-1.72
198.352	9.27
198.733	5.12
199.114	-11.57
199.495	-6.48
199.876	-12.22
200.257	-6.87
200.638	-7.25
201.018	-4.84
201.399	1.54
201.78	-0.94
202.16	-11.44
202.541	-12.31
202.922	-11.23
203.302	-10.58
203.683	-14.97
204.063	-12.86
204.444	-11.77
204.824	-9.86
205.204	0.42
205.585	6.27
205.965	-0.03
206.345	2.03
206.725	-1.24
207.106	4.42
207.486	2.99
207.866	4.29
208.246	4.2
208.626	-7.89
209.006	-13.37
209.386	-12.66
209.766	-13.81
210.145	-12.72
210.525	-17.34
210.905	-18.41
211.285	-11.83
211.664	-16.01
212.044	-19.45
212.424	-22.26
212.803	-26.33
213.183	-41.07
213.562	-35.1
213.942	-37.47
214.321	-41
214.701	-33.26
215.08	-37.08
215.459	-33.79
215.838	-41.91
216.218	-57.95
216.597	-45.09
216.976	-38.52
217.355	-27.23
217.734	-25.04
218.113	-20.51
218.492	-24.27
218.871	-21.66
219.25	-28.38
219.629	-30.43
220.008	-18.72
220.387	-9.91
220.766	5.04
221.144	-5.59
221.523	-14.96
221.902	-15.84
222.28	-11.75
222.659	-3.31
223.037	-3.63
223.416	2.75
223.794	3.23
224.173	5.4
224.551	6.19
224.929	1.68
225.308	-4.26
225.686	-8.69
226.064	-3.13
226.442	-1.33
226.821	-1.27
227.199	0.56
227.577	-0.16
227.955	-1.33
228.333	-4.74
228.711	-6.03
229.089	-1.39
229.467	2.54
229.845	3.7
230.222	4.16
230.6	2.64
230.978	2
231.356	0.35
231.733	1
232.111	3.71
232.488	6.38
232.866	6.45
233.243	5.62
233.621	7.53
233.998	5.88
234.376	6.73
234.753	7.02
235.13	3.73
235.508	3.65
235.885	2.53
236.262	3.59
236.639	1.79
237.016	1.75
237.393	0.73
237.77	0.77
238.147	1.44
238.524	2.06
238.901	2.76
239.278	2.35
239.655	2.45
240.032	1.75
240.409	1.32
240.785	1.6
241.162	1.84
241.539	1.73
241.915	1.64
242.292	1.41
242.668	1.95
243.045	2.8
243.421	3.7
243.798	4.42
244.174	4.45
244.551	4.78
244.927	4.76
245.303	4.28
245.679	4.15
246.056	3.96
246.432	3.82
246.808	3.83
247.184	4.07
247.56	4.15
247.936	4.16
248.312	4.25
248.688	4.18
249.064	4.23
249.44	4.23
249.815	4.5
250.191	4.41
250.567	4.2
250.943	4.31
251.318	4.04
251.694	3.75
252.069	3.61
252.445	3.61
252.82	3.83
253.196	4.28
253.571	4.61
253.947	4.46
254.322	4.43
254.697	4.38
255.073	4.41
255.448	4.32
255.823	4.65
256.198	4.53
256.573	4.84
256.948	4.82
257.323	4.81
257.698	4.67
258.073	4.61
258.448	4.56
258.823	4.43
259.198	4.34
259.573	4.34
259.948	4.43
260.322	4.3
260.697	4.21
261.072	4.29
261.446	4.16
261.821	4.22
262.195	4.19
262.57	4.36
262.944	4.31
263.319	4.27
263.693	4.09
264.067	4.13
264.442	3.99
264.816	4.04
265.19	3.87
265.564	3.7
265.938	3.7
266.313	3.68
266.687	3.63
267.061	3.61
267.435	3.55
267.809	3.46
268.183	3.41
268.556	3.31
268.93	3.27
269.304	3.29
269.678	3.38
270.051	3.4
270.425	3.37
270.799	3.37
271.172	3.72
271.546	4.04
271.919	3.9
272.293	3.93
272.666	3.83
273.04	3.96
273.413	4.19
273.787	4.19
274.16	4.22
274.533	4.28
274.906	4.55
275.279	4.62
275.653	4.71
276.026	4.82
276.399	4.96
276.772	4.96
277.145	5.14
277.518	5.07
277.891	5.04
278.263	5.13
278.636	5.11
279.009	4.97
279.382	4.7
279.755	4.91
280.127	4.69
280.5	4.55
280.872	4.5
281.245	4.39
281.617	4.57
281.99	4.53
282.362	4.35
282.735	4.1
283.107	4.01
283.479	3.95
283.852	3.95
284.224	3.89
284.596	4
284.968	3.95
285.34	3.95
285.713	3.99
286.085	3.94
286.457	3.9
286.829	3.72
287.201	3.68
287.572	3.66
287.944	3.83
288.316	3.98
288.688	4
289.06	3.96
289.431	3.94
289.803	4.04
290.175	4.11
290.546	4.21
290.918	4.26
291.289	4.29
291.661	4.37
292.032	4.51
292.403	4.42
292.775	4.46
293.146	4.55
293.517	4.61
293.889	4.5
294.26	4.56
294.631	4.72
295.002	4.77
295.373	4.7
295.744	4.65
296.115	4.64
296.486	4.71
296.857	4.78
297.228	4.63
297.599	4.6
297.97	4.73
298.34	4.74
298.711	4.63
299.082	4.65
299.452	4.58
299.823	4.42
300.194	4.51
300.564	4.47
300.935	4.4
301.305	4.34
301.676	4.27
302.046	4.37
302.416	4.4
302.787	4.48
303.157	4.65
303.527	4.68
303.897	4.66
304.267	4.6
304.637	4.63
305.008	4.81
305.378	4.92
305.748	4.81
306.117	4.74
306.487	4.82
306.857	4.93
307.227	5.03
307.597	5.03
307.967	4.94
308.336	4.96
308.706	5.04
309.076	5.1
309.445	5.3
309.815	5.16
310.184	5.08
310.554	5.09
310.923	4.83
311.293	4.79
311.662	4.74
312.031	4.72
312.401	4.68
312.77	4.57
313.139	4.45
313.508	4.47
313.877	4.52
314.246	4.51
314.616	4.58
314.985	4.35
315.353	4.38
315.722	4.48
316.091	4.52
316.46	4.47
316.829	4.42
317.198	4.42
317.567	4.57
317.935	4.56
318.304	4.56
318.672	4.75
319.041	4.77
319.41	4.9
319.778	4.88
320.147	4.83
320.515	4.87
320.883	4.86
321.252	4.9
321.62	4.93
321.988	5.02
322.357	4.85
322.725	4.99
323.093	4.95
323.461	4.76
323.829	4.86
324.197	4.8
324.565	4.84
324.933	4.89
325.301	4.73
325.669	4.79
326.037	4.77
326.405	4.77
326.772	4.84
327.14	4.7
327.508	4.74
327.875	4.74
328.243	4.81
328.61	4.69
328.978	4.66
329.346	4.64
329.713	4.68
330.08	4.72
330.448	4.74
330.815	4.79
331.182	4.79
331.55	4.6
331.917	4.65
332.284	4.66
332.651	4.5
333.018	4.5
333.385	4.43
333.752	4.45
334.119	4.46
334.486	4.46
334.853	4.59
335.22	4.52
335.587	4.42
335.954	4.39
336.32	4.54
336.687	4.63
337.054	4.6
337.42	4.46
337.787	4.43
338.153	4.51
338.52	4.62
338.886	4.8
339.253	4.8
339.619	4.77
339.986	4.61
340.352	4.54
340.718	4.65
341.084	4.73
341.451	4.63
341.817	4.61
342.183	4.59
342.549	4.57
342.915	4.71
343.281	4.77
343.647	4.82
344.013	4.81
344.379	4.75
344.745	4.83
345.11	4.94
345.476	5.06
345.842	4.91
346.208	4.9
346.573	4.88
346.939	4.92
347.304	4.99
347.67	5.07
348.035	5.16
348.401	5.1
348.766	5.07
349.132	5.22
349.497	5.19
349.862	5.24
350.228	5.24
350.593	5.19
350.958	5.27
351.323	5.28
351.688	5.34
352.053	5.44
352.418	5.39
352.783	5.39
353.148	5.41
353.513	5.47
353.878	5.43
354.243	5.4
354.608	5.46
354.972	5.46
355.337	5.53
355.702	5.53
356.066	5.56
356.431	5.57
356.795	5.47
357.16	5.48
357.524	5.37
357.889	5.25
358.253	5.21
358.618	5.16
358.982	5.13
359.346	5.11
359.71	5.06
360.075	5.06
360.439	5.04
360.803	4.99
361.167	4.99
361.531	4.94
361.895	4.9
362.259	4.88
362.623	4.82
362.987	4.8
363.351	4.77
363.714	4.67
364.078	4.65
364.442	4.63
364.806	4.67
365.169	4.74
365.533	4.81
365.896	4.84
366.26	4.86
366.623	4.89
366.987	4.85
367.35	4.82
367.714	4.8
368.077	4.85
368.44	4.79
368.803	4.78
369.167	4.8
369.53	4.85
369.893	4.81
370.256	4.86
370.619	4.81
370.982	4.8
371.345	4.92
371.708	4.87
372.071	4.89
372.434	4.84
372.797	4.83
373.159	4.83
373.522	4.8
373.885	4.79
374.247	4.7
374.61	4.69
374.973	4.67
375.335	4.72
375.698	4.65
376.06	4.69
376.423	4.72
376.785	4.79
377.147	4.75
377.51	4.76
377.872	4.78
378.234	4.83
378.596	4.82
378.958	4.8
379.321	4.81
379.683	4.76
380.045	4.81
380.407	4.77
380.769	4.76
381.13	4.75
381.492	4.76
381.854	4.79
382.216	4.85
382.578	4.91
382.939	4.86
383.301	4.9
383.663	4.9
384.024	4.92
384.386	4.87
384.747	4.83
385.109	4.8
385.47	4.81
385.832	4.77
386.193	4.8
386.554	4.76
386.916	4.76
387.277	4.74
387.638	4.73
387.999	4.79
388.36	4.81
388.721	4.83
389.082	4.83
389.443	4.86
389.804	4.82
390.165	4.77
390.526	4.78
390.887	4.75
391.248	4.73
391.609	4.72
391.969	4.76
392.33	4.78
392.691	4.78
393.051	4.76
393.412	4.79
393.772	4.78
394.133	4.79
394.493	4.76
394.854	4.8
395.214	4.81
395.574	4.74
395.935	4.74
396.295	4.74
396.655	4.73
397.015	4.72
397.376	4.73
397.736	4.73
398.096	4.74
398.456	4.74
398.816	4.74
399.176	4.7
399.535	4.68
399.895	4.67
400.255	4.67
400.615	4.66
400.975	4.61
401.334	4.65
401.694	4.64
402.054	4.67
402.413	4.66
402.773	4.61
403.132	4.64
403.492	4.61
403.851	4.59
404.211	4.59
404.57	4.57
404.929	4.55
405.288	4.58
405.648	4.56
406.007	4.57
406.366	4.52
406.725	4.55
407.084	4.56
407.443	4.57
407.802	4.59
408.161	4.62
408.52	4.64
408.879	4.61
409.238	4.63
409.596	4.62
409.955	4.65
410.314	4.67
410.673	4.7
411.031	4.67
411.39	4.7
411.748	4.71
412.107	4.74
412.465	4.76
412.824	4.74
413.182	4.71
413.54	4.72
413.899	4.76
414.257	4.72
414.615	4.68
414.974	4.67
415.332	4.65
415.69	4.64
416.048	4.65
416.406	4.63
416.764	4.61
417.122	4.62
417.48	4.61
417.838	4.59
418.195	4.57
418.553	4.59
418.911	4.58
419.269	4.58
419.626	4.57
419.984	4.56
420.342	4.57
420.699	4.58
421.057	4.55
421.414	4.54
421.772	4.57
422.129	4.56
422.486	4.58
422.844	4.56
423.201	4.55
423.558	4.52
423.915	4.53
424.273	4.54
424.63	4.55
424.987	4.54
425.344	4.55
425.701	4.56
426.058	4.56
426.415	4.56
426.772	4.54
427.128	4.54
427.485	4.53
427.842	4.53
428.199	4.51
428.555	4.53
428.912	4.53
429.269	4.48
429.625	4.49
429.982	4.48
430.338	4.49
430.695	4.49
431.051	4.53
431.407	4.51
431.764	4.48
432.12	4.45
432.476	4.47
432.832	4.48
433.189	4.46
433.545	4.44
433.901	4.45
434.257	4.44
434.613	4.41
434.969	4.41
435.325	4.41
435.681	4.43
436.036	4.44
436.392	4.44
436.748	4.47
437.104	4.48
437.459	4.48
437.815	4.49
438.171	4.49
438.526	4.49
438.882	4.49
439.237	4.51
439.593	4.52
439.948	4.51
440.304	4.48
440.659	4.48
441.014	4.48
441.369	4.47
441.725	4.48
442.08	4.49
442.435	4.48
442.79	4.48
443.145	4.47
443.5	4.46
443.855	4.45
444.21	4.44
444.565	4.43
444.92	4.45
445.275	4.45
445.629	4.45
445.984	4.42
446.339	4.44
446.693	4.45
447.048	4.43
447.403	4.41
447.757	4.42
448.112	4.42
448.466	4.43
448.82	4.44
449.175	4.43
449.529	4.43
449.883	4.43
450.238	4.43
450.592	4.42
450.946	4.42
451.3	4.42
451.654	4.4
452.008	4.4
452.362	4.38
452.716	4.36
453.07	4.36
453.424	4.36
453.778	4.33
454.132	4.31
454.486	4.33
454.839	4.35
455.193	4.34
455.547	4.35
455.9	4.36
456.254	4.36
456.607	4.38
456.961	4.38
457.314	4.39
457.668	4.38
458.021	4.38
458.375	4.36
458.728	4.37
459.081	4.36
459.434	4.35
459.787	4.35
460.141	4.36
460.494	4.35
460.847	4.36
461.2	4.36
461.553	4.39
461.906	4.38
462.259	4.35
462.611	4.36
462.964	4.36
463.317	4.35
463.67	4.36
464.022	4.35
464.375	4.34
464.728	4.34
465.08	4.36
465.433	4.36
465.785	4.4
466.138	4.4
466.49	4.43
466.843	4.45
467.195	4.44
467.547	4.44
467.899	4.45
468.252	4.46
468.604	4.46
468.956	4.45
469.308	4.45
469.66	4.47
470.012	4.49
470.364	4.5
470.716	4.5
471.068	4.5
471.42	4.51
471.772	4.52
472.123	4.54
472.475	4.53
472.827	4.53
473.178	4.52
473.53	4.48
473.882	4.49
474.233	4.49
474.585	4.51
474.936	4.51
475.288	4.5
475.639	4.51
475.99	4.51
476.342	4.52
476.693	4.53
477.044	4.54
477.395	4.52
477.746	4.5
478.097	4.49
478.448	4.48
478.8	4.46
479.15	4.47
479.501	4.47
479.852	4.48
480.203	4.49
480.554	4.5
480.905	4.54
481.255	4.54
481.606	4.54
481.957	4.55
482.307	4.56
482.658	4.57
483.009	4.57
483.359	4.57
483.709	4.57
484.06	4.56
484.41	4.56
484.761	4.58
485.111	4.59
485.461	4.58
485.811	4.58
486.162	4.58
486.512	4.59
486.862	4.59
487.212	4.59
487.562	4.59
487.912	4.59
488.262	4.59
488.612	4.59
488.961	4.58
489.311	4.58
489.661	4.57
490.011	4.55
490.36	4.56
490.71	4.56
491.06	4.55
491.409	4.55
491.759	4.56
492.108	4.54
492.458	4.53
492.807	4.53
493.157	4.54
493.506	4.55
493.855	4.54
494.204	4.55
494.554	4.54
494.903	4.54
495.252	4.54
495.601	4.56
495.95	4.57
496.299	4.58
496.648	4.59
496.997	4.6
497.346	4.63
497.695	4.62
498.043	4.64
498.392	4.65
498.741	4.66
499.09	4.66
499.438	4.67
499.787	4.68
500.135	4.72
500.484	4.73
500.832	4.74
501.181	4.76
501.529	4.78
501.878	4.78
502.226	4.8
502.574	4.82
502.923	4.82
503.271	4.82
503.619	4.81
503.967	4.79
504.315	4.79
504.663	4.79
505.011	4.8
505.359	4.8
505.707	4.82
506.055	4.81
506.403	4.81
506.751	4.82
507.098	4.84
507.446	4.83
507.794	4.84
508.141	4.85
508.489	4.86
508.837	4.85
509.184	4.85
509.531	4.83
509.879	4.81
510.226	4.8
510.574	4.79
510.921	4.8
511.268	4.83
511.616	4.84
511.963	4.85
512.31	4.85
512.657	4.87
513.004	4.87
513.351	4.89
513.698	4.89
514.045	4.91
514.392	4.92
514.739	4.93
515.086	4.92
515.432	4.93
515.779	4.93
516.126	4.95
516.473	4.95
516.819	4.98
517.166	5
517.512	5
517.859	5.03
518.205	5.01
518.552	5
518.898	5
519.245	5
519.591	5.03
519.937	5.04
520.283	5.04
520.629	5.04
520.976	5.05
521.322	5.03
521.668	5.03
522.014	5.03
522.36	5.03
522.706	5.04
523.052	5.04
523.398	5.04
523.743	5.06
524.089	5.06
524.435	5.06
524.781	5.07
525.126	5.08
525.472	5.1
525.817	5.12
526.163	5.13
526.509	5.15
526.854	5.15
527.199	5.16
527.545	5.18
527.89	5.17
528.235	5.17
528.581	5.18
528.926	5.18
529.271	5.18
529.616	5.18
529.961	5.18
530.306	5.18
530.651	5.15
530.996	5.16
531.341	5.17
531.686	5.16
532.031	5.16
532.376	5.16
532.721	5.15
533.065	5.15
533.41	5.16
533.755	5.15
534.099	5.13
534.444	5.12
534.788	5.1
535.133	5.1
535.477	5.11
535.822	5.12
536.166	5.13
536.51	5.13
536.855	5.13
537.199	5.14
537.543	5.15
537.887	5.17
538.231	5.17
538.576	5.16
538.92	5.18
539.264	5.18
539.608	5.18
539.951	5.2
540.295	5.18
540.639	5.17
540.983	5.17
541.327	5.17
541.671	5.17
542.014	5.2
542.358	5.23
542.701	5.23
543.045	5.22
543.389	5.23
543.732	5.24
544.075	5.24
544.419	5.25
544.762	5.24
545.105	5.24
545.449	5.27
545.792	5.26
546.135	5.26
546.478	5.26
546.821	5.26
547.165	5.25
547.508	5.27
547.851	5.28
548.194	5.28
548.536	5.28
548.879	5.3
549.222	5.27
549.565	5.23
549.908	5.24
550.25	5.22
550.593	5.22
550.936	5.23
551.278	5.24
551.621	5.24
551.963	5.26
552.306	5.27
552.648	5.25
552.991	5.26
553.333	5.26
553.675	5.27
554.017	5.28
554.36	5.3
554.702	5.27
555.044	5.26
555.386	5.29
555.728	5.3
556.07	5.29
556.412	5.29
556.754	5.26
557.096	5.23
557.438	5.23
557.78	5.2
558.121	5.21
558.463	5.19
558.805	5.21
559.147	5.2
559.488	5.18
559.83	5.17
560.171	5.16
560.513	5.16
560.854	5.18
561.196	5.18
561.537	5.18
561.878	5.22
562.22	5.22
562.561	5.23
562.902	5.22
563.243	5.22
563.584	5.21
563.925	5.26
564.266	5.29
564.607	5.31
564.948	5.31
565.289	5.32
565.63	5.31
565.971	5.31
566.312	5.3
566.653	5.3
566.993	5.29
567.334	5.33
567.675	5.35
568.015	5.33
568.356	5.33
568.696	5.32
569.037	5.33
569.377	5.32
569.718	5.31
570.058	5.32
570.398	5.3
570.739	5.32
571.079	5.31
571.419	5.33
571.759	5.3
572.099	5.31
572.439	5.28
572.779	5.29
573.119	5.26
573.459	5.25
573.799	5.27
574.139	5.28
574.479	5.25
574.819	5.26
575.158	5.26
575.498	5.25
575.838	5.26
576.177	5.24
576.517	5.23
576.856	5.22
577.196	5.25
577.535	5.26
577.875	5.25
578.214	5.26
578.553	5.24
578.893	5.27
579.232	5.29
579.571	5.35
579.91	5.33
580.25	5.37
580.589	5.41
580.928	5.41
581.267	5.41
581.606	5.43
581.945	5.41
582.283	5.42
582.622	5.42
582.961	5.4
583.3	5.43
583.639	5.42
583.977	5.44
584.316	5.44
584.654	5.45
584.993	5.45
585.332	5.42
585.67	5.42
586.008	5.42
586.347	5.43
586.685	5.38
587.024	5.41
587.362	5.4
587.7	5.39
588.038	5.38
588.376	5.41
588.715	5.39
589.053	5.37
589.391	5.38
589.729	5.42
590.067	5.43
590.404	5.41
590.742	5.45
591.08	5.42
591.418	5.43
591.756	5.42
592.093	5.4
592.431	5.45
592.769	5.47
593.106	5.47
593.444	5.45
593.781	5.48
594.119	5.5
594.456	5.47
594.793	5.45
595.131	5.49
595.468	5.48
595.805	5.53
596.143	5.54
596.48	5.52
596.817	5.47
597.154	5.48
597.491	5.45
597.828	5.46
598.165	5.49
598.502	5.43
598.839	5.45
599.176	5.46
599.512	5.42
599.849	5.43
600.186	5.42
600.523	5.44
600.859	5.44
601.196	5.4
601.532	5.42
601.869	5.43
602.205	5.41
602.542	5.4
602.878	5.39
603.215	5.38
603.551	5.38
603.887	5.44
604.223	5.42
604.56	5.44
604.896	5.45
605.232	5.43
605.568	5.45
605.904	5.43
606.24	5.43
606.576	5.46
606.912	5.44
607.248	5.45
607.583	5.45
607.919	5.42
608.255	5.43
608.591	5.45
608.926	5.43
609.262	5.41
609.597	5.41
609.933	5.41
610.268	5.42
610.604	5.42
610.939	5.38
611.275	5.37
611.61	5.35
611.945	5.35
612.281	5.34
612.616	5.37
612.951	5.42
613.286	5.4
613.621	5.35
613.956	5.36
614.291	5.31
614.626	5.32
614.961	5.33
615.296	5.36
615.631	5.34
615.966	5.4
616.3	5.44
616.635	5.47
616.97	5.48
617.304	5.52
617.639	5.56
617.973	5.55
618.308	5.6
618.642	5.59
618.977	5.55
619.311	5.6
619.646	5.59
619.98	5.56
620.314	5.58
620.648	5.61
620.983	5.63
621.317	5.69
621.651	5.68
621.985	5.7
622.319	5.71
622.653	5.77
622.987	5.74
623.321	5.72
623.655	5.7
623.988	5.71
624.322	5.7
624.656	5.69
624.99	5.69
625.323	5.68
625.657	5.72
625.99	5.75
626.324	5.69
626.657	5.66
626.991	5.67
627.324	5.64
627.658	5.63
627.991	5.65
628.324	5.63
628.657	5.61
628.991	5.63
629.324	5.6
629.657	5.59
629.99	5.6
630.323	5.63
630.656	5.65
630.989	5.57
631.322	5.51
631.655	5.49
631.987	5.5
632.32	5.44
632.653	5.43
632.986	5.41
633.318	5.44
633.651	5.5
633.984	5.49
634.316	5.51
634.649	5.54
634.981	5.52
635.313	5.57
635.646	5.56
635.978	5.55
636.31	5.54
636.643	5.54
636.975	5.53
637.307	5.55
637.639	5.5
637.971	5.58
638.303	5.61
638.635	5.65
638.967	5.65
639.299	5.68
639.631	5.64
639.963	5.7
640.295	5.73
640.626	5.69
640.958	5.64
641.29	5.71
641.621	5.66
641.953	5.64
642.285	5.63
642.616	5.7
642.948	5.73
643.279	5.72
643.61	5.75
643.942	5.74
644.273	5.7
644.604	5.72
644.936	5.64
645.267	5.66
645.598	5.64
645.929	5.65
646.26	5.64
646.591	5.7
646.922	5.68
647.253	5.63
647.584	5.68
647.915	5.7
648.245	5.66
648.576	5.69
648.907	5.71
649.238	5.67
649.568	5.6
649.899	5.52
650.229	5.55
650.56	5.56
650.89	5.64
651.221	5.64
651.551	5.67
651.882	5.75
652.212	5.75
652.542	5.8
652.872	5.83
653.203	5.9
653.533	5.89
653.863	5.91
654.193	5.87
654.523	5.85
654.853	5.92
655.183	5.96
655.513	5.99
655.843	5.93
656.172	5.96
656.502	5.92
656.832	5.96
657.162	6
657.491	5.95
657.821	5.87
658.15	5.91
658.48	5.87
658.809	5.87
659.139	5.88
659.468	5.88
659.798	5.93
660.127	5.9
660.456	5.85
660.785	5.86
661.115	5.92
661.444	5.99
661.773	5.96
662.102	5.93
662.431	5.89
662.76	5.9
663.089	5.92
663.418	5.99
663.747	5.93
664.076	5.83
664.404	5.87
664.733	5.89
665.062	5.83
665.39	5.85
665.719	5.87
666.048	5.85
666.376	5.8
666.705	5.74
667.033	5.71
667.362	5.82
667.69	5.83
668.018	5.77
668.347	5.71
668.675	5.74
669.003	5.8
669.331	5.86
669.659	5.92
669.987	5.88
670.315	5.86
670.643	5.93
670.971	5.97
671.299	5.95
671.627	5.99
671.955	5.95
672.283	5.98
672.61	5.97
672.938	5.97
673.266	5.99
673.593	5.92
673.921	5.9
674.249	5.92
674.576	5.92
674.904	5.9
675.231	5.92
675.558	5.86
675.886	5.88
676.213	5.81
676.54	5.84
676.867	5.86
677.195	5.92
677.522	5.86
677.849	5.89
678.176	5.86
678.503	5.8
678.83	5.85
679.157	5.88
679.484	5.84
679.81	5.82
680.137	5.87
680.464	5.91
680.791	5.91
681.117	5.94
681.444	5.92
681.771	6
682.097	6.01
682.424	5.97
682.75	5.96
683.077	5.97
683.403	5.93
683.729	5.87
684.056	5.89
684.382	5.89
684.708	5.94
685.034	5.98
685.36	5.97
685.686	5.96
686.012	5.96
686.339	6.03
686.664	6.03
686.99	5.94
687.316	5.95
687.642	6.07
687.968	6.05
688.294	6.05
688.619	5.99
688.945	5.94
689.271	6.02
689.596	6.04
689.922	5.99
690.247	5.96
690.573	5.98
690.898	5.92
691.224	5.93
691.549	5.82
691.874	5.91
692.2	5.92
692.525	5.88
692.85	5.86
693.175	5.88
693.5	5.93
693.825	6.01
694.15	6
694.475	6
694.8	5.84
695.125	5.84
695.45	5.83
695.775	5.83
696.099	5.83
696.424	5.88
696.749	5.95
697.073	6.02
697.398	6.07
697.723	6.08
698.047	6.13
698.372	6.22
698.696	6.13
699.02	6.15
699.345	6.17
699.669	6.08
699.993	6.03
700.318	6
700.642	5.98
700.966	6.05
701.29	6.01
701.614	6.04
701.938	5.97
702.262	6.04
702.586	6.11
702.91	6.13
703.234	6.01
703.557	6.06
703.881	6.03
704.205	6
704.529	5.95
704.852	5.91
705.176	5.91
705.499	5.9
705.823	5.89
706.146	5.99
706.47	6.18
706.793	6.32
707.117	6.33
707.44	6.24
707.763	6.13
708.086	6.22
708.409	6.23
708.733	6.39
709.056	6.39
709.379	6.42
709.702	6.29
710.025	6.27
710.348	6.22
710.671	6.28
710.993	6.29
711.316	6.31
711.639	6.31
711.962	6.32
712.284	6.35
712.607	6.37
712.93	6.25
713.252	6.21
713.575	6.14
713.897	6.07
714.22	6.12
714.542	6.2
714.864	6.05
715.187	6.1
715.509	5.98
715.831	6.03
716.153	5.91
716.475	6.07
716.798	6.14
717.12	6.08
717.442	5.98
717.764	5.98
718.085	6.02
718.407	5.99
718.729	5.8
719.051	5.76
719.373	5.69
719.695	5.77
720.016	5.67
720.338	5.64
720.659	5.79
720.981	5.75
721.302	5.69
721.624	5.67
721.945	5.67
722.267	5.84
722.588	5.82
722.909	5.9
723.231	5.76
723.552	5.67
723.873	5.61
724.194	5.74
724.515	5.72
724.836	5.57
725.157	5.83
725.478	5.84
725.799	5.87
726.12	5.91
726.441	5.97
726.762	5.97
727.083	5.98
727.403	6.11
727.724	6.26
728.045	6.35
728.365	6.41
728.686	6.52
729.006	6.33
729.327	6.15
729.647	6.04
729.967	6.18
730.288	6.19
730.608	6.32
730.928	6.29
731.249	6.34
731.569	6.56
731.889	6.32
732.209	6.45
732.529	6.43
732.849	6.5
733.169	6.45
733.489	6.47
733.809	6.42
734.129	6.35
734.448	6.14
734.768	5.95
735.088	5.97
735.408	6.09
735.727	6.29
736.047	6.42
736.366	6.49
736.686	6.5
737.005	6.58
737.325	6.6
737.644	6.41
737.963	6.36
738.283	6.14
738.602	6.15
738.921	6.2
739.24	6.2
739.56	6.34
739.879	6.32
740.198	6.23
740.517	6.23
740.836	6.17
741.155	6.33
741.473	6.64
741.792	6.71
742.111	6.6
742.43	6.59
742.748	6.63
743.067	6.68
743.386	6.34
743.704	6.48
744.023	6.51
744.341	6.7
744.66	6.58
744.978	6.66
745.297	6.64
745.615	6.49
745.933	6.43
746.252	6.13
746.57	6.07
746.888	6.4
747.206	6.4
747.524	6.41
747.842	6.2
748.16	6.06
748.478	6.06
748.796	5.84
749.114	5.9
749.432	5.89
749.749	5.96
750.067	6.3
750.385	6.21
750.703	6.21
751.02	6.03
751.338	5.93
751.655	6.11
751.973	6.12
752.29	6.31
752.608	6.13
752.925	6.55
753.242	6.62
753.56	6.4
753.877	6.44
754.194	6.56
754.511	6.65
754.828	6.64
755.145	6.6
755.462	6.69
755.779	6.4
756.096	6.51
756.413	6.31
756.73	6.35
757.047	6.22
757.364	6.28
757.68	6.28
757.997	6.55
758.314	6.61
758.63	6.81
758.947	6.75
759.264	7.06
759.58	6.97
759.896	7.2
760.213	7.51
760.529	7.36
760.846	7.1
761.162	7.21
761.478	7.23
761.794	7.12
762.11	7.01
762.426	6.99
762.743	7.02
763.059	7.16
763.375	7.1
763.69	7.11
764.006	7.04
764.322	7.3
764.638	7.29
764.954	7.27
765.27	7.21
765.585	7.29
765.901	7.19
766.216	7.26
766.532	7.12
766.848	7.03
767.163	7.18
767.478	7.32
767.794	7.43
768.109	7.51
768.424	7.71
768.74	7.93
769.055	8.22
769.37	8.25
769.685	8.24
770	8.13
770.315	8.33
770.63	8.18
770.945	8.03
771.26	7.91
771.575	7.55
771.89	7.76
772.205	7.73
772.52	7.89
772.834	7.65
773.149	7.64
773.464	7.5
773.778	7.53
774.093	7.7
774.407	7.49
774.722	7.19
775.036	7.3
775.351	7.24
775.665	7.08
775.979	7.09
776.293	7.2
776.608	7.33
776.922	7.23
777.236	7.42
777.55	7.41
777.864	7.56
778.178	7.8
778.492	7.6
778.806	7.59
779.12	7.66
779.434	7.86
779.747	7.92
780.061	7.85
780.375	7.82
780.689	7.78
781.002	7.81
781.316	8.03
781.629	8.22
781.943	8.12
782.256	8.02
782.57	7.53
782.883	7.3
783.196	7.42
783.51	7.33
783.823	7.48
784.136	7.26
784.449	7.47
784.762	7.78
785.075	7.81
785.388	8.19
785.701	8.09
786.014	8.19
786.327	8.05
786.64	8.22
786.953	8.2
787.266	7.89
787.578	8.08
787.891	8.08
788.204	7.42
788.516	7.47
788.829	7.63
789.141	7.97
789.454	8.06
789.766	8.24
790.079	8.34
790.391	8.18
790.703	8.5
791.016	8.67
791.328	8.62
791.64	8.61
791.952	8.33
792.264	8.19
792.576	8.08
792.888	8.26
793.2	8.52
793.512	8.82
793.824	8.73
794.136	8.24
794.448	8.12
794.76	8.33
795.071	8.39
795.383	8.88
795.695	8.55
796.006	8.33
796.318	8.1
796.629	7.94
796.941	7.9
797.252	7.78
797.564	7.95
797.875	7.59
798.186	7.44
798.497	7.07
798.809	7.4
799.12	7.08
799.431	6.93
799.742	6.43
800.053	6.11
800.364	6.28
800.675	6.81
800.986	6.65
801.297	6.7
801.608	6.64
801.918	6.06
802.229	6.08
802.54	5.96
802.851	5.87
803.161	6.14
803.472	6.47
803.782	6.74
804.093	6.47
804.403	6.8
804.714	7.13
805.024	7.5
805.334	7.4
805.645	7.68
805.955	7.79
806.265	7.96
806.575	7.92
806.885	8.24
807.195	8.15
807.505	8.24
807.815	8.1
808.125	7.9
808.435	8.08
808.745	8.36
809.055	9.25
809.365	9.19
809.674	8.74
809.984	8.58
810.294	8.42
810.603	8.34
810.913	8.06
811.222	7.43
811.532	7.09
811.841	7.43
812.151	7.57
812.46	7.83
812.769	7.73
813.079	8.06
813.388	7.92
813.697	6.99
814.006	7.22
814.315	7.09
814.624	7.58
814.933	7.9
815.242	7.88
815.551	7.4
815.86	7.8
816.169	7.91
816.478	8.09
816.786	8.07
817.095	8.04
817.404	8.19
817.712	8.81
818.021	9.18
818.33	8.53
818.638	8.01
818.947	7.73
819.255	7.78
819.563	7.39
819.872	7.35
820.18	7.82
820.488	8.13
820.796	8.29
821.105	8.33
821.413	8.2
821.721	8.32
822.029	8.29
822.337	8.13
822.645	8.22
822.953	8.16
823.26	8.16
823.568	8.06
823.876	8.08
824.184	8.01
824.491	7.88
824.799	7.96
825.107	8.01
825.414	7.94
825.722	7.85
826.029	8.13
826.337	8.17
826.644	8.22
826.951	8.08
827.259	8
827.566	7.93
827.873	7.95
828.18	7.61
828.488	7.75
828.795	8.04
829.102	7.92
829.409	7.77
829.716	7.76
830.023	7.81
830.329	8.14
830.636	8.4
830.943	8.3
831.25	8.58
831.557	8.62
831.863	8.82
832.17	8.93
832.476	8.82
832.783	8.82
833.089	8.97
833.396	9.02
833.702	9.04
834.009	8.86
834.315	8.73
834.621	9.32
834.928	9.01
835.234	8.8
835.54	8.66
835.846	8.94
836.152	8.77
836.458	8.63
836.764	8.16
837.07	7.94
837.376	8.29
837.682	7.61
837.988	7.62
838.293	8.06
838.599	8.24
838.905	8.08
839.211	7.8
839.516	7.04
839.822	7.4
840.127	7.43
840.433	7.88
840.738	8.11
841.044	7.28
841.349	7.18
841.654	6.06
841.959	6.4
842.265	6.9
842.57	6.75
842.875	6.84
843.18	6.44
843.485	5.96
843.79	5.58
844.095	6.32
844.4	5.02
844.705	4.22
845.01	3.68
845.315	2.44
845.619	3.22
845.924	3.71
846.229	2.29
846.533	1.69
846.838	1.24
847.142	1.52
847.447	2.22
847.751	3.37
848.056	4.58
848.36	5.23
848.664	3.72
848.969	3.44
849.273	3.73
849.577	3.13
849.881	3.41
850.185	3.41
850.489	3.08
850.794	6.01
851.097	5.18
851.401	5.63
851.705	7.73
852.009	7.69
852.313	6.51
852.617	7.1
852.92	9.88
853.224	10.09
853.528	8.97
853.831	10.49
854.135	9.86
854.438	9.1
854.742	8.95
855.045	9.13
855.349	9.49
855.652	9.21
855.955	10.46
856.259	8.86
856.562	10.22
856.865	10.63
857.168	8.07
857.471	8.04
857.774	8.57
858.077	8.08
858.38	7.96
858.683	10.05
858.986	10.34
859.289	10.46
859.592	10.63
859.894	10.48
860.197	9.43
860.5	9.63
860.802	9.82
861.105	10.26
861.407	11.08
861.71	11.82
862.012	13.84
862.315	11.8
862.617	14.39
862.919	13.84
863.222	13.34
863.524	14.34
863.826	13.64
864.128	15.53
864.43	14.79
864.732	15.62
865.034	15.37
865.336	15.53
865.638	13.99
865.94	12.81
866.242	13.29
866.544	14.02
866.846	11.85
867.147	12.77
867.449	11.04
867.751	11.33
868.052	10.04
868.354	8.59
868.655	10.98
868.957	10.15
869.258	10.72
869.56	12.71
869.861	11.57
870.162	11.82
870.463	9.12
870.765	8.66
871.066	7.22
871.367	6.47
871.668	4.21
871.969	3.39
872.27	5.89
872.571	5.36
872.872	4.18
873.173	5.99
873.473	5.38
873.774	4.81
874.075	4.33
874.376	4.5
874.676	5.22
874.977	4.9
875.277	4.62
875.578	2.98
875.878	1
876.179	2.02
876.479	2.91
876.78	3.07
877.08	3.22
877.38	3.44
877.68	3.7
877.981	5.74
878.281	5.51
878.581	1.61
