Data from BU57994_Reflection_00002.txt Node
Date: Mon Nov 18 16:52:59 EST 2019
User: vgr7
Spectrometer: USB2G7710
Scans to average: 3
Trigger mode: 4
Integration Time (sec): 2.000000E-2
Electric dark correction enabled: true
Boxcar width: 10
XAxis mode: Wavelengths
Number of Pixels in Spectrum: 2048
>>>>>Begin Spectral Data<<<<<
177.721	16.15
178.105	58.46
178.488	15.82
178.871	83.99
179.254	-33.07
179.636	90.23
180.019	36.81
180.402	34.62
180.785	607.74
181.168	-1759.38
181.55	167.65
181.933	125.25
182.316	120.38
182.698	110.26
183.081	61.87
183.463	30.63
183.846	121.09
184.228	97.62
184.611	49.41
184.993	234.23
185.376	-66.51
185.758	-239.1
186.14	-105.44
186.522	-65.4
186.904	-18.87
187.287	-20.71
187.669	19.74
188.051	8.45
188.433	22.23
188.815	57.01
189.197	48.23
189.579	43.74
189.961	37.97
190.342	50.5
190.724	41.7
191.106	41.63
191.488	38.87
191.869	52.32
192.251	74.99
192.633	68.78
193.014	75.14
193.396	88.84
193.777	47.24
194.159	46.57
194.54	51.09
194.922	43.36
195.303	33.83
195.684	54.01
196.065	93.96
196.447	93.65
196.828	96.14
197.209	104.56
197.59	80.71
197.971	99.02
198.352	56.25
198.733	59.59
199.114	54.3
199.495	27.58
199.876	26.32
200.257	22.24
200.638	20
201.018	9.38
201.399	19.69
201.78	23.55
202.16	20.94
202.541	12.14
202.922	-0.5
203.302	-7.94
203.683	-10.44
204.063	-43.15
204.444	-41.61
204.824	-31.81
205.204	-37.17
205.585	-26.69
205.965	-32.19
206.345	-29.77
206.725	-44.73
207.106	-71.3
207.486	-89.2
207.866	-92.19
208.246	-123.07
208.626	-137.03
209.006	-116.22
209.386	-182.29
209.766	-111.97
210.145	-102.86
210.525	-79.23
210.905	-59.11
211.285	-40.06
211.664	-23.63
212.044	-26.75
212.424	-19
212.803	-34.14
213.183	-21.5
213.562	-17.15
213.942	4.27
214.321	3.19
214.701	9.61
215.08	13.61
215.459	10.24
215.838	24.88
216.218	28.27
216.597	25.67
216.976	29.4
217.355	38.09
217.734	28.36
218.113	37.07
218.492	43.92
218.871	45.3
219.25	44.85
219.629	33.28
220.008	48.73
220.387	41.27
220.766	43.76
221.144	40.75
221.523	29.28
221.902	19.01
222.28	12.45
222.659	17.85
223.037	15.91
223.416	10.25
223.794	4.06
224.173	3.67
224.551	9.76
224.929	2.91
225.308	10.44
225.686	12.33
226.064	8.17
226.442	9.03
226.821	10.03
227.199	6.85
227.577	8.97
227.955	6.92
228.333	6.15
228.711	6.74
229.089	9.27
229.467	9.1
229.845	6.47
230.222	5.92
230.6	4.65
230.978	4.96
231.356	6.85
231.733	6.14
232.111	5.95
232.488	4.73
232.866	4.53
233.243	3.48
233.621	4.51
233.998	4.06
234.376	3.04
234.753	3.29
235.13	3.26
235.508	2.6
235.885	2.78
236.262	2.73
236.639	2.31
237.016	1.36
237.393	2.52
237.77	3.6
238.147	4.08
238.524	4.24
238.901	4.13
239.278	3.99
239.655	5.08
240.032	5.43
240.409	4.99
240.785	5.45
241.162	5.47
241.539	5.33
241.915	5.25
242.292	5.61
242.668	5.21
243.045	5.62
243.421	5.74
243.798	5.39
244.174	5.49
244.551	5.44
244.927	5.41
245.303	5.5
245.679	5.63
246.056	5.49
246.432	5.42
246.808	5.57
247.184	5.53
247.56	5.21
247.936	5.19
248.312	5.29
248.688	5.49
249.064	5.43
249.44	5.41
249.815	5.53
250.191	5.49
250.567	5.52
250.943	5.11
251.318	5.1
251.694	5.16
252.069	5.02
252.445	5.02
252.82	5.23
253.196	5.34
253.571	5.34
253.947	5.44
254.322	5.71
254.697	5.42
255.073	5.1
255.448	5.14
255.823	4.88
256.198	5
256.573	4.82
256.948	4.95
257.323	5.15
257.698	4.93
258.073	4.89
258.448	4.86
258.823	4.89
259.198	4.7
259.573	4.72
259.948	4.74
260.322	4.68
260.697	4.59
261.072	4.17
261.446	3.99
261.821	4.02
262.195	3.95
262.57	4.11
262.944	4.25
263.319	4.23
263.693	4.24
264.067	4.34
264.442	4.34
264.816	4.19
265.19	4.01
265.564	4.05
265.938	3.9
266.313	3.9
266.687	4.03
267.061	4.25
267.435	4.3
267.809	4.28
268.183	4.21
268.556	4.07
268.93	4.5
269.304	4.49
269.678	4.61
270.051	4.51
270.425	4.45
270.799	4.37
271.172	4.5
271.546	4.33
271.919	4.1
272.293	4.05
272.666	4.09
273.04	3.97
273.413	3.93
273.787	4.02
274.16	3.94
274.533	3.91
274.906	3.79
275.279	3.7
275.653	3.72
276.026	3.72
276.399	3.78
276.772	3.61
277.145	3.72
277.518	3.58
277.891	3.52
278.263	3.29
278.636	3.26
279.009	3.24
279.382	3.59
279.755	3.6
280.127	3.69
280.5	3.66
280.872	3.83
281.245	3.92
281.617	3.98
281.99	4.13
282.362	4.18
282.735	4.1
283.107	4.04
283.479	4.14
283.852	4.18
284.224	4.17
284.596	4.27
284.968	4.21
285.34	4.33
285.713	4.39
286.085	4.66
286.457	4.73
286.829	4.7
287.201	4.57
287.572	4.51
287.944	4.39
288.316	4.47
288.688	4.49
289.06	4.46
289.431	4.38
289.803	4.42
290.175	4.43
290.546	4.58
290.918	4.78
291.289	4.71
291.661	4.86
292.032	4.91
292.403	4.89
292.775	5.06
293.146	5.02
293.517	5.09
293.889	5.14
294.26	5.15
294.631	5.17
295.002	5.2
295.373	5.32
295.744	5.43
296.115	5.47
296.486	5.39
296.857	5.43
297.228	5.58
297.599	5.58
297.97	5.51
298.34	5.53
298.711	5.58
299.082	5.57
299.452	5.53
299.823	5.57
300.194	5.62
300.564	5.56
300.935	5.53
301.305	5.48
301.676	5.39
302.046	5.45
302.416	5.6
302.787	5.6
303.157	5.68
303.527	5.64
303.897	5.7
304.267	5.92
304.637	5.97
305.008	5.95
305.378	5.96
305.748	6.03
306.117	5.98
306.487	5.78
306.857	5.79
307.227	5.86
307.597	5.8
307.967	5.76
308.336	5.78
308.706	5.71
309.076	5.83
309.445	5.75
309.815	5.71
310.184	5.6
310.554	5.53
310.923	5.47
311.293	5.4
311.662	5.39
312.031	5.27
312.401	5.28
312.77	5.29
313.139	5.05
313.508	5.09
313.877	4.98
314.246	5.12
314.616	5.01
314.985	5.07
315.353	4.99
315.722	5.06
316.091	4.9
316.46	4.94
316.829	4.93
317.198	5.08
317.567	5.03
317.935	4.82
318.304	4.92
318.672	4.87
319.041	5.06
319.41	4.99
319.778	4.94
320.147	5
320.515	5.01
320.883	5.23
321.252	5.16
321.62	5.46
321.988	5.38
322.357	5.49
322.725	5.38
323.093	5.65
323.461	5.65
323.829	5.89
324.197	5.94
324.565	5.82
324.933	5.74
325.301	5.79
325.669	5.87
326.037	5.85
326.405	5.82
326.772	5.91
327.14	5.88
327.508	5.85
327.875	5.72
328.243	5.65
328.61	5.5
328.978	5.49
329.346	5.42
329.713	5.47
330.08	5.58
330.448	5.43
330.815	5.23
331.182	5.3
331.55	5.12
331.917	5.12
332.284	5.3
332.651	5.25
333.018	5.25
333.385	5.31
333.752	5.37
334.119	5.47
334.486	5.3
334.853	5.45
335.22	5.46
335.587	5.48
335.954	5.48
336.32	5.65
336.687	5.76
337.054	5.78
337.42	5.85
337.787	5.87
338.153	5.95
338.52	6.05
338.886	5.93
339.253	5.94
339.619	5.89
339.986	5.79
340.352	5.9
340.718	5.78
341.084	5.77
341.451	5.91
341.817	5.91
342.183	5.96
342.549	5.85
342.915	5.87
343.281	5.83
343.647	5.76
344.013	5.71
344.379	5.65
344.745	5.58
345.11	5.47
345.476	5.47
345.842	5.48
346.208	5.42
346.573	5.55
346.939	5.64
347.304	5.74
347.67	5.71
348.035	5.63
348.401	5.73
348.766	5.72
349.132	5.58
349.497	5.6
349.862	5.63
350.228	5.63
350.593	5.73
350.958	5.78
351.323	5.85
351.688	5.85
352.053	5.81
352.418	5.83
352.783	5.83
353.148	5.78
353.513	5.79
353.878	5.82
354.243	5.73
354.608	5.72
354.972	5.71
355.337	5.78
355.702	5.77
356.066	5.76
356.431	5.76
356.795	5.84
357.16	5.74
357.524	5.63
357.889	5.63
358.253	5.54
358.618	5.53
358.982	5.54
359.346	5.53
359.71	5.56
360.075	5.59
360.439	5.58
360.803	5.59
361.167	5.62
361.531	5.59
361.895	5.56
362.259	5.55
362.623	5.52
362.987	5.46
363.351	5.45
363.714	5.49
364.078	5.5
364.442	5.4
364.806	5.43
365.169	5.47
365.533	5.44
365.896	5.45
366.26	5.52
366.623	5.46
366.987	5.45
367.35	5.51
367.714	5.59
368.077	5.59
368.44	5.55
368.803	5.44
369.167	5.44
369.53	5.45
369.893	5.48
370.256	5.53
370.619	5.58
370.982	5.56
371.345	5.61
371.708	5.6
372.071	5.63
372.434	5.61
372.797	5.64
373.159	5.65
373.522	5.66
373.885	5.62
374.247	5.67
374.61	5.72
374.973	5.66
375.335	5.53
375.698	5.54
376.06	5.55
376.423	5.61
376.785	5.63
377.147	5.65
377.51	5.63
377.872	5.62
378.234	5.58
378.596	5.62
378.958	5.53
379.321	5.56
379.683	5.57
380.045	5.62
380.407	5.64
380.769	5.66
381.13	5.68
381.492	5.62
381.854	5.61
382.216	5.56
382.578	5.56
382.939	5.62
383.301	5.6
383.663	5.54
384.024	5.55
384.386	5.57
384.747	5.6
385.109	5.62
385.47	5.6
385.832	5.56
386.193	5.61
386.554	5.64
386.916	5.59
387.277	5.59
387.638	5.61
387.999	5.55
388.36	5.57
388.721	5.58
389.082	5.64
389.443	5.58
389.804	5.59
390.165	5.58
390.526	5.61
390.887	5.63
391.248	5.67
391.609	5.67
391.969	5.68
392.33	5.66
392.691	5.64
393.051	5.65
393.412	5.69
393.772	5.63
394.133	5.64
394.493	5.67
394.854	5.68
395.214	5.65
395.574	5.68
395.935	5.64
396.295	5.67
396.655	5.64
397.015	5.69
397.376	5.69
397.736	5.7
398.096	5.69
398.456	5.69
398.816	5.74
399.176	5.74
399.535	5.72
399.895	5.7
400.255	5.71
400.615	5.72
400.975	5.73
401.334	5.71
401.694	5.7
402.054	5.7
402.413	5.69
402.773	5.69
403.132	5.7
403.492	5.71
403.851	5.68
404.211	5.71
404.57	5.74
404.929	5.76
405.288	5.73
405.648	5.69
406.007	5.68
406.366	5.65
406.725	5.66
407.084	5.67
407.443	5.67
407.802	5.68
408.161	5.65
408.52	5.63
408.879	5.68
409.238	5.69
409.596	5.7
409.955	5.7
410.314	5.71
410.673	5.69
411.031	5.69
411.39	5.68
411.748	5.64
412.107	5.63
412.465	5.61
412.824	5.66
413.182	5.68
413.54	5.67
413.899	5.69
414.257	5.71
414.615	5.71
414.974	5.72
415.332	5.71
415.69	5.74
416.048	5.74
416.406	5.75
416.764	5.72
417.122	5.73
417.48	5.73
417.838	5.72
418.195	5.7
418.553	5.71
418.911	5.71
419.269	5.71
419.626	5.72
419.984	5.72
420.342	5.72
420.699	5.71
421.057	5.73
421.414	5.73
421.772	5.72
422.129	5.71
422.486	5.71
422.844	5.71
423.201	5.7
423.558	5.71
423.915	5.7
424.273	5.7
424.63	5.69
424.987	5.68
425.344	5.7
425.701	5.72
426.058	5.72
426.415	5.73
426.772	5.74
427.128	5.71
427.485	5.73
427.842	5.71
428.199	5.72
428.555	5.73
428.912	5.71
429.269	5.71
429.625	5.71
429.982	5.71
430.338	5.71
430.695	5.72
431.051	5.7
431.407	5.68
431.764	5.7
432.12	5.69
432.476	5.68
432.832	5.67
433.189	5.68
433.545	5.66
433.901	5.68
434.257	5.67
434.613	5.7
434.969	5.67
435.325	5.71
435.681	5.69
436.036	5.68
436.392	5.7
436.748	5.69
437.104	5.67
437.459	5.65
437.815	5.65
438.171	5.65
438.526	5.68
438.882	5.69
439.237	5.69
439.593	5.71
439.948	5.7
440.304	5.72
440.659	5.71
441.014	5.71
441.369	5.71
441.725	5.71
442.08	5.7
442.435	5.72
442.79	5.7
443.145	5.72
443.5	5.72
443.855	5.71
444.21	5.71
444.565	5.71
444.92	5.73
445.275	5.73
445.629	5.72
445.984	5.71
446.339	5.69
446.693	5.69
447.048	5.67
447.403	5.67
447.757	5.64
448.112	5.64
448.466	5.64
448.82	5.66
449.175	5.68
449.529	5.67
449.883	5.66
450.238	5.66
450.592	5.68
450.946	5.66
451.3	5.66
451.654	5.66
452.008	5.7
452.362	5.69
452.716	5.67
453.07	5.68
453.424	5.7
453.778	5.72
454.132	5.72
454.486	5.73
454.839	5.76
455.193	5.76
455.547	5.78
455.9	5.78
456.254	5.75
456.607	5.74
456.961	5.71
457.314	5.72
457.668	5.73
458.021	5.7
458.375	5.71
458.728	5.73
459.081	5.74
459.434	5.73
459.787	5.73
460.141	5.75
460.494	5.74
460.847	5.73
461.2	5.73
461.553	5.72
461.906	5.72
462.259	5.71
462.611	5.72
462.964	5.72
463.317	5.73
463.67	5.74
464.022	5.74
464.375	5.78
464.728	5.77
465.08	5.77
465.433	5.78
465.785	5.77
466.138	5.77
466.49	5.77
466.843	5.77
467.195	5.77
467.547	5.77
467.899	5.75
468.252	5.78
468.604	5.78
468.956	5.78
469.308	5.8
469.66	5.79
470.012	5.8
470.364	5.79
470.716	5.78
471.068	5.77
471.42	5.77
471.772	5.79
472.123	5.8
472.475	5.8
472.827	5.81
473.178	5.82
473.53	5.8
473.882	5.78
474.233	5.79
474.585	5.77
474.936	5.78
475.288	5.79
475.639	5.78
475.99	5.8
476.342	5.82
476.693	5.81
477.044	5.82
477.395	5.81
477.746	5.8
478.097	5.8
478.448	5.8
478.8	5.81
479.15	5.78
479.501	5.76
479.852	5.77
480.203	5.78
480.554	5.8
480.905	5.82
481.255	5.83
481.606	5.83
481.957	5.82
482.307	5.82
482.658	5.84
483.009	5.84
483.359	5.84
483.709	5.84
484.06	5.85
484.41	5.85
484.761	5.86
485.111	5.86
485.461	5.86
485.811	5.86
486.162	5.86
486.512	5.88
486.862	5.88
487.212	5.89
487.562	5.88
487.912	5.87
488.262	5.86
488.612	5.86
488.961	5.87
489.311	5.88
489.661	5.88
490.011	5.87
490.36	5.86
490.71	5.87
491.06	5.86
491.409	5.84
491.759	5.83
492.108	5.82
492.458	5.84
492.807	5.84
493.157	5.84
493.506	5.83
493.855	5.84
494.204	5.84
494.554	5.83
494.903	5.84
495.252	5.82
495.601	5.82
495.95	5.84
496.299	5.82
496.648	5.82
496.997	5.85
497.346	5.86
497.695	5.86
498.043	5.85
498.392	5.86
498.741	5.87
499.09	5.87
499.438	5.9
499.787	5.87
500.135	5.87
500.484	5.89
500.832	5.9
501.181	5.9
501.529	5.93
501.878	5.94
502.226	5.97
502.574	5.99
502.923	5.99
503.271	5.96
503.619	5.96
503.967	5.95
504.315	5.94
504.663	5.96
505.011	5.97
505.359	5.95
505.707	5.97
506.055	5.96
506.403	5.99
506.751	5.98
507.098	6
507.446	6
507.794	6
508.141	6.02
508.489	6.01
508.837	5.99
509.184	6.01
509.531	6.02
509.879	6.04
510.226	6.04
510.574	6.05
510.921	6.04
511.268	6.05
511.616	6.04
511.963	6.03
512.31	6.03
512.657	6.05
513.004	6.03
513.351	6.06
513.698	6.03
514.045	6.03
514.392	6.05
514.739	6.04
515.086	6.04
515.432	6.03
515.779	6.03
516.126	6.04
516.473	6.04
516.819	6.02
517.166	5.99
517.512	5.99
517.859	5.98
518.205	5.99
518.552	6
518.898	5.99
519.245	5.98
519.591	5.98
519.937	5.97
520.283	5.97
520.629	5.97
520.976	5.98
521.322	6
521.668	5.99
522.014	5.99
522.36	6
522.706	5.98
523.052	6
523.398	6.01
523.743	6.01
524.089	6.01
524.435	6.01
524.781	6.04
525.126	6.03
525.472	6.04
525.817	6.04
526.163	6.05
526.509	6.07
526.854	6.07
527.199	6.09
527.545	6.08
527.89	6.06
528.235	6.07
528.581	6.06
528.926	6.07
529.271	6.07
529.616	6.08
529.961	6.07
530.306	6.06
530.651	6.06
530.996	6.07
531.341	6.06
531.686	6.07
532.031	6.07
532.376	6.09
532.721	6.09
533.065	6.09
533.41	6.1
533.755	6.09
534.099	6.1
534.444	6.09
534.788	6.09
535.133	6.11
535.477	6.1
535.822	6.09
536.166	6.09
536.51	6.09
536.855	6.1
537.199	6.12
537.543	6.14
537.887	6.13
538.231	6.12
538.576	6.13
538.92	6.13
539.264	6.1
539.608	6.09
539.951	6.08
540.295	6.08
540.639	6.08
540.983	6.07
541.327	6.07
541.671	6.06
542.014	6.08
542.358	6.08
542.701	6.08
543.045	6.09
543.389	6.1
543.732	6.11
544.075	6.12
544.419	6.13
544.762	6.11
545.105	6.09
545.449	6.12
545.792	6.13
546.135	6.14
546.478	6.16
546.821	6.18
547.165	6.19
547.508	6.18
547.851	6.19
548.194	6.22
548.536	6.2
548.879	6.22
549.222	6.22
549.565	6.24
549.908	6.25
550.25	6.26
550.593	6.26
550.936	6.24
551.278	6.2
551.621	6.21
551.963	6.22
552.306	6.24
552.648	6.21
552.991	6.2
553.333	6.22
553.675	6.22
554.017	6.23
554.36	6.25
554.702	6.27
555.044	6.27
555.386	6.28
555.728	6.29
556.07	6.3
556.412	6.29
556.754	6.27
557.096	6.27
557.438	6.25
557.78	6.25
558.121	6.28
558.463	6.3
558.805	6.3
559.147	6.32
559.488	6.32
559.83	6.33
560.171	6.33
560.513	6.35
560.854	6.34
561.196	6.34
561.537	6.33
561.878	6.3
562.22	6.32
562.561	6.29
562.902	6.27
563.243	6.25
563.584	6.26
563.925	6.32
564.266	6.31
564.607	6.34
564.948	6.35
565.289	6.31
565.63	6.32
565.971	6.3
566.312	6.26
566.653	6.29
566.993	6.28
567.334	6.29
567.675	6.27
568.015	6.31
568.356	6.34
568.696	6.34
569.037	6.37
569.377	6.38
569.718	6.39
570.058	6.41
570.398	6.43
570.739	6.43
571.079	6.41
571.419	6.42
571.759	6.42
572.099	6.41
572.439	6.43
572.779	6.41
573.119	6.43
573.459	6.47
573.799	6.47
574.139	6.46
574.479	6.45
574.819	6.46
575.158	6.43
575.498	6.39
575.838	6.38
576.177	6.38
576.517	6.34
576.856	6.39
577.196	6.36
577.535	6.38
577.875	6.39
578.214	6.35
578.553	6.39
578.893	6.38
579.232	6.36
579.571	6.34
579.91	6.34
580.25	6.32
580.589	6.29
580.928	6.32
581.267	6.3
581.606	6.31
581.945	6.29
582.283	6.28
582.622	6.27
582.961	6.31
583.3	6.3
583.639	6.35
583.977	6.29
584.316	6.33
584.654	6.31
584.993	6.24
585.332	6.25
585.67	6.22
586.008	6.22
586.347	6.24
586.685	6.27
587.024	6.27
587.362	6.29
587.7	6.32
588.038	6.31
588.376	6.35
588.715	6.34
589.053	6.38
589.391	6.41
589.729	6.43
590.067	6.38
590.404	6.37
590.742	6.33
591.08	6.32
591.418	6.31
591.756	6.32
592.093	6.33
592.431	6.38
592.769	6.38
593.106	6.37
593.444	6.36
593.781	6.34
594.119	6.39
594.456	6.37
594.793	6.35
595.131	6.31
595.468	6.3
595.805	6.3
596.143	6.26
596.48	6.25
596.817	6.26
597.154	6.3
597.491	6.33
597.828	6.38
598.165	6.41
598.502	6.39
598.839	6.37
599.176	6.39
599.512	6.36
599.849	6.38
600.186	6.42
600.523	6.44
600.859	6.49
601.196	6.52
601.532	6.53
601.869	6.53
602.205	6.54
602.542	6.54
602.878	6.56
603.215	6.58
603.551	6.56
603.887	6.57
604.223	6.53
604.56	6.51
604.896	6.48
605.232	6.5
605.568	6.52
605.904	6.54
606.24	6.56
606.576	6.57
606.912	6.52
607.248	6.49
607.583	6.45
607.919	6.42
608.255	6.35
608.591	6.33
608.926	6.34
609.262	6.39
609.597	6.39
609.933	6.4
610.268	6.39
610.604	6.42
610.939	6.46
611.275	6.5
611.61	6.55
611.945	6.6
612.281	6.56
612.616	6.6
612.951	6.6
613.286	6.6
613.621	6.59
613.956	6.66
614.291	6.71
614.626	6.73
614.961	6.71
615.296	6.72
615.631	6.76
615.966	6.76
616.3	6.71
616.635	6.71
616.97	6.7
617.304	6.7
617.639	6.68
617.973	6.63
618.308	6.65
618.642	6.6
618.977	6.53
619.311	6.51
619.646	6.53
619.98	6.55
620.314	6.6
620.648	6.63
620.983	6.67
621.317	6.64
621.651	6.72
621.985	6.7
622.319	6.74
622.653	6.8
622.987	6.82
623.321	6.83
623.655	6.87
623.988	6.9
624.322	6.95
624.656	6.99
624.99	7
625.323	6.97
625.657	6.94
625.99	7
626.324	6.98
626.657	7
626.991	6.99
627.324	6.93
627.658	6.91
627.991	6.93
628.324	6.93
628.657	6.85
628.991	6.9
629.324	6.94
629.657	6.91
629.99	6.94
630.323	6.93
630.656	6.92
630.989	6.94
631.322	6.9
631.655	6.88
631.987	6.87
632.32	6.86
632.653	6.91
632.986	6.9
633.318	6.98
633.651	6.98
633.984	6.98
634.316	6.96
634.649	6.96
634.981	6.89
635.313	6.89
635.646	6.93
635.978	6.95
636.31	6.93
636.643	6.87
636.975	6.9
637.307	6.91
637.639	6.89
637.971	6.84
638.303	6.86
638.635	6.82
638.967	6.82
639.299	6.87
639.631	6.95
639.963	6.8
640.295	6.78
640.626	6.71
640.958	6.75
641.29	6.86
641.621	6.83
641.953	6.88
642.285	6.85
642.616	6.87
642.948	6.82
643.279	6.84
643.61	6.91
643.942	6.87
644.273	6.93
644.604	6.93
644.936	6.94
645.267	6.94
645.598	6.95
645.929	6.95
646.26	6.99
646.591	6.88
646.922	7
647.253	6.98
647.584	7
647.915	6.92
648.245	6.83
648.576	6.93
648.907	6.92
649.238	6.95
649.568	6.93
649.899	6.94
650.229	6.95
650.56	6.93
650.89	6.89
651.221	6.83
651.551	6.75
651.882	6.72
652.212	6.72
652.542	6.77
652.872	6.72
653.203	6.67
653.533	6.67
653.863	6.63
654.193	6.63
654.523	6.62
654.853	6.66
655.183	6.63
655.513	6.56
655.843	6.44
656.172	6.45
656.502	6.48
656.832	6.48
657.162	6.5
657.491	6.45
657.821	6.5
658.15	6.54
658.48	6.6
658.809	6.63
659.139	6.62
659.468	6.61
659.798	6.62
660.127	6.63
660.456	6.7
660.785	6.75
661.115	6.81
661.444	6.88
661.773	6.83
662.102	6.84
662.431	6.89
662.76	6.96
663.089	6.98
663.418	6.96
663.747	6.95
664.076	6.93
664.404	7
664.733	6.93
665.062	6.98
665.39	7.04
665.719	7
666.048	7.03
666.376	7.01
666.705	7.01
667.033	6.92
667.362	6.91
667.69	6.94
668.018	6.91
668.347	6.81
668.675	6.9
669.003	7
669.331	7.06
669.659	7.15
669.987	7.03
670.315	7.05
670.643	7.11
670.971	7.06
671.299	7.05
671.627	7.13
671.955	7.1
672.283	7.12
672.61	7.06
672.938	7.05
673.266	7.08
673.593	7.25
673.921	7.29
674.249	7.26
674.576	7.16
674.904	7.23
675.231	7.24
675.558	7.3
675.886	7.24
676.213	7.21
676.54	7.11
676.867	7.25
677.195	7.27
677.522	7.28
677.849	7.35
678.176	7.36
678.503	7.35
678.83	7.35
679.157	7.26
679.484	7.35
679.81	7.36
680.137	7.37
680.464	7.24
680.791	7.24
681.117	7.25
681.444	7.3
681.771	7.22
682.097	7.22
682.424	7.17
682.75	7.19
683.077	7.17
683.403	7.22
683.729	7.24
684.056	7.27
684.382	7.21
684.708	7.14
685.034	7.13
685.36	7.05
685.686	7.05
686.012	7.09
686.339	7.15
686.664	7.15
686.99	7.21
687.316	7.29
687.642	7.31
687.968	7.35
688.294	7.36
688.619	7.45
688.945	7.55
689.271	7.5
689.596	7.55
689.922	7.56
690.247	7.52
690.573	7.53
690.898	7.53
691.224	7.62
691.549	7.68
691.874	7.72
692.2	7.83
692.525	7.85
692.85	7.77
693.175	7.73
693.5	7.77
693.825	7.69
694.15	7.68
694.475	7.66
694.8	7.64
695.125	7.52
695.45	7.45
695.775	7.4
696.099	7.42
696.424	7.33
696.749	7.22
697.073	7.29
697.398	7.26
697.723	7.27
698.047	7.22
698.372	7.18
698.696	7.16
699.02	7.1
699.345	7.04
699.669	7.19
699.993	7.13
700.318	7.07
700.642	7.09
700.966	7.1
701.29	7.24
701.614	7.27
701.938	7.45
702.262	7.54
702.586	7.57
702.91	7.54
703.234	7.68
703.557	7.88
703.881	7.82
704.205	7.85
704.529	7.81
704.852	7.75
705.176	7.88
705.499	7.89
705.823	7.77
706.146	7.85
706.47	7.8
706.793	7.84
707.117	7.92
707.44	7.91
707.763	7.79
708.086	7.68
708.409	7.64
708.733	7.64
709.056	7.67
709.379	7.71
709.702	7.65
710.025	7.51
710.348	7.41
710.671	7.31
710.993	7.39
711.316	7.51
711.639	7.54
711.962	7.56
712.284	7.64
712.607	7.66
712.93	7.68
713.252	7.68
713.575	7.72
713.897	7.72
714.22	7.73
714.542	7.83
714.864	7.74
715.187	7.68
715.509	7.61
715.831	7.49
716.153	7.45
716.475	7.44
716.798	7.65
717.12	7.82
717.442	8
717.764	7.88
718.085	7.78
718.407	7.78
718.729	7.7
719.051	7.59
719.373	7.84
719.695	7.78
720.016	7.83
720.338	7.88
720.659	7.82
720.981	7.83
721.302	7.7
721.624	7.77
721.945	7.93
722.267	7.91
722.588	7.96
722.909	7.95
723.231	8.17
723.552	8.01
723.873	7.83
724.194	7.86
724.515	7.99
724.836	8.01
725.157	8.04
725.478	8.09
725.799	7.98
726.12	7.83
726.441	7.9
726.762	7.9
727.083	7.85
727.403	7.96
727.724	8.22
728.045	8.39
728.365	8.33
728.686	8.35
729.006	8.49
729.327	8.54
729.647	8.7
729.967	8.66
730.288	8.87
730.608	8.84
730.928	8.72
731.249	8.63
731.569	8.66
731.889	8.78
732.209	8.89
732.529	9.08
732.849	9.33
733.169	9.17
733.489	9.29
733.809	9.23
734.129	9.34
734.448	9.06
734.768	9.13
735.088	9.37
735.408	9.33
735.727	9.35
736.047	9.44
736.366	9.19
736.686	9.19
737.005	9.08
737.325	9.17
737.644	9.23
737.963	9.23
738.283	9.06
738.602	8.95
738.921	8.83
739.24	8.87
739.56	8.61
739.879	8.78
740.198	8.73
740.517	8.89
740.836	8.77
741.155	8.82
741.473	8.88
741.792	8.73
742.111	8.61
742.43	8.61
742.748	8.42
743.067	8.8
743.386	8.64
743.704	8.57
744.023	8.73
744.341	8.71
744.66	8.96
744.978	9.16
745.297	9.37
745.615	9.56
745.933	9.53
746.252	9.67
746.57	9.6
746.888	9.45
747.206	9.34
747.524	9.39
747.842	9.47
748.16	9.31
748.478	9.37
748.796	9.44
749.114	9.17
749.432	9.32
749.749	9.11
750.067	9.16
750.385	9.3
750.703	8.93
751.02	8.99
751.338	8.65
751.655	8.59
751.973	8.57
752.29	8.39
752.608	8.28
752.925	8.34
753.242	8.53
753.56	8.6
753.877	8.69
754.194	8.66
754.511	8.72
754.828	8.66
755.145	8.71
755.462	8.83
755.779	8.87
756.096	8.84
756.413	9.06
756.73	9.24
757.047	9.23
757.364	9.67
757.68	9.64
757.997	9.88
758.314	9.87
758.63	9.82
758.947	10.02
759.264	9.97
759.58	9.9
759.896	10.09
760.213	10.08
760.529	10.08
760.846	9.99
761.162	9.98
761.478	9.84
761.794	9.7
762.11	9.66
762.426	9.88
762.743	9.91
763.059	9.8
763.375	9.85
763.69	9.94
764.006	9.96
764.322	9.98
764.638	10.03
764.954	10.19
765.27	10.11
765.585	10.06
765.901	10.16
766.216	10.25
766.532	10.11
766.848	10.03
767.163	10.15
767.478	10.35
767.794	10.44
768.109	10.61
768.424	10.74
768.74	10.66
769.055	10.61
769.37	10.89
769.685	10.77
770	10.82
770.315	10.63
770.63	10.38
770.945	10.42
771.26	10.29
771.575	10.02
771.89	10.21
772.205	9.95
772.52	10.02
772.834	9.93
773.149	9.93
773.464	9.74
773.778	9.67
774.093	9.31
774.407	9.16
774.722	9.32
775.036	9.42
775.351	9.79
775.665	9.55
775.979	9.19
776.293	9.12
776.608	9.02
776.922	9.12
777.236	9.27
777.55	9.03
777.864	9.19
778.178	9.3
778.492	9.42
778.806	9.3
779.12	9.13
779.434	9.26
779.747	9.22
780.061	9.35
780.375	9.18
780.689	9.32
781.002	9.62
781.316	9.56
781.629	9.83
781.943	9.59
782.256	9.96
782.57	10.01
782.883	10.09
783.196	9.98
783.51	9.82
783.823	9.43
784.136	9.75
784.449	9.63
784.762	9.46
785.075	9.28
785.388	9.58
785.701	9.71
786.014	9.58
786.327	9.4
786.64	9.95
786.953	9.98
787.266	9.9
787.578	9.69
787.891	9.87
788.204	9.53
788.516	9.56
788.829	9.62
789.141	9.57
789.454	9.74
789.766	9.86
790.079	9.94
790.391	10
790.703	10.38
791.016	10.38
791.328	10.59
791.64	10.57
791.952	10.76
792.264	10.61
792.576	10.1
792.888	10.61
793.2	10.12
793.512	10.21
793.824	10.65
794.136	10.49
794.448	10.37
794.76	9.98
795.071	10.37
795.383	10.21
795.695	10.12
796.006	9.94
796.318	10.09
796.629	10.48
796.941	10.87
797.252	10.87
797.564	11.1
797.875	11.26
798.186	10.86
798.497	10.81
798.809	10.96
799.12	11.61
799.431	11.54
799.742	11.94
800.053	12.13
800.364	11.61
800.675	11.56
800.986	11.4
801.297	11.65
801.608	11.42
801.918	11.52
802.229	11.66
802.54	12.08
802.851	12.12
803.161	12.03
803.472	12.26
803.782	12.42
804.093	11.86
804.403	11.69
804.714	12.49
805.024	12.44
805.334	13.08
805.645	13.17
805.955	12.86
806.265	12.98
806.575	12.57
806.885	12.63
807.195	12.78
807.505	12.94
807.815	13.29
808.125	13.13
808.435	13.09
808.745	12.45
809.055	12.38
809.365	11.93
809.674	11.46
809.984	10.95
810.294	10.87
810.603	11.24
810.913	10.97
811.222	10.88
811.532	11.05
811.841	10.46
812.151	10.49
812.46	10.39
812.769	10.12
813.079	10.54
813.388	11.21
813.697	11.33
814.006	10.91
814.315	11.05
814.624	10.97
814.933	11.18
815.242	11.7
815.551	11.64
815.86	11.57
816.169	10.83
816.478	11.04
816.786	10.67
817.095	11.02
817.404	11.29
817.712	11.17
818.021	11.1
818.33	11.06
818.638	10.8
818.947	11.3
819.255	11.41
819.563	11.24
819.872	11.06
820.18	11.17
820.488	11.3
820.796	11.3
821.105	11.41
821.413	11.13
821.721	11.05
822.029	10.96
822.337	10.96
822.645	11.27
822.953	11.26
823.26	11.15
823.568	11.13
823.876	11.26
824.184	11.18
824.491	11.1
824.799	11.12
825.107	11.11
825.414	11.03
825.722	11.02
826.029	11.11
826.337	11.18
826.644	11.18
826.951	11.01
827.259	10.96
827.566	11
827.873	11.14
828.18	11.24
828.488	11.28
828.795	11.2
829.102	11.43
829.409	11.36
829.716	11.48
830.023	11.28
830.329	10.89
830.636	10.95
830.943	11.25
831.25	11.39
831.557	11.42
831.863	11.22
832.17	10.9
832.476	10.8
832.783	10.61
833.089	10.65
833.396	11.59
833.702	11.59
834.009	11.16
834.315	11.3
834.621	11.32
834.928	11.69
835.234	12.1
835.54	11.75
835.846	12
836.152	12.25
836.458	12.38
836.764	12.43
837.07	11.94
837.376	11.06
837.682	11.43
837.988	11.16
838.293	11.42
838.599	11.63
838.905	11.32
839.211	10.8
839.516	10.24
839.822	9.55
840.127	8.76
840.433	9.12
840.738	8.29
841.044	8.06
841.349	7.2
841.654	7.24
841.959	7.05
842.265	6.91
842.57	6.56
842.875	7.22
843.18	8.49
843.485	9.79
843.79	10.5
844.095	9.56
844.4	10.93
844.705	10.67
845.01	11.23
845.315	11.65
845.619	12.36
845.924	13.27
846.229	13.56
846.533	15.02
846.838	14.9
847.142	16.87
847.447	17.17
847.751	18.04
848.056	17.68
848.36	17.17
848.664	17.05
848.969	16.96
849.273	15.51
849.577	13.15
849.881	12.52
850.185	14.2
850.489	15.89
850.794	14.85
851.097	16.97
851.401	17.32
851.705	17.99
852.009	20.03
852.313	18.03
852.617	17.61
852.92	19.29
853.224	19.84
853.528	19.55
853.831	19.68
854.135	18.87
854.438	19.5
854.742	18.81
855.045	19.91
855.349	18.77
855.652	20.99
855.955	21.83
856.259	23.26
856.562	21.75
856.865	20.63
857.168	19.67
857.471	17.31
857.774	17.88
858.077	19.08
858.38	18.45
858.683	19.91
858.986	20.08
859.289	19.21
859.592	19.6
859.894	18.3
860.197	16.87
860.5	17.76
860.802	17.05
861.105	17.8
861.407	14.53
861.71	15.2
862.012	14.03
862.315	14.39
862.617	13.25
862.919	14.02
863.222	13.95
863.524	15.21
863.826	16.75
864.128	15.3
864.43	14.67
864.732	15.04
865.034	15.63
865.336	14.3
865.638	12.98
865.94	12.58
866.242	12.19
866.544	13.88
866.846	13.98
867.147	14.59
867.449	14.64
867.751	19.19
868.052	20.96
868.354	20.1
868.655	21.66
868.957	22.5
869.258	21.77
869.56	21.95
869.861	21.06
870.162	20.6
870.463	20.98
870.765	20.56
871.066	19.02
871.367	20.46
871.668	20.62
871.969	19.25
872.27	20.01
872.571	20.31
872.872	20.25
873.173	18
873.473	18.42
873.774	19.04
874.075	18.23
874.376	15.93
874.676	18.31
874.977	17.07
875.277	17.75
875.578	18.68
875.878	17.29
876.179	18.33
876.479	17.45
876.78	16.83
877.08	16.27
877.38	16.76
877.68	14.35
877.981	15.61
878.281	17.67
878.581	16.14
