Data from BU57649_Reflection_00015.txt Node
Date: Tue Nov 19 10:56:00 EST 2019
User: vgr7
Spectrometer: USB2G7710
Scans to average: 3
Trigger mode: 4
Integration Time (sec): 2.000000E-2
Electric dark correction enabled: true
Boxcar width: 10
XAxis mode: Wavelengths
Number of Pixels in Spectrum: 2048
>>>>>Begin Spectral Data<<<<<
177.721	18.33
178.105	28.71
178.488	28.38
178.871	26.94
179.254	45.32
179.636	56.9
180.019	58.83
180.402	933.33
180.785	-1464.71
181.168	-11775
181.55	307.79
181.933	94.08
182.316	75.46
182.698	-115.81
183.081	-42.86
183.463	-18.73
183.846	-10.01
184.228	-0.73
184.611	-10.83
184.993	-15.72
185.376	-9.59
185.758	-3.67
186.14	-0.44
186.522	-1.1
186.904	-0.4
187.287	-6.8
187.669	-3.57
188.051	-7.19
188.433	-20.27
188.815	-31.56
189.197	-37.7
189.579	-39.66
189.961	-30.48
190.342	-32.2
190.724	-39.79
191.106	-46.35
191.488	-43.15
191.869	-44.74
192.251	-37.77
192.633	-47.36
193.014	-48.8
193.396	-63.57
193.777	-74.21
194.159	-65.62
194.54	-65.61
194.922	-86.02
195.303	-68.77
195.684	-86.74
196.065	-86.68
196.447	-58.74
196.828	-40.61
197.209	-27.97
197.59	-27.67
197.971	-30.52
198.352	-39.28
198.733	-34.32
199.114	-27.09
199.495	-39.5
199.876	-49.27
200.257	-63.79
200.638	-44.95
201.018	-38.19
201.399	-38.25
201.78	-36.1
202.16	-37.89
202.541	-30.45
202.922	-26.97
203.302	-27.3
203.683	-26.43
204.063	-28.82
204.444	-27.58
204.824	-31.11
205.204	-26.28
205.585	-22.6
205.965	-23.8
206.345	-15.88
206.725	-10.89
207.106	-6.45
207.486	-0.36
207.866	14.61
208.246	28.39
208.626	26.28
209.006	16.64
209.386	17.28
209.766	7.35
210.145	10.94
210.525	3.74
210.905	4.22
211.285	-0.7
211.664	5.76
212.044	-1.98
212.424	-2.31
212.803	-11.34
213.183	-12.37
213.562	-7.13
213.942	-13.66
214.321	-14.99
214.701	-19.99
215.08	-31.21
215.459	-24.51
215.838	-35.63
216.218	-50.52
216.597	-42.99
216.976	-30.77
217.355	-30.79
217.734	-21.95
218.113	-14.77
218.492	-20.85
218.871	-18.2
219.25	-15.87
219.629	-8.48
220.008	-0.77
220.387	1.68
220.766	7.62
221.144	11.45
221.523	13.58
221.902	21.33
222.28	24.41
222.659	36.92
223.037	35.42
223.416	33.43
223.794	29.81
224.173	25.45
224.551	22.28
224.929	18.94
225.308	11.7
225.686	8.39
226.064	-0.27
226.442	6.8
226.821	6.5
227.199	7.24
227.577	6.62
227.955	7.84
228.333	6.86
228.711	10.13
229.089	9.07
229.467	5.37
229.845	3.51
230.222	5.08
230.6	3
230.978	5.7
231.356	4.55
231.733	6.41
232.111	4.52
232.488	5.5
232.866	5.63
233.243	5.48
233.621	6.96
233.998	7.76
234.376	5.2
234.753	6.31
235.13	4.72
235.508	5.51
235.885	6.34
236.262	5.31
236.639	4.98
237.016	4.62
237.393	6.1
237.77	5.82
238.147	4.53
238.524	5.08
238.901	3.92
239.278	3.91
239.655	2.95
240.032	3.37
240.409	2.87
240.785	2.87
241.162	3.16
241.539	2.76
241.915	3.12
242.292	3.43
242.668	3.15
243.045	3.36
243.421	2.78
243.798	2.61
244.174	3.05
244.551	2.9
244.927	2.87
245.303	2.55
245.679	2.92
246.056	3.29
246.432	3.2
246.808	3.32
247.184	3.44
247.56	3.55
247.936	3.78
248.312	4.1
248.688	3.94
249.064	4
249.44	3.97
249.815	3.87
250.191	3.93
250.567	4.05
250.943	4.29
251.318	4.41
251.694	4.23
252.069	4.11
252.445	4.2
252.82	4.45
253.196	4.57
253.571	4.4
253.947	3.83
254.322	3.56
254.697	3.45
255.073	3.25
255.448	3.19
255.823	3.29
256.198	3.2
256.573	3.33
256.948	3.55
257.323	3.7
257.698	3.87
258.073	3.68
258.448	3.68
258.823	3.33
259.198	3.24
259.573	3.41
259.948	3.44
260.322	3.33
260.697	3.25
261.072	3.31
261.446	3.36
261.821	3.5
262.195	3.6
262.57	3.5
262.944	3.51
263.319	3.61
263.693	3.51
264.067	3.39
264.442	3.4
264.816	3.24
265.19	3.14
265.564	2.94
265.938	2.92
266.313	2.63
266.687	2.74
267.061	2.77
267.435	2.9
267.809	2.74
268.183	2.73
268.556	2.8
268.93	2.8
269.304	2.77
269.678	2.67
270.051	2.76
270.425	2.82
270.799	2.72
271.172	2.66
271.546	2.88
271.919	2.94
272.293	2.95
272.666	2.94
273.04	2.95
273.413	2.89
273.787	2.87
274.16	3.03
274.533	3.17
274.906	3.31
275.279	3.15
275.653	3.27
276.026	3.4
276.399	3.37
276.772	3.3
277.145	3.22
277.518	3.26
277.891	3.21
278.263	3.37
278.636	3.56
279.009	3.57
279.382	3.13
279.755	3.06
280.127	3.09
280.5	3.04
280.872	3.13
281.245	3.23
281.617	3.28
281.99	3.22
282.362	3.1
282.735	3
283.107	2.89
283.479	2.76
283.852	2.8
284.224	2.7
284.596	2.74
284.968	2.81
285.34	2.84
285.713	2.71
286.085	2.64
286.457	2.59
286.829	2.57
287.201	2.71
287.572	2.75
287.944	2.65
288.316	2.83
288.688	2.85
289.06	2.84
289.431	2.88
289.803	2.97
290.175	2.81
290.546	2.8
290.918	2.97
291.289	3.12
291.661	3.11
292.032	3.18
292.403	3.11
292.775	3.18
293.146	3.2
293.517	3.26
293.889	3.26
294.26	3.29
294.631	3.37
295.002	3.4
295.373	3.45
295.744	3.56
296.115	3.47
296.486	3.46
296.857	3.47
297.228	3.4
297.599	3.36
297.97	3.63
298.34	3.65
298.711	3.78
299.082	3.69
299.452	3.64
299.823	3.61
300.194	3.67
300.564	3.64
300.935	3.63
301.305	3.68
301.676	3.6
302.046	3.62
302.416	3.57
302.787	3.5
303.157	3.49
303.527	3.51
303.897	3.46
304.267	3.42
304.637	3.46
305.008	3.53
305.378	3.58
305.748	3.57
306.117	3.54
306.487	3.5
306.857	3.49
307.227	3.66
307.597	3.73
307.967	3.83
308.336	3.86
308.706	4
309.076	4.07
309.445	4.25
309.815	4.37
310.184	4.41
310.554	4.45
310.923	4.48
311.293	4.5
311.662	4.55
312.031	4.59
312.401	4.6
312.77	4.66
313.139	4.6
313.508	4.51
313.877	4.56
314.246	4.53
314.616	4.63
314.985	4.49
315.353	4.58
315.722	4.61
316.091	4.73
316.46	4.82
316.829	4.95
317.198	5.12
317.567	5.07
317.935	5.07
318.304	5.3
318.672	5.36
319.041	5.41
319.41	5.5
319.778	5.58
320.147	5.73
320.515	5.89
320.883	5.92
321.252	6.09
321.62	6.07
321.988	6.11
322.357	6.26
322.725	6.5
323.093	6.46
323.461	6.54
323.829	6.52
324.197	6.61
324.565	6.52
324.933	6.43
325.301	6.4
325.669	6.44
326.037	6.38
326.405	6.46
326.772	6.53
327.14	6.43
327.508	6.41
327.875	6.31
328.243	6.18
328.61	6.26
328.978	6.11
329.346	6.24
329.713	6.34
330.08	6.42
330.448	6.35
330.815	6.51
331.182	6.47
331.55	6.55
331.917	6.32
332.284	6.48
332.651	6.56
333.018	6.59
333.385	6.75
333.752	6.76
334.119	6.74
334.486	6.69
334.853	6.77
335.22	6.81
335.587	6.93
335.954	6.96
336.32	6.98
336.687	7.17
337.054	7.11
337.42	7.09
337.787	6.94
338.153	7.09
338.52	7.04
338.886	7.11
339.253	7.08
339.619	7.26
339.986	7.19
340.352	7.13
340.718	7.16
341.084	7.06
341.451	7.16
341.817	7.14
342.183	7.12
342.549	7.18
342.915	7.22
343.281	7.12
343.647	7.12
344.013	7.19
344.379	7.1
344.745	7.23
345.11	7.28
345.476	7.36
345.842	7.18
346.208	7.17
346.573	7.14
346.939	7.06
347.304	7.05
347.67	6.99
348.035	7.03
348.401	7.06
348.766	7.05
349.132	7.03
349.497	7.09
349.862	7.13
350.228	7.09
350.593	7.16
350.958	7.26
351.323	7.27
351.688	7.29
352.053	7.35
352.418	7.26
352.783	7.17
353.148	7.15
353.513	7.13
353.878	7.17
354.243	7.15
354.608	7.26
354.972	7.17
355.337	7.15
355.702	7.12
356.066	7.13
356.431	7.18
356.795	7.12
357.16	7.07
357.524	7.08
357.889	7.09
358.253	7.01
358.618	6.96
358.982	6.88
359.346	6.86
359.71	6.84
360.075	6.87
360.439	6.85
360.803	6.84
361.167	6.81
361.531	6.8
361.895	6.78
362.259	6.74
362.623	6.76
362.987	6.72
363.351	6.66
363.714	6.61
364.078	6.5
364.442	6.44
364.806	6.46
365.169	6.39
365.533	6.3
365.896	6.29
366.26	6.21
366.623	6.21
366.987	6.12
367.35	6.07
367.714	5.99
368.077	5.92
368.44	5.87
368.803	5.82
369.167	5.73
369.53	5.62
369.893	5.51
370.256	5.43
370.619	5.41
370.982	5.36
371.345	5.32
371.708	5.32
372.071	5.31
372.434	5.17
372.797	5.11
373.159	5.05
373.522	4.97
373.885	4.95
374.247	4.92
374.61	4.88
374.973	4.82
375.335	4.78
375.698	4.71
376.06	4.65
376.423	4.63
376.785	4.6
377.147	4.64
377.51	4.65
377.872	4.62
378.234	4.6
378.596	4.56
378.958	4.51
379.321	4.46
379.683	4.44
380.045	4.45
380.407	4.43
380.769	4.45
381.13	4.36
381.492	4.31
381.854	4.28
382.216	4.31
382.578	4.31
382.939	4.26
383.301	4.21
383.663	4.22
384.024	4.18
384.386	4.14
384.747	4.08
385.109	4.07
385.47	4.04
385.832	4.02
386.193	3.99
386.554	3.9
386.916	3.89
387.277	3.87
387.638	3.82
387.999	3.81
388.36	3.78
388.721	3.77
389.082	3.77
389.443	3.76
389.804	3.71
390.165	3.66
390.526	3.65
390.887	3.7
391.248	3.68
391.609	3.66
391.969	3.65
392.33	3.64
392.691	3.57
393.051	3.55
393.412	3.53
393.772	3.57
394.133	3.55
394.493	3.51
394.854	3.46
395.214	3.45
395.574	3.42
395.935	3.37
396.295	3.36
396.655	3.32
397.015	3.27
397.376	3.28
397.736	3.28
398.096	3.28
398.456	3.22
398.816	3.19
399.176	3.16
399.535	3.14
399.895	3.1
400.255	3.12
400.615	3.1
400.975	3.08
401.334	3.01
401.694	3.01
402.054	3.03
402.413	3.03
402.773	3.03
403.132	2.99
403.492	3
403.851	3
404.211	2.98
404.57	2.98
404.929	2.94
405.288	2.93
405.648	2.93
406.007	2.92
406.366	2.91
406.725	2.9
407.084	2.91
407.443	2.89
407.802	2.88
408.161	2.86
408.52	2.84
408.879	2.85
409.238	2.88
409.596	2.85
409.955	2.86
410.314	2.84
410.673	2.84
411.031	2.82
411.39	2.81
411.748	2.8
412.107	2.79
412.465	2.81
412.824	2.83
413.182	2.8
413.54	2.82
413.899	2.8
414.257	2.82
414.615	2.81
414.974	2.82
415.332	2.81
415.69	2.81
416.048	2.82
416.406	2.79
416.764	2.78
417.122	2.77
417.48	2.76
417.838	2.75
418.195	2.74
418.553	2.75
418.911	2.74
419.269	2.74
419.626	2.71
419.984	2.7
420.342	2.68
420.699	2.66
421.057	2.65
421.414	2.66
421.772	2.65
422.129	2.63
422.486	2.63
422.844	2.62
423.201	2.61
423.558	2.59
423.915	2.59
424.273	2.58
424.63	2.6
424.987	2.59
425.344	2.58
425.701	2.58
426.058	2.56
426.415	2.57
426.772	2.56
427.128	2.56
427.485	2.55
427.842	2.54
428.199	2.55
428.555	2.53
428.912	2.51
429.269	2.5
429.625	2.5
429.982	2.49
430.338	2.49
430.695	2.48
431.051	2.5
431.407	2.49
431.764	2.48
432.12	2.48
432.476	2.48
432.832	2.48
433.189	2.47
433.545	2.47
433.901	2.48
434.257	2.51
434.613	2.51
434.969	2.5
435.325	2.51
435.681	2.51
436.036	2.51
436.392	2.53
436.748	2.54
437.104	2.54
437.459	2.57
437.815	2.55
438.171	2.56
438.526	2.56
438.882	2.57
439.237	2.57
439.593	2.58
439.948	2.58
440.304	2.56
440.659	2.57
441.014	2.57
441.369	2.56
441.725	2.55
442.08	2.56
442.435	2.55
442.79	2.55
443.145	2.54
443.5	2.53
443.855	2.53
444.21	2.52
444.565	2.52
444.92	2.51
445.275	2.52
445.629	2.5
445.984	2.5
446.339	2.49
446.693	2.49
447.048	2.47
447.403	2.46
447.757	2.48
448.112	2.47
448.466	2.48
448.82	2.46
449.175	2.47
449.529	2.46
449.883	2.46
450.238	2.45
450.592	2.47
450.946	2.46
451.3	2.45
451.654	2.43
452.008	2.42
452.362	2.41
452.716	2.41
453.07	2.44
453.424	2.44
453.778	2.45
454.132	2.44
454.486	2.44
454.839	2.43
455.193	2.42
455.547	2.42
455.9	2.41
456.254	2.43
456.607	2.42
456.961	2.44
457.314	2.43
457.668	2.43
458.021	2.4
458.375	2.42
458.728	2.41
459.081	2.42
459.434	2.41
459.787	2.42
460.141	2.42
460.494	2.43
460.847	2.42
461.2	2.42
461.553	2.42
461.906	2.43
462.259	2.43
462.611	2.45
462.964	2.46
463.317	2.47
463.67	2.49
464.022	2.51
464.375	2.5
464.728	2.51
465.08	2.51
465.433	2.53
465.785	2.53
466.138	2.53
466.49	2.56
466.843	2.58
467.195	2.59
467.547	2.59
467.899	2.59
468.252	2.61
468.604	2.61
468.956	2.62
469.308	2.63
469.66	2.65
470.012	2.64
470.364	2.66
470.716	2.66
471.068	2.65
471.42	2.62
471.772	2.63
472.123	2.64
472.475	2.64
472.827	2.63
473.178	2.65
473.53	2.65
473.882	2.65
474.233	2.63
474.585	2.62
474.936	2.61
475.288	2.61
475.639	2.6
475.99	2.6
476.342	2.61
476.693	2.6
477.044	2.59
477.395	2.6
477.746	2.57
478.097	2.57
478.448	2.59
478.8	2.6
479.15	2.6
479.501	2.6
479.852	2.6
480.203	2.61
480.554	2.61
480.905	2.61
481.255	2.6
481.606	2.59
481.957	2.6
482.307	2.6
482.658	2.6
483.009	2.59
483.359	2.59
483.709	2.58
484.06	2.58
484.41	2.59
484.761	2.58
485.111	2.59
485.461	2.59
485.811	2.58
486.162	2.58
486.512	2.58
486.862	2.58
487.212	2.58
487.562	2.57
487.912	2.57
488.262	2.57
488.612	2.58
488.961	2.59
489.311	2.59
489.661	2.59
490.011	2.59
490.36	2.59
490.71	2.59
491.06	2.59
491.409	2.59
491.759	2.59
492.108	2.59
492.458	2.58
492.807	2.59
493.157	2.6
493.506	2.6
493.855	2.62
494.204	2.62
494.554	2.62
494.903	2.62
495.252	2.63
495.601	2.66
495.95	2.66
496.299	2.66
496.648	2.69
496.997	2.69
497.346	2.7
497.695	2.72
498.043	2.75
498.392	2.77
498.741	2.78
499.09	2.79
499.438	2.83
499.787	2.85
500.135	2.86
500.484	2.88
500.832	2.89
501.181	2.91
501.529	2.94
501.878	2.98
502.226	3.03
502.574	3.07
502.923	3.08
503.271	3.12
503.619	3.16
503.967	3.2
504.315	3.24
504.663	3.26
505.011	3.31
505.359	3.33
505.707	3.36
506.055	3.41
506.403	3.45
506.751	3.48
507.098	3.52
507.446	3.57
507.794	3.61
508.141	3.67
508.489	3.73
508.837	3.76
509.184	3.81
509.531	3.84
509.879	3.87
510.226	3.93
510.574	4
510.921	4.05
511.268	4.11
511.616	4.18
511.963	4.27
512.31	4.32
512.657	4.41
513.004	4.49
513.351	4.55
513.698	4.64
514.045	4.73
514.392	4.82
514.739	4.92
515.086	5.02
515.432	5.12
515.779	5.2
516.126	5.31
516.473	5.4
516.819	5.51
517.166	5.59
517.512	5.65
517.859	5.71
518.205	5.76
518.552	5.83
518.898	5.89
519.245	5.97
519.591	6.06
519.937	6.14
520.283	6.21
520.629	6.3
520.976	6.39
521.322	6.49
521.668	6.58
522.014	6.7
522.36	6.78
522.706	6.88
523.052	7
523.398	7.09
523.743	7.25
524.089	7.39
524.435	7.49
524.781	7.62
525.126	7.75
525.472	7.87
525.817	7.98
526.163	8.07
526.509	8.15
526.854	8.23
527.199	8.34
527.545	8.42
527.89	8.5
528.235	8.59
528.581	8.66
528.926	8.74
529.271	8.81
529.616	8.92
529.961	9.01
530.306	9.1
530.651	9.21
530.996	9.3
531.341	9.4
531.686	9.52
532.031	9.63
532.376	9.74
532.721	9.85
533.065	9.95
533.41	10.09
533.755	10.22
534.099	10.36
534.444	10.49
534.788	10.61
535.133	10.75
535.477	10.87
535.822	11.02
536.166	11.19
536.51	11.37
536.855	11.53
537.199	11.7
537.543	11.88
537.887	12.05
538.231	12.23
538.576	12.39
538.92	12.58
539.264	12.76
539.608	12.93
539.951	13.11
540.295	13.3
540.639	13.46
540.983	13.59
541.327	13.73
541.671	13.88
542.014	14.07
542.358	14.25
542.701	14.41
543.045	14.59
543.389	14.74
543.732	14.89
544.075	15.05
544.419	15.22
544.762	15.39
545.105	15.6
545.449	15.82
545.792	16.04
546.135	16.27
546.478	16.5
546.821	16.74
547.165	17.01
547.508	17.22
547.851	17.47
548.194	17.76
548.536	18
548.879	18.24
549.222	18.46
549.565	18.69
549.908	18.97
550.25	19.2
550.593	19.5
550.936	19.75
551.278	20.05
551.621	20.34
551.963	20.64
552.306	20.89
552.648	21.14
552.991	21.37
553.333	21.63
553.675	21.92
554.017	22.19
554.36	22.42
554.702	22.69
555.044	22.93
555.386	23.16
555.728	23.48
556.07	23.75
556.412	24.05
556.754	24.24
557.096	24.48
557.438	24.79
557.78	25.05
558.121	25.37
558.463	25.62
558.805	25.91
559.147	26.2
559.488	26.51
559.83	26.79
560.171	27.12
560.513	27.38
560.854	27.66
561.196	27.93
561.537	28.2
561.878	28.44
562.22	28.76
562.561	29.04
562.902	29.28
563.243	29.54
563.584	29.81
563.925	30.15
564.266	30.41
564.607	30.66
564.948	30.95
565.289	31.19
565.63	31.44
565.971	31.67
566.312	31.92
566.653	32.15
566.993	32.39
567.334	32.65
567.675	32.91
568.015	33.16
568.356	33.4
568.696	33.65
569.037	33.95
569.377	34.2
569.718	34.44
570.058	34.72
570.398	34.98
570.739	35.18
571.079	35.44
571.419	35.66
571.759	35.86
572.099	36.01
572.439	36.23
572.779	36.46
573.119	36.68
573.459	36.88
573.799	37.07
574.139	37.29
574.479	37.47
574.819	37.69
575.158	37.86
575.498	38.01
575.838	38.2
576.177	38.44
576.517	38.63
576.856	38.86
577.196	39.05
577.535	39.27
577.875	39.56
578.214	39.73
578.553	39.99
578.893	40.22
579.232	40.49
579.571	40.72
579.91	40.97
580.25	41.19
580.589	41.35
580.928	41.55
581.267	41.78
581.606	42.02
581.945	42.16
582.283	42.37
582.622	42.67
582.961	42.96
583.3	43.13
583.639	43.31
583.977	43.56
584.316	43.8
584.654	44.04
584.993	44.19
585.332	44.4
585.67	44.55
586.008	44.82
586.347	44.96
586.685	45.12
587.024	45.27
587.362	45.4
587.7	45.59
588.038	45.76
588.376	45.83
588.715	45.99
589.053	46.13
589.391	46.27
589.729	46.39
590.067	46.45
590.404	46.52
590.742	46.6
591.08	46.72
591.418	46.75
591.756	46.8
592.093	46.94
592.431	47.02
592.769	47.1
593.106	47.19
593.444	47.32
593.781	47.43
594.119	47.53
594.456	47.69
594.793	47.8
595.131	47.94
595.468	48.09
595.805	48.14
596.143	48.25
596.48	48.37
596.817	48.4
597.154	48.54
597.491	48.65
597.828	48.82
598.165	48.89
598.502	49.04
598.839	49.21
599.176	49.34
599.512	49.48
599.849	49.61
600.186	49.68
600.523	49.84
600.859	49.86
601.196	49.95
601.532	49.99
601.869	50.11
602.205	50.13
602.542	50.16
602.878	50.27
603.215	50.34
603.551	50.42
603.887	50.54
604.223	50.57
604.56	50.61
604.896	50.64
605.232	50.68
605.568	50.73
605.904	50.73
606.24	50.73
606.576	50.72
606.912	50.77
607.248	50.86
607.583	50.91
607.919	51.05
608.255	51.13
608.591	51.25
608.926	51.31
609.262	51.42
609.597	51.48
609.933	51.54
610.268	51.62
610.604	51.64
610.939	51.7
611.275	51.79
611.61	51.89
611.945	51.93
612.281	52.06
612.616	52.19
612.951	52.28
613.286	52.36
613.621	52.48
613.956	52.64
614.291	52.75
614.626	52.89
614.961	52.94
615.296	53.03
615.631	53.06
615.966	53.07
616.3	53.18
616.635	53.38
616.97	53.42
617.304	53.58
617.639	53.64
617.973	53.76
618.308	53.9
618.642	53.98
618.977	54.07
619.311	54.07
619.646	54.03
619.98	54.04
620.314	54.09
620.648	54.26
620.983	54.34
621.317	54.28
621.651	54.3
621.985	54.45
622.319	54.48
622.653	54.59
622.987	54.68
623.321	54.64
623.655	54.61
623.988	54.68
624.322	54.64
624.656	54.67
624.99	54.65
625.323	54.57
625.657	54.52
625.99	54.54
626.324	54.51
626.657	54.56
626.991	54.63
627.324	54.67
627.658	54.68
627.991	54.71
628.324	54.82
628.657	54.75
628.991	54.64
629.324	54.6
629.657	54.6
629.99	54.67
630.323	54.8
630.656	54.88
630.989	54.93
631.322	54.91
631.655	54.96
631.987	54.95
632.32	55
632.653	55.13
632.986	55.25
633.318	55.36
633.651	55.3
633.984	55.39
634.316	55.43
634.649	55.52
634.981	55.52
635.313	55.58
635.646	55.74
635.978	55.92
636.31	56.08
636.643	56.16
636.975	56.21
637.307	56.3
637.639	56.29
637.971	56.33
638.303	56.46
638.635	56.53
638.967	56.62
639.299	56.72
639.631	56.75
639.963	56.78
640.295	56.8
640.626	56.97
640.958	57.03
641.29	57.11
641.621	57.08
641.953	57.05
642.285	56.97
642.616	56.9
642.948	56.92
643.279	56.85
643.61	56.87
643.942	56.78
644.273	56.68
644.604	56.72
644.936	56.68
645.267	56.72
645.598	56.76
645.929	56.68
646.26	56.62
646.591	56.64
646.922	56.67
647.253	56.78
647.584	56.78
647.915	56.74
648.245	56.77
648.576	56.8
648.907	56.84
649.238	56.85
649.568	56.85
649.899	56.78
650.229	56.84
650.56	56.86
650.89	56.87
651.221	56.86
651.551	56.81
651.882	56.85
652.212	56.84
652.542	56.77
652.872	56.86
653.203	56.92
653.533	56.93
653.863	56.85
654.193	56.78
654.523	56.79
654.853	56.79
655.183	56.67
655.513	56.66
655.843	56.6
656.172	56.69
656.502	56.81
656.832	56.77
657.162	56.76
657.491	56.78
657.821	56.71
658.15	56.77
658.48	56.83
658.809	56.81
659.139	56.94
659.468	56.97
659.798	56.94
660.127	56.93
660.456	57
660.785	57.01
661.115	57.07
661.444	57.15
661.773	57.2
662.102	57.32
662.431	57.29
662.76	57.38
663.089	57.39
663.418	57.3
663.747	57.4
664.076	57.41
664.404	57.46
664.733	57.62
665.062	57.63
665.39	57.65
665.719	57.79
666.048	57.65
666.376	57.77
666.705	57.94
667.033	57.94
667.362	57.77
667.69	57.94
668.018	57.87
668.347	57.79
668.675	57.81
669.003	57.82
669.331	57.84
669.659	57.85
669.987	57.82
670.315	57.87
670.643	57.88
670.971	57.87
671.299	57.95
671.627	58.02
671.955	58.06
672.283	58.13
672.61	58.01
672.938	58.04
673.266	58.03
673.593	57.95
673.921	58.03
674.249	58.14
674.576	58.04
674.904	58.01
675.231	58.2
675.558	58.19
675.886	58.17
676.213	58.13
676.54	58.22
676.867	58.26
677.195	58.36
677.522	58.3
677.849	58.23
678.176	57.99
678.503	57.95
678.83	57.79
679.157	57.76
679.484	57.71
679.81	57.73
680.137	57.69
680.464	57.64
680.791	57.58
681.117	57.66
681.444	57.73
681.771	57.83
682.097	57.63
682.424	57.53
682.75	57.5
683.077	57.57
683.403	57.48
683.729	57.51
684.056	57.36
684.382	57.3
684.708	57.33
685.034	57.51
685.36	57.47
685.686	57.7
686.012	57.75
686.339	57.9
686.664	57.88
686.99	57.87
687.316	57.88
687.642	57.96
687.968	57.93
688.294	57.84
688.619	57.76
688.945	57.75
689.271	57.78
689.596	57.85
689.922	57.82
690.247	57.96
690.573	57.9
690.898	58.1
691.224	58.14
691.549	58.13
691.874	58.1
692.2	58.07
692.525	57.97
692.85	57.88
693.175	57.67
693.5	57.69
693.825	57.55
694.15	57.55
694.475	57.56
694.8	57.56
695.125	57.4
695.45	57.45
695.775	57.5
696.099	57.55
696.424	57.43
696.749	57.38
697.073	57.26
697.398	57.24
697.723	57.17
698.047	57.14
698.372	57.24
698.696	57.16
699.02	57.28
699.345	57.34
699.669	57.4
699.993	57.57
700.318	57.49
700.642	57.58
700.966	57.62
701.29	57.71
701.614	57.73
701.938	57.86
702.262	57.8
702.586	57.8
702.91	57.8
703.234	57.82
703.557	58.01
703.881	57.96
704.205	58.1
704.529	58.03
704.852	58.29
705.176	58.16
705.499	58.16
705.823	57.99
706.146	57.95
706.47	57.87
706.793	57.83
707.117	58.04
707.44	58.14
707.763	58.02
708.086	57.99
708.409	58
708.733	58.07
709.056	58.14
709.379	58.24
709.702	58.21
710.025	58.4
710.348	58.36
710.671	58.41
710.993	58.35
711.316	58.38
711.639	58.38
711.962	58.49
712.284	58.66
712.607	58.64
712.93	58.61
713.252	58.6
713.575	58.55
713.897	58.38
714.22	58.29
714.542	58.53
714.864	58.38
715.187	58.31
715.509	58.16
715.831	58.12
716.153	58.1
716.475	58.03
716.798	57.88
717.12	57.64
717.442	57.72
717.764	57.4
718.085	57.48
718.407	57.26
718.729	57.16
719.051	57.18
719.373	57.15
719.695	57.1
720.016	57.3
720.338	57.4
720.659	57.59
720.981	57.45
721.302	57.21
721.624	57.1
721.945	57.03
722.267	57.09
722.588	56.95
722.909	56.88
723.231	57.1
723.552	57.26
723.873	57.29
724.194	57.24
724.515	57.59
724.836	57.36
725.157	57.66
725.478	57.68
725.799	57.39
726.12	57.39
726.441	57.28
726.762	57
727.083	56.99
727.403	56.91
727.724	57.22
728.045	57.29
728.365	57.45
728.686	57.45
729.006	57.4
729.327	57.75
729.647	57.67
729.967	57.56
730.288	57.37
730.608	57.48
730.928	57.45
731.249	57.38
731.569	57.51
731.889	57.65
732.209	57.65
732.529	57.82
732.849	57.92
733.169	57.83
733.489	58
733.809	57.93
734.129	57.9
734.448	57.85
734.768	57.81
735.088	57.7
735.408	57.69
735.727	57.78
736.047	57.65
736.366	57.72
736.686	57.74
737.005	58.02
737.325	58.03
737.644	58.03
737.963	58.06
738.283	58.25
738.602	58
738.921	58
739.24	57.88
739.56	57.94
739.879	58.21
740.198	57.94
740.517	57.92
740.836	57.9
741.155	57.9
741.473	58.05
741.792	58.06
742.111	58.21
742.43	58.36
742.748	58.56
743.067	58.74
743.386	58.73
743.704	58.85
744.023	59.01
744.341	59.14
744.66	59.21
744.978	59.02
745.297	58.96
745.615	59.23
745.933	59.28
746.252	59.31
746.57	59.32
746.888	59.81
747.206	59.95
747.524	59.93
747.842	59.78
748.16	60.01
748.478	60.14
748.796	59.82
749.114	59.68
749.432	59.42
749.749	58.89
750.067	59.12
750.385	58.79
750.703	58.71
751.02	59.05
751.338	58.84
751.655	58.73
751.973	58.57
752.29	58.16
752.608	58.09
752.925	57.97
753.242	57.95
753.56	57.61
753.877	57.6
754.194	57.55
754.511	57.66
754.828	57.04
755.145	56.86
755.462	56.96
755.779	56.82
756.096	56.88
756.413	56.85
756.73	57.02
757.047	57.03
757.364	56.81
757.68	56.21
757.997	56.35
758.314	56.47
758.63	56.39
758.947	56.5
759.264	56.35
759.58	56.31
759.896	56.23
760.213	56.19
760.529	56.04
760.846	56.49
761.162	56.42
761.478	56.7
761.794	56.78
762.11	56.63
762.426	56.74
762.743	56.83
763.059	57.01
763.375	56.65
763.69	56.53
764.006	56.86
764.322	57.06
764.638	56.93
764.954	56.91
765.27	57.14
765.585	57.43
765.901	57.64
766.216	57.93
766.532	57.87
766.848	57.89
767.163	57.8
767.478	57.47
767.794	57.59
768.109	57.6
768.424	57.71
768.74	58.03
769.055	58.16
769.37	58
769.685	58.14
770	58.25
770.315	58.45
770.63	58.03
770.945	57.99
771.26	58.08
771.575	57.98
771.89	57.73
772.205	57.42
772.52	57.29
772.834	56.83
773.149	56.85
773.464	56.96
773.778	57.06
774.093	57.04
774.407	57.26
774.722	57.21
775.036	56.91
775.351	56.75
775.665	56.29
775.979	56.29
776.293	56.15
776.608	56.16
776.922	56.2
777.236	56.25
777.55	56.21
777.864	55.83
778.178	56.08
778.492	56.11
778.806	56.35
779.12	56.88
779.434	57.08
779.747	57.07
780.061	57.14
780.375	57.92
780.689	57.96
781.002	57.61
781.316	57.93
781.629	58.37
781.943	58.67
782.256	59.34
782.57	59.36
782.883	59.82
783.196	60.18
783.51	60.01
783.823	60.12
784.136	60.22
784.449	60.64
784.762	60.58
785.075	60.45
785.388	60.42
785.701	60.18
786.014	60.16
786.327	59.88
786.64	60.35
786.953	59.91
787.266	59.81
787.578	59.75
787.891	59.5
788.204	59.21
788.516	59.01
788.829	58.7
789.141	58.98
789.454	58.31
789.766	57.97
790.079	57.97
790.391	58.2
790.703	58.28
791.016	58.46
791.328	58.53
791.64	58.84
791.952	58.65
792.264	58.34
792.576	58.45
792.888	59.01
793.2	58.04
793.512	57.66
793.824	57.89
794.136	57.93
794.448	57.49
794.76	57.38
795.071	57.24
795.383	57.24
795.695	57.32
796.006	57.47
796.318	57.99
796.629	57.71
796.941	58.06
797.252	57.78
797.564	58.24
797.875	58.07
798.186	57.7
798.497	57.62
798.809	57.78
799.12	57.68
799.431	57.85
799.742	58.01
800.053	57.76
800.364	57.8
800.675	57.92
800.986	58.05
801.297	58.14
801.608	58.2
801.918	58.31
802.229	57.62
802.54	57.8
802.851	57.15
803.161	57.48
803.472	56.55
803.782	56.54
804.093	56.41
804.403	56.47
804.714	56.72
805.024	56.71
805.334	56.89
805.645	57.06
805.955	57.39
806.265	57.69
806.575	58.04
806.885	58.11
807.195	58.03
807.505	58.21
807.815	58.47
808.125	58.75
808.435	58.13
808.745	58.33
809.055	58.53
809.365	58.63
809.674	58.12
809.984	58.17
810.294	58.62
810.603	58.47
810.913	59.23
811.222	58.83
811.532	58.97
811.841	59.32
812.151	58.94
812.46	58.28
812.769	57.82
813.079	57.85
813.388	57.69
813.697	57.83
814.006	58.37
814.315	58.18
814.624	57.77
814.933	58.51
815.242	58.49
815.551	58.1
815.86	57.92
816.169	59.27
816.478	59.68
816.786	59.14
817.095	58.62
817.404	57.62
817.712	57.9
818.021	57.62
818.33	57.31
818.638	57.17
818.947	57.49
819.255	57.66
819.563	57.36
819.872	56.65
820.18	56.19
820.488	55.97
820.796	56.18
821.105	56.22
821.413	56.36
821.721	56.46
822.029	56.52
822.337	56.73
822.645	56.47
822.953	56.46
823.26	56.57
823.568	56.48
823.876	56.56
824.184	56.55
824.491	56.63
824.799	56.49
825.107	56.54
825.414	56.48
825.722	56.48
826.029	56.66
826.337	56.77
826.644	56.98
826.951	56.92
827.259	56.77
827.566	56.88
827.873	56.75
828.18	56.74
828.488	56.87
828.795	56.7
829.102	56.83
829.409	56.85
829.716	56.74
830.023	57.03
830.329	56.84
830.636	56.8
830.943	56.6
831.25	56.71
831.557	56.68
831.863	56.42
832.17	56.19
832.476	56.2
832.783	56.53
833.089	56.35
833.396	56.87
833.702	56.6
834.009	56.57
834.315	56.5
834.621	56.46
834.928	56.21
835.234	56.66
835.54	56.58
835.846	56.46
836.152	56.57
836.458	56.59
836.764	56.88
837.07	57.26
837.376	57.3
837.682	57.39
837.988	57.3
838.293	57.58
838.599	57.89
838.905	57.68
839.211	58.16
839.516	58.21
839.822	58.12
840.127	58.32
840.433	58.95
840.738	59.39
841.044	59.05
841.349	58.33
841.654	56.76
841.959	56.68
842.265	56.17
842.57	56.09
842.875	55.56
843.18	55.74
843.485	54.43
843.79	54.55
844.095	54.61
844.4	54.33
844.705	53.55
845.01	53.06
845.315	52.68
845.619	51.64
845.924	51.94
846.229	51.68
846.533	51.05
846.838	49.22
847.142	46.52
847.447	48.85
847.751	49.39
848.056	50.98
848.36	51.54
848.664	52.93
848.969	53.4
849.273	53.96
849.577	53.4
849.881	54.69
850.185	54.48
850.489	53.97
850.794	54.37
851.097	54.32
851.401	54.5
851.705	53.05
852.009	52.95
852.313	52.93
852.617	52.86
852.92	55.22
853.224	56.11
853.528	58.78
853.831	57.71
854.135	58.45
854.438	58.01
854.742	57.21
855.045	57.82
855.349	56.69
855.652	56.62
855.955	55.45
856.259	56.55
856.562	56.08
856.865	55.29
857.168	55.95
857.471	57.95
857.774	57.51
858.077	57.79
858.38	57.76
858.683	56.47
858.986	54.07
859.289	52.98
859.592	53.57
859.894	52.24
860.197	51.19
860.5	51.9
860.802	50.92
861.105	51.19
861.407	49.52
861.71	51.07
862.012	51.89
862.315	51.34
862.617	49.38
862.919	49.75
863.222	51.83
863.524	51.01
863.826	50.55
864.128	51.74
864.43	53.69
864.732	52.69
865.034	55.57
865.336	56.73
865.638	56.26
865.94	55.68
866.242	58.41
866.544	57.17
866.846	58.84
867.147	58.51
867.449	59.83
867.751	59.38
868.052	57.36
868.354	56.1
868.655	59.02
868.957	60.82
869.258	59.38
869.56	60.82
869.861	60.54
870.162	58.9
870.463	56.73
870.765	56.52
871.066	56.4
871.367	53.67
871.668	54.33
871.969	55.4
872.27	55.95
872.571	53.39
872.872	52.53
873.173	50.17
873.473	50.95
873.774	49.83
874.075	50.06
874.376	50.34
874.676	51.11
874.977	52.14
875.277	51.18
875.578	53.17
875.878	51.01
876.179	51.33
876.479	52.09
876.78	53.77
877.08	53.59
877.38	55.06
877.68	56.34
877.981	56.1
878.281	56.37
878.581	53.99
