Data from BU57653_Reflection_00006.txt Node
Date: Mon Nov 18 16:52:07 EST 2019
User: vgr7
Spectrometer: USB2G7710
Scans to average: 3
Trigger mode: 4
Integration Time (sec): 2.000000E-2
Electric dark correction enabled: true
Boxcar width: 10
XAxis mode: Wavelengths
Number of Pixels in Spectrum: 2048
>>>>>Begin Spectral Data<<<<<
177.721	117.56
178.105	94.65
178.488	130.26
178.871	108.99
179.254	75.97
179.636	110.97
180.019	22.03
180.402	300
180.785	-25.85
181.168	-22.42
181.55	-86.56
181.933	-13.22
182.316	-13.22
182.698	-16.18
183.081	-55.7
183.463	-329.66
183.846	-65.38
184.228	-133.67
184.611	-125.2
184.993	-518.73
185.376	1745.67
185.758	-1496.27
186.14	-1605.88
186.522	363.16
186.904	182.91
187.287	207.97
187.669	226.37
188.051	312.68
188.433	303.57
188.815	148.11
189.197	126.16
189.579	53.91
189.961	27.11
190.342	7.25
190.724	17.36
191.106	-18.36
191.488	-27.08
191.869	-11.19
192.251	-25.76
192.633	-25.66
193.014	-36.22
193.396	-84.12
193.777	-75.89
194.159	-85.29
194.54	-92.2
194.922	-108.92
195.303	-127.06
195.684	-125.27
196.065	-98.1
196.447	-87.76
196.828	-82.39
197.209	-79.55
197.59	-60.21
197.971	-64.26
198.352	-54.98
198.733	-94.03
199.114	-62.89
199.495	-54.23
199.876	-43.67
200.257	-40.05
200.638	-48.27
201.018	-53.15
201.399	-38.58
201.78	-52.78
202.16	-71.78
202.541	-105.57
202.922	-140.25
203.302	-126.92
203.683	-131.98
204.063	-141.28
204.444	-139.77
204.824	-171.54
205.204	-181.91
205.585	-366.47
205.965	-318.06
206.345	-378.08
206.725	-592.15
207.106	-3669.23
207.486	-17278.38
207.866	1000.99
208.246	2407.98
208.626	-2493.36
209.006	-503.62
209.386	-493.63
209.766	-476.29
210.145	-260.3
210.525	-177.28
210.905	-126.76
211.285	-113.35
211.664	-158.05
212.044	-171.05
212.424	-186.58
212.803	-189.44
213.183	-129.39
213.562	-113.81
213.942	-103.04
214.321	-79.42
214.701	-54.63
215.08	-37.69
215.459	-38.04
215.838	-28.97
216.218	-58.2
216.597	-45.73
216.976	-40.43
217.355	-19.2
217.734	-25.98
218.113	-22.52
218.492	-35.49
218.871	-66.61
219.25	-69.36
219.629	-57.77
220.008	-53.34
220.387	-42.03
220.766	-32.48
221.144	-63.87
221.523	-66.88
221.902	-63.1
222.28	-53.07
222.659	-51.79
223.037	-58.32
223.416	-64.5
223.794	-55.07
224.173	-41.18
224.551	-41.75
224.929	-35.91
225.308	-35.23
225.686	-28.93
226.064	-25.39
226.442	-18.9
226.821	-13.29
227.199	-11.13
227.577	-7.29
227.955	-8.31
228.333	-8.53
228.711	-9.97
229.089	-6.93
229.467	-7.29
229.845	-7.72
230.222	-7.62
230.6	-9
230.978	-9.35
231.356	-5.22
231.733	-6.63
232.111	-7.84
232.488	-7.05
232.866	-7.37
233.243	-6.37
233.621	-8.15
233.998	-5.34
234.376	-6.11
234.753	-5.93
235.13	-5.85
235.508	-5.61
235.885	-4.87
236.262	-3.8
236.639	-3.9
237.016	-3.01
237.393	-1.25
237.77	0.16
238.147	0.02
238.524	0.58
238.901	1.38
239.278	1.6
239.655	2.39
240.032	2.51
240.409	2.55
240.785	2.59
241.162	2.7
241.539	3.37
241.915	2.89
242.292	2.25
242.668	2.45
243.045	2.29
243.421	2.28
243.798	2.28
244.174	2.07
244.551	2.38
244.927	2.3
245.303	2.28
245.679	2.25
246.056	2.22
246.432	2.11
246.808	2.28
247.184	2.04
247.56	1.88
247.936	1.89
248.312	1.76
248.688	1.75
249.064	1.51
249.44	1.24
249.815	1.26
250.191	1.52
250.567	1.63
250.943	1.75
251.318	1.9
251.694	1.91
252.069	1.98
252.445	2.12
252.82	1.96
253.196	1.93
253.571	1.96
253.947	1.95
254.322	2.07
254.697	1.9
255.073	1.93
255.448	2
255.823	2.11
256.198	2.29
256.573	2.51
256.948	2.99
257.323	3.39
257.698	3.39
258.073	3.41
258.448	3.19
258.823	3.09
259.198	2.99
259.573	2.99
259.948	2.92
260.322	2.86
260.697	2.82
261.072	2.73
261.446	2.8
261.821	2.75
262.195	2.82
262.57	2.81
262.944	2.79
263.319	2.92
263.693	2.79
264.067	2.74
264.442	2.69
264.816	2.39
265.19	2.15
265.564	2.2
265.938	2.06
266.313	2.12
266.687	2.11
267.061	2.23
267.435	2.2
267.809	2.46
268.183	2.41
268.556	2.47
268.93	2.6
269.304	2.47
269.678	2.64
270.051	2.57
270.425	2.5
270.799	2.81
271.172	2.77
271.546	2.82
271.919	2.78
272.293	2.77
272.666	2.79
273.04	2.85
273.413	2.77
273.787	2.72
274.16	2.66
274.533	2.72
274.906	2.57
275.279	2.61
275.653	2.53
276.026	2.61
276.399	2.62
276.772	2.63
277.145	2.46
277.518	2.39
277.891	2.37
278.263	2.5
278.636	2.3
279.009	2.31
279.382	2.53
279.755	2.57
280.127	2.55
280.5	2.65
280.872	2.75
281.245	2.85
281.617	2.99
281.99	3.26
282.362	3.27
282.735	3.32
283.107	3.24
283.479	3.31
283.852	3.21
284.224	3.25
284.596	3.19
284.968	3.38
285.34	3.46
285.713	3.48
286.085	3.51
286.457	3.51
286.829	3.51
287.201	3.49
287.572	3.34
287.944	3.24
288.316	3.22
288.688	3.13
289.06	3.05
289.431	3.15
289.803	3.08
290.175	3.05
290.546	3.12
290.918	3.22
291.289	3.12
291.661	3.2
292.032	3.23
292.403	3.17
292.775	3.09
293.146	3
293.517	3.09
293.889	3.02
294.26	3.04
294.631	3.02
295.002	3.02
295.373	3.19
295.744	3.26
296.115	3.2
296.486	3.14
296.857	3.17
297.228	3.21
297.599	3.15
297.97	3.14
298.34	3.09
298.711	3.12
299.082	3.17
299.452	3.08
299.823	3.11
300.194	3.18
300.564	3.27
300.935	3.35
301.305	3.33
301.676	3.4
302.046	3.47
302.416	3.56
302.787	3.43
303.157	3.39
303.527	3.39
303.897	3.44
304.267	3.62
304.637	3.71
305.008	3.58
305.378	3.56
305.748	3.62
306.117	3.5
306.487	3.43
306.857	3.38
307.227	3.45
307.597	3.36
307.967	3.26
308.336	3.2
308.706	3.13
309.076	3.05
309.445	2.94
309.815	2.93
310.184	2.87
310.554	3.01
310.923	3.04
311.293	3.01
311.662	3.01
312.031	2.92
312.401	2.77
312.77	2.74
313.139	2.76
313.508	2.76
313.877	2.9
314.246	2.85
314.616	2.78
314.985	2.77
315.353	2.69
315.722	2.78
316.091	2.71
316.46	2.66
316.829	2.76
317.198	2.82
317.567	2.68
317.935	2.7
318.304	2.71
318.672	2.54
319.041	2.62
319.41	2.65
319.778	2.66
320.147	2.73
320.515	2.68
320.883	2.58
321.252	2.52
321.62	2.36
321.988	2.41
322.357	2.49
322.725	2.53
323.093	2.64
323.461	2.6
323.829	2.64
324.197	2.78
324.565	2.61
324.933	2.71
325.301	2.81
325.669	2.76
326.037	2.71
326.405	2.87
326.772	2.95
327.14	3.01
327.508	2.91
327.875	2.9
328.243	2.92
328.61	2.93
328.978	3.02
329.346	3.2
329.713	3.14
330.08	3.19
330.448	2.99
330.815	2.82
331.182	2.88
331.55	2.93
331.917	2.9
332.284	3.02
332.651	2.87
333.018	2.86
333.385	2.93
333.752	2.94
334.119	2.93
334.486	2.79
334.853	2.81
335.22	2.85
335.587	2.97
335.954	3.09
336.32	3.1
336.687	3.04
337.054	2.97
337.42	3.02
337.787	3.05
338.153	3.05
338.52	3.26
338.886	3.2
339.253	3.25
339.619	3.27
339.986	3.24
340.352	3.21
340.718	3.11
341.084	3.11
341.451	3.12
341.817	3.16
342.183	3.2
342.549	3.15
342.915	3.15
343.281	2.99
343.647	2.96
344.013	2.95
344.379	2.83
344.745	2.87
345.11	2.8
345.476	2.71
345.842	2.81
346.208	2.71
346.573	2.81
346.939	2.8
347.304	2.66
347.67	2.59
348.035	2.6
348.401	2.72
348.766	2.76
349.132	2.68
349.497	2.67
349.862	2.67
350.228	2.73
350.593	2.77
350.958	2.83
351.323	2.8
351.688	2.82
352.053	2.95
352.418	2.91
352.783	3
353.148	2.94
353.513	2.88
353.878	2.88
354.243	2.81
354.608	2.83
354.972	2.85
355.337	2.98
355.702	3.14
356.066	3.11
356.431	3.04
356.795	3.13
357.16	3.04
357.524	3.01
357.889	2.89
358.253	2.94
358.618	2.95
358.982	2.99
359.346	2.97
359.71	2.92
360.075	2.95
360.439	2.93
360.803	3
361.167	3.02
361.531	3.01
361.895	2.99
362.259	2.92
362.623	2.96
362.987	2.95
363.351	2.89
363.714	2.85
364.078	2.84
364.442	2.82
364.806	2.87
365.169	2.9
365.533	2.98
365.896	2.94
366.26	2.92
366.623	2.89
366.987	2.88
367.35	2.98
367.714	2.98
368.077	2.94
368.44	2.95
368.803	2.93
369.167	2.95
369.53	2.92
369.893	3
370.256	3.03
370.619	2.96
370.982	2.95
371.345	2.96
371.708	2.97
372.071	2.95
372.434	2.98
372.797	2.98
373.159	2.93
373.522	2.94
373.885	2.97
374.247	2.94
374.61	2.97
374.973	2.92
375.335	2.89
375.698	2.88
376.06	2.86
376.423	2.88
376.785	2.96
377.147	3.03
377.51	2.99
377.872	2.97
378.234	3.05
378.596	3.07
378.958	3.04
379.321	3.06
379.683	3.06
380.045	3.05
380.407	3
380.769	3
381.13	2.97
381.492	2.98
381.854	2.98
382.216	2.99
382.578	3
382.939	2.99
383.301	3.01
383.663	3.02
384.024	3.02
384.386	2.99
384.747	2.95
385.109	3
385.47	2.95
385.832	2.9
386.193	2.88
386.554	2.91
386.916	2.88
387.277	2.85
387.638	2.87
387.999	2.86
388.36	2.91
388.721	2.92
389.082	2.91
389.443	2.9
389.804	2.9
390.165	2.91
390.526	2.96
390.887	2.93
391.248	2.94
391.609	2.96
391.969	2.94
392.33	2.95
392.691	2.9
393.051	2.91
393.412	2.93
393.772	2.93
394.133	2.95
394.493	2.94
394.854	2.96
395.214	2.95
395.574	2.98
395.935	2.95
396.295	2.97
396.655	2.95
397.015	2.96
397.376	2.95
397.736	2.94
398.096	2.93
398.456	2.96
398.816	2.96
399.176	2.92
399.535	2.89
399.895	2.9
400.255	2.91
400.615	2.95
400.975	2.91
401.334	2.92
401.694	2.86
402.054	2.86
402.413	2.88
402.773	2.82
403.132	2.8
403.492	2.81
403.851	2.81
404.211	2.84
404.57	2.85
404.929	2.83
405.288	2.8
405.648	2.77
406.007	2.78
406.366	2.77
406.725	2.81
407.084	2.82
407.443	2.83
407.802	2.81
408.161	2.78
408.52	2.79
408.879	2.78
409.238	2.8
409.596	2.8
409.955	2.78
410.314	2.82
410.673	2.82
411.031	2.81
411.39	2.79
411.748	2.78
412.107	2.77
412.465	2.77
412.824	2.8
413.182	2.79
413.54	2.8
413.899	2.82
414.257	2.79
414.615	2.8
414.974	2.8
415.332	2.8
415.69	2.8
416.048	2.82
416.406	2.83
416.764	2.83
417.122	2.84
417.48	2.83
417.838	2.85
418.195	2.86
418.553	2.86
418.911	2.86
419.269	2.87
419.626	2.88
419.984	2.88
420.342	2.9
420.699	2.9
421.057	2.9
421.414	2.88
421.772	2.87
422.129	2.88
422.486	2.87
422.844	2.88
423.201	2.88
423.558	2.87
423.915	2.87
424.273	2.88
424.63	2.88
424.987	2.88
425.344	2.87
425.701	2.87
426.058	2.86
426.415	2.87
426.772	2.86
427.128	2.86
427.485	2.86
427.842	2.84
428.199	2.85
428.555	2.85
428.912	2.86
429.269	2.89
429.625	2.88
429.982	2.89
430.338	2.89
430.695	2.89
431.051	2.89
431.407	2.87
431.764	2.86
432.12	2.84
432.476	2.86
432.832	2.85
433.189	2.85
433.545	2.86
433.901	2.84
434.257	2.84
434.613	2.85
434.969	2.85
435.325	2.85
435.681	2.86
436.036	2.86
436.392	2.86
436.748	2.85
437.104	2.84
437.459	2.85
437.815	2.86
438.171	2.86
438.526	2.87
438.882	2.88
439.237	2.89
439.593	2.9
439.948	2.91
440.304	2.93
440.659	2.92
441.014	2.92
441.369	2.91
441.725	2.91
442.08	2.9
442.435	2.92
442.79	2.91
443.145	2.88
443.5	2.87
443.855	2.86
444.21	2.87
444.565	2.88
444.92	2.89
445.275	2.88
445.629	2.88
445.984	2.89
446.339	2.87
446.693	2.87
447.048	2.86
447.403	2.85
447.757	2.84
448.112	2.83
448.466	2.82
448.82	2.84
449.175	2.84
449.529	2.84
449.883	2.84
450.238	2.85
450.592	2.87
450.946	2.88
451.3	2.88
451.654	2.87
452.008	2.87
452.362	2.84
452.716	2.86
453.07	2.83
453.424	2.83
453.778	2.84
454.132	2.85
454.486	2.82
454.839	2.82
455.193	2.82
455.547	2.83
455.9	2.85
456.254	2.85
456.607	2.85
456.961	2.83
457.314	2.83
457.668	2.83
458.021	2.82
458.375	2.82
458.728	2.83
459.081	2.84
459.434	2.82
459.787	2.84
460.141	2.83
460.494	2.86
460.847	2.86
461.2	2.85
461.553	2.86
461.906	2.89
462.259	2.9
462.611	2.89
462.964	2.89
463.317	2.88
463.67	2.86
464.022	2.87
464.375	2.89
464.728	2.88
465.08	2.88
465.433	2.88
465.785	2.89
466.138	2.89
466.49	2.9
466.843	2.91
467.195	2.89
467.547	2.91
467.899	2.89
468.252	2.88
468.604	2.89
468.956	2.88
469.308	2.88
469.66	2.89
470.012	2.9
470.364	2.91
470.716	2.91
471.068	2.91
471.42	2.9
471.772	2.89
472.123	2.89
472.475	2.89
472.827	2.88
473.178	2.89
473.53	2.89
473.882	2.86
474.233	2.85
474.585	2.84
474.936	2.83
475.288	2.85
475.639	2.86
475.99	2.87
476.342	2.89
476.693	2.87
477.044	2.88
477.395	2.88
477.746	2.88
478.097	2.88
478.448	2.92
478.8	2.93
479.15	2.93
479.501	2.94
479.852	2.95
480.203	2.96
480.554	2.94
480.905	2.95
481.255	2.95
481.606	2.96
481.957	2.97
482.307	2.98
482.658	2.98
483.009	2.98
483.359	2.98
483.709	2.98
484.06	2.99
484.41	2.99
484.761	2.99
485.111	3
485.461	3.01
485.811	3
486.162	2.99
486.512	3
486.862	3
487.212	2.99
487.562	3
487.912	3
488.262	2.99
488.612	3.01
488.961	3.01
489.311	3.02
489.661	3.02
490.011	3.02
490.36	3.02
490.71	3.02
491.06	3.02
491.409	3.01
491.759	3
492.108	3
492.458	3
492.807	2.99
493.157	3
493.506	3
493.855	3
494.204	3.01
494.554	3.01
494.903	2.99
495.252	3
495.601	3.01
495.95	3.01
496.299	3
496.648	3
496.997	2.99
497.346	3.02
497.695	3.02
498.043	3
498.392	2.98
498.741	2.99
499.09	2.98
499.438	3
499.787	3.01
500.135	3.01
500.484	3
500.832	3.01
501.181	3.01
501.529	3
501.878	3.02
502.226	3.03
502.574	3.03
502.923	3.04
503.271	3.01
503.619	3.01
503.967	3.02
504.315	3.03
504.663	2.99
505.011	2.99
505.359	3.01
505.707	3.03
506.055	3.03
506.403	3.04
506.751	3.04
507.098	3.05
507.446	3.06
507.794	3.05
508.141	3.07
508.489	3.08
508.837	3.11
509.184	3.12
509.531	3.13
509.879	3.16
510.226	3.18
510.574	3.2
510.921	3.2
511.268	3.2
511.616	3.23
511.963	3.26
512.31	3.27
512.657	3.28
513.004	3.28
513.351	3.31
513.698	3.3
514.045	3.3
514.392	3.31
514.739	3.32
515.086	3.34
515.432	3.34
515.779	3.33
516.126	3.34
516.473	3.33
516.819	3.34
517.166	3.32
517.512	3.29
517.859	3.29
518.205	3.29
518.552	3.31
518.898	3.28
519.245	3.26
519.591	3.28
519.937	3.26
520.283	3.27
520.629	3.27
520.976	3.28
521.322	3.27
521.668	3.28
522.014	3.29
522.36	3.3
522.706	3.3
523.052	3.31
523.398	3.33
523.743	3.33
524.089	3.32
524.435	3.32
524.781	3.35
525.126	3.36
525.472	3.37
525.817	3.37
526.163	3.38
526.509	3.38
526.854	3.38
527.199	3.4
527.545	3.39
527.89	3.4
528.235	3.4
528.581	3.42
528.926	3.42
529.271	3.42
529.616	3.42
529.961	3.42
530.306	3.42
530.651	3.41
530.996	3.41
531.341	3.41
531.686	3.42
532.031	3.43
532.376	3.43
532.721	3.43
533.065	3.42
533.41	3.43
533.755	3.44
534.099	3.46
534.444	3.45
534.788	3.48
535.133	3.48
535.477	3.48
535.822	3.46
536.166	3.45
536.51	3.44
536.855	3.44
537.199	3.44
537.543	3.45
537.887	3.47
538.231	3.48
538.576	3.49
538.92	3.48
539.264	3.47
539.608	3.47
539.951	3.47
540.295	3.48
540.639	3.49
540.983	3.48
541.327	3.46
541.671	3.46
542.014	3.44
542.358	3.44
542.701	3.42
543.045	3.44
543.389	3.43
543.732	3.44
544.075	3.45
544.419	3.45
544.762	3.43
545.105	3.44
545.449	3.43
545.792	3.42
546.135	3.41
546.478	3.42
546.821	3.39
547.165	3.41
547.508	3.41
547.851	3.41
548.194	3.39
548.536	3.4
548.879	3.41
549.222	3.42
549.565	3.42
549.908	3.46
550.25	3.45
550.593	3.47
550.936	3.47
551.278	3.47
551.621	3.46
551.963	3.5
552.306	3.48
552.648	3.47
552.991	3.47
553.333	3.47
553.675	3.45
554.017	3.49
554.36	3.46
554.702	3.45
555.044	3.42
555.386	3.45
555.728	3.43
556.07	3.45
556.412	3.44
556.754	3.45
557.096	3.41
557.438	3.43
557.78	3.45
558.121	3.45
558.463	3.44
558.805	3.42
559.147	3.39
559.488	3.4
559.83	3.41
560.171	3.45
560.513	3.51
560.854	3.49
561.196	3.5
561.537	3.53
561.878	3.53
562.22	3.53
562.561	3.48
562.902	3.52
563.243	3.49
563.584	3.51
563.925	3.53
564.266	3.55
564.607	3.57
564.948	3.57
565.289	3.58
565.63	3.58
565.971	3.58
566.312	3.6
566.653	3.58
566.993	3.57
567.334	3.55
567.675	3.51
568.015	3.53
568.356	3.53
568.696	3.55
569.037	3.54
569.377	3.56
569.718	3.6
570.058	3.58
570.398	3.59
570.739	3.6
571.079	3.6
571.419	3.62
571.759	3.62
572.099	3.61
572.439	3.6
572.779	3.61
573.119	3.62
573.459	3.65
573.799	3.66
574.139	3.67
574.479	3.7
574.819	3.69
575.158	3.69
575.498	3.66
575.838	3.63
576.177	3.61
576.517	3.62
576.856	3.61
577.196	3.6
577.535	3.59
577.875	3.59
578.214	3.54
578.553	3.54
578.893	3.48
579.232	3.5
579.571	3.49
579.91	3.45
580.25	3.48
580.589	3.43
580.928	3.43
581.267	3.39
581.606	3.35
581.945	3.35
582.283	3.33
582.622	3.35
582.961	3.34
583.3	3.37
583.639	3.42
583.977	3.45
584.316	3.46
584.654	3.44
584.993	3.42
585.332	3.45
585.67	3.43
586.008	3.45
586.347	3.42
586.685	3.42
587.024	3.43
587.362	3.4
587.7	3.41
588.038	3.43
588.376	3.49
588.715	3.48
589.053	3.52
589.391	3.57
589.729	3.56
590.067	3.57
590.404	3.57
590.742	3.53
591.08	3.46
591.418	3.47
591.756	3.49
592.093	3.51
592.431	3.52
592.769	3.51
593.106	3.52
593.444	3.48
593.781	3.47
594.119	3.49
594.456	3.49
594.793	3.49
595.131	3.48
595.468	3.44
595.805	3.45
596.143	3.47
596.48	3.44
596.817	3.48
597.154	3.52
597.491	3.53
597.828	3.53
598.165	3.56
598.502	3.52
598.839	3.54
599.176	3.52
599.512	3.52
599.849	3.56
600.186	3.55
600.523	3.58
600.859	3.62
601.196	3.63
601.532	3.61
601.869	3.62
602.205	3.64
602.542	3.63
602.878	3.65
603.215	3.63
603.551	3.67
603.887	3.65
604.223	3.6
604.56	3.63
604.896	3.64
605.232	3.66
605.568	3.66
605.904	3.66
606.24	3.69
606.576	3.68
606.912	3.68
607.248	3.67
607.583	3.67
607.919	3.65
608.255	3.63
608.591	3.69
608.926	3.68
609.262	3.66
609.597	3.7
609.933	3.74
610.268	3.74
610.604	3.73
610.939	3.72
611.275	3.75
611.61	3.7
611.945	3.67
612.281	3.64
612.616	3.68
612.951	3.67
613.286	3.67
613.621	3.65
613.956	3.62
614.291	3.63
614.626	3.67
614.961	3.65
615.296	3.63
615.631	3.59
615.966	3.61
616.3	3.6
616.635	3.6
616.97	3.5
617.304	3.47
617.639	3.47
617.973	3.47
618.308	3.48
618.642	3.54
618.977	3.58
619.311	3.59
619.646	3.63
619.98	3.63
620.314	3.61
620.648	3.67
620.983	3.7
621.317	3.75
621.651	3.73
621.985	3.78
622.319	3.8
622.653	3.81
622.987	3.83
623.321	3.87
623.655	3.89
623.988	3.93
624.322	3.94
624.656	3.93
624.99	3.93
625.323	3.91
625.657	3.88
625.99	3.88
626.324	3.87
626.657	3.86
626.991	3.84
627.324	3.8
627.658	3.83
627.991	3.83
628.324	3.83
628.657	3.79
628.991	3.77
629.324	3.78
629.657	3.79
629.99	3.8
630.323	3.76
630.656	3.74
630.989	3.74
631.322	3.79
631.655	3.75
631.987	3.78
632.32	3.78
632.653	3.77
632.986	3.82
633.318	3.78
633.651	3.71
633.984	3.74
634.316	3.78
634.649	3.69
634.981	3.7
635.313	3.7
635.646	3.74
635.978	3.7
636.31	3.7
636.643	3.63
636.975	3.61
637.307	3.65
637.639	3.64
637.971	3.62
638.303	3.56
638.635	3.5
638.967	3.49
639.299	3.51
639.631	3.47
639.963	3.35
640.295	3.44
640.626	3.44
640.958	3.4
641.29	3.42
641.621	3.43
641.953	3.35
642.285	3.35
642.616	3.35
642.948	3.33
643.279	3.39
643.61	3.37
643.942	3.37
644.273	3.32
644.604	3.36
644.936	3.35
645.267	3.35
645.598	3.47
645.929	3.5
646.26	3.48
646.591	3.5
646.922	3.57
647.253	3.52
647.584	3.56
647.915	3.5
648.245	3.45
648.576	3.54
648.907	3.59
649.238	3.52
649.568	3.51
649.899	3.65
650.229	3.62
650.56	3.69
650.89	3.65
651.221	3.66
651.551	3.65
651.882	3.66
652.212	3.72
652.542	3.7
652.872	3.63
653.203	3.61
653.533	3.63
653.863	3.65
654.193	3.68
654.523	3.7
654.853	3.77
655.183	3.78
655.513	3.66
655.843	3.62
656.172	3.62
656.502	3.6
656.832	3.54
657.162	3.54
657.491	3.55
657.821	3.54
658.15	3.52
658.48	3.5
658.809	3.51
659.139	3.5
659.468	3.47
659.798	3.47
660.127	3.55
660.456	3.57
660.785	3.53
661.115	3.48
661.444	3.45
661.773	3.46
662.102	3.49
662.431	3.56
662.76	3.56
663.089	3.59
663.418	3.61
663.747	3.59
664.076	3.6
664.404	3.62
664.733	3.68
665.062	3.73
665.39	3.72
665.719	3.67
666.048	3.67
666.376	3.68
666.705	3.76
667.033	3.65
667.362	3.59
667.69	3.62
668.018	3.61
668.347	3.63
668.675	3.64
669.003	3.63
669.331	3.66
669.659	3.75
669.987	3.65
670.315	3.68
670.643	3.67
670.971	3.63
671.299	3.67
671.627	3.69
671.955	3.63
672.283	3.7
672.61	3.71
672.938	3.68
673.266	3.66
673.593	3.7
673.921	3.72
674.249	3.77
674.576	3.82
674.904	3.84
675.231	3.82
675.558	3.82
675.886	3.83
676.213	3.75
676.54	3.73
676.867	3.87
677.195	3.84
677.522	3.85
677.849	3.87
678.176	3.79
678.503	3.77
678.83	3.8
679.157	3.68
679.484	3.75
679.81	3.83
680.137	3.91
680.464	3.84
680.791	3.85
681.117	3.82
681.444	3.76
681.771	3.78
682.097	3.79
682.424	3.74
682.75	3.79
683.077	3.85
683.403	3.82
683.729	3.79
684.056	3.84
684.382	3.81
684.708	3.81
685.034	3.75
685.36	3.67
685.686	3.68
686.012	3.72
686.339	3.63
686.664	3.53
686.99	3.4
687.316	3.37
687.642	3.52
687.968	3.53
688.294	3.58
688.619	3.6
688.945	3.52
689.271	3.57
689.596	3.6
689.922	3.46
690.247	3.39
690.573	3.36
690.898	3.31
691.224	3.34
691.549	3.39
691.874	3.45
692.2	3.55
692.525	3.5
692.85	3.53
693.175	3.6
693.5	3.67
693.825	3.71
694.15	3.79
694.475	3.59
694.8	3.63
695.125	3.55
695.45	3.57
695.775	3.62
696.099	3.63
696.424	3.55
696.749	3.53
697.073	3.56
697.398	3.65
697.723	3.68
698.047	3.67
698.372	3.59
698.696	3.61
699.02	3.56
699.345	3.56
699.669	3.56
699.993	3.48
700.318	3.4
700.642	3.43
700.966	3.33
701.29	3.42
701.614	3.45
701.938	3.53
702.262	3.56
702.586	3.57
702.91	3.47
703.234	3.6
703.557	3.76
703.881	3.74
704.205	3.64
704.529	3.66
704.852	3.56
705.176	3.58
705.499	3.61
705.823	3.61
706.146	3.75
706.47	3.85
706.793	3.89
707.117	4.02
707.44	4.07
707.763	4.2
708.086	4.15
708.409	4.1
708.733	4.15
709.056	4.13
709.379	4.31
709.702	4.39
710.025	4.27
710.348	4.26
710.671	4.26
710.993	4.37
711.316	4.34
711.639	4.46
711.962	4.49
712.284	4.42
712.607	4.57
712.93	4.54
713.252	4.39
713.575	4.43
713.897	4.41
714.22	4.36
714.542	4.3
714.864	4.21
715.187	4.24
715.509	4.09
715.831	4.12
716.153	3.96
716.475	4.06
716.798	4.1
717.12	4.05
717.442	4.02
717.764	3.87
718.085	3.87
718.407	3.82
718.729	3.74
719.051	3.85
719.373	3.73
719.695	3.71
720.016	3.96
720.338	3.84
720.659	3.87
720.981	3.8
721.302	3.79
721.624	3.81
721.945	3.65
722.267	3.71
722.588	3.63
722.909	3.55
723.231	3.37
723.552	3.41
723.873	3.33
724.194	3.46
724.515	3.57
724.836	3.5
725.157	3.73
725.478	3.77
725.799	3.58
726.12	3.47
726.441	3.53
726.762	3.53
727.083	3.71
727.403	3.7
727.724	3.76
728.045	3.81
728.365	3.91
728.686	4
729.006	4.07
729.327	4.11
729.647	4.18
729.967	4.16
730.288	4.02
730.608	4.04
730.928	4.02
731.249	4.1
731.569	4.24
731.889	4.15
732.209	4.18
732.529	4.3
732.849	4.4
733.169	4.33
733.489	4.19
733.809	4.19
734.129	4.12
734.448	4.16
734.768	4.14
735.088	4.08
735.408	4.17
735.727	4.27
736.047	4.37
736.366	4.17
736.686	4.25
737.005	4.4
737.325	4.47
737.644	4.44
737.963	4.4
738.283	4.2
738.602	4.2
738.921	4.22
739.24	4.18
739.56	4.15
739.879	4.22
740.198	4.23
740.517	4.14
740.836	4.28
741.155	4.15
741.473	4.22
741.792	4.26
742.111	4.23
742.43	4.01
742.748	4.02
743.067	4.47
743.386	4.65
743.704	4.46
744.023	4.57
744.341	4.49
744.66	4.63
744.978	4.79
745.297	4.77
745.615	4.8
745.933	4.84
746.252	4.83
746.57	4.81
746.888	4.87
747.206	5.05
747.524	5.08
747.842	5.26
748.16	5.2
748.478	5.33
748.796	5.63
749.114	6.02
749.432	5.7
749.749	5.56
750.067	5.3
750.385	5.34
750.703	5.22
751.02	5.39
751.338	5.17
751.655	5.07
751.973	5.13
752.29	5.02
752.608	4.93
752.925	4.83
753.242	4.93
753.56	4.63
753.877	4.6
754.194	4.34
754.511	4.41
754.828	4.44
755.145	4.16
755.462	3.83
755.779	3.56
756.096	3.67
756.413	3.7
756.73	3.76
757.047	3.81
757.364	3.89
757.68	3.99
757.997	4.03
758.314	3.91
758.63	3.89
758.947	4.03
759.264	4.04
759.58	4.13
759.896	3.95
760.213	4.19
760.529	4.13
760.846	4.26
761.162	4.11
761.478	4.28
761.794	4.31
762.11	4.19
762.426	4.09
762.743	4.24
763.059	4.28
763.375	4.4
763.69	4.44
764.006	4.68
764.322	4.61
764.638	4.67
764.954	4.95
765.27	4.85
765.585	4.91
765.901	5.19
766.216	5.31
766.532	5.36
766.848	5.14
767.163	5.18
767.478	5.22
767.794	5.18
768.109	4.99
768.424	5.05
768.74	5.43
769.055	5.59
769.37	5.56
769.685	5.37
770	5.6
770.315	5.69
770.63	5.23
770.945	5.18
771.26	4.93
771.575	4.64
771.89	4.8
772.205	4.64
772.52	4.31
772.834	4.08
773.149	4.41
773.464	4.78
773.778	4.81
774.093	4.42
774.407	4.75
774.722	4.58
775.036	4.87
775.351	4.68
775.665	4.49
775.979	4.27
776.293	4.22
776.608	3.74
776.922	3.84
777.236	3.92
777.55	4.06
777.864	4.22
778.178	4.21
778.492	4.65
778.806	4.55
779.12	4.5
779.434	4.99
779.747	4.89
780.061	4.84
780.375	4.84
780.689	5.25
781.002	5.14
781.316	5.82
781.629	5.81
781.943	5.65
782.256	6.04
782.57	6.17
782.883	6.33
783.196	6.36
783.51	5.94
783.823	5.82
784.136	6.07
784.449	6.33
784.762	6.59
785.075	5.98
785.388	6.14
785.701	6.32
786.014	5.78
786.327	5.58
786.64	5.76
786.953	5.38
787.266	5.26
787.578	5.3
787.891	5.08
788.204	4.69
788.516	5.01
788.829	4.57
789.141	4.8
789.454	5.44
789.766	5.86
790.079	5.84
790.391	5.82
790.703	5.14
791.016	4.99
791.328	4.64
791.64	4.66
791.952	4.77
792.264	4.62
792.576	4.52
792.888	4.48
793.2	4.56
793.512	4.84
793.824	4.86
794.136	4.82
794.448	4.86
794.76	5.19
795.071	4.62
795.383	4.1
795.695	3.42
796.006	2.61
796.318	1.96
796.629	2.51
796.941	2.95
797.252	3.65
797.564	3.44
797.875	3.44
798.186	3.68
798.497	3.41
798.809	3.35
799.12	3.43
799.431	3.21
799.742	2.88
800.053	3.14
800.364	3.04
800.675	3.02
800.986	2.78
801.297	2.45
801.608	2.51
801.918	3.39
802.229	3.65
802.54	3.9
802.851	4.39
803.161	3.84
803.472	3.41
803.782	3.45
804.093	3.85
804.403	4.28
804.714	4.14
805.024	4.1
805.334	4.21
805.645	4.57
805.955	4.87
806.265	5.24
806.575	4.99
806.885	5.13
807.195	5.18
807.505	5.64
807.815	5.49
808.125	5.7
808.435	5.24
808.745	6.24
809.055	6.22
809.365	6.02
809.674	6.05
809.984	6.12
810.294	5.4
810.603	5.65
810.913	5.37
811.222	4.92
811.532	4.87
811.841	4.59
812.151	4.96
812.46	4.67
812.769	4.13
813.079	4.01
813.388	3.99
813.697	4.32
814.006	3.9
814.315	4.18
814.624	4.12
814.933	4.96
815.242	4
815.551	4.16
815.86	4.47
816.169	4.51
816.478	4.03
816.786	4.44
817.095	4.36
817.404	4.98
817.712	5.57
818.021	6.01
818.33	6.23
818.638	6.02
818.947	6.53
819.255	6.54
819.563	6.5
819.872	6.47
820.18	6.4
820.488	6.37
820.796	6.31
821.105	6.17
821.413	6.03
821.721	6.12
822.029	6.21
822.337	6.16
822.645	6.06
822.953	6.26
823.26	6.23
823.568	5.97
823.876	5.84
824.184	5.66
824.491	5.63
824.799	5.66
825.107	5.57
825.414	5.53
825.722	5.57
826.029	5.77
826.337	5.71
826.644	5.66
826.951	5.63
827.259	5.55
827.566	5.67
827.873	5.45
828.18	5.57
828.488	5.39
828.795	5.15
829.102	5.29
829.409	5.46
829.716	5.5
830.023	5.79
830.329	5.82
830.636	6.13
830.943	6.03
831.25	6.09
831.557	6.35
831.863	6.32
832.17	5.79
832.476	5.6
832.783	5.86
833.089	5.67
833.396	5.24
833.702	5.83
834.009	5.77
834.315	6.03
834.621	5.68
834.928	5.42
835.234	5.81
835.54	5.97
835.846	6.01
836.152	5.97
836.458	6.44
836.764	6.59
837.07	6.92
837.376	7.05
837.682	7.16
837.988	6.64
838.293	6.86
838.599	7.48
838.905	7.11
839.211	7.06
839.516	7.57
839.822	8.57
840.127	8.32
840.433	8.77
840.738	9.39
841.044	9.54
841.349	10.03
841.654	10.61
841.959	11.41
842.265	10.49
842.57	10.63
842.875	9.28
843.18	8.63
843.485	8.65
843.79	9.2
844.095	8.54
844.4	10.84
844.705	9.41
845.01	9.34
845.315	8.71
845.619	8.8
845.924	8.79
846.229	9.02
846.533	8.2
846.838	8.11
847.142	7.71
847.447	6.97
847.751	6.85
848.056	4.92
848.36	4.83
848.664	5.69
848.969	5.97
849.273	7.57
849.577	8.03
849.881	6.9
850.185	4.9
850.489	5.93
850.794	2.12
851.097	3.42
851.401	4.2
851.705	5.79
852.009	7
852.313	5.95
852.617	5.72
852.92	7.81
853.224	7.41
853.528	8.76
853.831	8.32
854.135	8.48
854.438	8.9
854.742	7.51
855.045	5.59
855.349	5.76
855.652	4.14
855.955	5.64
856.259	4.77
856.562	7.8
856.865	8.51
857.168	10
857.471	8.92
857.774	9.7
858.077	7.66
858.38	6.26
858.683	5.81
858.986	4.72
859.289	4.96
859.592	4.38
859.894	0.83
860.197	2.54
860.5	2.82
860.802	2.86
861.105	3.27
861.407	3.05
861.71	1.04
862.012	1.07
862.315	1.06
862.617	2.56
862.919	2.24
863.222	0.84
863.524	-1.51
863.826	0.38
864.128	-0.81
864.43	2.37
864.732	4.04
865.034	5.78
865.336	6.88
865.638	4.74
865.94	4.09
866.242	4.72
866.544	2.73
866.846	2.2
867.147	1.83
867.449	3.68
867.751	6.43
868.052	7.82
868.354	8.7
868.655	8.87
868.957	9.76
869.258	8.11
869.56	9.42
869.861	10.44
870.162	9.68
870.463	10.84
870.765	10.68
871.066	10.36
871.367	10.46
871.668	10.28
871.969	11.61
872.27	11.65
872.571	12.07
872.872	14.49
873.173	14.22
873.473	15.54
873.774	13.64
874.075	12.07
874.376	11.07
874.676	12.18
874.977	9.27
875.277	9.68
875.578	8.46
875.878	7.67
876.179	8.94
876.479	8.65
876.78	7.63
877.08	6.72
877.38	4.87
877.68	3.88
877.981	2.49
878.281	0.82
878.581	2.91
