Data from BU57650_Reflection_00012.txt Node
Date: Tue Nov 19 11:01:32 EST 2019
User: vgr7
Spectrometer: USB2G7710
Scans to average: 3
Trigger mode: 4
Integration Time (sec): 2.000000E-2
Electric dark correction enabled: true
Boxcar width: 10
XAxis mode: Wavelengths
Number of Pixels in Spectrum: 2048
>>>>>Begin Spectral Data<<<<<
177.721	133.28
178.105	288.31
178.488	-1138.32
178.871	-283.78
179.254	-206.9
179.636	653.57
180.019	12.37
180.402	127.27
180.785	-365.22
181.168	-44.86
181.55	24.66
181.933	32.89
182.316	42.76
182.698	44.18
183.081	3171.43
183.463	101.98
183.846	34.9
184.228	22.02
184.611	-16.72
184.993	-44.63
185.376	-1.93
185.758	-6.74
186.14	-24.87
186.522	-24.1
186.904	-53.25
187.287	-76.9
187.669	-52.4
188.051	-83.07
188.433	-59.63
188.815	-45.62
189.197	-36.27
189.579	-29.5
189.961	-14.98
190.342	-8.09
190.724	-12.56
191.106	-18.89
191.488	-20.01
191.869	-11.32
192.251	-1.67
192.633	-2.87
193.014	5.79
193.396	3.31
193.777	11.4
194.159	3.04
194.54	4.48
194.922	8.99
195.303	5.03
195.684	0.51
196.065	5.31
196.447	-1.01
196.828	-3.5
197.209	-6.15
197.59	-5.81
197.971	-18.7
198.352	-24.3
198.733	-26.76
199.114	-27.04
199.495	-28.6
199.876	-34.34
200.257	-35.63
200.638	-29.11
201.018	-34.49
201.399	-35.97
201.78	-43.6
202.16	-31.86
202.541	-33.86
202.922	-36.13
203.302	-33.77
203.683	-29.16
204.063	-41.78
204.444	-45.34
204.824	-52.28
205.204	-42.6
205.585	-44.44
205.965	-36.6
206.345	-31.45
206.725	-28.55
207.106	-23.31
207.486	-24.67
207.866	-24.47
208.246	-19.06
208.626	-25.43
209.006	-23.81
209.386	-22.06
209.766	-13.74
210.145	-18.91
210.525	-23.77
210.905	-20.94
211.285	-24.52
211.664	-26.41
212.044	-16.46
212.424	-12.09
212.803	-22
213.183	-29.23
213.562	-32.45
213.942	-40.65
214.321	-52.07
214.701	-50.27
215.08	-51.55
215.459	-45.69
215.838	-50.02
216.218	-56.57
216.597	-54.41
216.976	-64.39
217.355	-59.18
217.734	-66.89
218.113	-49.63
218.492	-41.65
218.871	-43.05
219.25	-38.39
219.629	-40.19
220.008	-42.01
220.387	-39.03
220.766	-22.54
221.144	-16.57
221.523	-17.13
221.902	-9.6
222.28	-1.39
222.659	4.42
223.037	2.16
223.416	-1.69
223.794	-3.37
224.173	-6.91
224.551	-8.49
224.929	-11.22
225.308	-9.6
225.686	-8.36
226.064	-15.67
226.442	-14.95
226.821	-10.11
227.199	-7.78
227.577	-7.19
227.955	-4.46
228.333	-5.64
228.711	-6.39
229.089	-7.72
229.467	-6.66
229.845	-10.45
230.222	-7.08
230.6	-8.75
230.978	-6.29
231.356	-2.64
231.733	-0.05
232.111	0.69
232.488	0.52
232.866	2.55
233.243	2.51
233.621	3.21
233.998	3.33
234.376	5.23
234.753	2.3
235.13	1.71
235.508	5.02
235.885	4.89
236.262	4.91
236.639	5.28
237.016	6.79
237.393	6.64
237.77	8.96
238.147	8.12
238.524	7.65
238.901	6.44
239.278	5.59
239.655	5.48
240.032	5.73
240.409	5.22
240.785	4.68
241.162	4.42
241.539	4.22
241.915	4.45
242.292	4.12
242.668	4.63
243.045	4.73
243.421	4.5
243.798	4.31
244.174	4.22
244.551	4.09
244.927	3.99
245.303	3.81
245.679	3.62
246.056	3.62
246.432	3.79
246.808	4.09
247.184	4.27
247.56	3.99
247.936	4
248.312	4.44
248.688	4.52
249.064	4.56
249.44	4.58
249.815	4.65
250.191	4.92
250.567	4.86
250.943	4.71
251.318	4.41
251.694	4.33
252.069	4.56
252.445	4.62
252.82	4.66
253.196	5
253.571	5.2
253.947	5.04
254.322	4.85
254.697	4.71
255.073	4.66
255.448	4.75
255.823	4.84
256.198	4.67
256.573	4.82
256.948	4.85
257.323	4.97
257.698	4.9
258.073	4.5
258.448	4.5
258.823	4.56
259.198	4.55
259.573	4.55
259.948	4.38
260.322	4.36
260.697	4.2
261.072	4.12
261.446	4.27
261.821	4.34
262.195	4.11
262.57	4.09
262.944	4.11
263.319	3.92
263.693	3.67
264.067	3.56
264.442	3.4
264.816	3.34
265.19	3.19
265.564	3
265.938	3.11
266.313	3.16
266.687	3.22
267.061	3.41
267.435	3.51
267.809	3.44
268.183	3.35
268.556	3.45
268.93	3.76
269.304	3.46
269.678	3.64
270.051	3.89
270.425	3.91
270.799	3.75
271.172	3.99
271.546	4.24
271.919	4.42
272.293	4.57
272.666	4.56
273.04	4.61
273.413	4.7
273.787	4.69
274.16	4.48
274.533	4.45
274.906	4.39
275.279	4.33
275.653	4.49
276.026	4.63
276.399	4.63
276.772	4.52
277.145	4.49
277.518	4.32
277.891	4.26
278.263	4.32
278.636	4.46
279.009	4.43
279.382	4.44
279.755	4.36
280.127	4.26
280.5	4.24
280.872	4.06
281.245	3.99
281.617	3.91
281.99	3.97
282.362	3.84
282.735	3.83
283.107	3.89
283.479	3.97
283.852	3.97
284.224	4.04
284.596	4.01
284.968	4.12
285.34	4.17
285.713	4.31
286.085	4.28
286.457	4.21
286.829	4.29
287.201	4.39
287.572	4.44
287.944	4.48
288.316	4.53
288.688	4.69
289.06	4.72
289.431	4.88
289.803	5
290.175	5.03
290.546	5.09
290.918	5.15
291.289	4.94
291.661	5.11
292.032	5
292.403	5.11
292.775	5.25
293.146	5.24
293.517	5.13
293.889	5.01
294.26	5.04
294.631	5.15
295.002	4.97
295.373	4.94
295.744	4.96
296.115	5.03
296.486	5.15
296.857	5.34
297.228	5.27
297.599	5.23
297.97	5.4
298.34	5.44
298.711	5.49
299.082	5.63
299.452	5.5
299.823	5.52
300.194	5.52
300.564	5.44
300.935	5.69
301.305	5.87
301.676	5.98
302.046	6.13
302.416	6.04
302.787	6.24
303.157	6.33
303.527	6.38
303.897	6.26
304.267	6.33
304.637	6.3
305.008	6.41
305.378	6.61
305.748	6.66
306.117	6.75
306.487	6.67
306.857	6.74
307.227	6.85
307.597	7.07
307.967	7.12
308.336	7.21
308.706	7.1
309.076	7.05
309.445	7.25
309.815	7.17
310.184	7.21
310.554	7.19
310.923	7.19
311.293	7.19
311.662	7.34
312.031	7.37
312.401	7.39
312.77	7.44
313.139	7.52
313.508	7.5
313.877	7.6
314.246	7.73
314.616	7.92
314.985	7.92
315.353	7.95
315.722	8.08
316.091	8.1
316.46	8.26
316.829	8.41
317.198	8.36
317.567	8.6
317.935	8.71
318.304	8.77
318.672	8.88
319.041	9.12
319.41	9.25
319.778	9.18
320.147	9.24
320.515	9.26
320.883	9.1
321.252	9.26
321.62	9.16
321.988	9.4
322.357	9.32
322.725	9.65
323.093	9.62
323.461	9.64
323.829	9.74
324.197	9.68
324.565	9.72
324.933	9.86
325.301	9.77
325.669	9.79
326.037	9.95
326.405	10.07
326.772	10.13
327.14	10.03
327.508	10.04
327.875	10.14
328.243	10.29
328.61	10.43
328.978	10.56
329.346	10.73
329.713	10.65
330.08	10.8
330.448	10.6
330.815	10.77
331.182	10.75
331.55	10.82
331.917	10.86
332.284	10.96
332.651	11.01
333.018	11.1
333.385	11.17
333.752	11.17
334.119	11.1
334.486	11.05
334.853	11.1
335.22	11.19
335.587	11.29
335.954	11.24
336.32	11.34
336.687	11.25
337.054	11.19
337.42	11.24
337.787	11.25
338.153	11.32
338.52	11.29
338.886	11.37
339.253	11.26
339.619	11.37
339.986	11.32
340.352	11.35
340.718	11.42
341.084	11.48
341.451	11.39
341.817	11.37
342.183	11.39
342.549	11.53
342.915	11.69
343.281	11.66
343.647	11.67
344.013	11.65
344.379	11.55
344.745	11.66
345.11	11.72
345.476	11.8
345.842	11.78
346.208	11.82
346.573	11.81
346.939	11.92
347.304	11.84
347.67	11.83
348.035	11.77
348.401	11.84
348.766	11.83
349.132	11.77
349.497	11.95
349.862	12.06
350.228	12.07
350.593	11.83
350.958	11.82
351.323	11.86
351.688	11.84
352.053	11.91
352.418	11.82
352.783	11.74
353.148	11.64
353.513	11.71
353.878	11.65
354.243	11.54
354.608	11.55
354.972	11.57
355.337	11.62
355.702	11.62
356.066	11.49
356.431	11.44
356.795	11.44
357.16	11.37
357.524	11.24
357.889	11.1
358.253	11.13
358.618	11.12
358.982	11.06
359.346	11.04
359.71	11.09
360.075	11.04
360.439	11
360.803	11
361.167	10.94
361.531	11.01
361.895	10.99
362.259	10.98
362.623	10.97
362.987	10.84
363.351	10.72
363.714	10.73
364.078	10.71
364.442	10.64
364.806	10.5
365.169	10.49
365.533	10.49
365.896	10.44
366.26	10.36
366.623	10.26
366.987	10.16
367.35	10.04
367.714	10.01
368.077	9.94
368.44	9.89
368.803	9.74
369.167	9.51
369.53	9.44
369.893	9.35
370.256	9.26
370.619	9.21
370.982	9.17
371.345	9.04
371.708	8.96
372.071	8.95
372.434	8.93
372.797	8.86
373.159	8.78
373.522	8.7
373.885	8.65
374.247	8.64
374.61	8.59
374.973	8.57
375.335	8.47
375.698	8.34
376.06	8.2
376.423	8.2
376.785	8.26
377.147	8.25
377.51	8.16
377.872	8.05
378.234	8
378.596	7.99
378.958	7.95
379.321	7.84
379.683	7.81
380.045	7.78
380.407	7.68
380.769	7.62
381.13	7.54
381.492	7.47
381.854	7.38
382.216	7.33
382.578	7.22
382.939	7.15
383.301	7.1
383.663	7.02
384.024	6.94
384.386	6.84
384.747	6.74
385.109	6.71
385.47	6.68
385.832	6.61
386.193	6.51
386.554	6.4
386.916	6.38
387.277	6.29
387.638	6.21
387.999	6.19
388.36	6.12
388.721	6.14
389.082	6.1
389.443	6.08
389.804	6.05
390.165	6
390.526	5.96
390.887	5.93
391.248	5.92
391.609	5.92
391.969	5.84
392.33	5.85
392.691	5.8
393.051	5.78
393.412	5.74
393.772	5.72
394.133	5.69
394.493	5.67
394.854	5.65
395.214	5.62
395.574	5.56
395.935	5.54
396.295	5.48
396.655	5.45
397.015	5.4
397.376	5.3
397.736	5.26
398.096	5.2
398.456	5.18
398.816	5.15
399.176	5.08
399.535	5.05
399.895	4.98
400.255	4.94
400.615	4.88
400.975	4.85
401.334	4.81
401.694	4.79
402.054	4.75
402.413	4.71
402.773	4.68
403.132	4.63
403.492	4.6
403.851	4.53
404.211	4.47
404.57	4.46
404.929	4.45
405.288	4.44
405.648	4.47
406.007	4.45
406.366	4.4
406.725	4.37
407.084	4.35
407.443	4.36
407.802	4.33
408.161	4.33
408.52	4.31
408.879	4.32
409.238	4.33
409.596	4.3
409.955	4.28
410.314	4.25
410.673	4.26
411.031	4.24
411.39	4.24
411.748	4.28
412.107	4.21
412.465	4.23
412.824	4.17
413.182	4.12
413.54	4.08
413.899	4.09
414.257	4.09
414.615	4.08
414.974	4.06
415.332	4.06
415.69	4.04
416.048	4.02
416.406	3.99
416.764	3.97
417.122	3.94
417.48	3.95
417.838	3.93
418.195	3.93
418.553	3.92
418.911	3.9
419.269	3.87
419.626	3.86
419.984	3.85
420.342	3.84
420.699	3.83
421.057	3.84
421.414	3.82
421.772	3.8
422.129	3.78
422.486	3.78
422.844	3.77
423.201	3.77
423.558	3.77
423.915	3.77
424.273	3.77
424.63	3.78
424.987	3.76
425.344	3.75
425.701	3.73
426.058	3.73
426.415	3.72
426.772	3.72
427.128	3.74
427.485	3.71
427.842	3.71
428.199	3.72
428.555	3.71
428.912	3.71
429.269	3.72
429.625	3.71
429.982	3.69
430.338	3.67
430.695	3.65
431.051	3.63
431.407	3.61
431.764	3.59
432.12	3.59
432.476	3.6
432.832	3.61
433.189	3.62
433.545	3.6
433.901	3.59
434.257	3.58
434.613	3.56
434.969	3.57
435.325	3.58
435.681	3.56
436.036	3.55
436.392	3.55
436.748	3.56
437.104	3.56
437.459	3.57
437.815	3.55
438.171	3.54
438.526	3.56
438.882	3.57
439.237	3.55
439.593	3.55
439.948	3.54
440.304	3.53
440.659	3.54
441.014	3.54
441.369	3.54
441.725	3.55
442.08	3.54
442.435	3.55
442.79	3.54
443.145	3.53
443.5	3.54
443.855	3.53
444.21	3.53
444.565	3.53
444.92	3.52
445.275	3.53
445.629	3.53
445.984	3.51
446.339	3.5
446.693	3.48
447.048	3.46
447.403	3.45
447.757	3.43
448.112	3.41
448.466	3.4
448.82	3.38
449.175	3.37
449.529	3.37
449.883	3.36
450.238	3.36
450.592	3.36
450.946	3.34
451.3	3.31
451.654	3.29
452.008	3.28
452.362	3.27
452.716	3.26
453.07	3.26
453.424	3.27
453.778	3.27
454.132	3.28
454.486	3.29
454.839	3.29
455.193	3.3
455.547	3.31
455.9	3.34
456.254	3.34
456.607	3.35
456.961	3.35
457.314	3.33
457.668	3.33
458.021	3.31
458.375	3.31
458.728	3.33
459.081	3.35
459.434	3.35
459.787	3.36
460.141	3.38
460.494	3.38
460.847	3.39
461.2	3.37
461.553	3.4
461.906	3.41
462.259	3.4
462.611	3.42
462.964	3.42
463.317	3.42
463.67	3.44
464.022	3.44
464.375	3.45
464.728	3.46
465.08	3.46
465.433	3.49
465.785	3.51
466.138	3.51
466.49	3.52
466.843	3.53
467.195	3.53
467.547	3.51
467.899	3.5
468.252	3.5
468.604	3.53
468.956	3.52
469.308	3.51
469.66	3.51
470.012	3.52
470.364	3.53
470.716	3.52
471.068	3.53
471.42	3.54
471.772	3.53
472.123	3.55
472.475	3.57
472.827	3.56
473.178	3.59
473.53	3.59
473.882	3.59
474.233	3.59
474.585	3.58
474.936	3.6
475.288	3.62
475.639	3.64
475.99	3.61
476.342	3.63
476.693	3.63
477.044	3.64
477.395	3.62
477.746	3.63
478.097	3.63
478.448	3.61
478.8	3.59
479.15	3.59
479.501	3.58
479.852	3.56
480.203	3.56
480.554	3.55
480.905	3.54
481.255	3.53
481.606	3.52
481.957	3.53
482.307	3.52
482.658	3.53
483.009	3.53
483.359	3.53
483.709	3.53
484.06	3.54
484.41	3.54
484.761	3.55
485.111	3.53
485.461	3.52
485.811	3.53
486.162	3.53
486.512	3.54
486.862	3.54
487.212	3.55
487.562	3.55
487.912	3.56
488.262	3.56
488.612	3.56
488.961	3.56
489.311	3.55
489.661	3.55
490.011	3.55
490.36	3.55
490.71	3.56
491.06	3.56
491.409	3.56
491.759	3.56
492.108	3.56
492.458	3.57
492.807	3.6
493.157	3.61
493.506	3.63
493.855	3.63
494.204	3.64
494.554	3.64
494.903	3.65
495.252	3.66
495.601	3.68
495.95	3.7
496.299	3.73
496.648	3.78
496.997	3.79
497.346	3.82
497.695	3.84
498.043	3.87
498.392	3.89
498.741	3.93
499.09	3.97
499.438	4.01
499.787	4.03
500.135	4.04
500.484	4.08
500.832	4.09
501.181	4.14
501.529	4.2
501.878	4.24
502.226	4.31
502.574	4.36
502.923	4.41
503.271	4.44
503.619	4.51
503.967	4.54
504.315	4.61
504.663	4.66
505.011	4.72
505.359	4.76
505.707	4.82
506.055	4.86
506.403	4.91
506.751	4.96
507.098	5.04
507.446	5.12
507.794	5.18
508.141	5.26
508.489	5.31
508.837	5.36
509.184	5.43
509.531	5.49
509.879	5.56
510.226	5.62
510.574	5.71
510.921	5.77
511.268	5.85
511.616	5.93
511.963	5.99
512.31	6.05
512.657	6.14
513.004	6.24
513.351	6.34
513.698	6.45
514.045	6.54
514.392	6.64
514.739	6.74
515.086	6.86
515.432	6.96
515.779	7.08
516.126	7.2
516.473	7.31
516.819	7.42
517.166	7.51
517.512	7.62
517.859	7.72
518.205	7.8
518.552	7.89
518.898	7.98
519.245	8.07
519.591	8.18
519.937	8.28
520.283	8.36
520.629	8.47
520.976	8.56
521.322	8.69
521.668	8.82
522.014	8.92
522.36	9.07
522.706	9.21
523.052	9.32
523.398	9.47
523.743	9.64
524.089	9.78
524.435	9.95
524.781	10.12
525.126	10.26
525.472	10.41
525.817	10.56
526.163	10.67
526.509	10.8
526.854	10.91
527.199	11.03
527.545	11.14
527.89	11.23
528.235	11.34
528.581	11.43
528.926	11.53
529.271	11.64
529.616	11.74
529.961	11.85
530.306	11.98
530.651	12.1
530.996	12.22
531.341	12.36
531.686	12.48
532.031	12.59
532.376	12.75
532.721	12.87
533.065	12.99
533.41	13.14
533.755	13.28
534.099	13.42
534.444	13.56
534.788	13.7
535.133	13.88
535.477	14.04
535.822	14.21
536.166	14.4
536.51	14.6
536.855	14.79
537.199	14.99
537.543	15.21
537.887	15.4
538.231	15.62
538.576	15.85
538.92	16.05
539.264	16.29
539.608	16.46
539.951	16.67
540.295	16.89
540.639	17.08
540.983	17.28
541.327	17.46
541.671	17.66
542.014	17.84
542.358	18.02
542.701	18.19
543.045	18.39
543.389	18.59
543.732	18.76
544.075	18.95
544.419	19.16
544.762	19.36
545.105	19.6
545.449	19.81
545.792	20.04
546.135	20.31
546.478	20.56
546.821	20.85
547.165	21.13
547.508	21.4
547.851	21.69
548.194	21.97
548.536	22.3
548.879	22.55
549.222	22.85
549.565	23.18
549.908	23.52
550.25	23.8
550.593	24.08
550.936	24.41
551.278	24.76
551.621	25.08
551.963	25.45
552.306	25.76
552.648	26.11
552.991	26.42
553.333	26.77
553.675	27.06
554.017	27.36
554.36	27.66
554.702	28
555.044	28.3
555.386	28.6
555.728	28.86
556.07	29.27
556.412	29.65
556.754	29.93
557.096	30.26
557.438	30.63
557.78	30.99
558.121	31.35
558.463	31.65
558.805	32.01
559.147	32.29
559.488	32.6
559.83	32.93
560.171	33.27
560.513	33.58
560.854	33.93
561.196	34.28
561.537	34.65
561.878	34.93
562.22	35.24
562.561	35.6
562.902	35.95
563.243	36.25
563.584	36.55
563.925	36.85
564.266	37.11
564.607	37.42
564.948	37.75
565.289	38
565.63	38.32
565.971	38.6
566.312	38.87
566.653	39.23
566.993	39.5
567.334	39.8
567.675	40.13
568.015	40.41
568.356	40.7
568.696	41
569.037	41.32
569.377	41.57
569.718	41.84
570.058	42.12
570.398	42.4
570.739	42.65
571.079	42.95
571.419	43.27
571.759	43.51
572.099	43.8
572.439	44.13
572.779	44.34
573.119	44.54
573.459	44.84
573.799	45.07
574.139	45.25
574.479	45.45
574.819	45.69
575.158	45.97
575.498	46.19
575.838	46.36
576.177	46.59
576.517	46.91
576.856	47.12
577.196	47.33
577.535	47.5
577.875	47.74
578.214	47.93
578.553	48.17
578.893	48.37
579.232	48.51
579.571	48.7
579.91	48.92
580.25	49.23
580.589	49.43
580.928	49.57
581.267	49.86
581.606	50.05
581.945	50.2
582.283	50.32
582.622	50.57
582.961	50.79
583.3	50.97
583.639	51.06
583.977	51.24
584.316	51.44
584.654	51.73
584.993	51.91
585.332	52.1
585.67	52.31
586.008	52.52
586.347	52.78
586.685	52.9
587.024	53.17
587.362	53.36
587.7	53.52
588.038	53.73
588.376	53.91
588.715	54.05
589.053	54.19
589.391	54.38
589.729	54.51
590.067	54.67
590.404	54.8
590.742	55.02
591.08	55.16
591.418	55.3
591.756	55.39
592.093	55.5
592.431	55.73
592.769	55.85
593.106	56
593.444	56.1
593.781	56.3
594.119	56.46
594.456	56.49
594.793	56.62
595.131	56.76
595.468	56.88
595.805	57.01
596.143	57.06
596.48	57.22
596.817	57.33
597.154	57.41
597.491	57.5
597.828	57.59
598.165	57.68
598.502	57.79
598.839	57.84
599.176	58.01
599.512	58.08
599.849	58.19
600.186	58.23
600.523	58.27
600.859	58.36
601.196	58.39
601.532	58.48
601.869	58.6
602.205	58.69
602.542	58.74
602.878	58.8
603.215	58.99
603.551	58.97
603.887	59
604.223	59.01
604.56	59.08
604.896	59.24
605.232	59.32
605.568	59.38
605.904	59.5
606.24	59.62
606.576	59.66
606.912	59.71
607.248	59.85
607.583	59.94
607.919	60.04
608.255	60.09
608.591	60.2
608.926	60.24
609.262	60.28
609.597	60.36
609.933	60.49
610.268	60.51
610.604	60.6
610.939	60.66
611.275	60.85
611.61	60.92
611.945	60.86
612.281	60.95
612.616	61.11
612.951	61.14
613.286	61.09
613.621	61.11
613.956	61.15
614.291	61.17
614.626	61.19
614.961	61.21
615.296	61.27
615.631	61.31
615.966	61.34
616.3	61.41
616.635	61.51
616.97	61.54
617.304	61.54
617.639	61.59
617.973	61.7
618.308	61.75
618.642	61.83
618.977	61.82
619.311	61.95
619.646	62.02
619.98	62.15
620.314	62.23
620.648	62.27
620.983	62.27
621.317	62.24
621.651	62.32
621.985	62.38
622.319	62.43
622.653	62.44
622.987	62.52
623.321	62.6
623.655	62.62
623.988	62.74
624.322	62.77
624.656	62.69
624.99	62.67
625.323	62.67
625.657	62.72
625.99	62.78
626.324	62.69
626.657	62.6
626.991	62.58
627.324	62.6
627.658	62.67
627.991	62.73
628.324	62.89
628.657	62.98
628.991	63
629.324	63.08
629.657	63.07
629.99	63.07
630.323	63.08
630.656	63.13
630.989	63.06
631.322	63.13
631.655	63.23
631.987	63.3
632.32	63.23
632.653	63.2
632.986	63.24
633.318	63.37
633.651	63.43
633.984	63.52
634.316	63.57
634.649	63.6
634.981	63.69
635.313	63.62
635.646	63.59
635.978	63.56
636.31	63.62
636.643	63.66
636.975	63.64
637.307	63.66
637.639	63.62
637.971	63.63
638.303	63.55
638.635	63.67
638.967	63.63
639.299	63.73
639.631	63.8
639.963	63.89
640.295	63.9
640.626	64.01
640.958	63.88
641.29	63.92
641.621	63.98
641.953	63.94
642.285	63.89
642.616	64.01
642.948	64.07
643.279	64.04
643.61	64.08
643.942	64.2
644.273	64.24
644.604	64.36
644.936	64.46
645.267	64.58
645.598	64.61
645.929	64.69
646.26	64.74
646.591	64.69
646.922	64.71
647.253	64.7
647.584	64.66
647.915	64.81
648.245	64.84
648.576	64.87
648.907	64.85
649.238	64.97
649.568	64.99
649.899	65.01
650.229	64.96
650.56	65
650.89	64.96
651.221	65.02
651.551	65.02
651.882	64.85
652.212	64.92
652.542	64.91
652.872	65.02
653.203	65.11
653.533	65.18
653.863	65.16
654.193	65.16
654.523	65.26
654.853	65.28
655.183	65.19
655.513	65.17
655.843	65.29
656.172	65.3
656.502	65.23
656.832	65.24
657.162	65.28
657.491	65.37
657.821	65.47
658.15	65.4
658.48	65.44
658.809	65.55
659.139	65.54
659.468	65.5
659.798	65.39
660.127	65.39
660.456	65.4
660.785	65.44
661.115	65.43
661.444	65.3
661.773	65.29
662.102	65.44
662.431	65.38
662.76	65.38
663.089	65.39
663.418	65.51
663.747	65.54
664.076	65.54
664.404	65.56
664.733	65.57
665.062	65.51
665.39	65.6
665.719	65.51
666.048	65.5
666.376	65.58
666.705	65.61
667.033	65.53
667.362	65.45
667.69	65.35
668.018	65.36
668.347	65.39
668.675	65.48
669.003	65.52
669.331	65.74
669.659	65.64
669.987	65.61
670.315	65.62
670.643	65.57
670.971	65.61
671.299	65.62
671.627	65.53
671.955	65.63
672.283	65.46
672.61	65.53
672.938	65.66
673.266	65.53
673.593	65.74
673.921	65.77
674.249	65.74
674.576	65.82
674.904	65.93
675.231	65.91
675.558	65.78
675.886	65.62
676.213	65.6
676.54	65.69
676.867	65.76
677.195	65.91
677.522	66.06
677.849	66.04
678.176	65.97
678.503	66.03
678.83	66.1
679.157	66.08
679.484	66.14
679.81	66.03
680.137	66.18
680.464	66
680.791	65.95
681.117	66.05
681.444	66.13
681.771	66.02
682.097	66.03
682.424	66.16
682.75	66.1
683.077	66.01
683.403	66.04
683.729	66.08
684.056	65.86
684.382	65.84
684.708	65.69
685.034	65.79
685.36	65.79
685.686	65.71
686.012	65.77
686.339	65.59
686.664	65.51
686.99	65.43
687.316	65.46
687.642	65.62
687.968	65.64
688.294	65.58
688.619	65.62
688.945	65.57
689.271	65.47
689.596	65.58
689.922	65.63
690.247	65.61
690.573	65.67
690.898	65.73
691.224	65.69
691.549	65.85
691.874	65.82
692.2	65.78
692.525	65.87
692.85	65.94
693.175	66.14
693.5	66.19
693.825	66.24
694.15	66.25
694.475	66.15
694.8	66.12
695.125	66.22
695.45	66.43
695.775	66.72
696.099	66.75
696.424	66.84
696.749	66.72
697.073	66.89
697.398	66.78
697.723	66.89
698.047	66.88
698.372	66.9
698.696	66.85
699.02	66.72
699.345	66.69
699.669	66.5
699.993	66.42
700.318	66.48
700.642	66.39
700.966	66.5
701.29	66.53
701.614	66.58
701.938	66.48
702.262	66.49
702.586	66.27
702.91	66.25
703.234	66.16
703.557	66.22
703.881	66.1
704.205	66.16
704.529	66.16
704.852	66.32
705.176	66.38
705.499	66.39
705.823	66.52
706.146	66.57
706.47	66.83
706.793	67
707.117	67.13
707.44	67.26
707.763	67.06
708.086	67.02
708.409	66.95
708.733	66.99
709.056	66.89
709.379	66.81
709.702	66.87
710.025	66.88
710.348	66.74
710.671	66.74
710.993	66.68
711.316	66.71
711.639	66.53
711.962	66.64
712.284	66.75
712.607	66.89
712.93	66.9
713.252	66.72
713.575	66.77
713.897	66.56
714.22	66.75
714.542	66.82
714.864	66.85
715.187	66.76
715.509	66.88
715.831	66.91
716.153	67
716.475	66.96
716.798	67.06
717.12	67.26
717.442	67.24
717.764	67.17
718.085	67.03
718.407	67
718.729	66.88
719.051	66.93
719.373	66.66
719.695	66.56
720.016	66.72
720.338	66.6
720.659	66.61
720.981	66.42
721.302	66.51
721.624	66.59
721.945	66.73
722.267	66.62
722.588	66.62
722.909	66.77
723.231	66.62
723.552	66.4
723.873	66.45
724.194	66.49
724.515	66.53
724.836	66.34
725.157	66.45
725.478	66.54
725.799	66.36
726.12	66.7
726.441	66.75
726.762	66.62
727.083	66.79
727.403	66.9
727.724	66.81
728.045	67.05
728.365	66.95
728.686	67.18
729.006	67.07
729.327	66.99
729.647	66.73
729.967	66.76
730.288	66.86
730.608	66.88
730.928	66.76
731.249	66.65
731.569	66.89
731.889	66.74
732.209	66.55
732.529	66.75
732.849	66.6
733.169	66.53
733.489	66.68
733.809	66.75
734.129	66.98
734.448	66.85
734.768	66.59
735.088	66.56
735.408	66.21
735.727	66.37
736.047	66.39
736.366	66.5
736.686	66.96
737.005	67.12
737.325	67.06
737.644	67.11
737.963	67.14
738.283	66.98
738.602	67.25
738.921	67.3
739.24	66.83
739.56	66.74
739.879	66.77
740.198	66.65
740.517	66.68
740.836	66.47
741.155	66.71
741.473	66.64
741.792	66.64
742.111	66.83
742.43	66.59
742.748	66.52
743.067	66.54
743.386	66.1
743.704	66.01
744.023	66.04
744.341	65.87
744.66	66.2
744.978	66.23
745.297	66.23
745.615	66.35
745.933	66.44
746.252	66.41
746.57	66.5
746.888	66.85
747.206	66.45
747.524	66.49
747.842	66.33
748.16	66.64
748.478	66.93
748.796	66.74
749.114	66.61
749.432	66.9
749.749	66.91
750.067	67.1
750.385	66.84
750.703	66.73
751.02	66.73
751.338	66.24
751.655	66.16
751.973	65.85
752.29	65.75
752.608	66.06
752.925	66.3
753.242	66.34
753.56	66.22
753.877	66.29
754.194	66.1
754.511	66.24
754.828	65.93
755.145	65.41
755.462	65.69
755.779	65.9
756.096	65.72
756.413	65.91
756.73	65.99
757.047	66.01
757.364	65.93
757.68	66.36
757.997	66.95
758.314	67
758.63	66.94
758.947	66.99
759.264	67.02
759.58	67.11
759.896	67.18
760.213	67.32
760.529	67.18
760.846	67.34
761.162	67.5
761.478	67.94
761.794	68.23
762.11	68.06
762.426	67.79
762.743	67.84
763.059	67.66
763.375	67.45
763.69	67.57
764.006	67.78
764.322	67.61
764.638	67.37
764.954	67.73
765.27	67.93
765.585	67.99
765.901	67.81
766.216	67.63
766.532	67.42
766.848	67.28
767.163	67.36
767.478	67.13
767.794	67.02
768.109	66.85
768.424	66.7
768.74	66.56
769.055	66.79
769.37	66.97
769.685	66.95
770	67.05
770.315	67.1
770.63	67.26
770.945	67.41
771.26	67.31
771.575	66.97
771.89	66.97
772.205	66.87
772.52	66.9
772.834	66.84
773.149	67.05
773.464	66.87
773.778	66.63
774.093	66.99
774.407	66.92
774.722	66.89
775.036	67
775.351	67.28
775.665	67.45
775.979	67.27
776.293	67.58
776.608	67.79
776.922	67.69
777.236	67.01
777.55	66.75
777.864	66.93
778.178	66.85
778.492	66.64
778.806	67.13
779.12	67.23
779.434	67.29
779.747	67.32
780.061	67.65
780.375	68.15
780.689	68.59
781.002	68.25
781.316	68.1
781.629	68.26
781.943	67.85
782.256	67.65
782.57	67.42
782.883	67.38
783.196	67.3
783.51	67.79
783.823	68.59
784.136	68.45
784.449	68.77
784.762	68.79
785.075	68.91
785.388	68.35
785.701	68.26
786.014	68.61
786.327	68.62
786.64	68.05
786.953	67.83
787.266	67.25
787.578	67.87
787.891	67.79
788.204	67.42
788.516	67.94
788.829	68.47
789.141	68.72
789.454	68.68
789.766	68.38
790.079	67.66
790.391	67.29
790.703	67.62
791.016	67.68
791.328	67.54
791.64	67.76
791.952	67.88
792.264	68.23
792.576	67.97
792.888	68.03
793.2	68.28
793.512	68.41
793.824	68.28
794.136	68.03
794.448	68.43
794.76	69.25
795.071	69.04
795.383	68.9
795.695	68.58
796.006	67.9
796.318	67.95
796.629	68.61
796.941	68.53
797.252	68.62
797.564	68.49
797.875	68.32
798.186	67.74
798.497	68.03
798.809	67.29
799.12	67.13
799.431	67.29
799.742	67.27
800.053	67.28
800.364	67.36
800.675	67.54
800.986	67.47
801.297	66.57
801.608	66.77
801.918	67.09
802.229	67.44
802.54	68.08
802.851	68.33
803.161	67.69
803.472	67.68
803.782	68.04
804.093	67.32
804.403	68.06
804.714	68.8
805.024	68.26
805.334	68.94
805.645	68.75
805.955	68.63
806.265	68.55
806.575	68.86
806.885	68.96
807.195	68.58
807.505	68.12
807.815	68.57
808.125	68.3
808.435	67.65
808.745	67.15
809.055	66.88
809.365	66.74
809.674	67
809.984	67.39
810.294	67.07
810.603	67.44
810.913	66.75
811.222	66.5
811.532	66.64
811.841	66.45
812.151	66.32
812.46	65.93
812.769	66.09
813.079	66.03
813.388	65.85
813.697	65.92
814.006	66.23
814.315	66.44
814.624	66.39
814.933	66.11
815.242	66.45
815.551	67.19
815.86	66.93
816.169	66.91
816.478	67.4
816.786	67.74
817.095	67.88
817.404	68.59
817.712	67.62
818.021	67.88
818.33	67.89
818.638	68.57
818.947	68.4
819.255	68.59
819.563	68.4
819.872	68.65
820.18	68.89
820.488	68.61
820.796	68.65
821.105	68.35
821.413	68.83
821.721	68.78
822.029	68.64
822.337	68.75
822.645	68.75
822.953	68.7
823.26	68.18
823.568	68.32
823.876	68.34
824.184	68.59
824.491	68.44
824.799	68.38
825.107	68.53
825.414	68.55
825.722	68.58
826.029	68.61
826.337	68.69
826.644	68.69
826.951	68.83
827.259	68.89
827.566	69.14
827.873	68.84
828.18	68.73
828.488	68.55
828.795	68.4
829.102	68.46
829.409	68.09
829.716	68.57
830.023	68.37
830.329	68.28
830.636	68.12
830.943	67.97
831.25	68.4
831.557	68.21
831.863	68.26
832.17	67.92
832.476	67.31
832.783	66.96
833.089	66.67
833.396	66.44
833.702	66.34
834.009	66.31
834.315	66.28
834.621	66.54
834.928	66.72
835.234	67.14
835.54	67.33
835.846	67.89
836.152	67.79
836.458	68
836.764	68.03
837.07	68.38
837.376	69.51
837.682	69.4
837.988	69.01
838.293	68.91
838.599	69.18
838.905	69.86
839.211	70.79
839.516	70.93
839.822	71.65
840.127	71.44
840.433	71.09
840.738	70.96
841.044	71.44
841.349	72.34
841.654	72.06
841.959	71.28
842.265	70.62
842.57	70.5
842.875	70.08
843.18	69.72
843.485	69
843.79	68.01
844.095	68.14
844.4	68.74
844.705	68.73
845.01	68.2
845.315	68.45
845.619	68.12
845.924	68.01
846.229	67.17
846.533	67.39
846.838	67.49
847.142	68.06
847.447	67.6
847.751	66.1
848.056	65.62
848.36	66.03
848.664	65.22
848.969	65.67
849.273	66.93
849.577	67
849.881	67.81
850.185	68.52
850.489	67.49
850.794	66.75
851.097	66.93
851.401	66.23
851.705	67.14
852.009	66.63
852.313	66.81
852.617	64.59
852.92	65.46
853.224	68.28
853.528	66.6
853.831	67.52
854.135	67.34
854.438	68.02
854.742	66.54
855.045	67.8
855.349	67.22
855.652	65.47
855.955	63.45
856.259	63.05
856.562	60.91
856.865	60.82
857.168	60.52
857.471	60.26
857.774	62.73
858.077	63.16
858.38	61.91
858.683	60.89
858.986	64.05
859.289	63.33
859.592	61.35
859.894	62.2
860.197	61.59
860.5	62.72
860.802	63.51
861.105	62.71
861.407	62.06
861.71	62.83
862.012	63.24
862.315	66.28
862.617	69.35
862.919	71.21
863.222	71.81
863.524	72
863.826	71.35
864.128	67.55
864.43	65.28
864.732	64.25
865.034	66.66
865.336	65.25
865.638	65.31
865.94	65.62
866.242	67.59
866.544	65.63
866.846	66.59
867.147	63.25
867.449	65.29
867.751	63.34
868.052	62.42
868.354	61.18
868.655	61.35
868.957	61.02
869.258	61.16
869.56	61.19
869.861	61.23
870.162	60.87
870.463	61.66
870.765	60.5
871.066	64.22
871.367	62.54
871.668	63
871.969	61.31
872.27	61.03
872.571	60.41
872.872	60.64
873.173	58.4
873.473	58.47
873.774	58.03
874.075	63.13
874.376	62.62
874.676	65.32
874.977	62.11
875.277	58.1
875.578	55.66
875.878	54.74
876.179	54.55
876.479	56.23
876.78	58.07
877.08	60.32
877.38	56.28
877.68	55.84
877.981	55.75
878.281	55.98
878.581	55.63
