Data from BU57652_Reflection_00013.txt Node
Date: Tue Nov 19 10:43:28 EST 2019
User: vgr7
Spectrometer: USB2G7710
Scans to average: 3
Trigger mode: 4
Integration Time (sec): 2.000000E-2
Electric dark correction enabled: true
Boxcar width: 10
XAxis mode: Wavelengths
Number of Pixels in Spectrum: 2048
>>>>>Begin Spectral Data<<<<<
177.721	-151.11
178.105	-133.58
178.488	-190.82
178.871	-72.63
179.254	-241.94
179.636	-160.14
180.019	-90.56
180.402	87.5
180.785	113.11
181.168	98.31
181.55	-900
181.933	317.82
182.316	440.43
182.698	192.05
183.081	244.51
183.463	-73.65
183.846	-96.17
184.228	-305.94
184.611	-30.22
184.993	-7.77
185.376	-14.15
185.758	-10.29
186.14	-22.66
186.522	-8.5
186.904	9.14
187.287	-1.27
187.669	7.74
188.051	18.24
188.433	24.13
188.815	14.7
189.197	8.53
189.579	4.32
189.961	3.99
190.342	0.37
190.724	-7.95
191.106	12.38
191.488	31.25
191.869	32.9
192.251	36.69
192.633	38.68
193.014	39.54
193.396	34.37
193.777	31.53
194.159	37.83
194.54	35.84
194.922	30.01
195.303	41.59
195.684	38.04
196.065	50.15
196.447	57.56
196.828	69.89
197.209	65.98
197.59	72.13
197.971	58.18
198.352	59.17
198.733	63.06
199.114	31.13
199.495	37.04
199.876	29.02
200.257	39.99
200.638	39.41
201.018	42.63
201.399	55.57
201.78	74.72
202.16	92.54
202.541	106.54
202.922	83.88
203.302	74.13
203.683	65.15
204.063	34.99
204.444	30.94
204.824	34.3
205.204	37.42
205.585	52.12
205.965	53.31
206.345	62.59
206.725	61.56
207.106	104.49
207.486	71.35
207.866	94.66
208.246	98.69
208.626	91.99
209.006	107.35
209.386	153.35
209.766	145.99
210.145	167.21
210.525	150.89
210.905	316.7
211.285	217.72
211.664	162.19
212.044	187.83
212.424	149.73
212.803	124.88
213.183	115.97
213.562	71.36
213.942	70.13
214.321	74.41
214.701	63.39
215.08	29.14
215.459	28.09
215.838	18.7
216.218	7.57
216.597	15.83
216.976	11.17
217.355	14.45
217.734	4.73
218.113	12.17
218.492	5.71
218.871	-3.65
219.25	-6.89
219.629	-18.77
220.008	-3.14
220.387	-12.48
220.766	4.69
221.144	11.3
221.523	22.14
221.902	22.29
222.28	21.68
222.659	36.2
223.037	54.23
223.416	62.77
223.794	60.19
224.173	49.12
224.551	45.89
224.929	35.92
225.308	20.51
225.686	22.58
226.064	11.85
226.442	16.34
226.821	22.04
227.199	17
227.577	19.18
227.955	16.08
228.333	15.11
228.711	10.33
229.089	9.14
229.467	10.02
229.845	8.85
230.222	5.75
230.6	4.53
230.978	3.93
231.356	2.57
231.733	5.14
232.111	7.44
232.488	7.43
232.866	9.9
233.243	10.56
233.621	8.74
233.998	9.82
234.376	9.38
234.753	8.28
235.13	9.25
235.508	7.4
235.885	7.05
236.262	7.87
236.639	9.58
237.016	9.72
237.393	9.6
237.77	10.47
238.147	10.03
238.524	9.73
238.901	8.58
239.278	8.29
239.655	7.33
240.032	6.88
240.409	6.84
240.785	6.65
241.162	6.74
241.539	6.7
241.915	6.6
242.292	5.96
242.668	5.45
243.045	5.43
243.421	5.52
243.798	5.42
244.174	5.21
244.551	4.68
244.927	4.28
245.303	4.1
245.679	4.06
246.056	3.98
246.432	3.89
246.808	4
247.184	3.9
247.56	3.96
247.936	4.11
248.312	4.31
248.688	4.12
249.064	4.14
249.44	4.12
249.815	4.19
250.191	4.39
250.567	4.6
250.943	4.52
251.318	4.6
251.694	4.4
252.069	4.6
252.445	4.57
252.82	4.93
253.196	4.93
253.571	4.94
253.947	5.05
254.322	4.96
254.697	4.91
255.073	5.07
255.448	5.08
255.823	4.75
256.198	4.36
256.573	4.61
256.948	4.49
257.323	4.44
257.698	4.38
258.073	4.29
258.448	4.25
258.823	4.06
259.198	4.13
259.573	4.16
259.948	4.11
260.322	4.35
260.697	4.29
261.072	4.38
261.446	4.35
261.821	4.33
262.195	4.31
262.57	4.43
262.944	4.4
263.319	4.28
263.693	4.33
264.067	4.42
264.442	4.11
264.816	4
265.19	4.16
265.564	4.07
265.938	4
266.313	3.98
266.687	4.07
267.061	4.13
267.435	4.19
267.809	4.1
268.183	4.04
268.556	3.99
268.93	4.11
269.304	3.96
269.678	4.12
270.051	4.1
270.425	4.12
270.799	4.03
271.172	4.04
271.546	4.15
271.919	4.09
272.293	4.3
272.666	4.51
273.04	4.41
273.413	4.33
273.787	4.3
274.16	4.23
274.533	4.24
274.906	4.06
275.279	3.99
275.653	4.12
276.026	4.02
276.399	4.17
276.772	3.92
277.145	4.09
277.518	3.69
277.891	3.77
278.263	3.63
278.636	3.8
279.009	3.81
279.382	3.7
279.755	3.65
280.127	3.6
280.5	3.64
280.872	3.76
281.245	3.81
281.617	3.98
281.99	4
282.362	4.12
282.735	3.94
283.107	4.02
283.479	3.9
283.852	4.02
284.224	3.97
284.596	3.92
284.968	3.87
285.34	4.06
285.713	4.17
286.085	4.09
286.457	3.95
286.829	3.97
287.201	4.01
287.572	4.14
287.944	4.22
288.316	4.14
288.688	4.1
289.06	4.13
289.431	4.09
289.803	4.12
290.175	4.08
290.546	4.24
290.918	4.28
291.289	4.24
291.661	4.22
292.032	4.22
292.403	4.33
292.775	4.36
293.146	4.44
293.517	4.41
293.889	4.53
294.26	4.63
294.631	4.7
295.002	4.83
295.373	4.9
295.744	4.92
296.115	4.98
296.486	5.08
296.857	5.17
297.228	5.11
297.599	5.21
297.97	5.37
298.34	5.49
298.711	5.55
299.082	5.66
299.452	5.74
299.823	5.91
300.194	6.14
300.564	6.24
300.935	6.38
301.305	6.38
301.676	6.47
302.046	6.6
302.416	6.7
302.787	6.82
303.157	6.78
303.527	7.03
303.897	7.29
304.267	7.3
304.637	7.43
305.008	7.71
305.378	7.69
305.748	7.68
306.117	7.72
306.487	7.74
306.857	7.83
307.227	7.77
307.597	7.75
307.967	7.75
308.336	7.84
308.706	7.95
309.076	8.16
309.445	8.43
309.815	8.51
310.184	8.59
310.554	8.57
310.923	8.74
311.293	8.57
311.662	8.6
312.031	8.76
312.401	8.75
312.77	8.85
313.139	9.05
313.508	9.11
313.877	9.25
314.246	9.5
314.616	9.67
314.985	9.97
315.353	10.02
315.722	10.26
316.091	10.28
316.46	10.4
316.829	10.57
317.198	10.49
317.567	10.74
317.935	10.8
318.304	11.06
318.672	11.23
319.041	11.46
319.41	11.5
319.778	11.63
320.147	11.82
320.515	12.04
320.883	12.11
321.252	12.19
321.62	12.25
321.988	12.25
322.357	12.27
322.725	12.4
323.093	12.5
323.461	12.42
323.829	12.6
324.197	12.6
324.565	12.49
324.933	12.61
325.301	12.54
325.669	12.59
326.037	12.6
326.405	12.64
326.772	12.7
327.14	12.87
327.508	12.79
327.875	12.83
328.243	12.58
328.61	12.65
328.978	12.78
329.346	12.88
329.713	12.99
330.08	13.15
330.448	13
330.815	13.18
331.182	13.24
331.55	13.3
331.917	13.37
332.284	13.58
332.651	13.6
333.018	13.7
333.385	13.7
333.752	13.84
334.119	13.87
334.486	14.04
334.853	13.99
335.22	13.99
335.587	14.03
335.954	14.22
336.32	14.36
336.687	14.4
337.054	14.53
337.42	14.55
337.787	14.69
338.153	14.81
338.52	14.9
338.886	15.08
339.253	15.09
339.619	15.1
339.986	15.09
340.352	15.17
340.718	15.08
341.084	15.25
341.451	15.2
341.817	15.15
342.183	15.07
342.549	15.1
342.915	15.15
343.281	15.25
343.647	15.2
344.013	15.18
344.379	15.18
344.745	15.11
345.11	15.13
345.476	15.07
345.842	15.05
346.208	15.07
346.573	14.93
346.939	15
347.304	14.98
347.67	14.88
348.035	14.8
348.401	14.88
348.766	14.89
349.132	14.91
349.497	14.98
349.862	15
350.228	14.95
350.593	15.05
350.958	15.14
351.323	15.16
351.688	15.05
352.053	15.03
352.418	14.97
352.783	15.03
353.148	15.04
353.513	15.14
353.878	15.06
354.243	15.05
354.608	15.04
354.972	15.06
355.337	15.06
355.702	15.1
356.066	15.11
356.431	15.09
356.795	15.08
357.16	15.11
357.524	15.04
357.889	15.04
358.253	14.98
358.618	14.86
358.982	14.8
359.346	14.83
359.71	14.84
360.075	14.84
360.439	14.71
360.803	14.67
361.167	14.56
361.531	14.56
361.895	14.55
362.259	14.48
362.623	14.43
362.987	14.47
363.351	14.39
363.714	14.31
364.078	14.2
364.442	14.14
364.806	14.05
365.169	14.02
365.533	13.9
365.896	13.84
366.26	13.76
366.623	13.69
366.987	13.58
367.35	13.48
367.714	13.37
368.077	13.24
368.44	13.11
368.803	12.95
369.167	12.79
369.53	12.7
369.893	12.58
370.256	12.48
370.619	12.23
370.982	12.14
371.345	12.07
371.708	11.96
372.071	11.78
372.434	11.63
372.797	11.51
373.159	11.48
373.522	11.35
373.885	11.18
374.247	11.09
374.61	10.95
374.973	10.86
375.335	10.72
375.698	10.65
376.06	10.58
376.423	10.51
376.785	10.45
377.147	10.3
377.51	10.22
377.872	10.09
378.234	10.13
378.596	10.09
378.958	10.01
379.321	9.95
379.683	9.92
380.045	9.85
380.407	9.76
380.769	9.64
381.13	9.55
381.492	9.52
381.854	9.43
382.216	9.39
382.578	9.29
382.939	9.24
383.301	9.14
383.663	9.05
384.024	9
384.386	8.92
384.747	8.83
385.109	8.72
385.47	8.69
385.832	8.55
386.193	8.4
386.554	8.3
386.916	8.25
387.277	8.12
387.638	8.04
387.999	7.96
388.36	7.92
388.721	7.88
389.082	7.81
389.443	7.78
389.804	7.75
390.165	7.66
390.526	7.57
390.887	7.52
391.248	7.43
391.609	7.35
391.969	7.3
392.33	7.26
392.691	7.22
393.051	7.11
393.412	7.06
393.772	7
394.133	6.94
394.493	6.81
394.854	6.79
395.214	6.74
395.574	6.67
395.935	6.58
396.295	6.47
396.655	6.44
397.015	6.34
397.376	6.23
397.736	6.16
398.096	6.12
398.456	6.05
398.816	5.99
399.176	5.9
399.535	5.8
399.895	5.78
400.255	5.68
400.615	5.64
400.975	5.61
401.334	5.59
401.694	5.54
402.054	5.52
402.413	5.45
402.773	5.4
403.132	5.35
403.492	5.32
403.851	5.3
404.211	5.25
404.57	5.22
404.929	5.16
405.288	5.17
405.648	5.09
406.007	5.05
406.366	5.04
406.725	5.07
407.084	5.04
407.443	5.02
407.802	5.01
408.161	4.99
408.52	4.98
408.879	4.96
409.238	4.94
409.596	4.96
409.955	4.93
410.314	4.91
410.673	4.9
411.031	4.86
411.39	4.85
411.748	4.79
412.107	4.78
412.465	4.82
412.824	4.76
413.182	4.75
413.54	4.72
413.899	4.67
414.257	4.62
414.615	4.6
414.974	4.55
415.332	4.53
415.69	4.48
416.048	4.41
416.406	4.36
416.764	4.32
417.122	4.26
417.48	4.22
417.838	4.18
418.195	4.14
418.553	4.13
418.911	4.07
419.269	4.04
419.626	4.03
419.984	4
420.342	3.99
420.699	3.98
421.057	3.96
421.414	3.95
421.772	3.92
422.129	3.91
422.486	3.9
422.844	3.88
423.201	3.87
423.558	3.88
423.915	3.87
424.273	3.86
424.63	3.85
424.987	3.84
425.344	3.85
425.701	3.85
426.058	3.83
426.415	3.85
426.772	3.83
427.128	3.81
427.485	3.78
427.842	3.75
428.199	3.73
428.555	3.72
428.912	3.7
429.269	3.67
429.625	3.64
429.982	3.62
430.338	3.62
430.695	3.61
431.051	3.58
431.407	3.57
431.764	3.56
432.12	3.57
432.476	3.57
432.832	3.56
433.189	3.54
433.545	3.54
433.901	3.53
434.257	3.55
434.613	3.53
434.969	3.56
435.325	3.57
435.681	3.55
436.036	3.56
436.392	3.56
436.748	3.57
437.104	3.58
437.459	3.56
437.815	3.56
438.171	3.56
438.526	3.56
438.882	3.55
439.237	3.54
439.593	3.51
439.948	3.51
440.304	3.49
440.659	3.5
441.014	3.5
441.369	3.5
441.725	3.5
442.08	3.5
442.435	3.5
442.79	3.48
443.145	3.5
443.5	3.48
443.855	3.48
444.21	3.47
444.565	3.46
444.92	3.47
445.275	3.45
445.629	3.43
445.984	3.44
446.339	3.43
446.693	3.43
447.048	3.42
447.403	3.43
447.757	3.41
448.112	3.41
448.466	3.4
448.82	3.39
449.175	3.38
449.529	3.38
449.883	3.36
450.238	3.36
450.592	3.34
450.946	3.33
451.3	3.34
451.654	3.32
452.008	3.32
452.362	3.3
452.716	3.29
453.07	3.3
453.424	3.29
453.778	3.27
454.132	3.23
454.486	3.26
454.839	3.24
455.193	3.24
455.547	3.24
455.9	3.24
456.254	3.24
456.607	3.23
456.961	3.23
457.314	3.22
457.668	3.19
458.021	3.19
458.375	3.18
458.728	3.16
459.081	3.17
459.434	3.16
459.787	3.17
460.141	3.19
460.494	3.19
460.847	3.19
461.2	3.2
461.553	3.22
461.906	3.23
462.259	3.23
462.611	3.25
462.964	3.25
463.317	3.25
463.67	3.25
464.022	3.25
464.375	3.25
464.728	3.27
465.08	3.28
465.433	3.31
465.785	3.34
466.138	3.36
466.49	3.37
466.843	3.39
467.195	3.41
467.547	3.41
467.899	3.41
468.252	3.43
468.604	3.45
468.956	3.48
469.308	3.48
469.66	3.5
470.012	3.5
470.364	3.53
470.716	3.55
471.068	3.56
471.42	3.59
471.772	3.62
472.123	3.61
472.475	3.65
472.827	3.66
473.178	3.65
473.53	3.68
473.882	3.68
474.233	3.71
474.585	3.7
474.936	3.71
475.288	3.73
475.639	3.74
475.99	3.72
476.342	3.7
476.693	3.69
477.044	3.69
477.395	3.68
477.746	3.65
478.097	3.67
478.448	3.65
478.8	3.63
479.15	3.62
479.501	3.61
479.852	3.6
480.203	3.59
480.554	3.59
480.905	3.58
481.255	3.58
481.606	3.57
481.957	3.57
482.307	3.56
482.658	3.56
483.009	3.55
483.359	3.56
483.709	3.57
484.06	3.57
484.41	3.56
484.761	3.57
485.111	3.57
485.461	3.56
485.811	3.56
486.162	3.57
486.512	3.56
486.862	3.56
487.212	3.55
487.562	3.53
487.912	3.53
488.262	3.52
488.612	3.53
488.961	3.53
489.311	3.54
489.661	3.53
490.011	3.52
490.36	3.51
490.71	3.52
491.06	3.51
491.409	3.51
491.759	3.52
492.108	3.51
492.458	3.52
492.807	3.53
493.157	3.54
493.506	3.55
493.855	3.56
494.204	3.58
494.554	3.62
494.903	3.64
495.252	3.65
495.601	3.68
495.95	3.69
496.299	3.73
496.648	3.76
496.997	3.81
497.346	3.85
497.695	3.9
498.043	3.94
498.392	3.99
498.741	4.02
499.09	4.06
499.438	4.11
499.787	4.15
500.135	4.2
500.484	4.26
500.832	4.31
501.181	4.37
501.529	4.43
501.878	4.48
502.226	4.57
502.574	4.66
502.923	4.74
503.271	4.82
503.619	4.88
503.967	4.95
504.315	5.04
504.663	5.13
505.011	5.21
505.359	5.28
505.707	5.38
506.055	5.48
506.403	5.55
506.751	5.64
507.098	5.75
507.446	5.85
507.794	5.95
508.141	6.04
508.489	6.15
508.837	6.25
509.184	6.35
509.531	6.44
509.879	6.53
510.226	6.65
510.574	6.75
510.921	6.86
511.268	6.97
511.616	7.07
511.963	7.18
512.31	7.32
512.657	7.45
513.004	7.58
513.351	7.74
513.698	7.88
514.045	8.03
514.392	8.21
514.739	8.39
515.086	8.57
515.432	8.76
515.779	8.95
516.126	9.13
516.473	9.3
516.819	9.48
517.166	9.64
517.512	9.77
517.859	9.92
518.205	10.07
518.552	10.22
518.898	10.36
519.245	10.52
519.591	10.66
519.937	10.79
520.283	10.98
520.629	11.12
520.976	11.31
521.322	11.5
521.668	11.65
522.014	11.85
522.36	12.05
522.706	12.22
523.052	12.45
523.398	12.67
523.743	12.9
524.089	13.13
524.435	13.34
524.781	13.55
525.126	13.75
525.472	13.94
525.817	14.1
526.163	14.28
526.509	14.41
526.854	14.56
527.199	14.7
527.545	14.81
527.89	14.93
528.235	15.06
528.581	15.18
528.926	15.32
529.271	15.43
529.616	15.56
529.961	15.69
530.306	15.82
530.651	15.96
530.996	16.11
531.341	16.26
531.686	16.41
532.031	16.57
532.376	16.74
532.721	16.91
533.065	17.09
533.41	17.24
533.755	17.44
534.099	17.6
534.444	17.79
534.788	17.96
535.133	18.17
535.477	18.36
535.822	18.55
536.166	18.75
536.51	18.97
536.855	19.18
537.199	19.42
537.543	19.68
537.887	19.88
538.231	20.13
538.576	20.36
538.92	20.61
539.264	20.84
539.608	21.05
539.951	21.24
540.295	21.45
540.639	21.67
540.983	21.84
541.327	22.04
541.671	22.22
542.014	22.43
542.358	22.61
542.701	22.8
543.045	23
543.389	23.18
543.732	23.38
544.075	23.58
544.419	23.76
544.762	23.96
545.105	24.19
545.449	24.42
545.792	24.64
546.135	24.87
546.478	25.16
546.821	25.42
547.165	25.74
547.508	26.02
547.851	26.3
548.194	26.61
548.536	26.89
548.879	27.17
549.222	27.51
549.565	27.81
549.908	28.11
550.25	28.46
550.593	28.75
550.936	29.08
551.278	29.43
551.621	29.81
551.963	30.14
552.306	30.52
552.648	30.85
552.991	31.19
553.333	31.52
553.675	31.83
554.017	32.13
554.36	32.38
554.702	32.63
555.044	32.94
555.386	33.25
555.728	33.57
556.07	33.88
556.412	34.16
556.754	34.45
557.096	34.75
557.438	35.07
557.78	35.46
558.121	35.79
558.463	36.05
558.805	36.4
559.147	36.71
559.488	36.95
559.83	37.23
560.171	37.53
560.513	37.83
560.854	38.11
561.196	38.47
561.537	38.82
561.878	39.17
562.22	39.51
562.561	39.8
562.902	40.11
563.243	40.45
563.584	40.72
563.925	40.94
564.266	41.24
564.607	41.45
564.948	41.66
565.289	41.9
565.63	42.19
565.971	42.38
566.312	42.65
566.653	42.94
566.993	43.19
567.334	43.42
567.675	43.69
568.015	43.91
568.356	44.17
568.696	44.4
569.037	44.67
569.377	44.84
569.718	45.12
570.058	45.35
570.398	45.62
570.739	45.86
571.079	46.17
571.419	46.39
571.759	46.64
572.099	46.89
572.439	47.09
572.779	47.31
573.119	47.53
573.459	47.7
573.799	47.91
574.139	48.12
574.479	48.32
574.819	48.5
575.158	48.69
575.498	48.83
575.838	49.05
576.177	49.18
576.517	49.42
576.856	49.61
577.196	49.81
577.535	49.94
577.875	50.13
578.214	50.31
578.553	50.51
578.893	50.65
579.232	50.83
579.571	51.09
579.91	51.33
580.25	51.59
580.589	51.86
580.928	52.07
581.267	52.2
581.606	52.43
581.945	52.64
582.283	52.86
582.622	53.11
582.961	53.23
583.3	53.46
583.639	53.62
583.977	53.8
584.316	53.93
584.654	54.1
584.993	54.23
585.332	54.4
585.67	54.56
586.008	54.77
586.347	54.93
586.685	55.08
587.024	55.09
587.362	55.19
587.7	55.33
588.038	55.42
588.376	55.63
588.715	55.77
589.053	55.88
589.391	55.99
589.729	56.12
590.067	56.27
590.404	56.4
590.742	56.54
591.08	56.66
591.418	56.82
591.756	56.93
592.093	57.1
592.431	57.17
592.769	57.19
593.106	57.36
593.444	57.43
593.781	57.54
594.119	57.77
594.456	57.8
594.793	57.8
595.131	57.96
595.468	58.01
595.805	57.99
596.143	58.08
596.48	58.22
596.817	58.29
597.154	58.34
597.491	58.34
597.828	58.39
598.165	58.42
598.502	58.48
598.839	58.64
599.176	58.73
599.512	58.87
599.849	59.1
600.186	59.2
600.523	59.28
600.859	59.33
601.196	59.4
601.532	59.51
601.869	59.64
602.205	59.63
602.542	59.79
602.878	59.96
603.215	60.09
603.551	60.09
603.887	60.18
604.223	60.23
604.56	60.4
604.896	60.49
605.232	60.55
605.568	60.66
605.904	60.65
606.24	60.65
606.576	60.68
606.912	60.66
607.248	60.69
607.583	60.77
607.919	60.83
608.255	60.86
608.591	60.89
608.926	60.89
609.262	61.01
609.597	60.95
609.933	60.95
610.268	60.96
610.604	60.95
610.939	60.96
611.275	61.01
611.61	60.98
611.945	60.94
612.281	61
612.616	61
612.951	61.17
613.286	61.25
613.621	61.34
613.956	61.35
614.291	61.33
614.626	61.34
614.961	61.37
615.296	61.42
615.631	61.56
615.966	61.69
616.3	61.64
616.635	61.78
616.97	61.87
617.304	61.94
617.639	62.13
617.973	62.17
618.308	62.22
618.642	62.26
618.977	62.36
619.311	62.43
619.646	62.54
619.98	62.53
620.314	62.53
620.648	62.51
620.983	62.64
621.317	62.78
621.651	62.94
621.985	62.99
622.319	62.94
622.653	62.96
622.987	62.96
623.321	62.99
623.655	62.94
623.988	62.9
624.322	62.91
624.656	62.9
624.99	62.86
625.323	62.94
625.657	62.99
625.99	63.07
626.324	63.05
626.657	63.09
626.991	63.06
627.324	63.12
627.658	63.19
627.991	63.22
628.324	63.11
628.657	63.08
628.991	63.05
629.324	63.19
629.657	63.16
629.99	63.23
630.323	63.25
630.656	63.25
630.989	63.33
631.322	63.38
631.655	63.4
631.987	63.48
632.32	63.39
632.653	63.41
632.986	63.35
633.318	63.38
633.651	63.23
633.984	63.24
634.316	63.22
634.649	63.25
634.981	63.29
635.313	63.41
635.646	63.44
635.978	63.51
636.31	63.46
636.643	63.4
636.975	63.28
637.307	63.35
637.639	63.51
637.971	63.38
638.303	63.35
638.635	63.43
638.967	63.51
639.299	63.47
639.631	63.48
639.963	63.51
640.295	63.52
640.626	63.52
640.958	63.64
641.29	63.67
641.621	63.59
641.953	63.45
642.285	63.42
642.616	63.33
642.948	63.32
643.279	63.36
643.61	63.46
643.942	63.55
644.273	63.57
644.604	63.52
644.936	63.61
645.267	63.53
645.598	63.47
645.929	63.38
646.26	63.5
646.591	63.52
646.922	63.6
647.253	63.66
647.584	63.77
647.915	63.7
648.245	63.7
648.576	63.87
648.907	63.93
649.238	63.95
649.568	64.05
649.899	64.03
650.229	64.15
650.56	64.21
650.89	64.25
651.221	64.3
651.551	64.23
651.882	64.33
652.212	64.51
652.542	64.4
652.872	64.47
653.203	64.44
653.533	64.36
653.863	64.38
654.193	64.33
654.523	64.33
654.853	64.29
655.183	64.36
655.513	64.36
655.843	64.39
656.172	64.36
656.502	64.38
656.832	64.42
657.162	64.21
657.491	64.21
657.821	64.09
658.15	64.14
658.48	64.27
658.809	64.27
659.139	64.18
659.468	64.25
659.798	64.21
660.127	64.34
660.456	64.35
660.785	64.29
661.115	64.31
661.444	64.41
661.773	64.52
662.102	64.57
662.431	64.46
662.76	64.43
663.089	64.56
663.418	64.54
663.747	64.59
664.076	64.73
664.404	64.79
664.733	64.88
665.062	64.91
665.39	64.79
665.719	64.9
666.048	64.98
666.376	65
666.705	65.24
667.033	64.98
667.362	65.01
667.69	65.02
668.018	65.11
668.347	64.99
668.675	64.92
669.003	64.81
669.331	64.86
669.659	64.9
669.987	64.75
670.315	64.76
670.643	64.75
670.971	64.74
671.299	64.73
671.627	64.88
671.955	64.84
672.283	64.79
672.61	64.76
672.938	64.63
673.266	64.68
673.593	64.53
673.921	64.67
674.249	64.68
674.576	64.68
674.904	64.55
675.231	64.49
675.558	64.66
675.886	64.61
676.213	64.78
676.54	64.69
676.867	64.88
677.195	64.81
677.522	64.71
677.849	64.69
678.176	64.42
678.503	64.5
678.83	64.41
679.157	64.5
679.484	64.56
679.81	64.65
680.137	64.61
680.464	64.6
680.791	64.64
681.117	64.81
681.444	64.83
681.771	64.9
682.097	64.95
682.424	64.86
682.75	64.91
683.077	64.76
683.403	64.9
683.729	64.74
684.056	64.78
684.382	64.85
684.708	64.92
685.034	65
685.36	64.82
685.686	64.83
686.012	64.71
686.339	64.59
686.664	64.66
686.99	64.73
687.316	64.62
687.642	64.53
687.968	64.39
688.294	64.26
688.619	64.12
688.945	64.27
689.271	64.26
689.596	64.22
689.922	64.22
690.247	64.12
690.573	64.2
690.898	64.23
691.224	64.27
691.549	64.2
691.874	64.31
692.2	64.4
692.525	64.36
692.85	64.59
693.175	64.58
693.5	64.52
693.825	64.47
694.15	64.55
694.475	64.72
694.8	64.54
695.125	64.56
695.45	64.63
695.775	64.6
696.099	64.64
696.424	64.66
696.749	64.67
697.073	64.72
697.398	64.8
697.723	64.73
698.047	64.74
698.372	64.82
698.696	64.89
699.02	64.8
699.345	64.97
699.669	64.86
699.993	65
700.318	64.92
700.642	64.83
700.966	64.96
701.29	64.92
701.614	65.11
701.938	65.17
702.262	65.31
702.586	65.14
702.91	65.1
703.234	65.07
703.557	65.13
703.881	65.31
704.205	65.1
704.529	65.23
704.852	65.31
705.176	65.31
705.499	65.27
705.823	65.56
706.146	65.41
706.47	65.44
706.793	65.28
707.117	65.33
707.44	65.65
707.763	65.67
708.086	65.73
708.409	65.77
708.733	65.81
709.056	65.72
709.379	65.86
709.702	65.95
710.025	66.12
710.348	66.13
710.671	65.96
710.993	65.97
711.316	65.88
711.639	65.8
711.962	65.61
712.284	65.69
712.607	65.76
712.93	65.65
713.252	65.85
713.575	65.95
713.897	65.85
714.22	65.78
714.542	65.78
714.864	65.71
715.187	65.73
715.509	65.93
715.831	66
716.153	66.06
716.475	65.93
716.798	65.9
717.12	65.77
717.442	65.74
717.764	65.88
718.085	66
718.407	65.92
718.729	65.94
719.051	66.06
719.373	65.76
719.695	65.85
720.016	65.82
720.338	65.68
720.659	65.7
720.981	65.5
721.302	65.51
721.624	65.65
721.945	65.58
722.267	65.61
722.588	65.53
722.909	65.78
723.231	65.82
723.552	65.88
723.873	65.98
724.194	66.05
724.515	66.12
724.836	66.11
725.157	66.28
725.478	66.21
725.799	66.06
726.12	66.16
726.441	66.29
726.762	66.1
727.083	66.06
727.403	66.58
727.724	66.59
728.045	66.41
728.365	66.19
728.686	66.27
729.006	65.97
729.327	65.99
729.647	65.73
729.967	65.81
730.288	65.91
730.608	65.78
730.928	65.82
731.249	66
731.569	65.86
731.889	65.75
732.209	65.81
732.529	65.77
732.849	65.56
733.169	65.51
733.489	65.56
733.809	65.64
734.129	65.3
734.448	65.31
734.768	65.36
735.088	65.49
735.408	65.5
735.727	65.75
736.047	65.94
736.366	65.9
736.686	65.73
737.005	65.52
737.325	65.72
737.644	65.76
737.963	65.45
738.283	65.47
738.602	65.68
738.921	65.81
739.24	65.98
739.56	66.31
739.879	66.27
740.198	66.26
740.517	66.26
740.836	66.16
741.155	66.21
741.473	65.99
741.792	65.93
742.111	65.78
742.43	65.6
742.748	65.64
743.067	65.76
743.386	66.04
743.704	65.95
744.023	65.77
744.341	65.71
744.66	65.77
744.978	66.12
745.297	65.94
745.615	65.98
745.933	65.82
746.252	65.92
746.57	65.87
746.888	65.58
747.206	65.49
747.524	65.37
747.842	65.26
748.16	65.56
748.478	65.5
748.796	66.11
749.114	66.41
749.432	66.31
749.749	66.06
750.067	65.73
750.385	65.94
750.703	65.96
751.02	65.7
751.338	65.31
751.655	64.96
751.973	65.14
752.29	64.98
752.608	65.36
752.925	65.14
753.242	65.36
753.56	66.08
753.877	66.25
754.194	66.45
754.511	66.76
754.828	66.88
755.145	67
755.462	65.96
755.779	65.86
756.096	65.87
756.413	65.96
756.73	66.23
757.047	65.81
757.364	65.79
757.68	65.95
757.997	66.31
758.314	66.18
758.63	66.03
758.947	66.07
759.264	65.88
759.58	65.94
759.896	65.77
760.213	65.38
760.529	65.34
760.846	65.41
761.162	65.32
761.478	65.25
761.794	65.44
762.11	65.94
762.426	65.69
762.743	65.64
763.059	65.63
763.375	65.5
763.69	65.78
764.006	65.76
764.322	65.7
764.638	65.83
764.954	65.95
765.27	66.21
765.585	66.54
765.901	66.48
766.216	66.41
766.532	66.57
766.848	66.67
767.163	66.97
767.478	67.12
767.794	67.37
768.109	67.07
768.424	66.89
768.74	66.89
769.055	67.23
769.37	67.48
769.685	67.79
770	67.68
770.315	67.48
770.63	67.72
770.945	68.08
771.26	68.17
771.575	68.59
771.89	68.24
772.205	68.09
772.52	68
772.834	68.57
773.149	68.56
773.464	68.56
773.778	67.86
774.093	67.65
774.407	67.1
774.722	67.44
775.036	67.76
775.351	67.34
775.665	67.76
775.979	67.57
776.293	67.59
776.608	67.91
776.922	68.08
777.236	68.14
777.55	67.65
777.864	67.51
778.178	66.78
778.492	66.62
778.806	66.34
779.12	66.51
779.434	65.99
779.747	66.09
780.061	65.89
780.375	65.96
780.689	65.88
781.002	66.33
781.316	66.52
781.629	66.34
781.943	66.72
782.256	66.16
782.57	66.05
782.883	65.9
783.196	66.06
783.51	66.21
783.823	65.87
784.136	66.14
784.449	66.33
784.762	67.09
785.075	67.45
785.388	67.6
785.701	67.53
786.014	66.68
786.327	66.61
786.64	66.78
786.953	66.64
787.266	66.65
787.578	66.66
787.891	66.82
788.204	66.34
788.516	66.33
788.829	65.92
789.141	65.59
789.454	65.89
789.766	65.32
790.079	65.33
790.391	65.91
790.703	66.31
791.016	66.42
791.328	65.98
791.64	65.69
791.952	65.83
792.264	65.94
792.576	66.68
792.888	66.29
793.2	66.04
793.512	66.53
793.824	66.5
794.136	66.07
794.448	66.27
794.76	66.76
795.071	67.13
795.383	67.68
795.695	68.38
796.006	67.45
796.318	67.52
796.629	67.58
796.941	67.14
797.252	66.79
797.564	66.28
797.875	66.57
798.186	66.9
798.497	66.94
798.809	66.94
799.12	66.66
799.431	66.95
799.742	66.89
800.053	66.49
800.364	66.48
800.675	66.53
800.986	65.85
801.297	65.98
801.608	65.62
801.918	65.65
802.229	64.96
802.54	65.9
802.851	66
803.161	65.92
803.472	66.65
803.782	66.34
804.093	66.33
804.403	66.1
804.714	66.38
805.024	66.06
805.334	65.37
805.645	65.87
805.955	65.99
806.265	66.31
806.575	66.84
806.885	67.08
807.195	67.57
807.505	67.59
807.815	67.47
808.125	67.45
808.435	67.15
808.745	67.44
809.055	67.73
809.365	67.49
809.674	67.93
809.984	67.14
810.294	67.59
810.603	67.39
810.913	67.77
811.222	67.53
811.532	67.79
811.841	68.61
812.151	68.67
812.46	68.73
812.769	69.2
813.079	69.29
813.388	69.58
813.697	68.88
814.006	68.7
814.315	68.51
814.624	68.62
814.933	68.85
815.242	69.47
815.551	68.22
815.86	69.13
816.169	68.44
816.478	68.93
816.786	68.46
817.095	68.53
817.404	67.69
817.712	67.79
818.021	67.25
818.33	66.69
818.638	66.61
818.947	66.53
819.255	66.6
819.563	66.53
819.872	66.32
820.18	66.64
820.488	66.72
820.796	66.58
821.105	66.55
821.413	66.7
821.721	66.19
822.029	66.39
822.337	66.28
822.645	66.41
822.953	66.43
823.26	66.58
823.568	66.54
823.876	66.58
824.184	66.48
824.491	66.54
824.799	66.71
825.107	66.68
825.414	66.8
825.722	66.47
826.029	66.32
826.337	66.46
826.644	66.67
826.951	66.81
827.259	66.88
827.566	66.81
827.873	66.48
828.18	66.77
828.488	66.9
828.795	66.85
829.102	66.78
829.409	66.91
829.716	66.53
830.023	66.8
830.329	66.84
830.636	67.19
830.943	67.06
831.25	66.84
831.557	66.94
831.863	66.48
832.17	66.88
832.476	67.5
832.783	67.03
833.089	66
833.396	65.9
833.702	66
834.009	65.83
834.315	66.62
834.621	67.46
834.928	67.1
835.234	67.42
835.54	67.58
835.846	66.88
836.152	66.93
836.458	66.94
836.764	67.73
837.07	66.92
837.376	66.68
837.682	66.45
837.988	66.73
838.293	66.78
838.599	67.27
838.905	66.9
839.211	67.03
839.516	67.56
839.822	67.39
840.127	67.14
840.433	67.9
840.738	66.52
841.044	64.83
841.349	65.78
841.654	64.82
841.959	63.88
842.265	64.42
842.57	64.09
842.875	63.75
843.18	62
843.485	62.59
843.79	64.09
844.095	65.36
844.4	64.57
844.705	65.18
845.01	63.95
845.315	63.17
845.619	64.07
845.924	64.7
846.229	64.79
846.533	64.46
846.838	64.24
847.142	64.91
847.447	64.63
847.751	62.64
848.056	63.87
848.36	65.75
848.664	65.91
848.969	66.55
849.273	65.14
849.577	65.3
849.881	65.36
850.185	64.51
850.489	63.33
850.794	63.16
851.097	62.69
851.401	63.14
851.705	63.93
852.009	62.79
852.313	61.03
852.617	59.5
852.92	61.09
853.224	61.56
853.528	63.19
853.831	64.47
854.135	64.48
854.438	63.62
854.742	63.94
855.045	63.1
855.349	64.39
855.652	64.81
855.955	64.54
856.259	65.36
856.562	66.19
856.865	65.95
857.168	65.24
857.471	66.25
857.774	69
858.077	67.25
858.38	69.02
858.683	72.06
858.986	74.96
859.289	72.72
859.592	73.33
859.894	71.78
860.197	71.16
860.5	73.07
860.802	74.68
861.105	72.84
861.407	71.68
861.71	72.88
862.012	74.73
862.315	74.93
862.617	74.94
862.919	74.35
863.222	75.24
863.524	77.12
863.826	76.43
864.128	74.2
864.43	74.46
864.732	75.94
865.034	72.95
865.336	69.8
865.638	71.49
865.94	69.49
866.242	69.3
866.544	69.38
866.846	69.26
867.147	67.8
867.449	67.28
867.751	67.97
868.052	66.4
868.354	66.26
868.655	65.51
868.957	64.99
869.258	64.17
869.56	63.9
869.861	63.25
870.162	63.27
870.463	62.75
870.765	63.43
871.066	61.54
871.367	61.6
871.668	64.11
871.969	64.11
872.27	66.14
872.571	68.1
872.872	66.55
873.173	65.95
873.473	66.43
873.774	67.64
874.075	70.12
874.376	70.81
874.676	71.8
874.977	74.22
875.277	72.34
875.578	73.4
875.878	73.79
876.179	73.9
876.479	73.07
876.78	72.58
877.08	73.87
877.38	72.62
877.68	74.45
877.981	73.53
878.281	74.1
878.581	72.5
