Data from BU57653_Reflection_00013.txt Node
Date: Mon Nov 18 16:52:24 EST 2019
User: vgr7
Spectrometer: USB2G7710
Scans to average: 3
Trigger mode: 4
Integration Time (sec): 2.000000E-2
Electric dark correction enabled: true
Boxcar width: 10
XAxis mode: Wavelengths
Number of Pixels in Spectrum: 2048
>>>>>Begin Spectral Data<<<<<
177.721	181.79
178.105	249.73
178.488	145.74
178.871	42.45
179.254	35.3
179.636	110.19
180.019	82.59
180.402	86.67
180.785	-41.97
181.168	-90.72
181.55	-61.07
181.933	91.19
182.316	127.8
182.698	102.78
183.081	99.35
183.463	438.4
183.846	172.64
184.228	107.26
184.611	88.98
184.993	76.59
185.376	-317.32
185.758	-427.95
186.14	-210.92
186.522	50.76
186.904	-26.93
187.287	-123.01
187.669	-35.14
188.051	-80.98
188.433	-85.74
188.815	-54.7
189.197	-79.32
189.579	-59.41
189.961	-22.03
190.342	-13.06
190.724	-0.03
191.106	-6.74
191.488	-12.71
191.869	-19.32
192.251	-21.26
192.633	-35.14
193.014	-33.93
193.396	-32.85
193.777	-24.89
194.159	-25.32
194.54	-10.97
194.922	3.9
195.303	42.07
195.684	50.36
196.065	36.14
196.447	26.13
196.828	28.89
197.209	34.79
197.59	41
197.971	56.11
198.352	76.99
198.733	85.68
199.114	89.02
199.495	93.69
199.876	75.14
200.257	76.14
200.638	103.75
201.018	96.42
201.399	103.09
201.78	87.97
202.16	113.07
202.541	94.62
202.922	117.81
203.302	78.25
203.683	64.95
204.063	28.5
204.444	40.47
204.824	26.85
205.204	21.67
205.585	55.54
205.965	20.4
206.345	-4.52
206.725	-49.74
207.106	-852.66
207.486	-5872.97
207.866	200.42
208.246	643.73
208.626	-817.01
209.006	-121.72
209.386	-95.22
209.766	-134.52
210.145	-50.88
210.525	-40.4
210.905	-13.77
211.285	-7.08
211.664	-13.84
212.044	36.41
212.424	34.14
212.803	54.03
213.183	63.84
213.562	55.97
213.942	64.11
214.321	58.09
214.701	59.65
215.08	64.02
215.459	96.02
215.838	89.71
216.218	112.9
216.597	108
216.976	94.57
217.355	95.73
217.734	109.34
218.113	114.19
218.492	135.87
218.871	151.35
219.25	147.75
219.629	125.96
220.008	109.83
220.387	87.22
220.766	82.06
221.144	78.79
221.523	58.6
221.902	64.47
222.28	66.92
222.659	52.08
223.037	53.98
223.416	32.95
223.794	24.73
224.173	25.74
224.551	34.06
224.929	26.06
225.308	27.4
225.686	20.86
226.064	17.38
226.442	12.79
226.821	17.69
227.199	13.76
227.577	10.46
227.955	10.01
228.333	11.13
228.711	11.75
229.089	16.6
229.467	15.97
229.845	11.5
230.222	10.78
230.6	11.81
230.978	10.04
231.356	13.43
231.733	15.09
232.111	13.32
232.488	11.81
232.866	12.76
233.243	12
233.621	11.5
233.998	12.72
234.376	11.66
234.753	11.67
235.13	12.96
235.508	13.93
235.885	13.2
236.262	12.32
236.639	10.66
237.016	8.26
237.393	7.96
237.77	8.22
238.147	7.63
238.524	7.49
238.901	7.09
239.278	6.55
239.655	6.46
240.032	6.07
240.409	5.33
240.785	5.55
241.162	5.59
241.539	5.79
241.915	5.49
242.292	5.33
242.668	4.83
243.045	4.71
243.421	4.62
243.798	4.41
244.174	4.32
244.551	4.61
244.927	4.69
245.303	5.11
245.679	5.18
246.056	5.01
246.432	4.91
246.808	5.12
247.184	4.72
247.56	4.6
247.936	4.65
248.312	4.9
248.688	4.96
249.064	5.01
249.44	5.06
249.815	5.04
250.191	5.22
250.567	5.44
250.943	5.34
251.318	5.49
251.694	5.39
252.069	5.57
252.445	5.44
252.82	5.48
253.196	5.01
253.571	5.1
253.947	5.48
254.322	5.49
254.697	5.25
255.073	5.17
255.448	4.96
255.823	5.15
256.198	5.15
256.573	5.14
256.948	5.17
257.323	5.08
257.698	5.13
258.073	5.12
258.448	5.01
258.823	5.07
259.198	5
259.573	5.08
259.948	5.05
260.322	4.93
260.697	4.97
261.072	5.05
261.446	4.9
261.821	4.84
262.195	4.87
262.57	4.81
262.944	4.93
263.319	4.98
263.693	4.92
264.067	4.75
264.442	4.77
264.816	4.58
265.19	4.56
265.564	4.51
265.938	4.43
266.313	4.25
266.687	4.32
267.061	4.33
267.435	4.29
267.809	4.21
268.183	4.29
268.556	4.3
268.93	4.29
269.304	4.18
269.678	4.13
270.051	4.12
270.425	4.37
270.799	4.49
271.172	4.53
271.546	4.47
271.919	4.64
272.293	4.58
272.666	4.68
273.04	4.75
273.413	4.76
273.787	4.82
274.16	4.88
274.533	4.83
274.906	4.91
275.279	5.03
275.653	5.09
276.026	5.16
276.399	5.07
276.772	5.2
277.145	5.25
277.518	5.35
277.891	5.55
278.263	5.4
278.636	5.37
279.009	5.4
279.382	5.46
279.755	5.36
280.127	5.43
280.5	5.47
280.872	5.34
281.245	5.28
281.617	5.26
281.99	5.26
282.362	5.32
282.735	5.23
283.107	5.12
283.479	5.12
283.852	5.1
284.224	5.18
284.596	5.14
284.968	5.32
285.34	5.36
285.713	5.21
286.085	5.23
286.457	5.21
286.829	5.31
287.201	5.44
287.572	5.47
287.944	5.47
288.316	5.49
288.688	5.65
289.06	5.61
289.431	5.71
289.803	5.85
290.175	5.72
290.546	5.86
290.918	5.97
291.289	6.01
291.661	6.09
292.032	6.14
292.403	6.24
292.775	6.26
293.146	6.1
293.517	6.12
293.889	6.28
294.26	6.42
294.631	6.38
295.002	6.32
295.373	6.38
295.744	6.4
296.115	6.38
296.486	6.35
296.857	6.56
297.228	6.7
297.599	6.69
297.97	6.79
298.34	6.84
298.711	7.03
299.082	7.11
299.452	7.21
299.823	7.3
300.194	7.37
300.564	7.47
300.935	7.66
301.305	7.91
301.676	7.97
302.046	7.98
302.416	8.1
302.787	8.33
303.157	8.38
303.527	8.55
303.897	8.68
304.267	8.97
304.637	9.06
305.008	9.15
305.378	9.3
305.748	9.58
306.117	9.54
306.487	9.48
306.857	9.65
307.227	9.69
307.597	9.61
307.967	9.66
308.336	9.79
308.706	9.97
309.076	9.91
309.445	9.97
309.815	10.04
310.184	10.02
310.554	10.14
310.923	10.25
311.293	10.23
311.662	10.37
312.031	10.3
312.401	10.33
312.77	10.41
313.139	10.54
313.508	10.55
313.877	10.67
314.246	10.75
314.616	10.82
314.985	10.88
315.353	11.1
315.722	11.33
316.091	11.25
316.46	11.33
316.829	11.57
317.198	11.56
317.567	11.8
317.935	11.96
318.304	12.02
318.672	12.08
319.041	12.12
319.41	12.11
319.778	12.24
320.147	12.44
320.515	12.45
320.883	12.49
321.252	12.61
321.62	12.75
321.988	12.69
322.357	12.88
322.725	13
323.093	13.09
323.461	13.07
323.829	13.16
324.197	13.12
324.565	13.16
324.933	13.34
325.301	13.32
325.669	13.41
326.037	13.42
326.405	13.65
326.772	13.77
327.14	13.91
327.508	14.07
327.875	14.04
328.243	14.13
328.61	14.19
328.978	14.18
329.346	14.32
329.713	14.55
330.08	14.52
330.448	14.54
330.815	14.51
331.182	14.51
331.55	14.61
331.917	14.74
332.284	14.88
332.651	14.98
333.018	15.13
333.385	15.23
333.752	15.19
334.119	15.09
334.486	15.15
334.853	15.21
335.22	15.2
335.587	15.28
335.954	15.32
336.32	15.27
336.687	15.32
337.054	15.32
337.42	15.27
337.787	15.28
338.153	15.41
338.52	15.58
338.886	15.54
339.253	15.54
339.619	15.54
339.986	15.39
340.352	15.44
340.718	15.4
341.084	15.32
341.451	15.46
341.817	15.6
342.183	15.64
342.549	15.47
342.915	15.5
343.281	15.52
343.647	15.53
344.013	15.62
344.379	15.72
344.745	15.59
345.11	15.69
345.476	15.83
345.842	15.81
346.208	15.74
346.573	15.84
346.939	15.87
347.304	15.87
347.67	15.9
348.035	15.81
348.401	15.81
348.766	15.87
349.132	15.79
349.497	15.72
349.862	15.78
350.228	15.95
350.593	15.94
350.958	15.76
351.323	15.76
351.688	15.73
352.053	15.65
352.418	15.78
352.783	15.75
353.148	15.58
353.513	15.56
353.878	15.47
354.243	15.45
354.608	15.47
354.972	15.41
355.337	15.42
355.702	15.42
356.066	15.38
356.431	15.34
356.795	15.27
357.16	15.2
357.524	15.02
357.889	14.88
358.253	14.77
358.618	14.9
358.982	14.86
359.346	14.74
359.71	14.65
360.075	14.56
360.439	14.51
360.803	14.45
361.167	14.43
361.531	14.39
361.895	14.22
362.259	14.15
362.623	14.13
362.987	14.07
363.351	13.95
363.714	13.9
364.078	13.79
364.442	13.71
364.806	13.61
365.169	13.6
365.533	13.54
365.896	13.45
366.26	13.29
366.623	13.18
366.987	13.11
367.35	13.01
367.714	12.91
368.077	12.73
368.44	12.64
368.803	12.48
369.167	12.39
369.53	12.3
369.893	12.25
370.256	12.22
370.619	12.04
370.982	11.95
371.345	11.8
371.708	11.67
372.071	11.62
372.434	11.51
372.797	11.39
373.159	11.27
373.522	11.14
373.885	11
374.247	10.91
374.61	10.88
374.973	10.78
375.335	10.65
375.698	10.6
376.06	10.5
376.423	10.4
376.785	10.33
377.147	10.31
377.51	10.18
377.872	10.07
378.234	10.02
378.596	9.92
378.958	9.8
379.321	9.72
379.683	9.63
380.045	9.52
380.407	9.39
380.769	9.31
381.13	9.28
381.492	9.23
381.854	9.18
382.216	9.04
382.578	8.99
382.939	8.92
383.301	8.85
383.663	8.75
384.024	8.7
384.386	8.65
384.747	8.55
385.109	8.46
385.47	8.34
385.832	8.33
386.193	8.27
386.554	8.19
386.916	8.12
387.277	8.07
387.638	8.06
387.999	8.02
388.36	7.99
388.721	7.9
389.082	7.83
389.443	7.71
389.804	7.65
390.165	7.57
390.526	7.5
390.887	7.45
391.248	7.41
391.609	7.35
391.969	7.28
392.33	7.21
392.691	7.15
393.051	7.1
393.412	7
393.772	6.94
394.133	6.91
394.493	6.86
394.854	6.8
395.214	6.73
395.574	6.67
395.935	6.62
396.295	6.59
396.655	6.52
397.015	6.49
397.376	6.43
397.736	6.36
398.096	6.35
398.456	6.28
398.816	6.25
399.176	6.16
399.535	6.11
399.895	6.08
400.255	6.04
400.615	5.95
400.975	5.91
401.334	5.85
401.694	5.82
402.054	5.78
402.413	5.74
402.773	5.69
403.132	5.64
403.492	5.58
403.851	5.54
404.211	5.52
404.57	5.49
404.929	5.49
405.288	5.48
405.648	5.41
406.007	5.39
406.366	5.33
406.725	5.32
407.084	5.29
407.443	5.28
407.802	5.24
408.161	5.23
408.52	5.19
408.879	5.18
409.238	5.18
409.596	5.15
409.955	5.1
410.314	5.12
410.673	5.12
411.031	5.12
411.39	5.09
411.748	5.07
412.107	5.01
412.465	4.95
412.824	4.93
413.182	4.89
413.54	4.86
413.899	4.83
414.257	4.82
414.615	4.8
414.974	4.79
415.332	4.74
415.69	4.72
416.048	4.71
416.406	4.68
416.764	4.65
417.122	4.63
417.48	4.62
417.838	4.56
418.195	4.55
418.553	4.51
418.911	4.49
419.269	4.46
419.626	4.45
419.984	4.43
420.342	4.4
420.699	4.37
421.057	4.34
421.414	4.32
421.772	4.29
422.129	4.26
422.486	4.23
422.844	4.23
423.201	4.21
423.558	4.19
423.915	4.17
424.273	4.14
424.63	4.12
424.987	4.08
425.344	4.08
425.701	4.04
426.058	4.02
426.415	4.01
426.772	3.98
427.128	3.96
427.485	3.95
427.842	3.94
428.199	3.95
428.555	3.93
428.912	3.95
429.269	3.94
429.625	3.93
429.982	3.93
430.338	3.93
430.695	3.93
431.051	3.91
431.407	3.9
431.764	3.92
432.12	3.9
432.476	3.91
432.832	3.92
433.189	3.93
433.545	3.92
433.901	3.91
434.257	3.91
434.613	3.9
434.969	3.9
435.325	3.9
435.681	3.88
436.036	3.9
436.392	3.87
436.748	3.89
437.104	3.88
437.459	3.88
437.815	3.86
438.171	3.85
438.526	3.88
438.882	3.87
439.237	3.87
439.593	3.89
439.948	3.88
440.304	3.86
440.659	3.85
441.014	3.85
441.369	3.85
441.725	3.83
442.08	3.84
442.435	3.82
442.79	3.83
443.145	3.81
443.5	3.79
443.855	3.77
444.21	3.75
444.565	3.75
444.92	3.74
445.275	3.74
445.629	3.73
445.984	3.7
446.339	3.69
446.693	3.66
447.048	3.63
447.403	3.61
447.757	3.59
448.112	3.58
448.466	3.57
448.82	3.57
449.175	3.58
449.529	3.56
449.883	3.57
450.238	3.54
450.592	3.55
450.946	3.53
451.3	3.53
451.654	3.51
452.008	3.5
452.362	3.46
452.716	3.45
453.07	3.45
453.424	3.44
453.778	3.43
454.132	3.43
454.486	3.44
454.839	3.44
455.193	3.44
455.547	3.45
455.9	3.45
456.254	3.44
456.607	3.43
456.961	3.44
457.314	3.42
457.668	3.42
458.021	3.45
458.375	3.46
458.728	3.47
459.081	3.48
459.434	3.5
459.787	3.52
460.141	3.53
460.494	3.52
460.847	3.55
461.2	3.55
461.553	3.57
461.906	3.6
462.259	3.62
462.611	3.63
462.964	3.65
463.317	3.66
463.67	3.65
464.022	3.69
464.375	3.69
464.728	3.72
465.08	3.75
465.433	3.77
465.785	3.78
466.138	3.79
466.49	3.81
466.843	3.83
467.195	3.85
467.547	3.87
467.899	3.85
468.252	3.85
468.604	3.89
468.956	3.88
469.308	3.87
469.66	3.87
470.012	3.89
470.364	3.9
470.716	3.9
471.068	3.94
471.42	3.94
471.772	3.96
472.123	3.98
472.475	3.98
472.827	3.98
473.178	3.97
473.53	3.97
473.882	3.96
474.233	3.94
474.585	3.93
474.936	3.94
475.288	3.98
475.639	3.99
475.99	3.96
476.342	3.98
476.693	3.98
477.044	3.99
477.395	3.97
477.746	3.96
478.097	3.95
478.448	3.95
478.8	3.93
479.15	3.91
479.501	3.87
479.852	3.87
480.203	3.87
480.554	3.85
480.905	3.85
481.255	3.87
481.606	3.87
481.957	3.87
482.307	3.86
482.658	3.85
483.009	3.84
483.359	3.84
483.709	3.84
484.06	3.83
484.41	3.82
484.761	3.82
485.111	3.82
485.461	3.82
485.811	3.81
486.162	3.81
486.512	3.83
486.862	3.84
487.212	3.83
487.562	3.83
487.912	3.85
488.262	3.83
488.612	3.83
488.961	3.83
489.311	3.84
489.661	3.84
490.011	3.85
490.36	3.86
490.71	3.87
491.06	3.88
491.409	3.9
491.759	3.92
492.108	3.95
492.458	3.95
492.807	3.95
493.157	3.98
493.506	4
493.855	4.01
494.204	4.03
494.554	4.05
494.903	4.06
495.252	4.09
495.601	4.13
495.95	4.15
496.299	4.18
496.648	4.2
496.997	4.24
497.346	4.28
497.695	4.33
498.043	4.37
498.392	4.41
498.741	4.44
499.09	4.49
499.438	4.53
499.787	4.59
500.135	4.67
500.484	4.74
500.832	4.8
501.181	4.86
501.529	4.92
501.878	5
502.226	5.11
502.574	5.2
502.923	5.28
503.271	5.36
503.619	5.44
503.967	5.52
504.315	5.59
504.663	5.68
505.011	5.77
505.359	5.88
505.707	5.97
506.055	6.07
506.403	6.16
506.751	6.25
507.098	6.34
507.446	6.44
507.794	6.52
508.141	6.64
508.489	6.75
508.837	6.86
509.184	6.97
509.531	7.06
509.879	7.17
510.226	7.31
510.574	7.42
510.921	7.53
511.268	7.65
511.616	7.77
511.963	7.9
512.31	8.02
512.657	8.14
513.004	8.26
513.351	8.41
513.698	8.55
514.045	8.68
514.392	8.84
514.739	8.99
515.086	9.13
515.432	9.28
515.779	9.42
516.126	9.59
516.473	9.73
516.819	9.87
517.166	9.99
517.512	10.11
517.859	10.25
518.205	10.39
518.552	10.53
518.898	10.64
519.245	10.76
519.591	10.87
519.937	10.99
520.283	11.15
520.629	11.28
520.976	11.44
521.322	11.61
521.668	11.78
522.014	11.93
522.36	12.13
522.706	12.27
523.052	12.49
523.398	12.69
523.743	12.89
524.089	13.1
524.435	13.3
524.781	13.48
525.126	13.66
525.472	13.83
525.817	13.98
526.163	14.14
526.509	14.27
526.854	14.4
527.199	14.52
527.545	14.62
527.89	14.73
528.235	14.83
528.581	14.95
528.926	15.06
529.271	15.18
529.616	15.3
529.961	15.42
530.306	15.55
530.651	15.65
530.996	15.79
531.341	15.93
531.686	16.07
532.031	16.24
532.376	16.37
532.721	16.52
533.065	16.68
533.41	16.85
533.755	17.03
534.099	17.21
534.444	17.41
534.788	17.6
535.133	17.79
535.477	17.98
535.822	18.18
536.166	18.36
536.51	18.59
536.855	18.82
537.199	19.07
537.543	19.29
537.887	19.57
538.231	19.81
538.576	20.05
538.92	20.31
539.264	20.52
539.608	20.74
539.951	20.96
540.295	21.16
540.639	21.35
540.983	21.54
541.327	21.73
541.671	21.92
542.014	22.09
542.358	22.3
542.701	22.48
543.045	22.68
543.389	22.9
543.732	23.11
544.075	23.31
544.419	23.51
544.762	23.73
545.105	23.95
545.449	24.18
545.792	24.42
546.135	24.68
546.478	24.95
546.821	25.28
547.165	25.59
547.508	25.91
547.851	26.22
548.194	26.52
548.536	26.84
548.879	27.16
549.222	27.53
549.565	27.88
549.908	28.23
550.25	28.58
550.593	28.91
550.936	29.28
551.278	29.58
551.621	29.91
551.963	30.27
552.306	30.61
552.648	30.95
552.991	31.31
553.333	31.65
553.675	31.95
554.017	32.23
554.36	32.52
554.702	32.79
555.044	33.12
555.386	33.5
555.728	33.81
556.07	34.15
556.412	34.48
556.754	34.77
557.096	35.1
557.438	35.42
557.78	35.74
558.121	36.04
558.463	36.41
558.805	36.77
559.147	37.09
559.488	37.39
559.83	37.72
560.171	38.02
560.513	38.37
560.854	38.73
561.196	39.06
561.537	39.38
561.878	39.72
562.22	40.06
562.561	40.3
562.902	40.63
563.243	40.97
563.584	41.24
563.925	41.52
564.266	41.78
564.607	42.09
564.948	42.4
565.289	42.71
565.63	43.04
565.971	43.34
566.312	43.59
566.653	43.91
566.993	44.16
567.334	44.44
567.675	44.66
568.015	44.93
568.356	45.21
568.696	45.47
569.037	45.75
569.377	46
569.718	46.28
570.058	46.5
570.398	46.68
570.739	46.93
571.079	47.21
571.419	47.48
571.759	47.7
572.099	47.92
572.439	48.17
572.779	48.35
573.119	48.55
573.459	48.82
573.799	49.02
574.139	49.28
574.479	49.47
574.819	49.68
575.158	49.87
575.498	50.03
575.838	50.24
576.177	50.45
576.517	50.64
576.856	50.89
577.196	51.13
577.535	51.4
577.875	51.65
578.214	51.92
578.553	52.08
578.893	52.23
579.232	52.42
579.571	52.6
579.91	52.78
580.25	52.96
580.589	53.08
580.928	53.27
581.267	53.5
581.606	53.72
581.945	53.89
582.283	54.07
582.622	54.29
582.961	54.49
583.3	54.71
583.639	54.86
583.977	55.05
584.316	55.21
584.654	55.33
584.993	55.52
585.332	55.64
585.67	55.91
586.008	56.19
586.347	56.38
586.685	56.51
587.024	56.71
587.362	56.79
587.7	57
588.038	57.12
588.376	57.18
588.715	57.33
589.053	57.53
589.391	57.67
589.729	57.77
590.067	57.87
590.404	57.93
590.742	58.11
591.08	58.16
591.418	58.33
591.756	58.39
592.093	58.4
592.431	58.45
592.769	58.59
593.106	58.66
593.444	58.77
593.781	58.95
594.119	59
594.456	59.29
594.793	59.43
595.131	59.53
595.468	59.6
595.805	59.71
596.143	59.82
596.48	59.91
596.817	60.1
597.154	60.22
597.491	60.31
597.828	60.38
598.165	60.49
598.502	60.54
598.839	60.67
599.176	60.83
599.512	60.93
599.849	61
600.186	61.1
600.523	61.2
600.859	61.23
601.196	61.36
601.532	61.38
601.869	61.46
602.205	61.6
602.542	61.76
602.878	61.87
603.215	61.86
603.551	61.87
603.887	61.87
604.223	61.95
604.56	62.01
604.896	62.08
605.232	62.12
605.568	62.15
605.904	62.25
606.24	62.29
606.576	62.4
606.912	62.4
607.248	62.46
607.583	62.53
607.919	62.62
608.255	62.68
608.591	62.7
608.926	62.72
609.262	62.7
609.597	62.7
609.933	62.69
610.268	62.72
610.604	62.84
610.939	62.87
611.275	62.91
611.61	62.97
611.945	63.01
612.281	63.05
612.616	63.17
612.951	63.19
613.286	63.24
613.621	63.17
613.956	63.32
614.291	63.36
614.626	63.42
614.961	63.43
615.296	63.39
615.631	63.51
615.966	63.58
616.3	63.64
616.635	63.71
616.97	63.82
617.304	63.91
617.639	63.85
617.973	63.86
618.308	63.83
618.642	63.85
618.977	63.94
619.311	63.97
619.646	63.98
619.98	64.05
620.314	64.08
620.648	64.21
620.983	64.14
621.317	64.17
621.651	64.17
621.985	64.35
622.319	64.42
622.653	64.42
622.987	64.36
623.321	64.45
623.655	64.49
623.988	64.49
624.322	64.67
624.656	64.8
624.99	64.83
625.323	64.84
625.657	64.89
625.99	64.92
626.324	64.92
626.657	64.92
626.991	65.04
627.324	65.04
627.658	65.04
627.991	65.07
628.324	65
628.657	64.96
628.991	65
629.324	65.03
629.657	65.04
629.99	65.1
630.323	65.06
630.656	65.1
630.989	65.11
631.322	65.06
631.655	65.02
631.987	65.09
632.32	65.13
632.653	65.22
632.986	65.21
633.318	65.33
633.651	65.42
633.984	65.3
634.316	65.32
634.649	65.41
634.981	65.51
635.313	65.67
635.646	65.78
635.978	65.72
636.31	65.68
636.643	65.72
636.975	65.82
637.307	65.83
637.639	65.83
637.971	65.89
638.303	65.87
638.635	65.93
638.967	65.91
639.299	66.03
639.631	66.04
639.963	66.02
640.295	65.99
640.626	65.98
640.958	65.92
641.29	66.05
641.621	66.05
641.953	66.05
642.285	66.12
642.616	66.13
642.948	66.21
643.279	66.43
643.61	66.45
643.942	66.36
644.273	66.5
644.604	66.46
644.936	66.41
645.267	66.29
645.598	66.4
645.929	66.38
646.26	66.42
646.591	66.36
646.922	66.49
647.253	66.5
647.584	66.54
647.915	66.68
648.245	66.62
648.576	66.75
648.907	66.74
649.238	66.67
649.568	66.76
649.899	66.63
650.229	66.57
650.56	66.54
650.89	66.61
651.221	66.49
651.551	66.65
651.882	66.68
652.212	66.78
652.542	66.72
652.872	66.83
653.203	66.71
653.533	66.9
653.863	66.91
654.193	66.83
654.523	66.82
654.853	66.85
655.183	66.93
655.513	66.82
655.843	66.87
656.172	66.89
656.502	66.82
656.832	66.92
657.162	66.91
657.491	66.93
657.821	66.96
658.15	67
658.48	67
658.809	67.12
659.139	67.15
659.468	67.12
659.798	67.13
660.127	67.21
660.456	67.13
660.785	67.12
661.115	67.21
661.444	67.2
661.773	67.21
662.102	67.15
662.431	67.15
662.76	67.23
663.089	67.28
663.418	67.36
663.747	67.31
664.076	67.27
664.404	67.34
664.733	67.34
665.062	67.47
665.39	67.5
665.719	67.46
666.048	67.44
666.376	67.49
666.705	67.59
667.033	67.54
667.362	67.32
667.69	67.34
668.018	67.27
668.347	67.29
668.675	67.31
669.003	67.31
669.331	67.34
669.659	67.32
669.987	67.21
670.315	67
670.643	67.05
670.971	67.08
671.299	67
671.627	66.92
671.955	66.86
672.283	66.77
672.61	66.81
672.938	66.76
673.266	66.99
673.593	66.94
673.921	66.96
674.249	67.07
674.576	67.01
674.904	67.17
675.231	67.13
675.558	67.03
675.886	67.1
676.213	67.05
676.54	67.09
676.867	67.22
677.195	67.43
677.522	67.38
677.849	67.62
678.176	67.76
678.503	67.8
678.83	67.83
679.157	67.78
679.484	67.66
679.81	67.73
680.137	67.5
680.464	67.49
680.791	67.4
681.117	67.42
681.444	67.54
681.771	67.49
682.097	67.59
682.424	67.71
682.75	67.62
683.077	67.77
683.403	67.75
683.729	67.75
684.056	67.76
684.382	67.83
684.708	67.64
685.034	67.57
685.36	67.62
685.686	67.6
686.012	67.79
686.339	67.83
686.664	67.92
686.99	67.95
687.316	67.86
687.642	67.95
687.968	67.93
688.294	67.84
688.619	67.95
688.945	67.74
689.271	67.57
689.596	67.68
689.922	67.52
690.247	67.5
690.573	67.45
690.898	67.32
691.224	67.25
691.549	67.21
691.874	67.11
692.2	67.02
692.525	67.1
692.85	66.94
693.175	66.97
693.5	66.85
693.825	66.79
694.15	66.96
694.475	66.89
694.8	67.01
695.125	66.94
695.45	66.81
695.775	66.98
696.099	67.23
696.424	67.16
696.749	67.12
697.073	67.04
697.398	67.08
697.723	67.01
698.047	66.97
698.372	66.96
698.696	67.08
699.02	67
699.345	67.04
699.669	67.11
699.993	67.07
700.318	67.09
700.642	67.1
700.966	67.08
701.29	67.14
701.614	67.06
701.938	67.09
702.262	67.09
702.586	67.02
702.91	67
703.234	66.99
703.557	67.13
703.881	66.99
704.205	66.83
704.529	66.95
704.852	67.24
705.176	67.38
705.499	67.41
705.823	67.61
706.146	67.48
706.47	67.42
706.793	67.45
707.117	67.43
707.44	67.55
707.763	67.2
708.086	67.43
708.409	67.69
708.733	67.77
709.056	67.69
709.379	67.9
709.702	67.92
710.025	67.96
710.348	67.94
710.671	68.14
710.993	68.33
711.316	68.49
711.639	68.5
711.962	68.4
712.284	68.33
712.607	68.42
712.93	68.33
713.252	68.54
713.575	68.52
713.897	68.76
714.22	68.83
714.542	69.18
714.864	69.05
715.187	68.94
715.509	68.97
715.831	69.32
716.153	69.28
716.475	68.95
716.798	69.16
717.12	69.01
717.442	68.94
717.764	68.82
718.085	68.57
718.407	68.52
718.729	68.64
719.051	68.73
719.373	68.56
719.695	68.64
720.016	68.41
720.338	68.55
720.659	68.23
720.981	67.82
721.302	67.69
721.624	67.66
721.945	67.5
722.267	67.43
722.588	67.2
722.909	67.01
723.231	67.09
723.552	67.07
723.873	67.39
724.194	67.71
724.515	67.71
724.836	67.75
725.157	67.73
725.478	67.78
725.799	67.63
726.12	67.64
726.441	67.73
726.762	67.83
727.083	67.91
727.403	67.95
727.724	68.02
728.045	68.02
728.365	68.02
728.686	68.04
729.006	68.03
729.327	68.17
729.647	68.11
729.967	68.24
730.288	68.03
730.608	67.91
730.928	67.88
731.249	68.01
731.569	68.27
731.889	68.25
732.209	68.09
732.529	68.14
732.849	68.37
733.169	68.15
733.489	68.22
733.809	68.2
734.129	68.37
734.448	68.55
734.768	68.6
735.088	68.43
735.408	68.48
735.727	68.31
736.047	68.2
736.366	68.19
736.686	68.34
737.005	68.36
737.325	68.47
737.644	68.46
737.963	68.41
738.283	68.2
738.602	68.13
738.921	68.26
739.24	68.24
739.56	67.89
739.879	68.03
740.198	67.79
740.517	67.77
740.836	67.62
741.155	67.44
741.473	67.46
741.792	67.53
742.111	67.42
742.43	67.7
742.748	67.77
743.067	67.89
743.386	67.77
743.704	67.8
744.023	67.84
744.341	67.73
744.66	67.55
744.978	67.97
745.297	68.11
745.615	67.9
745.933	67.95
746.252	68.1
746.57	68.16
746.888	68.12
747.206	67.96
747.524	67.98
747.842	68
748.16	68.28
748.478	68.66
748.796	69.14
749.114	69.03
749.432	68.88
749.749	68.82
750.067	68.72
750.385	68.75
750.703	68.79
751.02	68.64
751.338	68.7
751.655	68.1
751.973	68.34
752.29	68.31
752.608	68.18
752.925	68.44
753.242	68.56
753.56	68.62
753.877	68.45
754.194	68.53
754.511	68.92
754.828	68.69
755.145	68.31
755.462	68.08
755.779	68.4
756.096	68.45
756.413	68.62
756.73	68.88
757.047	69.05
757.364	69.11
757.68	69.53
757.997	69.94
758.314	69.72
758.63	69.44
758.947	69.48
759.264	69.68
759.58	69.17
759.896	68.96
760.213	68.86
760.529	69.08
760.846	68.98
761.162	69.04
761.478	68.79
761.794	68.94
762.11	69.01
762.426	69.04
762.743	68.86
763.059	68.82
763.375	68.83
763.69	68.87
764.006	68.8
764.322	68.67
764.638	68.6
764.954	68.68
765.27	68.61
765.585	68.68
765.901	68.42
766.216	68.67
766.532	68.79
766.848	68.76
767.163	68.93
767.478	69.16
767.794	69.16
768.109	69.23
768.424	69.16
768.74	68.71
769.055	68.73
769.37	68.97
769.685	68.94
770	68.54
770.315	68.02
770.63	68.26
770.945	68.11
771.26	67.94
771.575	68.36
771.89	68.31
772.205	68.59
772.52	69.06
772.834	69.17
773.149	69.16
773.464	69.52
773.778	69.29
774.093	69.13
774.407	68.77
774.722	68.64
775.036	68.77
775.351	69.33
775.665	69.01
775.979	69.21
776.293	69.57
776.608	69.74
776.922	70.27
777.236	69.8
777.55	70.3
777.864	70.3
778.178	70.54
778.492	71.02
778.806	70.38
779.12	70.64
779.434	70.66
779.747	70.56
780.061	70.34
780.375	70.83
780.689	71.01
781.002	71.47
781.316	72.04
781.629	72.2
781.943	72.15
782.256	72.19
782.57	71.76
782.883	71.58
783.196	71.7
783.51	71.27
783.823	71.42
784.136	70.41
784.449	70.66
784.762	70.3
785.075	70.24
785.388	70.39
785.701	70.01
786.014	70.41
786.327	70.36
786.64	70.64
786.953	69.93
787.266	69.46
787.578	69.07
787.891	68.76
788.204	68.59
788.516	68.1
788.829	67.98
789.141	68.58
789.454	68.48
789.766	68.47
790.079	68.59
790.391	68.28
790.703	68.67
791.016	68.69
791.328	69.36
791.64	69.24
791.952	69.61
792.264	69.38
792.576	68.17
792.888	67.94
793.2	68.1
793.512	68.67
793.824	69.17
794.136	69.42
794.448	69.61
794.76	69.9
795.071	69.78
795.383	70.29
795.695	69.59
796.006	69.68
796.318	69.06
796.629	69.01
796.941	69.65
797.252	69.65
797.564	69.58
797.875	69.68
798.186	69.73
798.497	69.73
798.809	69.35
799.12	69.78
799.431	69.77
799.742	69.24
800.053	68.98
800.364	68.8
800.675	69.14
800.986	69.56
801.297	69.23
801.608	69.37
801.918	68.61
802.229	69.04
802.54	69.18
802.851	69.95
803.161	70.18
803.472	69.9
803.782	69.9
804.093	69.52
804.403	69.58
804.714	69.51
805.024	68.67
805.334	69.29
805.645	70.07
805.955	70.39
806.265	70.61
806.575	70.5
806.885	70.74
807.195	70.25
807.505	69.28
807.815	68.89
808.125	68.93
808.435	69.35
808.745	68.79
809.055	68.94
809.365	68.96
809.674	68.75
809.984	68.47
810.294	68.62
810.603	68.76
810.913	67.95
811.222	67.76
811.532	67.83
811.841	67.32
812.151	66.31
812.46	67.05
812.769	66.76
813.079	66.23
813.388	65.33
813.697	65.4
814.006	66.28
814.315	66.62
814.624	67.01
814.933	67.13
815.242	67.07
815.551	66.93
815.86	67.21
816.169	67.51
816.478	67.15
816.786	66.51
817.095	66.78
817.404	65.76
817.712	66.04
818.021	66.8
818.33	67.55
818.638	67.91
818.947	67.08
819.255	67.43
819.563	67.57
819.872	67.53
820.18	67.44
820.488	67.9
820.796	68.14
821.105	67.96
821.413	67.78
821.721	67.81
822.029	67.99
822.337	68.1
822.645	68.06
822.953	68.06
823.26	68.28
823.568	68.32
823.876	68.68
824.184	68.63
824.491	68.47
824.799	68.43
825.107	68.5
825.414	68.66
825.722	68.76
826.029	68.93
826.337	69.4
826.644	69.56
826.951	69.24
827.259	69.21
827.566	69.49
827.873	69.37
828.18	69.61
828.488	69.55
828.795	69.44
829.102	69.39
829.409	69.58
829.716	69.37
830.023	69.61
830.329	68.91
830.636	69.2
830.943	69.14
831.25	68.99
831.557	68.98
831.863	68.86
832.17	68.86
832.476	68.64
832.783	67.87
833.089	67.59
833.396	67.61
833.702	67.41
834.009	67.88
834.315	68.75
834.621	68.38
834.928	68.49
835.234	68.25
835.54	68.49
835.846	68.73
836.152	69.36
836.458	69.15
836.764	69.75
837.07	69.22
837.376	69.51
837.682	70.25
837.988	69.73
838.293	69.75
838.599	69.79
838.905	69.55
839.211	69.81
839.516	69.94
839.822	70.37
840.127	70.55
840.433	70.41
840.738	69.62
841.044	71.16
841.349	70.84
841.654	72.06
841.959	72.76
842.265	73.17
842.57	73.04
842.875	73.78
843.18	74.04
843.485	73.67
843.79	74.46
844.095	73.71
844.4	74.72
844.705	73.69
845.01	72.77
845.315	74.29
845.619	74.71
845.924	75.69
846.229	76.05
846.533	75.51
846.838	74.77
847.142	74.55
847.447	72.31
847.751	71.29
848.056	69.38
848.36	68.62
848.664	68.59
848.969	68.11
849.273	65.75
849.577	63.25
849.881	66.17
850.185	65.72
850.489	65.68
850.794	66.31
851.097	69.68
851.401	70.43
851.705	67.48
852.009	66.83
852.313	63.84
852.617	61.46
852.92	63.07
853.224	63.83
853.528	66.53
853.831	67.29
854.135	67.77
854.438	67.65
854.742	66.95
855.045	66.67
855.349	65.46
855.652	65.23
855.955	69.65
856.259	68.06
856.562	68.76
856.865	66.77
857.168	66.25
857.471	65.66
857.774	67.53
858.077	68.53
858.38	71.27
858.683	72.66
858.986	73.67
859.289	76.59
859.592	74.77
859.894	72.74
860.197	74.31
860.5	74.98
860.802	74.5
861.105	75.61
861.407	74.76
861.71	75.25
862.012	76.46
862.315	74.4
862.617	74.37
862.919	72.94
863.222	73.97
863.524	75.31
863.826	78.33
864.128	76.13
864.43	77.61
864.732	74.44
865.034	75.34
865.336	75.46
865.638	71.33
865.94	70.14
866.242	69.13
866.544	70.11
866.846	71.56
867.147	72.72
867.449	73.23
867.751	74.17
868.052	74
868.354	70.23
868.655	69.6
868.957	67.82
869.258	67.99
869.56	69.23
869.861	65.54
870.162	59.97
870.463	58.44
870.765	57.86
871.066	59.36
871.367	60.12
871.668	61.19
871.969	61.76
872.27	62.01
872.571	62.99
872.872	58.7
873.173	56.25
873.473	56.22
873.774	54.32
874.075	52.79
874.376	51
874.676	54.68
874.977	55.57
875.277	55.95
875.578	58.38
875.878	57.16
876.179	58.68
876.479	60.48
876.78	61.65
877.08	61.03
877.38	59
877.68	57.76
877.981	55.95
878.281	55.53
878.581	56.04
