Data from BU57650_Reflection_00001.txt Node
Date: Tue Nov 19 11:01:09 EST 2019
User: vgr7
Spectrometer: USB2G7710
Scans to average: 3
Trigger mode: 4
Integration Time (sec): 2.000000E-2
Electric dark correction enabled: true
Boxcar width: 10
XAxis mode: Wavelengths
Number of Pixels in Spectrum: 2048
>>>>>Begin Spectral Data<<<<<
177.721	-10.26
178.105	-88.31
178.488	104.67
178.871	-35.14
179.254	96.55
179.636	403.57
180.019	63.92
180.402	45.45
180.785	226.09
181.168	188.79
181.55	586.3
181.933	104.73
182.316	53.56
182.698	6.18
183.081	457.14
183.463	157.31
183.846	131.86
184.228	563.3
184.611	-264.11
184.993	-107.44
185.376	-120.71
185.758	-36.99
186.14	-70.47
186.522	-53.96
186.904	-44.97
187.287	-67.56
187.669	-9.61
188.051	0.33
188.433	-14.02
188.815	-22.93
189.197	-14.68
189.579	-10.75
189.961	-18.2
190.342	-17.83
190.724	-37.53
191.106	-38.88
191.488	-27.34
191.869	-25.13
192.251	-29.58
192.633	-24.59
193.014	-31.07
193.396	-28.56
193.777	-27.58
194.159	-25.12
194.54	-27.31
194.922	-32
195.303	-31.61
195.684	-41.16
196.065	-49.16
196.447	-47.8
196.828	-44.07
197.209	-38.25
197.59	-27.32
197.971	-25.1
198.352	-30.21
198.733	-26.46
199.114	-25.93
199.495	-22.32
199.876	-22.77
200.257	-24.19
200.638	-30.64
201.018	-30.36
201.399	-24.41
201.78	-29.13
202.16	-29.38
202.541	-25.84
202.922	-22.21
203.302	-25.94
203.683	-28.79
204.063	-22.82
204.444	-13.75
204.824	-9.11
205.204	-17.07
205.585	-18.46
205.965	-25.99
206.345	-26.33
206.725	-24.86
207.106	-16.34
207.486	-26.54
207.866	-24.15
208.246	-8.37
208.626	-13.98
209.006	-15.2
209.386	-17.87
209.766	-17.1
210.145	-20.25
210.525	-27.26
210.905	-26.9
211.285	-24.22
211.664	-15.41
212.044	-18.57
212.424	-14.08
212.803	-17.29
213.183	-24.09
213.562	-33.84
213.942	-31.17
214.321	-32.08
214.701	-30.25
215.08	-32.32
215.459	-19.82
215.838	-23.93
216.218	-30.97
216.597	-26.05
216.976	-47.82
217.355	-50.4
217.734	-57.46
218.113	-37.82
218.492	-30.67
218.871	-19.85
219.25	-18.73
219.629	-17.16
220.008	-14.43
220.387	-19.67
220.766	-15.2
221.144	-6.93
221.523	-13.05
221.902	-2.6
222.28	3.7
222.659	7.53
223.037	4.62
223.416	-1.51
223.794	-0.94
224.173	-1.33
224.551	-2.72
224.929	0.9
225.308	3.07
225.686	11.45
226.064	7.02
226.442	9.11
226.821	4.8
227.199	3.4
227.577	3.24
227.955	5.2
228.333	3.14
228.711	3.96
229.089	3.99
229.467	5.75
229.845	2.22
230.222	4.29
230.6	5.2
230.978	7.2
231.356	6.5
231.733	8.5
232.111	9.56
232.488	9.28
232.866	11.25
233.243	10.89
233.621	9.53
233.998	9.26
234.376	9.62
234.753	9.66
235.13	10.14
235.508	10.42
235.885	8.84
236.262	8.64
236.639	9.16
237.016	8.36
237.393	9.51
237.77	10.28
238.147	9.23
238.524	7.37
238.901	6.37
239.278	6.07
239.655	5.51
240.032	5.15
240.409	5.59
240.785	5.16
241.162	5.55
241.539	5.05
241.915	5.23
242.292	5.14
242.668	4.98
243.045	4.83
243.421	4.72
243.798	4.87
244.174	5.22
244.551	4.99
244.927	5.21
245.303	4.86
245.679	4.68
246.056	4.55
246.432	4.8
246.808	4.86
247.184	5.27
247.56	5.07
247.936	5.14
248.312	4.96
248.688	4.92
249.064	4.86
249.44	4.89
249.815	4.72
250.191	4.51
250.567	4.52
250.943	4.53
251.318	4.56
251.694	4.12
252.069	3.9
252.445	4.04
252.82	4.12
253.196	4.36
253.571	4.18
253.947	3.93
254.322	3.7
254.697	3.59
255.073	3.2
255.448	3.49
255.823	3.5
256.198	3.61
256.573	3.55
256.948	3.52
257.323	3.66
257.698	3.73
258.073	3.66
258.448	3.83
258.823	3.93
259.198	4.13
259.573	4.24
259.948	4.2
260.322	4.04
260.697	3.96
261.072	4
261.446	4.24
261.821	4.3
262.195	4.26
262.57	4.29
262.944	4.53
263.319	4.56
263.693	4.48
264.067	4.61
264.442	4.77
264.816	4.79
265.19	4.62
265.564	4.73
265.938	4.83
266.313	4.64
266.687	4.84
267.061	4.51
267.435	4.62
267.809	4.61
268.183	4.68
268.556	4.66
268.93	4.51
269.304	4.26
269.678	4.46
270.051	4.6
270.425	4.64
270.799	4.55
271.172	4.53
271.546	4.74
271.919	4.62
272.293	4.58
272.666	4.56
273.04	4.54
273.413	4.43
273.787	4.4
274.16	4.41
274.533	4.2
274.906	4.32
275.279	4.26
275.653	4.3
276.026	4.3
276.399	4.2
276.772	4.45
277.145	4.68
277.518	4.53
277.891	4.51
278.263	4.42
278.636	4.43
279.009	4.4
279.382	4.21
279.755	4.38
280.127	4.44
280.5	4.41
280.872	4.64
281.245	4.5
281.617	4.45
281.99	4.49
282.362	4.33
282.735	4.27
283.107	4.34
283.479	4.44
283.852	4.38
284.224	4.42
284.596	4.23
284.968	3.93
285.34	3.82
285.713	3.83
286.085	3.76
286.457	3.68
286.829	3.69
287.201	3.72
287.572	3.54
287.944	3.46
288.316	3.55
288.688	3.59
289.06	3.77
289.431	3.89
289.803	3.98
290.175	4.08
290.546	3.98
290.918	4.01
291.289	3.93
291.661	3.92
292.032	4.01
292.403	4.1
292.775	4.25
293.146	4.44
293.517	4.53
293.889	4.63
294.26	4.57
294.631	4.53
295.002	4.54
295.373	4.67
295.744	4.72
296.115	4.68
296.486	4.59
296.857	4.56
297.228	4.46
297.599	4.33
297.97	4.46
298.34	4.52
298.711	4.47
299.082	4.33
299.452	4.3
299.823	4.19
300.194	4.13
300.564	4.2
300.935	4.25
301.305	4.07
301.676	4
302.046	4.06
302.416	4.12
302.787	4.05
303.157	4.05
303.527	4.04
303.897	4.1
304.267	4.07
304.637	3.97
305.008	4.02
305.378	3.93
305.748	3.84
306.117	3.86
306.487	3.84
306.857	4.01
307.227	4.14
307.597	4.1
307.967	4.12
308.336	4.09
308.706	4
309.076	4.11
309.445	4.24
309.815	4.19
310.184	4.05
310.554	4.12
310.923	4
311.293	3.92
311.662	3.82
312.031	3.82
312.401	3.77
312.77	3.85
313.139	3.95
313.508	3.88
313.877	3.82
314.246	3.75
314.616	3.69
314.985	3.62
315.353	3.71
315.722	3.67
316.091	3.58
316.46	3.61
316.829	3.64
317.198	3.47
317.567	3.53
317.935	3.65
318.304	3.68
318.672	3.78
319.041	4
319.41	4.02
319.778	4.08
320.147	4.18
320.515	4.06
320.883	3.98
321.252	4
321.62	4.07
321.988	4.11
322.357	4.08
322.725	4.18
323.093	4.11
323.461	4.05
323.829	4.09
324.197	4.05
324.565	3.89
324.933	3.91
325.301	3.92
325.669	3.9
326.037	3.78
326.405	3.76
326.772	3.58
327.14	3.49
327.508	3.48
327.875	3.42
328.243	3.5
328.61	3.58
328.978	3.53
329.346	3.55
329.713	3.62
330.08	3.73
330.448	3.59
330.815	3.66
331.182	3.72
331.55	3.67
331.917	3.64
332.284	3.68
332.651	3.69
333.018	3.67
333.385	3.71
333.752	3.75
334.119	3.75
334.486	3.75
334.853	3.76
335.22	3.68
335.587	3.71
335.954	3.74
336.32	3.75
336.687	3.84
337.054	3.79
337.42	3.77
337.787	3.71
338.153	3.92
338.52	3.86
338.886	3.8
339.253	3.7
339.619	3.73
339.986	3.73
340.352	3.71
340.718	3.66
341.084	3.61
341.451	3.65
341.817	3.61
342.183	3.6
342.549	3.72
342.915	3.8
343.281	3.8
343.647	3.68
344.013	3.69
344.379	3.65
344.745	3.66
345.11	3.62
345.476	3.72
345.842	3.49
346.208	3.54
346.573	3.54
346.939	3.56
347.304	3.49
347.67	3.44
348.035	3.41
348.401	3.46
348.766	3.47
349.132	3.42
349.497	3.45
349.862	3.51
350.228	3.52
350.593	3.53
350.958	3.58
351.323	3.54
351.688	3.52
352.053	3.55
352.418	3.6
352.783	3.61
353.148	3.52
353.513	3.56
353.878	3.54
354.243	3.6
354.608	3.73
354.972	3.81
355.337	3.84
355.702	3.92
356.066	3.92
356.431	3.92
356.795	3.9
357.16	3.91
357.524	3.91
357.889	3.84
358.253	3.75
358.618	3.77
358.982	3.85
359.346	3.87
359.71	3.85
360.075	3.82
360.439	3.82
360.803	3.84
361.167	3.84
361.531	3.81
361.895	3.8
362.259	3.74
362.623	3.71
362.987	3.71
363.351	3.65
363.714	3.64
364.078	3.61
364.442	3.63
364.806	3.67
365.169	3.61
365.533	3.59
365.896	3.65
366.26	3.61
366.623	3.58
366.987	3.61
367.35	3.62
367.714	3.6
368.077	3.62
368.44	3.63
368.803	3.6
369.167	3.56
369.53	3.5
369.893	3.55
370.256	3.53
370.619	3.53
370.982	3.51
371.345	3.5
371.708	3.54
372.071	3.52
372.434	3.5
372.797	3.54
373.159	3.58
373.522	3.56
373.885	3.54
374.247	3.52
374.61	3.5
374.973	3.48
375.335	3.53
375.698	3.51
376.06	3.51
376.423	3.59
376.785	3.68
377.147	3.63
377.51	3.57
377.872	3.56
378.234	3.57
378.596	3.62
378.958	3.63
379.321	3.64
379.683	3.7
380.045	3.68
380.407	3.64
380.769	3.62
381.13	3.6
381.492	3.6
381.854	3.66
382.216	3.61
382.578	3.65
382.939	3.64
383.301	3.62
383.663	3.58
384.024	3.56
384.386	3.5
384.747	3.52
385.109	3.56
385.47	3.62
385.832	3.63
386.193	3.57
386.554	3.55
386.916	3.54
387.277	3.48
387.638	3.52
387.999	3.55
388.36	3.58
388.721	3.57
389.082	3.58
389.443	3.58
389.804	3.59
390.165	3.59
390.526	3.56
390.887	3.59
391.248	3.6
391.609	3.59
391.969	3.58
392.33	3.63
392.691	3.6
393.051	3.54
393.412	3.53
393.772	3.58
394.133	3.58
394.493	3.53
394.854	3.52
395.214	3.5
395.574	3.5
395.935	3.48
396.295	3.5
396.655	3.52
397.015	3.52
397.376	3.53
397.736	3.49
398.096	3.49
398.456	3.47
398.816	3.48
399.176	3.39
399.535	3.41
399.895	3.44
400.255	3.45
400.615	3.49
400.975	3.51
401.334	3.48
401.694	3.51
402.054	3.56
402.413	3.58
402.773	3.57
403.132	3.54
403.492	3.56
403.851	3.55
404.211	3.51
404.57	3.47
404.929	3.44
405.288	3.48
405.648	3.46
406.007	3.45
406.366	3.47
406.725	3.51
407.084	3.52
407.443	3.47
407.802	3.46
408.161	3.44
408.52	3.44
408.879	3.44
409.238	3.42
409.596	3.37
409.955	3.38
410.314	3.35
410.673	3.35
411.031	3.35
411.39	3.34
411.748	3.38
412.107	3.38
412.465	3.4
412.824	3.39
413.182	3.41
413.54	3.43
413.899	3.42
414.257	3.45
414.615	3.45
414.974	3.46
415.332	3.46
415.69	3.46
416.048	3.45
416.406	3.44
416.764	3.45
417.122	3.45
417.48	3.43
417.838	3.45
418.195	3.46
418.553	3.44
418.911	3.44
419.269	3.43
419.626	3.43
419.984	3.43
420.342	3.42
420.699	3.43
421.057	3.44
421.414	3.43
421.772	3.41
422.129	3.39
422.486	3.38
422.844	3.37
423.201	3.37
423.558	3.37
423.915	3.37
424.273	3.37
424.63	3.38
424.987	3.39
425.344	3.39
425.701	3.38
426.058	3.4
426.415	3.41
426.772	3.41
427.128	3.43
427.485	3.44
427.842	3.44
428.199	3.43
428.555	3.42
428.912	3.41
429.269	3.42
429.625	3.44
429.982	3.45
430.338	3.47
430.695	3.46
431.051	3.45
431.407	3.46
431.764	3.46
432.12	3.46
432.476	3.48
432.832	3.49
433.189	3.48
433.545	3.48
433.901	3.47
434.257	3.46
434.613	3.44
434.969	3.42
435.325	3.42
435.681	3.43
436.036	3.44
436.392	3.43
436.748	3.44
437.104	3.45
437.459	3.45
437.815	3.44
438.171	3.45
438.526	3.44
438.882	3.44
439.237	3.43
439.593	3.43
439.948	3.4
440.304	3.39
440.659	3.41
441.014	3.38
441.369	3.39
441.725	3.4
442.08	3.38
442.435	3.39
442.79	3.38
443.145	3.37
443.5	3.36
443.855	3.36
444.21	3.36
444.565	3.38
444.92	3.4
445.275	3.38
445.629	3.38
445.984	3.38
446.339	3.38
446.693	3.37
447.048	3.36
447.403	3.35
447.757	3.36
448.112	3.34
448.466	3.35
448.82	3.34
449.175	3.34
449.529	3.34
449.883	3.35
450.238	3.34
450.592	3.33
450.946	3.34
451.3	3.34
451.654	3.34
452.008	3.3
452.362	3.27
452.716	3.29
453.07	3.3
453.424	3.3
453.778	3.29
454.132	3.31
454.486	3.33
454.839	3.33
455.193	3.32
455.547	3.34
455.9	3.35
456.254	3.38
456.607	3.37
456.961	3.37
457.314	3.36
457.668	3.38
458.021	3.38
458.375	3.39
458.728	3.39
459.081	3.38
459.434	3.39
459.787	3.39
460.141	3.4
460.494	3.39
460.847	3.39
461.2	3.41
461.553	3.4
461.906	3.41
462.259	3.42
462.611	3.41
462.964	3.42
463.317	3.42
463.67	3.39
464.022	3.39
464.375	3.39
464.728	3.39
465.08	3.38
465.433	3.41
465.785	3.4
466.138	3.41
466.49	3.43
466.843	3.44
467.195	3.47
467.547	3.45
467.899	3.44
468.252	3.45
468.604	3.44
468.956	3.44
469.308	3.43
469.66	3.44
470.012	3.46
470.364	3.44
470.716	3.43
471.068	3.44
471.42	3.45
471.772	3.45
472.123	3.46
472.475	3.48
472.827	3.44
473.178	3.42
473.53	3.43
473.882	3.44
474.233	3.42
474.585	3.41
474.936	3.41
475.288	3.42
475.639	3.41
475.99	3.41
476.342	3.41
476.693	3.39
477.044	3.4
477.395	3.4
477.746	3.41
478.097	3.42
478.448	3.43
478.8	3.44
479.15	3.44
479.501	3.42
479.852	3.43
480.203	3.43
480.554	3.44
480.905	3.44
481.255	3.44
481.606	3.46
481.957	3.46
482.307	3.46
482.658	3.47
483.009	3.47
483.359	3.47
483.709	3.47
484.06	3.48
484.41	3.47
484.761	3.47
485.111	3.47
485.461	3.46
485.811	3.46
486.162	3.45
486.512	3.46
486.862	3.47
487.212	3.47
487.562	3.47
487.912	3.47
488.262	3.47
488.612	3.47
488.961	3.47
489.311	3.45
489.661	3.46
490.011	3.45
490.36	3.46
490.71	3.46
491.06	3.46
491.409	3.46
491.759	3.46
492.108	3.46
492.458	3.45
492.807	3.46
493.157	3.47
493.506	3.47
493.855	3.47
494.204	3.46
494.554	3.45
494.903	3.45
495.252	3.45
495.601	3.46
495.95	3.45
496.299	3.45
496.648	3.46
496.997	3.44
497.346	3.45
497.695	3.45
498.043	3.45
498.392	3.45
498.741	3.46
499.09	3.46
499.438	3.47
499.787	3.47
500.135	3.47
500.484	3.45
500.832	3.44
501.181	3.45
501.529	3.46
501.878	3.46
502.226	3.46
502.574	3.47
502.923	3.47
503.271	3.48
503.619	3.48
503.967	3.48
504.315	3.5
504.663	3.49
505.011	3.49
505.359	3.49
505.707	3.5
506.055	3.5
506.403	3.5
506.751	3.48
507.098	3.51
507.446	3.53
507.794	3.54
508.141	3.56
508.489	3.56
508.837	3.56
509.184	3.57
509.531	3.58
509.879	3.56
510.226	3.58
510.574	3.59
510.921	3.59
511.268	3.59
511.616	3.59
511.963	3.59
512.31	3.61
512.657	3.61
513.004	3.59
513.351	3.59
513.698	3.58
514.045	3.6
514.392	3.58
514.739	3.58
515.086	3.61
515.432	3.6
515.779	3.62
516.126	3.63
516.473	3.62
516.819	3.61
517.166	3.64
517.512	3.63
517.859	3.63
518.205	3.61
518.552	3.62
518.898	3.62
519.245	3.63
519.591	3.63
519.937	3.62
520.283	3.65
520.629	3.65
520.976	3.66
521.322	3.67
521.668	3.68
522.014	3.69
522.36	3.65
522.706	3.64
523.052	3.65
523.398	3.64
523.743	3.64
524.089	3.66
524.435	3.65
524.781	3.66
525.126	3.66
525.472	3.69
525.817	3.68
526.163	3.69
526.509	3.7
526.854	3.71
527.199	3.72
527.545	3.73
527.89	3.73
528.235	3.73
528.581	3.74
528.926	3.75
529.271	3.75
529.616	3.76
529.961	3.76
530.306	3.75
530.651	3.74
530.996	3.76
531.341	3.76
531.686	3.77
532.031	3.76
532.376	3.75
532.721	3.75
533.065	3.76
533.41	3.76
533.755	3.75
534.099	3.75
534.444	3.75
534.788	3.74
535.133	3.73
535.477	3.74
535.822	3.71
536.166	3.7
536.51	3.71
536.855	3.71
537.199	3.72
537.543	3.73
537.887	3.74
538.231	3.73
538.576	3.72
538.92	3.71
539.264	3.72
539.608	3.74
539.951	3.71
540.295	3.71
540.639	3.72
540.983	3.71
541.327	3.71
541.671	3.71
542.014	3.71
542.358	3.72
542.701	3.73
543.045	3.72
543.389	3.73
543.732	3.72
544.075	3.73
544.419	3.73
544.762	3.72
545.105	3.7
545.449	3.71
545.792	3.71
546.135	3.71
546.478	3.7
546.821	3.69
547.165	3.72
547.508	3.71
547.851	3.71
548.194	3.73
548.536	3.73
548.879	3.7
549.222	3.72
549.565	3.72
549.908	3.7
550.25	3.73
550.593	3.73
550.936	3.74
551.278	3.73
551.621	3.72
551.963	3.73
552.306	3.74
552.648	3.72
552.991	3.72
553.333	3.73
553.675	3.77
554.017	3.76
554.36	3.75
554.702	3.74
555.044	3.74
555.386	3.73
555.728	3.72
556.07	3.73
556.412	3.7
556.754	3.7
557.096	3.71
557.438	3.7
557.78	3.69
558.121	3.68
558.463	3.68
558.805	3.68
559.147	3.68
559.488	3.68
559.83	3.69
560.171	3.69
560.513	3.7
560.854	3.68
561.196	3.7
561.537	3.72
561.878	3.75
562.22	3.76
562.561	3.77
562.902	3.76
563.243	3.74
563.584	3.77
563.925	3.77
564.266	3.77
564.607	3.76
564.948	3.76
565.289	3.77
565.63	3.77
565.971	3.79
566.312	3.8
566.653	3.81
566.993	3.8
567.334	3.8
567.675	3.81
568.015	3.81
568.356	3.78
568.696	3.78
569.037	3.75
569.377	3.74
569.718	3.73
570.058	3.74
570.398	3.75
570.739	3.73
571.079	3.74
571.419	3.72
571.759	3.73
572.099	3.73
572.439	3.72
572.779	3.72
573.119	3.69
573.459	3.68
573.799	3.66
574.139	3.65
574.479	3.66
574.819	3.64
575.158	3.64
575.498	3.64
575.838	3.63
576.177	3.63
576.517	3.64
576.856	3.65
577.196	3.66
577.535	3.65
577.875	3.65
578.214	3.62
578.553	3.64
578.893	3.67
579.232	3.67
579.571	3.71
579.91	3.73
580.25	3.78
580.589	3.77
580.928	3.8
581.267	3.81
581.606	3.81
581.945	3.85
582.283	3.87
582.622	3.86
582.961	3.87
583.3	3.88
583.639	3.86
583.977	3.83
584.316	3.84
584.654	3.84
584.993	3.83
585.332	3.87
585.67	3.89
586.008	3.88
586.347	3.88
586.685	3.85
587.024	3.83
587.362	3.84
587.7	3.88
588.038	3.86
588.376	3.86
588.715	3.84
589.053	3.84
589.391	3.83
589.729	3.86
590.067	3.86
590.404	3.89
590.742	3.9
591.08	3.93
591.418	3.92
591.756	3.95
592.093	3.97
592.431	3.95
592.769	3.95
593.106	3.91
593.444	3.92
593.781	3.91
594.119	3.91
594.456	3.88
594.793	3.86
595.131	3.9
595.468	3.91
595.805	3.96
596.143	3.94
596.48	3.97
596.817	3.95
597.154	3.96
597.491	3.93
597.828	3.92
598.165	3.89
598.502	3.87
598.839	3.87
599.176	3.86
599.512	3.86
599.849	3.87
600.186	3.9
600.523	3.88
600.859	3.88
601.196	3.86
601.532	3.83
601.869	3.83
602.205	3.81
602.542	3.77
602.878	3.75
603.215	3.76
603.551	3.71
603.887	3.73
604.223	3.71
604.56	3.72
604.896	3.74
605.232	3.75
605.568	3.78
605.904	3.75
606.24	3.77
606.576	3.8
606.912	3.77
607.248	3.79
607.583	3.81
607.919	3.81
608.255	3.81
608.591	3.87
608.926	3.89
609.262	3.87
609.597	3.9
609.933	3.88
610.268	3.89
610.604	3.9
610.939	3.89
611.275	3.9
611.61	3.93
611.945	3.91
612.281	3.92
612.616	3.89
612.951	3.94
613.286	3.9
613.621	3.92
613.956	3.94
614.291	3.89
614.626	3.92
614.961	3.95
615.296	3.98
615.631	3.96
615.966	3.97
616.3	3.99
616.635	3.96
616.97	4.02
617.304	3.97
617.639	4.02
617.973	3.97
618.308	3.98
618.642	3.96
618.977	3.97
619.311	3.97
619.646	3.98
619.98	3.97
620.314	4.04
620.648	4.01
620.983	4
621.317	4.05
621.651	4.01
621.985	3.97
622.319	3.93
622.653	3.93
622.987	3.93
623.321	3.98
623.655	4
623.988	4.01
624.322	4.06
624.656	4.04
624.99	4.08
625.323	4.06
625.657	4.06
625.99	4.07
626.324	4.04
626.657	4.06
626.991	4.03
627.324	3.96
627.658	3.93
627.991	3.95
628.324	3.93
628.657	3.93
628.991	3.97
629.324	3.99
629.657	3.98
629.99	3.98
630.323	3.95
630.656	3.96
630.989	3.89
631.322	3.89
631.655	3.9
631.987	3.93
632.32	3.94
632.653	3.96
632.986	3.93
633.318	3.94
633.651	3.97
633.984	4.04
634.316	4.06
634.649	4.07
634.981	4.04
635.313	4.04
635.646	4.05
635.978	4.07
636.31	4
636.643	4
636.975	4.06
637.307	4.06
637.639	4.04
637.971	4.07
638.303	4.04
638.635	4.04
638.967	3.97
639.299	3.94
639.631	3.94
639.963	3.92
640.295	3.92
640.626	3.91
640.958	3.85
641.29	3.81
641.621	3.79
641.953	3.8
642.285	3.8
642.616	3.84
642.948	3.82
643.279	3.87
643.61	3.91
643.942	3.88
644.273	3.92
644.604	3.85
644.936	3.83
645.267	3.87
645.598	3.86
645.929	3.9
646.26	3.91
646.591	3.94
646.922	4.02
647.253	3.98
647.584	3.92
647.915	3.92
648.245	3.92
648.576	3.94
648.907	3.91
649.238	3.86
649.568	3.86
649.899	3.83
650.229	3.82
650.56	3.79
650.89	3.78
651.221	3.82
651.551	3.87
651.882	3.82
652.212	3.79
652.542	3.83
652.872	3.83
653.203	3.84
653.533	3.88
653.863	3.85
654.193	3.9
654.523	3.89
654.853	3.95
655.183	4.02
655.513	4.01
655.843	4.05
656.172	4.09
656.502	4.01
656.832	4.01
657.162	4.05
657.491	4.12
657.821	4.12
658.15	4.09
658.48	4.15
658.809	4.23
659.139	4.23
659.468	4.24
659.798	4.22
660.127	4.26
660.456	4.22
660.785	4.18
661.115	4.15
661.444	4.16
661.773	4.18
662.102	4.23
662.431	4.25
662.76	4.25
663.089	4.3
663.418	4.39
663.747	4.41
664.076	4.4
664.404	4.34
664.733	4.38
665.062	4.31
665.39	4.31
665.719	4.26
666.048	4.26
666.376	4.21
666.705	4.26
667.033	4.26
667.362	4.27
667.69	4.35
668.018	4.42
668.347	4.46
668.675	4.46
669.003	4.39
669.331	4.4
669.659	4.38
669.987	4.32
670.315	4.24
670.643	4.28
670.971	4.22
671.299	4.18
671.627	4.1
671.955	4.14
672.283	4.11
672.61	4.2
672.938	4.18
673.266	4.21
673.593	4.22
673.921	4.13
674.249	4.07
674.576	4.07
674.904	4.02
675.231	3.95
675.558	3.95
675.886	3.94
676.213	3.9
676.54	3.97
676.867	3.95
677.195	4.05
677.522	4.06
677.849	4.18
678.176	4.22
678.503	4.24
678.83	4.31
679.157	4.31
679.484	4.23
679.81	4.27
680.137	4.32
680.464	4.34
680.791	4.42
681.117	4.48
681.444	4.41
681.771	4.47
682.097	4.55
682.424	4.45
682.75	4.46
683.077	4.47
683.403	4.44
683.729	4.43
684.056	4.41
684.382	4.43
684.708	4.38
685.034	4.47
685.36	4.53
685.686	4.46
686.012	4.47
686.339	4.51
686.664	4.47
686.99	4.42
687.316	4.44
687.642	4.47
687.968	4.48
688.294	4.6
688.619	4.56
688.945	4.59
689.271	4.62
689.596	4.68
689.922	4.7
690.247	4.73
690.573	4.88
690.898	4.99
691.224	5
691.549	5.08
691.874	5.04
692.2	5
692.525	4.96
692.85	4.95
693.175	4.98
693.5	4.98
693.825	4.97
694.15	4.92
694.475	4.91
694.8	4.88
695.125	4.8
695.45	4.79
695.775	4.77
696.099	4.87
696.424	4.83
696.749	4.85
697.073	4.8
697.398	4.79
697.723	4.69
698.047	4.69
698.372	4.69
698.696	4.65
699.02	4.67
699.345	4.79
699.669	4.87
699.993	4.85
700.318	4.94
700.642	4.89
700.966	4.94
701.29	4.96
701.614	4.93
701.938	4.94
702.262	4.95
702.586	4.98
702.91	4.98
703.234	5.02
703.557	5.12
703.881	5.24
704.205	5.24
704.529	5.28
704.852	5.17
705.176	5.12
705.499	5.17
705.823	5.11
706.146	5.02
706.47	4.97
706.793	5.02
707.117	4.91
707.44	4.97
707.763	4.93
708.086	4.84
708.409	4.95
708.733	4.9
709.056	4.96
709.379	5
709.702	4.96
710.025	5.01
710.348	4.88
710.671	4.86
710.993	4.79
711.316	4.76
711.639	4.86
711.962	4.93
712.284	5.03
712.607	5.03
712.93	5.11
713.252	5.05
713.575	5
713.897	5.03
714.22	5
714.542	4.93
714.864	4.91
715.187	4.81
715.509	4.76
715.831	4.73
716.153	4.62
716.475	4.71
716.798	4.63
717.12	4.75
717.442	4.71
717.764	4.71
718.085	4.75
718.407	4.73
718.729	4.65
719.051	4.58
719.373	4.73
719.695	4.62
720.016	4.63
720.338	4.66
720.659	4.6
720.981	4.59
721.302	4.67
721.624	4.81
721.945	4.91
722.267	5.26
722.588	5.27
722.909	5.37
723.231	5.19
723.552	5.2
723.873	5.26
724.194	5.21
724.515	5.17
724.836	5.1
725.157	5.23
725.478	5.37
725.799	5.27
726.12	5.23
726.441	5.24
726.762	5.31
727.083	5.3
727.403	5.4
727.724	5.62
728.045	5.63
728.365	5.56
728.686	5.63
729.006	5.38
729.327	5.37
729.647	5.32
729.967	5.31
730.288	5.44
730.608	5.28
730.928	5.38
731.249	5.56
731.569	5.54
731.889	5.45
732.209	5.28
732.529	5.32
732.849	5.27
733.169	5.4
733.489	5.39
733.809	5.29
734.129	5.27
734.448	5.19
734.768	5.08
735.088	5.1
735.408	4.93
735.727	5.08
736.047	5.2
736.366	5.25
736.686	5.27
737.005	5.17
737.325	5.21
737.644	5.09
737.963	4.95
738.283	4.87
738.602	4.83
738.921	4.79
739.24	4.86
739.56	4.99
739.879	4.68
740.198	4.5
740.517	4.63
740.836	4.44
741.155	4.39
741.473	4.56
741.792	4.6
742.111	4.71
742.43	4.78
742.748	4.74
743.067	4.56
743.386	4.59
743.704	4.49
744.023	4.48
744.341	4.54
744.66	4.43
744.978	4.5
745.297	4.6
745.615	4.53
745.933	4.42
746.252	4.38
746.57	4.81
746.888	4.84
747.206	4.9
747.524	5.25
747.842	5.07
748.16	5.08
748.478	4.96
748.796	4.86
749.114	4.62
749.432	4.64
749.749	4.85
750.067	4.87
750.385	4.95
750.703	4.73
751.02	4.85
751.338	5.11
751.655	4.98
751.973	4.94
752.29	5.16
752.608	5.15
752.925	5.12
753.242	5.03
753.56	5.26
753.877	5.27
754.194	5.2
754.511	5.39
754.828	5.32
755.145	5.5
755.462	5.5
755.779	5.54
756.096	5.54
756.413	5.55
756.73	5.69
757.047	5.48
757.364	5.67
757.68	5.55
757.997	5.48
758.314	5.74
758.63	5.63
758.947	5.7
759.264	5.79
759.58	5.85
759.896	5.72
760.213	5.91
760.529	6.01
760.846	6.17
761.162	6.1
761.478	6.31
761.794	6.19
762.11	6.34
762.426	6.38
762.743	6.29
763.059	6.16
763.375	6.22
763.69	6.47
764.006	6.69
764.322	6.62
764.638	6.63
764.954	6.76
765.27	6.91
765.585	6.86
765.901	6.72
766.216	6.58
766.532	6.62
766.848	6.56
767.163	6.36
767.478	6.12
767.794	6.05
768.109	5.79
768.424	5.93
768.74	5.8
769.055	5.81
769.37	5.67
769.685	5.84
770	5.84
770.315	5.66
770.63	5.65
770.945	5.87
771.26	5.96
771.575	5.71
771.89	5.59
772.205	5.58
772.52	5.85
772.834	5.85
773.149	5.84
773.464	5.75
773.778	5.73
774.093	5.78
774.407	6.11
774.722	6.6
775.036	6.77
775.351	7.21
775.665	7.24
775.979	7.18
776.293	7.21
776.608	6.99
776.922	6.97
777.236	6.99
777.55	6.56
777.864	6.59
778.178	6.71
778.492	6.67
778.806	6.64
779.12	6.42
779.434	6.66
779.747	7.14
780.061	7.08
780.375	7.42
780.689	7.57
781.002	7.29
781.316	7.06
781.629	7.09
781.943	6.41
782.256	6.28
782.57	6.93
782.883	6.79
783.196	6.85
783.51	7.23
783.823	6.68
784.136	7.07
784.449	6.93
784.762	6.96
785.075	7.33
785.388	7.63
785.701	7.81
786.014	7.54
786.327	7.12
786.64	7.13
786.953	6.89
787.266	6.55
787.578	6.77
787.891	6.93
788.204	6.8
788.516	7.22
788.829	7.5
789.141	6.96
789.454	7.19
789.766	7.3
790.079	7.1
790.391	7.51
790.703	7.6
791.016	7.7
791.328	7.81
791.64	7.59
791.952	7.18
792.264	7.24
792.576	7.25
792.888	7.4
793.2	7.62
793.512	7.63
793.824	7.72
794.136	7.91
794.448	7.91
794.76	7.65
795.071	7.6
795.383	7.2
795.695	7.43
796.006	7.61
796.318	7.67
796.629	7.5
796.941	7.03
797.252	6.82
797.564	6.83
797.875	6.58
798.186	6.41
798.497	6.65
798.809	6.31
799.12	6.14
799.431	6.21
799.742	6.09
800.053	6.14
800.364	6.6
800.675	6.26
800.986	6.07
801.297	6.23
801.608	6.16
801.918	6.46
802.229	6.4
802.54	6.06
802.851	5.79
803.161	6.21
803.472	6.78
803.782	7.48
804.093	7.25
804.403	7.61
804.714	7.79
805.024	7.56
805.334	8.25
805.645	8.43
805.955	8.21
806.265	7.81
806.575	8.24
806.885	8.3
807.195	8.5
807.505	8.4
807.815	8.57
808.125	8.07
808.435	8.15
808.745	8.41
809.055	8.68
809.365	9.06
809.674	8.67
809.984	8.49
810.294	7.67
810.603	7.43
810.913	6.88
811.222	6.79
811.532	7
811.841	7.12
812.151	7.58
812.46	7.11
812.769	6.86
813.079	6.51
813.388	6.27
813.697	5.85
814.006	5.91
814.315	4.87
814.624	5.53
814.933	5.24
815.242	5.09
815.551	4.76
815.86	4.89
816.169	5.43
816.478	5.56
816.786	5.5
817.095	6.29
817.404	6.09
817.712	6.69
818.021	7.2
818.33	6.8
818.638	6.64
818.947	7.04
819.255	7.77
819.563	8.01
819.872	7.81
820.18	8.44
820.488	8.52
820.796	8.72
821.105	8.59
821.413	8.58
821.721	8.43
822.029	8.38
822.337	8.33
822.645	8.24
822.953	8.23
823.26	8.32
823.568	8.2
823.876	8.35
824.184	8.33
824.491	8.13
824.799	8.17
825.107	8.18
825.414	8.32
825.722	8.09
826.029	7.92
826.337	7.99
826.644	7.7
826.951	7.6
827.259	7.75
827.566	7.72
827.873	7.81
828.18	8.06
828.488	8.1
828.795	8.1
829.102	8.2
829.409	8.06
829.716	8.05
830.023	8.32
830.329	8.4
830.636	8.09
830.943	8.11
831.25	8.21
831.557	8.09
831.863	7.8
832.17	8.09
832.476	8.46
832.783	8.06
833.089	8.18
833.396	8.25
833.702	7.69
834.009	7.93
834.315	7.94
834.621	7.79
834.928	8.08
835.234	7.91
835.54	7.56
835.846	7.7
836.152	7.76
836.458	7.2
836.764	7.11
837.07	7.27
837.376	7.73
837.682	7.24
837.988	7.25
838.293	7.11
838.599	7.24
838.905	7.21
839.211	7.78
839.516	7.9
839.822	8.07
840.127	8.52
840.433	8.95
840.738	9.09
841.044	8.6
841.349	7.8
841.654	8.33
841.959	9.2
842.265	9.79
842.57	9.54
842.875	10.12
843.18	9.13
843.485	8.6
843.79	8.08
844.095	9.89
844.4	10.99
844.705	11.3
845.01	11.76
845.315	11.65
845.619	12.11
845.924	11.09
846.229	11.25
846.533	11.45
846.838	10.66
847.142	9.53
847.447	10.73
847.751	9.95
848.056	9.31
848.36	8.7
848.664	7.34
848.969	8.48
849.273	7.93
849.577	9.19
849.881	8.97
850.185	8.37
850.489	6.09
850.794	4.88
851.097	4.29
851.401	2.59
851.705	2.1
852.009	1.94
852.313	2.21
852.617	2.49
852.92	3.21
853.224	3.01
853.528	4.26
853.831	4.93
854.135	6.61
854.438	6.38
854.742	6.52
855.045	7.04
855.349	6.34
855.652	6.18
855.955	5.59
856.259	8.54
856.562	9.08
856.865	10.41
857.168	11.05
857.471	12.05
857.774	14.25
858.077	13.9
858.38	14.36
858.683	16.13
858.986	16.98
859.289	17.82
859.592	16.66
859.894	15.97
860.197	14.95
860.5	15.2
860.802	15.82
861.105	15.84
861.407	15.08
861.71	14.42
862.012	15.47
862.315	15.72
862.617	14.38
862.919	13.38
863.222	12.51
863.524	13.41
863.826	13.6
864.128	13.45
864.43	15.49
864.732	14.2
865.034	14.78
865.336	14.17
865.638	14.61
865.94	15.04
866.242	15.9
866.544	16.34
866.846	17.1
867.147	17.83
867.449	19.18
867.751	20.01
868.052	19.76
868.354	18.11
868.655	19.02
868.957	17.84
869.258	20.23
869.56	20.87
869.861	18.27
870.162	17.34
870.463	17.66
870.765	16.56
871.066	17.25
871.367	14.66
871.668	14.48
871.969	12.12
872.27	14.37
872.571	13.14
872.872	11.04
873.173	10
873.473	6.92
873.774	5.62
874.075	6.61
874.376	6.76
874.676	7.51
874.977	10.39
875.277	10.27
875.578	9.01
875.878	8.63
876.179	10.08
876.479	10.84
876.78	9.1
877.08	8.09
877.38	8
877.68	9.31
877.981	8.18
878.281	9.22
878.581	6.97
