Data from BU57653_Reflection_00009.txt Node
Date: Mon Nov 18 16:52:14 EST 2019
User: vgr7
Spectrometer: USB2G7710
Scans to average: 3
Trigger mode: 4
Integration Time (sec): 2.000000E-2
Electric dark correction enabled: true
Boxcar width: 10
XAxis mode: Wavelengths
Number of Pixels in Spectrum: 2048
>>>>>Begin Spectral Data<<<<<
177.721	117.06
178.105	-39.04
178.488	-29.49
178.871	-35.79
179.254	-92.24
179.636	2.04
180.019	-1.44
180.402	80
180.785	49.16
181.168	179.9
181.55	60.6
181.933	113.56
182.316	150.17
182.698	134.46
183.081	175.57
183.463	837.64
183.846	344.2
184.228	285.78
184.611	339.37
184.993	628.43
185.376	-1333.07
185.758	634.16
186.14	1780.67
186.522	-351.61
186.904	-183.2
187.287	-277.4
187.669	-177.57
188.051	-322.72
188.433	-348.74
188.815	-101.33
189.197	-27.63
189.579	-45.45
189.961	-50.77
190.342	-30.91
190.724	-23.12
191.106	-16.12
191.488	-19.44
191.869	-16
192.251	-39.59
192.633	-25.94
193.014	-21.02
193.396	-33.79
193.777	-39.67
194.159	-34.65
194.54	-38.79
194.922	2.92
195.303	2.12
195.684	18.08
196.065	28.13
196.447	21.25
196.828	-11.28
197.209	-29.85
197.59	-29.35
197.971	-18.79
198.352	-2.02
198.733	0.7
199.114	5.59
199.495	-3.55
199.876	-9.7
200.257	5.66
200.638	13.13
201.018	11.1
201.399	28.21
201.78	42.34
202.16	46.49
202.541	51.85
202.922	21.04
203.302	0.7
203.683	-14.22
204.063	-25.4
204.444	-20.39
204.824	-31.75
205.204	-3.38
205.585	17.11
205.965	6.35
206.345	-38.91
206.725	-115.71
207.106	-763.91
207.486	-3521.62
207.866	196.18
208.246	700.76
208.626	-879.25
209.006	-184.16
209.386	-231.47
209.766	-309.76
210.145	-197.95
210.525	-158.9
210.905	-89.53
211.285	-84.78
211.664	-77.36
212.044	-88.28
212.424	-92.95
212.803	-68.44
213.183	-56.78
213.562	-61.88
213.942	-51.43
214.321	-28.48
214.701	-35.22
215.08	-31.86
215.459	-34.05
215.838	-9.48
216.218	-4.76
216.597	0.44
216.976	-15.18
217.355	4.64
217.734	2.55
218.113	17.46
218.492	17.58
218.871	1.74
219.25	14.81
219.629	-13.55
220.008	-24.9
220.387	-11.89
220.766	-14.55
221.144	-31.09
221.523	-23.94
221.902	-32.86
222.28	-37.25
222.659	-6.28
223.037	-7.44
223.416	-10.26
223.794	-16.01
224.173	-19.8
224.551	-23.87
224.929	-15.21
225.308	-19.25
225.686	-17.62
226.064	-10.93
226.442	-9.83
226.821	-8.71
227.199	-11.94
227.577	-9.15
227.955	-4.32
228.333	-3.85
228.711	-4.54
229.089	-2.69
229.467	-4.37
229.845	-4.62
230.222	-7.91
230.6	-10.97
230.978	-11.21
231.356	-8.06
231.733	-8.54
232.111	-5.73
232.488	-4.78
232.866	-5.51
233.243	-2.33
233.621	-2.92
233.998	-1.62
234.376	-4.39
234.753	-4.44
235.13	-5.21
235.508	-4.84
235.885	-4.27
236.262	-4.11
236.639	-4.2
237.016	-3.29
237.393	-1.39
237.77	0.69
238.147	1.97
238.524	1.99
238.901	2.18
239.278	2.54
239.655	3.66
240.032	3
240.409	2.83
240.785	3.25
241.162	2.75
241.539	3.26
241.915	2.98
242.292	3.15
242.668	3.57
243.045	4.1
243.421	3.92
243.798	3.35
244.174	3.3
244.551	3.25
244.927	2.97
245.303	3.23
245.679	2.88
246.056	2.96
246.432	2.9
246.808	2.95
247.184	2.66
247.56	2.26
247.936	2.29
248.312	2.43
248.688	2.31
249.064	2.33
249.44	2.29
249.815	2.34
250.191	2.54
250.567	2.31
250.943	2.19
251.318	2.44
251.694	2.4
252.069	2.51
252.445	2.74
252.82	2.9
253.196	2.71
253.571	2.69
253.947	2.58
254.322	2.8
254.697	2.68
255.073	2.61
255.448	2.65
255.823	2.67
256.198	2.66
256.573	2.7
256.948	2.68
257.323	2.62
257.698	2.55
258.073	2.47
258.448	2.59
258.823	2.52
259.198	2.34
259.573	2.6
259.948	2.48
260.322	2.47
260.697	2.48
261.072	2.32
261.446	2.3
261.821	2.18
262.195	2.23
262.57	2.23
262.944	2.21
263.319	2.3
263.693	2.27
264.067	2.24
264.442	2.43
264.816	2.49
265.19	2.58
265.564	2.55
265.938	2.45
266.313	2.34
266.687	2.42
267.061	2.45
267.435	2.3
267.809	2.32
268.183	2.34
268.556	2.22
268.93	2.42
269.304	2.64
269.678	2.7
270.051	2.72
270.425	2.66
270.799	2.78
271.172	2.71
271.546	2.57
271.919	2.51
272.293	2.35
272.666	2.31
273.04	2.26
273.413	2.23
273.787	2.4
274.16	2.53
274.533	2.58
274.906	2.54
275.279	2.52
275.653	2.51
276.026	2.4
276.399	2.46
276.772	2.47
277.145	2.29
277.518	2.37
277.891	2.3
278.263	2.41
278.636	2.48
279.009	2.37
279.382	2.65
279.755	2.63
280.127	2.74
280.5	2.68
280.872	2.64
281.245	2.61
281.617	2.55
281.99	2.6
282.362	2.68
282.735	2.61
283.107	2.61
283.479	2.61
283.852	2.6
284.224	2.57
284.596	2.53
284.968	2.71
285.34	2.8
285.713	2.76
286.085	2.82
286.457	2.9
286.829	2.91
287.201	2.86
287.572	2.81
287.944	2.74
288.316	2.79
288.688	2.78
289.06	2.83
289.431	2.86
289.803	2.8
290.175	2.74
290.546	2.85
290.918	2.92
291.289	2.92
291.661	2.96
292.032	3.19
292.403	3.2
292.775	3.21
293.146	3.1
293.517	3.11
293.889	3.11
294.26	2.99
294.631	3.12
295.002	3.1
295.373	3.17
295.744	3.06
296.115	2.94
296.486	2.88
296.857	2.97
297.228	3.11
297.599	3.08
297.97	3.07
298.34	3.15
298.711	3.12
299.082	3.2
299.452	3.27
299.823	3.14
300.194	3.07
300.564	2.94
300.935	2.94
301.305	2.98
301.676	2.98
302.046	3.08
302.416	2.97
302.787	2.95
303.157	3.11
303.527	3.39
303.897	3.56
304.267	3.78
304.637	3.82
305.008	3.64
305.378	3.7
305.748	3.81
306.117	3.77
306.487	3.78
306.857	3.85
307.227	3.83
307.597	3.95
307.967	4.04
308.336	4.09
308.706	4.13
309.076	4.24
309.445	4.23
309.815	4.16
310.184	4.32
310.554	4.39
310.923	4.32
311.293	4.27
311.662	4.14
312.031	4.12
312.401	4.1
312.77	4.21
313.139	4.29
313.508	4.25
313.877	4.17
314.246	4.29
314.616	4.24
314.985	4.21
315.353	4.14
315.722	4.29
316.091	4.53
316.46	4.67
316.829	4.82
317.198	4.95
317.567	5.05
317.935	5.02
318.304	5.1
318.672	5.18
319.041	5.25
319.41	5.39
319.778	5.39
320.147	5.27
320.515	5.21
320.883	5.15
321.252	5.23
321.62	5.39
321.988	5.32
322.357	5.39
322.725	5.36
323.093	5.38
323.461	5.42
323.829	5.4
324.197	5.32
324.565	5.27
324.933	5.25
325.301	5.31
325.669	5.33
326.037	5.35
326.405	5.35
326.772	5.47
327.14	5.61
327.508	5.7
327.875	5.88
328.243	6.01
328.61	6.06
328.978	6.13
329.346	6.25
329.713	6.17
330.08	6.18
330.448	6.22
330.815	6.23
331.182	6.13
331.55	6.16
331.917	6.29
332.284	6.38
332.651	6.38
333.018	6.44
333.385	6.47
333.752	6.5
334.119	6.55
334.486	6.38
334.853	6.41
335.22	6.34
335.587	6.42
335.954	6.35
336.32	6.38
336.687	6.42
337.054	6.39
337.42	6.54
337.787	6.64
338.153	6.8
338.52	6.84
338.886	6.77
339.253	6.61
339.619	6.59
339.986	6.52
340.352	6.6
340.718	6.54
341.084	6.62
341.451	6.73
341.817	6.79
342.183	6.84
342.549	6.83
342.915	6.81
343.281	6.78
343.647	6.85
344.013	6.87
344.379	6.86
344.745	6.88
345.11	6.82
345.476	6.81
345.842	6.78
346.208	6.73
346.573	6.86
346.939	7
347.304	6.97
347.67	6.98
348.035	7.08
348.401	7.06
348.766	7.03
349.132	6.99
349.497	6.97
349.862	6.99
350.228	6.94
350.593	6.91
350.958	6.97
351.323	6.93
351.688	6.86
352.053	6.8
352.418	6.8
352.783	6.87
353.148	6.9
353.513	6.95
353.878	7.01
354.243	7.1
354.608	7.04
354.972	7.1
355.337	7.01
355.702	6.92
356.066	7.02
356.431	6.97
356.795	6.92
357.16	6.88
357.524	6.83
357.889	6.82
358.253	6.86
358.618	6.8
358.982	6.77
359.346	6.73
359.71	6.69
360.075	6.68
360.439	6.57
360.803	6.46
361.167	6.39
361.531	6.4
361.895	6.3
362.259	6.22
362.623	6.18
362.987	6.11
363.351	6.04
363.714	5.92
364.078	5.87
364.442	5.78
364.806	5.72
365.169	5.68
365.533	5.63
365.896	5.58
366.26	5.47
366.623	5.38
366.987	5.38
367.35	5.33
367.714	5.22
368.077	5.23
368.44	5.28
368.803	5.17
369.167	5.03
369.53	4.91
369.893	4.89
370.256	4.79
370.619	4.78
370.982	4.71
371.345	4.68
371.708	4.67
372.071	4.59
372.434	4.49
372.797	4.41
373.159	4.36
373.522	4.37
373.885	4.38
374.247	4.43
374.61	4.38
374.973	4.34
375.335	4.34
375.698	4.31
376.06	4.22
376.423	4.21
376.785	4.18
377.147	4.24
377.51	4.21
377.872	4.22
378.234	4.25
378.596	4.25
378.958	4.19
379.321	4.1
379.683	4.07
380.045	4.05
380.407	4.05
380.769	4.02
381.13	3.95
381.492	3.88
381.854	3.83
382.216	3.79
382.578	3.75
382.939	3.73
383.301	3.71
383.663	3.67
384.024	3.65
384.386	3.65
384.747	3.64
385.109	3.61
385.47	3.55
385.832	3.49
386.193	3.47
386.554	3.43
386.916	3.44
387.277	3.47
387.638	3.49
387.999	3.47
388.36	3.47
388.721	3.47
389.082	3.49
389.443	3.45
389.804	3.42
390.165	3.38
390.526	3.33
390.887	3.31
391.248	3.32
391.609	3.3
391.969	3.27
392.33	3.2
392.691	3.2
393.051	3.19
393.412	3.17
393.772	3.14
394.133	3.14
394.493	3.13
394.854	3.13
395.214	3.08
395.574	3.07
395.935	3.03
396.295	2.97
396.655	2.93
397.015	2.93
397.376	2.91
397.736	2.94
398.096	2.94
398.456	2.91
398.816	2.86
399.176	2.88
399.535	2.84
399.895	2.83
400.255	2.81
400.615	2.79
400.975	2.77
401.334	2.75
401.694	2.76
402.054	2.71
402.413	2.7
402.773	2.69
403.132	2.67
403.492	2.67
403.851	2.67
404.211	2.65
404.57	2.62
404.929	2.63
405.288	2.58
405.648	2.56
406.007	2.53
406.366	2.53
406.725	2.5
407.084	2.47
407.443	2.46
407.802	2.47
408.161	2.47
408.52	2.46
408.879	2.47
409.238	2.45
409.596	2.46
409.955	2.46
410.314	2.48
410.673	2.49
411.031	2.47
411.39	2.46
411.748	2.46
412.107	2.5
412.465	2.47
412.824	2.49
413.182	2.49
413.54	2.52
413.899	2.53
414.257	2.53
414.615	2.54
414.974	2.52
415.332	2.5
415.69	2.45
416.048	2.42
416.406	2.38
416.764	2.37
417.122	2.38
417.48	2.34
417.838	2.34
418.195	2.32
418.553	2.31
418.911	2.28
419.269	2.29
419.626	2.29
419.984	2.28
420.342	2.26
420.699	2.24
421.057	2.23
421.414	2.2
421.772	2.2
422.129	2.21
422.486	2.21
422.844	2.21
423.201	2.22
423.558	2.24
423.915	2.25
424.273	2.25
424.63	2.23
424.987	2.23
425.344	2.22
425.701	2.24
426.058	2.24
426.415	2.24
426.772	2.22
427.128	2.2
427.485	2.2
427.842	2.2
428.199	2.2
428.555	2.21
428.912	2.23
429.269	2.22
429.625	2.22
429.982	2.2
430.338	2.19
430.695	2.2
431.051	2.19
431.407	2.18
431.764	2.19
432.12	2.19
432.476	2.19
432.832	2.19
433.189	2.16
433.545	2.16
433.901	2.18
434.257	2.17
434.613	2.17
434.969	2.18
435.325	2.17
435.681	2.18
436.036	2.17
436.392	2.15
436.748	2.16
437.104	2.14
437.459	2.15
437.815	2.16
438.171	2.15
438.526	2.15
438.882	2.16
439.237	2.14
439.593	2.15
439.948	2.14
440.304	2.14
440.659	2.14
441.014	2.15
441.369	2.13
441.725	2.12
442.08	2.12
442.435	2.12
442.79	2.13
443.145	2.12
443.5	2.13
443.855	2.13
444.21	2.12
444.565	2.14
444.92	2.14
445.275	2.11
445.629	2.11
445.984	2.11
446.339	2.09
446.693	2.09
447.048	2.08
447.403	2.06
447.757	2.06
448.112	2.07
448.466	2.04
448.82	2.05
449.175	2.07
449.529	2.06
449.883	2.05
450.238	2.03
450.592	2.02
450.946	2
451.3	1.99
451.654	1.98
452.008	1.96
452.362	1.96
452.716	1.98
453.07	1.98
453.424	1.98
453.778	1.97
454.132	1.97
454.486	1.98
454.839	1.99
455.193	1.98
455.547	1.98
455.9	2.01
456.254	2.02
456.607	2.03
456.961	2.03
457.314	2.05
457.668	2.05
458.021	2.05
458.375	2.06
458.728	2.08
459.081	2.09
459.434	2.09
459.787	2.11
460.141	2.1
460.494	2.1
460.847	2.1
461.2	2.1
461.553	2.11
461.906	2.11
462.259	2.13
462.611	2.15
462.964	2.15
463.317	2.14
463.67	2.13
464.022	2.12
464.375	2.13
464.728	2.12
465.08	2.13
465.433	2.17
465.785	2.15
466.138	2.14
466.49	2.15
466.843	2.14
467.195	2.13
467.547	2.16
467.899	2.17
468.252	2.18
468.604	2.2
468.956	2.2
469.308	2.21
469.66	2.18
470.012	2.19
470.364	2.19
470.716	2.2
471.068	2.21
471.42	2.23
471.772	2.22
472.123	2.24
472.475	2.26
472.827	2.26
473.178	2.27
473.53	2.28
473.882	2.27
474.233	2.29
474.585	2.28
474.936	2.25
475.288	2.25
475.639	2.25
475.99	2.24
476.342	2.25
476.693	2.24
477.044	2.25
477.395	2.25
477.746	2.25
478.097	2.24
478.448	2.23
478.8	2.22
479.15	2.21
479.501	2.19
479.852	2.18
480.203	2.17
480.554	2.17
480.905	2.16
481.255	2.15
481.606	2.15
481.957	2.16
482.307	2.17
482.658	2.15
483.009	2.15
483.359	2.15
483.709	2.15
484.06	2.14
484.41	2.14
484.761	2.14
485.111	2.14
485.461	2.14
485.811	2.14
486.162	2.13
486.512	2.14
486.862	2.15
487.212	2.15
487.562	2.15
487.912	2.14
488.262	2.14
488.612	2.15
488.961	2.15
489.311	2.15
489.661	2.17
490.011	2.17
490.36	2.17
490.71	2.17
491.06	2.16
491.409	2.17
491.759	2.17
492.108	2.19
492.458	2.19
492.807	2.19
493.157	2.21
493.506	2.22
493.855	2.22
494.204	2.24
494.554	2.25
494.903	2.26
495.252	2.26
495.601	2.28
495.95	2.29
496.299	2.32
496.648	2.31
496.997	2.3
497.346	2.33
497.695	2.35
498.043	2.37
498.392	2.41
498.741	2.43
499.09	2.44
499.438	2.44
499.787	2.46
500.135	2.49
500.484	2.5
500.832	2.53
501.181	2.56
501.529	2.56
501.878	2.57
502.226	2.6
502.574	2.63
502.923	2.66
503.271	2.66
503.619	2.67
503.967	2.7
504.315	2.74
504.663	2.78
505.011	2.8
505.359	2.83
505.707	2.86
506.055	2.89
506.403	2.94
506.751	2.98
507.098	3.02
507.446	3.05
507.794	3.08
508.141	3.1
508.489	3.13
508.837	3.17
509.184	3.23
509.531	3.28
509.879	3.32
510.226	3.38
510.574	3.43
510.921	3.5
511.268	3.52
511.616	3.58
511.963	3.63
512.31	3.71
512.657	3.77
513.004	3.84
513.351	3.93
513.698	3.97
514.045	4.01
514.392	4.09
514.739	4.19
515.086	4.27
515.432	4.35
515.779	4.41
516.126	4.48
516.473	4.55
516.819	4.61
517.166	4.68
517.512	4.72
517.859	4.78
518.205	4.82
518.552	4.91
518.898	4.96
519.245	5.03
519.591	5.08
519.937	5.13
520.283	5.19
520.629	5.25
520.976	5.35
521.322	5.44
521.668	5.5
522.014	5.55
522.36	5.63
522.706	5.72
523.052	5.85
523.398	5.96
523.743	6.06
524.089	6.18
524.435	6.27
524.781	6.39
525.126	6.51
525.472	6.61
525.817	6.69
526.163	6.77
526.509	6.84
526.854	6.91
527.199	6.99
527.545	7.05
527.89	7.11
528.235	7.17
528.581	7.26
528.926	7.34
529.271	7.42
529.616	7.5
529.961	7.58
530.306	7.65
530.651	7.72
530.996	7.81
531.341	7.9
531.686	8
532.031	8.08
532.376	8.16
532.721	8.26
533.065	8.35
533.41	8.47
533.755	8.58
534.099	8.7
534.444	8.82
534.788	8.96
535.133	9.07
535.477	9.19
535.822	9.32
536.166	9.45
536.51	9.59
536.855	9.75
537.199	9.89
537.543	10.08
537.887	10.26
538.231	10.43
538.576	10.58
538.92	10.74
539.264	10.92
539.608	11.09
539.951	11.23
540.295	11.38
540.639	11.52
540.983	11.68
541.327	11.82
541.671	11.95
542.014	12.08
542.358	12.22
542.701	12.36
543.045	12.51
543.389	12.67
543.732	12.81
544.075	12.96
544.419	13.13
544.762	13.27
545.105	13.44
545.449	13.63
545.792	13.83
546.135	14.04
546.478	14.23
546.821	14.46
547.165	14.66
547.508	14.9
547.851	15.13
548.194	15.35
548.536	15.6
548.879	15.85
549.222	16.08
549.565	16.35
549.908	16.62
550.25	16.89
550.593	17.16
550.936	17.44
551.278	17.7
551.621	17.97
551.963	18.23
552.306	18.49
552.648	18.73
552.991	19.01
553.333	19.27
553.675	19.58
554.017	19.81
554.36	20.12
554.702	20.42
555.044	20.69
555.386	20.99
555.728	21.27
556.07	21.54
556.412	21.86
556.754	22.14
557.096	22.44
557.438	22.67
557.78	22.93
558.121	23.21
558.463	23.52
558.805	23.81
559.147	24.14
559.488	24.41
559.83	24.75
560.171	25.06
560.513	25.36
560.854	25.63
561.196	25.95
561.537	26.27
561.878	26.54
562.22	26.83
562.561	27.08
562.902	27.41
563.243	27.68
563.584	27.92
563.925	28.22
564.266	28.5
564.607	28.76
564.948	29.02
565.289	29.33
565.63	29.57
565.971	29.81
566.312	30.07
566.653	30.34
566.993	30.6
567.334	30.85
567.675	31.09
568.015	31.34
568.356	31.63
568.696	31.86
569.037	32.12
569.377	32.32
569.718	32.62
570.058	32.83
570.398	33.08
570.739	33.37
571.079	33.59
571.419	33.81
571.759	34.13
572.099	34.34
572.439	34.56
572.779	34.81
573.119	35.09
573.459	35.34
573.799	35.57
574.139	35.81
574.479	36.03
574.819	36.23
575.158	36.46
575.498	36.61
575.838	36.84
576.177	37.07
576.517	37.32
576.856	37.51
577.196	37.75
577.535	38.01
577.875	38.24
578.214	38.52
578.553	38.75
578.893	38.88
579.232	39.11
579.571	39.3
579.91	39.49
580.25	39.65
580.589	39.85
580.928	40.06
581.267	40.25
581.606	40.47
581.945	40.67
582.283	40.85
582.622	41.16
582.961	41.32
583.3	41.48
583.639	41.76
583.977	41.98
584.316	42.16
584.654	42.37
584.993	42.52
585.332	42.65
585.67	42.85
586.008	43.07
586.347	43.28
586.685	43.43
587.024	43.61
587.362	43.73
587.7	43.94
588.038	44.12
588.376	44.21
588.715	44.27
589.053	44.44
589.391	44.59
589.729	44.69
590.067	44.82
590.404	44.91
590.742	44.96
591.08	45.06
591.418	45.23
591.756	45.34
592.093	45.4
592.431	45.53
592.769	45.69
593.106	45.79
593.444	45.93
593.781	46.13
594.119	46.18
594.456	46.29
594.793	46.31
595.131	46.41
595.468	46.54
595.805	46.7
596.143	46.83
596.48	46.94
596.817	47.03
597.154	47.13
597.491	47.27
597.828	47.37
598.165	47.47
598.502	47.53
598.839	47.63
599.176	47.77
599.512	47.93
599.849	48.02
600.186	48.19
600.523	48.23
600.859	48.24
601.196	48.45
601.532	48.64
601.869	48.75
602.205	48.82
602.542	48.99
602.878	49.05
603.215	49.06
603.551	49.11
603.887	49.15
604.223	49.28
604.56	49.34
604.896	49.45
605.232	49.51
605.568	49.57
605.904	49.65
606.24	49.73
606.576	49.78
606.912	49.83
607.248	49.84
607.583	49.99
607.919	50.13
608.255	50.15
608.591	50.15
608.926	50.24
609.262	50.36
609.597	50.39
609.933	50.5
610.268	50.55
610.604	50.66
610.939	50.72
611.275	50.77
611.61	50.76
611.945	50.82
612.281	50.86
612.616	50.9
612.951	50.93
613.286	50.96
613.621	50.97
613.956	51.06
614.291	51.13
614.626	51.14
614.961	51.14
615.296	51.15
615.631	51.26
615.966	51.32
616.3	51.39
616.635	51.36
616.97	51.44
617.304	51.46
617.639	51.47
617.973	51.55
618.308	51.55
618.642	51.64
618.977	51.63
619.311	51.74
619.646	51.78
619.98	51.85
620.314	51.94
620.648	51.98
620.983	52
621.317	52.03
621.651	52.1
621.985	52.18
622.319	52.31
622.653	52.26
622.987	52.28
623.321	52.28
623.655	52.35
623.988	52.3
624.322	52.53
624.656	52.59
624.99	52.6
625.323	52.6
625.657	52.66
625.99	52.79
626.324	52.79
626.657	52.83
626.991	52.84
627.324	52.85
627.658	52.89
627.991	52.96
628.324	53
628.657	52.98
628.991	53.01
629.324	52.99
629.657	53.06
629.99	53.11
630.323	53.1
630.656	53.19
630.989	53.34
631.322	53.24
631.655	53.24
631.987	53.34
632.32	53.38
632.653	53.48
632.986	53.48
633.318	53.47
633.651	53.5
633.984	53.52
634.316	53.52
634.649	53.6
634.981	53.58
635.313	53.63
635.646	53.72
635.978	53.76
636.31	53.79
636.643	53.8
636.975	53.82
637.307	53.86
637.639	53.83
637.971	53.73
638.303	53.74
638.635	53.81
638.967	53.76
639.299	53.77
639.631	53.72
639.963	53.59
640.295	53.73
640.626	53.82
640.958	53.8
641.29	53.94
641.621	53.89
641.953	53.85
642.285	53.92
642.616	53.85
642.948	53.85
643.279	53.95
643.61	53.97
643.942	53.95
644.273	54.08
644.604	54.07
644.936	54.07
645.267	54.22
645.598	54.19
645.929	54.12
646.26	54.24
646.591	54.18
646.922	54.34
647.253	54.33
647.584	54.29
647.915	54.3
648.245	54.21
648.576	54.24
648.907	54.24
649.238	54.25
649.568	54.35
649.899	54.36
650.229	54.38
650.56	54.48
650.89	54.48
651.221	54.45
651.551	54.59
651.882	54.65
652.212	54.56
652.542	54.68
652.872	54.87
653.203	54.85
653.533	55.02
653.863	55.01
654.193	54.88
654.523	54.92
654.853	55.07
655.183	55.2
655.513	55.21
655.843	55.32
656.172	55.41
656.502	55.39
656.832	55.4
657.162	55.52
657.491	55.5
657.821	55.64
658.15	55.66
658.48	55.48
658.809	55.55
659.139	55.54
659.468	55.52
659.798	55.54
660.127	55.48
660.456	55.46
660.785	55.51
661.115	55.55
661.444	55.51
661.773	55.43
662.102	55.37
662.431	55.4
662.76	55.38
663.089	55.22
663.418	55.26
663.747	55.3
664.076	55.07
664.404	55.18
664.733	55.04
665.062	55.06
665.39	55.1
665.719	55.11
666.048	55.23
666.376	55.13
666.705	55.13
667.033	55.25
667.362	55.19
667.69	55.2
668.018	55.28
668.347	55.31
668.675	55.35
669.003	55.37
669.331	55.28
669.659	55.31
669.987	55.23
670.315	55.17
670.643	55.21
670.971	55.36
671.299	55.37
671.627	55.49
671.955	55.35
672.283	55.34
672.61	55.38
672.938	55.35
673.266	55.52
673.593	55.56
673.921	55.51
674.249	55.53
674.576	55.39
674.904	55.44
675.231	55.5
675.558	55.39
675.886	55.41
676.213	55.48
676.54	55.4
676.867	55.57
677.195	55.73
677.522	55.66
677.849	55.72
678.176	55.72
678.503	55.7
678.83	55.89
679.157	55.96
679.484	55.84
679.81	55.83
680.137	55.73
680.464	55.61
680.791	55.66
681.117	55.74
681.444	55.87
681.771	55.92
682.097	55.88
682.424	56.03
682.75	56.06
683.077	56.09
683.403	56.26
683.729	56.26
684.056	56.2
684.382	56.23
684.708	56.12
685.034	56.04
685.36	56.08
685.686	56.07
686.012	56.09
686.339	56.08
686.664	56.16
686.99	56.2
687.316	56.16
687.642	56.03
687.968	55.95
688.294	56.07
688.619	56.08
688.945	56.04
689.271	55.87
689.596	55.87
689.922	55.94
690.247	55.93
690.573	55.89
690.898	55.88
691.224	55.8
691.549	55.91
691.874	55.98
692.2	55.96
692.525	55.85
692.85	55.92
693.175	55.94
693.5	55.68
693.825	55.56
694.15	55.67
694.475	55.65
694.8	55.69
695.125	55.42
695.45	55.36
695.775	55.41
696.099	55.6
696.424	55.51
696.749	55.36
697.073	55.3
697.398	55.34
697.723	55.3
698.047	55.29
698.372	55.29
698.696	55.21
699.02	55.17
699.345	55.29
699.669	55.3
699.993	55.38
700.318	55.61
700.642	55.68
700.966	55.68
701.29	55.69
701.614	55.72
701.938	55.81
702.262	55.71
702.586	55.64
702.91	55.68
703.234	55.73
703.557	55.77
703.881	55.64
704.205	55.58
704.529	55.59
704.852	55.59
705.176	55.64
705.499	55.71
705.823	55.55
706.146	55.43
706.47	55.46
706.793	55.37
707.117	55.16
707.44	55.09
707.763	55.15
708.086	55.43
708.409	55.41
708.733	55.53
709.056	55.6
709.379	55.75
709.702	55.7
710.025	55.57
710.348	55.64
710.671	55.76
710.993	55.94
711.316	55.94
711.639	56
711.962	55.86
712.284	55.94
712.607	56.03
712.93	56.18
713.252	56.08
713.575	56
713.897	56.24
714.22	56.44
714.542	56.42
714.864	56.3
715.187	56.17
715.509	56.06
715.831	56.11
716.153	56.22
716.475	56
716.798	56.19
717.12	56.17
717.442	56.08
717.764	55.94
718.085	55.93
718.407	56.03
718.729	56.14
719.051	55.96
719.373	55.95
719.695	55.78
720.016	55.71
720.338	55.86
720.659	55.71
720.981	55.51
721.302	55.5
721.624	55.49
721.945	55.51
722.267	55.43
722.588	55.48
722.909	55.31
723.231	55.36
723.552	55.24
723.873	55.33
724.194	55.5
724.515	55.56
724.836	55.55
725.157	55.62
725.478	55.75
725.799	55.85
726.12	56.07
726.441	56.26
726.762	56.42
727.083	56.28
727.403	56.26
727.724	56.2
728.045	56.08
728.365	56.05
728.686	56.27
729.006	56.26
729.327	56.35
729.647	56.34
729.967	56.57
730.288	56.73
730.608	56.66
730.928	56.62
731.249	56.48
731.569	56.67
731.889	56.46
732.209	56.32
732.529	56.5
732.849	56.52
733.169	56.2
733.489	56.06
733.809	56.13
734.129	56.17
734.448	56.17
734.768	56.24
735.088	56.36
735.408	56
735.727	55.96
736.047	55.84
736.366	56
736.686	55.91
737.005	55.92
737.325	56.19
737.644	56.12
737.963	56.29
738.283	56.06
738.602	56.2
738.921	56.01
739.24	55.94
739.56	55.71
739.879	55.57
740.198	55.59
740.517	55.49
740.836	55.42
741.155	55.65
741.473	55.72
741.792	55.79
742.111	56.05
742.43	56.29
742.748	56.18
743.067	55.88
743.386	55.73
743.704	55.6
744.023	55.32
744.341	55.65
744.66	55.73
744.978	55.75
745.297	55.68
745.615	55.68
745.933	55.59
746.252	55.53
746.57	55.95
746.888	55.87
747.206	55.8
747.524	55.86
747.842	55.81
748.16	55.88
748.478	55.85
748.796	55.9
749.114	55.58
749.432	55.83
749.749	55.96
750.067	56.1
750.385	56.13
750.703	56.23
751.02	55.68
751.338	55.59
751.655	55.55
751.973	55.72
752.29	55.26
752.608	55.25
752.925	55.63
753.242	55.95
753.56	56.19
753.877	56.43
754.194	56.37
754.511	56.53
754.828	56.39
755.145	56.17
755.462	56.15
755.779	56.54
756.096	56.36
756.413	56.36
756.73	56.34
757.047	56.05
757.364	56.06
757.68	56.59
757.997	56.78
758.314	56.58
758.63	56.3
758.947	56.96
759.264	56.78
759.58	56.33
759.896	56.17
760.213	56.01
760.529	56.12
760.846	56.19
761.162	55.95
761.478	55.74
761.794	55.69
762.11	56.07
762.426	55.85
762.743	55.87
763.059	56
763.375	56.25
763.69	56.81
764.006	56.68
764.322	56.62
764.638	56.62
764.954	57.06
765.27	57.1
765.585	57.07
765.901	57.13
766.216	57.29
766.532	57.29
766.848	57.34
767.163	57.14
767.478	57.46
767.794	57.7
768.109	58.03
768.424	58.08
768.74	57.89
769.055	58.17
769.37	58.11
769.685	57.84
770	57.69
770.315	57.09
770.63	57.28
770.945	57.15
771.26	57
771.575	57.02
771.89	57.01
772.205	57.19
772.52	57.44
772.834	57.76
773.149	57.86
773.464	58.07
773.778	58.27
774.093	57.6
774.407	57.72
774.722	57.57
775.036	57.79
775.351	57.46
775.665	57.94
775.979	58.24
776.293	58.56
776.608	58.35
776.922	58.64
777.236	58.36
777.55	58.16
777.864	58.13
778.178	57.75
778.492	58.18
778.806	57.85
779.12	57.6
779.434	57.26
779.747	57.01
780.061	56.78
780.375	56.9
780.689	57.05
781.002	57.01
781.316	57.6
781.629	57.53
781.943	57.51
782.256	57.45
782.57	57.24
782.883	56.98
783.196	57.06
783.51	56.77
783.823	56.85
784.136	57
784.449	57.03
784.762	57.02
785.075	57.13
785.388	57.12
785.701	56.69
786.014	56.61
786.327	56.54
786.64	56.82
786.953	56.65
787.266	56.34
787.578	55.91
787.891	55.51
788.204	55.52
788.516	55.92
788.829	55.08
789.141	55.44
789.454	55.48
789.766	55.64
790.079	55.93
790.391	55.7
790.703	55.77
791.016	55.89
791.328	56.1
791.64	55.72
791.952	55.92
792.264	56.13
792.576	55.73
792.888	55.57
793.2	55.55
793.512	56.02
793.824	56.56
794.136	56.35
794.448	56.52
794.76	56.84
795.071	56.54
795.383	57.07
795.695	56.42
796.006	56.8
796.318	56.6
796.629	56.32
796.941	56.57
797.252	56.85
797.564	57.12
797.875	57.29
798.186	57.24
798.497	56.93
798.809	56.77
799.12	56.97
799.431	57.15
799.742	56.48
800.053	56.19
800.364	55.68
800.675	56.56
800.986	56.64
801.297	56.37
801.608	56.27
801.918	56.13
802.229	56.66
802.54	56.42
802.851	56.35
803.161	56.38
803.472	55.81
803.782	55.04
804.093	54.25
804.403	53.55
804.714	53.9
805.024	53.83
805.334	54.05
805.645	54.67
805.955	54.1
806.265	54.07
806.575	54
806.885	54.73
807.195	54.24
807.505	53.96
807.815	53.58
808.125	53.7
808.435	54.13
808.745	54
809.055	53.61
809.365	53.62
809.674	53.8
809.984	54.45
810.294	55.04
810.603	55.81
810.913	56.09
811.222	56.62
811.532	56.17
811.841	55.81
812.151	55.56
812.46	56.5
812.769	56.61
813.079	56.65
813.388	56.19
813.697	56.57
814.006	56.42
814.315	56.26
814.624	55.82
814.933	55.95
815.242	55.49
815.551	56.68
815.86	56.44
816.169	56.21
816.478	56.21
816.786	55.57
817.095	55.91
817.404	55.48
817.712	55.29
818.021	56.51
818.33	56.81
818.638	56.24
818.947	55.43
819.255	55.89
819.563	55.68
819.872	55.42
820.18	55.69
820.488	56.16
820.796	56.55
821.105	56.7
821.413	56.28
821.721	56.41
822.029	56.19
822.337	56.37
822.645	56.54
822.953	56.35
823.26	56.47
823.568	56.49
823.876	56.69
824.184	56.58
824.491	56.3
824.799	56.48
825.107	56.39
825.414	56.55
825.722	56.58
826.029	56.54
826.337	56.86
826.644	56.76
826.951	56.5
827.259	56.53
827.566	56.47
827.873	56.79
828.18	56.84
828.488	56.81
828.795	56.89
829.102	56.91
829.409	57.28
829.716	57.37
830.023	57.12
830.329	56.85
830.636	57.24
830.943	57.68
831.25	57.51
831.557	58.16
831.863	58.26
832.17	58.27
832.476	58.39
832.783	57.99
833.089	58.1
833.396	58.3
833.702	57.88
834.009	57.91
834.315	57.53
834.621	57.47
834.928	57.42
835.234	57.16
835.54	56.83
835.846	56.65
836.152	56.7
836.458	56.82
836.764	56.97
837.07	56.51
837.376	56.26
837.682	56.08
837.988	55.79
838.293	55.33
838.599	55.45
838.905	55.77
839.211	56.45
839.516	55.51
839.822	55.46
840.127	54.72
840.433	55.04
840.738	55.48
841.044	56.03
841.349	56.02
841.654	57.02
841.959	57.43
842.265	58.4
842.57	58.02
842.875	57.42
843.18	57.1
843.485	56.61
843.79	56.76
844.095	58.17
844.4	59.37
844.705	59.12
845.01	57.73
845.315	56.71
845.619	56.08
845.924	58.22
846.229	57.64
846.533	59.22
846.838	59.81
847.142	59.78
847.447	58.46
847.751	58.4
848.056	57.51
848.36	57.23
848.664	56.88
848.969	56.26
849.273	55.56
849.577	56.02
849.881	56.53
850.185	57.22
850.489	56.75
850.794	57.87
851.097	60.02
851.401	60.87
851.705	60.62
852.009	58.37
852.313	55.7
852.617	56.1
852.92	57.28
853.224	54.14
853.528	53.93
853.831	54.61
854.135	54.12
854.438	54.07
854.742	54.15
855.045	55.35
855.349	56.21
855.652	56.4
855.955	57.66
856.259	58.02
856.562	57.88
856.865	54.49
857.168	51.88
857.471	51.05
857.774	54.27
858.077	55.51
858.38	58.19
858.683	58.79
858.986	59.53
859.289	61.93
859.592	65.17
859.894	63.61
860.197	65.09
860.5	65.31
860.802	64.35
861.105	66.38
861.407	63.32
861.71	62.86
862.012	65.37
862.315	64.41
862.617	64.16
862.919	62.81
863.222	62.02
863.524	62.06
863.826	65.05
864.128	62.29
864.43	62.75
864.732	62.85
865.034	60.71
865.336	61.38
865.638	57.37
865.94	55.1
866.242	55.93
866.544	56.04
866.846	56.53
867.147	56.43
867.449	54.98
867.751	56.68
868.052	54.78
868.354	56.56
868.655	56.43
868.957	55.03
869.258	57.88
869.56	60.03
869.861	61.95
870.162	60.07
870.463	59.33
870.765	58.95
871.066	58.05
871.367	61.25
871.668	60.48
871.969	61.66
872.27	63.56
872.571	65.19
872.872	63.24
873.173	63.24
873.473	64.12
873.774	64.23
874.075	63.34
874.376	67.05
874.676	64.67
874.977	65.07
875.277	64.94
875.578	64.35
875.878	64.89
876.179	63.37
876.479	63.51
876.78	64.44
877.08	65.65
877.38	66.2
877.68	65.64
877.981	65.89
878.281	65.08
878.581	65.33
