Data from BU57614_Reflection_00005.txt Node
Date: Mon Nov 18 16:24:20 EST 2019
User: vgr7
Spectrometer: USB2G7710
Scans to average: 3
Trigger mode: 4
Integration Time (sec): 2.000000E-2
Electric dark correction enabled: true
Boxcar width: 10
XAxis mode: Wavelengths
Number of Pixels in Spectrum: 2048
>>>>>Begin Spectral Data<<<<<
177.721	-692.33
178.105	128.75
178.488	104.23
178.871	303.52
179.254	234.95
179.636	-31.07
180.019	-33.8
180.402	54.72
180.785	117.21
181.168	-1536.36
181.55	148.5
181.933	87.68
182.316	98.41
182.698	126.72
183.081	139.79
183.463	164.01
183.846	209.14
184.228	354.95
184.611	243.89
184.993	391.22
185.376	-12782.35
185.758	-7244.83
186.14	2329.36
186.522	-3916.95
186.904	-968.67
187.287	-956.94
187.669	-219.64
188.051	-192.12
188.433	-67.29
188.815	-47.28
189.197	-60.74
189.579	-51.47
189.961	-79.94
190.342	-79.75
190.724	-63.05
191.106	-84.03
191.488	-96.89
191.869	-73.19
192.251	-67.06
192.633	-72.89
193.014	-72.37
193.396	-140.96
193.777	-126.71
194.159	-105.54
194.54	-91.4
194.922	-58.73
195.303	-34.87
195.684	-38.78
196.065	-35.51
196.447	-37.8
196.828	-42.22
197.209	-42.42
197.59	-35.43
197.971	-25.75
198.352	-15.14
198.733	-18.62
199.114	-3.19
199.495	-4.59
199.876	-0.54
200.257	16.21
200.638	18.56
201.018	17.03
201.399	25.63
201.78	37.05
202.16	38.25
202.541	30.29
202.922	30.5
203.302	19.12
203.683	25.72
204.063	4.67
204.444	-6.66
204.824	2.13
205.204	17.05
205.585	19.61
205.965	23.66
206.345	15.27
206.725	18.96
207.106	24.2
207.486	26.79
207.866	20.01
208.246	4.77
208.626	-9.4
209.006	4.13
209.386	2.4
209.766	-8.51
210.145	-1.82
210.525	12.73
210.905	14.75
211.285	16.65
211.664	12.55
212.044	15.57
212.424	19.68
212.803	20.71
213.183	23.51
213.562	14.89
213.942	16.79
214.321	19.06
214.701	17.95
215.08	7.72
215.459	9.31
215.838	10.12
216.218	14.01
216.597	23.98
216.976	20.7
217.355	11.73
217.734	6.32
218.113	7.78
218.492	3.08
218.871	1.11
219.25	5.36
219.629	-1.25
220.008	0.84
220.387	2.29
220.766	0.5
221.144	-3.69
221.523	-2.13
221.902	-15.06
222.28	-16.08
222.659	-10.6
223.037	-7.42
223.416	-12.06
223.794	-11.69
224.173	-11.08
224.551	-12.85
224.929	-11.3
225.308	-5.88
225.686	-3.37
226.064	-1.96
226.442	2.06
226.821	3.94
227.199	-2.18
227.577	3.73
227.955	3.38
228.333	2.14
228.711	5.26
229.089	5.82
229.467	6.96
229.845	7.13
230.222	5.47
230.6	3.6
230.978	2.87
231.356	4.93
231.733	4.02
232.111	4.11
232.488	6.28
232.866	5.83
233.243	6.57
233.621	5.23
233.998	5.77
234.376	3.7
234.753	2.49
235.13	4.49
235.508	3.6
235.885	4.04
236.262	3.31
236.639	2.2
237.016	3.73
237.393	4.18
237.77	5.64
238.147	7.05
238.524	7.92
238.901	8.31
239.278	7.99
239.655	8.45
240.032	8.04
240.409	6.79
240.785	6.22
241.162	6.59
241.539	6.99
241.915	6.59
242.292	6.48
242.668	6.39
243.045	6.34
243.421	5.97
243.798	5.69
244.174	5.84
244.551	5.49
244.927	4.9
245.303	4.99
245.679	4.77
246.056	4.43
246.432	4.5
246.808	4.57
247.184	4.35
247.56	4.09
247.936	4
248.312	4.03
248.688	4.21
249.064	4.1
249.44	4
249.815	3.92
250.191	4.24
250.567	4.36
250.943	4.33
251.318	4.82
251.694	5.08
252.069	5.13
252.445	5.56
252.82	5.71
253.196	5.55
253.571	5.61
253.947	5.6
254.322	5.47
254.697	5.12
255.073	4.93
255.448	5.05
255.823	5.25
256.198	5.32
256.573	5.46
256.948	5.36
257.323	5.26
257.698	5.33
258.073	5.13
258.448	5.11
258.823	5.04
259.198	4.63
259.573	4.4
259.948	4.35
260.322	4.28
260.697	4.22
261.072	4.43
261.446	4.62
261.821	4.71
262.195	4.68
262.57	4.74
262.944	4.88
263.319	4.86
263.693	4.83
264.067	4.91
264.442	4.88
264.816	4.74
265.19	4.76
265.564	4.82
265.938	4.78
266.313	4.66
266.687	4.79
267.061	4.96
267.435	5.27
267.809	5.16
268.183	5.16
268.556	5.23
268.93	5.02
269.304	4.94
269.678	4.9
270.051	5.03
270.425	5.01
270.799	4.97
271.172	5.02
271.546	5.02
271.919	4.86
272.293	4.71
272.666	4.92
273.04	4.96
273.413	4.87
273.787	4.97
274.16	5.09
274.533	4.93
274.906	4.88
275.279	4.69
275.653	4.77
276.026	4.74
276.399	4.66
276.772	4.57
277.145	4.47
277.518	4.48
277.891	4.31
278.263	4.39
278.636	4.39
279.009	4.22
279.382	4.23
279.755	4.18
280.127	4.48
280.5	4.31
280.872	4.35
281.245	4.37
281.617	4.44
281.99	4.46
282.362	4.51
282.735	4.4
283.107	4.46
283.479	4.45
283.852	4.37
284.224	4.44
284.596	4.51
284.968	4.64
285.34	4.67
285.713	4.58
286.085	4.59
286.457	4.67
286.829	4.71
287.201	4.71
287.572	4.67
287.944	4.45
288.316	4.53
288.688	4.59
289.06	4.58
289.431	4.53
289.803	4.57
290.175	4.49
290.546	4.52
290.918	4.44
291.289	4.38
291.661	4.42
292.032	4.54
292.403	4.52
292.775	4.41
293.146	4.27
293.517	4.34
293.889	4.26
294.26	4.14
294.631	4.14
295.002	4.08
295.373	4.18
295.744	4.3
296.115	4.28
296.486	4.18
296.857	4.23
297.228	4.28
297.599	4.23
297.97	4.34
298.34	4.48
298.711	4.6
299.082	4.72
299.452	4.76
299.823	4.67
300.194	4.77
300.564	4.76
300.935	4.86
301.305	4.85
301.676	4.98
302.046	5.17
302.416	5.38
302.787	5.44
303.157	5.54
303.527	5.43
303.897	5.52
304.267	5.57
304.637	5.62
305.008	5.61
305.378	5.61
305.748	5.7
306.117	5.68
306.487	5.61
306.857	5.5
307.227	5.43
307.597	5.47
307.967	5.32
308.336	5.29
308.706	5.3
309.076	5.36
309.445	5.18
309.815	4.95
310.184	4.86
310.554	4.84
310.923	4.75
311.293	4.73
311.662	4.54
312.031	4.58
312.401	4.57
312.77	4.63
313.139	4.62
313.508	4.57
313.877	4.48
314.246	4.48
314.616	4.59
314.985	4.64
315.353	4.54
315.722	4.64
316.091	4.6
316.46	4.57
316.829	4.46
317.198	4.67
317.567	4.81
317.935	4.81
318.304	4.78
318.672	4.75
319.041	4.84
319.41	5.06
319.778	4.95
320.147	4.81
320.515	4.64
320.883	4.56
321.252	4.53
321.62	4.61
321.988	4.62
322.357	4.58
322.725	4.47
323.093	4.55
323.461	4.47
323.829	4.7
324.197	4.66
324.565	4.71
324.933	4.7
325.301	4.72
325.669	4.71
326.037	4.74
326.405	4.86
326.772	4.94
327.14	4.9
327.508	4.9
327.875	4.79
328.243	4.76
328.61	4.75
328.978	4.88
329.346	4.86
329.713	4.82
330.08	4.86
330.448	5
330.815	4.81
331.182	4.75
331.55	4.55
331.917	4.71
332.284	4.87
332.651	4.68
333.018	4.74
333.385	4.78
333.752	4.85
334.119	4.76
334.486	4.71
334.853	4.72
335.22	4.68
335.587	4.82
335.954	4.84
336.32	4.82
336.687	4.68
337.054	4.67
337.42	4.74
337.787	4.7
338.153	4.69
338.52	4.78
338.886	4.8
339.253	4.7
339.619	4.7
339.986	4.55
340.352	4.75
340.718	4.68
341.084	4.61
341.451	4.67
341.817	4.69
342.183	4.6
342.549	4.56
342.915	4.74
343.281	4.8
343.647	4.77
344.013	4.82
344.379	4.78
344.745	4.88
345.11	4.73
345.476	4.69
345.842	4.66
346.208	4.67
346.573	4.67
346.939	4.88
347.304	4.8
347.67	4.82
348.035	4.69
348.401	4.69
348.766	4.72
349.132	4.62
349.497	4.66
349.862	4.79
350.228	4.78
350.593	4.62
350.958	4.48
351.323	4.59
351.688	4.6
352.053	4.71
352.418	4.65
352.783	4.73
353.148	4.73
353.513	4.79
353.878	4.8
354.243	4.83
354.608	4.79
354.972	4.78
355.337	4.88
355.702	4.93
356.066	5.02
356.431	5.02
356.795	5.06
357.16	4.98
357.524	4.84
357.889	4.84
358.253	4.93
358.618	5.02
358.982	4.93
359.346	4.87
359.71	4.8
360.075	4.77
360.439	4.8
360.803	4.81
361.167	4.77
361.531	4.75
361.895	4.74
362.259	4.7
362.623	4.75
362.987	4.68
363.351	4.61
363.714	4.59
364.078	4.53
364.442	4.43
364.806	4.44
365.169	4.55
365.533	4.54
365.896	4.51
366.26	4.49
366.623	4.51
366.987	4.56
367.35	4.61
367.714	4.67
368.077	4.64
368.44	4.67
368.803	4.58
369.167	4.5
369.53	4.44
369.893	4.46
370.256	4.37
370.619	4.39
370.982	4.45
371.345	4.41
371.708	4.48
372.071	4.53
372.434	4.5
372.797	4.47
373.159	4.43
373.522	4.44
373.885	4.43
374.247	4.5
374.61	4.51
374.973	4.44
375.335	4.39
375.698	4.34
376.06	4.31
376.423	4.4
376.785	4.54
377.147	4.63
377.51	4.66
377.872	4.64
378.234	4.62
378.596	4.65
378.958	4.62
379.321	4.61
379.683	4.62
380.045	4.62
380.407	4.58
380.769	4.64
381.13	4.61
381.492	4.63
381.854	4.57
382.216	4.56
382.578	4.58
382.939	4.56
383.301	4.58
383.663	4.58
384.024	4.55
384.386	4.58
384.747	4.52
385.109	4.49
385.47	4.51
385.832	4.5
386.193	4.49
386.554	4.52
386.916	4.46
387.277	4.45
387.638	4.49
387.999	4.5
388.36	4.47
388.721	4.46
389.082	4.45
389.443	4.48
389.804	4.48
390.165	4.48
390.526	4.5
390.887	4.48
391.248	4.49
391.609	4.5
391.969	4.46
392.33	4.48
392.691	4.48
393.051	4.45
393.412	4.46
393.772	4.38
394.133	4.35
394.493	4.37
394.854	4.35
395.214	4.33
395.574	4.32
395.935	4.34
396.295	4.36
396.655	4.34
397.015	4.3
397.376	4.29
397.736	4.28
398.096	4.29
398.456	4.27
398.816	4.28
399.176	4.23
399.535	4.23
399.895	4.18
400.255	4.16
400.615	4.17
400.975	4.16
401.334	4.21
401.694	4.22
402.054	4.17
402.413	4.23
402.773	4.21
403.132	4.2
403.492	4.21
403.851	4.18
404.211	4.17
404.57	4.15
404.929	4.15
405.288	4.11
405.648	4.09
406.007	4.12
406.366	4.07
406.725	4.09
407.084	4.09
407.443	4.11
407.802	4.13
408.161	4.12
408.52	4.1
408.879	4.1
409.238	4.07
409.596	4.13
409.955	4.07
410.314	4.09
410.673	4.09
411.031	4.07
411.39	4.07
411.748	4.09
412.107	4.11
412.465	4.11
412.824	4.13
413.182	4.12
413.54	4.12
413.899	4.12
414.257	4.11
414.615	4.1
414.974	4.09
415.332	4.07
415.69	4.09
416.048	4.07
416.406	4.07
416.764	4.06
417.122	4.08
417.48	4.06
417.838	4.07
418.195	4.07
418.553	4.05
418.911	4.06
419.269	4.07
419.626	4.07
419.984	4.06
420.342	4.06
420.699	4.05
421.057	4.04
421.414	4.03
421.772	4.03
422.129	4.02
422.486	4.01
422.844	4.01
423.201	3.99
423.558	3.98
423.915	3.97
424.273	3.98
424.63	3.94
424.987	3.96
425.344	3.95
425.701	3.95
426.058	3.97
426.415	3.96
426.772	3.94
427.128	3.93
427.485	3.92
427.842	3.91
428.199	3.92
428.555	3.91
428.912	3.94
429.269	3.95
429.625	3.94
429.982	3.93
430.338	3.91
430.695	3.95
431.051	3.94
431.407	3.95
431.764	3.95
432.12	3.96
432.476	3.96
432.832	3.94
433.189	3.93
433.545	3.91
433.901	3.89
434.257	3.89
434.613	3.9
434.969	3.9
435.325	3.91
435.681	3.92
436.036	3.93
436.392	3.92
436.748	3.91
437.104	3.92
437.459	3.92
437.815	3.94
438.171	3.91
438.526	3.93
438.882	3.92
439.237	3.92
439.593	3.91
439.948	3.92
440.304	3.92
440.659	3.92
441.014	3.92
441.369	3.92
441.725	3.92
442.08	3.91
442.435	3.9
442.79	3.89
443.145	3.89
443.5	3.89
443.855	3.88
444.21	3.88
444.565	3.87
444.92	3.89
445.275	3.87
445.629	3.88
445.984	3.88
446.339	3.86
446.693	3.86
447.048	3.86
447.403	3.86
447.757	3.86
448.112	3.85
448.466	3.85
448.82	3.85
449.175	3.84
449.529	3.84
449.883	3.84
450.238	3.85
450.592	3.84
450.946	3.84
451.3	3.84
451.654	3.85
452.008	3.86
452.362	3.84
452.716	3.85
453.07	3.85
453.424	3.83
453.778	3.84
454.132	3.85
454.486	3.84
454.839	3.83
455.193	3.82
455.547	3.82
455.9	3.83
456.254	3.83
456.607	3.84
456.961	3.85
457.314	3.85
457.668	3.85
458.021	3.84
458.375	3.83
458.728	3.84
459.081	3.82
459.434	3.82
459.787	3.83
460.141	3.83
460.494	3.83
460.847	3.85
461.2	3.84
461.553	3.83
461.906	3.83
462.259	3.83
462.611	3.82
462.964	3.83
463.317	3.83
463.67	3.83
464.022	3.81
464.375	3.8
464.728	3.82
465.08	3.82
465.433	3.83
465.785	3.84
466.138	3.85
466.49	3.88
466.843	3.86
467.195	3.88
467.547	3.88
467.899	3.87
468.252	3.86
468.604	3.88
468.956	3.89
469.308	3.92
469.66	3.91
470.012	3.92
470.364	3.93
470.716	3.93
471.068	3.93
471.42	3.96
471.772	3.99
472.123	3.99
472.475	4
472.827	3.99
473.178	3.97
473.53	3.97
473.882	3.94
474.233	3.99
474.585	3.97
474.936	3.97
475.288	3.97
475.639	3.98
475.99	3.97
476.342	3.99
476.693	3.97
477.044	3.99
477.395	3.99
477.746	3.99
478.097	3.98
478.448	3.98
478.8	3.99
479.15	3.98
479.501	3.97
479.852	3.97
480.203	3.99
480.554	4.01
480.905	4.02
481.255	4.03
481.606	4.02
481.957	4.02
482.307	4.02
482.658	4.02
483.009	4.02
483.359	4.03
483.709	4.03
484.06	4.04
484.41	4.05
484.761	4.04
485.111	4.04
485.461	4.04
485.811	4.04
486.162	4.03
486.512	4.04
486.862	4.04
487.212	4.04
487.562	4.04
487.912	4.03
488.262	4.02
488.612	4.02
488.961	4.02
489.311	4.02
489.661	4.02
490.011	4.03
490.36	4.04
490.71	4.04
491.06	4.02
491.409	4.01
491.759	4
492.108	4.01
492.458	4.02
492.807	4.01
493.157	4.02
493.506	4.03
493.855	4.02
494.204	4.02
494.554	4.02
494.903	4.01
495.252	4.03
495.601	4.04
495.95	4.05
496.299	4.03
496.648	4.04
496.997	4.04
497.346	4.03
497.695	4.03
498.043	4.05
498.392	4.09
498.741	4.11
499.09	4.12
499.438	4.13
499.787	4.13
500.135	4.17
500.484	4.18
500.832	4.19
501.181	4.23
501.529	4.25
501.878	4.27
502.226	4.29
502.574	4.28
502.923	4.27
503.271	4.3
503.619	4.32
503.967	4.33
504.315	4.34
504.663	4.34
505.011	4.36
505.359	4.37
505.707	4.36
506.055	4.36
506.403	4.35
506.751	4.36
507.098	4.36
507.446	4.35
507.794	4.32
508.141	4.36
508.489	4.33
508.837	4.34
509.184	4.36
509.531	4.38
509.879	4.41
510.226	4.43
510.574	4.4
510.921	4.41
511.268	4.43
511.616	4.44
511.963	4.47
512.31	4.48
512.657	4.49
513.004	4.51
513.351	4.55
513.698	4.58
514.045	4.59
514.392	4.6
514.739	4.62
515.086	4.66
515.432	4.67
515.779	4.69
516.126	4.7
516.473	4.71
516.819	4.71
517.166	4.72
517.512	4.72
517.859	4.73
518.205	4.77
518.552	4.75
518.898	4.76
519.245	4.74
519.591	4.73
519.937	4.72
520.283	4.72
520.629	4.71
520.976	4.73
521.322	4.74
521.668	4.76
522.014	4.78
522.36	4.78
522.706	4.78
523.052	4.8
523.398	4.82
523.743	4.82
524.089	4.82
524.435	4.84
524.781	4.86
525.126	4.89
525.472	4.89
525.817	4.9
526.163	4.91
526.509	4.93
526.854	4.95
527.199	4.95
527.545	4.96
527.89	4.98
528.235	4.98
528.581	4.99
528.926	4.99
529.271	5
529.616	5.02
529.961	5.03
530.306	5.04
530.651	5.05
530.996	5.06
531.341	5.08
531.686	5.09
532.031	5.11
532.376	5.11
532.721	5.14
533.065	5.16
533.41	5.18
533.755	5.21
534.099	5.21
534.444	5.24
534.788	5.26
535.133	5.27
535.477	5.29
535.822	5.3
536.166	5.3
536.51	5.31
536.855	5.33
537.199	5.35
537.543	5.34
537.887	5.35
538.231	5.37
538.576	5.38
538.92	5.39
539.264	5.39
539.608	5.39
539.951	5.38
540.295	5.38
540.639	5.4
540.983	5.39
541.327	5.41
541.671	5.42
542.014	5.42
542.358	5.42
542.701	5.42
543.045	5.44
543.389	5.46
543.732	5.47
544.075	5.47
544.419	5.47
544.762	5.49
545.105	5.51
545.449	5.5
545.792	5.51
546.135	5.51
546.478	5.54
546.821	5.55
547.165	5.57
547.508	5.6
547.851	5.59
548.194	5.61
548.536	5.61
548.879	5.61
549.222	5.62
549.565	5.63
549.908	5.62
550.25	5.64
550.593	5.63
550.936	5.6
551.278	5.62
551.621	5.65
551.963	5.67
552.306	5.67
552.648	5.72
552.991	5.74
553.333	5.76
553.675	5.75
554.017	5.79
554.36	5.81
554.702	5.82
555.044	5.83
555.386	5.86
555.728	5.86
556.07	5.89
556.412	5.87
556.754	5.88
557.096	5.89
557.438	5.89
557.78	5.93
558.121	5.99
558.463	5.97
558.805	5.95
559.147	5.91
559.488	5.9
559.83	5.88
560.171	5.86
560.513	5.86
560.854	5.85
561.196	5.85
561.537	5.86
561.878	5.83
562.22	5.87
562.561	5.87
562.902	5.91
563.243	5.88
563.584	5.92
563.925	5.94
564.266	5.91
564.607	5.92
564.948	5.91
565.289	5.92
565.63	5.93
565.971	5.92
566.312	5.94
566.653	5.97
566.993	6.01
567.334	6
567.675	6
568.015	5.99
568.356	5.96
568.696	5.97
569.037	5.99
569.377	5.96
569.718	5.97
570.058	5.96
570.398	5.97
570.739	5.98
571.079	5.97
571.419	6.01
571.759	6.02
572.099	6.02
572.439	5.99
572.779	6.01
573.119	6.03
573.459	6.05
573.799	6.05
574.139	6.02
574.479	6.04
574.819	6.02
575.158	6.04
575.498	6.03
575.838	6.04
576.177	6.04
576.517	6.03
576.856	6.03
577.196	6.01
577.535	6.03
577.875	6.05
578.214	6.05
578.553	6.07
578.893	6.06
579.232	6.04
579.571	6.06
579.91	6.04
580.25	6.07
580.589	6.04
580.928	6.02
581.267	6.05
581.606	6.05
581.945	6.07
582.283	6.08
582.622	6.08
582.961	6.12
583.3	6.09
583.639	6.14
583.977	6.16
584.316	6.16
584.654	6.1
584.993	6.06
585.332	6.08
585.67	6.04
586.008	6.05
586.347	6.08
586.685	6.12
587.024	6.11
587.362	6.12
587.7	6.14
588.038	6.18
588.376	6.16
588.715	6.18
589.053	6.22
589.391	6.19
589.729	6.23
590.067	6.21
590.404	6.24
590.742	6.23
591.08	6.18
591.418	6.22
591.756	6.26
592.093	6.27
592.431	6.23
592.769	6.26
593.106	6.3
593.444	6.28
593.781	6.28
594.119	6.28
594.456	6.27
594.793	6.26
595.131	6.24
595.468	6.24
595.805	6.23
596.143	6.23
596.48	6.26
596.817	6.25
597.154	6.24
597.491	6.26
597.828	6.23
598.165	6.26
598.502	6.26
598.839	6.26
599.176	6.23
599.512	6.27
599.849	6.26
600.186	6.2
600.523	6.2
600.859	6.2
601.196	6.21
601.532	6.22
601.869	6.2
602.205	6.19
602.542	6.2
602.878	6.23
603.215	6.19
603.551	6.22
603.887	6.24
604.223	6.24
604.56	6.18
604.896	6.21
605.232	6.22
605.568	6.2
605.904	6.18
606.24	6.21
606.576	6.18
606.912	6.16
607.248	6.19
607.583	6.23
607.919	6.24
608.255	6.19
608.591	6.23
608.926	6.26
609.262	6.28
609.597	6.27
609.933	6.25
610.268	6.26
610.604	6.26
610.939	6.2
611.275	6.24
611.61	6.29
611.945	6.29
612.281	6.31
612.616	6.33
612.951	6.37
613.286	6.37
613.621	6.44
613.956	6.47
614.291	6.49
614.626	6.5
614.961	6.43
615.296	6.48
615.631	6.44
615.966	6.46
616.3	6.46
616.635	6.48
616.97	6.51
617.304	6.54
617.639	6.53
617.973	6.59
618.308	6.58
618.642	6.56
618.977	6.55
619.311	6.49
619.646	6.5
619.98	6.5
620.314	6.56
620.648	6.52
620.983	6.5
621.317	6.51
621.651	6.5
621.985	6.53
622.319	6.58
622.653	6.58
622.987	6.59
623.321	6.61
623.655	6.6
623.988	6.62
624.322	6.55
624.656	6.59
624.99	6.6
625.323	6.61
625.657	6.64
625.99	6.63
626.324	6.7
626.657	6.71
626.991	6.7
627.324	6.69
627.658	6.72
627.991	6.76
628.324	6.76
628.657	6.74
628.991	6.74
629.324	6.77
629.657	6.82
629.99	6.8
630.323	6.77
630.656	6.81
630.989	6.78
631.322	6.86
631.655	6.83
631.987	6.82
632.32	6.8
632.653	6.72
632.986	6.71
633.318	6.67
633.651	6.66
633.984	6.66
634.316	6.59
634.649	6.58
634.981	6.52
635.313	6.5
635.646	6.47
635.978	6.51
636.31	6.47
636.643	6.44
636.975	6.47
637.307	6.5
637.639	6.43
637.971	6.41
638.303	6.34
638.635	6.31
638.967	6.27
639.299	6.33
639.631	6.36
639.963	6.35
640.295	6.27
640.626	6.22
640.958	6.25
641.29	6.31
641.621	6.31
641.953	6.31
642.285	6.34
642.616	6.39
642.948	6.34
643.279	6.34
643.61	6.32
643.942	6.28
644.273	6.27
644.604	6.32
644.936	6.3
645.267	6.35
645.598	6.43
645.929	6.45
646.26	6.41
646.591	6.52
646.922	6.53
647.253	6.65
647.584	6.69
647.915	6.63
648.245	6.58
648.576	6.61
648.907	6.68
649.238	6.57
649.568	6.63
649.899	6.65
650.229	6.69
650.56	6.72
650.89	6.7
651.221	6.7
651.551	6.65
651.882	6.74
652.212	6.7
652.542	6.63
652.872	6.59
653.203	6.63
653.533	6.56
653.863	6.53
654.193	6.46
654.523	6.39
654.853	6.36
655.183	6.38
655.513	6.33
655.843	6.29
656.172	6.38
656.502	6.31
656.832	6.3
657.162	6.26
657.491	6.28
657.821	6.3
658.15	6.28
658.48	6.28
658.809	6.23
659.139	6.21
659.468	6.25
659.798	6.25
660.127	6.24
660.456	6.24
660.785	6.29
661.115	6.34
661.444	6.42
661.773	6.44
662.102	6.49
662.431	6.61
662.76	6.56
663.089	6.53
663.418	6.54
663.747	6.48
664.076	6.51
664.404	6.46
664.733	6.51
665.062	6.59
665.39	6.63
665.719	6.69
666.048	6.81
666.376	6.79
666.705	6.74
667.033	6.71
667.362	6.73
667.69	6.7
668.018	6.6
668.347	6.59
668.675	6.57
669.003	6.57
669.331	6.51
669.659	6.58
669.987	6.55
670.315	6.57
670.643	6.65
670.971	6.65
671.299	6.72
671.627	6.72
671.955	6.64
672.283	6.65
672.61	6.6
672.938	6.54
673.266	6.64
673.593	6.82
673.921	6.82
674.249	6.78
674.576	6.81
674.904	6.92
675.231	6.93
675.558	7.05
675.886	7.05
676.213	7.03
676.54	6.95
676.867	7.02
677.195	7
677.522	7.01
677.849	6.97
678.176	6.93
678.503	6.91
678.83	6.93
679.157	6.91
679.484	6.87
679.81	6.88
680.137	6.71
680.464	6.64
680.791	6.63
681.117	6.64
681.444	6.64
681.771	6.63
682.097	6.65
682.424	6.59
682.75	6.5
683.077	6.47
683.403	6.59
683.729	6.65
684.056	6.72
684.382	6.72
684.708	6.73
685.034	6.81
685.36	6.78
685.686	6.76
686.012	6.74
686.339	6.85
686.664	6.97
686.99	7.13
687.316	7.13
687.642	7.19
687.968	7.21
688.294	7.2
688.619	7.24
688.945	7.17
689.271	7.3
689.596	7.28
689.922	7.34
690.247	7.3
690.573	7.28
690.898	7.27
691.224	7.37
691.549	7.37
691.874	7.23
692.2	7.31
692.525	7.39
692.85	7.43
693.175	7.45
693.5	7.31
693.825	7.2
694.15	7.18
694.475	7.18
694.8	7.22
695.125	7.11
695.45	7.16
695.775	7.34
696.099	7.27
696.424	7.31
696.749	7.28
697.073	7.23
697.398	7.19
697.723	7.14
698.047	7.05
698.372	7.03
698.696	7.11
699.02	7.05
699.345	7.04
699.669	7.04
699.993	6.91
700.318	6.98
700.642	6.94
700.966	6.93
701.29	6.9
701.614	6.81
701.938	6.96
702.262	6.99
702.586	6.89
702.91	6.83
703.234	6.89
703.557	6.89
703.881	6.86
704.205	6.9
704.529	6.9
704.852	7
705.176	7.05
705.499	7.03
705.823	7.11
706.146	7
706.47	7.11
706.793	7.24
707.117	7.19
707.44	7.26
707.763	7.3
708.086	7.32
708.409	7.4
708.733	7.36
709.056	7.22
709.379	7.37
709.702	7.31
710.025	7.25
710.348	7.18
710.671	7.23
710.993	7.2
711.316	7.25
711.639	7.2
711.962	7.24
712.284	7.24
712.607	7.22
712.93	7.37
713.252	7.25
713.575	7.27
713.897	7.26
714.22	7.35
714.542	7.39
714.864	7.39
715.187	7.43
715.509	7.45
715.831	7.55
716.153	7.49
716.475	7.62
716.798	7.71
717.12	7.88
717.442	8.05
717.764	8.1
718.085	8
718.407	7.99
718.729	7.9
719.051	7.86
719.373	7.95
719.695	7.94
720.016	8.04
720.338	7.92
720.659	7.98
720.981	7.91
721.302	7.76
721.624	7.72
721.945	7.76
722.267	7.73
722.588	7.49
722.909	7.32
723.231	7.2
723.552	7.13
723.873	7.09
724.194	6.99
724.515	6.92
724.836	6.98
725.157	7.1
725.478	7
725.799	7.05
726.12	6.86
726.441	6.9
726.762	6.96
727.083	7.16
727.403	7.04
727.724	7.04
728.045	7.15
728.365	7.18
728.686	7.12
729.006	7.32
729.327	7.42
729.647	7.63
729.967	7.68
730.288	7.78
730.608	7.61
730.928	7.6
731.249	7.66
731.569	7.84
731.889	7.74
732.209	7.86
732.529	7.87
732.849	7.98
733.169	7.87
733.489	7.83
733.809	7.79
734.129	7.74
734.448	7.86
734.768	7.9
735.088	8.06
735.408	8.05
735.727	7.89
736.047	7.92
736.366	7.77
736.686	7.76
737.005	7.75
737.325	7.77
737.644	7.68
737.963	7.62
738.283	7.31
738.602	7.4
738.921	7.43
739.24	7.41
739.56	7.24
739.879	7.41
740.198	7.65
740.517	7.64
740.836	7.84
741.155	7.83
741.473	7.99
741.792	7.79
742.111	7.84
742.43	7.81
742.748	7.7
743.067	7.71
743.386	7.82
743.704	7.75
744.023	7.92
744.341	7.79
744.66	7.89
744.978	8.04
745.297	7.96
745.615	8.31
745.933	8.3
746.252	8.42
746.57	8.17
746.888	7.93
747.206	7.94
747.524	7.74
747.842	7.57
748.16	7.49
748.478	7.62
748.796	7.79
749.114	7.9
749.432	7.9
749.749	7.93
750.067	7.91
750.385	7.74
750.703	7.85
751.02	8.09
751.338	7.89
751.655	7.78
751.973	7.86
752.29	7.47
752.608	7.44
752.925	7.23
753.242	7.21
753.56	7.13
753.877	7.08
754.194	7.01
754.511	7.32
754.828	7.27
755.145	7.29
755.462	7.12
755.779	7.11
756.096	7.18
756.413	7.33
756.73	7.24
757.047	7.36
757.364	7.33
757.68	7.3
757.997	7.25
758.314	7.35
758.63	7.26
758.947	7.42
759.264	7.38
759.58	7.75
759.896	7.93
760.213	8.01
760.529	8.1
760.846	8.21
761.162	7.96
761.478	7.9
761.794	7.9
762.11	8.07
762.426	8.04
762.743	8.21
763.059	8.19
763.375	8.22
763.69	8.34
764.006	8.28
764.322	8.44
764.638	8.69
764.954	9.06
765.27	9.09
765.585	9.12
765.901	9.27
766.216	9.33
766.532	9.07
766.848	9.16
767.163	9.15
767.478	9.42
767.794	9.67
768.109	9.63
768.424	9.64
768.74	9.65
769.055	9.67
769.37	9.55
769.685	9.59
770	9.83
770.315	9.54
770.63	9.51
770.945	9.54
771.26	9.39
771.575	9
771.89	9.26
772.205	9.23
772.52	9.36
772.834	9.1
773.149	9.47
773.464	9.32
773.778	9.26
774.093	8.62
774.407	8.48
774.722	8.66
775.036	8.8
775.351	8.79
775.665	8.97
775.979	8.8
776.293	8.72
776.608	8.79
776.922	9.03
777.236	9.04
777.55	8.46
777.864	8.73
778.178	8.75
778.492	8.71
778.806	8.46
779.12	8.55
779.434	8.53
779.747	8.69
780.061	8.69
780.375	8.55
780.689	8.7
781.002	8.79
781.316	9.03
781.629	9.02
781.943	8.99
782.256	8.83
782.57	8.96
782.883	8.71
783.196	8.13
783.51	8.53
783.823	8.57
784.136	9.25
784.449	9.02
784.762	9.01
785.075	8.78
785.388	9.01
785.701	8.96
786.014	8.85
786.327	8.85
786.64	9.23
786.953	9.56
787.266	9.53
787.578	9.51
787.891	9.38
788.204	9.34
788.516	9.53
788.829	9.43
789.141	9.66
789.454	10.04
789.766	10.3
790.079	10.26
790.391	10.06
790.703	10.15
791.016	10.24
791.328	10.14
791.64	10.68
791.952	10.9
792.264	10.97
792.576	11.02
792.888	10.82
793.2	10.42
793.512	10.09
793.824	10.63
794.136	10.57
794.448	10.61
794.76	10.4
795.071	9.83
795.383	9.93
795.695	9.59
796.006	9.78
796.318	9.99
796.629	10.11
796.941	10.31
797.252	10.13
797.564	10.04
797.875	10.12
798.186	9.63
798.497	9.62
798.809	9.52
799.12	9.74
799.431	9.91
799.742	10.3
800.053	11.09
800.364	10.78
800.675	10.96
800.986	10.86
801.297	11
801.608	11.16
801.918	11.2
802.229	11.33
802.54	11.17
802.851	10.8
803.161	10.24
803.472	10.33
803.782	10.44
804.093	10.4
804.403	10.57
804.714	10.79
805.024	10.51
805.334	10.31
805.645	10.22
805.955	10.65
806.265	10.39
806.575	9.73
806.885	10.25
807.195	9.71
807.505	9.77
807.815	9.37
808.125	9.16
808.435	9.33
808.745	9.59
809.055	10.04
809.365	9.88
809.674	10.12
809.984	10.35
810.294	10.35
810.603	10.76
810.913	11.2
811.222	11.3
811.532	11.29
811.841	11.23
812.151	11.91
812.46	11.13
812.769	11.38
813.079	11.4
813.388	11.48
813.697	12.34
814.006	12.48
814.315	13.14
814.624	13.47
814.933	13.73
815.242	13.26
815.551	13.04
815.86	14.29
816.169	13.59
816.478	12.76
816.786	12.38
817.095	12.45
817.404	12.05
817.712	11.8
818.021	12.18
818.33	12.08
818.638	11.38
818.947	11.56
819.255	11.54
819.563	11.2
819.872	10.74
820.18	10.42
820.488	10.45
820.796	10.31
821.105	10.32
821.413	10.17
821.721	10.31
822.029	10.31
822.337	10.21
822.645	10.3
822.953	10.42
823.26	10.58
823.568	10.4
823.876	10.38
824.184	10.39
824.491	10.18
824.799	10.21
825.107	10.24
825.414	10.19
825.722	10.17
826.029	10.37
826.337	10.49
826.644	10.63
826.951	10.52
827.259	10.54
827.566	10.73
827.873	10.62
828.18	10.65
828.488	10.58
828.795	10.42
829.102	10.59
829.409	11.1
829.716	11.05
830.023	11.41
830.329	11.49
830.636	11.49
830.943	11.84
831.25	11.81
831.557	11.97
831.863	12.02
832.17	11.4
832.476	11.51
832.783	11.44
833.089	11.77
833.396	11.93
833.702	11.9
834.009	11.81
834.315	12.16
834.621	12.09
834.928	12.12
835.234	12.1
835.54	11.97
835.846	11.38
836.152	11.17
836.458	10.72
836.764	10.4
837.07	10.1
837.376	10.1
837.682	10.24
837.988	10.02
838.293	10.01
838.599	10.8
838.905	10.31
839.211	10.31
839.516	9.99
839.822	10.22
840.127	10.82
840.433	10.81
840.738	11.17
841.044	11.25
841.349	11.33
841.654	12
841.959	12.33
842.265	12.32
842.57	13.04
842.875	13.07
843.18	13.91
843.485	14.23
843.79	13.41
844.095	12.74
844.4	13.37
844.705	12.46
845.01	12.27
845.315	12.67
845.619	12.3
845.924	11.68
846.229	12.28
846.533	10.72
846.838	9.97
847.142	8.04
847.447	6.6
847.751	5.88
848.056	3.99
848.36	3.5
848.664	2.62
848.969	2.26
849.273	2.17
849.577	1.46
849.881	1.09
850.185	3.48
850.489	5.24
850.794	3.81
851.097	5.32
851.401	6.3
851.705	5.12
852.009	7.79
852.313	9.79
852.617	7.91
852.92	10.88
853.224	10.31
853.528	13.61
853.831	14.72
854.135	14.99
854.438	16.53
854.742	16.12
855.045	16.27
855.349	16.06
855.652	16.33
855.955	15.86
856.259	17.31
856.562	16.19
856.865	15.34
857.168	15.02
857.471	16.99
857.774	15.72
858.077	18.18
858.38	17.8
858.683	16.62
858.986	17.9
859.289	16.91
859.592	18.14
859.894	16.38
860.197	16.77
860.5	16.31
860.802	16.49
861.105	15.77
861.407	16.23
861.71	15.69
862.012	14.41
862.315	15.74
862.617	15.59
862.919	15.56
863.222	16.46
863.524	19.12
863.826	19.05
864.128	18.75
864.43	17.09
864.732	17.1
865.034	16.18
865.336	15.43
865.638	13.57
865.94	13.52
866.242	12.79
866.544	12.74
866.846	14.72
867.147	13.43
867.449	15.31
867.751	15.19
868.052	14.85
868.354	15.95
868.655	14.27
868.957	13.72
869.258	13.33
869.56	11.99
869.861	10.6
870.162	10.03
870.463	11.17
870.765	12.21
871.066	11.35
871.367	12.77
871.668	12.92
871.969	12.82
872.27	12.78
872.571	12.5
872.872	13.19
873.173	12
873.473	12.31
873.774	12.5
874.075	13.17
874.376	12.7
874.676	13.66
874.977	14.22
875.277	16.03
875.578	17.48
875.878	18.52
876.179	19.18
876.479	18.47
876.78	18.62
877.08	17.96
877.38	16.65
877.68	13.89
877.981	14.53
878.281	16.7
878.581	17.15
