Data from BU57649_Reflection_00014.txt Node
Date: Tue Nov 19 10:55:57 EST 2019
User: vgr7
Spectrometer: USB2G7710
Scans to average: 3
Trigger mode: 4
Integration Time (sec): 2.000000E-2
Electric dark correction enabled: true
Boxcar width: 10
XAxis mode: Wavelengths
Number of Pixels in Spectrum: 2048
>>>>>Begin Spectral Data<<<<<
177.721	15.57
178.105	16.99
178.488	18.21
178.871	1.22
179.254	10.79
179.636	11.26
180.019	49.08
180.402	966.67
180.785	-194.12
181.168	7350
181.55	-198.7
181.933	289.35
182.316	333.13
182.698	-152.28
183.081	-100.97
183.463	-61.72
183.846	-50.59
184.228	-36.99
184.611	-7.78
184.993	2.05
185.376	0.11
185.758	-5.47
186.14	-9.2
186.522	-2.79
186.904	-5.23
187.287	-0.55
187.669	7.53
188.051	14.3
188.433	2.95
188.815	3.05
189.197	8.29
189.579	2.57
189.961	7.73
190.342	9.04
190.724	-2.97
191.106	-0.28
191.488	0.3
191.869	10.22
192.251	13.5
192.633	-6.18
193.014	-1.1
193.396	3.35
193.777	0.19
194.159	-3.94
194.54	-10.21
194.922	-28.29
195.303	-50.83
195.684	-69.35
196.065	-80.51
196.447	-66.15
196.828	-75.93
197.209	-57.5
197.59	-44.87
197.971	-40.27
198.352	-45.24
198.733	-37.84
199.114	-34.45
199.495	-35.78
199.876	-43.93
200.257	-49.47
200.638	-34.22
201.018	-38.19
201.399	-25.18
201.78	-21.55
202.16	-28.08
202.541	-37.47
202.922	-30.17
203.302	-28.15
203.683	-26.43
204.063	-26.39
204.444	-18.73
204.824	-24.97
205.204	-25.53
205.585	-28.91
205.965	-33.88
206.345	-25.36
206.725	-22.3
207.106	-24.97
207.486	-21.2
207.866	-15.62
208.246	-19.51
208.626	-28.44
209.006	-29.19
209.386	-27.63
209.766	-28.26
210.145	-17.45
210.525	-15.4
210.905	-16.48
211.285	-19.34
211.664	-18.82
212.044	-15.73
212.424	-21.12
212.803	-10.47
213.183	-17.86
213.562	-9.65
213.942	-10.04
214.321	-11.44
214.701	-16.53
215.08	-23.8
215.459	-21.82
215.838	-23.72
216.218	-15.09
216.597	-12.35
216.976	-20.55
217.355	-30.79
217.734	-31.21
218.113	-27.45
218.492	-41.39
218.871	-27.56
219.25	-19.5
219.629	-21.15
220.008	-20.56
220.387	-20.75
220.766	-23.3
221.144	-19.67
221.523	-37.79
221.902	-15.48
222.28	-9.22
222.659	0.1
223.037	6.58
223.416	7.38
223.794	4.26
224.173	2.71
224.551	8.48
224.929	9.11
225.308	9.88
225.686	8.95
226.064	3.49
226.442	8.68
226.821	6.05
227.199	4.38
227.577	6.25
227.955	4.7
228.333	3.82
228.711	4.45
229.089	6.56
229.467	7.2
229.845	2.06
230.222	-0.14
230.6	-4.96
230.978	-3.58
231.356	-4.44
231.733	-3.72
232.111	-3.3
232.488	-4.59
232.866	-4.32
233.243	-4.2
233.621	-2.35
233.998	-2.52
234.376	-2.17
234.753	-5.14
235.13	-4.17
235.508	-6.87
235.885	-7.85
236.262	-7.34
236.639	-6.8
237.016	-8.15
237.393	-6.04
237.77	-4.69
238.147	-2.7
238.524	-1
238.901	-0.87
239.278	-1.03
239.655	-1.35
240.032	-1.48
240.409	-1.46
240.785	-1.07
241.162	-1.15
241.539	-1.38
241.915	-0.76
242.292	-0.04
242.668	0.38
243.045	1.06
243.421	1.62
243.798	2.26
244.174	2.42
244.551	2.31
244.927	2.52
245.303	2.49
245.679	2.5
246.056	2.35
246.432	2.52
246.808	2.46
247.184	2.6
247.56	2.64
247.936	2.67
248.312	2.82
248.688	2.81
249.064	2.81
249.44	2.86
249.815	2.92
250.191	2.85
250.567	2.96
250.943	2.78
251.318	2.66
251.694	2.38
252.069	2.24
252.445	2.32
252.82	2.44
253.196	2.38
253.571	2.58
253.947	2.57
254.322	2.12
254.697	2.08
255.073	1.97
255.448	2.05
255.823	2.12
256.198	1.98
256.573	2.18
256.948	2.28
257.323	2.51
257.698	2.13
258.073	2.15
258.448	2.16
258.823	1.96
259.198	1.99
259.573	2.12
259.948	2.37
260.322	2.26
260.697	2.28
261.072	2.27
261.446	2.15
261.821	2.14
262.195	2.33
262.57	2.45
262.944	2.59
263.319	2.71
263.693	2.76
264.067	2.75
264.442	2.6
264.816	2.54
265.19	2.45
265.564	2.8
265.938	2.73
266.313	2.77
266.687	2.83
267.061	2.94
267.435	2.92
267.809	2.7
268.183	2.64
268.556	2.51
268.93	2.69
269.304	2.87
269.678	2.94
270.051	3.03
270.425	2.99
270.799	2.81
271.172	2.67
271.546	2.7
271.919	2.77
272.293	2.86
272.666	2.92
273.04	2.85
273.413	2.75
273.787	2.75
274.16	2.73
274.533	2.83
274.906	2.78
275.279	2.66
275.653	2.82
276.026	2.99
276.399	2.97
276.772	2.93
277.145	2.73
277.518	2.48
277.891	2.39
278.263	2.26
278.636	2.25
279.009	2.36
279.382	2.25
279.755	2.34
280.127	2.3
280.5	2.37
280.872	2.45
281.245	2.45
281.617	2.39
281.99	2.44
282.362	2.42
282.735	2.46
283.107	2.5
283.479	2.46
283.852	2.52
284.224	2.52
284.596	2.52
284.968	2.52
285.34	2.66
285.713	2.63
286.085	2.57
286.457	2.68
286.829	2.57
287.201	2.65
287.572	2.69
287.944	2.72
288.316	2.72
288.688	2.71
289.06	2.73
289.431	2.82
289.803	2.86
290.175	2.84
290.546	2.92
290.918	2.87
291.289	2.72
291.661	2.69
292.032	2.75
292.403	2.76
292.775	2.85
293.146	2.87
293.517	2.97
293.889	3.07
294.26	3.03
294.631	3.17
295.002	3.24
295.373	3.22
295.744	3.27
296.115	3.27
296.486	3.25
296.857	3.23
297.228	3.19
297.599	3.12
297.97	3.21
298.34	3.08
298.711	3.22
299.082	3.32
299.452	3.3
299.823	3.35
300.194	3.33
300.564	3.35
300.935	3.38
301.305	3.39
301.676	3.48
302.046	3.56
302.416	3.64
302.787	3.52
303.157	3.66
303.527	3.77
303.897	3.73
304.267	3.9
304.637	3.91
305.008	3.99
305.378	4.05
305.748	4.11
306.117	4.22
306.487	4.21
306.857	4.34
307.227	4.6
307.597	4.58
307.967	4.75
308.336	4.96
308.706	5.05
309.076	5.15
309.445	5.35
309.815	5.39
310.184	5.31
310.554	5.36
310.923	5.33
311.293	5.22
311.662	5.3
312.031	5.23
312.401	5.31
312.77	5.34
313.139	5.39
313.508	5.35
313.877	5.44
314.246	5.47
314.616	5.52
314.985	5.39
315.353	5.42
315.722	5.44
316.091	5.34
316.46	5.38
316.829	5.31
317.198	5.21
317.567	5.19
317.935	5.41
318.304	5.68
318.672	5.77
319.041	5.91
319.41	6.01
319.778	6.14
320.147	6.31
320.515	6.48
320.883	6.56
321.252	6.69
321.62	6.85
321.988	6.96
322.357	6.94
322.725	6.99
323.093	7.08
323.461	7.03
323.829	7.05
324.197	7.04
324.565	6.99
324.933	7.04
325.301	7
325.669	6.97
326.037	6.8
326.405	6.73
326.772	6.75
327.14	6.71
327.508	6.73
327.875	6.7
328.243	6.64
328.61	6.6
328.978	6.55
329.346	6.44
329.713	6.42
330.08	6.58
330.448	6.7
330.815	6.77
331.182	6.83
331.55	6.79
331.917	6.82
332.284	6.95
332.651	6.86
333.018	6.97
333.385	7
333.752	7.09
334.119	7.17
334.486	7.22
334.853	7.33
335.22	7.29
335.587	7.32
335.954	7.33
336.32	7.41
336.687	7.49
337.054	7.54
337.42	7.61
337.787	7.47
338.153	7.4
338.52	7.4
338.886	7.41
339.253	7.54
339.619	7.62
339.986	7.62
340.352	7.65
340.718	7.83
341.084	7.76
341.451	7.82
341.817	7.79
342.183	7.79
342.549	7.76
342.915	7.75
343.281	7.75
343.647	7.77
344.013	7.82
344.379	7.8
344.745	7.77
345.11	7.73
345.476	7.76
345.842	7.83
346.208	7.97
346.573	7.98
346.939	7.84
347.304	7.94
347.67	7.92
348.035	7.94
348.401	7.78
348.766	7.88
349.132	7.87
349.497	7.97
349.862	7.98
350.228	8
350.593	8
350.958	8.09
351.323	8.11
351.688	8.04
352.053	7.99
352.418	7.99
352.783	7.88
353.148	7.9
353.513	7.83
353.878	7.77
354.243	7.68
354.608	7.85
354.972	7.74
355.337	7.71
355.702	7.68
356.066	7.65
356.431	7.57
356.795	7.48
357.16	7.39
357.524	7.31
357.889	7.29
358.253	7.19
358.618	7.09
358.982	6.98
359.346	6.93
359.71	6.89
360.075	6.92
360.439	7.02
360.803	6.96
361.167	6.86
361.531	6.79
361.895	6.76
362.259	6.66
362.623	6.62
362.987	6.56
363.351	6.55
363.714	6.54
364.078	6.49
364.442	6.46
364.806	6.45
365.169	6.41
365.533	6.35
365.896	6.38
366.26	6.33
366.623	6.39
366.987	6.37
367.35	6.43
367.714	6.31
368.077	6.19
368.44	6.18
368.803	6.16
369.167	6.14
369.53	6.16
369.893	6.1
370.256	6.04
370.619	6.01
370.982	5.91
371.345	5.86
371.708	5.81
372.071	5.72
372.434	5.64
372.797	5.63
373.159	5.55
373.522	5.52
373.885	5.47
374.247	5.38
374.61	5.37
374.973	5.23
375.335	5.16
375.698	5.11
376.06	4.98
376.423	4.99
376.785	4.94
377.147	4.83
377.51	4.79
377.872	4.76
378.234	4.74
378.596	4.74
378.958	4.68
379.321	4.69
379.683	4.67
380.045	4.62
380.407	4.54
380.769	4.46
381.13	4.38
381.492	4.36
381.854	4.31
382.216	4.24
382.578	4.23
382.939	4.21
383.301	4.19
383.663	4.19
384.024	4.15
384.386	4.1
384.747	4.08
385.109	4.09
385.47	4.07
385.832	4.02
386.193	3.98
386.554	3.92
386.916	3.88
387.277	3.84
387.638	3.81
387.999	3.78
388.36	3.8
388.721	3.82
389.082	3.82
389.443	3.82
389.804	3.83
390.165	3.83
390.526	3.82
390.887	3.81
391.248	3.77
391.609	3.74
391.969	3.72
392.33	3.69
392.691	3.64
393.051	3.61
393.412	3.59
393.772	3.56
394.133	3.59
394.493	3.54
394.854	3.55
395.214	3.55
395.574	3.54
395.935	3.5
396.295	3.46
396.655	3.43
397.015	3.38
397.376	3.34
397.736	3.3
398.096	3.23
398.456	3.19
398.816	3.18
399.176	3.12
399.535	3.1
399.895	3.11
400.255	3.08
400.615	3.04
400.975	3.04
401.334	3.03
401.694	3.01
402.054	3.01
402.413	2.99
402.773	2.96
403.132	2.95
403.492	2.97
403.851	2.94
404.211	2.94
404.57	2.94
404.929	2.92
405.288	2.89
405.648	2.91
406.007	2.93
406.366	2.93
406.725	2.93
407.084	2.91
407.443	2.92
407.802	2.91
408.161	2.94
408.52	2.93
408.879	2.92
409.238	2.94
409.596	2.94
409.955	2.91
410.314	2.88
410.673	2.9
411.031	2.88
411.39	2.9
411.748	2.91
412.107	2.91
412.465	2.92
412.824	2.92
413.182	2.91
413.54	2.91
413.899	2.9
414.257	2.88
414.615	2.87
414.974	2.87
415.332	2.86
415.69	2.82
416.048	2.79
416.406	2.77
416.764	2.74
417.122	2.73
417.48	2.72
417.838	2.71
418.195	2.69
418.553	2.67
418.911	2.65
419.269	2.62
419.626	2.6
419.984	2.6
420.342	2.59
420.699	2.58
421.057	2.57
421.414	2.58
421.772	2.59
422.129	2.56
422.486	2.55
422.844	2.54
423.201	2.53
423.558	2.54
423.915	2.55
424.273	2.54
424.63	2.55
424.987	2.57
425.344	2.57
425.701	2.58
426.058	2.58
426.415	2.58
426.772	2.58
427.128	2.59
427.485	2.58
427.842	2.58
428.199	2.58
428.555	2.57
428.912	2.56
429.269	2.54
429.625	2.58
429.982	2.57
430.338	2.61
430.695	2.6
431.051	2.58
431.407	2.56
431.764	2.56
432.12	2.59
432.476	2.58
432.832	2.58
433.189	2.56
433.545	2.57
433.901	2.58
434.257	2.58
434.613	2.57
434.969	2.56
435.325	2.57
435.681	2.58
436.036	2.58
436.392	2.58
436.748	2.59
437.104	2.57
437.459	2.54
437.815	2.53
438.171	2.54
438.526	2.56
438.882	2.55
439.237	2.54
439.593	2.52
439.948	2.5
440.304	2.51
440.659	2.51
441.014	2.5
441.369	2.49
441.725	2.5
442.08	2.5
442.435	2.5
442.79	2.48
443.145	2.46
443.5	2.44
443.855	2.44
444.21	2.43
444.565	2.44
444.92	2.45
445.275	2.44
445.629	2.42
445.984	2.41
446.339	2.4
446.693	2.4
447.048	2.38
447.403	2.37
447.757	2.36
448.112	2.37
448.466	2.37
448.82	2.37
449.175	2.37
449.529	2.36
449.883	2.35
450.238	2.35
450.592	2.35
450.946	2.36
451.3	2.36
451.654	2.36
452.008	2.37
452.362	2.35
452.716	2.36
453.07	2.36
453.424	2.37
453.778	2.39
454.132	2.39
454.486	2.4
454.839	2.41
455.193	2.41
455.547	2.41
455.9	2.42
456.254	2.4
456.607	2.39
456.961	2.39
457.314	2.4
457.668	2.4
458.021	2.4
458.375	2.39
458.728	2.39
459.081	2.4
459.434	2.38
459.787	2.4
460.141	2.39
460.494	2.4
460.847	2.38
461.2	2.39
461.553	2.39
461.906	2.4
462.259	2.4
462.611	2.4
462.964	2.41
463.317	2.39
463.67	2.4
464.022	2.39
464.375	2.42
464.728	2.42
465.08	2.43
465.433	2.45
465.785	2.45
466.138	2.45
466.49	2.45
466.843	2.49
467.195	2.5
467.547	2.51
467.899	2.52
468.252	2.53
468.604	2.53
468.956	2.54
469.308	2.52
469.66	2.52
470.012	2.54
470.364	2.54
470.716	2.57
471.068	2.57
471.42	2.58
471.772	2.58
472.123	2.59
472.475	2.6
472.827	2.57
473.178	2.59
473.53	2.6
473.882	2.59
474.233	2.55
474.585	2.54
474.936	2.54
475.288	2.54
475.639	2.54
475.99	2.52
476.342	2.52
476.693	2.55
477.044	2.55
477.395	2.52
477.746	2.51
478.097	2.51
478.448	2.5
478.8	2.5
479.15	2.49
479.501	2.49
479.852	2.48
480.203	2.49
480.554	2.49
480.905	2.49
481.255	2.49
481.606	2.5
481.957	2.52
482.307	2.52
482.658	2.52
483.009	2.52
483.359	2.53
483.709	2.53
484.06	2.52
484.41	2.52
484.761	2.53
485.111	2.53
485.461	2.53
485.811	2.54
486.162	2.54
486.512	2.54
486.862	2.54
487.212	2.55
487.562	2.54
487.912	2.54
488.262	2.54
488.612	2.54
488.961	2.54
489.311	2.54
489.661	2.53
490.011	2.53
490.36	2.53
490.71	2.53
491.06	2.53
491.409	2.53
491.759	2.54
492.108	2.53
492.458	2.54
492.807	2.54
493.157	2.54
493.506	2.54
493.855	2.55
494.204	2.55
494.554	2.56
494.903	2.58
495.252	2.6
495.601	2.61
495.95	2.62
496.299	2.63
496.648	2.62
496.997	2.66
497.346	2.68
497.695	2.68
498.043	2.7
498.392	2.73
498.741	2.74
499.09	2.75
499.438	2.78
499.787	2.79
500.135	2.81
500.484	2.82
500.832	2.85
501.181	2.87
501.529	2.9
501.878	2.92
502.226	2.95
502.574	2.96
502.923	3.01
503.271	3.02
503.619	3.06
503.967	3.1
504.315	3.12
504.663	3.15
505.011	3.2
505.359	3.23
505.707	3.27
506.055	3.32
506.403	3.37
506.751	3.41
507.098	3.47
507.446	3.52
507.794	3.58
508.141	3.63
508.489	3.7
508.837	3.74
509.184	3.8
509.531	3.84
509.879	3.91
510.226	3.95
510.574	4.02
510.921	4.09
511.268	4.17
511.616	4.25
511.963	4.31
512.31	4.37
512.657	4.45
513.004	4.51
513.351	4.59
513.698	4.66
514.045	4.75
514.392	4.83
514.739	4.93
515.086	5.01
515.432	5.12
515.779	5.18
516.126	5.28
516.473	5.36
516.819	5.46
517.166	5.55
517.512	5.64
517.859	5.7
518.205	5.77
518.552	5.84
518.898	5.93
519.245	6.01
519.591	6.09
519.937	6.17
520.283	6.25
520.629	6.35
520.976	6.48
521.322	6.59
521.668	6.69
522.014	6.79
522.36	6.89
522.706	7
523.052	7.11
523.398	7.24
523.743	7.39
524.089	7.54
524.435	7.65
524.781	7.77
525.126	7.89
525.472	8
525.817	8.1
526.163	8.19
526.509	8.27
526.854	8.35
527.199	8.45
527.545	8.53
527.89	8.61
528.235	8.68
528.581	8.77
528.926	8.87
529.271	8.95
529.616	9.04
529.961	9.12
530.306	9.23
530.651	9.31
530.996	9.39
531.341	9.48
531.686	9.59
532.031	9.69
532.376	9.81
532.721	9.93
533.065	10.04
533.41	10.14
533.755	10.27
534.099	10.41
534.444	10.54
534.788	10.67
535.133	10.79
535.477	10.92
535.822	11.06
536.166	11.19
536.51	11.35
536.855	11.54
537.199	11.74
537.543	11.92
537.887	12.13
538.231	12.34
538.576	12.53
538.92	12.72
539.264	12.9
539.608	13.08
539.951	13.24
540.295	13.42
540.639	13.61
540.983	13.77
541.327	13.93
541.671	14.09
542.014	14.25
542.358	14.42
542.701	14.58
543.045	14.75
543.389	14.94
543.732	15.1
544.075	15.28
544.419	15.44
544.762	15.61
545.105	15.79
545.449	16
545.792	16.2
546.135	16.43
546.478	16.65
546.821	16.91
547.165	17.18
547.508	17.42
547.851	17.66
548.194	17.92
548.536	18.16
548.879	18.42
549.222	18.7
549.565	18.97
549.908	19.23
550.25	19.47
550.593	19.7
550.936	19.96
551.278	20.25
551.621	20.56
551.963	20.85
552.306	21.16
552.648	21.43
552.991	21.7
553.333	21.96
553.675	22.24
554.017	22.48
554.36	22.75
554.702	23.01
555.044	23.29
555.386	23.55
555.728	23.81
556.07	24.06
556.412	24.38
556.754	24.64
557.096	24.92
557.438	25.25
557.78	25.52
558.121	25.85
558.463	26.11
558.805	26.38
559.147	26.68
559.488	26.93
559.83	27.2
560.171	27.52
560.513	27.77
560.854	28.1
561.196	28.41
561.537	28.68
561.878	28.97
562.22	29.22
562.561	29.48
562.902	29.72
563.243	30.02
563.584	30.25
563.925	30.55
564.266	30.79
564.607	31.02
564.948	31.3
565.289	31.55
565.63	31.8
565.971	32.07
566.312	32.33
566.653	32.59
566.993	32.85
567.334	33.05
567.675	33.33
568.015	33.52
568.356	33.76
568.696	33.97
569.037	34.22
569.377	34.49
569.718	34.78
570.058	35.09
570.398	35.32
570.739	35.53
571.079	35.75
571.419	36.01
571.759	36.26
572.099	36.5
572.439	36.67
572.779	36.88
573.119	37.03
573.459	37.23
573.799	37.41
574.139	37.64
574.479	37.86
574.819	38.11
575.158	38.38
575.498	38.63
575.838	38.89
576.177	39.13
576.517	39.3
576.856	39.52
577.196	39.73
577.535	39.95
577.875	40.23
578.214	40.46
578.553	40.71
578.893	40.95
579.232	41.21
579.571	41.51
579.91	41.81
580.25	42.11
580.589	42.31
580.928	42.64
581.267	42.85
581.606	43.14
581.945	43.33
582.283	43.51
582.622	43.68
582.961	43.88
583.3	44.05
583.639	44.25
583.977	44.43
584.316	44.61
584.654	44.79
584.993	44.98
585.332	45.19
585.67	45.37
586.008	45.53
586.347	45.64
586.685	45.8
587.024	45.85
587.362	45.96
587.7	46.15
588.038	46.25
588.376	46.37
588.715	46.51
589.053	46.6
589.391	46.7
589.729	46.9
590.067	46.96
590.404	47.09
590.742	47.28
591.08	47.44
591.418	47.57
591.756	47.71
592.093	47.75
592.431	47.82
592.769	47.87
593.106	47.98
593.444	48.12
593.781	48.15
594.119	48.28
594.456	48.41
594.793	48.54
595.131	48.64
595.468	48.73
595.805	48.77
596.143	48.84
596.48	48.98
596.817	49.01
597.154	49.21
597.491	49.27
597.828	49.4
598.165	49.52
598.502	49.6
598.839	49.77
599.176	49.97
599.512	50.08
599.849	50.21
600.186	50.28
600.523	50.35
600.859	50.54
601.196	50.65
601.532	50.68
601.869	50.75
602.205	50.8
602.542	50.84
602.878	50.89
603.215	51.02
603.551	51.09
603.887	51.14
604.223	51.1
604.56	51.18
604.896	51.15
605.232	51.11
605.568	51.21
605.904	51.21
606.24	51.23
606.576	51.29
606.912	51.33
607.248	51.41
607.583	51.48
607.919	51.5
608.255	51.57
608.591	51.71
608.926	51.81
609.262	51.84
609.597	51.95
609.933	52.07
610.268	52.15
610.604	52.17
610.939	52.26
611.275	52.42
611.61	52.59
611.945	52.73
612.281	52.83
612.616	52.94
612.951	53.07
613.286	53.18
613.621	53.29
613.956	53.39
614.291	53.55
614.626	53.73
614.961	53.97
615.296	54.08
615.631	54.17
615.966	54.27
616.3	54.42
616.635	54.49
616.97	54.5
617.304	54.59
617.639	54.63
617.973	54.79
618.308	54.81
618.642	54.84
618.977	54.85
619.311	54.95
619.646	54.89
619.98	54.9
620.314	54.99
620.648	55.13
620.983	55.31
621.317	55.23
621.651	55.31
621.985	55.22
622.319	55.26
622.653	55.34
622.987	55.3
623.321	55.26
623.655	55.32
623.988	55.37
624.322	55.29
624.656	55.34
624.99	55.34
625.323	55.31
625.657	55.22
625.99	55.31
626.324	55.31
626.657	55.37
626.991	55.44
627.324	55.53
627.658	55.54
627.991	55.48
628.324	55.56
628.657	55.46
628.991	55.51
629.324	55.58
629.657	55.57
629.99	55.58
630.323	55.71
630.656	55.73
630.989	55.82
631.322	55.86
631.655	55.94
631.987	55.9
632.32	55.98
632.653	56.17
632.986	56.28
633.318	56.37
633.651	56.41
633.984	56.48
634.316	56.43
634.649	56.41
634.981	56.47
635.313	56.58
635.646	56.75
635.978	56.79
636.31	56.84
636.643	56.92
636.975	57.07
637.307	57.11
637.639	57.14
637.971	57.21
638.303	57.38
638.635	57.45
638.967	57.58
639.299	57.65
639.631	57.61
639.963	57.51
640.295	57.41
640.626	57.36
640.958	57.34
641.29	57.45
641.621	57.52
641.953	57.46
642.285	57.45
642.616	57.43
642.948	57.5
643.279	57.47
643.61	57.56
643.942	57.53
644.273	57.51
644.604	57.57
644.936	57.53
645.267	57.54
645.598	57.5
645.929	57.49
646.26	57.41
646.591	57.46
646.922	57.53
647.253	57.59
647.584	57.68
647.915	57.64
648.245	57.59
648.576	57.6
648.907	57.64
649.238	57.63
649.568	57.64
649.899	57.54
650.229	57.4
650.56	57.34
650.89	57.33
651.221	57.39
651.551	57.39
651.882	57.45
652.212	57.53
652.542	57.59
652.872	57.64
653.203	57.68
653.533	57.67
653.863	57.67
654.193	57.68
654.523	57.69
654.853	57.73
655.183	57.6
655.513	57.54
655.843	57.5
656.172	57.54
656.502	57.52
656.832	57.53
657.162	57.64
657.491	57.65
657.821	57.61
658.15	57.54
658.48	57.5
658.809	57.47
659.139	57.44
659.468	57.37
659.798	57.35
660.127	57.31
660.456	57.35
660.785	57.34
661.115	57.49
661.444	57.58
661.773	57.64
662.102	57.77
662.431	57.81
662.76	57.97
663.089	58.05
663.418	57.99
663.747	58.08
664.076	58.14
664.404	58.25
664.733	58.29
665.062	58.42
665.39	58.53
665.719	58.64
666.048	58.56
666.376	58.65
666.705	58.7
667.033	58.93
667.362	58.97
667.69	58.96
668.018	58.86
668.347	58.84
668.675	58.74
669.003	58.87
669.331	58.84
669.659	58.75
669.987	58.77
670.315	58.94
670.643	59
670.971	59.01
671.299	59.01
671.627	59.16
671.955	59.08
672.283	59.12
672.61	58.99
672.938	58.93
673.266	58.86
673.593	58.77
673.921	58.64
674.249	58.53
674.576	58.52
674.904	58.46
675.231	58.41
675.558	58.4
675.886	58.23
676.213	58.17
676.54	58.27
676.867	58.09
677.195	58.09
677.522	57.97
677.849	57.89
678.176	57.75
678.503	57.68
678.83	57.59
679.157	57.48
679.484	57.54
679.81	57.59
680.137	57.56
680.464	57.57
680.791	57.58
681.117	57.63
681.444	57.69
681.771	57.78
682.097	57.67
682.424	57.69
682.75	57.79
683.077	57.95
683.403	57.91
683.729	57.85
684.056	57.69
684.382	57.72
684.708	57.66
685.034	57.72
685.36	57.64
685.686	57.69
686.012	57.77
686.339	57.66
686.664	57.72
686.99	57.72
687.316	57.72
687.642	57.76
687.968	57.83
688.294	57.75
688.619	57.74
688.945	57.85
689.271	57.89
689.596	57.95
689.922	57.71
690.247	57.74
690.573	57.84
690.898	58.02
691.224	57.87
691.549	58.06
691.874	58.08
692.2	58.19
692.525	58.23
692.85	58.21
693.175	58.22
693.5	58.19
693.825	58.15
694.15	58.11
694.475	58.08
694.8	58
695.125	57.92
695.45	57.81
695.775	57.7
696.099	57.72
696.424	57.41
696.749	57.46
697.073	57.44
697.398	57.28
697.723	57.16
698.047	57.21
698.372	57.24
698.696	57.09
699.02	56.98
699.345	56.97
699.669	57.07
699.993	57.08
700.318	57.04
700.642	57.19
700.966	57.3
701.29	57.28
701.614	57.27
701.938	57.43
702.262	57.49
702.586	57.64
702.91	57.66
703.234	57.81
703.557	57.9
703.881	57.88
704.205	58.08
704.529	58.09
704.852	58.24
705.176	58.22
705.499	58.31
705.823	58.35
706.146	58.6
706.47	58.55
706.793	58.65
707.117	58.75
707.44	58.54
707.763	58.31
708.086	58.45
708.409	58.6
708.733	58.52
709.056	58.55
709.379	58.59
709.702	58.35
710.025	58.45
710.348	58.31
710.671	58.18
710.993	58.25
711.316	58.35
711.639	58.16
711.962	58.18
712.284	58.18
712.607	58.15
712.93	57.95
713.252	57.78
713.575	57.85
713.897	57.66
714.22	57.62
714.542	57.83
714.864	57.63
715.187	57.41
715.509	57.4
715.831	57.34
716.153	57.26
716.475	57.35
716.798	57.22
717.12	57.17
717.442	57.23
717.764	57.06
718.085	56.91
718.407	57.12
718.729	57.02
719.051	57.18
719.373	57.1
719.695	56.91
720.016	57.06
720.338	57.04
720.659	57.27
720.981	57.46
721.302	57.19
721.624	57.18
721.945	57.25
722.267	57.25
722.588	57.39
722.909	57.37
723.231	57.42
723.552	57.52
723.873	57.7
724.194	57.84
724.515	57.99
724.836	58.13
725.157	58.25
725.478	58.34
725.799	58.02
726.12	57.94
726.441	58.08
726.762	57.93
727.083	57.79
727.403	57.74
727.724	57.77
728.045	57.97
728.365	58.03
728.686	57.84
729.006	57.8
729.327	57.62
729.647	57.6
729.967	57.66
730.288	57.55
730.608	57.65
730.928	57.42
731.249	57.5
731.569	57.43
731.889	57.17
732.209	57.19
732.529	57.23
732.849	57.46
733.169	57.6
733.489	57.71
733.809	57.62
734.129	57.57
734.448	57.59
734.768	57.29
735.088	57.25
735.408	57.47
735.727	57.47
736.047	57.56
736.366	57.51
736.686	57.48
737.005	57.84
737.325	57.78
737.644	57.92
737.963	57.85
738.283	57.84
738.602	58
738.921	57.93
739.24	58.06
739.56	58.11
739.879	58.12
740.198	58.09
740.517	58.4
740.836	58.35
741.155	58.38
741.473	58.59
741.792	58.62
742.111	58.63
742.43	58.52
742.748	58.35
743.067	58.38
743.386	58.33
743.704	58.07
744.023	57.87
744.341	58.02
744.66	58.09
744.978	58.12
745.297	58.27
745.615	58.14
745.933	58.1
746.252	58.12
746.57	58.04
746.888	58.16
747.206	57.68
747.524	57.47
747.842	57.25
748.16	57.4
748.478	57.37
748.796	57.49
749.114	57.54
749.432	57.63
749.749	57.48
750.067	57.58
750.385	57.53
750.703	57.82
751.02	57.83
751.338	57.45
751.655	57.17
751.973	57.09
752.29	57.06
752.608	57.05
752.925	56.86
753.242	56.71
753.56	56.56
753.877	56.68
754.194	57.2
754.511	57.11
754.828	56.87
755.145	56.9
755.462	56.5
755.779	56.43
756.096	56.61
756.413	57
756.73	57
757.047	56.99
757.364	56.81
757.68	56.73
757.997	56.77
758.314	56.69
758.63	56.57
758.947	56.41
759.264	56.37
759.58	56.41
759.896	56.43
760.213	56.27
760.529	56.2
760.846	56.08
761.162	56.1
761.478	56.1
761.794	56.19
762.11	56.25
762.426	56.27
762.743	56.18
763.059	55.92
763.375	55.73
763.69	55.72
764.006	55.94
764.322	55.71
764.638	55.98
764.954	56.28
765.27	56.18
765.585	56.24
765.901	56.32
766.216	56.4
766.532	56.26
766.848	56.16
767.163	56.01
767.478	55.96
767.794	56.05
768.109	56.23
768.424	56.04
768.74	56.26
769.055	56.45
769.37	56.48
769.685	56.7
770	56.84
770.315	56.98
770.63	56.8
770.945	57.24
771.26	56.88
771.575	56.99
771.89	57.44
772.205	57.74
772.52	57.59
772.834	57.5
773.149	57.52
773.464	57.95
773.778	58.45
774.093	58.7
774.407	59.3
774.722	59.45
775.036	59.52
775.351	59.15
775.665	59.06
775.979	59.08
776.293	58.91
776.608	59.15
776.922	58.84
777.236	58.5
777.55	58.26
777.864	58.71
778.178	58.83
778.492	58.86
778.806	58.9
779.12	59.13
779.434	59.04
779.747	58.97
780.061	58.92
780.375	59.39
780.689	59.34
781.002	58.59
781.316	58.56
781.629	58.91
781.943	59.25
782.256	59.13
782.57	59.12
782.883	59.09
783.196	59.09
783.51	59.38
783.823	59.65
784.136	59.97
784.449	59.85
784.762	59.46
785.075	59.01
785.388	58.59
785.701	58.81
786.014	58.29
786.327	58.47
786.64	58.62
786.953	58.08
787.266	57.59
787.578	57.46
787.891	57.51
788.204	56.87
788.516	56.93
788.829	57.22
789.141	57.64
789.454	57.82
789.766	57.65
790.079	57.58
790.391	57.55
790.703	57.34
791.016	57.38
791.328	57.25
791.64	57.25
791.952	57.46
792.264	57.51
792.576	58.41
792.888	59.05
793.2	58.31
793.512	58.13
793.824	58.67
794.136	59.22
794.448	59.15
794.76	59.35
795.071	59.35
795.383	59.6
795.695	58.44
796.006	58.2
796.318	58.16
796.629	57.51
796.941	57.98
797.252	57.5
797.564	57.64
797.875	57.23
798.186	57.26
798.497	57.5
798.809	57.5
799.12	56.74
799.431	56.78
799.742	56.98
800.053	57.63
800.364	57.01
800.675	56.41
800.986	55.89
801.297	55.71
801.608	55.4
801.918	55.36
802.229	56.18
802.54	56.47
802.851	56.48
803.161	57.34
803.472	56.64
803.782	57.36
804.093	57.01
804.403	57.48
804.714	57.37
805.024	57.36
805.334	56.94
805.645	57.62
805.955	57.2
806.265	57.78
806.575	57.18
806.885	57.82
807.195	57.79
807.505	58.26
807.815	58.12
808.125	58.05
808.435	57.24
808.745	57.48
809.055	57.22
809.365	57.26
809.674	56.51
809.984	56.35
810.294	55.81
810.603	55.63
810.913	55.76
811.222	55.48
811.532	55.24
811.841	55.4
812.151	54.97
812.46	54.45
812.769	54.35
813.079	54.3
813.388	54.17
813.697	54.33
814.006	54.51
814.315	54.99
814.624	54.83
814.933	54.94
815.242	54.24
815.551	53.92
815.86	53.58
816.169	54.12
816.478	54.6
816.786	54.61
817.095	54.94
817.404	54.89
817.712	55.39
818.021	55.19
818.33	54.95
818.638	54.46
818.947	54.73
819.255	54.47
819.563	54.45
819.872	54.28
820.18	54.6
820.488	54.37
820.796	54.34
821.105	54.71
821.413	54.98
821.721	54.81
822.029	55.13
822.337	55.09
822.645	55.2
822.953	55.11
823.26	55.25
823.568	55.26
823.876	55.21
824.184	55.23
824.491	55.33
824.799	55.33
825.107	55.44
825.414	55.48
825.722	55.42
826.029	55.51
826.337	55.58
826.644	55.37
826.951	55.54
827.259	55.68
827.566	55.49
827.873	55.42
828.18	55.58
828.488	55.49
828.795	55.36
829.102	55.3
829.409	55.13
829.716	55.03
830.023	54.92
830.329	55.13
830.636	55.16
830.943	55.04
831.25	55.06
831.557	55.07
831.863	54.85
832.17	55.34
832.476	55.24
832.783	55.31
833.089	55.51
833.396	55.36
833.702	55.07
834.009	55.13
834.315	54.87
834.621	54.92
834.928	55.02
835.234	55.83
835.54	55.38
835.846	56.02
836.152	55.94
836.458	56.1
836.764	55.8
837.07	55.45
837.376	55.21
837.682	54.94
837.988	55.19
838.293	55.62
838.599	55.48
838.905	55.17
839.211	54.65
839.516	55.29
839.822	55.52
840.127	55.51
840.433	57.09
840.738	57.3
841.044	57.09
841.349	56.15
841.654	55.53
841.959	56.08
842.265	55.4
842.57	55.3
842.875	55.4
843.18	55.15
843.485	54.52
843.79	54.46
844.095	54.7
844.4	54.14
844.705	54.9
845.01	55.34
845.315	55.23
845.619	55.38
845.924	54.18
846.229	53.46
846.533	53.68
846.838	50.48
847.142	50.86
847.447	50.91
847.751	51.85
848.056	50.85
848.36	50.41
848.664	51.13
848.969	52.35
849.273	51.58
849.577	51.68
849.881	53.87
850.185	53.78
850.489	53.69
850.794	54.37
851.097	51.52
851.401	49.8
851.705	51.62
852.009	52.66
852.313	52.48
852.617	53
852.92	53.24
853.224	54.24
853.528	53.28
853.831	53.82
854.135	53.09
854.438	54.05
854.742	54.61
855.045	53.72
855.349	52.42
855.652	52.2
855.955	53.31
856.259	53.58
856.562	54.75
856.865	54.3
857.168	54.6
857.471	54.92
857.774	54.34
858.077	53.59
858.38	52.46
858.683	52.88
858.986	52.43
859.289	53.15
859.592	53.25
859.894	55.21
860.197	55.45
860.5	56.82
860.802	56.78
861.105	55.53
861.407	54.73
861.71	56.59
862.012	58.62
862.315	57.32
862.617	55.11
862.919	54.93
863.222	55.64
863.524	53.57
863.826	55.46
864.128	58.31
864.43	57.94
864.732	57.58
865.034	57.95
865.336	58.93
865.638	57.26
865.94	57.27
866.242	55.81
866.544	56.78
866.846	56.29
867.147	56.94
867.449	59.43
867.751	62.35
868.052	61.71
868.354	57.85
868.655	59.82
868.957	59.63
869.258	60.19
869.56	61.23
869.861	61.74
870.162	60.46
870.463	59.23
870.765	58.83
871.066	57.34
871.367	56.48
871.668	54.9
871.969	55.22
872.27	54.81
872.571	53.76
872.872	51.4
873.173	51.29
873.473	49.43
873.774	48.52
874.075	47.61
874.376	46.59
874.676	49.82
874.977	50.31
875.277	50.63
875.578	50.29
875.878	49.33
876.179	49.74
876.479	49.35
876.78	48.58
877.08	48.8
877.38	51.63
877.68	52.43
877.981	53.15
878.281	53.5
878.581	53.64
