Data from BU57647_Reflection_00014.txt Node
Date: Mon Nov 18 16:49:49 EST 2019
User: vgr7
Spectrometer: USB2G7710
Scans to average: 3
Trigger mode: 4
Integration Time (sec): 2.000000E-2
Electric dark correction enabled: true
Boxcar width: 10
XAxis mode: Wavelengths
Number of Pixels in Spectrum: 2048
>>>>>Begin Spectral Data<<<<<
177.721	-107.93
178.105	-170.89
178.488	-230.41
178.871	653.19
179.254	197.95
179.636	431.52
180.019	234.8
180.402	35
180.785	70.51
181.168	27.76
181.55	57.82
181.933	100.99
182.316	96.78
182.698	66.48
183.081	171.92
183.463	266.38
183.846	-2183.02
184.228	-12536.36
184.611	-810.2
184.993	-215.47
185.376	-230.97
185.758	-301.37
186.14	-230.05
186.522	-217.3
186.904	-249.22
187.287	-420.08
187.669	-457.48
188.051	-398.12
188.433	-206.63
188.815	-138.57
189.197	-128.42
189.579	-121.16
189.961	-115.64
190.342	-124.29
190.724	-76.77
191.106	-86.51
191.488	-75.09
191.869	-111.86
192.251	-100.48
192.633	-105.87
193.014	-111.28
193.396	-156.33
193.777	-103.18
194.159	-229.5
194.54	-126.12
194.922	-180.21
195.303	-38.09
195.684	-28.59
196.065	-22.98
196.447	-22.12
196.828	-72.17
197.209	-61.49
197.59	-53.96
197.971	-65.18
198.352	-53.92
198.733	-72.24
199.114	-55.5
199.495	-48.58
199.876	-24.28
200.257	-24.03
200.638	-21.42
201.018	-14.54
201.399	-22.2
201.78	-23.38
202.16	-25.82
202.541	-80.53
202.922	-86.74
203.302	-101.57
203.683	-87.11
204.063	-123.24
204.444	-113.22
204.824	-81.86
205.204	-65.01
205.585	-91.04
205.965	-166.33
206.345	-232.61
206.725	-937.21
207.106	-1282.78
207.486	672.35
207.866	790.87
208.246	2167.48
208.626	1672.86
209.006	-965.57
209.386	3711.76
209.766	-7325.53
210.145	-1526.33
210.525	-201.01
210.905	-158.29
211.285	-129.21
211.664	-122.68
212.044	-109.16
212.424	-103.76
212.803	-131.39
213.183	-175.8
213.562	-142.36
213.942	-108.03
214.321	-86.69
214.701	-101.51
215.08	-102.96
215.459	-92.68
215.838	-96.51
216.218	-100.32
216.597	-73.01
216.976	-81.61
217.355	-64.32
217.734	-63.35
218.113	-36.53
218.492	-47.19
218.871	-58.71
219.25	-65.09
219.629	-83.07
220.008	-84.03
220.387	-90.56
220.766	-76.16
221.144	-71.42
221.523	-96.92
221.902	-80.92
222.28	-89.4
222.659	-61.62
223.037	-39.58
223.416	-35
223.794	-43.82
224.173	-39.29
224.551	-34.51
224.929	-40.46
225.308	-27.72
225.686	-24.36
226.064	-27.53
226.442	-19.39
226.821	-8.76
227.199	-1.76
227.577	-2.33
227.955	0.49
228.333	3.14
228.711	1.27
229.089	2.49
229.467	1.31
229.845	-4.1
230.222	-3.08
230.6	-6.49
230.978	-7.21
231.356	-5.8
231.733	-0.55
232.111	-0.6
232.488	-2.09
232.866	-0.71
233.243	-1.64
233.621	-2.29
233.998	-1.61
234.376	-1.55
234.753	-2.14
235.13	-3.4
235.508	-1.28
235.885	-1.6
236.262	-2.87
236.639	-2.49
237.016	-1.47
237.393	0.69
237.77	2.89
238.147	3.62
238.524	4.1
238.901	4.37
239.278	4.54
239.655	4.01
240.032	3.76
240.409	3.85
240.785	3.39
241.162	4.01
241.539	4.32
241.915	4.25
242.292	3.97
242.668	4.03
243.045	4.34
243.421	4.07
243.798	4.38
244.174	4.62
244.551	4.71
244.927	4.65
245.303	4.78
245.679	4.61
246.056	4.53
246.432	4.53
246.808	4.52
247.184	4.44
247.56	4.27
247.936	4.21
248.312	4.23
248.688	4.47
249.064	4.26
249.44	4.24
249.815	4.23
250.191	4.4
250.567	4.49
250.943	4.27
251.318	4.5
251.694	4.67
252.069	4.69
252.445	4.88
252.82	4.77
253.196	4.45
253.571	4.74
253.947	4.87
254.322	4.93
254.697	4.59
255.073	4.39
255.448	4.21
255.823	4.26
256.198	4.48
256.573	4.31
256.948	4.52
257.323	4.65
257.698	4.71
258.073	4.42
258.448	4.3
258.823	4.29
259.198	4.16
259.573	4.18
259.948	4.15
260.322	4.22
260.697	4.15
261.072	4.16
261.446	4.08
261.821	3.93
262.195	4.08
262.57	3.98
262.944	3.87
263.319	3.86
263.693	3.82
264.067	3.77
264.442	3.79
264.816	3.64
265.19	3.48
265.564	3.52
265.938	3.46
266.313	3.37
266.687	3.41
267.061	3.32
267.435	3.29
267.809	3.26
268.183	3.09
268.556	2.97
268.93	3.03
269.304	3.07
269.678	2.99
270.051	2.71
270.425	2.86
270.799	3
271.172	3.02
271.546	2.91
271.919	2.93
272.293	2.94
272.666	3.02
273.04	3.09
273.413	2.92
273.787	3.11
274.16	3.1
274.533	3.13
274.906	3.07
275.279	2.86
275.653	2.86
276.026	3.06
276.399	3.18
276.772	3.06
277.145	2.8
277.518	2.94
277.891	3.09
278.263	3.07
278.636	3
279.009	3.02
279.382	3.42
279.755	3.31
280.127	3.33
280.5	3.49
280.872	3.47
281.245	3.46
281.617	3.58
281.99	3.72
282.362	3.77
282.735	3.76
283.107	3.84
283.479	3.87
283.852	3.71
284.224	3.74
284.596	3.86
284.968	3.95
285.34	4.03
285.713	4
286.085	4.06
286.457	4.12
286.829	4.15
287.201	4.02
287.572	4.06
287.944	4.12
288.316	4.02
288.688	3.98
289.06	4.02
289.431	3.99
289.803	3.93
290.175	3.96
290.546	4.19
290.918	4.28
291.289	4.29
291.661	4.29
292.032	4.47
292.403	4.48
292.775	4.65
293.146	4.62
293.517	4.72
293.889	4.85
294.26	4.83
294.631	4.83
295.002	4.8
295.373	4.87
295.744	4.85
296.115	4.89
296.486	4.86
296.857	4.9
297.228	5.04
297.599	5.05
297.97	5.18
298.34	5.12
298.711	5.15
299.082	5.2
299.452	5.36
299.823	5.36
300.194	5.42
300.564	5.57
300.935	5.71
301.305	5.71
301.676	5.76
302.046	5.97
302.416	6.22
302.787	6.32
303.157	6.37
303.527	6.42
303.897	6.51
304.267	6.83
304.637	7.03
305.008	7.11
305.378	7.39
305.748	7.52
306.117	7.5
306.487	7.68
306.857	7.82
307.227	7.86
307.597	8.08
307.967	8.08
308.336	8.06
308.706	8.09
309.076	8.34
309.445	8.42
309.815	8.46
310.184	8.49
310.554	8.73
310.923	8.89
311.293	9.04
311.662	9.05
312.031	9.06
312.401	9.21
312.77	9.28
313.139	9.38
313.508	9.4
313.877	9.52
314.246	9.6
314.616	9.84
314.985	9.99
315.353	9.84
315.722	10.08
316.091	10.17
316.46	10.4
316.829	10.47
317.198	10.76
317.567	10.9
317.935	10.99
318.304	11.07
318.672	11.18
319.041	11.53
319.41	11.62
319.778	11.92
320.147	11.96
320.515	11.99
320.883	11.99
321.252	12.28
321.62	12.54
321.988	12.67
322.357	12.66
322.725	12.93
323.093	13.29
323.461	13.45
323.829	13.58
324.197	13.7
324.565	13.8
324.933	13.74
325.301	13.93
325.669	14.06
326.037	14.01
326.405	14.03
326.772	13.97
327.14	14.21
327.508	14.17
327.875	14.21
328.243	14.45
328.61	14.5
328.978	14.38
329.346	14.52
329.713	14.51
330.08	14.62
330.448	14.43
330.815	14.24
331.182	14.11
331.55	14.2
331.917	14.15
332.284	14.3
332.651	14.27
333.018	14.16
333.385	14.2
333.752	14.45
334.119	14.7
334.486	14.68
334.853	14.67
335.22	14.58
335.587	14.67
335.954	14.57
336.32	14.64
336.687	14.71
337.054	14.7
337.42	14.79
337.787	14.8
338.153	14.93
338.52	15.04
338.886	15.16
339.253	15.16
339.619	15.13
339.986	15.11
340.352	15.22
340.718	15.33
341.084	15.41
341.451	15.48
341.817	15.42
342.183	15.52
342.549	15.53
342.915	15.79
343.281	15.84
343.647	15.83
344.013	15.97
344.379	16.04
344.745	16.1
345.11	16.09
345.476	16.08
345.842	16.13
346.208	16.25
346.573	16.32
346.939	16.33
347.304	16.44
347.67	16.33
348.035	16.35
348.401	16.21
348.766	16.12
349.132	16.06
349.497	16.02
349.862	16.16
350.228	16.29
350.593	16.19
350.958	16.24
351.323	16.39
351.688	16.28
352.053	16.22
352.418	16.17
352.783	16.19
353.148	16.18
353.513	16.2
353.878	16.21
354.243	16.22
354.608	16.26
354.972	16.25
355.337	16.34
355.702	16.37
356.066	16.52
356.431	16.42
356.795	16.35
357.16	16.34
357.524	16.23
357.889	16.11
358.253	16.07
358.618	16.07
358.982	15.97
359.346	15.94
359.71	15.86
360.075	15.82
360.439	15.82
360.803	15.82
361.167	15.7
361.531	15.64
361.895	15.53
362.259	15.47
362.623	15.4
362.987	15.33
363.351	15.28
363.714	15.16
364.078	15.21
364.442	15.16
364.806	15.09
365.169	14.98
365.533	14.98
365.896	14.87
366.26	14.76
366.623	14.7
366.987	14.6
367.35	14.57
367.714	14.42
368.077	14.3
368.44	14.21
368.803	14.14
369.167	14.05
369.53	14.01
369.893	13.84
370.256	13.74
370.619	13.65
370.982	13.44
371.345	13.4
371.708	13.26
372.071	13.23
372.434	13.11
372.797	12.96
373.159	12.78
373.522	12.73
373.885	12.7
374.247	12.57
374.61	12.56
374.973	12.44
375.335	12.35
375.698	12.23
376.06	12.17
376.423	12.04
376.785	11.93
377.147	11.88
377.51	11.8
377.872	11.75
378.234	11.7
378.596	11.71
378.958	11.58
379.321	11.58
379.683	11.44
380.045	11.36
380.407	11.31
380.769	11.19
381.13	11.09
381.492	10.92
381.854	10.89
382.216	10.76
382.578	10.69
382.939	10.57
383.301	10.45
383.663	10.32
384.024	10.22
384.386	10.16
384.747	10.05
385.109	10.02
385.47	9.91
385.832	9.8
386.193	9.69
386.554	9.67
386.916	9.54
387.277	9.49
387.638	9.43
387.999	9.36
388.36	9.33
388.721	9.28
389.082	9.21
389.443	9.06
389.804	8.96
390.165	8.89
390.526	8.92
390.887	8.89
391.248	8.87
391.609	8.87
391.969	8.86
392.33	8.81
392.691	8.74
393.051	8.69
393.412	8.66
393.772	8.62
394.133	8.52
394.493	8.48
394.854	8.4
395.214	8.38
395.574	8.33
395.935	8.25
396.295	8.21
396.655	8.18
397.015	8.18
397.376	8.13
397.736	8.1
398.096	8
398.456	7.93
398.816	7.86
399.176	7.76
399.535	7.62
399.895	7.56
400.255	7.5
400.615	7.43
400.975	7.35
401.334	7.3
401.694	7.23
402.054	7.14
402.413	7.1
402.773	6.98
403.132	6.92
403.492	6.9
403.851	6.83
404.211	6.78
404.57	6.7
404.929	6.7
405.288	6.61
405.648	6.59
406.007	6.57
406.366	6.51
406.725	6.53
407.084	6.55
407.443	6.49
407.802	6.51
408.161	6.48
408.52	6.45
408.879	6.41
409.238	6.42
409.596	6.42
409.955	6.4
410.314	6.44
410.673	6.41
411.031	6.4
411.39	6.38
411.748	6.36
412.107	6.34
412.465	6.3
412.824	6.3
413.182	6.25
413.54	6.22
413.899	6.22
414.257	6.17
414.615	6.09
414.974	6.08
415.332	6.01
415.69	5.98
416.048	5.96
416.406	5.91
416.764	5.88
417.122	5.83
417.48	5.79
417.838	5.72
418.195	5.7
418.553	5.65
418.911	5.63
419.269	5.58
419.626	5.55
419.984	5.51
420.342	5.49
420.699	5.46
421.057	5.45
421.414	5.41
421.772	5.38
422.129	5.36
422.486	5.34
422.844	5.33
423.201	5.31
423.558	5.29
423.915	5.26
424.273	5.24
424.63	5.21
424.987	5.18
425.344	5.17
425.701	5.14
426.058	5.12
426.415	5.09
426.772	5.09
427.128	5.07
427.485	5.07
427.842	5.05
428.199	5.03
428.555	5.01
428.912	5
429.269	5
429.625	4.96
429.982	4.93
430.338	4.9
430.695	4.86
431.051	4.83
431.407	4.82
431.764	4.8
432.12	4.8
432.476	4.8
432.832	4.77
433.189	4.8
433.545	4.81
433.901	4.83
434.257	4.81
434.613	4.83
434.969	4.82
435.325	4.81
435.681	4.82
436.036	4.8
436.392	4.8
436.748	4.79
437.104	4.77
437.459	4.76
437.815	4.76
438.171	4.77
438.526	4.77
438.882	4.77
439.237	4.79
439.593	4.79
439.948	4.79
440.304	4.8
440.659	4.77
441.014	4.78
441.369	4.75
441.725	4.73
442.08	4.71
442.435	4.73
442.79	4.73
443.145	4.72
443.5	4.72
443.855	4.72
444.21	4.73
444.565	4.74
444.92	4.73
445.275	4.73
445.629	4.73
445.984	4.71
446.339	4.7
446.693	4.69
447.048	4.67
447.403	4.65
447.757	4.65
448.112	4.62
448.466	4.58
448.82	4.58
449.175	4.58
449.529	4.55
449.883	4.51
450.238	4.49
450.592	4.48
450.946	4.47
451.3	4.45
451.654	4.42
452.008	4.41
452.362	4.38
452.716	4.38
453.07	4.36
453.424	4.37
453.778	4.34
454.132	4.31
454.486	4.32
454.839	4.32
455.193	4.31
455.547	4.32
455.9	4.34
456.254	4.36
456.607	4.35
456.961	4.36
457.314	4.37
457.668	4.37
458.021	4.36
458.375	4.39
458.728	4.38
459.081	4.39
459.434	4.37
459.787	4.37
460.141	4.38
460.494	4.4
460.847	4.41
461.2	4.41
461.553	4.42
461.906	4.44
462.259	4.47
462.611	4.49
462.964	4.51
463.317	4.5
463.67	4.5
464.022	4.53
464.375	4.54
464.728	4.56
465.08	4.59
465.433	4.58
465.785	4.57
466.138	4.59
466.49	4.61
466.843	4.64
467.195	4.68
467.547	4.69
467.899	4.69
468.252	4.7
468.604	4.73
468.956	4.75
469.308	4.77
469.66	4.75
470.012	4.77
470.364	4.79
470.716	4.83
471.068	4.84
471.42	4.86
471.772	4.9
472.123	4.91
472.475	4.91
472.827	4.94
473.178	4.95
473.53	4.96
473.882	4.98
474.233	4.99
474.585	4.96
474.936	4.96
475.288	4.98
475.639	5
475.99	5.01
476.342	5.02
476.693	5.01
477.044	5.02
477.395	5.02
477.746	5.01
478.097	4.99
478.448	4.97
478.8	4.95
479.15	4.9
479.501	4.91
479.852	4.92
480.203	4.9
480.554	4.91
480.905	4.91
481.255	4.91
481.606	4.9
481.957	4.91
482.307	4.91
482.658	4.91
483.009	4.89
483.359	4.89
483.709	4.89
484.06	4.89
484.41	4.89
484.761	4.89
485.111	4.89
485.461	4.89
485.811	4.89
486.162	4.89
486.512	4.9
486.862	4.91
487.212	4.91
487.562	4.91
487.912	4.9
488.262	4.89
488.612	4.9
488.961	4.89
489.311	4.88
489.661	4.89
490.011	4.89
490.36	4.89
490.71	4.9
491.06	4.91
491.409	4.91
491.759	4.91
492.108	4.91
492.458	4.91
492.807	4.91
493.157	4.93
493.506	4.94
493.855	4.96
494.204	4.98
494.554	4.99
494.903	5.01
495.252	5.03
495.601	5.07
495.95	5.09
496.299	5.15
496.648	5.18
496.997	5.2
497.346	5.25
497.695	5.3
498.043	5.33
498.392	5.38
498.741	5.42
499.09	5.47
499.438	5.54
499.787	5.6
500.135	5.69
500.484	5.76
500.832	5.82
501.181	5.88
501.529	5.94
501.878	6.02
502.226	6.12
502.574	6.21
502.923	6.28
503.271	6.38
503.619	6.47
503.967	6.58
504.315	6.68
504.663	6.79
505.011	6.9
505.359	7.01
505.707	7.12
506.055	7.25
506.403	7.36
506.751	7.46
507.098	7.59
507.446	7.69
507.794	7.81
508.141	7.92
508.489	8.05
508.837	8.18
509.184	8.31
509.531	8.44
509.879	8.58
510.226	8.74
510.574	8.87
510.921	9.02
511.268	9.15
511.616	9.32
511.963	9.5
512.31	9.64
512.657	9.8
513.004	9.99
513.351	10.14
513.698	10.36
514.045	10.59
514.392	10.83
514.739	11.05
515.086	11.28
515.432	11.51
515.779	11.7
516.126	11.92
516.473	12.11
516.819	12.31
517.166	12.49
517.512	12.68
517.859	12.88
518.205	13.09
518.552	13.28
518.898	13.46
519.245	13.64
519.591	13.85
519.937	14.07
520.283	14.27
520.629	14.52
520.976	14.75
521.322	14.97
521.668	15.18
522.014	15.42
522.36	15.68
522.706	15.94
523.052	16.25
523.398	16.54
523.743	16.85
524.089	17.16
524.435	17.47
524.781	17.76
525.126	18.03
525.472	18.27
525.817	18.47
526.163	18.68
526.509	18.87
526.854	19.04
527.199	19.19
527.545	19.34
527.89	19.48
528.235	19.62
528.581	19.79
528.926	19.97
529.271	20.15
529.616	20.31
529.961	20.47
530.306	20.66
530.651	20.83
530.996	21.02
531.341	21.21
531.686	21.41
532.031	21.6
532.376	21.8
532.721	21.99
533.065	22.24
533.41	22.44
533.755	22.68
534.099	22.91
534.444	23.16
534.788	23.41
535.133	23.64
535.477	23.88
535.822	24.1
536.166	24.33
536.51	24.59
536.855	24.88
537.199	25.18
537.543	25.45
537.887	25.76
538.231	26.05
538.576	26.32
538.92	26.58
539.264	26.83
539.608	27.08
539.951	27.31
540.295	27.49
540.639	27.73
540.983	27.94
541.327	28.14
541.671	28.32
542.014	28.53
542.358	28.74
542.701	28.93
543.045	29.13
543.389	29.32
543.732	29.53
544.075	29.73
544.419	29.94
544.762	30.16
545.105	30.38
545.449	30.63
545.792	30.91
546.135	31.15
546.478	31.42
546.821	31.68
547.165	32
547.508	32.33
547.851	32.61
548.194	32.87
548.536	33.24
548.879	33.59
549.222	33.9
549.565	34.2
549.908	34.54
550.25	34.88
550.593	35.21
550.936	35.45
551.278	35.74
551.621	36.02
551.963	36.28
552.306	36.55
552.648	36.77
552.991	37.02
553.333	37.31
553.675	37.59
554.017	37.91
554.36	38.16
554.702	38.42
555.044	38.72
555.386	38.96
555.728	39.14
556.07	39.37
556.412	39.59
556.754	39.81
557.096	40.07
557.438	40.32
557.78	40.52
558.121	40.84
558.463	41.1
558.805	41.42
559.147	41.65
559.488	41.91
559.83	42.21
560.171	42.46
560.513	42.65
560.854	42.91
561.196	43.15
561.537	43.35
561.878	43.6
562.22	43.8
562.561	44.07
562.902	44.25
563.243	44.4
563.584	44.54
563.925	44.75
564.266	44.97
564.607	45.19
564.948	45.39
565.289	45.58
565.63	45.77
565.971	45.93
566.312	46.11
566.653	46.29
566.993	46.42
567.334	46.59
567.675	46.82
568.015	47.01
568.356	47.17
568.696	47.37
569.037	47.56
569.377	47.7
569.718	47.87
570.058	48.14
570.398	48.34
570.739	48.56
571.079	48.72
571.419	48.87
571.759	49
572.099	49.2
572.439	49.32
572.779	49.51
573.119	49.62
573.459	49.81
573.799	49.92
574.139	50.05
574.479	50.21
574.819	50.35
575.158	50.45
575.498	50.6
575.838	50.73
576.177	50.85
576.517	50.98
576.856	51.1
577.196	51.15
577.535	51.37
577.875	51.51
578.214	51.66
578.553	51.75
578.893	51.9
579.232	52.01
579.571	52.15
579.91	52.27
580.25	52.37
580.589	52.51
580.928	52.6
581.267	52.67
581.606	52.73
581.945	52.82
582.283	52.93
582.622	52.99
582.961	53.06
583.3	53.11
583.639	53.2
583.977	53.37
584.316	53.48
584.654	53.59
584.993	53.75
585.332	53.84
585.67	53.93
586.008	54.03
586.347	54.13
586.685	54.2
587.024	54.28
587.362	54.38
587.7	54.44
588.038	54.56
588.376	54.75
588.715	54.86
589.053	54.93
589.391	54.97
589.729	54.99
590.067	55.16
590.404	55.31
590.742	55.41
591.08	55.42
591.418	55.51
591.756	55.54
592.093	55.51
592.431	55.61
592.769	55.79
593.106	55.79
593.444	55.83
593.781	55.97
594.119	56.07
594.456	56.15
594.793	56.18
595.131	56.21
595.468	56.22
595.805	56.25
596.143	56.28
596.48	56.33
596.817	56.43
597.154	56.41
597.491	56.47
597.828	56.5
598.165	56.55
598.502	56.58
598.839	56.65
599.176	56.76
599.512	56.83
599.849	56.8
600.186	56.94
600.523	56.95
600.859	57.01
601.196	57.01
601.532	57.02
601.869	57.03
602.205	57.12
602.542	57.18
602.878	57.23
603.215	57.32
603.551	57.34
603.887	57.35
604.223	57.35
604.56	57.35
604.896	57.43
605.232	57.44
605.568	57.51
605.904	57.52
606.24	57.44
606.576	57.41
606.912	57.44
607.248	57.42
607.583	57.45
607.919	57.42
608.255	57.48
608.591	57.57
608.926	57.73
609.262	57.76
609.597	57.82
609.933	57.89
610.268	57.92
610.604	57.98
610.939	58.05
611.275	58.15
611.61	58.16
611.945	58.19
612.281	58.29
612.616	58.28
612.951	58.23
613.286	58.35
613.621	58.42
613.956	58.44
614.291	58.39
614.626	58.5
614.961	58.56
615.296	58.59
615.631	58.58
615.966	58.57
616.3	58.53
616.635	58.54
616.97	58.56
617.304	58.5
617.639	58.53
617.973	58.45
618.308	58.41
618.642	58.52
618.977	58.43
619.311	58.42
619.646	58.51
619.98	58.56
620.314	58.67
620.648	58.61
620.983	58.71
621.317	58.86
621.651	58.84
621.985	58.86
622.319	58.96
622.653	59.03
622.987	59.07
623.321	59.11
623.655	59.1
623.988	59.07
624.322	59.17
624.656	59.17
624.99	59.28
625.323	59.28
625.657	59.3
625.99	59.36
626.324	59.4
626.657	59.36
626.991	59.41
627.324	59.4
627.658	59.5
627.991	59.49
628.324	59.41
628.657	59.46
628.991	59.5
629.324	59.46
629.657	59.45
629.99	59.41
630.323	59.45
630.656	59.53
630.989	59.59
631.322	59.57
631.655	59.65
631.987	59.62
632.32	59.68
632.653	59.63
632.986	59.66
633.318	59.67
633.651	59.66
633.984	59.71
634.316	59.68
634.649	59.72
634.981	59.7
635.313	59.81
635.646	59.85
635.978	59.8
636.31	59.76
636.643	59.82
636.975	59.83
637.307	59.89
637.639	59.92
637.971	59.95
638.303	59.87
638.635	59.86
638.967	59.91
639.299	59.86
639.631	59.8
639.963	59.81
640.295	59.76
640.626	59.84
640.958	59.84
641.29	59.91
641.621	59.89
641.953	60.01
642.285	59.98
642.616	59.96
642.948	60.07
643.279	60.05
643.61	60.01
643.942	59.93
644.273	60.01
644.604	59.92
644.936	59.82
645.267	59.97
645.598	59.85
645.929	59.88
646.26	59.94
646.591	60.01
646.922	59.99
647.253	60
647.584	59.92
647.915	59.92
648.245	59.92
648.576	59.93
648.907	59.88
649.238	59.83
649.568	59.84
649.899	59.79
650.229	59.89
650.56	59.86
650.89	59.82
651.221	59.71
651.551	59.73
651.882	59.75
652.212	59.64
652.542	59.72
652.872	59.66
653.203	59.65
653.533	59.54
653.863	59.58
654.193	59.45
654.523	59.53
654.853	59.53
655.183	59.55
655.513	59.53
655.843	59.4
656.172	59.56
656.502	59.62
656.832	59.73
657.162	59.71
657.491	59.75
657.821	59.87
658.15	60.01
658.48	59.98
658.809	60.01
659.139	60.07
659.468	60.03
659.798	60
660.127	60.1
660.456	60.17
660.785	60.2
661.115	60.34
661.444	60.39
661.773	60.32
662.102	60.41
662.431	60.45
662.76	60.56
663.089	60.47
663.418	60.39
663.747	60.15
664.076	60.21
664.404	60.19
664.733	60.26
665.062	60.21
665.39	60.15
665.719	60.12
666.048	60.14
666.376	60.24
666.705	60.26
667.033	60.22
667.362	60.2
667.69	60.15
668.018	60.2
668.347	60.13
668.675	60.23
669.003	60.13
669.331	60.17
669.659	60.31
669.987	60.24
670.315	60.28
670.643	60.48
670.971	60.42
671.299	60.46
671.627	60.39
671.955	60.37
672.283	60.55
672.61	60.5
672.938	60.67
673.266	60.69
673.593	60.9
673.921	60.82
674.249	60.89
674.576	60.91
674.904	60.89
675.231	60.88
675.558	60.91
675.886	60.88
676.213	60.75
676.54	60.73
676.867	60.92
677.195	61.02
677.522	61.04
677.849	61.18
678.176	61.3
678.503	61.34
678.83	61.38
679.157	61.39
679.484	61.56
679.81	61.43
680.137	61.28
680.464	61.14
680.791	61.25
681.117	61.21
681.444	61.19
681.771	61.2
682.097	61.26
682.424	61.19
682.75	61.26
683.077	61.32
683.403	61.16
683.729	61.08
684.056	60.97
684.382	60.94
684.708	60.81
685.034	60.68
685.36	60.71
685.686	60.59
686.012	60.51
686.339	60.38
686.664	60.38
686.99	60.52
687.316	60.51
687.642	60.49
687.968	60.58
688.294	60.6
688.619	60.55
688.945	60.52
689.271	60.44
689.596	60.42
689.922	60.38
690.247	60.41
690.573	60.28
690.898	60.3
691.224	60.26
691.549	60.36
691.874	60.44
692.2	60.42
692.525	60.52
692.85	60.41
693.175	60.34
693.5	60.32
693.825	60.39
694.15	60.47
694.475	60.55
694.8	60.63
695.125	60.69
695.45	60.61
695.775	60.65
696.099	60.69
696.424	60.65
696.749	60.6
697.073	60.54
697.398	60.55
697.723	60.47
698.047	60.48
698.372	60.33
698.696	60.26
699.02	60.17
699.345	60.18
699.669	60.33
699.993	60.36
700.318	60.35
700.642	60.37
700.966	60.36
701.29	60.32
701.614	60.2
701.938	60.21
702.262	60.34
702.586	60.26
702.91	60.49
703.234	60.67
703.557	60.98
703.881	61.19
704.205	61.35
704.529	61.49
704.852	61.4
705.176	61.56
705.499	61.63
705.823	61.75
706.146	61.66
706.47	61.77
706.793	61.8
707.117	61.8
707.44	61.65
707.763	61.66
708.086	61.54
708.409	61.66
708.733	61.62
709.056	61.56
709.379	61.45
709.702	61.32
710.025	61.12
710.348	60.97
710.671	60.87
710.993	60.93
711.316	61
711.639	61.27
711.962	61.16
712.284	61.19
712.607	61.25
712.93	61.23
713.252	61.14
713.575	61.15
713.897	61.21
714.22	61.22
714.542	60.99
714.864	61.04
715.187	60.82
715.509	60.89
715.831	60.88
716.153	61.07
716.475	61.01
716.798	61.08
717.12	60.92
717.442	60.89
717.764	60.84
718.085	60.71
718.407	60.57
718.729	60.43
719.051	60.17
719.373	59.85
719.695	59.85
720.016	59.99
720.338	60.28
720.659	60.26
720.981	60.45
721.302	60.82
721.624	60.81
721.945	60.93
722.267	60.9
722.588	60.75
722.909	60.76
723.231	60.65
723.552	60.81
723.873	61.08
724.194	61.21
724.515	61.26
724.836	61.26
725.157	61.39
725.478	61.33
725.799	61.56
726.12	61.65
726.441	61.63
726.762	61.45
727.083	61.21
727.403	61.08
727.724	60.8
728.045	60.65
728.365	60.72
728.686	60.8
729.006	60.86
729.327	60.98
729.647	61.2
729.967	61.38
730.288	61.38
730.608	61.06
730.928	61.1
731.249	60.95
731.569	61.23
731.889	61.28
732.209	61.3
732.529	61.22
732.849	61.4
733.169	61.25
733.489	61.24
733.809	61.22
734.129	61.15
734.448	61.16
734.768	61.03
735.088	61.18
735.408	60.91
735.727	60.88
736.047	60.91
736.366	60.64
736.686	60.62
737.005	60.28
737.325	60.52
737.644	60.36
737.963	60.58
738.283	60.35
738.602	60.22
738.921	60.65
739.24	60.67
739.56	60.52
739.879	60.64
740.198	60.85
740.517	60.79
740.836	61.16
741.155	61.38
741.473	61.57
741.792	61.57
742.111	61.93
742.43	61.99
742.748	61.74
743.067	61.58
743.386	61.64
743.704	61.67
744.023	61.69
744.341	61.77
744.66	61.52
744.978	61.27
745.297	61.18
745.615	60.88
745.933	60.79
746.252	61.06
746.57	60.99
746.888	60.68
747.206	60.99
747.524	60.88
747.842	60.7
748.16	60.86
748.478	60.6
748.796	60.14
749.114	60.1
749.432	60.48
749.749	60.76
750.067	60.73
750.385	60.97
750.703	60.7
751.02	60.98
751.338	60.74
751.655	61.03
751.973	61.25
752.29	61.31
752.608	61.56
752.925	61.55
753.242	61.51
753.56	61.3
753.877	61.01
754.194	61
754.511	61.06
754.828	60.78
755.145	61.02
755.462	61.45
755.779	61.31
756.096	61.08
756.413	60.9
756.73	60.79
757.047	60.76
757.364	61.02
757.68	60.67
757.997	60.83
758.314	61
758.63	60.65
758.947	60.6
759.264	60.65
759.58	60.32
759.896	60.76
760.213	61.2
760.529	60.99
760.846	61.02
761.162	60.91
761.478	60.77
761.794	60.87
762.11	61.09
762.426	61.19
762.743	61.19
763.059	61.43
763.375	61.27
763.69	61.36
764.006	61.4
764.322	61.42
764.638	61.57
764.954	61.54
765.27	61.65
765.585	61.71
765.901	61.75
766.216	61.82
766.532	61.71
766.848	61.35
767.163	61.7
767.478	61.63
767.794	61.85
768.109	62.01
768.424	62.05
768.74	61.58
769.055	61.48
769.37	61.55
769.685	61.27
770	61.49
770.315	61.35
770.63	61.23
770.945	61.04
771.26	60.86
771.575	60.76
771.89	60.65
772.205	60.62
772.52	59.86
772.834	59.95
773.149	59.78
773.464	59.9
773.778	59.97
774.093	59.71
774.407	59.27
774.722	59.32
775.036	59.1
775.351	59.19
775.665	59.28
775.979	59.19
776.293	59.27
776.608	59.17
776.922	58.99
777.236	58.65
777.55	59.06
777.864	59.16
778.178	58.97
778.492	59.17
778.806	59.37
779.12	59.72
779.434	59.28
779.747	59.22
780.061	59.69
780.375	59.31
780.689	59.33
781.002	59.41
781.316	59.54
781.629	59.31
781.943	59.53
782.256	59.55
782.57	59.53
782.883	59.53
783.196	59.55
783.51	59.91
783.823	60.17
784.136	60.05
784.449	60.05
784.762	60.42
785.075	60.58
785.388	60.78
785.701	60.55
786.014	60.95
786.327	61.3
786.64	61.62
786.953	61.18
787.266	61.59
787.578	61.78
787.891	61.79
788.204	61.9
788.516	62.14
788.829	61.98
789.141	61.67
789.454	61.24
789.766	61.15
790.079	61.02
790.391	61.34
790.703	61.88
791.016	62.17
791.328	61.89
791.64	61.64
791.952	61.59
792.264	61.65
792.576	61.66
792.888	62.16
793.2	62.09
793.512	62.43
793.824	62.58
794.136	62.66
794.448	62.58
794.76	62.55
795.071	62.75
795.383	62.55
795.695	62.84
796.006	63.09
796.318	62.76
796.629	63.23
796.941	63.05
797.252	63.18
797.564	63.51
797.875	63.32
798.186	63.44
798.497	63.72
798.809	64.14
799.12	64.2
799.431	63.31
799.742	63.27
800.053	63.96
800.364	64
800.675	63.8
800.986	63.7
801.297	63.54
801.608	63.06
801.918	63.16
802.229	63.28
802.54	63.22
802.851	63.9
803.161	63.37
803.472	63.72
803.782	63.09
804.093	62.11
804.403	62.7
804.714	62.1
805.024	61.35
805.334	61.49
805.645	61.47
805.955	61.81
806.265	60.83
806.575	60.15
806.885	59.27
807.195	59.38
807.505	59.85
807.815	60.6
808.125	60.51
808.435	60.54
808.745	60.24
809.055	60.79
809.365	60.6
809.674	61.08
809.984	60.08
810.294	59.64
810.603	59.75
810.913	59.66
811.222	60.39
811.532	60.66
811.841	61.17
812.151	60.99
812.46	60.9
812.769	60.79
813.079	61.38
813.388	60.9
813.697	60.75
814.006	59.87
814.315	59.66
814.624	59.77
814.933	59.73
815.242	60.39
815.551	60.27
815.86	60.55
816.169	59.83
816.478	60.46
816.786	61.52
817.095	61.86
817.404	61.62
817.712	61.58
818.021	60.97
818.33	60.89
818.638	61.01
818.947	61.92
819.255	61.92
819.563	61.6
819.872	62.09
820.18	62.4
820.488	62.65
820.796	62.32
821.105	62.35
821.413	62.3
821.721	62.36
822.029	62.36
822.337	62.13
822.645	62.19
822.953	62.39
823.26	62.28
823.568	62.1
823.876	61.97
824.184	61.82
824.491	61.9
824.799	62.07
825.107	61.97
825.414	61.61
825.722	61.64
826.029	61.63
826.337	61.75
826.644	61.76
826.951	61.6
827.259	61.53
827.566	61.45
827.873	61.51
828.18	61.25
828.488	61.06
828.795	61.17
829.102	61.01
829.409	60.6
829.716	60.19
830.023	60.63
830.329	60.95
830.636	60.99
830.943	61.05
831.25	60.45
831.557	61.01
831.863	61.25
832.17	61.44
832.476	61.63
832.783	61.56
833.089	61.43
833.396	61.7
833.702	61.82
834.009	61.76
834.315	61.44
834.621	61.67
834.928	61.78
835.234	61.77
835.54	62.21
835.846	62.16
836.152	61.92
836.458	61.5
836.764	60.74
837.07	61.05
837.376	60.55
837.682	60.3
837.988	59.5
838.293	59.3
838.599	59.56
838.905	58.8
839.211	58.06
839.516	57.95
839.822	57.86
840.127	57.91
840.433	58.22
840.738	58.79
841.044	58.15
841.349	58.2
841.654	58.19
841.959	57.97
842.265	57.76
842.57	58.74
842.875	57.98
843.18	59.58
843.485	59.11
843.79	59.87
844.095	60.41
844.4	60.46
844.705	59.85
845.01	58.07
845.315	57.94
845.619	57.34
845.924	57.15
846.229	56.73
846.533	55.43
846.838	54.27
847.142	53.3
847.447	53.63
847.751	53.1
848.056	53.71
848.36	53.51
848.664	53.8
848.969	54.77
849.273	55.66
849.577	53.48
849.881	54.35
850.185	53.31
850.489	53.74
850.794	54.74
851.097	55.39
851.401	56.73
851.705	57.42
852.009	58.57
852.313	56.95
852.617	57.92
852.92	58.18
853.224	58.52
853.528	58.4
853.831	58
854.135	59.16
854.438	56.73
854.742	55.96
855.045	54.51
855.349	53.58
855.652	54.15
855.955	57.11
856.259	56.27
856.562	55.62
856.865	55.18
857.168	54.92
857.471	57.31
857.774	58.86
858.077	58.99
858.38	60.28
858.683	58.7
858.986	57.61
859.289	60.59
859.592	59.93
859.894	60.28
860.197	61.13
860.5	60.84
860.802	62.3
861.105	63.59
861.407	62.19
861.71	61.55
862.012	60.99
862.315	59.07
862.617	58.83
862.919	58.59
863.222	57.03
863.524	59.41
863.826	58.19
864.128	56.29
864.43	58.75
864.732	58.76
865.034	58.72
865.336	59.59
865.638	58.37
865.94	58.66
866.242	58.47
866.544	56.41
866.846	55.04
867.147	56.36
867.449	54.21
867.751	56.97
868.052	59.65
868.354	60.85
868.655	61.53
868.957	62.6
869.258	64.99
869.56	67.03
869.861	64.16
870.162	63.53
870.463	65.63
870.765	65.43
871.066	64.49
871.367	69.57
871.668	69.04
871.969	67.28
872.27	68.27
872.571	70.2
872.872	71.28
873.173	71.71
873.473	68.55
873.774	70.26
874.075	68.47
874.376	66.74
874.676	66.91
874.977	63.95
875.277	63.18
875.578	62.86
875.878	62.08
876.179	61.97
876.479	61.97
876.78	60.38
877.08	58.1
877.38	58.12
877.68	55.14
877.981	54.37
878.281	55.64
878.581	53.98
