Data from BU57648_Reflection_00002.txt Node
Date: Tue Nov 19 10:46:29 EST 2019
User: vgr7
Spectrometer: USB2G7710
Scans to average: 3
Trigger mode: 4
Integration Time (sec): 2.000000E-2
Electric dark correction enabled: true
Boxcar width: 10
XAxis mode: Wavelengths
Number of Pixels in Spectrum: 2048
>>>>>Begin Spectral Data<<<<<
177.721	-59.02
178.105	-100.62
178.488	-73.12
178.871	-44.44
179.254	-92.22
179.636	-52.12
180.019	-39.96
180.402	121.43
180.785	-22.78
181.168	67.59
181.55	134.31
181.933	56.85
182.316	51.8
182.698	152.26
183.081	58.84
183.463	-12.54
183.846	-6.15
184.228	42.71
184.611	62.86
184.993	46.19
185.376	18.23
185.758	22.5
186.14	21.83
186.522	26.77
186.904	21.73
187.287	17.55
187.669	33.03
188.051	50.13
188.433	70.02
188.815	89.41
189.197	47.83
189.579	58
189.961	43.44
190.342	17.15
190.724	8
191.106	10.11
191.488	25.03
191.869	41.77
192.251	35.22
192.633	30.73
193.014	17.81
193.396	33.95
193.777	28.29
194.159	17.61
194.54	11.4
194.922	-0.07
195.303	-23.55
195.684	-32.08
196.065	-22.98
196.447	-16.79
196.828	-19.75
197.209	-6.55
197.59	-11.21
197.971	8.57
198.352	6.9
198.733	0.63
199.114	-0.78
199.495	16.39
199.876	0.95
200.257	-9.28
200.638	-0.9
201.018	1.9
201.399	2.87
201.78	8.31
202.16	3.61
202.541	6.32
202.922	-0.05
203.302	7.69
203.683	0.31
204.063	-8.19
204.444	-26.24
204.824	-30.38
205.204	-34.3
205.585	-36.39
205.965	-56.29
206.345	-45.59
206.725	-36.22
207.106	-23.78
207.486	-31.92
207.866	-29.37
208.246	-17.59
208.626	-42.82
209.006	-36
209.386	-32.14
209.766	-41.81
210.145	-29.29
210.525	-26.89
210.905	10.93
211.285	25.2
211.664	33.61
212.044	29.53
212.424	62.45
212.803	51.41
213.183	60.33
213.562	60.26
213.942	57.78
214.321	61.99
214.701	53.67
215.08	55.68
215.459	54.12
215.838	46.08
216.218	44.73
216.597	40.34
216.976	35.83
217.355	18.19
217.734	23.55
218.113	26.64
218.492	14.37
218.871	13.89
219.25	10.83
219.629	10.92
220.008	37.11
220.387	18.99
220.766	44.07
221.144	34.61
221.523	-8.89
221.902	-4.52
222.28	5.87
222.659	25.43
223.037	21.7
223.416	25.56
223.794	24.26
224.173	19.4
224.551	32.6
224.929	29.03
225.308	35.52
225.686	23.43
226.064	7.48
226.442	15.59
226.821	11.27
227.199	6.14
227.577	4.73
227.955	-5.21
228.333	-4.98
228.711	-4.25
229.089	-6.67
229.467	-3.62
229.845	-5.22
230.222	-9.22
230.6	-13.2
230.978	-10.61
231.356	-10.74
231.733	-8.95
232.111	-6.98
232.488	-9.89
232.866	-9.31
233.243	-9.46
233.621	-9.08
233.998	-7.17
234.376	-7.7
234.753	-8.17
235.13	-6.19
235.508	-6.05
235.885	-4.55
236.262	-5.53
236.639	-6.71
237.016	-3.58
237.393	-2.53
237.77	-1.39
238.147	-0.29
238.524	0.46
238.901	1.01
239.278	-0.04
239.655	1.5
240.032	2.14
240.409	2.25
240.785	3.28
241.162	3.88
241.539	3.69
241.915	3.45
242.292	3.2
242.668	3.56
243.045	3.95
243.421	4.47
243.798	4.91
244.174	5.54
244.551	5.59
244.927	5.41
245.303	4.99
245.679	4.99
246.056	5.31
246.432	5.24
246.808	5.2
247.184	5.58
247.56	5.19
247.936	5.07
248.312	5.04
248.688	4.74
249.064	4.26
249.44	4.22
249.815	4.6
250.191	4.69
250.567	4.45
250.943	4.01
251.318	3.9
251.694	3.76
252.069	3.57
252.445	3.63
252.82	3.53
253.196	3.68
253.571	3.83
253.947	3.8
254.322	3.5
254.697	3.36
255.073	3.32
255.448	3.44
255.823	3.36
256.198	3.57
256.573	3.89
256.948	4.35
257.323	4.44
257.698	4.5
258.073	4.68
258.448	4.83
258.823	4.89
259.198	4.75
259.573	4.58
259.948	4.49
260.322	4.54
260.697	4.61
261.072	4.74
261.446	4.53
261.821	4.3
262.195	4.23
262.57	4.44
262.944	4.4
263.319	4.27
263.693	4.35
264.067	4.41
264.442	4.23
264.816	4.15
265.19	4.2
265.564	4.02
265.938	3.68
266.313	3.49
266.687	3.45
267.061	3.38
267.435	3.6
267.809	3.6
268.183	3.48
268.556	3.35
268.93	3.15
269.304	2.99
269.678	3.08
270.051	3.23
270.425	2.92
270.799	2.81
271.172	2.91
271.546	2.73
271.919	2.51
272.293	2.63
272.666	2.79
273.04	2.72
273.413	2.63
273.787	2.89
274.16	2.94
274.533	3.04
274.906	3.15
275.279	2.93
275.653	2.91
276.026	2.93
276.399	3.12
276.772	3.42
277.145	3.65
277.518	3.54
277.891	3.5
278.263	3.7
278.636	3.75
279.009	3.85
279.382	4.02
279.755	4.2
280.127	3.93
280.5	3.8
280.872	3.91
281.245	3.96
281.617	3.85
281.99	3.92
282.362	3.88
282.735	3.82
283.107	4.05
283.479	4.02
283.852	4.03
284.224	3.95
284.596	3.9
284.968	3.94
285.34	3.94
285.713	4.1
286.085	3.88
286.457	3.94
286.829	3.94
287.201	3.89
287.572	3.8
287.944	3.84
288.316	3.91
288.688	3.97
289.06	4.01
289.431	4.05
289.803	4.17
290.175	4.11
290.546	4.13
290.918	4.03
291.289	3.95
291.661	4
292.032	3.84
292.403	3.82
292.775	3.96
293.146	4.21
293.517	4.16
293.889	4.41
294.26	4.45
294.631	4.54
295.002	4.59
295.373	4.58
295.744	4.67
296.115	4.65
296.486	4.49
296.857	4.58
297.228	4.45
297.599	4.33
297.97	4.4
298.34	4.44
298.711	4.47
299.082	4.63
299.452	4.57
299.823	4.87
300.194	4.84
300.564	4.7
300.935	4.59
301.305	4.52
301.676	4.47
302.046	4.48
302.416	4.45
302.787	4.47
303.157	4.62
303.527	4.72
303.897	4.62
304.267	4.78
304.637	4.68
305.008	4.87
305.378	4.9
305.748	4.83
306.117	4.9
306.487	5.09
306.857	4.99
307.227	5.14
307.597	4.98
307.967	5.12
308.336	5.16
308.706	5.24
309.076	5.38
309.445	5.59
309.815	5.55
310.184	5.51
310.554	5.59
310.923	5.64
311.293	5.46
311.662	5.59
312.031	5.52
312.401	5.6
312.77	5.58
313.139	5.53
313.508	5.64
313.877	5.61
314.246	5.48
314.616	5.54
314.985	5.53
315.353	5.57
315.722	5.56
316.091	5.6
316.46	5.63
316.829	5.64
317.198	5.53
317.567	5.73
317.935	5.87
318.304	5.93
318.672	5.98
319.041	6.12
319.41	6.18
319.778	6.16
320.147	5.97
320.515	6.14
320.883	6.25
321.252	6.23
321.62	6.26
321.988	6.23
322.357	6.23
322.725	6.25
323.093	6.26
323.461	6.28
323.829	6.3
324.197	6.14
324.565	6.14
324.933	6.11
325.301	5.92
325.669	5.76
326.037	5.62
326.405	5.51
326.772	5.5
327.14	5.24
327.508	5.2
327.875	5.28
328.243	5.12
328.61	5.15
328.978	5.06
329.346	5.03
329.713	5.1
330.08	5.23
330.448	5.26
330.815	5.17
331.182	5.09
331.55	4.97
331.917	5
332.284	5.01
332.651	5.06
333.018	5.07
333.385	5.25
333.752	5.25
334.119	5.37
334.486	5.4
334.853	5.45
335.22	5.42
335.587	5.42
335.954	5.47
336.32	5.51
336.687	5.61
337.054	5.54
337.42	5.49
337.787	5.32
338.153	5.22
338.52	5.34
338.886	5.34
339.253	5.32
339.619	5.38
339.986	5.44
340.352	5.37
340.718	5.53
341.084	5.4
341.451	5.4
341.817	5.33
342.183	5.33
342.549	5.52
342.915	5.66
343.281	5.58
343.647	5.65
344.013	5.65
344.379	5.66
344.745	5.75
345.11	5.7
345.476	5.86
345.842	5.82
346.208	5.75
346.573	5.82
346.939	5.82
347.304	5.89
347.67	5.71
348.035	5.68
348.401	5.55
348.766	5.51
349.132	5.61
349.497	5.63
349.862	5.62
350.228	5.46
350.593	5.28
350.958	5.44
351.323	5.37
351.688	5.41
352.053	5.47
352.418	5.44
352.783	5.43
353.148	5.38
353.513	5.43
353.878	5.37
354.243	5.24
354.608	5.36
354.972	5.31
355.337	5.39
355.702	5.33
356.066	5.33
356.431	5.28
356.795	5.18
357.16	5.22
357.524	5.2
357.889	5.24
358.253	5.38
358.618	5.28
358.982	5.22
359.346	5.1
359.71	5.04
360.075	4.97
360.439	4.98
360.803	4.99
361.167	4.94
361.531	5
361.895	5.06
362.259	5.12
362.623	5.11
362.987	5.11
363.351	5.13
363.714	5.17
364.078	5.26
364.442	5.27
364.806	5.29
365.169	5.32
365.533	5.34
365.896	5.32
366.26	5.36
366.623	5.35
366.987	5.44
367.35	5.49
367.714	5.54
368.077	5.63
368.44	5.63
368.803	5.62
369.167	5.6
369.53	5.58
369.893	5.55
370.256	5.5
370.619	5.42
370.982	5.37
371.345	5.38
371.708	5.42
372.071	5.4
372.434	5.38
372.797	5.33
373.159	5.33
373.522	5.29
373.885	5.31
374.247	5.34
374.61	5.35
374.973	5.27
375.335	5.3
375.698	5.31
376.06	5.28
376.423	5.28
376.785	5.29
377.147	5.27
377.51	5.26
377.872	5.28
378.234	5.4
378.596	5.45
378.958	5.4
379.321	5.27
379.683	5.29
380.045	5.2
380.407	5.2
380.769	5.14
381.13	5.11
381.492	5.07
381.854	5.09
382.216	5.08
382.578	5.1
382.939	5.09
383.301	5.03
383.663	5.06
384.024	5.11
384.386	5.11
384.747	5.07
385.109	5.02
385.47	5.07
385.832	4.98
386.193	4.95
386.554	4.97
386.916	5.01
387.277	5
387.638	5.04
387.999	5.05
388.36	5.1
388.721	5.17
389.082	5.17
389.443	5.18
389.804	5.17
390.165	5.2
390.526	5.24
390.887	5.24
391.248	5.2
391.609	5.19
391.969	5.19
392.33	5.2
392.691	5.21
393.051	5.19
393.412	5.2
393.772	5.26
394.133	5.24
394.493	5.25
394.854	5.28
395.214	5.28
395.574	5.28
395.935	5.28
396.295	5.26
396.655	5.32
397.015	5.3
397.376	5.32
397.736	5.31
398.096	5.28
398.456	5.25
398.816	5.27
399.176	5.26
399.535	5.26
399.895	5.3
400.255	5.31
400.615	5.32
400.975	5.31
401.334	5.31
401.694	5.32
402.054	5.31
402.413	5.27
402.773	5.28
403.132	5.29
403.492	5.29
403.851	5.29
404.211	5.26
404.57	5.24
404.929	5.26
405.288	5.22
405.648	5.21
406.007	5.23
406.366	5.22
406.725	5.2
407.084	5.22
407.443	5.21
407.802	5.16
408.161	5.14
408.52	5.16
408.879	5.15
409.238	5.14
409.596	5.12
409.955	5.11
410.314	5.1
410.673	5.1
411.031	5.09
411.39	5.05
411.748	5.07
412.107	5.08
412.465	5.02
412.824	5.03
413.182	5.03
413.54	5.04
413.899	5.03
414.257	5.08
414.615	5.05
414.974	5.05
415.332	5.07
415.69	5.07
416.048	5.05
416.406	5.04
416.764	5.04
417.122	5.05
417.48	5.07
417.838	5.06
418.195	5.03
418.553	5.02
418.911	5.01
419.269	5.01
419.626	5.03
419.984	5.03
420.342	5.04
420.699	5.02
421.057	5.03
421.414	5.03
421.772	5.04
422.129	5.03
422.486	5.01
422.844	5
423.201	5.01
423.558	5
423.915	5.02
424.273	5.04
424.63	5.03
424.987	5.02
425.344	5.01
425.701	5.03
426.058	5.04
426.415	5.04
426.772	5.03
427.128	5.01
427.485	5.04
427.842	5.02
428.199	5.03
428.555	5.02
428.912	5.03
429.269	4.99
429.625	4.97
429.982	4.98
430.338	5.01
430.695	4.98
431.051	5
431.407	4.98
431.764	4.95
432.12	4.97
432.476	4.99
432.832	5.01
433.189	4.98
433.545	4.98
433.901	4.99
434.257	4.99
434.613	4.97
434.969	4.96
435.325	4.96
435.681	4.96
436.036	4.96
436.392	4.95
436.748	4.97
437.104	4.99
437.459	4.96
437.815	4.97
438.171	4.98
438.526	4.96
438.882	4.96
439.237	4.97
439.593	4.97
439.948	4.94
440.304	4.95
440.659	4.95
441.014	4.95
441.369	4.96
441.725	4.96
442.08	4.95
442.435	4.94
442.79	4.95
443.145	4.95
443.5	4.93
443.855	4.93
444.21	4.92
444.565	4.92
444.92	4.93
445.275	4.91
445.629	4.89
445.984	4.89
446.339	4.88
446.693	4.87
447.048	4.87
447.403	4.87
447.757	4.85
448.112	4.84
448.466	4.84
448.82	4.83
449.175	4.83
449.529	4.83
449.883	4.84
450.238	4.82
450.592	4.8
450.946	4.79
451.3	4.8
451.654	4.8
452.008	4.79
452.362	4.79
452.716	4.81
453.07	4.83
453.424	4.84
453.778	4.84
454.132	4.84
454.486	4.82
454.839	4.81
455.193	4.81
455.547	4.82
455.9	4.79
456.254	4.81
456.607	4.81
456.961	4.81
457.314	4.77
457.668	4.78
458.021	4.8
458.375	4.8
458.728	4.78
459.081	4.78
459.434	4.77
459.787	4.78
460.141	4.76
460.494	4.76
460.847	4.76
461.2	4.76
461.553	4.77
461.906	4.77
462.259	4.78
462.611	4.78
462.964	4.8
463.317	4.81
463.67	4.81
464.022	4.79
464.375	4.78
464.728	4.81
465.08	4.83
465.433	4.84
465.785	4.85
466.138	4.85
466.49	4.88
466.843	4.88
467.195	4.87
467.547	4.88
467.899	4.89
468.252	4.88
468.604	4.9
468.956	4.88
469.308	4.87
469.66	4.87
470.012	4.89
470.364	4.88
470.716	4.89
471.068	4.89
471.42	4.91
471.772	4.92
472.123	4.91
472.475	4.9
472.827	4.89
473.178	4.89
473.53	4.9
473.882	4.89
474.233	4.92
474.585	4.93
474.936	4.94
475.288	4.9
475.639	4.93
475.99	4.9
476.342	4.91
476.693	4.94
477.044	4.93
477.395	4.92
477.746	4.93
478.097	4.96
478.448	4.95
478.8	4.96
479.15	4.98
479.501	4.99
479.852	5
480.203	5
480.554	4.99
480.905	4.98
481.255	4.99
481.606	4.98
481.957	4.98
482.307	4.99
482.658	5
483.009	5
483.359	5
483.709	5.01
484.06	5.01
484.41	5.02
484.761	5.04
485.111	5.04
485.461	5.03
485.811	5.04
486.162	5.04
486.512	5.04
486.862	5.04
487.212	5.04
487.562	5.04
487.912	5.05
488.262	5.06
488.612	5.06
488.961	5.06
489.311	5.05
489.661	5.05
490.011	5.03
490.36	5.04
490.71	5.04
491.06	5.04
491.409	5.04
491.759	5.03
492.108	5.01
492.458	4.99
492.807	4.98
493.157	4.96
493.506	4.97
493.855	4.96
494.204	4.93
494.554	4.93
494.903	4.92
495.252	4.92
495.601	4.92
495.95	4.92
496.299	4.93
496.648	4.95
496.997	4.96
497.346	5
497.695	4.98
498.043	4.99
498.392	4.99
498.741	4.98
499.09	5
499.438	5.03
499.787	5.05
500.135	5.09
500.484	5.1
500.832	5.12
501.181	5.13
501.529	5.18
501.878	5.18
502.226	5.19
502.574	5.2
502.923	5.2
503.271	5.23
503.619	5.19
503.967	5.19
504.315	5.22
504.663	5.21
505.011	5.23
505.359	5.22
505.707	5.24
506.055	5.26
506.403	5.26
506.751	5.24
507.098	5.25
507.446	5.26
507.794	5.26
508.141	5.26
508.489	5.28
508.837	5.25
509.184	5.26
509.531	5.28
509.879	5.29
510.226	5.3
510.574	5.31
510.921	5.35
511.268	5.38
511.616	5.39
511.963	5.4
512.31	5.42
512.657	5.44
513.004	5.44
513.351	5.44
513.698	5.45
514.045	5.47
514.392	5.48
514.739	5.47
515.086	5.5
515.432	5.52
515.779	5.5
516.126	5.53
516.473	5.55
516.819	5.54
517.166	5.56
517.512	5.57
517.859	5.57
518.205	5.54
518.552	5.52
518.898	5.51
519.245	5.51
519.591	5.51
519.937	5.52
520.283	5.51
520.629	5.51
520.976	5.53
521.322	5.53
521.668	5.54
522.014	5.57
522.36	5.57
522.706	5.56
523.052	5.57
523.398	5.57
523.743	5.58
524.089	5.6
524.435	5.58
524.781	5.59
525.126	5.63
525.472	5.65
525.817	5.67
526.163	5.67
526.509	5.66
526.854	5.66
527.199	5.67
527.545	5.7
527.89	5.7
528.235	5.7
528.581	5.71
528.926	5.71
529.271	5.69
529.616	5.71
529.961	5.72
530.306	5.74
530.651	5.75
530.996	5.76
531.341	5.77
531.686	5.8
532.031	5.81
532.376	5.8
532.721	5.8
533.065	5.8
533.41	5.82
533.755	5.84
534.099	5.85
534.444	5.86
534.788	5.85
535.133	5.87
535.477	5.88
535.822	5.87
536.166	5.88
536.51	5.91
536.855	5.92
537.199	5.92
537.543	5.91
537.887	5.92
538.231	5.91
538.576	5.89
538.92	5.87
539.264	5.86
539.608	5.87
539.951	5.87
540.295	5.86
540.639	5.88
540.983	5.88
541.327	5.89
541.671	5.88
542.014	5.88
542.358	5.88
542.701	5.89
543.045	5.9
543.389	5.9
543.732	5.89
544.075	5.88
544.419	5.88
544.762	5.86
545.105	5.87
545.449	5.88
545.792	5.9
546.135	5.9
546.478	5.9
546.821	5.91
547.165	5.92
547.508	5.95
547.851	5.93
548.194	5.94
548.536	5.91
548.879	5.9
549.222	5.92
549.565	5.92
549.908	5.92
550.25	5.92
550.593	5.94
550.936	5.93
551.278	5.93
551.621	5.9
551.963	5.92
552.306	5.9
552.648	5.9
552.991	5.87
553.333	5.89
553.675	5.93
554.017	5.89
554.36	5.9
554.702	5.86
555.044	5.86
555.386	5.84
555.728	5.87
556.07	5.88
556.412	5.84
556.754	5.85
557.096	5.88
557.438	5.87
557.78	5.84
558.121	5.87
558.463	5.86
558.805	5.9
559.147	5.9
559.488	5.9
559.83	5.92
560.171	5.91
560.513	5.92
560.854	5.9
561.196	5.93
561.537	5.95
561.878	5.98
562.22	5.99
562.561	6.01
562.902	6.04
563.243	6.02
563.584	6
563.925	6
564.266	5.96
564.607	5.99
564.948	6
565.289	6.03
565.63	6.04
565.971	6.02
566.312	5.99
566.653	5.99
566.993	5.98
567.334	6.03
567.675	6.01
568.015	6.01
568.356	6
568.696	5.99
569.037	6.01
569.377	6.01
569.718	5.99
570.058	5.98
570.398	5.99
570.739	6.02
571.079	6
571.419	6
571.759	6
572.099	6
572.439	5.99
572.779	6.02
573.119	6.02
573.459	6.01
573.799	6.01
574.139	6
574.479	5.95
574.819	5.96
575.158	5.97
575.498	5.98
575.838	5.96
576.177	5.91
576.517	5.94
576.856	5.95
577.196	5.97
577.535	5.98
577.875	5.95
578.214	6
578.553	6.02
578.893	6.06
579.232	6.06
579.571	6.03
579.91	6.01
580.25	6.07
580.589	6.13
580.928	6.13
581.267	6.15
581.606	6.15
581.945	6.16
582.283	6.18
582.622	6.14
582.961	6.15
583.3	6.17
583.639	6.15
583.977	6.16
584.316	6.13
584.654	6.09
584.993	6.11
585.332	6.04
585.67	6.08
586.008	6.05
586.347	6.05
586.685	6
587.024	6.01
587.362	5.94
587.7	5.91
588.038	6
588.376	6
588.715	6.04
589.053	6.05
589.391	6.02
589.729	6.08
590.067	6.06
590.404	6.09
590.742	6.11
591.08	6.16
591.418	6.18
591.756	6.18
592.093	6.18
592.431	6.24
592.769	6.21
593.106	6.17
593.444	6.22
593.781	6.26
594.119	6.3
594.456	6.35
594.793	6.37
595.131	6.34
595.468	6.35
595.805	6.37
596.143	6.35
596.48	6.37
596.817	6.32
597.154	6.38
597.491	6.4
597.828	6.4
598.165	6.37
598.502	6.37
598.839	6.39
599.176	6.44
599.512	6.44
599.849	6.43
600.186	6.45
600.523	6.4
600.859	6.41
601.196	6.35
601.532	6.37
601.869	6.35
602.205	6.33
602.542	6.34
602.878	6.31
603.215	6.33
603.551	6.33
603.887	6.35
604.223	6.3
604.56	6.28
604.896	6.24
605.232	6.24
605.568	6.22
605.904	6.2
606.24	6.19
606.576	6.19
606.912	6.21
607.248	6.21
607.583	6.22
607.919	6.21
608.255	6.26
608.591	6.27
608.926	6.29
609.262	6.28
609.597	6.26
609.933	6.3
610.268	6.29
610.604	6.29
610.939	6.31
611.275	6.36
611.61	6.34
611.945	6.31
612.281	6.32
612.616	6.35
612.951	6.41
613.286	6.4
613.621	6.37
613.956	6.36
614.291	6.35
614.626	6.37
614.961	6.43
615.296	6.39
615.631	6.41
615.966	6.43
616.3	6.51
616.635	6.53
616.97	6.49
617.304	6.5
617.639	6.51
617.973	6.47
618.308	6.48
618.642	6.5
618.977	6.52
619.311	6.54
619.646	6.62
619.98	6.58
620.314	6.57
620.648	6.55
620.983	6.56
621.317	6.54
621.651	6.57
621.985	6.53
622.319	6.52
622.653	6.51
622.987	6.47
623.321	6.42
623.655	6.4
623.988	6.41
624.322	6.4
624.656	6.39
624.99	6.4
625.323	6.39
625.657	6.41
625.99	6.44
626.324	6.42
626.657	6.37
626.991	6.38
627.324	6.37
627.658	6.43
627.991	6.44
628.324	6.48
628.657	6.47
628.991	6.44
629.324	6.48
629.657	6.46
629.99	6.49
630.323	6.49
630.656	6.57
630.989	6.53
631.322	6.53
631.655	6.56
631.987	6.56
632.32	6.57
632.653	6.5
632.986	6.53
633.318	6.49
633.651	6.45
633.984	6.48
634.316	6.48
634.649	6.48
634.981	6.49
635.313	6.49
635.646	6.52
635.978	6.59
636.31	6.6
636.643	6.58
636.975	6.62
637.307	6.61
637.639	6.5
637.971	6.53
638.303	6.54
638.635	6.52
638.967	6.49
639.299	6.52
639.631	6.61
639.963	6.65
640.295	6.75
640.626	6.79
640.958	6.75
641.29	6.75
641.621	6.75
641.953	6.7
642.285	6.8
642.616	6.75
642.948	6.73
643.279	6.65
643.61	6.69
643.942	6.65
644.273	6.67
644.604	6.7
644.936	6.72
645.267	6.75
645.598	6.75
645.929	6.76
646.26	6.68
646.591	6.61
646.922	6.52
647.253	6.5
647.584	6.45
647.915	6.46
648.245	6.49
648.576	6.5
648.907	6.53
649.238	6.42
649.568	6.43
649.899	6.47
650.229	6.46
650.56	6.43
650.89	6.44
651.221	6.42
651.551	6.4
651.882	6.4
652.212	6.38
652.542	6.44
652.872	6.53
653.203	6.58
653.533	6.63
653.863	6.7
654.193	6.61
654.523	6.62
654.853	6.69
655.183	6.82
655.513	6.79
655.843	6.82
656.172	6.87
656.502	6.81
656.832	6.73
657.162	6.77
657.491	6.76
657.821	6.76
658.15	6.74
658.48	6.81
658.809	6.8
659.139	6.84
659.468	6.8
659.798	6.76
660.127	6.77
660.456	6.71
660.785	6.71
661.115	6.76
661.444	6.79
661.773	6.77
662.102	6.65
662.431	6.69
662.76	6.67
663.089	6.67
663.418	6.72
663.747	6.69
664.076	6.72
664.404	6.76
664.733	6.76
665.062	6.86
665.39	6.85
665.719	6.94
666.048	6.84
666.376	6.88
666.705	6.89
667.033	6.81
667.362	6.88
667.69	6.84
668.018	6.84
668.347	6.9
668.675	6.93
669.003	6.91
669.331	6.9
669.659	6.91
669.987	6.9
670.315	6.95
670.643	6.97
670.971	7.01
671.299	7.02
671.627	7.01
671.955	6.93
672.283	6.82
672.61	6.84
672.938	6.95
673.266	6.94
673.593	7.04
673.921	7.07
674.249	7.12
674.576	7.16
674.904	7.2
675.231	7.21
675.558	7.27
675.886	7.34
676.213	7.29
676.54	7.35
676.867	7.27
677.195	7.26
677.522	7.36
677.849	7.34
678.176	7.35
678.503	7.25
678.83	7.19
679.157	7.29
679.484	7.24
679.81	7.22
680.137	7.24
680.464	7.18
680.791	7.2
681.117	7.09
681.444	7.05
681.771	7.05
682.097	7.04
682.424	6.9
682.75	6.95
683.077	7.02
683.403	6.96
683.729	7.05
684.056	6.93
684.382	6.95
684.708	6.95
685.034	6.91
685.36	6.97
685.686	7.1
686.012	7.12
686.339	7.08
686.664	7.08
686.99	6.95
687.316	6.95
687.642	6.94
687.968	7.1
688.294	7.11
688.619	7.07
688.945	7.04
689.271	7.04
689.596	6.97
689.922	6.93
690.247	6.98
690.573	6.9
690.898	7.08
691.224	6.92
691.549	6.91
691.874	6.9
692.2	6.95
692.525	6.86
692.85	6.81
693.175	6.89
693.5	6.79
693.825	6.99
694.15	6.99
694.475	7.04
694.8	6.91
695.125	6.95
695.45	6.91
695.775	6.83
696.099	6.99
696.424	6.96
696.749	7.02
697.073	6.93
697.398	6.98
697.723	6.93
698.047	7.05
698.372	7.08
698.696	7.13
699.02	7.18
699.345	7.2
699.669	7.32
699.993	7.24
700.318	7.29
700.642	7.17
700.966	7.22
701.29	7.18
701.614	7.22
701.938	7.27
702.262	7.35
702.586	7.45
702.91	7.36
703.234	7.31
703.557	7.21
703.881	7.25
704.205	7.23
704.529	7.22
704.852	7.14
705.176	7.04
705.499	6.96
705.823	7
706.146	7.02
706.47	6.99
706.793	7.12
707.117	7.14
707.44	7.16
707.763	7.1
708.086	7.08
708.409	7.06
708.733	6.91
709.056	6.9
709.379	7.02
709.702	7.09
710.025	7.18
710.348	7.32
710.671	7.51
710.993	7.51
711.316	7.5
711.639	7.54
711.962	7.64
712.284	7.77
712.607	7.61
712.93	7.8
713.252	7.69
713.575	7.59
713.897	7.73
714.22	7.78
714.542	7.89
714.864	7.95
715.187	7.8
715.509	7.86
715.831	7.94
716.153	7.77
716.475	7.77
716.798	7.75
717.12	7.68
717.442	7.63
717.764	7.7
718.085	7.83
718.407	7.87
718.729	7.81
719.051	7.71
719.373	7.91
719.695	7.76
720.016	7.74
720.338	7.94
720.659	7.93
720.981	7.8
721.302	7.76
721.624	7.74
721.945	8.03
722.267	8.26
722.588	8.26
722.909	8.44
723.231	8.46
723.552	8.53
723.873	8.62
724.194	8.67
724.515	8.86
724.836	8.87
725.157	8.76
725.478	8.87
725.799	8.92
726.12	8.89
726.441	8.84
726.762	8.94
727.083	8.89
727.403	8.84
727.724	8.82
728.045	8.88
728.365	8.93
728.686	9.08
729.006	9
729.327	9
729.647	8.86
729.967	8.78
730.288	8.8
730.608	8.77
730.928	8.61
731.249	8.49
731.569	8.39
731.889	8.51
732.209	8.4
732.529	8.45
732.849	8.3
733.169	8.26
733.489	8.14
733.809	8.14
734.129	8.05
734.448	8.01
734.768	7.69
735.088	7.59
735.408	7.41
735.727	7.38
736.047	7.21
736.366	7.23
736.686	7.21
737.005	7.14
737.325	7.12
737.644	6.99
737.963	7
738.283	7.04
738.602	7.13
738.921	7.13
739.24	7.12
739.56	7.18
739.879	7.29
740.198	7.09
740.517	7.13
740.836	7.35
741.155	7.59
741.473	7.64
741.792	7.6
742.111	7.66
742.43	7.62
742.748	7.68
743.067	7.86
743.386	7.82
743.704	7.75
744.023	7.73
744.341	7.91
744.66	7.82
744.978	7.7
745.297	7.45
745.615	7.46
745.933	7.47
746.252	7.4
746.57	7.66
746.888	8.18
747.206	8.11
747.524	7.95
747.842	7.79
748.16	8.09
748.478	8.29
748.796	8.1
749.114	8.01
749.432	8.08
749.749	8
750.067	8.24
750.385	8.65
750.703	8.38
751.02	8.63
751.338	8.49
751.655	8.54
751.973	8.67
752.29	8.66
752.608	8.66
752.925	8.91
753.242	8.65
753.56	8.51
753.877	8.56
754.194	8.64
754.511	8.96
754.828	8.63
755.145	8.61
755.462	8.63
755.779	8.82
756.096	8.88
756.413	8.85
756.73	8.6
757.047	8.08
757.364	8.31
757.68	8.26
757.997	8.43
758.314	8.82
758.63	8.65
758.947	8.54
759.264	8.63
759.58	8.57
759.896	8.47
760.213	8.57
760.529	8.43
760.846	8.46
761.162	8.27
761.478	8.44
761.794	8.49
762.11	8.4
762.426	8.19
762.743	8.11
763.059	8.36
763.375	8.17
763.69	8.2
764.006	8.34
764.322	8.13
764.638	8.24
764.954	8.11
765.27	8.37
765.585	8.58
765.901	8.69
766.216	8.77
766.532	8.86
766.848	8.92
767.163	9.02
767.478	8.96
767.794	8.91
768.109	9.1
768.424	9.28
768.74	9.32
769.055	9.76
769.37	9.85
769.685	9.64
770	9.93
770.315	10.08
770.63	10.19
770.945	10.56
771.26	10.49
771.575	10.37
771.89	9.92
772.205	9.64
772.52	9.17
772.834	8.84
773.149	8.88
773.464	8.74
773.778	8.77
774.093	8.99
774.407	9.36
774.722	9.19
775.036	8.83
775.351	9
775.665	8.92
775.979	8.86
776.293	8.5
776.608	8.5
776.922	8.67
777.236	8.54
777.55	8.2
777.864	7.87
778.178	7.6
778.492	8.09
778.806	8.38
779.12	8.5
779.434	8.62
779.747	8.68
780.061	8.47
780.375	8.49
780.689	8.68
781.002	8.34
781.316	8.5
781.629	8.57
781.943	8.67
782.256	8.27
782.57	8.78
782.883	8.99
783.196	9.29
783.51	9.27
783.823	8.94
784.136	8.72
784.449	9.16
784.762	9.87
785.075	9.95
785.388	10.78
785.701	10.56
786.014	10.4
786.327	9.99
786.64	9.91
786.953	9.81
787.266	9.49
787.578	9.61
787.891	9.41
788.204	9.81
788.516	10.3
788.829	10.32
789.141	10.23
789.454	10.69
789.766	10.61
790.079	10.55
790.391	10.89
790.703	11.15
791.016	11.15
791.328	10.65
791.64	10.52
791.952	9.96
792.264	9.83
792.576	10.43
792.888	10.51
793.2	10.71
793.512	10.53
793.824	10.65
794.136	10.89
794.448	11.12
794.76	11.37
795.071	10.82
795.383	10.89
795.695	10.8
796.006	10.42
796.318	10.37
796.629	10.7
796.941	10.36
797.252	10.13
797.564	10.29
797.875	10.19
798.186	10.24
798.497	9.75
798.809	10.09
799.12	9.95
799.431	9.88
799.742	10.16
800.053	10.03
800.364	9.86
800.675	9.88
800.986	9.94
801.297	8.98
801.608	9.05
801.918	8.94
802.229	8.86
802.54	8.81
802.851	9.19
803.161	8.93
803.472	9.08
803.782	9.74
804.093	9.11
804.403	9.69
804.714	9.97
805.024	9.79
805.334	10.18
805.645	10.32
805.955	10.29
806.265	10.05
806.575	10.57
806.885	10.62
807.195	10.02
807.505	9.9
807.815	10.68
808.125	10.46
808.435	10.75
808.745	10.9
809.055	10.87
809.365	10.33
809.674	10.26
809.984	10.72
810.294	10.48
810.603	10.98
810.913	10.41
811.222	10.17
811.532	10.43
811.841	10.26
812.151	10.64
812.46	10.5
812.769	11.12
813.079	11.24
813.388	10.88
813.697	11.19
814.006	10.91
814.315	10.71
814.624	11.14
814.933	11.06
815.242	10.33
815.551	10.43
815.86	11
816.169	10.41
816.478	10.72
816.786	10.46
817.095	10.36
817.404	10.62
817.712	10.21
818.021	9.96
818.33	10.07
818.638	9.49
818.947	10.28
819.255	9.61
819.563	9.98
819.872	10.34
820.18	10.89
820.488	11.27
820.796	11.19
821.105	11.49
821.413	11.66
821.721	11.76
822.029	11.68
822.337	11.57
822.645	11.87
822.953	11.85
823.26	11.74
823.568	11.77
823.876	11.85
824.184	11.89
824.491	12.1
824.799	12.07
825.107	12.18
825.414	12.08
825.722	12.16
826.029	12.18
826.337	12.15
826.644	12.15
826.951	11.97
827.259	12.09
827.566	12.02
827.873	11.9
828.18	11.96
828.488	12.02
828.795	12.1
829.102	12.04
829.409	12.04
829.716	12.52
830.023	12.69
830.329	12.94
830.636	12.67
830.943	12.55
831.25	12.56
831.557	12.52
831.863	13.09
832.17	13.21
832.476	12.85
832.783	12.66
833.089	12.71
833.396	12.81
833.702	12.74
834.009	12.61
834.315	12.79
834.621	12.92
834.928	13.2
835.234	13.72
835.54	13.18
835.846	12.96
836.152	12.69
836.458	12.29
836.764	12.49
837.07	13.63
837.376	13.68
837.682	13.39
837.988	13.56
838.293	13.05
838.599	13.35
838.905	13.98
839.211	14.26
839.516	13.44
839.822	14.3
840.127	14.53
840.433	14.42
840.738	13.97
841.044	13.62
841.349	13.3
841.654	11.53
841.959	12.66
842.265	13.26
842.57	13.64
842.875	14.19
843.18	13.15
843.485	11.95
843.79	12.09
844.095	12.64
844.4	12.81
844.705	11.72
845.01	13.17
845.315	12.73
845.619	13.23
845.924	15.32
846.229	14.43
846.533	14.45
846.838	14.58
847.142	15.77
847.447	16.77
847.751	16.41
848.056	17.2
848.36	18.68
848.664	18.66
848.969	16.97
849.273	17.38
849.577	15.39
849.881	14.65
850.185	14.02
850.489	15.24
850.794	14.49
851.097	17.31
851.401	15.21
851.705	15.74
852.009	17.13
852.313	15.03
852.617	14.3
852.92	13.99
853.224	14.89
853.528	15.63
853.831	15.58
854.135	17.36
854.438	18.58
854.742	17.26
855.045	15.77
855.349	16.7
855.652	14.63
855.955	17.83
856.259	19.98
856.562	20.55
856.865	19.62
857.168	21.92
857.471	18.88
857.774	19.75
858.077	19.42
858.38	18.85
858.683	19.9
858.986	20.38
859.289	20.31
859.592	21.67
859.894	21.92
860.197	22.93
860.5	21.47
860.802	20.25
861.105	20.17
861.407	20.26
861.71	20.52
862.012	24.02
862.315	23.98
862.617	22.67
862.919	23.99
863.222	25.2
863.524	21.51
863.826	24.05
864.128	22.49
864.43	22.38
864.732	23.8
865.034	24.44
865.336	24.34
865.638	25.06
865.94	24.59
866.242	22.45
866.544	21.87
866.846	23.44
867.147	26.2
867.449	25.96
867.751	25.82
868.052	25.69
868.354	23.3
868.655	21.76
868.957	22.41
869.258	19.67
869.56	17.97
869.861	20.56
870.162	19.63
870.463	20.67
870.765	20.43
871.066	16.95
871.367	15.07
871.668	14.73
871.969	15.13
872.27	14.25
872.571	15.65
872.872	14.49
873.173	13.01
873.473	10.16
873.774	10.54
874.075	11.89
874.376	11.55
874.676	13.35
874.977	15.68
875.277	15.6
875.578	15.45
875.878	16.96
876.179	15.54
876.479	15.89
876.78	15.04
877.08	15.24
877.38	17.28
877.68	18.51
877.981	19.32
878.281	17.61
878.581	16.16
