Data from BU57737_Reflection_00004.txt Node
Date: Mon Nov 18 16:29:42 EST 2019
User: vgr7
Spectrometer: USB2G7710
Scans to average: 3
Trigger mode: 4
Integration Time (sec): 2.000000E-2
Electric dark correction enabled: true
Boxcar width: 10
XAxis mode: Wavelengths
Number of Pixels in Spectrum: 2048
>>>>>Begin Spectral Data<<<<<
177.721	-160.63
178.105	766.67
178.488	156.6
178.871	120.98
179.254	88.59
179.636	-22.45
180.019	203.45
180.402	130.77
180.785	-189.58
181.168	-2685.71
181.55	541.44
181.933	147.48
182.316	133.96
182.698	173.76
183.081	350.79
183.463	476.62
183.846	192.33
184.228	292.05
184.611	290.36
184.993	253.66
185.376	267.03
185.758	221.04
186.14	185.54
186.522	130.44
186.904	98.97
187.287	77.93
187.669	75.21
188.051	134.28
188.433	145.35
188.815	112.72
189.197	17.47
189.579	33.33
189.961	95.07
190.342	222.81
190.724	233.86
191.106	-639.13
191.488	9100
191.869	-18.28
192.251	-7.3
192.633	-122.52
193.014	-98.79
193.396	-136.8
193.777	-118.71
194.159	-159.26
194.54	-103.27
194.922	-95.23
195.303	-85.19
195.684	-107.4
196.065	-94.92
196.447	-119.06
196.828	-139.11
197.209	-106.09
197.59	-92.56
197.971	-91.49
198.352	-67.32
198.733	-94.36
199.114	-104.56
199.495	-119.55
199.876	-97.62
200.257	-97.23
200.638	-67.64
201.018	-76.37
201.399	-54.88
201.78	-63.05
202.16	-57.23
202.541	-124.17
202.922	-170.94
203.302	-251.55
203.683	-254.04
204.063	-490.11
204.444	-933.61
204.824	-321.6
205.204	-561.54
205.585	-369.53
205.965	-217.17
206.345	-519.05
206.725	-809.68
207.106	-784.39
207.486	-646.72
207.866	-1593.07
208.246	12736.36
208.626	58433.33
209.006	-921.62
209.386	4433.33
209.766	1468.79
210.145	2148.54
210.525	-397.27
210.905	-317.68
211.285	-209.8
211.664	-149.17
212.044	-101.97
212.424	-102.08
212.803	-152.44
213.183	-122.99
213.562	-137.06
213.942	-155.11
214.321	-116.6
214.701	-100
215.08	-93
215.459	-92.8
215.838	-97.33
216.218	-111.44
216.597	-94.1
216.976	-110.98
217.355	-92.65
217.734	-86.37
218.113	-79.49
218.492	-89.77
218.871	-106.83
219.25	-144.07
219.629	-187.55
220.008	-203.11
220.387	-196.27
220.766	-164.77
221.144	-174.36
221.523	-194.49
221.902	-171.4
222.28	-181.5
222.659	-157.71
223.037	-138.7
223.416	-139.01
223.794	-105.69
224.173	-89.31
224.551	-77.87
224.929	-68.84
225.308	-58.41
225.686	-50.39
226.064	-46.62
226.442	-51.26
226.821	-42.92
227.199	-38.59
227.577	-35.63
227.955	-31
228.333	-30.75
228.711	-30.09
229.089	-26.4
229.467	-24.5
229.845	-25.87
230.222	-25.39
230.6	-24.54
230.978	-21.8
231.356	-16.41
231.733	-14.48
232.111	-11.48
232.488	-9.48
232.866	-7.79
233.243	-6.89
233.621	-8.59
233.998	-6.11
234.376	-2.12
234.753	-2.5
235.13	-0.26
235.508	1.43
235.885	1.16
236.262	2.16
236.639	1.27
237.016	0.62
237.393	1.54
237.77	3.27
238.147	3.04
238.524	2.42
238.901	2.8
239.278	2.37
239.655	2.43
240.032	2.42
240.409	1.85
240.785	2.47
241.162	2.88
241.539	3.68
241.915	3.52
242.292	3.37
242.668	3.74
243.045	3.55
243.421	3.4
243.798	3.81
244.174	3.92
244.551	4.08
244.927	4.31
245.303	4.81
245.679	4.67
246.056	4.72
246.432	5.2
246.808	5.03
247.184	4.95
247.56	4.9
247.936	4.97
248.312	5.16
248.688	5.12
249.064	4.84
249.44	4.78
249.815	4.79
250.191	4.76
250.567	4.94
250.943	5.08
251.318	5.23
251.694	4.85
252.069	4.71
252.445	5.1
252.82	5.14
253.196	4.63
253.571	4.45
253.947	4.15
254.322	4.03
254.697	4.21
255.073	4.27
255.448	4.13
255.823	4.01
256.198	4.03
256.573	4.11
256.948	4.1
257.323	4.14
257.698	4.35
258.073	4.4
258.448	4.18
258.823	4.17
259.198	3.91
259.573	3.98
259.948	4.06
260.322	4.1
260.697	4.15
261.072	4.19
261.446	4.4
261.821	4.42
262.195	4.43
262.57	4.32
262.944	4.26
263.319	4.24
263.693	4.16
264.067	4.33
264.442	4.34
264.816	4.44
265.19	4.3
265.564	4.12
265.938	4.07
266.313	3.98
266.687	4.02
267.061	4.3
267.435	4.2
267.809	4.19
268.183	3.99
268.556	3.75
268.93	3.77
269.304	3.76
269.678	3.83
270.051	3.76
270.425	3.77
270.799	3.83
271.172	4.01
271.546	4.04
271.919	3.71
272.293	3.74
272.666	3.88
273.04	4.03
273.413	3.86
273.787	3.88
274.16	4.03
274.533	3.99
274.906	3.98
275.279	4.14
275.653	4.31
276.026	4.31
276.399	4.38
276.772	4.48
277.145	4.32
277.518	4.37
277.891	4.22
278.263	4.28
278.636	4.18
279.009	4.14
279.382	4.33
279.755	4.57
280.127	4.54
280.5	4.58
280.872	4.59
281.245	4.81
281.617	4.81
281.99	4.8
282.362	4.74
282.735	4.54
283.107	4.53
283.479	4.37
283.852	4.41
284.224	4.44
284.596	4.25
284.968	4.26
285.34	4.41
285.713	4.52
286.085	4.55
286.457	4.68
286.829	4.66
287.201	4.58
287.572	4.54
287.944	4.48
288.316	4.3
288.688	4.23
289.06	4.17
289.431	4.15
289.803	4.14
290.175	4.23
290.546	4.49
290.918	4.44
291.289	4.52
291.661	4.54
292.032	4.61
292.403	4.73
292.775	4.77
293.146	4.59
293.517	4.44
293.889	4.42
294.26	4.41
294.631	4.47
295.002	4.53
295.373	4.49
295.744	4.57
296.115	4.69
296.486	4.58
296.857	4.67
297.228	4.67
297.599	4.63
297.97	4.69
298.34	4.67
298.711	4.67
299.082	4.58
299.452	4.67
299.823	4.69
300.194	4.72
300.564	4.75
300.935	4.89
301.305	5.02
301.676	5.1
302.046	5.04
302.416	5.08
302.787	5.06
303.157	5.18
303.527	5.07
303.897	4.98
304.267	5.27
304.637	5.19
305.008	5.31
305.378	5.38
305.748	5.31
306.117	5.18
306.487	5.17
306.857	5.21
307.227	5.07
307.597	5.07
307.967	5.09
308.336	5.01
308.706	5.01
309.076	4.97
309.445	4.86
309.815	4.86
310.184	4.78
310.554	4.73
310.923	4.6
311.293	4.61
311.662	4.66
312.031	4.61
312.401	4.61
312.77	4.63
313.139	4.72
313.508	4.68
313.877	4.71
314.246	4.85
314.616	4.83
314.985	4.93
315.353	4.73
315.722	4.74
316.091	4.63
316.46	4.54
316.829	4.51
317.198	4.55
317.567	4.61
317.935	4.56
318.304	4.71
318.672	4.67
319.041	4.73
319.41	4.76
319.778	4.7
320.147	4.82
320.515	4.78
320.883	4.59
321.252	4.7
321.62	4.77
321.988	4.68
322.357	4.79
322.725	4.69
323.093	4.79
323.461	4.75
323.829	4.97
324.197	5.04
324.565	5.14
324.933	5.15
325.301	5.1
325.669	5.17
326.037	5.02
326.405	5.15
326.772	5.04
327.14	5.01
327.508	5.02
327.875	4.82
328.243	4.81
328.61	4.92
328.978	4.86
329.346	4.91
329.713	4.85
330.08	4.78
330.448	4.72
330.815	4.63
331.182	4.56
331.55	4.52
331.917	4.38
332.284	4.38
332.651	4.36
333.018	4.43
333.385	4.32
333.752	4.47
334.119	4.45
334.486	4.5
334.853	4.45
335.22	4.39
335.587	4.52
335.954	4.49
336.32	4.39
336.687	4.4
337.054	4.22
337.42	4.25
337.787	4.24
338.153	4.33
338.52	4.38
338.886	4.33
339.253	4.3
339.619	4.47
339.986	4.5
340.352	4.47
340.718	4.43
341.084	4.46
341.451	4.48
341.817	4.41
342.183	4.37
342.549	4.39
342.915	4.49
343.281	4.46
343.647	4.4
344.013	4.36
344.379	4.33
344.745	4.43
345.11	4.39
345.476	4.53
345.842	4.46
346.208	4.47
346.573	4.49
346.939	4.47
347.304	4.36
347.67	4.31
348.035	4.28
348.401	4.3
348.766	4.32
349.132	4.22
349.497	4.28
349.862	4.35
350.228	4.35
350.593	4.3
350.958	4.37
351.323	4.33
351.688	4.41
352.053	4.36
352.418	4.37
352.783	4.43
353.148	4.31
353.513	4.37
353.878	4.37
354.243	4.45
354.608	4.46
354.972	4.51
355.337	4.5
355.702	4.62
356.066	4.6
356.431	4.6
356.795	4.63
357.16	4.61
357.524	4.54
357.889	4.56
358.253	4.55
358.618	4.53
358.982	4.59
359.346	4.52
359.71	4.54
360.075	4.5
360.439	4.48
360.803	4.5
361.167	4.43
361.531	4.43
361.895	4.37
362.259	4.41
362.623	4.38
362.987	4.34
363.351	4.25
363.714	4.2
364.078	4.2
364.442	4.15
364.806	4.14
365.169	4.16
365.533	4.1
365.896	4.12
366.26	4.11
366.623	4.11
366.987	4.11
367.35	4.16
367.714	4.09
368.077	4.06
368.44	3.98
368.803	3.97
369.167	3.9
369.53	3.95
369.893	3.91
370.256	3.92
370.619	3.95
370.982	3.94
371.345	4
371.708	3.93
372.071	4.01
372.434	3.96
372.797	3.98
373.159	4.01
373.522	4
373.885	3.99
374.247	4.05
374.61	4.09
374.973	4.08
375.335	4.22
375.698	4.25
376.06	4.24
376.423	4.29
376.785	4.41
377.147	4.41
377.51	4.39
377.872	4.41
378.234	4.41
378.596	4.44
378.958	4.42
379.321	4.46
379.683	4.41
380.045	4.47
380.407	4.55
380.769	4.53
381.13	4.55
381.492	4.51
381.854	4.46
382.216	4.43
382.578	4.47
382.939	4.36
383.301	4.37
383.663	4.38
384.024	4.38
384.386	4.36
384.747	4.38
385.109	4.41
385.47	4.37
385.832	4.34
386.193	4.36
386.554	4.34
386.916	4.36
387.277	4.4
387.638	4.39
387.999	4.34
388.36	4.39
388.721	4.38
389.082	4.4
389.443	4.36
389.804	4.37
390.165	4.33
390.526	4.35
390.887	4.34
391.248	4.38
391.609	4.38
391.969	4.38
392.33	4.34
392.691	4.35
393.051	4.34
393.412	4.35
393.772	4.33
394.133	4.37
394.493	4.34
394.854	4.32
395.214	4.32
395.574	4.27
395.935	4.26
396.295	4.26
396.655	4.26
397.015	4.3
397.376	4.31
397.736	4.29
398.096	4.3
398.456	4.31
398.816	4.29
399.176	4.26
399.535	4.26
399.895	4.26
400.255	4.22
400.615	4.24
400.975	4.29
401.334	4.28
401.694	4.23
402.054	4.22
402.413	4.22
402.773	4.2
403.132	4.26
403.492	4.23
403.851	4.21
404.211	4.19
404.57	4.14
404.929	4.13
405.288	4.15
405.648	4.15
406.007	4.15
406.366	4.13
406.725	4.17
407.084	4.16
407.443	4.18
407.802	4.21
408.161	4.19
408.52	4.14
408.879	4.15
409.238	4.18
409.596	4.16
409.955	4.16
410.314	4.16
410.673	4.12
411.031	4.13
411.39	4.12
411.748	4.14
412.107	4.17
412.465	4.19
412.824	4.17
413.182	4.16
413.54	4.18
413.899	4.19
414.257	4.18
414.615	4.17
414.974	4.17
415.332	4.15
415.69	4.14
416.048	4.17
416.406	4.15
416.764	4.13
417.122	4.17
417.48	4.16
417.838	4.18
418.195	4.18
418.553	4.16
418.911	4.17
419.269	4.15
419.626	4.14
419.984	4.13
420.342	4.14
420.699	4.12
421.057	4.11
421.414	4.11
421.772	4.11
422.129	4.1
422.486	4.1
422.844	4.1
423.201	4.1
423.558	4.08
423.915	4.08
424.273	4.08
424.63	4.06
424.987	4.07
425.344	4.06
425.701	4.06
426.058	4.06
426.415	4.05
426.772	4.07
427.128	4.08
427.485	4.08
427.842	4.09
428.199	4.1
428.555	4.1
428.912	4.09
429.269	4.08
429.625	4.09
429.982	4.07
430.338	4.04
430.695	4.07
431.051	4.07
431.407	4.06
431.764	4.06
432.12	4.06
432.476	4.03
432.832	4
433.189	4.01
433.545	4.01
433.901	4
434.257	3.98
434.613	3.97
434.969	3.97
435.325	3.96
435.681	3.94
436.036	3.95
436.392	3.94
436.748	3.93
437.104	3.92
437.459	3.92
437.815	3.95
438.171	3.92
438.526	3.94
438.882	3.95
439.237	3.95
439.593	3.96
439.948	3.97
440.304	3.99
440.659	3.99
441.014	3.99
441.369	3.98
441.725	3.97
442.08	3.97
442.435	3.97
442.79	3.96
443.145	3.97
443.5	3.96
443.855	3.97
444.21	3.96
444.565	3.97
444.92	3.97
445.275	3.96
445.629	3.97
445.984	3.96
446.339	3.95
446.693	3.95
447.048	3.92
447.403	3.93
447.757	3.93
448.112	3.91
448.466	3.9
448.82	3.9
449.175	3.93
449.529	3.9
449.883	3.9
450.238	3.91
450.592	3.9
450.946	3.89
451.3	3.89
451.654	3.9
452.008	3.87
452.362	3.88
452.716	3.89
453.07	3.88
453.424	3.89
453.778	3.89
454.132	3.88
454.486	3.9
454.839	3.89
455.193	3.88
455.547	3.88
455.9	3.87
456.254	3.86
456.607	3.85
456.961	3.87
457.314	3.85
457.668	3.86
458.021	3.87
458.375	3.86
458.728	3.86
459.081	3.87
459.434	3.87
459.787	3.87
460.141	3.86
460.494	3.85
460.847	3.83
461.2	3.81
461.553	3.83
461.906	3.82
462.259	3.82
462.611	3.84
462.964	3.84
463.317	3.86
463.67	3.86
464.022	3.86
464.375	3.85
464.728	3.87
465.08	3.87
465.433	3.85
465.785	3.88
466.138	3.88
466.49	3.87
466.843	3.89
467.195	3.89
467.547	3.91
467.899	3.92
468.252	3.92
468.604	3.93
468.956	3.91
469.308	3.9
469.66	3.91
470.012	3.88
470.364	3.87
470.716	3.89
471.068	3.9
471.42	3.89
471.772	3.92
472.123	3.92
472.475	3.94
472.827	3.96
473.178	3.96
473.53	3.95
473.882	3.93
474.233	3.92
474.585	3.91
474.936	3.89
475.288	3.91
475.639	3.95
475.99	3.96
476.342	3.97
476.693	3.98
477.044	3.96
477.395	3.98
477.746	3.99
478.097	3.99
478.448	3.99
478.8	4
479.15	3.99
479.501	3.99
479.852	3.98
480.203	3.99
480.554	4
480.905	4.02
481.255	4.03
481.606	4.05
481.957	4.06
482.307	4.07
482.658	4.08
483.009	4.07
483.359	4.07
483.709	4.09
484.06	4.09
484.41	4.1
484.761	4.1
485.111	4.11
485.461	4.11
485.811	4.12
486.162	4.1
486.512	4.11
486.862	4.12
487.212	4.12
487.562	4.11
487.912	4.1
488.262	4.1
488.612	4.09
488.961	4.09
489.311	4.09
489.661	4.08
490.011	4.07
490.36	4.07
490.71	4.07
491.06	4.07
491.409	4.06
491.759	4.05
492.108	4.07
492.458	4.06
492.807	4.05
493.157	4.04
493.506	4.06
493.855	4.07
494.204	4.06
494.554	4.06
494.903	4.06
495.252	4.07
495.601	4.07
495.95	4.08
496.299	4.08
496.648	4.08
496.997	4.07
497.346	4.09
497.695	4.09
498.043	4.08
498.392	4.09
498.741	4.12
499.09	4.13
499.438	4.12
499.787	4.13
500.135	4.17
500.484	4.18
500.832	4.18
501.181	4.18
501.529	4.19
501.878	4.21
502.226	4.23
502.574	4.23
502.923	4.25
503.271	4.26
503.619	4.28
503.967	4.29
504.315	4.29
504.663	4.3
505.011	4.3
505.359	4.31
505.707	4.31
506.055	4.29
506.403	4.29
506.751	4.27
507.098	4.3
507.446	4.28
507.794	4.26
508.141	4.28
508.489	4.28
508.837	4.3
509.184	4.3
509.531	4.33
509.879	4.35
510.226	4.36
510.574	4.35
510.921	4.35
511.268	4.36
511.616	4.39
511.963	4.4
512.31	4.41
512.657	4.43
513.004	4.43
513.351	4.45
513.698	4.45
514.045	4.48
514.392	4.49
514.739	4.49
515.086	4.52
515.432	4.51
515.779	4.52
516.126	4.54
516.473	4.55
516.819	4.53
517.166	4.54
517.512	4.56
517.859	4.56
518.205	4.57
518.552	4.58
518.898	4.58
519.245	4.58
519.591	4.58
519.937	4.57
520.283	4.58
520.629	4.6
520.976	4.61
521.322	4.62
521.668	4.62
522.014	4.64
522.36	4.65
522.706	4.65
523.052	4.68
523.398	4.68
523.743	4.7
524.089	4.71
524.435	4.7
524.781	4.7
525.126	4.7
525.472	4.72
525.817	4.73
526.163	4.73
526.509	4.75
526.854	4.78
527.199	4.79
527.545	4.8
527.89	4.82
528.235	4.82
528.581	4.82
528.926	4.82
529.271	4.82
529.616	4.82
529.961	4.82
530.306	4.81
530.651	4.81
530.996	4.81
531.341	4.81
531.686	4.82
532.031	4.82
532.376	4.84
532.721	4.85
533.065	4.85
533.41	4.85
533.755	4.84
534.099	4.82
534.444	4.82
534.788	4.81
535.133	4.8
535.477	4.81
535.822	4.8
536.166	4.8
536.51	4.81
536.855	4.82
537.199	4.83
537.543	4.83
537.887	4.85
538.231	4.84
538.576	4.85
538.92	4.86
539.264	4.86
539.608	4.86
539.951	4.85
540.295	4.85
540.639	4.85
540.983	4.85
541.327	4.88
541.671	4.87
542.014	4.89
542.358	4.87
542.701	4.89
543.045	4.91
543.389	4.91
543.732	4.92
544.075	4.92
544.419	4.92
544.762	4.93
545.105	4.93
545.449	4.94
545.792	4.95
546.135	4.94
546.478	4.95
546.821	4.94
547.165	4.95
547.508	4.95
547.851	4.95
548.194	4.95
548.536	4.93
548.879	4.97
549.222	4.95
549.565	4.97
549.908	4.95
550.25	4.94
550.593	4.93
550.936	4.92
551.278	4.92
551.621	4.93
551.963	4.93
552.306	4.89
552.648	4.91
552.991	4.92
553.333	4.91
553.675	4.9
554.017	4.9
554.36	4.9
554.702	4.92
555.044	4.92
555.386	4.92
555.728	4.91
556.07	4.88
556.412	4.9
556.754	4.92
557.096	4.92
557.438	4.92
557.78	4.93
558.121	4.91
558.463	4.91
558.805	4.91
559.147	4.9
559.488	4.9
559.83	4.89
560.171	4.88
560.513	4.89
560.854	4.9
561.196	4.92
561.537	4.95
561.878	4.92
562.22	4.92
562.561	4.89
562.902	4.9
563.243	4.91
563.584	4.9
563.925	4.91
564.266	4.88
564.607	4.9
564.948	4.89
565.289	4.91
565.63	4.91
565.971	4.89
566.312	4.9
566.653	4.92
566.993	4.92
567.334	4.91
567.675	4.92
568.015	4.93
568.356	4.91
568.696	4.9
569.037	4.94
569.377	4.95
569.718	4.98
570.058	4.98
570.398	4.98
570.739	5
571.079	4.99
571.419	5.01
571.759	5.04
572.099	5.05
572.439	5.04
572.779	5.05
573.119	5.08
573.459	5.1
573.799	5.11
574.139	5.12
574.479	5.13
574.819	5.14
575.158	5.12
575.498	5.11
575.838	5.14
576.177	5.09
576.517	5.11
576.856	5.13
577.196	5.12
577.535	5.13
577.875	5.12
578.214	5.1
578.553	5.12
578.893	5.1
579.232	5.09
579.571	5.1
579.91	5.09
580.25	5.09
580.589	5.08
580.928	5.07
581.267	5.06
581.606	5.1
581.945	5.11
582.283	5.14
582.622	5.16
582.961	5.16
583.3	5.17
583.639	5.19
583.977	5.21
584.316	5.24
584.654	5.2
584.993	5.21
585.332	5.21
585.67	5.21
586.008	5.18
586.347	5.21
586.685	5.2
587.024	5.2
587.362	5.21
587.7	5.21
588.038	5.23
588.376	5.25
588.715	5.2
589.053	5.23
589.391	5.22
589.729	5.23
590.067	5.23
590.404	5.23
590.742	5.22
591.08	5.16
591.418	5.15
591.756	5.15
592.093	5.14
592.431	5.16
592.769	5.17
593.106	5.15
593.444	5.1
593.781	5.08
594.119	5.07
594.456	5.06
594.793	5.04
595.131	5.01
595.468	4.98
595.805	5
596.143	4.96
596.48	4.97
596.817	4.97
597.154	4.95
597.491	4.94
597.828	4.94
598.165	4.95
598.502	4.95
598.839	4.94
599.176	4.92
599.512	4.91
599.849	4.94
600.186	4.99
600.523	5.03
600.859	5.11
601.196	5.1
601.532	5.11
601.869	5.16
602.205	5.2
602.542	5.2
602.878	5.22
603.215	5.28
603.551	5.23
603.887	5.25
604.223	5.28
604.56	5.29
604.896	5.25
605.232	5.28
605.568	5.29
605.904	5.34
606.24	5.39
606.576	5.39
606.912	5.34
607.248	5.33
607.583	5.33
607.919	5.31
608.255	5.28
608.591	5.32
608.926	5.31
609.262	5.3
609.597	5.36
609.933	5.37
610.268	5.34
610.604	5.37
610.939	5.35
611.275	5.34
611.61	5.34
611.945	5.4
612.281	5.4
612.616	5.38
612.951	5.38
613.286	5.34
613.621	5.34
613.956	5.38
614.291	5.38
614.626	5.39
614.961	5.37
615.296	5.39
615.631	5.38
615.966	5.38
616.3	5.39
616.635	5.35
616.97	5.37
617.304	5.39
617.639	5.38
617.973	5.42
618.308	5.39
618.642	5.38
618.977	5.34
619.311	5.31
619.646	5.33
619.98	5.26
620.314	5.3
620.648	5.32
620.983	5.34
621.317	5.36
621.651	5.34
621.985	5.37
622.319	5.38
622.653	5.39
622.987	5.4
623.321	5.34
623.655	5.3
623.988	5.26
624.322	5.22
624.656	5.24
624.99	5.21
625.323	5.21
625.657	5.23
625.99	5.22
626.324	5.26
626.657	5.29
626.991	5.35
627.324	5.33
627.658	5.3
627.991	5.29
628.324	5.29
628.657	5.29
628.991	5.26
629.324	5.29
629.657	5.27
629.99	5.29
630.323	5.31
630.656	5.33
630.989	5.35
631.322	5.4
631.655	5.33
631.987	5.32
632.32	5.36
632.653	5.31
632.986	5.36
633.318	5.33
633.651	5.35
633.984	5.41
634.316	5.41
634.649	5.43
634.981	5.41
635.313	5.38
635.646	5.4
635.978	5.36
636.31	5.31
636.643	5.29
636.975	5.27
637.307	5.24
637.639	5.24
637.971	5.22
638.303	5.23
638.635	5.29
638.967	5.3
639.299	5.32
639.631	5.33
639.963	5.29
640.295	5.27
640.626	5.25
640.958	5.17
641.29	5.2
641.621	5.16
641.953	5.18
642.285	5.22
642.616	5.21
642.948	5.24
643.279	5.33
643.61	5.34
643.942	5.35
644.273	5.37
644.604	5.37
644.936	5.38
645.267	5.4
645.598	5.42
645.929	5.48
646.26	5.42
646.591	5.46
646.922	5.45
647.253	5.49
647.584	5.47
647.915	5.49
648.245	5.49
648.576	5.53
648.907	5.59
649.238	5.6
649.568	5.59
649.899	5.6
650.229	5.57
650.56	5.56
650.89	5.58
651.221	5.65
651.551	5.62
651.882	5.64
652.212	5.62
652.542	5.63
652.872	5.54
653.203	5.55
653.533	5.56
653.863	5.55
654.193	5.58
654.523	5.55
654.853	5.52
655.183	5.54
655.513	5.53
655.843	5.44
656.172	5.42
656.502	5.48
656.832	5.46
657.162	5.48
657.491	5.46
657.821	5.43
658.15	5.41
658.48	5.45
658.809	5.46
659.139	5.46
659.468	5.41
659.798	5.45
660.127	5.5
660.456	5.53
660.785	5.59
661.115	5.56
661.444	5.58
661.773	5.54
662.102	5.49
662.431	5.56
662.76	5.66
663.089	5.64
663.418	5.63
663.747	5.64
664.076	5.66
664.404	5.71
664.733	5.76
665.062	5.64
665.39	5.65
665.719	5.64
666.048	5.7
666.376	5.74
666.705	5.75
667.033	5.69
667.362	5.66
667.69	5.58
668.018	5.58
668.347	5.6
668.675	5.7
669.003	5.73
669.331	5.69
669.659	5.64
669.987	5.62
670.315	5.64
670.643	5.67
670.971	5.68
671.299	5.7
671.627	5.67
671.955	5.7
672.283	5.72
672.61	5.7
672.938	5.61
673.266	5.63
673.593	5.76
673.921	5.79
674.249	5.78
674.576	5.86
674.904	5.87
675.231	5.87
675.558	5.83
675.886	5.78
676.213	5.7
676.54	5.7
676.867	5.85
677.195	5.82
677.522	5.8
677.849	5.79
678.176	5.81
678.503	5.77
678.83	5.84
679.157	5.76
679.484	5.79
679.81	5.76
680.137	5.73
680.464	5.59
680.791	5.58
681.117	5.63
681.444	5.61
681.771	5.65
682.097	5.62
682.424	5.66
682.75	5.65
683.077	5.68
683.403	5.71
683.729	5.53
684.056	5.51
684.382	5.57
684.708	5.56
685.034	5.53
685.36	5.71
685.686	5.67
686.012	5.68
686.339	5.73
686.664	5.75
686.99	5.79
687.316	5.81
687.642	5.83
687.968	5.81
688.294	5.79
688.619	5.82
688.945	5.77
689.271	5.71
689.596	5.75
689.922	5.7
690.247	5.68
690.573	5.81
690.898	5.84
691.224	5.76
691.549	5.76
691.874	5.64
692.2	5.53
692.525	5.59
692.85	5.59
693.175	5.59
693.5	5.73
693.825	5.75
694.15	5.75
694.475	5.68
694.8	5.64
695.125	5.64
695.45	5.62
695.775	5.6
696.099	5.62
696.424	5.6
696.749	5.67
697.073	5.74
697.398	5.68
697.723	5.64
698.047	5.69
698.372	5.68
698.696	5.75
699.02	5.75
699.345	5.71
699.669	5.87
699.993	5.82
700.318	5.76
700.642	5.82
700.966	5.83
701.29	5.9
701.614	5.97
701.938	6.02
702.262	5.98
702.586	6.15
702.91	6.17
703.234	6.23
703.557	6.14
703.881	6.13
704.205	6.15
704.529	6.19
704.852	6.2
705.176	6.24
705.499	6.32
705.823	6.37
706.146	6.36
706.47	6.21
706.793	6.17
707.117	6.12
707.44	6.09
707.763	6.08
708.086	5.87
708.409	5.75
708.733	5.74
709.056	5.79
709.379	5.92
709.702	5.97
710.025	6.01
710.348	6.05
710.671	5.99
710.993	6.15
711.316	6.13
711.639	6.22
711.962	6.18
712.284	6.08
712.607	5.96
712.93	6.07
713.252	6.13
713.575	6.2
713.897	6.23
714.22	6.16
714.542	6.17
714.864	6.25
715.187	6.32
715.509	6.36
715.831	6.44
716.153	6.31
716.475	6.33
716.798	6.34
717.12	6.4
717.442	6.39
717.764	6.24
718.085	6.2
718.407	6.11
718.729	6.14
719.051	6.14
719.373	6.08
719.695	6.04
720.016	6.05
720.338	6.09
720.659	6.13
720.981	6.03
721.302	6.02
721.624	6.2
721.945	6.29
722.267	6.2
722.588	5.92
722.909	5.9
723.231	5.86
723.552	5.86
723.873	5.86
724.194	5.9
724.515	6.01
724.836	6.07
725.157	6.05
725.478	6.01
725.799	6.03
726.12	6.04
726.441	6
726.762	6
727.083	5.96
727.403	5.99
727.724	6.15
728.045	6.18
728.365	6.16
728.686	6.1
729.006	6.15
729.327	6.19
729.647	6.25
729.967	6.24
730.288	6.28
730.608	6.24
730.928	6.25
731.249	6.24
731.569	6.33
731.889	6.31
732.209	6.31
732.529	6.39
732.849	6.42
733.169	6.49
733.489	6.35
733.809	6.34
734.129	6.31
734.448	6.15
734.768	6.13
735.088	6.2
735.408	6.23
735.727	6.28
736.047	6.41
736.366	6.28
736.686	6.15
737.005	5.99
737.325	6.04
737.644	6.07
737.963	5.79
738.283	5.47
738.602	5.67
738.921	5.62
739.24	5.72
739.56	5.78
739.879	5.72
740.198	5.86
740.517	5.88
740.836	6.04
741.155	6.3
741.473	6.22
741.792	6.05
742.111	5.91
742.43	5.87
742.748	5.79
743.067	5.83
743.386	5.89
743.704	6.03
744.023	6.04
744.341	6.02
744.66	6.44
744.978	6.61
745.297	6.54
745.615	6.65
745.933	6.48
746.252	6.42
746.57	6.51
746.888	6.56
747.206	6.55
747.524	6.31
747.842	6.18
748.16	6.56
748.478	6.76
748.796	6.96
749.114	6.92
749.432	6.91
749.749	7
750.067	7.08
750.385	6.82
750.703	6.71
751.02	6.63
751.338	6.43
751.655	6.57
751.973	6.58
752.29	6.45
752.608	6.26
752.925	6.27
753.242	6.23
753.56	5.92
753.877	5.89
754.194	5.87
754.511	6
754.828	5.74
755.145	5.63
755.462	5.64
755.779	5.77
756.096	5.77
756.413	5.73
756.73	5.85
757.047	5.98
757.364	6.06
757.68	6.24
757.997	6.3
758.314	6.23
758.63	5.82
758.947	6
759.264	5.99
759.58	6.09
759.896	6
760.213	6.39
760.529	6.36
760.846	6.46
761.162	6.29
761.478	6.27
761.794	6.3
762.11	6.28
762.426	6.28
762.743	6.27
763.059	6.42
763.375	6.52
763.69	6.6
764.006	6.59
764.322	6.72
764.638	6.78
764.954	6.95
765.27	7.22
765.585	7.03
765.901	7.25
766.216	7.34
766.532	7.38
766.848	7.24
767.163	7.22
767.478	7.29
767.794	7.4
768.109	7.35
768.424	7.53
768.74	7.58
769.055	7.53
769.37	7.69
769.685	7.49
770	7.41
770.315	7.42
770.63	7.35
770.945	6.82
771.26	7.02
771.575	6.75
771.89	6.86
772.205	7.15
772.52	7.07
772.834	6.81
773.149	6.69
773.464	6.58
773.778	6.72
774.093	6.31
774.407	6.15
774.722	6.33
775.036	6.34
775.351	5.96
775.665	5.98
775.979	5.8
776.293	5.8
776.608	5.17
776.922	5.02
777.236	5.27
777.55	5.51
777.864	5.19
778.178	5.54
778.492	5.1
778.806	4.79
779.12	4.97
779.434	4.91
779.747	5.03
780.061	5.13
780.375	5.19
780.689	5.5
781.002	5.9
781.316	6.21
781.629	6.22
781.943	6.7
782.256	6.37
782.57	6.52
782.883	6.53
783.196	6.9
783.51	6.93
783.823	6.71
784.136	6.76
784.449	6.66
784.762	6.58
785.075	7.02
785.388	7.09
785.701	6.85
786.014	6.76
786.327	6.87
786.64	7.31
786.953	7.34
787.266	7.02
787.578	6.46
787.891	6.24
788.204	5.92
788.516	5.76
788.829	6.37
789.141	6.61
789.454	6.97
789.766	7.09
790.079	7.02
790.391	7.11
790.703	7.2
791.016	7.36
791.328	7.2
791.64	6.93
791.952	7.3
792.264	7.14
792.576	7.56
792.888	7.11
793.2	6.83
793.512	6.93
793.824	7.4
794.136	7.96
794.448	7.86
794.76	7.73
795.071	7.54
795.383	6.88
795.695	6.69
796.006	6.86
796.318	7.09
796.629	7.49
796.941	7.25
797.252	7.25
797.564	7.28
797.875	7.15
798.186	7.18
798.497	6.94
798.809	7.25
799.12	7.22
799.431	7.43
799.742	7.69
800.053	7.61
800.364	7.18
800.675	6.47
800.986	6.33
801.297	6.5
801.608	6.64
801.918	6.95
802.229	7.08
802.54	6.63
802.851	6.55
803.161	6.36
803.472	6.53
803.782	6.67
804.093	6.56
804.403	6.34
804.714	6.42
805.024	6.64
805.334	6.56
805.645	6.45
805.955	6.82
806.265	6.27
806.575	6.1
806.885	6.28
807.195	6.77
807.505	6.71
807.815	6.62
808.125	6.28
808.435	6.58
808.745	5.88
809.055	6.04
809.365	5.96
809.674	5.73
809.984	5.95
810.294	5.21
810.603	5.49
810.913	6.25
811.222	6.61
811.532	6.48
811.841	6.43
812.151	7.14
812.46	6.71
812.769	6.85
813.079	6.81
813.388	6.82
813.697	7.06
814.006	6.95
814.315	7.12
814.624	7.68
814.933	7.03
815.242	7.39
815.551	7.33
815.86	7.44
816.169	8.18
816.478	8.03
816.786	8.47
817.095	8.53
817.404	8.31
817.712	8.04
818.021	8.11
818.33	8.08
818.638	7.37
818.947	7.75
819.255	8.01
819.563	7.94
819.872	8.05
820.18	8.13
820.488	8.41
820.796	8.51
821.105	8.4
821.413	8.64
821.721	8.57
822.029	8.58
822.337	8.59
822.645	8.43
822.953	8.22
823.26	8.38
823.568	8.31
823.876	8.27
824.184	8.41
824.491	8.36
824.799	8.57
825.107	8.72
825.414	8.78
825.722	8.96
826.029	9.24
826.337	9.35
826.644	9.22
826.951	9.22
827.259	9.21
827.566	9.17
827.873	9.22
828.18	9.45
828.488	9.6
828.795	9.66
829.102	9.82
829.409	10.28
829.716	10.11
830.023	10.18
830.329	10.01
830.636	9.73
830.943	9.89
831.25	9.48
831.557	9.22
831.863	9.09
832.17	8.55
832.476	8.08
832.783	8.41
833.089	8.46
833.396	8.59
833.702	8.73
834.009	9.16
834.315	9.09
834.621	9.14
834.928	8.95
835.234	8.85
835.54	8.46
835.846	8.19
836.152	7.98
836.458	7.96
836.764	7.99
837.07	8.06
837.376	8.29
837.682	8.35
837.988	8.05
838.293	7.8
838.599	7.93
838.905	7.89
839.211	7.01
839.516	7.18
839.822	6.65
840.127	5.83
840.433	5.85
840.738	6.05
841.044	5.64
841.349	5.91
841.654	5.83
841.959	6.48
842.265	6.74
842.57	7.96
842.875	7.71
843.18	8.67
843.485	9.11
843.79	8.49
844.095	9.02
844.4	9.53
844.705	8.8
845.01	8.75
845.315	8.32
845.619	9.09
845.924	9.56
846.229	8.84
846.533	9.1
846.838	8.1
847.142	6.49
847.447	5.47
847.751	2.89
848.056	2.99
848.36	3.38
848.664	4.23
848.969	3.87
849.273	3.84
849.577	1.95
849.881	1.86
850.185	2.97
850.489	1.86
850.794	2.97
851.097	4.95
851.401	5.57
851.705	5.11
852.009	5.78
852.313	4.69
852.617	5.53
852.92	6.49
853.224	6.46
853.528	7.78
853.831	6.96
854.135	7.75
854.438	6.8
854.742	5.58
855.045	4.91
855.349	5.19
855.652	5.87
855.955	6.9
856.259	4.29
856.562	4.48
856.865	5.23
857.168	3.91
857.471	2.49
857.774	2.34
858.077	4.31
858.38	2.16
858.683	4.33
858.986	5.58
859.289	5.22
859.592	5.07
859.894	5.99
860.197	8.65
860.5	9.71
860.802	11.16
861.105	12.24
861.407	11.78
861.71	9.97
862.012	10.28
862.315	9.26
862.617	11.8
862.919	11.41
863.222	10.29
863.524	8.33
863.826	10.54
864.128	9.89
864.43	8.95
864.732	12.13
865.034	9.29
865.336	6.28
865.638	5.39
865.94	6.31
866.242	4.17
866.544	5.33
866.846	4.49
867.147	5.01
867.449	6.1
867.751	5.13
868.052	5.52
868.354	4.31
868.655	6.03
868.957	3.82
869.258	0.05
869.56	0.65
869.861	1.78
870.162	-0.2
870.463	1.11
870.765	-0.12
871.066	-2.12
871.367	-0.99
871.668	1.99
871.969	3.3
872.27	2.64
872.571	4.38
872.872	3.14
873.173	3.48
873.473	2.44
873.774	0.68
874.075	3.23
874.376	2.65
874.676	5.11
874.977	2.87
875.277	5.93
875.578	8.46
875.878	8.5
876.179	10.5
876.479	11.67
876.78	10.31
877.08	12.53
877.38	12.25
877.68	11.81
877.981	10.92
878.281	10.78
878.581	11.71
