Data from BU57649_Reflection_00009.txt Node
Date: Tue Nov 19 10:55:46 EST 2019
User: vgr7
Spectrometer: USB2G7710
Scans to average: 3
Trigger mode: 4
Integration Time (sec): 2.000000E-2
Electric dark correction enabled: true
Boxcar width: 10
XAxis mode: Wavelengths
Number of Pixels in Spectrum: 2048
>>>>>Begin Spectral Data<<<<<
177.721	41.05
178.105	50.2
178.488	50.25
178.871	47.35
179.254	56.83
179.636	65.01
180.019	48
180.402	200
180.785	-605.88
181.168	-7025
181.55	-133.77
181.933	188.76
182.316	247.24
182.698	-100.61
183.081	-117.92
183.463	-59.67
183.846	-62.31
184.228	-32.96
184.611	-31.16
184.993	-21.64
185.376	-22.89
185.758	-23.69
186.14	-20
186.522	-14.05
186.904	-12.75
187.287	-12.53
187.669	-14.13
188.051	-24.83
188.433	-39.33
188.815	-40.9
189.197	-42.9
189.579	-47.39
189.961	-52.84
190.342	-53.55
190.724	-72.86
191.106	-62.64
191.488	-67.73
191.869	-65.99
192.251	-64.28
192.633	-70.77
193.014	-65.1
193.396	-72.07
193.777	-67.39
194.159	-64.48
194.54	-83.5
194.922	-109.75
195.303	-119.27
195.684	-114.42
196.065	-114.14
196.447	-98.27
196.828	-111.9
197.209	-106.72
197.59	-75.09
197.971	-56.06
198.352	-50.42
198.733	-39.4
199.114	-56.93
199.495	-52.29
199.876	-51.76
200.257	-49.83
200.638	-56
201.018	-61.59
201.399	-49
201.78	-55.5
202.16	-60.48
202.541	-56.19
202.922	-48.84
203.302	-49.7
203.683	-54.41
204.063	-58.32
204.444	-50.36
204.824	-40.59
205.204	-37.76
205.585	-34.68
205.965	-37.24
206.345	-30.37
206.725	-34.74
207.106	-13.36
207.486	-8.5
207.866	-7.94
208.246	-9.18
208.626	-5.57
209.006	-3.73
209.386	-6.57
209.766	-18.45
210.145	-21.07
210.525	-20.67
210.905	-20.89
211.285	-15.71
211.664	-4.48
212.044	-3.98
212.424	-5.16
212.803	-15.95
213.183	-20
213.562	-21.68
213.942	-22.1
214.321	-28.58
214.701	-30.66
215.08	-49.12
215.459	-52.65
215.838	-58.78
216.218	-60.99
216.597	-46.89
216.976	-46.89
217.355	-58.3
217.734	-47.27
218.113	-38.63
218.492	-46.87
218.871	-34.14
219.25	-51.39
219.629	-62.09
220.008	-50.6
220.387	-54.77
220.766	-42.44
221.144	-43.39
221.523	-54.1
221.902	-40.74
222.28	-30.2
222.659	-8.42
223.037	-4.54
223.416	-2.46
223.794	-4.52
224.173	-10
224.551	-12.44
224.929	-14.7
225.308	-9.72
225.686	-10.94
226.064	-13.88
226.442	-7.43
226.821	-15.16
227.199	-12.95
227.577	-10.14
227.955	-10.39
228.333	-12.85
228.711	-12.72
229.089	-9.87
229.467	-8.69
229.845	-9.64
230.222	-9.02
230.6	-13.27
230.978	-12.44
231.356	-13.52
231.733	-12.16
232.111	-9.49
232.488	-8.27
232.866	-3.71
233.243	-2.96
233.621	-1.78
233.998	-1.58
234.376	-4.43
234.753	-2.3
235.13	-2.19
235.508	-2.98
235.885	-3.29
236.262	-3.9
236.639	-4.66
237.016	-3.6
237.393	-3.22
237.77	-1.86
238.147	-1.72
238.524	-0.42
238.901	-1.19
239.278	-0.8
239.655	-0.05
240.032	-0.78
240.409	-1.35
240.785	-1.97
241.162	-2.06
241.539	-2.07
241.915	-2.25
242.292	-1.53
242.668	-1.14
243.045	-0.55
243.421	-0.12
243.798	0.35
244.174	1.2
244.551	1.57
244.927	1.77
245.303	1.86
245.679	2
246.056	1.89
246.432	1.96
246.808	2.28
247.184	2.4
247.56	2.1
247.936	2.34
248.312	2.65
248.688	2.71
249.064	2.74
249.44	2.65
249.815	2.91
250.191	2.98
250.567	2.85
250.943	2.59
251.318	2.42
251.694	2.47
252.069	2.38
252.445	2.36
252.82	2.09
253.196	2.04
253.571	1.94
253.947	1.98
254.322	1.79
254.697	1.72
255.073	1.85
255.448	1.98
255.823	1.73
256.198	1.77
256.573	1.96
256.948	2.21
257.323	2.4
257.698	2.49
258.073	2.31
258.448	2.49
258.823	2.55
259.198	2.59
259.573	2.43
259.948	2.27
260.322	2.05
260.697	2.19
261.072	2.17
261.446	2.13
261.821	2.23
262.195	2.11
262.57	2.06
262.944	1.98
263.319	2.16
263.693	2.29
264.067	2.3
264.442	2.14
264.816	2.05
265.19	2.11
265.564	2.12
265.938	2.23
266.313	2.02
266.687	2.31
267.061	2.42
267.435	2.69
267.809	2.68
268.183	2.76
268.556	2.63
268.93	2.8
269.304	2.75
269.678	2.79
270.051	2.93
270.425	3
270.799	2.88
271.172	2.65
271.546	2.71
271.919	2.76
272.293	2.78
272.666	2.8
273.04	2.72
273.413	2.61
273.787	2.69
274.16	2.71
274.533	2.63
274.906	2.58
275.279	2.4
275.653	2.55
276.026	2.63
276.399	2.69
276.772	2.6
277.145	2.55
277.518	2.3
277.891	2.29
278.263	2.21
278.636	2.39
279.009	2.52
279.382	2.44
279.755	2.35
280.127	2.34
280.5	2.24
280.872	2.39
281.245	2.48
281.617	2.29
281.99	2.27
282.362	2.25
282.735	2.23
283.107	2.29
283.479	2.22
283.852	2.14
284.224	2.19
284.596	2.13
284.968	2.12
285.34	2.23
285.713	2.21
286.085	2.23
286.457	2.11
286.829	2.1
287.201	2.06
287.572	2.03
287.944	2.13
288.316	2.26
288.688	2.22
289.06	2.21
289.431	2.34
289.803	2.4
290.175	2.25
290.546	2.23
290.918	2.2
291.289	2.09
291.661	2.18
292.032	2.18
292.403	2.26
292.775	2.4
293.146	2.38
293.517	2.4
293.889	2.45
294.26	2.53
294.631	2.59
295.002	2.8
295.373	2.89
295.744	2.85
296.115	2.8
296.486	2.8
296.857	2.9
297.228	2.74
297.599	2.74
297.97	2.87
298.34	2.94
298.711	3.08
299.082	3.2
299.452	3.27
299.823	3.3
300.194	3.42
300.564	3.34
300.935	3.44
301.305	3.54
301.676	3.47
302.046	3.62
302.416	3.53
302.787	3.38
303.157	3.35
303.527	3.44
303.897	3.38
304.267	3.38
304.637	3.38
305.008	3.58
305.378	3.7
305.748	3.81
306.117	3.86
306.487	3.73
306.857	3.93
307.227	4.07
307.597	4.02
307.967	3.91
308.336	4.05
308.706	4.11
309.076	4.21
309.445	4.36
309.815	4.3
310.184	4.38
310.554	4.54
310.923	4.67
311.293	4.65
311.662	4.82
312.031	4.89
312.401	4.83
312.77	4.93
313.139	4.91
313.508	4.89
313.877	4.97
314.246	5.04
314.616	5.07
314.985	4.89
315.353	4.93
315.722	4.94
316.091	4.94
316.46	4.94
316.829	4.95
317.198	4.96
317.567	5.13
317.935	5.35
318.304	5.45
318.672	5.55
319.041	5.57
319.41	5.53
319.778	5.61
320.147	5.73
320.515	5.68
320.883	5.71
321.252	5.76
321.62	5.77
321.988	5.89
322.357	5.97
322.725	6.11
323.093	6.13
323.461	6.22
323.829	6.35
324.197	6.39
324.565	6.26
324.933	6.31
325.301	6.28
325.669	6.22
326.037	6.16
326.405	6.15
326.772	6.21
327.14	6.22
327.508	6.23
327.875	6.33
328.243	6.23
328.61	6.34
328.978	6.26
329.346	6.33
329.713	6.29
330.08	6.4
330.448	6.49
330.815	6.49
331.182	6.6
331.55	6.61
331.917	6.51
332.284	6.67
332.651	6.76
333.018	6.77
333.385	6.83
333.752	6.85
334.119	6.79
334.486	6.93
334.853	7.02
335.22	7.05
335.587	6.92
335.954	7.14
336.32	7.13
336.687	7.29
337.054	7.36
337.42	7.51
337.787	7.33
338.153	7.24
338.52	7.4
338.886	7.41
339.253	7.32
339.619	7.48
339.986	7.59
340.352	7.55
340.718	7.64
341.084	7.65
341.451	7.69
341.817	7.75
342.183	7.63
342.549	7.61
342.915	7.7
343.281	7.83
343.647	7.9
344.013	7.85
344.379	7.8
344.745	7.76
345.11	7.68
345.476	7.67
345.842	7.69
346.208	7.64
346.573	7.62
346.939	7.73
347.304	7.82
347.67	7.73
348.035	7.76
348.401	7.76
348.766	7.7
349.132	7.72
349.497	7.76
349.862	7.76
350.228	7.8
350.593	7.72
350.958	7.7
351.323	7.59
351.688	7.65
352.053	7.71
352.418	7.67
352.783	7.71
353.148	7.71
353.513	7.73
353.878	7.71
354.243	7.67
354.608	7.68
354.972	7.56
355.337	7.54
355.702	7.48
356.066	7.49
356.431	7.57
356.795	7.59
357.16	7.55
357.524	7.58
357.889	7.45
358.253	7.43
358.618	7.38
358.982	7.39
359.346	7.35
359.71	7.3
360.075	7.26
360.439	7.29
360.803	7.25
361.167	7.15
361.531	7.14
361.895	7.09
362.259	6.99
362.623	6.9
362.987	6.85
363.351	6.82
363.714	6.77
364.078	6.65
364.442	6.55
364.806	6.56
365.169	6.49
365.533	6.52
365.896	6.49
366.26	6.43
366.623	6.4
366.987	6.37
367.35	6.36
367.714	6.37
368.077	6.28
368.44	6.32
368.803	6.33
369.167	6.26
369.53	6.25
369.893	6.18
370.256	6.19
370.619	6.07
370.982	6.05
371.345	5.95
371.708	5.96
372.071	5.95
372.434	5.82
372.797	5.76
373.159	5.65
373.522	5.6
373.885	5.56
374.247	5.52
374.61	5.45
374.973	5.38
375.335	5.32
375.698	5.22
376.06	5.13
376.423	5.09
376.785	5.04
377.147	4.96
377.51	4.96
377.872	4.93
378.234	4.98
378.596	4.96
378.958	4.9
379.321	4.8
379.683	4.74
380.045	4.69
380.407	4.68
380.769	4.67
381.13	4.58
381.492	4.59
381.854	4.52
382.216	4.48
382.578	4.44
382.939	4.36
383.301	4.33
383.663	4.28
384.024	4.25
384.386	4.24
384.747	4.23
385.109	4.25
385.47	4.24
385.832	4.15
386.193	4.09
386.554	4.06
386.916	4.04
387.277	4.05
387.638	4.03
387.999	4.01
388.36	4.02
388.721	4.05
389.082	4
389.443	4.02
389.804	3.98
390.165	3.97
390.526	3.95
390.887	3.94
391.248	3.91
391.609	3.9
391.969	3.87
392.33	3.83
392.691	3.76
393.051	3.73
393.412	3.73
393.772	3.71
394.133	3.67
394.493	3.64
394.854	3.59
395.214	3.53
395.574	3.51
395.935	3.46
396.295	3.42
396.655	3.39
397.015	3.34
397.376	3.32
397.736	3.22
398.096	3.18
398.456	3.17
398.816	3.2
399.176	3.14
399.535	3.1
399.895	3.11
400.255	3.09
400.615	3.08
400.975	3.05
401.334	3.05
401.694	3.08
402.054	3.09
402.413	3.1
402.773	3.11
403.132	3.08
403.492	3.04
403.851	3.05
404.211	3.01
404.57	2.99
404.929	2.98
405.288	3.05
405.648	3.05
406.007	3
406.366	2.96
406.725	2.98
407.084	3
407.443	2.99
407.802	2.99
408.161	2.97
408.52	2.99
408.879	2.96
409.238	2.95
409.596	2.93
409.955	2.9
410.314	2.87
410.673	2.83
411.031	2.86
411.39	2.87
411.748	2.87
412.107	2.87
412.465	2.86
412.824	2.81
413.182	2.79
413.54	2.8
413.899	2.79
414.257	2.76
414.615	2.72
414.974	2.7
415.332	2.7
415.69	2.68
416.048	2.68
416.406	2.67
416.764	2.67
417.122	2.66
417.48	2.66
417.838	2.66
418.195	2.67
418.553	2.65
418.911	2.62
419.269	2.63
419.626	2.62
419.984	2.62
420.342	2.63
420.699	2.62
421.057	2.62
421.414	2.61
421.772	2.62
422.129	2.62
422.486	2.61
422.844	2.61
423.201	2.61
423.558	2.59
423.915	2.6
424.273	2.58
424.63	2.59
424.987	2.57
425.344	2.58
425.701	2.57
426.058	2.57
426.415	2.56
426.772	2.54
427.128	2.53
427.485	2.53
427.842	2.53
428.199	2.54
428.555	2.54
428.912	2.54
429.269	2.54
429.625	2.53
429.982	2.55
430.338	2.54
430.695	2.54
431.051	2.55
431.407	2.55
431.764	2.54
432.12	2.54
432.476	2.55
432.832	2.55
433.189	2.55
433.545	2.55
433.901	2.56
434.257	2.55
434.613	2.54
434.969	2.53
435.325	2.53
435.681	2.51
436.036	2.51
436.392	2.5
436.748	2.51
437.104	2.51
437.459	2.49
437.815	2.5
438.171	2.49
438.526	2.49
438.882	2.48
439.237	2.48
439.593	2.46
439.948	2.46
440.304	2.45
440.659	2.46
441.014	2.45
441.369	2.45
441.725	2.46
442.08	2.46
442.435	2.46
442.79	2.45
443.145	2.45
443.5	2.44
443.855	2.43
444.21	2.43
444.565	2.43
444.92	2.42
445.275	2.42
445.629	2.43
445.984	2.41
446.339	2.41
446.693	2.41
447.048	2.41
447.403	2.39
447.757	2.4
448.112	2.39
448.466	2.4
448.82	2.39
449.175	2.39
449.529	2.41
449.883	2.4
450.238	2.4
450.592	2.41
450.946	2.41
451.3	2.41
451.654	2.41
452.008	2.39
452.362	2.39
452.716	2.39
453.07	2.39
453.424	2.41
453.778	2.41
454.132	2.4
454.486	2.41
454.839	2.41
455.193	2.4
455.547	2.41
455.9	2.42
456.254	2.44
456.607	2.43
456.961	2.43
457.314	2.42
457.668	2.4
458.021	2.4
458.375	2.4
458.728	2.41
459.081	2.42
459.434	2.42
459.787	2.41
460.141	2.4
460.494	2.4
460.847	2.38
461.2	2.39
461.553	2.42
461.906	2.41
462.259	2.41
462.611	2.4
462.964	2.4
463.317	2.38
463.67	2.36
464.022	2.37
464.375	2.36
464.728	2.38
465.08	2.39
465.433	2.4
465.785	2.41
466.138	2.41
466.49	2.4
466.843	2.42
467.195	2.43
467.547	2.46
467.899	2.46
468.252	2.46
468.604	2.46
468.956	2.44
469.308	2.44
469.66	2.48
470.012	2.47
470.364	2.47
470.716	2.49
471.068	2.49
471.42	2.49
471.772	2.49
472.123	2.51
472.475	2.54
472.827	2.53
473.178	2.52
473.53	2.53
473.882	2.53
474.233	2.51
474.585	2.51
474.936	2.51
475.288	2.51
475.639	2.54
475.99	2.53
476.342	2.54
476.693	2.55
477.044	2.54
477.395	2.56
477.746	2.56
478.097	2.54
478.448	2.55
478.8	2.55
479.15	2.56
479.501	2.55
479.852	2.53
480.203	2.53
480.554	2.54
480.905	2.55
481.255	2.55
481.606	2.56
481.957	2.58
482.307	2.57
482.658	2.58
483.009	2.57
483.359	2.57
483.709	2.57
484.06	2.57
484.41	2.56
484.761	2.57
485.111	2.57
485.461	2.58
485.811	2.58
486.162	2.58
486.512	2.57
486.862	2.58
487.212	2.59
487.562	2.59
487.912	2.59
488.262	2.58
488.612	2.59
488.961	2.59
489.311	2.58
489.661	2.58
490.011	2.57
490.36	2.56
490.71	2.58
491.06	2.57
491.409	2.57
491.759	2.57
492.108	2.55
492.458	2.56
492.807	2.55
493.157	2.55
493.506	2.54
493.855	2.56
494.204	2.55
494.554	2.55
494.903	2.54
495.252	2.55
495.601	2.56
495.95	2.55
496.299	2.55
496.648	2.56
496.997	2.58
497.346	2.6
497.695	2.61
498.043	2.64
498.392	2.64
498.741	2.68
499.09	2.71
499.438	2.75
499.787	2.77
500.135	2.79
500.484	2.81
500.832	2.84
501.181	2.85
501.529	2.89
501.878	2.93
502.226	2.97
502.574	3
502.923	3.04
503.271	3.09
503.619	3.14
503.967	3.14
504.315	3.18
504.663	3.21
505.011	3.25
505.359	3.27
505.707	3.34
506.055	3.39
506.403	3.43
506.751	3.47
507.098	3.52
507.446	3.56
507.794	3.62
508.141	3.67
508.489	3.72
508.837	3.76
509.184	3.8
509.531	3.86
509.879	3.9
510.226	3.93
510.574	3.99
510.921	4.03
511.268	4.13
511.616	4.2
511.963	4.26
512.31	4.33
512.657	4.39
513.004	4.45
513.351	4.5
513.698	4.57
514.045	4.66
514.392	4.76
514.739	4.86
515.086	4.93
515.432	5.03
515.779	5.1
516.126	5.22
516.473	5.3
516.819	5.36
517.166	5.45
517.512	5.55
517.859	5.61
518.205	5.68
518.552	5.75
518.898	5.81
519.245	5.89
519.591	5.98
519.937	6.07
520.283	6.15
520.629	6.25
520.976	6.35
521.322	6.43
521.668	6.51
522.014	6.62
522.36	6.74
522.706	6.85
523.052	6.99
523.398	7.09
523.743	7.22
524.089	7.36
524.435	7.5
524.781	7.62
525.126	7.73
525.472	7.84
525.817	7.93
526.163	8.03
526.509	8.12
526.854	8.2
527.199	8.29
527.545	8.38
527.89	8.45
528.235	8.52
528.581	8.6
528.926	8.68
529.271	8.74
529.616	8.82
529.961	8.89
530.306	8.97
530.651	9.07
530.996	9.17
531.341	9.27
531.686	9.36
532.031	9.45
532.376	9.56
532.721	9.67
533.065	9.79
533.41	9.91
533.755	10.01
534.099	10.12
534.444	10.22
534.788	10.32
535.133	10.43
535.477	10.56
535.822	10.68
536.166	10.82
536.51	10.96
536.855	11.11
537.199	11.28
537.543	11.46
537.887	11.61
538.231	11.77
538.576	11.95
538.92	12.12
539.264	12.3
539.608	12.45
539.951	12.59
540.295	12.73
540.639	12.88
540.983	13.03
541.327	13.17
541.671	13.31
542.014	13.47
542.358	13.61
542.701	13.76
543.045	13.91
543.389	14.08
543.732	14.24
544.075	14.39
544.419	14.54
544.762	14.67
545.105	14.84
545.449	15.02
545.792	15.16
546.135	15.35
546.478	15.56
546.821	15.79
547.165	16
547.508	16.21
547.851	16.42
548.194	16.65
548.536	16.89
548.879	17.12
549.222	17.33
549.565	17.57
549.908	17.81
550.25	18.06
550.593	18.28
550.936	18.51
551.278	18.74
551.621	19
551.963	19.28
552.306	19.56
552.648	19.78
552.991	20.05
553.333	20.29
553.675	20.51
554.017	20.68
554.36	20.91
554.702	21.14
555.044	21.39
555.386	21.64
555.728	21.91
556.07	22.17
556.412	22.45
556.754	22.69
557.096	22.95
557.438	23.2
557.78	23.43
558.121	23.73
558.463	24.03
558.805	24.3
559.147	24.57
559.488	24.8
559.83	25.07
560.171	25.32
560.513	25.57
560.854	25.87
561.196	26.24
561.537	26.54
561.878	26.85
562.22	27.1
562.561	27.32
562.902	27.53
563.243	27.77
563.584	28.02
563.925	28.33
564.266	28.57
564.607	28.79
564.948	29.05
565.289	29.28
565.63	29.55
565.971	29.8
566.312	30.07
566.653	30.31
566.993	30.55
567.334	30.82
567.675	31.14
568.015	31.38
568.356	31.59
568.696	31.87
569.037	32.12
569.377	32.39
569.718	32.64
570.058	32.98
570.398	33.27
570.739	33.47
571.079	33.71
571.419	33.94
571.759	34.19
572.099	34.44
572.439	34.66
572.779	34.9
573.119	35.08
573.459	35.23
573.799	35.45
574.139	35.71
574.479	35.92
574.819	36.09
575.158	36.28
575.498	36.45
575.838	36.61
576.177	36.83
576.517	37.07
576.856	37.31
577.196	37.44
577.535	37.63
577.875	37.88
578.214	38.02
578.553	38.23
578.893	38.47
579.232	38.63
579.571	38.84
579.91	39.02
580.25	39.21
580.589	39.42
580.928	39.68
581.267	39.87
581.606	40.05
581.945	40.13
582.283	40.33
582.622	40.53
582.961	40.72
583.3	40.84
583.639	40.91
583.977	41.04
584.316	41.25
584.654	41.45
584.993	41.7
585.332	41.94
585.67	42.1
586.008	42.27
586.347	42.45
586.685	42.67
587.024	42.81
587.362	42.97
587.7	43.19
588.038	43.34
588.376	43.48
588.715	43.63
589.053	43.87
589.391	44.01
589.729	44.24
590.067	44.29
590.404	44.45
590.742	44.65
591.08	44.86
591.418	44.94
591.756	45.07
592.093	45.1
592.431	45.21
592.769	45.35
593.106	45.45
593.444	45.57
593.781	45.68
594.119	45.78
594.456	45.94
594.793	46.02
595.131	46.07
595.468	46.17
595.805	46.23
596.143	46.26
596.48	46.36
596.817	46.36
597.154	46.5
597.491	46.56
597.828	46.62
598.165	46.68
598.502	46.79
598.839	46.92
599.176	47.08
599.512	47.14
599.849	47.31
600.186	47.43
600.523	47.61
600.859	47.71
601.196	47.85
601.532	47.89
601.869	48
602.205	48.06
602.542	48.09
602.878	48.18
603.215	48.32
603.551	48.37
603.887	48.45
604.223	48.51
604.56	48.55
604.896	48.57
605.232	48.64
605.568	48.69
605.904	48.65
606.24	48.66
606.576	48.75
606.912	48.74
607.248	48.82
607.583	48.82
607.919	48.82
608.255	48.89
608.591	49.01
608.926	49.06
609.262	49.12
609.597	49.22
609.933	49.25
610.268	49.26
610.604	49.32
610.939	49.48
611.275	49.56
611.61	49.64
611.945	49.78
612.281	49.78
612.616	49.94
612.951	50.03
613.286	50.11
613.621	50.19
613.956	50.25
614.291	50.3
614.626	50.33
614.961	50.4
615.296	50.38
615.631	50.37
615.966	50.41
616.3	50.45
616.635	50.55
616.97	50.57
617.304	50.73
617.639	50.8
617.973	50.77
618.308	50.88
618.642	50.95
618.977	50.92
619.311	50.97
619.646	50.87
619.98	50.88
620.314	50.98
620.648	51.02
620.983	51.08
621.317	51.09
621.651	51.25
621.985	51.33
622.319	51.47
622.653	51.58
622.987	51.61
623.321	51.71
623.655	51.66
623.988	51.7
624.322	51.62
624.656	51.7
624.99	51.74
625.323	51.76
625.657	51.81
625.99	51.88
626.324	51.97
626.657	52.07
626.991	52.15
627.324	52.2
627.658	52.23
627.991	52.28
628.324	52.33
628.657	52.26
628.991	52.26
629.324	52.18
629.657	52.15
629.99	52.18
630.323	52.21
630.656	52.3
630.989	52.44
631.322	52.42
631.655	52.39
631.987	52.36
632.32	52.28
632.653	52.32
632.986	52.36
633.318	52.34
633.651	52.25
633.984	52.28
634.316	52.22
634.649	52.27
634.981	52.29
635.313	52.33
635.646	52.35
635.978	52.32
636.31	52.5
636.643	52.58
636.975	52.62
637.307	52.7
637.639	52.68
637.971	52.64
638.303	52.72
638.635	52.82
638.967	52.86
639.299	52.93
639.631	53
639.963	52.95
640.295	52.98
640.626	53.06
640.958	53.04
641.29	53.1
641.621	53.08
641.953	53.01
642.285	52.95
642.616	52.95
642.948	53.03
643.279	52.84
643.61	52.88
643.942	52.9
644.273	52.82
644.604	52.75
644.936	52.75
645.267	52.85
645.598	52.78
645.929	52.8
646.26	52.68
646.591	52.68
646.922	52.86
647.253	52.83
647.584	52.97
647.915	52.93
648.245	52.96
648.576	52.98
648.907	53.07
649.238	53.15
649.568	53.26
649.899	53.21
650.229	53.26
650.56	53.33
650.89	53.29
651.221	53.3
651.551	53.39
651.882	53.41
652.212	53.43
652.542	53.53
652.872	53.55
653.203	53.76
653.533	53.76
653.863	53.7
654.193	53.73
654.523	53.63
654.853	53.75
655.183	53.76
655.513	53.68
655.843	53.67
656.172	53.71
656.502	53.62
656.832	53.69
657.162	53.71
657.491	53.62
657.821	53.64
658.15	53.62
658.48	53.65
658.809	53.74
659.139	53.77
659.468	53.71
659.798	53.76
660.127	53.69
660.456	53.69
660.785	53.67
661.115	53.69
661.444	53.81
661.773	53.91
662.102	53.9
662.431	53.95
662.76	53.93
663.089	53.95
663.418	53.94
663.747	53.97
664.076	54
664.404	54.13
664.733	54.16
665.062	54.24
665.39	54.17
665.719	54.2
666.048	54.08
666.376	54.14
666.705	54.2
667.033	54.3
667.362	54.34
667.69	54.37
668.018	54.44
668.347	54.34
668.675	54.32
669.003	54.45
669.331	54.42
669.659	54.37
669.987	54.4
670.315	54.55
670.643	54.6
670.971	54.75
671.299	54.71
671.627	54.82
671.955	54.75
672.283	54.85
672.61	54.87
672.938	55.01
673.266	54.91
673.593	54.74
673.921	54.7
674.249	54.71
674.576	54.65
674.904	54.62
675.231	54.71
675.558	54.67
675.886	54.54
676.213	54.52
676.54	54.61
676.867	54.56
677.195	54.51
677.522	54.49
677.849	54.38
678.176	54.29
678.503	54.22
678.83	54.31
679.157	54.42
679.484	54.31
679.81	54.22
680.137	54.34
680.464	54.47
680.791	54.48
681.117	54.46
681.444	54.6
681.771	54.65
682.097	54.61
682.424	54.58
682.75	54.61
683.077	54.74
683.403	54.76
683.729	54.79
684.056	54.71
684.382	54.67
684.708	54.71
685.034	54.71
685.36	54.67
685.686	54.71
686.012	54.72
686.339	54.69
686.664	54.79
686.99	54.79
687.316	54.79
687.642	54.84
687.968	55.01
688.294	54.85
688.619	54.68
688.945	54.76
689.271	54.71
689.596	54.88
689.922	54.83
690.247	54.88
690.573	54.92
690.898	55.06
691.224	55.07
691.549	55.12
691.874	55.27
692.2	55.41
692.525	55.32
692.85	55.17
693.175	55.25
693.5	55.03
693.825	54.94
694.15	54.81
694.475	54.96
694.8	54.84
695.125	54.76
695.45	54.89
695.775	54.84
696.099	55.09
696.424	54.97
696.749	54.99
697.073	55.03
697.398	55.03
697.723	55.03
698.047	55.04
698.372	55.11
698.696	55.04
699.02	55.08
699.345	55.22
699.669	55.32
699.993	55.34
700.318	55.53
700.642	55.65
700.966	55.73
701.29	55.72
701.614	55.74
701.938	55.91
702.262	55.88
702.586	55.96
702.91	55.79
703.234	55.69
703.557	55.71
703.881	55.62
704.205	55.63
704.529	55.45
704.852	55.54
705.176	55.47
705.499	55.58
705.823	55.51
706.146	55.54
706.47	55.58
706.793	55.49
707.117	55.52
707.44	55.42
707.763	55.38
708.086	55.39
708.409	55.48
708.733	55.5
709.056	55.49
709.379	55.48
709.702	55.42
710.025	55.57
710.348	55.54
710.671	55.68
710.993	55.69
711.316	55.77
711.639	55.75
711.962	55.66
712.284	55.55
712.607	55.4
712.93	55.19
713.252	54.97
713.575	55.16
713.897	54.88
714.22	54.82
714.542	54.84
714.864	54.73
715.187	54.62
715.509	54.53
715.831	54.66
716.153	54.48
716.475	54.51
716.798	54.38
717.12	54.25
717.442	54.29
717.764	54.21
718.085	54.21
718.407	54.14
718.729	54.19
719.051	54.27
719.373	54.36
719.695	54.45
720.016	54.64
720.338	54.61
720.659	54.89
720.981	54.92
721.302	55.07
721.624	55.07
721.945	55.09
722.267	55.09
722.588	55.15
722.909	55.24
723.231	55.39
723.552	55.51
723.873	55.69
724.194	55.5
724.515	55.54
724.836	55.47
725.157	55.69
725.478	55.44
725.799	55.38
726.12	55.3
726.441	55.21
726.762	55.19
727.083	55.15
727.403	55.1
727.724	55.16
728.045	55.04
728.365	55.05
728.686	55.02
729.006	55
729.327	55.02
729.647	55.11
729.967	54.98
730.288	54.79
730.608	55.02
730.928	54.96
731.249	54.96
731.569	55.03
731.889	55.08
732.209	55.34
732.529	55.23
732.849	55.17
733.169	55.23
733.489	55.22
733.809	55.21
734.129	55.04
734.448	55.14
734.768	55.19
735.088	55.01
735.408	54.95
735.727	55.03
736.047	54.98
736.366	54.82
736.686	54.89
737.005	55.07
737.325	54.89
737.644	54.72
737.963	54.84
738.283	55.03
738.602	54.82
738.921	54.74
739.24	54.9
739.56	54.89
739.879	54.85
740.198	54.9
740.517	54.99
740.836	54.9
741.155	55
741.473	54.8
741.792	54.76
742.111	54.62
742.43	54.69
742.748	54.61
743.067	54.64
743.386	54.63
743.704	54.78
744.023	54.9
744.341	55.3
744.66	55.35
744.978	55.3
745.297	55.29
745.615	55.13
745.933	55.28
746.252	55.52
746.57	55.59
746.888	55.88
747.206	55.8
747.524	56.05
747.842	55.8
748.16	56.04
748.478	56.33
748.796	56.65
749.114	56.59
749.432	56.46
749.749	56.73
750.067	56.74
750.385	56.64
750.703	56.51
751.02	56.54
751.338	56.14
751.655	55.64
751.973	55.62
752.29	55.8
752.608	55.69
752.925	55.66
753.242	55.48
753.56	54.98
753.877	54.6
754.194	54.69
754.511	54.66
754.828	54.59
755.145	54.54
755.462	54.25
755.779	54.2
756.096	54.19
756.413	53.66
756.73	53.63
757.047	53.73
757.364	53.36
757.68	53.11
757.997	53.31
758.314	53.61
758.63	53.57
758.947	53.53
759.264	53.34
759.58	53.42
759.896	53.59
760.213	53.73
760.529	53.96
760.846	53.96
761.162	53.87
761.478	54.14
761.794	54.13
762.11	54.3
762.426	54.23
762.743	54.57
763.059	54.97
763.375	55.02
763.69	54.79
764.006	54.97
764.322	55
764.638	55
764.954	55.1
765.27	55.14
765.585	55.29
765.901	55.4
766.216	55.47
766.532	55.45
766.848	55.43
767.163	55.21
767.478	55.18
767.794	55.21
768.109	54.96
768.424	55.05
768.74	54.87
769.055	55.15
769.37	54.98
769.685	54.95
770	54.57
770.315	54.63
770.63	54.63
770.945	54.4
771.26	54.21
771.575	54.21
771.89	54.54
772.205	54.4
772.52	54.15
772.834	54.1
773.149	54.03
773.464	54.41
773.778	54.65
774.093	54.81
774.407	55.12
774.722	55.2
775.036	54.86
775.351	54.96
775.665	54.61
775.979	54.51
776.293	54.42
776.608	54.54
776.922	54.41
777.236	54.2
777.55	54.27
777.864	54.41
778.178	54.46
778.492	54.1
778.806	54.4
779.12	54.66
779.434	54.46
779.747	54.38
780.061	53.99
780.375	54.25
780.689	54.34
781.002	54.13
781.316	54.26
781.629	54.56
781.943	54.85
782.256	55.25
782.57	55.05
782.883	54.97
783.196	55.42
783.51	55.15
783.823	55.18
784.136	55.61
784.449	55.17
784.762	54.73
785.075	54.28
785.388	54.15
785.701	54.01
786.014	53.84
786.327	54.06
786.64	54.11
786.953	54.01
787.266	53.53
787.578	53.59
787.891	53.17
788.204	53.29
788.516	53.01
788.829	52.88
789.141	53.56
789.454	53.44
789.766	53.18
790.079	53.76
790.391	53.91
790.703	53.69
791.016	54.21
791.328	54.46
791.64	54.84
791.952	54.63
792.264	54.62
792.576	54.66
792.888	54.51
793.2	54.51
793.512	54.06
793.824	54.19
794.136	54.2
794.448	54.14
794.76	53.06
795.071	52.96
795.383	52.98
795.695	52.69
796.006	52.76
796.318	52.32
796.629	51.6
796.941	51.86
797.252	52.01
797.564	52
797.875	51.89
798.186	51.6
798.497	51.8
798.809	52.06
799.12	51.65
799.431	52.13
799.742	51.73
800.053	52.35
800.364	52.45
800.675	52.25
800.986	52.25
801.297	53.22
801.608	53.58
801.918	53.66
802.229	53.41
802.54	53.42
802.851	54.02
803.161	53.95
803.472	53.46
803.782	53.35
804.093	53.65
804.403	53.65
804.714	53.84
805.024	54
805.334	53.75
805.645	54.19
805.955	54.04
806.265	54.48
806.575	54.49
806.885	54.24
807.195	54.05
807.505	54.42
807.815	54.37
808.125	54.47
808.435	53.22
808.745	53.13
809.055	52.74
809.365	52.91
809.674	53.41
809.984	53.46
810.294	53.19
810.603	52.57
810.913	52.32
811.222	51.91
811.532	51.33
811.841	51.35
812.151	51.37
812.46	51.37
812.769	51.25
813.079	50.78
813.388	50.46
813.697	50.42
814.006	50.52
814.315	50.3
814.624	49.89
814.933	50.49
815.242	50.09
815.551	50.56
815.86	50.58
816.169	50.53
816.478	51.02
816.786	51.69
817.095	51.74
817.404	51.82
817.712	52.54
818.021	52.99
818.33	53.49
818.638	53.47
818.947	53.3
819.255	53.8
819.563	53.68
819.872	53.91
820.18	54.1
820.488	54.31
820.796	54.56
821.105	54.79
821.413	55.22
821.721	55.34
822.029	55.28
822.337	55.07
822.645	55.23
822.953	55.17
823.26	55.21
823.568	55.17
823.876	55.33
824.184	55.31
824.491	55.24
824.799	55.12
825.107	55.21
825.414	55.19
825.722	55.02
826.029	55.21
826.337	55.2
826.644	55.33
826.951	55.19
827.259	54.97
827.566	54.82
827.873	54.6
828.18	54.53
828.488	54.53
828.795	54.59
829.102	54.48
829.409	54.28
829.716	54.14
830.023	54.12
830.329	53.77
830.636	53.39
830.943	52.96
831.25	52.95
831.557	52.76
831.863	52.6
832.17	52.56
832.476	52.59
832.783	52.34
833.089	51.93
833.396	51.93
833.702	52.1
834.009	51.88
834.315	51.57
834.621	51.62
834.928	51.45
835.234	51.57
835.54	51.51
835.846	51.69
836.152	51.65
836.458	51.9
836.764	51.8
837.07	51.94
837.376	51.97
837.682	51.85
837.988	51.79
838.293	52.27
838.599	51.94
838.905	51.91
839.211	52.51
839.516	52.51
839.822	52.56
840.127	52.11
840.433	52.85
840.738	53.31
841.044	53.47
841.349	53.03
841.654	52.3
841.959	51.77
842.265	51.22
842.57	51.4
842.875	51.46
843.18	52.08
843.485	52.42
843.79	53.1
844.095	53.48
844.4	53.83
844.705	53.42
845.01	53.53
845.315	52.34
845.619	51.61
845.924	51.16
846.229	51.09
846.533	51.13
846.838	49.76
847.142	50
847.447	49.54
847.751	50.7
848.056	50.07
848.36	50.25
848.664	50.83
848.969	49.44
849.273	47.56
849.577	46.32
849.881	46.45
850.185	46.46
850.489	45.66
850.794	45.42
851.097	44.46
851.401	43.78
851.705	43.26
852.009	43.57
852.313	44.78
852.617	44.14
852.92	45.71
853.224	47.51
853.528	46.48
853.831	45.67
854.135	45.32
854.438	47.33
854.742	47.42
855.045	46.76
855.349	48.91
855.652	49.19
855.955	51.61
856.259	51.54
856.562	52.37
856.865	51.43
857.168	52.68
857.471	52.51
857.774	54.62
858.077	53.54
858.38	53.07
858.683	52.49
858.986	53.19
859.289	52.27
859.592	50.26
859.894	50.38
860.197	50.29
860.5	49.3
860.802	47.93
861.105	47.82
861.407	47.03
861.71	46.56
862.012	48.2
862.315	45.13
862.617	43.23
862.919	41.49
863.222	43.62
863.524	40.7
863.826	40.66
864.128	39.31
864.43	43.2
864.732	43.22
865.034	43.78
865.336	44.29
865.638	43.2
865.94	44.46
866.242	44.73
866.544	45.51
866.846	48.76
867.147	50.41
867.449	52.27
867.751	52.6
868.052	53.93
868.354	52.75
868.655	54.99
868.957	55.57
869.258	56.88
869.56	55.23
869.861	55.69
870.162	55.32
870.463	55.33
870.765	54.53
871.066	52.76
871.367	51.74
871.668	50.88
871.969	49.55
872.27	48.86
872.571	48.33
872.872	48.7
873.173	48.06
873.473	46.34
873.774	43.94
874.075	45.47
874.376	41.27
874.676	40.56
874.977	40.19
875.277	39.91
875.578	40.17
875.878	40.14
876.179	40.19
876.479	40.06
876.78	39.57
877.08	38.06
877.38	40.11
877.68	39.97
877.981	38.27
878.281	40.94
878.581	40.46
