Data from BU57737_Reflection_00012.txt Node
Date: Mon Nov 18 16:30:04 EST 2019
User: vgr7
Spectrometer: USB2G7710
Scans to average: 3
Trigger mode: 4
Integration Time (sec): 2.000000E-2
Electric dark correction enabled: true
Boxcar width: 10
XAxis mode: Wavelengths
Number of Pixels in Spectrum: 2048
>>>>>Begin Spectral Data<<<<<
177.721	93.22
178.105	-534.92
178.488	-26.36
178.871	13.75
179.254	45.5
179.636	-209.52
180.019	127.91
180.402	123.08
180.785	-37.71
181.168	433.33
181.55	-29.13
181.933	30.46
182.316	44.23
182.698	58.26
183.081	48.15
183.463	55.27
183.846	36.88
184.228	108.09
184.611	190.76
184.993	141.77
185.376	133.98
185.758	121.73
186.14	80.82
186.522	74.82
186.904	66.63
187.287	69.7
187.669	71.27
188.051	93.54
188.433	113.52
188.815	114.42
189.197	114.72
189.579	99.33
189.961	324.96
190.342	285.19
190.724	365.09
191.106	-3798.55
191.488	103766.67
191.869	-336.08
192.251	-293.42
192.633	-145.76
193.014	-102.83
193.396	-119.71
193.777	-105.87
194.159	-130.62
194.54	-95.78
194.922	-77.04
195.303	-59.99
195.684	-47.78
196.065	-62.56
196.447	-71.92
196.828	-75.57
197.209	-57.05
197.59	-58.17
197.971	-70.01
198.352	-63.24
198.733	-70.24
199.114	-70.82
199.495	-62.66
199.876	-58.4
200.257	-59.84
200.638	-56.42
201.018	-72
201.399	-63.36
201.78	-70.01
202.16	-91.97
202.541	-207.9
202.922	-231.14
203.302	-285.55
203.683	-363.08
204.063	-655.01
204.444	-1527.45
204.824	-609.64
205.204	-852.14
205.585	-558.3
205.965	-246.8
206.345	-573.88
206.725	-865.59
207.106	-765.13
207.486	-684.57
207.866	-1540.26
208.246	12978.79
208.626	43322.22
209.006	-644.14
209.386	3292.59
209.766	906.15
210.145	1087.06
210.525	-154.4
210.905	-155.92
211.285	-111.33
211.664	-85.68
212.044	-51.4
212.424	-50.62
212.803	-59.99
213.183	-74.1
213.562	-81.35
213.942	-99.86
214.321	-59.75
214.701	-61.09
215.08	-58.41
215.459	-45.96
215.838	-32.11
216.218	-32.17
216.597	-24.48
216.976	-33.6
217.355	-13.21
217.734	-15.47
218.113	-17.48
218.492	-17.59
218.871	-29.14
219.25	-42.06
219.629	-50.79
220.008	-55.89
220.387	-52.24
220.766	-58.21
221.144	-58.72
221.523	-72.12
221.902	-87.03
222.28	-133.84
222.659	-114.9
223.037	-101.16
223.416	-117.16
223.794	-124.67
224.173	-101.06
224.551	-88.23
224.929	-78.59
225.308	-67.65
225.686	-56.25
226.064	-44.01
226.442	-37.47
226.821	-28.31
227.199	-20.63
227.577	-21.98
227.955	-19.86
228.333	-15.58
228.711	-12.32
229.089	-8.65
229.467	-7.98
229.845	-2.93
230.222	0.86
230.6	2.77
230.978	1.45
231.356	3.62
231.733	4.43
232.111	5.89
232.488	7.84
232.866	9.82
233.243	7.05
233.621	7.16
233.998	5.88
234.376	3.99
234.753	2.93
235.13	0.76
235.508	2.56
235.885	1.43
236.262	-0.56
236.639	-1.01
237.016	0.16
237.393	1.63
237.77	1.71
238.147	2.79
238.524	2.78
238.901	3.75
239.278	4.05
239.655	4.83
240.032	4.46
240.409	3.69
240.785	4.07
241.162	4.6
241.539	4.03
241.915	4.15
242.292	4.1
242.668	4.2
243.045	4.44
243.421	4.13
243.798	4.04
244.174	4.07
244.551	4.01
244.927	3.77
245.303	3.73
245.679	3.52
246.056	3.29
246.432	3.04
246.808	3.13
247.184	2.91
247.56	2.76
247.936	2.83
248.312	2.74
248.688	2.46
249.064	2.42
249.44	2.51
249.815	2.27
250.191	2.5
250.567	2.55
250.943	2.38
251.318	2.53
251.694	2.54
252.069	2.72
252.445	2.4
252.82	2.33
253.196	2.15
253.571	2.13
253.947	2.47
254.322	2.62
254.697	2.49
255.073	2.39
255.448	2.16
255.823	2.28
256.198	2.7
256.573	2.93
256.948	2.92
257.323	3.04
257.698	3.13
258.073	2.99
258.448	3.1
258.823	3.2
259.198	3.08
259.573	3.12
259.948	2.89
260.322	3.19
260.697	3.15
261.072	3.08
261.446	3.2
261.821	3.06
262.195	3.19
262.57	3.05
262.944	3.06
263.319	3.16
263.693	2.9
264.067	2.89
264.442	2.98
264.816	3.06
265.19	2.94
265.564	3.08
265.938	3.2
266.313	3.11
266.687	3.25
267.061	3.45
267.435	3.47
267.809	3.7
268.183	3.44
268.556	3.45
268.93	3.48
269.304	3.49
269.678	3.57
270.051	3.44
270.425	3.45
270.799	3.49
271.172	3.58
271.546	3.68
271.919	3.38
272.293	3.28
272.666	3.24
273.04	3.25
273.413	3.17
273.787	3.05
274.16	2.92
274.533	2.82
274.906	2.75
275.279	2.75
275.653	2.6
276.026	2.72
276.399	2.59
276.772	2.83
277.145	2.57
277.518	2.46
277.891	2.56
278.263	2.51
278.636	2.73
279.009	2.58
279.382	2.64
279.755	2.81
280.127	2.86
280.5	2.95
280.872	2.9
281.245	2.89
281.617	3.07
281.99	3.26
282.362	3.28
282.735	3.28
283.107	3.17
283.479	3.31
283.852	3.28
284.224	3.37
284.596	3.19
284.968	3.3
285.34	3.48
285.713	3.41
286.085	3.42
286.457	3.38
286.829	3.42
287.201	3.43
287.572	3.37
287.944	3.26
288.316	3.18
288.688	3.31
289.06	3.22
289.431	3.06
289.803	2.99
290.175	3
290.546	2.98
290.918	3.04
291.289	3.08
291.661	3.24
292.032	3.28
292.403	3.36
292.775	3.38
293.146	3.16
293.517	3.15
293.889	3.21
294.26	3.23
294.631	3.28
295.002	3.28
295.373	3.48
295.744	3.62
296.115	3.76
296.486	3.6
296.857	3.82
297.228	3.84
297.599	3.81
297.97	3.79
298.34	3.88
298.711	3.91
299.082	3.84
299.452	3.73
299.823	3.82
300.194	3.79
300.564	3.81
300.935	3.84
301.305	3.85
301.676	3.93
302.046	3.89
302.416	4
302.787	3.95
303.157	3.8
303.527	3.73
303.897	3.58
304.267	3.86
304.637	3.73
305.008	3.97
305.378	4.13
305.748	4.18
306.117	4.08
306.487	4.24
306.857	4.35
307.227	4.43
307.597	4.37
307.967	4.43
308.336	4.57
308.706	4.65
309.076	4.83
309.445	4.83
309.815	4.74
310.184	4.56
310.554	4.77
310.923	4.83
311.293	4.82
311.662	4.84
312.031	4.87
312.401	4.95
312.77	4.92
313.139	4.92
313.508	5.02
313.877	5.15
314.246	5.07
314.616	5.01
314.985	5.01
315.353	5.1
315.722	5.16
316.091	4.98
316.46	5.02
316.829	4.98
317.198	5.16
317.567	5.21
317.935	5.48
318.304	5.49
318.672	5.52
319.041	5.64
319.41	5.93
319.778	5.84
320.147	5.95
320.515	5.92
320.883	6.04
321.252	6.08
321.62	6.01
321.988	6.1
322.357	6.13
322.725	6.12
323.093	6.16
323.461	6.19
323.829	6.31
324.197	6.29
324.565	6.26
324.933	6.13
325.301	6.25
325.669	6.05
326.037	6.08
326.405	6.24
326.772	6.28
327.14	6.21
327.508	6.22
327.875	6.09
328.243	6.27
328.61	6.25
328.978	6.18
329.346	6.22
329.713	6.09
330.08	6.22
330.448	6.13
330.815	6.02
331.182	5.94
331.55	6.13
331.917	6.15
332.284	6.34
332.651	6.43
333.018	6.5
333.385	6.66
333.752	6.76
334.119	6.69
334.486	6.68
334.853	6.61
335.22	6.61
335.587	6.78
335.954	6.6
336.32	6.52
336.687	6.66
337.054	6.8
337.42	6.94
337.787	6.99
338.153	7.24
338.52	7.41
338.886	7.5
339.253	7.43
339.619	7.55
339.986	7.38
340.352	7.32
340.718	7.27
341.084	7.32
341.451	7.3
341.817	7.38
342.183	7.45
342.549	7.54
342.915	7.67
343.281	7.57
343.647	7.65
344.013	7.71
344.379	7.63
344.745	7.55
345.11	7.56
345.476	7.54
345.842	7.46
346.208	7.39
346.573	7.4
346.939	7.41
347.304	7.34
347.67	7.28
348.035	7.25
348.401	7.31
348.766	7.19
349.132	7.15
349.497	7.03
349.862	7.08
350.228	7.04
350.593	6.94
350.958	6.94
351.323	6.97
351.688	6.99
352.053	6.96
352.418	6.96
352.783	6.92
353.148	6.85
353.513	6.83
353.878	6.78
354.243	6.76
354.608	6.74
354.972	6.83
355.337	6.95
355.702	7.03
356.066	6.98
356.431	7.02
356.795	7.01
357.16	6.98
357.524	6.81
357.889	6.75
358.253	6.75
358.618	6.77
358.982	6.66
359.346	6.51
359.71	6.5
360.075	6.46
360.439	6.48
360.803	6.46
361.167	6.43
361.531	6.42
361.895	6.36
362.259	6.3
362.623	6.26
362.987	6.17
363.351	6.12
363.714	6.1
364.078	6.03
364.442	5.95
364.806	5.93
365.169	5.93
365.533	5.91
365.896	5.88
366.26	5.85
366.623	5.87
366.987	5.97
367.35	6
367.714	5.99
368.077	5.88
368.44	5.83
368.803	5.78
369.167	5.7
369.53	5.62
369.893	5.62
370.256	5.54
370.619	5.56
370.982	5.52
371.345	5.49
371.708	5.51
372.071	5.52
372.434	5.41
372.797	5.34
373.159	5.32
373.522	5.29
373.885	5.25
374.247	5.22
374.61	5.14
374.973	5.05
375.335	4.97
375.698	5
376.06	4.94
376.423	4.9
376.785	4.95
377.147	5
377.51	4.97
377.872	4.97
378.234	4.93
378.596	4.91
378.958	4.83
379.321	4.76
379.683	4.69
380.045	4.73
380.407	4.74
380.769	4.7
381.13	4.64
381.492	4.62
381.854	4.54
382.216	4.52
382.578	4.47
382.939	4.43
383.301	4.33
383.663	4.34
384.024	4.31
384.386	4.26
384.747	4.24
385.109	4.22
385.47	4.13
385.832	4.1
386.193	4.07
386.554	4.07
386.916	4.07
387.277	4.06
387.638	4.04
387.999	4
388.36	3.99
388.721	3.96
389.082	3.9
389.443	3.94
389.804	3.88
390.165	3.89
390.526	3.88
390.887	3.85
391.248	3.84
391.609	3.85
391.969	3.81
392.33	3.73
392.691	3.7
393.051	3.73
393.412	3.68
393.772	3.63
394.133	3.62
394.493	3.58
394.854	3.56
395.214	3.5
395.574	3.46
395.935	3.42
396.295	3.43
396.655	3.4
397.015	3.35
397.376	3.37
397.736	3.3
398.096	3.29
398.456	3.31
398.816	3.28
399.176	3.24
399.535	3.21
399.895	3.24
400.255	3.19
400.615	3.16
400.975	3.14
401.334	3.14
401.694	3.08
402.054	3.06
402.413	3.06
402.773	3.05
403.132	3.06
403.492	3.04
403.851	3
404.211	2.98
404.57	2.98
404.929	2.96
405.288	2.97
405.648	2.96
406.007	2.97
406.366	2.94
406.725	2.95
407.084	2.95
407.443	2.92
407.802	2.95
408.161	2.91
408.52	2.91
408.879	2.9
409.238	2.92
409.596	2.93
409.955	2.89
410.314	2.93
410.673	2.93
411.031	2.94
411.39	2.93
411.748	2.91
412.107	2.91
412.465	2.94
412.824	2.92
413.182	2.9
413.54	2.87
413.899	2.87
414.257	2.85
414.615	2.84
414.974	2.85
415.332	2.82
415.69	2.82
416.048	2.81
416.406	2.82
416.764	2.81
417.122	2.79
417.48	2.79
417.838	2.78
418.195	2.76
418.553	2.74
418.911	2.74
419.269	2.74
419.626	2.72
419.984	2.69
420.342	2.69
420.699	2.68
421.057	2.68
421.414	2.67
421.772	2.67
422.129	2.67
422.486	2.66
422.844	2.67
423.201	2.66
423.558	2.66
423.915	2.65
424.273	2.65
424.63	2.64
424.987	2.63
425.344	2.64
425.701	2.62
426.058	2.63
426.415	2.63
426.772	2.63
427.128	2.63
427.485	2.64
427.842	2.65
428.199	2.66
428.555	2.63
428.912	2.63
429.269	2.63
429.625	2.62
429.982	2.62
430.338	2.6
430.695	2.59
431.051	2.57
431.407	2.56
431.764	2.54
432.12	2.53
432.476	2.55
432.832	2.52
433.189	2.54
433.545	2.54
433.901	2.51
434.257	2.52
434.613	2.55
434.969	2.54
435.325	2.54
435.681	2.53
436.036	2.53
436.392	2.54
436.748	2.53
437.104	2.54
437.459	2.55
437.815	2.55
438.171	2.54
438.526	2.55
438.882	2.55
439.237	2.56
439.593	2.59
439.948	2.58
440.304	2.58
440.659	2.57
441.014	2.58
441.369	2.58
441.725	2.57
442.08	2.54
442.435	2.54
442.79	2.53
443.145	2.54
443.5	2.54
443.855	2.53
444.21	2.53
444.565	2.52
444.92	2.52
445.275	2.52
445.629	2.53
445.984	2.53
446.339	2.52
446.693	2.51
447.048	2.49
447.403	2.48
447.757	2.49
448.112	2.5
448.466	2.49
448.82	2.49
449.175	2.49
449.529	2.48
449.883	2.47
450.238	2.47
450.592	2.46
450.946	2.45
451.3	2.46
451.654	2.44
452.008	2.44
452.362	2.43
452.716	2.44
453.07	2.43
453.424	2.42
453.778	2.44
454.132	2.44
454.486	2.42
454.839	2.41
455.193	2.4
455.547	2.38
455.9	2.37
456.254	2.38
456.607	2.38
456.961	2.38
457.314	2.4
457.668	2.4
458.021	2.41
458.375	2.41
458.728	2.4
459.081	2.4
459.434	2.39
459.787	2.4
460.141	2.41
460.494	2.42
460.847	2.43
461.2	2.41
461.553	2.43
461.906	2.44
462.259	2.45
462.611	2.48
462.964	2.49
463.317	2.5
463.67	2.49
464.022	2.49
464.375	2.51
464.728	2.51
465.08	2.49
465.433	2.49
465.785	2.49
466.138	2.49
466.49	2.52
466.843	2.53
467.195	2.54
467.547	2.53
467.899	2.51
468.252	2.5
468.604	2.52
468.956	2.49
469.308	2.51
469.66	2.5
470.012	2.48
470.364	2.47
470.716	2.47
471.068	2.47
471.42	2.48
471.772	2.49
472.123	2.49
472.475	2.52
472.827	2.52
473.178	2.52
473.53	2.54
473.882	2.54
474.233	2.53
474.585	2.5
474.936	2.5
475.288	2.51
475.639	2.53
475.99	2.53
476.342	2.53
476.693	2.52
477.044	2.55
477.395	2.55
477.746	2.56
478.097	2.55
478.448	2.54
478.8	2.54
479.15	2.52
479.501	2.54
479.852	2.54
480.203	2.54
480.554	2.53
480.905	2.52
481.255	2.52
481.606	2.52
481.957	2.52
482.307	2.52
482.658	2.51
483.009	2.5
483.359	2.51
483.709	2.52
484.06	2.52
484.41	2.51
484.761	2.51
485.111	2.51
485.461	2.52
485.811	2.53
486.162	2.53
486.512	2.54
486.862	2.52
487.212	2.52
487.562	2.52
487.912	2.52
488.262	2.52
488.612	2.53
488.961	2.53
489.311	2.53
489.661	2.54
490.011	2.54
490.36	2.54
490.71	2.54
491.06	2.53
491.409	2.53
491.759	2.54
492.108	2.52
492.458	2.53
492.807	2.51
493.157	2.51
493.506	2.52
493.855	2.52
494.204	2.54
494.554	2.54
494.903	2.52
495.252	2.51
495.601	2.52
495.95	2.53
496.299	2.54
496.648	2.56
496.997	2.55
497.346	2.58
497.695	2.58
498.043	2.59
498.392	2.59
498.741	2.61
499.09	2.61
499.438	2.66
499.787	2.66
500.135	2.7
500.484	2.71
500.832	2.7
501.181	2.7
501.529	2.69
501.878	2.71
502.226	2.76
502.574	2.8
502.923	2.81
503.271	2.82
503.619	2.81
503.967	2.84
504.315	2.87
504.663	2.88
505.011	2.9
505.359	2.93
505.707	2.97
506.055	2.99
506.403	3.02
506.751	3.03
507.098	3.06
507.446	3.08
507.794	3.08
508.141	3.12
508.489	3.16
508.837	3.2
509.184	3.23
509.531	3.27
509.879	3.29
510.226	3.33
510.574	3.37
510.921	3.42
511.268	3.45
511.616	3.49
511.963	3.53
512.31	3.59
512.657	3.63
513.004	3.68
513.351	3.71
513.698	3.77
514.045	3.82
514.392	3.87
514.739	3.93
515.086	4.01
515.432	4.08
515.779	4.12
516.126	4.17
516.473	4.22
516.819	4.27
517.166	4.31
517.512	4.36
517.859	4.43
518.205	4.48
518.552	4.53
518.898	4.58
519.245	4.61
519.591	4.65
519.937	4.68
520.283	4.73
520.629	4.81
520.976	4.87
521.322	4.94
521.668	5.01
522.014	5.07
522.36	5.13
522.706	5.2
523.052	5.3
523.398	5.42
523.743	5.53
524.089	5.63
524.435	5.73
524.781	5.79
525.126	5.87
525.472	5.97
525.817	6.06
526.163	6.15
526.509	6.24
526.854	6.32
527.199	6.43
527.545	6.5
527.89	6.58
528.235	6.65
528.581	6.73
528.926	6.82
529.271	6.91
529.616	6.99
529.961	7.08
530.306	7.18
530.651	7.27
530.996	7.36
531.341	7.47
531.686	7.59
532.031	7.73
532.376	7.86
532.721	7.99
533.065	8.12
533.41	8.25
533.755	8.39
534.099	8.53
534.444	8.67
534.788	8.83
535.133	8.96
535.477	9.11
535.822	9.28
536.166	9.47
536.51	9.65
536.855	9.89
537.199	10.1
537.543	10.33
537.887	10.51
538.231	10.74
538.576	10.98
538.92	11.21
539.264	11.44
539.608	11.67
539.951	11.85
540.295	12.04
540.639	12.26
540.983	12.43
541.327	12.63
541.671	12.82
542.014	13.02
542.358	13.22
542.701	13.42
543.045	13.62
543.389	13.8
543.732	13.99
544.075	14.19
544.419	14.38
544.762	14.6
545.105	14.9
545.449	15.15
545.792	15.42
546.135	15.68
546.478	15.94
546.821	16.25
547.165	16.55
547.508	16.88
547.851	17.19
548.194	17.5
548.536	17.8
548.879	18.12
549.222	18.42
549.565	18.73
549.908	19.07
550.25	19.39
550.593	19.76
550.936	20.16
551.278	20.5
551.621	20.86
551.963	21.22
552.306	21.52
552.648	21.85
552.991	22.21
553.333	22.48
553.675	22.83
554.017	23.12
554.36	23.42
554.702	23.72
555.044	24.03
555.386	24.37
555.728	24.74
556.07	25.06
556.412	25.39
556.754	25.75
557.096	26.1
557.438	26.44
557.78	26.76
558.121	27.08
558.463	27.41
558.805	27.76
559.147	28.11
559.488	28.4
559.83	28.77
560.171	29.08
560.513	29.48
560.854	29.77
561.196	30.08
561.537	30.42
561.878	30.73
562.22	31.07
562.561	31.42
562.902	31.68
563.243	31.98
563.584	32.3
563.925	32.59
564.266	32.83
564.607	33.12
564.948	33.4
565.289	33.65
565.63	33.93
565.971	34.17
566.312	34.41
566.653	34.73
566.993	34.95
567.334	35.19
567.675	35.43
568.015	35.68
568.356	35.94
568.696	36.24
569.037	36.53
569.377	36.77
569.718	37
570.058	37.25
570.398	37.48
570.739	37.73
571.079	38.01
571.419	38.23
571.759	38.49
572.099	38.72
572.439	38.9
572.779	39.12
573.119	39.36
573.459	39.59
573.799	39.76
574.139	39.99
574.479	40.25
574.819	40.46
575.158	40.65
575.498	40.85
575.838	41.06
576.177	41.24
576.517	41.47
576.856	41.7
577.196	41.89
577.535	42.13
577.875	42.33
578.214	42.48
578.553	42.72
578.893	42.9
579.232	43.1
579.571	43.41
579.91	43.6
580.25	43.84
580.589	44.02
580.928	44.17
581.267	44.34
581.606	44.45
581.945	44.56
582.283	44.78
582.622	44.95
582.961	45.13
583.3	45.25
583.639	45.38
583.977	45.48
584.316	45.71
584.654	45.9
584.993	46.05
585.332	46.15
585.67	46.35
586.008	46.54
586.347	46.7
586.685	46.78
587.024	46.95
587.362	47.01
587.7	47.2
588.038	47.42
588.376	47.59
588.715	47.71
589.053	47.84
589.391	47.94
589.729	48.12
590.067	48.22
590.404	48.38
590.742	48.53
591.08	48.66
591.418	48.8
591.756	48.88
592.093	49.03
592.431	49.25
592.769	49.3
593.106	49.37
593.444	49.48
593.781	49.63
594.119	49.77
594.456	49.87
594.793	49.97
595.131	50.02
595.468	50.08
595.805	50.2
596.143	50.34
596.48	50.45
596.817	50.48
597.154	50.49
597.491	50.62
597.828	50.71
598.165	50.82
598.502	50.89
598.839	50.97
599.176	51.08
599.512	51.14
599.849	51.22
600.186	51.28
600.523	51.4
600.859	51.49
601.196	51.57
601.532	51.74
601.869	51.88
602.205	52.02
602.542	52.16
602.878	52.26
603.215	52.32
603.551	52.37
603.887	52.5
604.223	52.64
604.56	52.63
604.896	52.71
605.232	52.81
605.568	52.84
605.904	52.96
606.24	53.01
606.576	53.06
606.912	53.2
607.248	53.26
607.583	53.37
607.919	53.5
608.255	53.58
608.591	53.63
608.926	53.61
609.262	53.64
609.597	53.68
609.933	53.77
610.268	53.82
610.604	53.88
610.939	53.9
611.275	53.95
611.61	54.01
611.945	54.07
612.281	54.08
612.616	54.18
612.951	54.16
613.286	54.25
613.621	54.41
613.956	54.45
614.291	54.63
614.626	54.66
614.961	54.58
615.296	54.53
615.631	54.6
615.966	54.69
616.3	54.82
616.635	54.9
616.97	54.83
617.304	54.95
617.639	55.06
617.973	55.04
618.308	54.94
618.642	55.08
618.977	55.11
619.311	55.23
619.646	55.34
619.98	55.48
620.314	55.51
620.648	55.49
620.983	55.55
621.317	55.62
621.651	55.61
621.985	55.79
622.319	55.83
622.653	55.95
622.987	55.98
623.321	55.91
623.655	55.84
623.988	55.95
624.322	55.95
624.656	55.97
624.99	56.12
625.323	56.28
625.657	56.26
625.99	56.38
626.324	56.35
626.657	56.39
626.991	56.38
627.324	56.32
627.658	56.39
627.991	56.36
628.324	56.33
628.657	56.32
628.991	56.24
629.324	56.34
629.657	56.36
629.99	56.4
630.323	56.47
630.656	56.64
630.989	56.71
631.322	56.75
631.655	56.73
631.987	56.82
632.32	56.87
632.653	56.79
632.986	56.71
633.318	56.82
633.651	56.77
633.984	56.77
634.316	56.92
634.649	56.9
634.981	57.01
635.313	57.08
635.646	57.15
635.978	57.25
636.31	57.29
636.643	57.27
636.975	57.25
637.307	57.29
637.639	57.33
637.971	57.29
638.303	57.32
638.635	57.51
638.967	57.39
639.299	57.35
639.631	57.47
639.963	57.45
640.295	57.37
640.626	57.47
640.958	57.6
641.29	57.49
641.621	57.55
641.953	57.56
642.285	57.62
642.616	57.73
642.948	57.75
643.279	57.74
643.61	57.84
643.942	57.95
644.273	58
644.604	57.91
644.936	57.91
645.267	57.92
645.598	57.82
645.929	57.88
646.26	57.89
646.591	58.02
646.922	58.15
647.253	58.19
647.584	58.05
647.915	57.99
648.245	58.18
648.576	58.22
648.907	58.16
649.238	58.09
649.568	58
649.899	58.02
650.229	58.11
650.56	58.1
650.89	58.11
651.221	58.15
651.551	58.17
651.882	58.28
652.212	58.42
652.542	58.39
652.872	58.35
653.203	58.43
653.533	58.41
653.863	58.42
654.193	58.34
654.523	58.38
654.853	58.42
655.183	58.29
655.513	58.32
655.843	58.35
656.172	58.33
656.502	58.37
656.832	58.41
657.162	58.32
657.491	58.21
657.821	58.16
658.15	58.15
658.48	58.19
658.809	58.19
659.139	58.12
659.468	58.22
659.798	58.29
660.127	58.29
660.456	58.35
660.785	58.37
661.115	58.54
661.444	58.64
661.773	58.6
662.102	58.74
662.431	58.73
662.76	58.77
663.089	58.9
663.418	58.92
663.747	58.88
664.076	58.99
664.404	59.2
664.733	59.29
665.062	59.3
665.39	59.27
665.719	59.35
666.048	59.36
666.376	59.36
666.705	59.39
667.033	59.46
667.362	59.44
667.69	59.48
668.018	59.34
668.347	59.44
668.675	59.57
669.003	59.38
669.331	59.33
669.659	59.31
669.987	59.18
670.315	59.18
670.643	59.23
670.971	59.07
671.299	59
671.627	59.11
671.955	59.07
672.283	59.09
672.61	58.95
672.938	58.89
673.266	58.81
673.593	58.86
673.921	58.74
674.249	58.68
674.576	58.54
674.904	58.6
675.231	58.45
675.558	58.36
675.886	58.62
676.213	58.62
676.54	58.68
676.867	58.78
677.195	58.81
677.522	58.79
677.849	58.91
678.176	58.87
678.503	58.63
678.83	58.69
679.157	58.61
679.484	58.65
679.81	58.78
680.137	58.75
680.464	58.7
680.791	58.73
681.117	58.86
681.444	58.94
681.771	58.94
682.097	58.97
682.424	58.99
682.75	58.85
683.077	58.83
683.403	58.86
683.729	58.89
684.056	58.8
684.382	58.83
684.708	58.74
685.034	58.82
685.36	58.97
685.686	58.97
686.012	59.07
686.339	59.04
686.664	59.14
686.99	59.2
687.316	59.22
687.642	59.22
687.968	59.11
688.294	59.17
688.619	59.29
688.945	59.33
689.271	59.32
689.596	59.4
689.922	59.48
690.247	59.3
690.573	59.3
690.898	59.53
691.224	59.63
691.549	59.63
691.874	59.61
692.2	59.58
692.525	59.46
692.85	59.46
693.175	59.46
693.5	59.38
693.825	59.42
694.15	59.45
694.475	59.52
694.8	59.51
695.125	59.53
695.45	59.31
695.775	59.11
696.099	59.23
696.424	59.26
696.749	59.26
697.073	59.38
697.398	59.33
697.723	59.16
698.047	59.14
698.372	59.17
698.696	59.12
699.02	59.15
699.345	59.27
699.669	59.41
699.993	59.52
700.318	59.39
700.642	59.45
700.966	59.35
701.29	59.37
701.614	59.44
701.938	59.38
702.262	59.63
702.586	59.89
702.91	59.67
703.234	59.57
703.557	59.49
703.881	59.55
704.205	59.52
704.529	59.55
704.852	59.38
705.176	59.45
705.499	59.34
705.823	59.38
706.146	59.3
706.47	59.04
706.793	58.95
707.117	59.05
707.44	58.91
707.763	59.05
708.086	58.77
708.409	58.64
708.733	58.47
709.056	58.36
709.379	58.27
709.702	58.27
710.025	58.25
710.348	58.27
710.671	58.09
710.993	57.87
711.316	57.9
711.639	58.08
711.962	58.08
712.284	58.18
712.607	58.1
712.93	58.14
713.252	58.2
713.575	58.16
713.897	58.13
714.22	58.31
714.542	58.26
714.864	58.31
715.187	58.38
715.509	58.35
715.831	58.44
716.153	58.47
716.475	58.68
716.798	58.78
717.12	58.73
717.442	58.91
717.764	59.28
718.085	59.35
718.407	59.22
718.729	59.11
719.051	59.13
719.373	59.05
719.695	59.02
720.016	59.13
720.338	59.46
720.659	59.52
720.981	59.36
721.302	59.48
721.624	59.91
721.945	59.96
722.267	60.17
722.588	59.79
722.909	59.81
723.231	59.74
723.552	59.76
723.873	59.86
724.194	59.78
724.515	59.87
724.836	59.84
725.157	59.83
725.478	59.94
725.799	59.91
726.12	59.92
726.441	59.76
726.762	59.58
727.083	59.42
727.403	59.38
727.724	59.13
728.045	59.23
728.365	58.94
728.686	58.99
729.006	58.89
729.327	59.24
729.647	59.2
729.967	59.2
730.288	59.31
730.608	59.3
730.928	59.25
731.249	59.01
731.569	59.11
731.889	59.23
732.209	59.26
732.529	59.19
732.849	59.13
733.169	59.33
733.489	59.41
733.809	59.16
734.129	59.31
734.448	59.32
734.768	59.05
735.088	59.04
735.408	59.14
735.727	59.18
736.047	59.17
736.366	59.29
736.686	59.26
737.005	58.94
737.325	58.89
737.644	58.93
737.963	59.04
738.283	58.9
738.602	58.95
738.921	58.81
739.24	58.87
739.56	59.03
739.879	58.98
740.198	59.06
740.517	59.33
740.836	59.07
741.155	59.26
741.473	59.2
741.792	59.34
742.111	59.27
742.43	59.33
742.748	59.13
743.067	58.83
743.386	58.96
743.704	59.21
744.023	59.62
744.341	59.86
744.66	59.69
744.978	59.9
745.297	59.93
745.615	59.95
745.933	59.95
746.252	60.1
746.57	59.92
746.888	59.65
747.206	59.75
747.524	59.93
747.842	60.05
748.16	60.44
748.478	60.36
748.796	60.11
749.114	60.27
749.432	60.66
749.749	60.93
750.067	60.89
750.385	60.58
750.703	59.96
751.02	59.55
751.338	59.96
751.655	59.75
751.973	59.57
752.29	59.77
752.608	59.69
752.925	59.7
753.242	59.99
753.56	60.27
753.877	59.89
754.194	59.96
754.511	60.23
754.828	60.06
755.145	59.93
755.462	59.97
755.779	60.01
756.096	59.81
756.413	60
756.73	60.02
757.047	60.18
757.364	60.55
757.68	60.83
757.997	60.6
758.314	60.96
758.63	61.14
758.947	61.02
759.264	61.04
759.58	60.93
759.896	61.07
760.213	61.04
760.529	61.39
760.846	61.29
761.162	61.03
761.478	61.03
761.794	61.2
762.11	60.92
762.426	60.81
762.743	60.68
763.059	60.49
763.375	60.2
763.69	59.96
764.006	59.98
764.322	59.98
764.638	60.19
764.954	60.11
765.27	60.06
765.585	60.02
765.901	60.16
766.216	60.21
766.532	59.99
766.848	60.08
767.163	60.15
767.478	60.06
767.794	60.18
768.109	60.38
768.424	60.32
768.74	60.57
769.055	60.55
769.37	60.51
769.685	60.37
770	60.75
770.315	61.06
770.63	61.21
770.945	61.12
771.26	60.73
771.575	60.19
771.89	59.94
772.205	60.12
772.52	60.11
772.834	60.12
773.149	60.7
773.464	60.6
773.778	60.55
774.093	59.88
774.407	59.72
774.722	59.46
775.036	59.86
775.351	59.82
775.665	59.86
775.979	60.17
776.293	60.37
776.608	60.16
776.922	60.49
777.236	60.13
777.55	60.17
777.864	60.11
778.178	60.33
778.492	60.86
778.806	60.67
779.12	60.69
779.434	60.61
779.747	60.33
780.061	60.21
780.375	59.85
780.689	60.84
781.002	61.08
781.316	61.01
781.629	60.47
781.943	60.76
782.256	60.78
782.57	60.15
782.883	60.11
783.196	60.3
783.51	60.33
783.823	60.29
784.136	60.87
784.449	60.51
784.762	61.08
785.075	60.4
785.388	60.23
785.701	60.22
786.014	59.74
786.327	59.44
786.64	59.45
786.953	59.8
787.266	60.24
787.578	59.74
787.891	59.91
788.204	60.31
788.516	60.18
788.829	59.89
789.141	60.68
789.454	60.95
789.766	61.08
790.079	60.95
790.391	61.09
790.703	60.36
791.016	61.11
791.328	60.83
791.64	60.96
791.952	61.25
792.264	61.17
792.576	61.51
792.888	61.69
793.2	61.83
793.512	61.34
793.824	60.52
794.136	60.87
794.448	60.69
794.76	60.05
795.071	60.24
795.383	60.08
795.695	59.53
796.006	59.16
796.318	59.3
796.629	59.22
796.941	59.24
797.252	60.09
797.564	59.57
797.875	59.54
798.186	59.81
798.497	59.71
798.809	59.56
799.12	60.27
799.431	60.16
799.742	60.12
800.053	60.41
800.364	60.72
800.675	60.53
800.986	60.69
801.297	60.7
801.608	60.67
801.918	60.8
802.229	61.09
802.54	61.04
802.851	60.58
803.161	60.53
803.472	60.44
803.782	59.45
804.093	60.26
804.403	60.78
804.714	61.1
805.024	61.62
805.334	61.74
805.645	61.2
805.955	61.47
806.265	61.63
806.575	61.24
806.885	61.38
807.195	61.49
807.505	61.49
807.815	61.44
808.125	60.81
808.435	61.05
808.745	60.79
809.055	60.93
809.365	61
809.674	61.31
809.984	61.37
810.294	61.33
810.603	60.72
810.913	59.71
811.222	58.55
811.532	58.04
811.841	58.02
812.151	57.45
812.46	56.85
812.769	56.82
813.079	57.31
813.388	57.31
813.697	57.53
814.006	57.71
814.315	58.29
814.624	58.83
814.933	58.93
815.242	59.75
815.551	60
815.86	60.94
816.169	60.93
816.478	60.76
816.786	61.46
817.095	61.57
817.404	61.72
817.712	62.24
818.021	62.09
818.33	61.58
818.638	62.18
818.947	61.89
819.255	61.32
819.563	60.69
819.872	60.47
820.18	60.45
820.488	60.59
820.796	60.58
821.105	60.09
821.413	60.05
821.721	59.85
822.029	59.79
822.337	59.62
822.645	59.5
822.953	59.46
823.26	59.32
823.568	59.4
823.876	59.41
824.184	59.43
824.491	59.5
824.799	59.67
825.107	59.78
825.414	59.96
825.722	60.19
826.029	60.35
826.337	60.43
826.644	60.24
826.951	60.02
827.259	59.9
827.566	60.32
827.873	60.42
828.18	60.56
828.488	60.52
828.795	60.58
829.102	60.79
829.409	60.92
829.716	61.38
830.023	61.16
830.329	61.02
830.636	61.3
830.943	61.34
831.25	61.2
831.557	61.12
831.863	61.19
832.17	61.03
832.476	61.1
832.783	61.06
833.089	61.13
833.396	61.17
833.702	61.31
834.009	60.83
834.315	60.98
834.621	60.63
834.928	60.68
835.234	60.94
835.54	60.72
835.846	60.89
836.152	60.66
836.458	60.94
836.764	61.57
837.07	61.28
837.376	61.44
837.682	61.87
837.988	61.36
838.293	61.03
838.599	60.96
838.905	60.81
839.211	61.33
839.516	61.85
839.822	61.82
840.127	62.08
840.433	62.67
840.738	62.76
841.044	62.65
841.349	62.54
841.654	62.33
841.959	62.14
842.265	62.12
842.57	61.9
842.875	61.06
843.18	59.51
843.485	59.37
843.79	58.87
844.095	58.6
844.4	59.18
844.705	57.5
845.01	56.46
845.315	55.83
845.619	54.43
845.924	52.91
846.229	54.07
846.533	53.67
846.838	53.14
847.142	52.06
847.447	53.18
847.751	54.09
848.056	52.72
848.36	54.01
848.664	52.45
848.969	52.5
849.273	53.99
849.577	53.37
849.881	54.04
850.185	54.36
850.489	53.53
850.794	53.28
851.097	55.6
851.401	57.9
851.705	58.7
852.009	58.35
852.313	60.07
852.617	58.25
852.92	58.21
853.224	58.91
853.528	59.34
853.831	57.48
854.135	56.7
854.438	56.44
854.742	56.56
855.045	59.36
855.349	59.14
855.652	59.27
855.955	61.55
856.259	63.13
856.562	62.68
856.865	63.4
857.168	63.2
857.471	64.62
857.774	62.45
858.077	61.79
858.38	63.15
858.683	62.36
858.986	66.61
859.289	67.85
859.592	67.55
859.894	66.52
860.197	67.55
860.5	68.26
860.802	67.92
861.105	66.29
861.407	64.41
861.71	67.09
862.012	63.84
862.315	62.43
862.617	62.63
862.919	65.41
863.222	64.42
863.524	66.86
863.826	67.85
864.128	70.43
864.43	70.18
864.732	69.98
865.034	70.5
865.336	66.79
865.638	64.27
865.94	63.84
866.242	65.09
866.544	67.25
866.846	65.04
867.147	67.91
867.449	67.98
867.751	68.89
868.052	66.88
868.354	71.15
868.655	71.99
868.957	69.15
869.258	65.08
869.56	67.03
869.861	66.12
870.162	63.01
870.463	60.35
870.765	62.61
871.066	59.99
871.367	60.15
871.668	60.66
871.969	60.36
872.27	60.32
872.571	60.74
872.872	59.54
873.173	58.63
873.473	55.58
873.774	56.09
874.075	54.42
874.376	53.28
874.676	52.32
874.977	51.75
875.277	54.51
875.578	57.24
875.878	55.56
876.179	53.5
876.479	54.03
876.78	54.1
877.08	52.82
877.38	55.18
877.68	54.96
877.981	54.73
878.281	58.11
878.581	59.19
