Data from BU57653_Reflection_00001.txt Node
Date: Mon Nov 18 16:51:56 EST 2019
User: vgr7
Spectrometer: USB2G7710
Scans to average: 3
Trigger mode: 4
Integration Time (sec): 2.000000E-2
Electric dark correction enabled: true
Boxcar width: 10
XAxis mode: Wavelengths
Number of Pixels in Spectrum: 2048
>>>>>Begin Spectral Data<<<<<
177.721	80.93
178.105	41.18
178.488	46.52
178.871	20.86
179.254	-36.78
179.636	-19.12
180.019	53.07
180.402	-6.67
180.785	26.84
181.168	63.92
181.55	46.7
181.933	121.69
182.316	117.63
182.698	91.11
183.081	109.12
183.463	312.93
183.846	168.01
184.228	120.32
184.611	140.94
184.993	166.89
185.376	-671.65
185.758	1155.9
186.14	2032.77
186.522	-422.92
186.904	-187.6
187.287	-301.61
187.669	-160.04
188.051	-211.76
188.433	-232.84
188.815	-127.98
189.197	-127.19
189.579	-119.03
189.961	-78.26
190.342	-68.71
190.724	-65.27
191.106	-85.8
191.488	-121.82
191.869	-93.57
192.251	-78.19
192.633	-69.41
193.014	-70.92
193.396	-90.06
193.777	-60.53
194.159	-46.53
194.54	-42.63
194.922	-46.28
195.303	-43.22
195.684	-79.8
196.065	-60.97
196.447	-74.42
196.828	-71.97
197.209	-60.87
197.59	-35.28
197.971	-51.91
198.352	-38.62
198.733	-57.78
199.114	-42.09
199.495	-23.12
199.876	-14.25
200.257	-15.1
200.638	-12.93
201.018	-20.5
201.399	-23.13
201.78	-9.42
202.16	-21.01
202.541	-41.27
202.922	-97.4
203.302	-122.4
203.683	-115.83
204.063	-120.5
204.444	-118.16
204.824	-112.18
205.204	-108.35
205.585	-177.32
205.965	-154.18
206.345	-208.83
206.725	-266.49
207.106	-1686.98
207.486	-7413.51
207.866	476.24
208.246	1293.92
208.626	-1153.11
209.006	-238.46
209.386	-198.01
209.766	-226.07
210.145	-129.41
210.525	-69.73
210.905	-34.86
211.285	-19.09
211.664	-20.28
212.044	-15.81
212.424	-26.74
212.803	-37.55
213.183	-15.13
213.562	-17.59
213.942	0.45
214.321	13.68
214.701	-2.51
215.08	5.53
215.459	-5.93
215.838	4.97
216.218	1.55
216.597	-15.04
216.976	-13.76
217.355	-34.5
217.734	-41.38
218.113	-47.54
218.492	-46.46
218.871	-58.11
219.25	-40.85
219.629	-34.09
220.008	-31.28
220.387	-17.68
220.766	-14.55
221.144	-36.05
221.523	-42.45
221.902	-46.1
222.28	-47.11
222.659	-31.54
223.037	-35.41
223.416	-40.14
223.794	-46.19
224.173	-42.32
224.551	-29.02
224.929	-28.33
225.308	-10.88
225.686	-11.92
226.064	-7.93
226.442	-11.2
226.821	-3.64
227.199	-4.06
227.577	-4.11
227.955	-2.3
228.333	-4.8
228.711	-4.85
229.089	-1.55
229.467	-2.48
229.845	-2.52
230.222	-1.56
230.6	-2.54
230.978	-1.21
231.356	1.88
231.733	3.54
232.111	3.26
232.488	3.66
232.866	2.25
233.243	2.66
233.621	4.15
233.998	5.32
234.376	4.21
234.753	2.81
235.13	2.83
235.508	3.94
235.885	2.87
236.262	4.29
236.639	5.29
237.016	4.28
237.393	6.57
237.77	6.74
238.147	5.81
238.524	5.57
238.901	5.91
239.278	5.77
239.655	6.3
240.032	6.29
240.409	5.18
240.785	6.02
241.162	5.46
241.539	5.13
241.915	4.73
242.292	4.36
242.668	4.05
243.045	4.28
243.421	4.22
243.798	4.27
244.174	3.95
244.551	3.75
244.927	3.72
245.303	3.55
245.679	3.58
246.056	3.66
246.432	3.6
246.808	3.23
247.184	2.83
247.56	2.47
247.936	2.41
248.312	2.59
248.688	2.43
249.064	2.35
249.44	2.39
249.815	2.4
250.191	2.5
250.567	2.84
250.943	2.72
251.318	2.59
251.694	2.26
252.069	2.26
252.445	2.31
252.82	1.98
253.196	1.7
253.571	1.44
253.947	1.22
254.322	1.34
254.697	1.51
255.073	1.82
255.448	2.02
255.823	2.03
256.198	2.2
256.573	2.27
256.948	2.53
257.323	2.62
257.698	2.72
258.073	2.74
258.448	2.51
258.823	2.44
259.198	2.49
259.573	2.6
259.948	2.64
260.322	2.77
260.697	2.8
261.072	2.94
261.446	2.97
261.821	3.02
262.195	3.2
262.57	2.98
262.944	2.92
263.319	2.96
263.693	3
264.067	2.94
264.442	2.99
264.816	2.88
265.19	2.8
265.564	2.75
265.938	2.64
266.313	2.75
266.687	2.76
267.061	2.77
267.435	2.93
267.809	2.83
268.183	2.46
268.556	2.52
268.93	2.49
269.304	2.5
269.678	2.47
270.051	2.38
270.425	2.45
270.799	2.56
271.172	2.51
271.546	2.46
271.919	2.37
272.293	2.3
272.666	2.31
273.04	2.19
273.413	2.1
273.787	2.26
274.16	2.13
274.533	2.13
274.906	2.17
275.279	2.13
275.653	2.18
276.026	2.22
276.399	2.31
276.772	2.34
277.145	2.26
277.518	2.48
277.891	2.43
278.263	2.41
278.636	2.41
279.009	2.41
279.382	2.51
279.755	2.54
280.127	2.64
280.5	2.84
280.872	3.06
281.245	3.21
281.617	3.19
281.99	3.19
282.362	3.29
282.735	3.24
283.107	3.25
283.479	3.23
283.852	3.35
284.224	3.32
284.596	3.24
284.968	3.4
285.34	3.25
285.713	3.24
286.085	3.53
286.457	3.52
286.829	3.59
287.201	3.55
287.572	3.55
287.944	3.51
288.316	3.42
288.688	3.32
289.06	3.27
289.431	3.34
289.803	3.35
290.175	3.36
290.546	3.3
290.918	3.24
291.289	3.46
291.661	3.49
292.032	3.53
292.403	3.5
292.775	3.57
293.146	3.57
293.517	3.57
293.889	3.5
294.26	3.61
294.631	3.55
295.002	3.62
295.373	3.66
295.744	3.61
296.115	3.66
296.486	3.55
296.857	3.56
297.228	3.64
297.599	3.67
297.97	3.75
298.34	3.84
298.711	3.88
299.082	3.84
299.452	3.82
299.823	3.88
300.194	3.94
300.564	3.8
300.935	3.88
301.305	3.86
301.676	3.97
302.046	3.89
302.416	4.02
302.787	4
303.157	4
303.527	4
303.897	3.93
304.267	4.18
304.637	4.12
305.008	4.14
305.378	4.19
305.748	4.09
306.117	4.1
306.487	4.04
306.857	3.96
307.227	4.01
307.597	4.05
307.967	4.09
308.336	4.1
308.706	4.1
309.076	4.18
309.445	4.01
309.815	4.02
310.184	3.88
310.554	3.97
310.923	3.94
311.293	3.97
311.662	3.95
312.031	3.83
312.401	3.89
312.77	3.8
313.139	3.82
313.508	3.8
313.877	3.73
314.246	3.81
314.616	3.76
314.985	3.61
315.353	3.39
315.722	3.38
316.091	3.29
316.46	3.23
316.829	3.11
317.198	3.19
317.567	3.21
317.935	3.25
318.304	3.05
318.672	3.04
319.041	3.01
319.41	2.98
319.778	3.02
320.147	2.97
320.515	2.95
320.883	2.82
321.252	2.9
321.62	2.95
321.988	2.98
322.357	3.06
322.725	3.16
323.093	3.28
323.461	3.34
323.829	3.37
324.197	3.4
324.565	3.35
324.933	3.26
325.301	3.33
325.669	3.31
326.037	3.33
326.405	3.39
326.772	3.56
327.14	3.59
327.508	3.61
327.875	3.56
328.243	3.59
328.61	3.7
328.978	3.73
329.346	3.8
329.713	3.71
330.08	3.69
330.448	3.63
330.815	3.5
331.182	3.43
331.55	3.46
331.917	3.48
332.284	3.53
332.651	3.6
333.018	3.48
333.385	3.51
333.752	3.53
334.119	3.62
334.486	3.51
334.853	3.44
335.22	3.41
335.587	3.47
335.954	3.35
336.32	3.26
336.687	3.07
337.054	3.02
337.42	3.09
337.787	3.06
338.153	3.04
338.52	3.21
338.886	3.16
339.253	3.13
339.619	3.13
339.986	3.17
340.352	3.13
340.718	3.18
341.084	3.11
341.451	3.19
341.817	3.17
342.183	3.09
342.549	3.08
342.915	3.03
343.281	3
343.647	3
344.013	3.03
344.379	3.13
344.745	3.07
345.11	3.06
345.476	3.12
345.842	3.14
346.208	3.04
346.573	3.09
346.939	3.14
347.304	3.11
347.67	3.14
348.035	3.17
348.401	3.18
348.766	3.3
349.132	3.26
349.497	3.17
349.862	3.33
350.228	3.42
350.593	3.48
350.958	3.54
351.323	3.6
351.688	3.68
352.053	3.66
352.418	3.78
352.783	3.79
353.148	3.7
353.513	3.77
353.878	3.77
354.243	3.73
354.608	3.71
354.972	3.8
355.337	3.78
355.702	3.81
356.066	3.82
356.431	3.81
356.795	3.79
357.16	3.74
357.524	3.66
357.889	3.62
358.253	3.72
358.618	3.73
358.982	3.73
359.346	3.63
359.71	3.6
360.075	3.59
360.439	3.58
360.803	3.65
361.167	3.6
361.531	3.6
361.895	3.66
362.259	3.65
362.623	3.55
362.987	3.55
363.351	3.55
363.714	3.5
364.078	3.42
364.442	3.43
364.806	3.51
365.169	3.5
365.533	3.49
365.896	3.4
366.26	3.39
366.623	3.35
366.987	3.36
367.35	3.37
367.714	3.32
368.077	3.3
368.44	3.3
368.803	3.33
369.167	3.29
369.53	3.24
369.893	3.31
370.256	3.39
370.619	3.39
370.982	3.34
371.345	3.35
371.708	3.41
372.071	3.44
372.434	3.35
372.797	3.41
373.159	3.41
373.522	3.43
373.885	3.42
374.247	3.44
374.61	3.49
374.973	3.51
375.335	3.49
375.698	3.49
376.06	3.46
376.423	3.42
376.785	3.47
377.147	3.53
377.51	3.48
377.872	3.51
378.234	3.48
378.596	3.45
378.958	3.46
379.321	3.46
379.683	3.44
380.045	3.47
380.407	3.42
380.769	3.43
381.13	3.41
381.492	3.44
381.854	3.41
382.216	3.36
382.578	3.32
382.939	3.35
383.301	3.37
383.663	3.33
384.024	3.33
384.386	3.39
384.747	3.33
385.109	3.35
385.47	3.31
385.832	3.31
386.193	3.36
386.554	3.37
386.916	3.36
387.277	3.36
387.638	3.37
387.999	3.39
388.36	3.43
388.721	3.42
389.082	3.4
389.443	3.42
389.804	3.43
390.165	3.43
390.526	3.45
390.887	3.43
391.248	3.48
391.609	3.49
391.969	3.46
392.33	3.47
392.691	3.44
393.051	3.46
393.412	3.47
393.772	3.46
394.133	3.46
394.493	3.48
394.854	3.45
395.214	3.46
395.574	3.48
395.935	3.42
396.295	3.46
396.655	3.45
397.015	3.45
397.376	3.48
397.736	3.48
398.096	3.48
398.456	3.52
398.816	3.5
399.176	3.47
399.535	3.48
399.895	3.47
400.255	3.51
400.615	3.46
400.975	3.45
401.334	3.44
401.694	3.46
402.054	3.41
402.413	3.45
402.773	3.42
403.132	3.43
403.492	3.51
403.851	3.51
404.211	3.5
404.57	3.47
404.929	3.5
405.288	3.51
405.648	3.5
406.007	3.47
406.366	3.45
406.725	3.48
407.084	3.46
407.443	3.46
407.802	3.47
408.161	3.48
408.52	3.5
408.879	3.5
409.238	3.49
409.596	3.51
409.955	3.49
410.314	3.51
410.673	3.48
411.031	3.46
411.39	3.46
411.748	3.47
412.107	3.51
412.465	3.47
412.824	3.47
413.182	3.45
413.54	3.48
413.899	3.5
414.257	3.48
414.615	3.47
414.974	3.5
415.332	3.47
415.69	3.46
416.048	3.45
416.406	3.47
416.764	3.46
417.122	3.47
417.48	3.46
417.838	3.44
418.195	3.45
418.553	3.43
418.911	3.43
419.269	3.44
419.626	3.42
419.984	3.42
420.342	3.41
420.699	3.41
421.057	3.41
421.414	3.39
421.772	3.41
422.129	3.41
422.486	3.39
422.844	3.4
423.201	3.4
423.558	3.39
423.915	3.38
424.273	3.38
424.63	3.37
424.987	3.38
425.344	3.39
425.701	3.39
426.058	3.39
426.415	3.38
426.772	3.37
427.128	3.38
427.485	3.39
427.842	3.4
428.199	3.41
428.555	3.4
428.912	3.42
429.269	3.43
429.625	3.43
429.982	3.42
430.338	3.42
430.695	3.43
431.051	3.42
431.407	3.42
431.764	3.39
432.12	3.39
432.476	3.38
432.832	3.36
433.189	3.35
433.545	3.36
433.901	3.35
434.257	3.34
434.613	3.35
434.969	3.35
435.325	3.36
435.681	3.36
436.036	3.34
436.392	3.33
436.748	3.31
437.104	3.31
437.459	3.3
437.815	3.3
438.171	3.32
438.526	3.32
438.882	3.33
439.237	3.36
439.593	3.36
439.948	3.36
440.304	3.37
440.659	3.37
441.014	3.38
441.369	3.36
441.725	3.37
442.08	3.37
442.435	3.35
442.79	3.34
443.145	3.34
443.5	3.36
443.855	3.37
444.21	3.38
444.565	3.38
444.92	3.39
445.275	3.39
445.629	3.39
445.984	3.37
446.339	3.37
446.693	3.35
447.048	3.34
447.403	3.33
447.757	3.32
448.112	3.32
448.466	3.32
448.82	3.33
449.175	3.33
449.529	3.33
449.883	3.32
450.238	3.32
450.592	3.32
450.946	3.31
451.3	3.29
451.654	3.29
452.008	3.29
452.362	3.28
452.716	3.27
453.07	3.28
453.424	3.31
453.778	3.31
454.132	3.31
454.486	3.31
454.839	3.31
455.193	3.32
455.547	3.3
455.9	3.31
456.254	3.33
456.607	3.32
456.961	3.31
457.314	3.31
457.668	3.31
458.021	3.29
458.375	3.31
458.728	3.31
459.081	3.31
459.434	3.31
459.787	3.32
460.141	3.32
460.494	3.31
460.847	3.32
461.2	3.31
461.553	3.32
461.906	3.32
462.259	3.33
462.611	3.35
462.964	3.37
463.317	3.35
463.67	3.35
464.022	3.36
464.375	3.37
464.728	3.38
465.08	3.4
465.433	3.41
465.785	3.39
466.138	3.4
466.49	3.4
466.843	3.4
467.195	3.41
467.547	3.42
467.899	3.42
468.252	3.4
468.604	3.4
468.956	3.38
469.308	3.39
469.66	3.4
470.012	3.4
470.364	3.41
470.716	3.41
471.068	3.4
471.42	3.4
471.772	3.42
472.123	3.42
472.475	3.43
472.827	3.44
473.178	3.45
473.53	3.44
473.882	3.43
474.233	3.42
474.585	3.41
474.936	3.38
475.288	3.38
475.639	3.38
475.99	3.37
476.342	3.37
476.693	3.37
477.044	3.37
477.395	3.37
477.746	3.36
478.097	3.37
478.448	3.37
478.8	3.37
479.15	3.34
479.501	3.35
479.852	3.36
480.203	3.37
480.554	3.37
480.905	3.4
481.255	3.4
481.606	3.41
481.957	3.42
482.307	3.44
482.658	3.45
483.009	3.45
483.359	3.47
483.709	3.48
484.06	3.47
484.41	3.47
484.761	3.47
485.111	3.48
485.461	3.48
485.811	3.49
486.162	3.49
486.512	3.5
486.862	3.5
487.212	3.51
487.562	3.51
487.912	3.5
488.262	3.49
488.612	3.49
488.961	3.49
489.311	3.49
489.661	3.49
490.011	3.48
490.36	3.47
490.71	3.47
491.06	3.47
491.409	3.48
491.759	3.49
492.108	3.48
492.458	3.47
492.807	3.46
493.157	3.47
493.506	3.47
493.855	3.47
494.204	3.46
494.554	3.46
494.903	3.47
495.252	3.49
495.601	3.49
495.95	3.49
496.299	3.5
496.648	3.49
496.997	3.49
497.346	3.51
497.695	3.53
498.043	3.51
498.392	3.52
498.741	3.51
499.09	3.5
499.438	3.54
499.787	3.55
500.135	3.58
500.484	3.56
500.832	3.57
501.181	3.55
501.529	3.56
501.878	3.56
502.226	3.54
502.574	3.53
502.923	3.52
503.271	3.53
503.619	3.54
503.967	3.55
504.315	3.57
504.663	3.55
505.011	3.55
505.359	3.57
505.707	3.58
506.055	3.6
506.403	3.6
506.751	3.61
507.098	3.61
507.446	3.62
507.794	3.62
508.141	3.63
508.489	3.64
508.837	3.65
509.184	3.63
509.531	3.65
509.879	3.69
510.226	3.71
510.574	3.71
510.921	3.72
511.268	3.73
511.616	3.74
511.963	3.75
512.31	3.73
512.657	3.73
513.004	3.74
513.351	3.74
513.698	3.74
514.045	3.72
514.392	3.73
514.739	3.74
515.086	3.74
515.432	3.75
515.779	3.74
516.126	3.74
516.473	3.75
516.819	3.76
517.166	3.76
517.512	3.77
517.859	3.79
518.205	3.79
518.552	3.79
518.898	3.77
519.245	3.77
519.591	3.8
519.937	3.81
520.283	3.8
520.629	3.81
520.976	3.83
521.322	3.86
521.668	3.85
522.014	3.85
522.36	3.86
522.706	3.85
523.052	3.87
523.398	3.88
523.743	3.9
524.089	3.9
524.435	3.91
524.781	3.91
525.126	3.9
525.472	3.92
525.817	3.92
526.163	3.93
526.509	3.94
526.854	3.95
527.199	3.95
527.545	3.94
527.89	3.94
528.235	3.92
528.581	3.92
528.926	3.93
529.271	3.95
529.616	3.94
529.961	3.96
530.306	3.96
530.651	3.95
530.996	3.96
531.341	3.96
531.686	3.95
532.031	3.96
532.376	3.95
532.721	3.95
533.065	3.94
533.41	3.95
533.755	3.95
534.099	3.94
534.444	3.95
534.788	3.97
535.133	3.96
535.477	3.99
535.822	3.98
536.166	3.98
536.51	3.95
536.855	3.95
537.199	3.96
537.543	3.96
537.887	3.97
538.231	3.96
538.576	3.97
538.92	3.97
539.264	3.96
539.608	3.97
539.951	3.99
540.295	3.99
540.639	4
540.983	4
541.327	4
541.671	4
542.014	4
542.358	4.01
542.701	4
543.045	4.01
543.389	4
543.732	4.03
544.075	4.03
544.419	4.02
544.762	4.03
545.105	4.02
545.449	4.03
545.792	4.03
546.135	4.04
546.478	4.04
546.821	4.04
547.165	4.02
547.508	4.05
547.851	4.03
548.194	4.01
548.536	4
548.879	3.99
549.222	4.02
549.565	4.05
549.908	4.07
550.25	4.07
550.593	4.08
550.936	4.06
551.278	4.06
551.621	4.09
551.963	4.07
552.306	4.08
552.648	4.09
552.991	4.09
553.333	4.08
553.675	4.08
554.017	4.09
554.36	4.11
554.702	4.08
555.044	4.07
555.386	4.1
555.728	4.13
556.07	4.17
556.412	4.14
556.754	4.12
557.096	4.1
557.438	4.11
557.78	4.12
558.121	4.14
558.463	4.13
558.805	4.11
559.147	4.11
559.488	4.13
559.83	4.11
560.171	4.12
560.513	4.13
560.854	4.14
561.196	4.16
561.537	4.15
561.878	4.17
562.22	4.19
562.561	4.17
562.902	4.19
563.243	4.18
563.584	4.17
563.925	4.14
564.266	4.12
564.607	4.13
564.948	4.16
565.289	4.18
565.63	4.18
565.971	4.17
566.312	4.17
566.653	4.16
566.993	4.17
567.334	4.15
567.675	4.16
568.015	4.17
568.356	4.16
568.696	4.17
569.037	4.17
569.377	4.14
569.718	4.17
570.058	4.14
570.398	4.11
570.739	4.13
571.079	4.13
571.419	4.17
571.759	4.17
572.099	4.16
572.439	4.14
572.779	4.17
573.119	4.21
573.459	4.23
573.799	4.25
574.139	4.25
574.479	4.26
574.819	4.25
575.158	4.24
575.498	4.25
575.838	4.23
576.177	4.2
576.517	4.25
576.856	4.23
577.196	4.22
577.535	4.25
577.875	4.26
578.214	4.25
578.553	4.25
578.893	4.22
579.232	4.2
579.571	4.23
579.91	4.2
580.25	4.16
580.589	4.15
580.928	4.13
581.267	4.13
581.606	4.15
581.945	4.12
582.283	4.12
582.622	4.09
582.961	4.07
583.3	4.12
583.639	4.16
583.977	4.2
584.316	4.24
584.654	4.26
584.993	4.26
585.332	4.27
585.67	4.29
586.008	4.3
586.347	4.34
586.685	4.3
587.024	4.32
587.362	4.33
587.7	4.34
588.038	4.37
588.376	4.37
588.715	4.32
589.053	4.37
589.391	4.39
589.729	4.39
590.067	4.4
590.404	4.4
590.742	4.39
591.08	4.38
591.418	4.35
591.756	4.36
592.093	4.38
592.431	4.38
592.769	4.36
593.106	4.34
593.444	4.32
593.781	4.33
594.119	4.35
594.456	4.36
594.793	4.38
595.131	4.33
595.468	4.33
595.805	4.37
596.143	4.38
596.48	4.36
596.817	4.37
597.154	4.38
597.491	4.36
597.828	4.33
598.165	4.33
598.502	4.34
598.839	4.33
599.176	4.29
599.512	4.3
599.849	4.29
600.186	4.31
600.523	4.34
600.859	4.36
601.196	4.35
601.532	4.35
601.869	4.32
602.205	4.33
602.542	4.34
602.878	4.34
603.215	4.3
603.551	4.35
603.887	4.35
604.223	4.37
604.56	4.41
604.896	4.4
605.232	4.43
605.568	4.46
605.904	4.45
606.24	4.47
606.576	4.47
606.912	4.49
607.248	4.47
607.583	4.46
607.919	4.43
608.255	4.42
608.591	4.42
608.926	4.46
609.262	4.52
609.597	4.52
609.933	4.56
610.268	4.6
610.604	4.57
610.939	4.55
611.275	4.52
611.61	4.44
611.945	4.47
612.281	4.43
612.616	4.4
612.951	4.42
613.286	4.43
613.621	4.49
613.956	4.48
614.291	4.54
614.626	4.52
614.961	4.51
615.296	4.46
615.631	4.46
615.966	4.42
616.3	4.39
616.635	4.38
616.97	4.37
617.304	4.34
617.639	4.38
617.973	4.37
618.308	4.42
618.642	4.5
618.977	4.5
619.311	4.49
619.646	4.52
619.98	4.57
620.314	4.54
620.648	4.5
620.983	4.52
621.317	4.53
621.651	4.56
621.985	4.6
622.319	4.67
622.653	4.64
622.987	4.66
623.321	4.63
623.655	4.61
623.988	4.61
624.322	4.62
624.656	4.63
624.99	4.68
625.323	4.66
625.657	4.63
625.99	4.63
626.324	4.64
626.657	4.61
626.991	4.59
627.324	4.59
627.658	4.61
627.991	4.58
628.324	4.57
628.657	4.53
628.991	4.5
629.324	4.5
629.657	4.54
629.99	4.53
630.323	4.59
630.656	4.66
630.989	4.68
631.322	4.67
631.655	4.65
631.987	4.67
632.32	4.72
632.653	4.71
632.986	4.74
633.318	4.74
633.651	4.78
633.984	4.8
634.316	4.8
634.649	4.79
634.981	4.76
635.313	4.78
635.646	4.84
635.978	4.87
636.31	4.82
636.643	4.84
636.975	4.86
637.307	4.76
637.639	4.71
637.971	4.68
638.303	4.64
638.635	4.56
638.967	4.52
639.299	4.48
639.631	4.47
639.963	4.46
640.295	4.46
640.626	4.42
640.958	4.43
641.29	4.49
641.621	4.54
641.953	4.58
642.285	4.49
642.616	4.45
642.948	4.43
643.279	4.46
643.61	4.39
643.942	4.34
644.273	4.4
644.604	4.38
644.936	4.34
645.267	4.37
645.598	4.38
645.929	4.39
646.26	4.37
646.591	4.41
646.922	4.37
647.253	4.38
647.584	4.41
647.915	4.31
648.245	4.24
648.576	4.26
648.907	4.26
649.238	4.3
649.568	4.37
649.899	4.4
650.229	4.48
650.56	4.56
650.89	4.57
651.221	4.63
651.551	4.67
651.882	4.65
652.212	4.69
652.542	4.72
652.872	4.73
653.203	4.77
653.533	4.75
653.863	4.78
654.193	4.84
654.523	4.79
654.853	4.85
655.183	4.92
655.513	4.83
655.843	4.88
656.172	4.86
656.502	4.82
656.832	4.81
657.162	4.79
657.491	4.72
657.821	4.74
658.15	4.7
658.48	4.71
658.809	4.76
659.139	4.7
659.468	4.73
659.798	4.73
660.127	4.73
660.456	4.75
660.785	4.76
661.115	4.74
661.444	4.8
661.773	4.83
662.102	4.87
662.431	4.93
662.76	4.98
663.089	5
663.418	5.02
663.747	5
664.076	4.98
664.404	5.01
664.733	5.01
665.062	5.02
665.39	4.99
665.719	4.95
666.048	5
666.376	4.99
666.705	4.99
667.033	4.95
667.362	4.98
667.69	4.97
668.018	5.04
668.347	4.97
668.675	4.94
669.003	4.9
669.331	4.86
669.659	4.85
669.987	4.76
670.315	4.71
670.643	4.72
670.971	4.78
671.299	4.87
671.627	4.87
671.955	4.86
672.283	4.94
672.61	4.95
672.938	4.98
673.266	4.93
673.593	4.94
673.921	4.88
674.249	4.86
674.576	4.77
674.904	4.78
675.231	4.76
675.558	4.72
675.886	4.67
676.213	4.67
676.54	4.63
676.867	4.69
677.195	4.7
677.522	4.77
677.849	4.72
678.176	4.68
678.503	4.75
678.83	4.8
679.157	4.72
679.484	4.72
679.81	4.76
680.137	4.69
680.464	4.61
680.791	4.66
681.117	4.62
681.444	4.68
681.771	4.65
682.097	4.6
682.424	4.62
682.75	4.55
683.077	4.53
683.403	4.62
683.729	4.68
684.056	4.76
684.382	4.71
684.708	4.78
685.034	4.76
685.36	4.62
685.686	4.45
686.012	4.43
686.339	4.5
686.664	4.43
686.99	4.57
687.316	4.67
687.642	4.77
687.968	4.77
688.294	4.73
688.619	4.71
688.945	4.78
689.271	4.77
689.596	4.93
689.922	5.03
690.247	4.84
690.573	4.84
690.898	4.78
691.224	4.8
691.549	4.73
691.874	4.71
692.2	4.93
692.525	5.04
692.85	5.14
693.175	5.06
693.5	5.04
693.825	4.98
694.15	4.93
694.475	4.84
694.8	4.88
695.125	4.94
695.45	4.89
695.775	4.86
696.099	4.88
696.424	4.85
696.749	4.73
697.073	4.84
697.398	4.85
697.723	4.8
698.047	4.76
698.372	4.75
698.696	4.76
699.02	4.68
699.345	4.69
699.669	4.74
699.993	4.68
700.318	4.72
700.642	4.85
700.966	4.85
701.29	4.93
701.614	4.93
701.938	4.95
702.262	4.98
702.586	4.97
702.91	4.91
703.234	4.94
703.557	5.08
703.881	5.07
704.205	5.21
704.529	5.19
704.852	5.21
705.176	5.17
705.499	5.18
705.823	5.16
706.146	5.12
706.47	5.06
706.793	5.1
707.117	5.11
707.44	4.96
707.763	4.95
708.086	4.84
708.409	4.82
708.733	4.82
709.056	4.79
709.379	4.95
709.702	5.03
710.025	4.88
710.348	4.91
710.671	4.75
710.993	4.61
711.316	4.76
711.639	4.82
711.962	4.82
712.284	4.86
712.607	4.87
712.93	4.91
713.252	4.83
713.575	4.94
713.897	5
714.22	5.11
714.542	5.18
714.864	5.12
715.187	5.11
715.509	5.08
715.831	5.18
716.153	5.19
716.475	5.16
716.798	5.27
717.12	5.28
717.442	5.49
717.764	5.42
718.085	5.37
718.407	5.34
718.729	5.41
719.051	5.4
719.373	5.38
719.695	5.43
720.016	5.46
720.338	5.59
720.659	5.53
720.981	5.39
721.302	5.39
721.624	5.59
721.945	5.64
722.267	5.74
722.588	5.59
722.909	5.5
723.231	5.49
723.552	5.56
723.873	5.53
724.194	5.36
724.515	5.45
724.836	5.34
725.157	5.39
725.478	5.28
725.799	5.25
726.12	5.29
726.441	5.17
726.762	5.34
727.083	5.15
727.403	5.14
727.724	5.26
728.045	5.2
728.365	5.18
728.686	5.16
729.006	5.12
729.327	5.25
729.647	5.31
729.967	5.45
730.288	5.4
730.608	5.34
730.928	5.27
731.249	5.24
731.569	5.37
731.889	5.46
732.209	5.6
732.529	5.66
732.849	5.79
733.169	5.87
733.489	5.83
733.809	5.93
734.129	6.03
734.448	5.94
734.768	5.91
735.088	5.81
735.408	5.88
735.727	5.88
736.047	5.9
736.366	5.89
736.686	5.83
737.005	5.94
737.325	5.97
737.644	6.23
737.963	6.24
738.283	6.08
738.602	6.1
738.921	6.14
739.24	6.05
739.56	6.01
739.879	5.99
740.198	5.94
740.517	5.88
740.836	6
741.155	5.99
741.473	6.1
741.792	6.32
742.111	6.2
742.43	6.33
742.748	6.26
743.067	6.2
743.386	6.17
743.704	5.97
744.023	6.04
744.341	6
744.66	6.11
744.978	6.17
745.297	5.97
745.615	5.88
745.933	6.21
746.252	6.21
746.57	6.39
746.888	6.5
747.206	6.4
747.524	6.08
747.842	6.28
748.16	6.2
748.478	6.1
748.796	6.15
749.114	6.12
749.432	5.93
749.749	5.99
750.067	6.06
750.385	5.99
750.703	5.92
751.02	5.74
751.338	5.65
751.655	5.79
751.973	6.19
752.29	6.29
752.608	5.91
752.925	5.66
753.242	5.65
753.56	5.58
753.877	5.62
754.194	5.72
754.511	5.76
754.828	5.45
755.145	5.19
755.462	5.09
755.779	5.15
756.096	5.35
756.413	5.45
756.73	5.35
757.047	5.44
757.364	5.44
757.68	5.48
757.997	5.64
758.314	5.56
758.63	5.23
758.947	5.11
759.264	5.13
759.58	5.45
759.896	5.56
760.213	5.59
760.529	5.69
760.846	5.73
761.162	5.71
761.478	6.03
761.794	6.11
762.11	6.48
762.426	6.39
762.743	6.23
763.059	6.5
763.375	6.63
763.69	6.77
764.006	6.8
764.322	6.95
764.638	6.83
764.954	6.95
765.27	6.99
765.585	7.06
765.901	7.19
766.216	7.01
766.532	6.68
766.848	6.63
767.163	6.57
767.478	6.69
767.794	6.72
768.109	6.6
768.424	6.65
768.74	6.54
769.055	6.37
769.37	6.7
769.685	6.02
770	6.02
770.315	6.04
770.63	5.84
770.945	5.67
771.26	6.02
771.575	5.86
771.89	5.96
772.205	5.9
772.52	5.97
772.834	5.94
773.149	6.41
773.464	6.29
773.778	6.49
774.093	6.23
774.407	6.21
774.722	6.26
775.036	6.41
775.351	6.33
775.665	6.37
775.979	6.17
776.293	6.49
776.608	6.23
776.922	5.99
777.236	6.37
777.55	6.1
777.864	5.54
778.178	5.86
778.492	5.91
778.806	5.79
779.12	6.07
779.434	6.03
779.747	5.76
780.061	5.89
780.375	5.89
780.689	5.83
781.002	5.72
781.316	6.06
781.629	5.98
781.943	5.97
782.256	6
782.57	6.31
782.883	6.22
783.196	6.36
783.51	6.56
783.823	6.52
784.136	7.03
784.449	7.6
784.762	7.71
785.075	7.48
785.388	7.27
785.701	7.3
786.014	7.4
786.327	7.43
786.64	7.79
786.953	7.73
787.266	7.87
787.578	8.12
787.891	8.01
788.204	7.66
788.516	8.13
788.829	8.3
789.141	7.95
789.454	8.24
789.766	8.18
790.079	7.65
790.391	7.41
790.703	7.45
791.016	6.98
791.328	6.83
791.64	7.01
791.952	7.7
792.264	7.07
792.576	6.95
792.888	6.92
793.2	6.6
793.512	6.5
793.824	6.53
794.136	6.34
794.448	6.38
794.76	6.37
795.071	5.91
795.383	5.7
795.695	5.84
796.006	5.31
796.318	5.64
796.629	6.15
796.941	6.28
797.252	6.19
797.564	6.56
797.875	6.57
798.186	6.35
798.497	6.05
798.809	6.11
799.12	6.33
799.431	6.22
799.742	6.32
800.053	6.35
800.364	6.49
800.675	6.09
800.986	5.69
801.297	5.97
801.608	5.7
801.918	6.01
802.229	5.79
802.54	6.1
802.851	6.19
803.161	6.09
803.472	6.29
803.782	6.36
804.093	6.22
804.403	6.04
804.714	5.65
805.024	5.57
805.334	5.69
805.645	6.01
805.955	6.21
806.265	6.29
806.575	6.35
806.885	6.39
807.195	7.09
807.505	7.44
807.815	8.03
808.125	8.37
808.435	8.12
808.745	8.42
809.055	8.52
809.365	8.03
809.674	7.71
809.984	7.59
810.294	7.53
810.603	7.97
810.913	8.1
811.222	8.93
811.532	9.26
811.841	10.05
812.151	10.31
812.46	10.29
812.769	9.92
813.079	9.94
813.388	10.09
813.697	10.3
814.006	9.97
814.315	9.75
814.624	8.99
814.933	9.43
815.242	9.73
815.551	9.9
815.86	10.35
816.169	10.45
816.478	10.05
816.786	9.55
817.095	9.19
817.404	9.4
817.712	9.28
818.021	9.06
818.33	8.19
818.638	7.76
818.947	7.85
819.255	8.22
819.563	7.89
819.872	7.5
820.18	7.17
820.488	7.46
820.796	7.56
821.105	7.82
821.413	7.92
821.721	7.93
822.029	8.09
822.337	8.08
822.645	8.29
822.953	8.34
823.26	8.53
823.568	8.46
823.876	8.51
824.184	8.51
824.491	8.62
824.799	8.69
825.107	8.7
825.414	8.78
825.722	8.81
826.029	9.09
826.337	9.35
826.644	9.46
826.951	9.4
827.259	9.3
827.566	9.35
827.873	9.48
828.18	9.46
828.488	9.54
828.795	9.56
829.102	9.61
829.409	9.73
829.716	9.5
830.023	9.65
830.329	9.51
830.636	9.75
830.943	9.49
831.25	9.34
831.557	9.07
831.863	8.69
832.17	8.25
832.476	7.92
832.783	7.83
833.089	7.81
833.396	7.95
833.702	8.31
834.009	9.02
834.315	8.29
834.621	8.59
834.928	8.23
835.234	8.07
835.54	7.42
835.846	7.66
836.152	8.04
836.458	8.02
836.764	7.85
837.07	7.04
837.376	6.52
837.682	6.62
837.988	6.72
838.293	7.14
838.599	7.47
838.905	6.89
839.211	6.83
839.516	6.75
839.822	6.86
840.127	6.32
840.433	5.41
840.738	6.16
841.044	5.13
841.349	5.7
841.654	5.94
841.959	7.08
842.265	6.97
842.57	6.79
842.875	5.93
843.18	7.11
843.485	8
843.79	9.37
844.095	9
844.4	10.04
844.705	8.28
845.01	7.81
845.315	9.11
845.619	7.61
845.924	7.66
846.229	7.05
846.533	7.12
846.838	4.64
847.142	3.89
847.447	2.26
847.751	1.08
848.056	1.37
848.36	0.98
848.664	0.9
848.969	1.78
849.273	0.89
849.577	-0.89
849.881	-2.39
850.185	-1
850.489	-0.69
850.794	-1.85
851.097	-0.99
851.401	-0.48
851.705	-1.84
852.009	-0.92
852.313	-0.71
852.617	0.25
852.92	0.49
853.224	2.42
853.528	2.06
853.831	4.69
854.135	4.98
854.438	3.81
854.742	2.43
855.045	1.24
855.349	0.38
855.652	1.13
855.955	2.24
856.259	2.61
856.562	0.82
856.865	0.9
857.168	0.94
857.471	3.04
857.774	4.44
858.077	4.17
858.38	5.86
858.683	6.92
858.986	7.39
859.289	9.17
859.592	10.61
859.894	11.64
860.197	11.22
860.5	11.34
860.802	11.07
861.105	12.37
861.407	11.78
861.71	11.88
862.012	14.82
862.315	12.13
862.617	12.02
862.919	11.03
863.222	12.26
863.524	11.82
863.826	13.32
864.128	12.5
864.43	14.67
864.732	15.7
865.034	15.11
865.336	13.24
865.638	9.06
865.94	8.13
866.242	8.41
866.544	8.4
866.846	10.13
867.147	9.49
867.449	8.59
867.751	10.94
868.052	10.23
868.354	8.46
868.655	10.47
868.957	10.53
869.258	14
869.56	12.9
869.861	13.69
870.162	10.44
870.463	9.23
870.765	7.48
871.066	3.68
871.367	4.46
871.668	5.16
871.969	6.9
872.27	5.79
872.571	4.29
872.872	3.57
873.173	2.02
873.473	2.7
873.774	2.63
874.075	1.58
874.376	1.47
874.676	2.26
874.977	1.41
875.277	1.33
875.578	-0.18
875.878	-0.43
876.179	-0.88
876.479	0.05
876.78	-0.17
877.08	1.52
877.38	4.07
877.68	2.08
877.981	1.4
878.281	2.3
878.581	2.93
