Data from BU57652_Reflection_00008.txt Node
Date: Tue Nov 19 10:43:17 EST 2019
User: vgr7
Spectrometer: USB2G7710
Scans to average: 3
Trigger mode: 4
Integration Time (sec): 2.000000E-2
Electric dark correction enabled: true
Boxcar width: 10
XAxis mode: Wavelengths
Number of Pixels in Spectrum: 2048
>>>>>Begin Spectral Data<<<<<
177.721	115.51
178.105	56.2
178.488	41.68
178.871	2.11
179.254	12.9
179.636	-46.96
180.019	41.82
180.402	-37.5
180.785	-42.62
181.168	29.05
181.55	-476.92
181.933	25.74
182.316	-889.36
182.698	-207.53
183.081	-238.15
183.463	-196.41
183.846	-294.74
184.228	-360.4
184.611	-58.48
184.993	-25.91
185.376	-24.06
185.758	-34.16
186.14	-22.36
186.522	-21.06
186.904	-15.51
187.287	-15.52
187.669	-17.77
188.051	-31.52
188.433	-40.29
188.815	-23.17
189.197	-31.34
189.579	-30.28
189.961	-26.66
190.342	-10.41
190.724	-13.52
191.106	-23.14
191.488	-26.6
191.869	-21.13
192.251	-15.84
192.633	-13.85
193.014	-7.59
193.396	-8.23
193.777	-2.09
194.159	-14.98
194.54	-16.98
194.922	-32.47
195.303	-39.19
195.684	-41.26
196.065	-25.05
196.447	-14.98
196.828	-20.19
197.209	-17.15
197.59	-14.24
197.971	-5.85
198.352	3.34
198.733	1.41
199.114	-1.27
199.495	3.34
199.876	0.1
200.257	-16.85
200.638	-32.27
201.018	-51.1
201.399	-30.7
201.78	-26.68
202.16	-47.46
202.541	-44.21
202.922	-22.57
203.302	-9.8
203.683	-19.84
204.063	-12.41
204.444	-24.72
204.824	-22.87
205.204	-25.39
205.585	-33.14
205.965	-66.46
206.345	-68.36
206.725	-51.69
207.106	-43.36
207.486	-34.96
207.866	-57.1
208.246	-54.02
208.626	-49.67
209.006	-55.4
209.386	-99.32
209.766	-94.12
210.145	-47.74
210.525	-22.49
210.905	1.59
211.285	-2.85
211.664	14.13
212.044	-0.32
212.424	0.85
212.803	-3.9
213.183	-4.47
213.562	-4.62
213.942	14.61
214.321	12.71
214.701	15.97
215.08	11.84
215.459	5.77
215.838	8.54
216.218	4.55
216.597	13.08
216.976	13.39
217.355	23.71
217.734	25.8
218.113	25.74
218.492	13.52
218.871	10.28
219.25	6.86
219.629	8.07
220.008	15.65
220.387	9.65
220.766	18.23
221.144	18.47
221.523	25.63
221.902	15.69
222.28	6.72
222.659	19.2
223.037	33.8
223.416	33.28
223.794	37.95
224.173	30.41
224.551	22.35
224.929	13.07
225.308	9.76
225.686	5.22
226.064	-7.26
226.442	-3.91
226.821	-4.9
227.199	-4.23
227.577	-11.1
227.955	-12.04
228.333	-9.93
228.711	-10.83
229.089	-8
229.467	-6.68
229.845	-4.66
230.222	-3.4
230.6	-9.98
230.978	-9.12
231.356	-5.6
231.733	-4.95
232.111	-0.81
232.488	-2.08
232.866	-0.65
233.243	-1.04
233.621	-1.21
233.998	1.12
234.376	1.22
234.753	0.5
235.13	1.22
235.508	3.96
235.885	3.23
236.262	3.39
236.639	1.84
237.016	0.77
237.393	1.77
237.77	2.47
238.147	3.22
238.524	4.53
238.901	3.76
239.278	2.59
239.655	2.22
240.032	1.67
240.409	2.18
240.785	2.79
241.162	2.79
241.539	2.92
241.915	2.7
242.292	3.41
242.668	3.48
243.045	3.68
243.421	3.58
243.798	3.71
244.174	4
244.551	4.13
244.927	3.98
245.303	3.51
245.679	3.54
246.056	3.51
246.432	3.49
246.808	3.56
247.184	3.78
247.56	3.79
247.936	3.84
248.312	4.07
248.688	3.87
249.064	4
249.44	3.82
249.815	4.07
250.191	3.86
250.567	3.93
250.943	4.12
251.318	3.79
251.694	3.67
252.069	3.36
252.445	3.47
252.82	3.84
253.196	4.12
253.571	4.08
253.947	3.98
254.322	3.91
254.697	3.77
255.073	3.42
255.448	3.6
255.823	3.64
256.198	3.61
256.573	3.87
256.948	3.69
257.323	3.99
257.698	3.75
258.073	3.57
258.448	3.68
258.823	3.27
259.198	3.51
259.573	3.39
259.948	3.53
260.322	3.56
260.697	3.4
261.072	3.39
261.446	3.46
261.821	3.39
262.195	3.33
262.57	3.37
262.944	3.2
263.319	3.22
263.693	3.18
264.067	3
264.442	2.95
264.816	3.02
265.19	2.92
265.564	2.98
265.938	3.07
266.313	3.03
266.687	3.28
267.061	3.02
267.435	3.1
267.809	2.86
268.183	2.74
268.556	2.82
268.93	2.93
269.304	2.63
269.678	2.76
270.051	2.76
270.425	2.6
270.799	2.79
271.172	2.61
271.546	2.8
271.919	2.91
272.293	2.78
272.666	2.68
273.04	2.68
273.413	2.58
273.787	2.47
274.16	2.23
274.533	2.13
274.906	2.28
275.279	2.35
275.653	2.46
276.026	2.44
276.399	2.55
276.772	2.4
277.145	2.57
277.518	2.49
277.891	2.52
278.263	2.74
278.636	2.77
279.009	2.96
279.382	2.64
279.755	2.51
280.127	2.72
280.5	2.9
280.872	2.98
281.245	3.09
281.617	3.22
281.99	3.34
282.362	3.56
282.735	3.46
283.107	3.29
283.479	3.36
283.852	3.27
284.224	3.16
284.596	3.19
284.968	3.03
285.34	3.15
285.713	3.15
286.085	3.06
286.457	3.1
286.829	3.05
287.201	3.24
287.572	3.32
287.944	3.28
288.316	3.23
288.688	3.27
289.06	3.2
289.431	3.18
289.803	3.2
290.175	3.07
290.546	3.14
290.918	3.33
291.289	3.19
291.661	3.29
292.032	3.31
292.403	3.25
292.775	3.37
293.146	3.36
293.517	3.37
293.889	3.46
294.26	3.59
294.631	3.66
295.002	3.69
295.373	3.74
295.744	3.84
296.115	3.9
296.486	3.87
296.857	3.97
297.228	4.02
297.599	4.04
297.97	4.14
298.34	4.08
298.711	4.13
299.082	4.38
299.452	4.34
299.823	4.33
300.194	4.32
300.564	4.34
300.935	4.43
301.305	4.34
301.676	4.33
302.046	4.18
302.416	4.26
302.787	4.27
303.157	4.27
303.527	4.36
303.897	4.31
304.267	4.29
304.637	4.28
305.008	4.25
305.378	4.22
305.748	4.09
306.117	4.19
306.487	4.19
306.857	4.24
307.227	4.51
307.597	4.72
307.967	4.97
308.336	5.04
308.706	5.1
309.076	5.51
309.445	5.66
309.815	5.79
310.184	5.69
310.554	5.67
310.923	5.73
311.293	5.65
311.662	5.79
312.031	5.9
312.401	6.1
312.77	6.2
313.139	6.4
313.508	6.5
313.877	6.61
314.246	6.71
314.616	6.69
314.985	6.66
315.353	6.88
315.722	6.94
316.091	7.08
316.46	7.15
316.829	7.1
317.198	7.21
317.567	7.34
317.935	7.58
318.304	7.79
318.672	7.9
319.041	8.04
319.41	8.11
319.778	8.14
320.147	8.24
320.515	8.43
320.883	8.33
321.252	8.5
321.62	8.53
321.988	8.54
322.357	8.72
322.725	8.79
323.093	8.71
323.461	8.79
323.829	8.77
324.197	8.78
324.565	8.79
324.933	8.66
325.301	8.62
325.669	8.64
326.037	8.74
326.405	8.75
326.772	8.77
327.14	8.67
327.508	8.77
327.875	8.61
328.243	8.49
328.61	8.63
328.978	8.55
329.346	8.55
329.713	8.75
330.08	8.73
330.448	8.72
330.815	8.64
331.182	8.62
331.55	8.74
331.917	8.72
332.284	8.75
332.651	8.95
333.018	8.91
333.385	8.94
333.752	8.84
334.119	8.97
334.486	9
334.853	9.21
335.22	9.29
335.587	9.36
335.954	9.41
336.32	9.46
336.687	9.56
337.054	9.63
337.42	9.57
337.787	9.56
338.153	9.62
338.52	9.78
338.886	9.75
339.253	9.77
339.619	9.83
339.986	9.81
340.352	9.71
340.718	9.84
341.084	9.83
341.451	9.78
341.817	9.74
342.183	9.79
342.549	9.82
342.915	9.78
343.281	9.79
343.647	9.81
344.013	9.82
344.379	9.79
344.745	9.85
345.11	9.82
345.476	9.83
345.842	9.75
346.208	9.71
346.573	9.77
346.939	9.84
347.304	9.87
347.67	9.87
348.035	9.86
348.401	9.88
348.766	9.87
349.132	9.98
349.497	9.98
349.862	9.94
350.228	9.9
350.593	9.89
350.958	9.89
351.323	9.95
351.688	9.92
352.053	9.95
352.418	9.91
352.783	9.85
353.148	9.9
353.513	10.01
353.878	9.96
354.243	9.81
354.608	9.77
354.972	9.7
355.337	9.73
355.702	9.78
356.066	9.74
356.431	9.65
356.795	9.53
357.16	9.54
357.524	9.52
357.889	9.49
358.253	9.46
358.618	9.47
358.982	9.34
359.346	9.31
359.71	9.32
360.075	9.36
360.439	9.36
360.803	9.37
361.167	9.32
361.531	9.29
361.895	9.29
362.259	9.23
362.623	9.28
362.987	9.22
363.351	9.14
363.714	9.1
364.078	9.06
364.442	9.03
364.806	8.96
365.169	8.89
365.533	8.8
365.896	8.74
366.26	8.68
366.623	8.62
366.987	8.52
367.35	8.49
367.714	8.35
368.077	8.31
368.44	8.25
368.803	8.15
369.167	8.09
369.53	8.06
369.893	7.96
370.256	7.81
370.619	7.75
370.982	7.68
371.345	7.66
371.708	7.63
372.071	7.63
372.434	7.55
372.797	7.52
373.159	7.44
373.522	7.4
373.885	7.31
374.247	7.27
374.61	7.24
374.973	7.13
375.335	7.05
375.698	6.98
376.06	6.84
376.423	6.81
376.785	6.77
377.147	6.69
377.51	6.67
377.872	6.58
378.234	6.56
378.596	6.54
378.958	6.42
379.321	6.33
379.683	6.25
380.045	6.18
380.407	6.12
380.769	6.1
381.13	6.05
381.492	5.99
381.854	6
382.216	5.94
382.578	5.92
382.939	5.89
383.301	5.82
383.663	5.79
384.024	5.72
384.386	5.67
384.747	5.61
385.109	5.56
385.47	5.58
385.832	5.52
386.193	5.46
386.554	5.39
386.916	5.42
387.277	5.34
387.638	5.29
387.999	5.24
388.36	5.21
388.721	5.19
389.082	5.17
389.443	5.09
389.804	5.09
390.165	5.05
390.526	5.04
390.887	5.02
391.248	5
391.609	4.96
391.969	4.95
392.33	4.91
392.691	4.85
393.051	4.82
393.412	4.76
393.772	4.75
394.133	4.76
394.493	4.7
394.854	4.7
395.214	4.67
395.574	4.65
395.935	4.61
396.295	4.56
396.655	4.48
397.015	4.42
397.376	4.35
397.736	4.34
398.096	4.3
398.456	4.27
398.816	4.19
399.176	4.14
399.535	4.07
399.895	4.07
400.255	4.06
400.615	4.03
400.975	3.99
401.334	3.93
401.694	3.92
402.054	3.87
402.413	3.84
402.773	3.84
403.132	3.84
403.492	3.81
403.851	3.79
404.211	3.8
404.57	3.82
404.929	3.81
405.288	3.77
405.648	3.74
406.007	3.74
406.366	3.73
406.725	3.73
407.084	3.73
407.443	3.73
407.802	3.73
408.161	3.73
408.52	3.75
408.879	3.75
409.238	3.72
409.596	3.73
409.955	3.73
410.314	3.72
410.673	3.7
411.031	3.68
411.39	3.64
411.748	3.64
412.107	3.63
412.465	3.62
412.824	3.57
413.182	3.57
413.54	3.52
413.899	3.5
414.257	3.49
414.615	3.45
414.974	3.43
415.332	3.41
415.69	3.36
416.048	3.35
416.406	3.33
416.764	3.29
417.122	3.26
417.48	3.24
417.838	3.21
418.195	3.19
418.553	3.19
418.911	3.18
419.269	3.15
419.626	3.12
419.984	3.11
420.342	3.11
420.699	3.1
421.057	3.1
421.414	3.1
421.772	3.09
422.129	3.09
422.486	3.08
422.844	3.06
423.201	3.06
423.558	3.05
423.915	3.05
424.273	3.05
424.63	3.05
424.987	3.05
425.344	3.05
425.701	3.03
426.058	3.02
426.415	3.02
426.772	3.03
427.128	3.05
427.485	3.03
427.842	3
428.199	2.98
428.555	2.96
428.912	2.96
429.269	2.95
429.625	2.95
429.982	2.94
430.338	2.94
430.695	2.93
431.051	2.93
431.407	2.91
431.764	2.92
432.12	2.92
432.476	2.92
432.832	2.92
433.189	2.93
433.545	2.92
433.901	2.91
434.257	2.9
434.613	2.89
434.969	2.89
435.325	2.92
435.681	2.94
436.036	2.95
436.392	2.95
436.748	2.94
437.104	2.94
437.459	2.94
437.815	2.96
438.171	2.98
438.526	2.95
438.882	2.95
439.237	2.94
439.593	2.94
439.948	2.94
440.304	2.93
440.659	2.93
441.014	2.93
441.369	2.92
441.725	2.92
442.08	2.91
442.435	2.92
442.79	2.89
443.145	2.89
443.5	2.87
443.855	2.86
444.21	2.87
444.565	2.88
444.92	2.86
445.275	2.85
445.629	2.82
445.984	2.82
446.339	2.83
446.693	2.82
447.048	2.8
447.403	2.79
447.757	2.78
448.112	2.78
448.466	2.77
448.82	2.8
449.175	2.79
449.529	2.79
449.883	2.78
450.238	2.78
450.592	2.79
450.946	2.78
451.3	2.78
451.654	2.76
452.008	2.74
452.362	2.73
452.716	2.72
453.07	2.73
453.424	2.73
453.778	2.71
454.132	2.71
454.486	2.71
454.839	2.72
455.193	2.71
455.547	2.71
455.9	2.74
456.254	2.7
456.607	2.69
456.961	2.68
457.314	2.68
457.668	2.7
458.021	2.69
458.375	2.69
458.728	2.69
459.081	2.69
459.434	2.68
459.787	2.7
460.141	2.7
460.494	2.7
460.847	2.69
461.2	2.7
461.553	2.71
461.906	2.71
462.259	2.71
462.611	2.73
462.964	2.72
463.317	2.71
463.67	2.71
464.022	2.74
464.375	2.76
464.728	2.77
465.08	2.76
465.433	2.76
465.785	2.76
466.138	2.8
466.49	2.83
466.843	2.86
467.195	2.87
467.547	2.86
467.899	2.88
468.252	2.88
468.604	2.9
468.956	2.89
469.308	2.9
469.66	2.92
470.012	2.91
470.364	2.92
470.716	2.94
471.068	2.96
471.42	2.96
471.772	2.96
472.123	2.96
472.475	2.97
472.827	2.99
473.178	3.02
473.53	3
473.882	2.98
474.233	2.97
474.585	2.97
474.936	2.97
475.288	2.96
475.639	2.99
475.99	2.98
476.342	3
476.693	3.01
477.044	3
477.395	3
477.746	3
478.097	2.98
478.448	2.96
478.8	2.94
479.15	2.94
479.501	2.94
479.852	2.94
480.203	2.93
480.554	2.92
480.905	2.93
481.255	2.94
481.606	2.95
481.957	2.97
482.307	2.97
482.658	2.98
483.009	2.97
483.359	2.96
483.709	2.96
484.06	2.96
484.41	2.96
484.761	2.97
485.111	2.97
485.461	2.97
485.811	2.98
486.162	2.98
486.512	2.99
486.862	2.99
487.212	2.99
487.562	2.98
487.912	2.98
488.262	2.98
488.612	2.98
488.961	2.97
489.311	2.97
489.661	2.96
490.011	2.96
490.36	2.97
490.71	2.98
491.06	2.98
491.409	2.99
491.759	2.99
492.108	3
492.458	3
492.807	3.01
493.157	3.01
493.506	3.03
493.855	3.03
494.204	3.03
494.554	3.04
494.903	3.07
495.252	3.1
495.601	3.11
495.95	3.13
496.299	3.15
496.648	3.18
496.997	3.2
497.346	3.22
497.695	3.23
498.043	3.26
498.392	3.29
498.741	3.31
499.09	3.36
499.438	3.4
499.787	3.42
500.135	3.45
500.484	3.48
500.832	3.5
501.181	3.54
501.529	3.59
501.878	3.64
502.226	3.66
502.574	3.68
502.923	3.71
503.271	3.75
503.619	3.79
503.967	3.82
504.315	3.88
504.663	3.92
505.011	3.96
505.359	3.99
505.707	4.03
506.055	4.06
506.403	4.1
506.751	4.13
507.098	4.2
507.446	4.25
507.794	4.31
508.141	4.37
508.489	4.47
508.837	4.54
509.184	4.61
509.531	4.7
509.879	4.79
510.226	4.86
510.574	4.94
510.921	5.02
511.268	5.08
511.616	5.16
511.963	5.23
512.31	5.31
512.657	5.41
513.004	5.49
513.351	5.6
513.698	5.68
514.045	5.78
514.392	5.89
514.739	6.01
515.086	6.13
515.432	6.26
515.779	6.34
516.126	6.45
516.473	6.55
516.819	6.64
517.166	6.73
517.512	6.82
517.859	6.9
518.205	6.96
518.552	7.05
518.898	7.14
519.245	7.23
519.591	7.34
519.937	7.42
520.283	7.53
520.629	7.63
520.976	7.77
521.322	7.9
521.668	8
522.014	8.11
522.36	8.22
522.706	8.34
523.052	8.49
523.398	8.65
523.743	8.82
524.089	8.95
524.435	9.11
524.781	9.27
525.126	9.4
525.472	9.54
525.817	9.67
526.163	9.77
526.509	9.88
526.854	9.97
527.199	10.05
527.545	10.15
527.89	10.23
528.235	10.32
528.581	10.4
528.926	10.51
529.271	10.6
529.616	10.7
529.961	10.8
530.306	10.89
530.651	10.97
530.996	11.07
531.341	11.17
531.686	11.27
532.031	11.35
532.376	11.47
532.721	11.6
533.065	11.71
533.41	11.84
533.755	11.97
534.099	12.1
534.444	12.24
534.788	12.37
535.133	12.5
535.477	12.62
535.822	12.77
536.166	12.9
536.51	13.07
536.855	13.23
537.199	13.39
537.543	13.57
537.887	13.77
538.231	13.96
538.576	14.16
538.92	14.34
539.264	14.56
539.608	14.75
539.951	14.89
540.295	15.06
540.639	15.21
540.983	15.34
541.327	15.51
541.671	15.67
542.014	15.83
542.358	15.97
542.701	16.13
543.045	16.27
543.389	16.43
543.732	16.58
544.075	16.75
544.419	16.91
544.762	17.06
545.105	17.23
545.449	17.4
545.792	17.61
546.135	17.81
546.478	18
546.821	18.22
547.165	18.48
547.508	18.7
547.851	18.95
548.194	19.22
548.536	19.48
548.879	19.72
549.222	19.98
549.565	20.24
549.908	20.49
550.25	20.78
550.593	21.06
550.936	21.29
551.278	21.58
551.621	21.87
551.963	22.18
552.306	22.47
552.648	22.76
552.991	23.04
553.333	23.3
553.675	23.59
554.017	23.84
554.36	24.1
554.702	24.37
555.044	24.64
555.386	24.94
555.728	25.17
556.07	25.44
556.412	25.69
556.754	25.99
557.096	26.34
557.438	26.64
557.78	26.97
558.121	27.3
558.463	27.6
558.805	27.91
559.147	28.25
559.488	28.56
559.83	28.85
560.171	29.15
560.513	29.49
560.854	29.82
561.196	30.18
561.537	30.48
561.878	30.82
562.22	31.17
562.561	31.47
562.902	31.8
563.243	32.16
563.584	32.47
563.925	32.79
564.266	33.1
564.607	33.37
564.948	33.65
565.289	33.96
565.63	34.25
565.971	34.53
566.312	34.8
566.653	35.1
566.993	35.4
567.334	35.67
567.675	35.94
568.015	36.19
568.356	36.46
568.696	36.77
569.037	37.08
569.377	37.35
569.718	37.64
570.058	38
570.398	38.27
570.739	38.55
571.079	38.88
571.419	39.14
571.759	39.46
572.099	39.76
572.439	40.02
572.779	40.29
573.119	40.54
573.459	40.79
573.799	41.05
574.139	41.33
574.479	41.61
574.819	41.85
575.158	42.14
575.498	42.36
575.838	42.61
576.177	42.83
576.517	43.11
576.856	43.34
577.196	43.55
577.535	43.74
577.875	43.97
578.214	44.18
578.553	44.42
578.893	44.61
579.232	44.89
579.571	45.19
579.91	45.47
580.25	45.74
580.589	45.97
580.928	46.24
581.267	46.44
581.606	46.66
581.945	46.91
582.283	47.08
582.622	47.37
582.961	47.54
583.3	47.79
583.639	48.04
583.977	48.28
584.316	48.52
584.654	48.81
584.993	49.05
585.332	49.22
585.67	49.49
586.008	49.76
586.347	49.89
586.685	50.01
587.024	50.14
587.362	50.36
587.7	50.6
588.038	50.72
588.376	50.96
588.715	51.24
589.053	51.39
589.391	51.55
589.729	51.63
590.067	51.82
590.404	51.98
590.742	52.13
591.08	52.38
591.418	52.54
591.756	52.72
592.093	53.01
592.431	53.25
592.769	53.36
593.106	53.53
593.444	53.69
593.781	53.93
594.119	54.13
594.456	54.22
594.793	54.32
595.131	54.47
595.468	54.6
595.805	54.6
596.143	54.78
596.48	54.96
596.817	55.19
597.154	55.3
597.491	55.37
597.828	55.43
598.165	55.51
598.502	55.56
598.839	55.76
599.176	55.78
599.512	55.91
599.849	56.11
600.186	56.27
600.523	56.38
600.859	56.53
601.196	56.66
601.532	56.86
601.869	57.05
602.205	57.16
602.542	57.27
602.878	57.4
603.215	57.48
603.551	57.6
603.887	57.7
604.223	57.74
604.56	57.89
604.896	58.09
605.232	58.19
605.568	58.37
605.904	58.34
606.24	58.49
606.576	58.56
606.912	58.61
607.248	58.6
607.583	58.76
607.919	58.76
608.255	58.84
608.591	58.88
608.926	58.92
609.262	59.03
609.597	59.05
609.933	59.2
610.268	59.26
610.604	59.22
610.939	59.31
611.275	59.48
611.61	59.56
611.945	59.48
612.281	59.58
612.616	59.62
612.951	59.76
613.286	59.77
613.621	59.82
613.956	59.9
614.291	60.07
614.626	60
614.961	60.14
615.296	60.22
615.631	60.28
615.966	60.33
616.3	60.34
616.635	60.53
616.97	60.54
617.304	60.69
617.639	60.91
617.973	60.93
618.308	61.02
618.642	61.04
618.977	61.19
619.311	61.23
619.646	61.27
619.98	61.33
620.314	61.42
620.648	61.53
620.983	61.58
621.317	61.69
621.651	61.81
621.985	61.82
622.319	61.79
622.653	61.84
622.987	61.92
623.321	62.03
623.655	61.98
623.988	62.04
624.322	62.02
624.656	62.01
624.99	61.93
625.323	61.97
625.657	62.09
625.99	62.07
626.324	62.06
626.657	62.13
626.991	62.24
627.324	62.25
627.658	62.18
627.991	62.25
628.324	62.23
628.657	62.29
628.991	62.4
629.324	62.53
629.657	62.54
629.99	62.49
630.323	62.45
630.656	62.49
630.989	62.54
631.322	62.64
631.655	62.67
631.987	62.85
632.32	62.76
632.653	62.73
632.986	62.78
633.318	62.78
633.651	62.7
633.984	62.64
634.316	62.71
634.649	62.81
634.981	62.8
635.313	62.86
635.646	62.87
635.978	62.77
636.31	62.71
636.643	62.75
636.975	62.87
637.307	63.05
637.639	63.01
637.971	62.97
638.303	62.89
638.635	62.95
638.967	62.92
639.299	62.91
639.631	63.05
639.963	63.12
640.295	63.13
640.626	63.26
640.958	63.34
641.29	63.39
641.621	63.44
641.953	63.46
642.285	63.53
642.616	63.49
642.948	63.52
643.279	63.6
643.61	63.55
643.942	63.49
644.273	63.38
644.604	63.45
644.936	63.52
645.267	63.58
645.598	63.58
645.929	63.57
646.26	63.78
646.591	63.68
646.922	63.66
647.253	63.79
647.584	63.79
647.915	63.77
648.245	63.7
648.576	63.68
648.907	63.79
649.238	63.73
649.568	63.89
649.899	63.95
650.229	63.99
650.56	64.13
650.89	64.22
651.221	64.21
651.551	64.19
651.882	64.23
652.212	64.28
652.542	64.2
652.872	64.29
653.203	64.28
653.533	64.28
653.863	64.48
654.193	64.43
654.523	64.49
654.853	64.51
655.183	64.65
655.513	64.66
655.843	64.56
656.172	64.4
656.502	64.38
656.832	64.42
657.162	64.47
657.491	64.46
657.821	64.35
658.15	64.5
658.48	64.62
658.809	64.58
659.139	64.59
659.468	64.71
659.798	64.67
660.127	64.69
660.456	64.7
660.785	64.6
661.115	64.6
661.444	64.64
661.773	64.68
662.102	64.61
662.431	64.69
662.76	64.68
663.089	64.88
663.418	64.82
663.747	64.9
664.076	64.77
664.404	64.7
664.733	64.83
665.062	64.87
665.39	64.95
665.719	65.03
666.048	65.16
666.376	65.16
666.705	65.37
667.033	65.32
667.362	65.31
667.69	65.31
668.018	65.37
668.347	65.35
668.675	65.28
669.003	65.36
669.331	65.38
669.659	65.47
669.987	65.4
670.315	65.52
670.643	65.57
670.971	65.69
671.299	65.71
671.627	65.63
671.955	65.62
672.283	65.5
672.61	65.51
672.938	65.38
673.266	65.39
673.593	65.31
673.921	65.33
674.249	65.33
674.576	65.39
674.904	65.27
675.231	65.19
675.558	65.33
675.886	65.18
676.213	65.12
676.54	65.07
676.867	65.12
677.195	65.09
677.522	64.96
677.849	65
678.176	65
678.503	65.24
678.83	65.13
679.157	65.31
679.484	65.4
679.81	65.49
680.137	65.58
680.464	65.46
680.791	65.42
681.117	65.61
681.444	65.49
681.771	65.64
682.097	65.69
682.424	65.58
682.75	65.66
683.077	65.64
683.403	65.71
683.729	65.72
684.056	65.81
684.382	65.9
684.708	65.72
685.034	65.76
685.36	65.74
685.686	65.82
686.012	65.69
686.339	65.59
686.664	65.63
686.99	65.59
687.316	65.63
687.642	65.79
687.968	65.72
688.294	65.8
688.619	65.82
688.945	65.85
689.271	65.92
689.596	65.94
689.922	66.04
690.247	66.06
690.573	65.99
690.898	65.85
691.224	65.82
691.549	66.04
691.874	66.17
692.2	65.93
692.525	66.01
692.85	65.95
693.175	65.91
693.5	65.67
693.825	65.64
694.15	65.68
694.475	65.63
694.8	65.51
695.125	65.43
695.45	65.33
695.775	65.27
696.099	65.37
696.424	65.32
696.749	65.34
697.073	65.33
697.398	65.43
697.723	65.46
698.047	65.54
698.372	65.57
698.696	65.64
699.02	65.72
699.345	65.62
699.669	65.63
699.993	65.66
700.318	65.71
700.642	65.71
700.966	65.66
701.29	65.77
701.614	65.86
701.938	66.06
702.262	66.07
702.586	66.01
702.91	65.93
703.234	65.99
703.557	65.96
703.881	65.85
704.205	65.9
704.529	65.89
704.852	65.83
705.176	65.43
705.499	65.23
705.823	65.3
706.146	65.3
706.47	65.31
706.793	65.52
707.117	65.63
707.44	65.5
707.763	65.69
708.086	65.54
708.409	65.38
708.733	65.23
709.056	65.2
709.379	65.54
709.702	65.79
710.025	65.85
710.348	65.98
710.671	66.11
710.993	65.98
711.316	66.12
711.639	66.07
711.962	66.34
712.284	66.39
712.607	66.32
712.93	66.29
713.252	66.44
713.575	66.18
713.897	66.19
714.22	66.24
714.542	66.2
714.864	66.19
715.187	66.36
715.509	66.36
715.831	66.4
716.153	66.24
716.475	66.13
716.798	66.19
717.12	66.02
717.442	65.99
717.764	66.24
718.085	66.35
718.407	66.33
718.729	66.25
719.051	66.53
719.373	66.61
719.695	66.62
720.016	66.64
720.338	66.64
720.659	66.73
720.981	66.76
721.302	66.76
721.624	66.88
721.945	66.96
722.267	67.09
722.588	67.28
722.909	67.44
723.231	67.26
723.552	67.09
723.873	67.27
724.194	67.21
724.515	66.91
724.836	66.6
725.157	66.89
725.478	66.94
725.799	66.69
726.12	66.54
726.441	66.8
726.762	66.68
727.083	66.74
727.403	66.67
727.724	66.71
728.045	66.5
728.365	66.27
728.686	66.12
729.006	66.16
729.327	66.15
729.647	65.98
729.967	65.92
730.288	66.02
730.608	65.82
730.928	65.97
731.249	66.32
731.569	66.5
731.889	66.48
732.209	66.36
732.529	66.5
732.849	66.6
733.169	66.42
733.489	66.25
733.809	66.34
734.129	66.22
734.448	65.95
734.768	66.25
735.088	66.44
735.408	66.29
735.727	66.2
736.047	66.23
736.366	66.51
736.686	66.63
737.005	66.61
737.325	66.84
737.644	66.64
737.963	66.18
738.283	66.13
738.602	66.16
738.921	66.4
739.24	66.23
739.56	66.38
739.879	66.53
740.198	66.77
740.517	66.89
740.836	67.05
741.155	67.54
741.473	67.39
741.792	67.29
742.111	67.47
742.43	67.39
742.748	67.5
743.067	67.31
743.386	67.46
743.704	67.48
744.023	67.23
744.341	67.35
744.66	67.39
744.978	67.61
745.297	67.41
745.615	67.54
745.933	67.44
746.252	67.62
746.57	67.55
746.888	67.56
747.206	67.37
747.524	67.27
747.842	66.71
748.16	67.09
748.478	67.55
748.796	67.96
749.114	68.4
749.432	67.9
749.749	67.8
750.067	67.62
750.385	67.78
750.703	67.81
751.02	67.59
751.338	67.61
751.655	67.12
751.973	67.24
752.29	66.77
752.608	66.99
752.925	66.6
753.242	66.66
753.56	66.9
753.877	66.9
754.194	66.88
754.511	67.23
754.828	67.06
755.145	66.6
755.462	66.07
755.779	65.79
756.096	65.99
756.413	66.03
756.73	65.81
757.047	65.55
757.364	65.54
757.68	65.91
757.997	66.2
758.314	66.7
758.63	66.7
758.947	67.45
759.264	67.32
759.58	67.7
759.896	67.47
760.213	67.52
760.529	67.48
760.846	67.42
761.162	67.55
761.478	67.42
761.794	67.21
762.11	67.29
762.426	67.25
762.743	67.41
763.059	67.39
763.375	67.45
763.69	67.57
764.006	67.7
764.322	67.79
764.638	67.58
764.954	67.52
765.27	67.41
765.585	67.28
765.901	67.28
766.216	66.92
766.532	67.01
766.848	66.69
767.163	66.92
767.478	66.95
767.794	66.8
768.109	66.51
768.424	66.83
768.74	66.73
769.055	66.79
769.37	66.72
769.685	66.84
770	66.8
770.315	66.35
770.63	66.32
770.945	66.02
771.26	66.16
771.575	66.17
771.89	65.91
772.205	65.73
772.52	65.33
772.834	65.78
773.149	65.95
773.464	65.95
773.778	65.95
774.093	66.08
774.407	66.05
774.722	66.64
775.036	66.1
775.351	65.92
775.665	65.87
775.979	65.43
776.293	64.64
776.608	64.72
776.922	65.27
777.236	65.5
777.55	65.6
777.864	65.42
778.178	65.13
778.492	64.97
778.806	64.66
779.12	65.27
779.434	64.97
779.747	64.92
780.061	64.95
780.375	64.62
780.689	64.6
781.002	64.65
781.316	64.65
781.629	64.69
781.943	65.05
782.256	65.06
782.57	65.43
782.883	65.83
783.196	66.2
783.51	65.9
783.823	65.77
784.136	65.57
784.449	65.29
784.762	65.36
785.075	66.3
785.388	66.69
785.701	66.91
786.014	66.8
786.327	66.65
786.64	66.24
786.953	65.96
787.266	65.64
787.578	65.69
787.891	65.56
788.204	65.49
788.516	65.59
788.829	65.32
789.141	65.2
789.454	65.82
789.766	65.55
790.079	66.03
790.391	66.13
790.703	66.24
791.016	66.87
791.328	66.69
791.64	65.92
791.952	66.03
792.264	65.75
792.576	65.77
792.888	65.46
793.2	65.78
793.512	65.84
793.824	66.12
794.136	65.85
794.448	65.68
794.76	66.56
795.071	66.42
795.383	66.48
795.695	66.81
796.006	66.33
796.318	65.96
796.629	65.06
796.941	64.48
797.252	64.77
797.564	64.46
797.875	64.25
798.186	64.66
798.497	64.51
798.809	64.25
799.12	63.67
799.431	64.01
799.742	63.89
800.053	64.18
800.364	64.04
800.675	63.26
800.986	62.87
801.297	62.24
801.608	62.45
801.918	62.97
802.229	62.19
802.54	62.69
802.851	63.21
803.161	64.01
803.472	64.49
803.782	64.44
804.093	64.55
804.403	64.94
804.714	65.48
805.024	65.59
805.334	65.62
805.645	66.36
805.955	66.29
806.265	66.47
806.575	66.36
806.885	66.89
807.195	68.33
807.505	68.36
807.815	68.44
808.125	68.18
808.435	67.41
808.745	67.81
809.055	67.74
809.365	67.97
809.674	67.83
809.984	67.88
810.294	67.59
810.603	67.34
810.913	66.92
811.222	66.3
811.532	65.46
811.841	65.71
812.151	65.44
812.46	65.43
812.769	65.67
813.079	65.37
813.388	65.06
813.697	64.68
814.006	64.95
814.315	65.42
814.624	65.81
814.933	66.54
815.242	66.99
815.551	66.96
815.86	66.42
816.169	65.64
816.478	64.84
816.786	64.64
817.095	64.84
817.404	64.47
817.712	64.86
818.021	65.04
818.33	64.83
818.638	65.03
818.947	65.29
819.255	65.79
819.563	66.36
819.872	66.38
820.18	66.7
820.488	66.52
820.796	66.72
821.105	66.6
821.413	66.66
821.721	66.6
822.029	66.57
822.337	66.84
822.645	67.35
822.953	67.51
823.26	67.51
823.568	67.55
823.876	67.88
824.184	67.78
824.491	67.82
824.799	67.86
825.107	67.87
825.414	67.79
825.722	67.69
826.029	67.53
826.337	67.48
826.644	67.6
826.951	67.96
827.259	67.76
827.566	67.83
827.873	67.44
828.18	67.59
828.488	67.77
828.795	67.48
829.102	66.83
829.409	66.91
829.716	66.85
830.023	66.72
830.329	66.47
830.636	66.3
830.943	66.52
831.25	66.52
831.557	66.48
831.863	66.61
832.17	66.66
832.476	66.94
832.783	67.34
833.089	66.83
833.396	66.61
833.702	66.53
834.009	66.37
834.315	67.4
834.621	67.76
834.928	67.44
835.234	67.54
835.54	68.2
835.846	67.68
836.152	67.78
836.458	67.88
836.764	68.33
837.07	68.24
837.376	67.86
837.682	67.45
837.988	67.68
838.293	67.86
838.599	67.62
838.905	67.56
839.211	66.93
839.516	66.58
839.822	66.01
840.127	66.23
840.433	66.7
840.738	65.94
841.044	65.46
841.349	66.51
841.654	65.8
841.959	64.96
842.265	65.62
842.57	65.48
842.875	64.34
843.18	63.45
843.485	64.62
843.79	65.02
844.095	66.87
844.4	66.5
844.705	66.37
845.01	65.96
845.315	65.14
845.619	65.25
845.924	65.48
846.229	67.15
846.533	68.53
846.838	67.23
847.142	66.28
847.447	64.53
847.751	61.91
848.056	62.75
848.36	62.89
848.664	63.81
848.969	62.88
849.273	63.91
849.577	63.93
849.881	61.89
850.185	61.56
850.489	60.36
850.794	60.19
851.097	59.84
851.401	60.2
851.705	61.23
852.009	61.58
852.313	61.06
852.617	58.6
852.92	59.88
853.224	60.33
853.528	60.16
853.831	62.67
854.135	62.35
854.438	62.01
854.742	61.18
855.045	58.88
855.349	61.1
855.652	60.72
855.955	59.92
856.259	60.52
856.562	59.31
856.865	58.85
857.168	58.64
857.471	60.87
857.774	59.83
858.077	59.86
858.38	61.46
858.683	64.86
858.986	68.11
859.289	63.27
859.592	66.4
859.894	69.06
860.197	68.21
860.5	69.7
860.802	71.06
861.105	70.94
861.407	71.12
861.71	69.79
862.012	72.96
862.315	72.78
862.617	72.38
862.919	73.2
863.222	73.3
863.524	73.7
863.826	70.85
864.128	71.86
864.43	71.56
864.732	70.64
865.034	68.92
865.336	64.92
865.638	67.28
865.94	63.03
866.242	62.07
866.544	60.25
866.846	60.27
867.147	59.81
867.449	59.72
867.751	59.94
868.052	59.89
868.354	59.82
868.655	59.41
868.957	58.53
869.258	58.6
869.56	59.01
869.861	58.73
870.162	57.77
870.463	59.67
870.765	59.59
871.066	58.52
871.367	58.76
871.668	59.12
871.969	59.8
872.27	59.82
872.571	59.9
872.872	61.06
873.173	60.07
873.473	60.09
873.774	60.47
874.075	59.58
874.376	60.77
874.676	59.26
874.977	62.01
875.277	62.81
875.578	62.42
875.878	61.59
876.179	62.31
876.479	63.44
876.78	60.71
877.08	60.31
877.38	60.5
877.68	59
877.981	60.59
878.281	58.13
878.581	61.01
