Data from BU57653_Reflection_00005.txt Node
Date: Mon Nov 18 16:52:05 EST 2019
User: vgr7
Spectrometer: USB2G7710
Scans to average: 3
Trigger mode: 4
Integration Time (sec): 2.000000E-2
Electric dark correction enabled: true
Boxcar width: 10
XAxis mode: Wavelengths
Number of Pixels in Spectrum: 2048
>>>>>Begin Spectral Data<<<<<
177.721	166.73
178.105	201.6
178.488	103.52
178.871	61.33
179.254	24.21
179.636	79.62
180.019	32.63
180.402	126.67
180.785	110.54
181.168	179.9
181.55	168.37
181.933	140
182.316	168.47
182.698	139.47
183.081	142.35
183.463	803.42
183.846	330.29
184.228	359.8
184.611	344.09
184.993	778.93
185.376	-1545.67
185.758	1286.34
186.14	1957.14
186.522	-397.45
186.904	-211.81
187.287	-371.24
187.669	-219.21
188.051	-564.46
188.433	-602.82
188.815	-250.11
189.197	-182.71
189.579	-115.22
189.961	-104.5
190.342	-80.26
190.724	-52.22
191.106	-81.78
191.488	-77.37
191.869	-76.95
192.251	-67.58
192.633	-80.27
193.014	-80.38
193.396	-113.5
193.777	-92.7
194.159	-98.3
194.54	-104.99
194.922	-68.91
195.303	-63.73
195.684	-55.85
196.065	-11.97
196.447	-34.4
196.828	-30.02
197.209	-30.71
197.59	-22.69
197.971	-27.46
198.352	-7.85
198.733	-22.14
199.114	-3.53
199.495	11.46
199.876	22.76
200.257	17.14
200.638	31.49
201.018	30.69
201.399	40.34
201.78	41.66
202.16	60.17
202.541	47.1
202.922	42.71
203.302	31.47
203.683	8.23
204.063	-9.55
204.444	-19.39
204.824	-37.5
205.204	-76.14
205.585	-102.71
205.965	-112.04
206.345	-166.35
206.725	-238.22
207.106	-1633.73
207.486	-10251.35
207.866	582.32
208.246	1396.58
208.626	-1364.73
209.006	-257.47
209.386	-267.33
209.766	-286.22
210.145	-173.68
210.525	-113.14
210.905	-70.01
211.285	-47.13
211.664	-41.45
212.044	-40.32
212.424	-6.44
212.803	-1.14
213.183	23.92
213.562	16.42
213.942	18.52
214.321	37.01
214.701	33.48
215.08	21.81
215.459	43.99
215.838	41.1
216.218	48.14
216.597	41.45
216.976	36.51
217.355	59.6
217.734	66.93
218.113	98.71
218.492	86.07
218.871	113.67
219.25	81.79
219.629	67.76
220.008	62
220.387	49.6
220.766	41.86
221.144	52.35
221.523	38.54
221.902	24.74
222.28	16.38
222.659	25.61
223.037	44.25
223.416	30.82
223.794	34.79
224.173	32.59
224.551	25.48
224.929	23.75
225.308	20.97
225.686	19.14
226.064	12.87
226.442	16.9
226.821	18.12
227.199	17.14
227.577	13.7
227.955	15.74
228.333	14.91
228.711	15.71
229.089	17.46
229.467	15.97
229.845	17
230.222	17.14
230.6	13.25
230.978	10.95
231.356	12.13
231.733	10.09
232.111	11.17
232.488	12
232.866	12.38
233.243	11.26
233.621	10.23
233.998	10.94
234.376	9.03
234.753	5.93
235.13	5.09
235.508	5.62
235.885	4.19
236.262	4.36
236.639	3.68
237.016	3.69
237.393	4.58
237.77	5.25
238.147	5.56
238.524	5.61
238.901	5.38
239.278	5
239.655	5.72
240.032	5.19
240.409	4.33
240.785	4.5
241.162	4.44
241.539	4.36
241.915	3.92
242.292	3.99
242.668	4.11
243.045	4.23
243.421	4.44
243.798	4.38
244.174	4.29
244.551	4.45
244.927	4.25
245.303	4.61
245.679	4.48
246.056	4.31
246.432	4.43
246.808	4.49
247.184	4.36
247.56	4.26
247.936	4.12
248.312	4.18
248.688	4.11
249.064	4.14
249.44	4.26
249.815	4.2
250.191	4.32
250.567	4.28
250.943	4.31
251.318	4.35
251.694	4.39
252.069	4.51
252.445	4.24
252.82	4.11
253.196	3.55
253.571	3.56
253.947	3.7
254.322	3.57
254.697	3.36
255.073	3.41
255.448	3.18
255.823	3.45
256.198	3.53
256.573	3.43
256.948	3.29
257.323	3.34
257.698	3.46
258.073	3.33
258.448	3.25
258.823	3.13
259.198	3.15
259.573	3.13
259.948	3.04
260.322	3.18
260.697	3.09
261.072	3.11
261.446	3.08
261.821	2.98
262.195	3.15
262.57	3.31
262.944	3.38
263.319	3.52
263.693	3.54
264.067	3.67
264.442	3.75
264.816	3.88
265.19	3.76
265.564	3.73
265.938	3.73
266.313	3.79
266.687	3.88
267.061	3.81
267.435	3.77
267.809	3.87
268.183	3.87
268.556	4.02
268.93	4.1
269.304	4.05
269.678	4.04
270.051	3.75
270.425	3.53
270.799	3.51
271.172	3.43
271.546	3.32
271.919	3.34
272.293	3.26
272.666	3.39
273.04	3.37
273.413	3.35
273.787	3.44
274.16	3.46
274.533	3.43
274.906	3.45
275.279	3.43
275.653	3.27
276.026	3.19
276.399	3.12
276.772	3.22
277.145	3.26
277.518	3.32
277.891	3.44
278.263	3.52
278.636	3.39
279.009	3.38
279.382	3.58
279.755	3.44
280.127	3.55
280.5	3.43
280.872	3.47
281.245	3.41
281.617	3.28
281.99	3.42
282.362	3.54
282.735	3.39
283.107	3.41
283.479	3.52
283.852	3.57
284.224	3.6
284.596	3.52
284.968	3.44
285.34	3.49
285.713	3.44
286.085	3.48
286.457	3.45
286.829	3.44
287.201	3.25
287.572	3.25
287.944	3.18
288.316	3.1
288.688	3.08
289.06	3.04
289.431	3.1
289.803	3.09
290.175	3.06
290.546	3.14
290.918	3.11
291.289	3.15
291.661	3.21
292.032	3.16
292.403	3.17
292.775	3.33
293.146	3.24
293.517	3.18
293.889	3.22
294.26	3.33
294.631	3.36
295.002	3.44
295.373	3.32
295.744	3.37
296.115	3.46
296.486	3.41
296.857	3.44
297.228	3.4
297.599	3.34
297.97	3.27
298.34	3.34
298.711	3.4
299.082	3.37
299.452	3.26
299.823	3.38
300.194	3.38
300.564	3.27
300.935	3.26
301.305	3.34
301.676	3.32
302.046	3.28
302.416	3.34
302.787	3.25
303.157	3.37
303.527	3.42
303.897	3.26
304.267	3.44
304.637	3.53
305.008	3.63
305.378	3.66
305.748	3.6
306.117	3.5
306.487	3.53
306.857	3.59
307.227	3.69
307.597	3.5
307.967	3.52
308.336	3.56
308.706	3.57
309.076	3.59
309.445	3.53
309.815	3.44
310.184	3.35
310.554	3.42
310.923	3.44
311.293	3.39
311.662	3.41
312.031	3.23
312.401	3.19
312.77	3.2
313.139	3.2
313.508	3.23
313.877	3.22
314.246	3.08
314.616	3
314.985	2.98
315.353	3.11
315.722	3.06
316.091	3.01
316.46	2.98
316.829	2.99
317.198	3.09
317.567	3.16
317.935	3.1
318.304	3.14
318.672	3.07
319.041	2.93
319.41	2.82
319.778	2.8
320.147	2.82
320.515	2.72
320.883	2.59
321.252	2.6
321.62	2.58
321.988	2.74
322.357	2.6
322.725	2.59
323.093	2.56
323.461	2.55
323.829	2.51
324.197	2.5
324.565	2.54
324.933	2.44
325.301	2.53
325.669	2.63
326.037	2.61
326.405	2.66
326.772	2.79
327.14	3
327.508	2.98
327.875	2.96
328.243	3.01
328.61	3.09
328.978	3.2
329.346	3.27
329.713	3.08
330.08	3.31
330.448	3.29
330.815	3.21
331.182	3.22
331.55	3.16
331.917	3.26
332.284	3.28
332.651	3.19
333.018	3.18
333.385	3.22
333.752	3.14
334.119	3.2
334.486	2.99
334.853	2.92
335.22	2.99
335.587	3.07
335.954	2.99
336.32	2.98
336.687	2.84
337.054	2.91
337.42	3
337.787	2.97
338.153	2.96
338.52	3.08
338.886	3.04
339.253	3.1
339.619	3.04
339.986	2.97
340.352	3.11
340.718	3.11
341.084	3.06
341.451	3.13
341.817	3.09
342.183	3.16
342.549	3.17
342.915	3.19
343.281	3.15
343.647	3.19
344.013	3.22
344.379	3.29
344.745	3.25
345.11	3.24
345.476	3.26
345.842	3.2
346.208	3.21
346.573	3.19
346.939	3.27
347.304	3.37
347.67	3.27
348.035	3.16
348.401	3.12
348.766	3.14
349.132	3.11
349.497	3.04
349.862	3.12
350.228	3.09
350.593	3.1
350.958	3.06
351.323	3.06
351.688	3.06
352.053	3.11
352.418	3.08
352.783	3.05
353.148	2.99
353.513	3.03
353.878	2.97
354.243	3.05
354.608	3.07
354.972	3.06
355.337	3.14
355.702	3.26
356.066	3.34
356.431	3.32
356.795	3.3
357.16	3.29
357.524	3.23
357.889	3.2
358.253	3.24
358.618	3.19
358.982	3.2
359.346	3.14
359.71	3.07
360.075	3.13
360.439	3.14
360.803	3.12
361.167	3.12
361.531	3.1
361.895	3.04
362.259	3.01
362.623	3.01
362.987	3.03
363.351	3
363.714	2.99
364.078	2.95
364.442	2.89
364.806	2.91
365.169	2.94
365.533	2.96
365.896	2.95
366.26	3.01
366.623	3.01
366.987	3.11
367.35	3.1
367.714	3.08
368.077	3.17
368.44	3.19
368.803	3.18
369.167	3.25
369.53	3.24
369.893	3.25
370.256	3.19
370.619	3.17
370.982	3.17
371.345	3.12
371.708	3.15
372.071	3.24
372.434	3.25
372.797	3.29
373.159	3.31
373.522	3.27
373.885	3.23
374.247	3.23
374.61	3.15
374.973	3.08
375.335	3.06
375.698	3.04
376.06	3
376.423	2.95
376.785	2.89
377.147	2.94
377.51	2.91
377.872	2.94
378.234	2.94
378.596	2.89
378.958	2.87
379.321	2.82
379.683	2.77
380.045	2.77
380.407	2.69
380.769	2.65
381.13	2.68
381.492	2.66
381.854	2.68
382.216	2.73
382.578	2.82
382.939	2.79
383.301	2.76
383.663	2.78
384.024	2.88
384.386	2.95
384.747	2.92
385.109	2.92
385.47	2.89
385.832	2.91
386.193	2.91
386.554	2.9
386.916	2.93
387.277	2.97
387.638	2.94
387.999	2.99
388.36	3
388.721	2.95
389.082	2.98
389.443	2.91
389.804	2.88
390.165	2.87
390.526	2.87
390.887	2.88
391.248	2.9
391.609	2.88
391.969	2.86
392.33	2.9
392.691	2.87
393.051	2.87
393.412	2.87
393.772	2.86
394.133	2.88
394.493	2.91
394.854	2.87
395.214	2.87
395.574	2.87
395.935	2.86
396.295	2.9
396.655	2.91
397.015	2.95
397.376	2.98
397.736	2.98
398.096	3.02
398.456	3.04
398.816	3.01
399.176	2.96
399.535	2.91
399.895	2.87
400.255	2.91
400.615	2.89
400.975	2.87
401.334	2.88
401.694	2.9
402.054	2.9
402.413	2.92
402.773	2.91
403.132	2.89
403.492	2.93
403.851	2.94
404.211	2.94
404.57	2.92
404.929	2.9
405.288	2.89
405.648	2.85
406.007	2.82
406.366	2.85
406.725	2.87
407.084	2.89
407.443	2.9
407.802	2.9
408.161	2.9
408.52	2.91
408.879	2.9
409.238	2.89
409.596	2.9
409.955	2.88
410.314	2.91
410.673	2.89
411.031	2.84
411.39	2.81
411.748	2.79
412.107	2.79
412.465	2.79
412.824	2.78
413.182	2.77
413.54	2.78
413.899	2.76
414.257	2.78
414.615	2.79
414.974	2.8
415.332	2.81
415.69	2.83
416.048	2.84
416.406	2.85
416.764	2.85
417.122	2.83
417.48	2.84
417.838	2.84
418.195	2.86
418.553	2.86
418.911	2.88
419.269	2.9
419.626	2.89
419.984	2.89
420.342	2.91
420.699	2.91
421.057	2.92
421.414	2.91
421.772	2.9
422.129	2.9
422.486	2.9
422.844	2.91
423.201	2.9
423.558	2.9
423.915	2.9
424.273	2.89
424.63	2.89
424.987	2.89
425.344	2.89
425.701	2.88
426.058	2.88
426.415	2.87
426.772	2.86
427.128	2.86
427.485	2.87
427.842	2.87
428.199	2.89
428.555	2.87
428.912	2.89
429.269	2.9
429.625	2.88
429.982	2.87
430.338	2.85
430.695	2.85
431.051	2.84
431.407	2.86
431.764	2.86
432.12	2.85
432.476	2.85
432.832	2.85
433.189	2.84
433.545	2.86
433.901	2.85
434.257	2.85
434.613	2.87
434.969	2.85
435.325	2.85
435.681	2.85
436.036	2.85
436.392	2.84
436.748	2.83
437.104	2.84
437.459	2.86
437.815	2.86
438.171	2.86
438.526	2.86
438.882	2.84
439.237	2.83
439.593	2.85
439.948	2.83
440.304	2.83
440.659	2.84
441.014	2.85
441.369	2.85
441.725	2.84
442.08	2.83
442.435	2.83
442.79	2.83
443.145	2.81
443.5	2.81
443.855	2.8
444.21	2.8
444.565	2.8
444.92	2.81
445.275	2.8
445.629	2.81
445.984	2.8
446.339	2.8
446.693	2.8
447.048	2.78
447.403	2.8
447.757	2.79
448.112	2.79
448.466	2.78
448.82	2.77
449.175	2.79
449.529	2.78
449.883	2.78
450.238	2.79
450.592	2.8
450.946	2.79
451.3	2.8
451.654	2.79
452.008	2.81
452.362	2.79
452.716	2.8
453.07	2.81
453.424	2.82
453.778	2.82
454.132	2.84
454.486	2.85
454.839	2.85
455.193	2.86
455.547	2.86
455.9	2.87
456.254	2.89
456.607	2.89
456.961	2.89
457.314	2.88
457.668	2.86
458.021	2.86
458.375	2.86
458.728	2.88
459.081	2.88
459.434	2.85
459.787	2.85
460.141	2.84
460.494	2.85
460.847	2.84
461.2	2.84
461.553	2.83
461.906	2.83
462.259	2.84
462.611	2.87
462.964	2.88
463.317	2.87
463.67	2.87
464.022	2.86
464.375	2.86
464.728	2.88
465.08	2.89
465.433	2.9
465.785	2.9
466.138	2.87
466.49	2.89
466.843	2.91
467.195	2.92
467.547	2.93
467.899	2.91
468.252	2.9
468.604	2.9
468.956	2.9
469.308	2.9
469.66	2.9
470.012	2.87
470.364	2.86
470.716	2.87
471.068	2.85
471.42	2.84
471.772	2.85
472.123	2.85
472.475	2.84
472.827	2.84
473.178	2.83
473.53	2.83
473.882	2.83
474.233	2.82
474.585	2.83
474.936	2.81
475.288	2.8
475.639	2.83
475.99	2.84
476.342	2.86
476.693	2.87
477.044	2.87
477.395	2.88
477.746	2.88
478.097	2.88
478.448	2.89
478.8	2.88
479.15	2.85
479.501	2.85
479.852	2.87
480.203	2.88
480.554	2.9
480.905	2.91
481.255	2.91
481.606	2.91
481.957	2.92
482.307	2.93
482.658	2.94
483.009	2.94
483.359	2.95
483.709	2.95
484.06	2.94
484.41	2.95
484.761	2.95
485.111	2.96
485.461	2.96
485.811	2.96
486.162	2.97
486.512	2.98
486.862	2.98
487.212	2.98
487.562	2.97
487.912	2.97
488.262	2.96
488.612	2.97
488.961	2.98
489.311	2.98
489.661	2.97
490.011	2.97
490.36	2.96
490.71	2.96
491.06	2.95
491.409	2.94
491.759	2.94
492.108	2.94
492.458	2.93
492.807	2.92
493.157	2.93
493.506	2.94
493.855	2.93
494.204	2.94
494.554	2.94
494.903	2.95
495.252	2.95
495.601	2.97
495.95	2.97
496.299	2.96
496.648	2.96
496.997	2.96
497.346	2.96
497.695	2.97
498.043	2.97
498.392	2.99
498.741	3
499.09	2.99
499.438	3
499.787	3.02
500.135	3.05
500.484	3.06
500.832	3.06
501.181	3.07
501.529	3.06
501.878	3.07
502.226	3.07
502.574	3.08
502.923	3.07
503.271	3.07
503.619	3.09
503.967	3.11
504.315	3.1
504.663	3.11
505.011	3.12
505.359	3.09
505.707	3.08
506.055	3.09
506.403	3.1
506.751	3.09
507.098	3.08
507.446	3.09
507.794	3.07
508.141	3.06
508.489	3.08
508.837	3.09
509.184	3.09
509.531	3.09
509.879	3.09
510.226	3.1
510.574	3.09
510.921	3.09
511.268	3.09
511.616	3.12
511.963	3.12
512.31	3.12
512.657	3.15
513.004	3.16
513.351	3.18
513.698	3.17
514.045	3.18
514.392	3.19
514.739	3.18
515.086	3.2
515.432	3.2
515.779	3.19
516.126	3.2
516.473	3.22
516.819	3.24
517.166	3.26
517.512	3.28
517.859	3.31
518.205	3.32
518.552	3.32
518.898	3.32
519.245	3.33
519.591	3.34
519.937	3.31
520.283	3.31
520.629	3.31
520.976	3.33
521.322	3.32
521.668	3.31
522.014	3.34
522.36	3.35
522.706	3.35
523.052	3.36
523.398	3.37
523.743	3.37
524.089	3.37
524.435	3.35
524.781	3.33
525.126	3.33
525.472	3.34
525.817	3.34
526.163	3.34
526.509	3.34
526.854	3.35
527.199	3.38
527.545	3.37
527.89	3.36
528.235	3.36
528.581	3.38
528.926	3.38
529.271	3.38
529.616	3.38
529.961	3.38
530.306	3.38
530.651	3.37
530.996	3.38
531.341	3.37
531.686	3.39
532.031	3.4
532.376	3.4
532.721	3.4
533.065	3.4
533.41	3.41
533.755	3.41
534.099	3.41
534.444	3.41
534.788	3.44
535.133	3.46
535.477	3.48
535.822	3.47
536.166	3.48
536.51	3.49
536.855	3.48
537.199	3.5
537.543	3.51
537.887	3.52
538.231	3.51
538.576	3.52
538.92	3.51
539.264	3.51
539.608	3.51
539.951	3.5
540.295	3.5
540.639	3.49
540.983	3.5
541.327	3.5
541.671	3.47
542.014	3.47
542.358	3.46
542.701	3.45
543.045	3.44
543.389	3.44
543.732	3.44
544.075	3.47
544.419	3.45
544.762	3.46
545.105	3.47
545.449	3.48
545.792	3.49
546.135	3.5
546.478	3.5
546.821	3.51
547.165	3.52
547.508	3.55
547.851	3.56
548.194	3.54
548.536	3.57
548.879	3.59
549.222	3.59
549.565	3.61
549.908	3.62
550.25	3.64
550.593	3.64
550.936	3.61
551.278	3.6
551.621	3.63
551.963	3.61
552.306	3.61
552.648	3.59
552.991	3.61
553.333	3.63
553.675	3.62
554.017	3.61
554.36	3.61
554.702	3.6
555.044	3.61
555.386	3.62
555.728	3.6
556.07	3.63
556.412	3.66
556.754	3.64
557.096	3.61
557.438	3.58
557.78	3.58
558.121	3.59
558.463	3.58
558.805	3.56
559.147	3.55
559.488	3.51
559.83	3.5
560.171	3.48
560.513	3.5
560.854	3.51
561.196	3.5
561.537	3.51
561.878	3.47
562.22	3.45
562.561	3.46
562.902	3.47
563.243	3.44
563.584	3.44
563.925	3.44
564.266	3.44
564.607	3.45
564.948	3.47
565.289	3.48
565.63	3.47
565.971	3.44
566.312	3.46
566.653	3.48
566.993	3.49
567.334	3.48
567.675	3.44
568.015	3.44
568.356	3.44
568.696	3.44
569.037	3.46
569.377	3.47
569.718	3.46
570.058	3.47
570.398	3.46
570.739	3.44
571.079	3.47
571.419	3.52
571.759	3.54
572.099	3.52
572.439	3.5
572.779	3.52
573.119	3.56
573.459	3.57
573.799	3.6
574.139	3.6
574.479	3.58
574.819	3.6
575.158	3.58
575.498	3.6
575.838	3.59
576.177	3.58
576.517	3.58
576.856	3.59
577.196	3.57
577.535	3.56
577.875	3.56
578.214	3.54
578.553	3.5
578.893	3.48
579.232	3.44
579.571	3.46
579.91	3.43
580.25	3.41
580.589	3.38
580.928	3.38
581.267	3.36
581.606	3.37
581.945	3.34
582.283	3.38
582.622	3.37
582.961	3.38
583.3	3.4
583.639	3.4
583.977	3.41
584.316	3.42
584.654	3.44
584.993	3.45
585.332	3.45
585.67	3.43
586.008	3.46
586.347	3.48
586.685	3.5
587.024	3.49
587.362	3.53
587.7	3.56
588.038	3.53
588.376	3.55
588.715	3.57
589.053	3.61
589.391	3.61
589.729	3.58
590.067	3.58
590.404	3.56
590.742	3.57
591.08	3.53
591.418	3.55
591.756	3.56
592.093	3.58
592.431	3.58
592.769	3.6
593.106	3.6
593.444	3.6
593.781	3.58
594.119	3.62
594.456	3.61
594.793	3.57
595.131	3.57
595.468	3.57
595.805	3.54
596.143	3.52
596.48	3.5
596.817	3.51
597.154	3.51
597.491	3.51
597.828	3.5
598.165	3.53
598.502	3.48
598.839	3.48
599.176	3.46
599.512	3.45
599.849	3.46
600.186	3.46
600.523	3.48
600.859	3.5
601.196	3.47
601.532	3.47
601.869	3.49
602.205	3.5
602.542	3.51
602.878	3.53
603.215	3.54
603.551	3.57
603.887	3.6
604.223	3.58
604.56	3.62
604.896	3.62
605.232	3.66
605.568	3.69
605.904	3.69
606.24	3.72
606.576	3.73
606.912	3.73
607.248	3.71
607.583	3.7
607.919	3.68
608.255	3.7
608.591	3.72
608.926	3.73
609.262	3.74
609.597	3.76
609.933	3.77
610.268	3.76
610.604	3.76
610.939	3.74
611.275	3.75
611.61	3.74
611.945	3.71
612.281	3.68
612.616	3.68
612.951	3.69
613.286	3.66
613.621	3.64
613.956	3.66
614.291	3.69
614.626	3.69
614.961	3.72
615.296	3.73
615.631	3.73
615.966	3.77
616.3	3.74
616.635	3.8
616.97	3.8
617.304	3.82
617.639	3.82
617.973	3.84
618.308	3.84
618.642	3.81
618.977	3.84
619.311	3.81
619.646	3.83
619.98	3.8
620.314	3.81
620.648	3.84
620.983	3.81
621.317	3.83
621.651	3.84
621.985	3.82
622.319	3.83
622.653	3.85
622.987	3.79
623.321	3.8
623.655	3.76
623.988	3.82
624.322	3.81
624.656	3.84
624.99	3.84
625.323	3.87
625.657	3.9
625.99	3.91
626.324	3.91
626.657	3.87
626.991	3.9
627.324	3.88
627.658	3.91
627.991	3.95
628.324	3.93
628.657	3.95
628.991	3.95
629.324	3.91
629.657	3.87
629.99	3.9
630.323	3.89
630.656	3.9
630.989	3.88
631.322	3.86
631.655	3.83
631.987	3.85
632.32	3.84
632.653	3.87
632.986	3.87
633.318	3.91
633.651	3.9
633.984	3.93
634.316	3.93
634.649	3.87
634.981	3.82
635.313	3.82
635.646	3.81
635.978	3.83
636.31	3.86
636.643	3.91
636.975	3.89
637.307	3.91
637.639	3.89
637.971	3.81
638.303	3.82
638.635	3.8
638.967	3.76
639.299	3.75
639.631	3.69
639.963	3.65
640.295	3.63
640.626	3.63
640.958	3.62
641.29	3.66
641.621	3.7
641.953	3.74
642.285	3.75
642.616	3.73
642.948	3.71
643.279	3.73
643.61	3.72
643.942	3.68
644.273	3.7
644.604	3.71
644.936	3.73
645.267	3.72
645.598	3.72
645.929	3.73
646.26	3.77
646.591	3.8
646.922	3.77
647.253	3.77
647.584	3.8
647.915	3.81
648.245	3.78
648.576	3.83
648.907	3.82
649.238	3.8
649.568	3.82
649.899	3.82
650.229	3.8
650.56	3.81
650.89	3.86
651.221	3.86
651.551	3.82
651.882	3.87
652.212	3.91
652.542	3.95
652.872	3.95
653.203	3.91
653.533	3.93
653.863	4.04
654.193	4.04
654.523	4.09
654.853	4.06
655.183	4.07
655.513	4.01
655.843	3.94
656.172	3.91
656.502	3.87
656.832	3.88
657.162	3.92
657.491	3.86
657.821	3.85
658.15	3.84
658.48	3.87
658.809	3.87
659.139	3.85
659.468	3.73
659.798	3.77
660.127	3.79
660.456	3.79
660.785	3.74
661.115	3.76
661.444	3.65
661.773	3.68
662.102	3.65
662.431	3.67
662.76	3.68
663.089	3.68
663.418	3.65
663.747	3.66
664.076	3.65
664.404	3.7
664.733	3.72
665.062	3.72
665.39	3.71
665.719	3.65
666.048	3.7
666.376	3.82
666.705	3.74
667.033	3.71
667.362	3.64
667.69	3.61
668.018	3.58
668.347	3.68
668.675	3.72
669.003	3.78
669.331	3.76
669.659	3.86
669.987	3.84
670.315	3.91
670.643	3.92
670.971	3.91
671.299	3.88
671.627	3.9
671.955	3.84
672.283	3.87
672.61	3.9
672.938	3.92
673.266	3.89
673.593	3.98
673.921	3.95
674.249	4.05
674.576	4.02
674.904	4.06
675.231	4.09
675.558	4.09
675.886	4.02
676.213	4.02
676.54	4.03
676.867	4.16
677.195	4.11
677.522	4.11
677.849	4.07
678.176	4.07
678.503	4
678.83	4
679.157	4
679.484	3.97
679.81	3.99
680.137	3.96
680.464	3.89
680.791	3.91
681.117	3.85
681.444	3.89
681.771	3.92
682.097	3.85
682.424	3.85
682.75	3.85
683.077	3.87
683.403	3.82
683.729	3.69
684.056	3.76
684.382	3.77
684.708	3.8
685.034	3.75
685.36	3.85
685.686	3.81
686.012	3.78
686.339	3.78
686.664	3.71
686.99	3.77
687.316	3.81
687.642	3.89
687.968	3.96
688.294	4.06
688.619	4.04
688.945	4.05
689.271	3.98
689.596	3.95
689.922	3.99
690.247	4.01
690.573	4.14
690.898	4.16
691.224	4.15
691.549	4.17
691.874	4.18
692.2	4.19
692.525	4.35
692.85	4.41
693.175	4.48
693.5	4.52
693.825	4.51
694.15	4.49
694.475	4.36
694.8	4.28
695.125	4.18
695.45	4.09
695.775	4.14
696.099	4.13
696.424	4.18
696.749	4.04
697.073	4.08
697.398	4.08
697.723	4.07
698.047	4.04
698.372	3.97
698.696	4.02
699.02	3.95
699.345	3.88
699.669	3.99
699.993	3.91
700.318	3.93
700.642	3.93
700.966	3.99
701.29	4.13
701.614	4.16
701.938	4.22
702.262	4.33
702.586	4.34
702.91	4.37
703.234	4.46
703.557	4.67
703.881	4.63
704.205	4.65
704.529	4.61
704.852	4.67
705.176	4.75
705.499	4.83
705.823	4.79
706.146	4.86
706.47	4.67
706.793	4.69
707.117	4.63
707.44	4.54
707.763	4.41
708.086	4.29
708.409	4.34
708.733	4.38
709.056	4.21
709.379	4.12
709.702	4.15
710.025	4.13
710.348	4.02
710.671	4.01
710.993	4.09
711.316	4.04
711.639	4.24
711.962	4.23
712.284	4.17
712.607	4.2
712.93	4.21
713.252	4.21
713.575	4.26
713.897	4.42
714.22	4.46
714.542	4.56
714.864	4.64
715.187	4.62
715.509	4.63
715.831	4.75
716.153	4.8
716.475	4.77
716.798	4.71
717.12	4.7
717.442	4.9
717.764	4.68
718.085	4.64
718.407	4.4
718.729	4.3
719.051	4.32
719.373	4.41
719.695	4.44
720.016	4.32
720.338	4.24
720.659	4.15
720.981	4.1
721.302	4.09
721.624	4.05
721.945	3.93
722.267	3.72
722.588	3.71
722.909	3.69
723.231	3.65
723.552	3.57
723.873	3.66
724.194	3.32
724.515	3.45
724.836	3.58
725.157	3.76
725.478	3.93
725.799	3.92
726.12	3.75
726.441	3.62
726.762	3.79
727.083	3.76
727.403	3.77
727.724	3.84
728.045	3.77
728.365	3.91
728.686	4.02
729.006	4.11
729.327	3.98
729.647	4.05
729.967	3.93
730.288	4.04
730.608	3.95
730.928	4.01
731.249	3.93
731.569	3.88
731.889	3.79
732.209	3.72
732.529	3.69
732.849	3.89
733.169	3.89
733.489	3.97
733.809	4.2
734.129	4.07
734.448	4.04
734.768	4.04
735.088	4.04
735.408	4.08
735.727	4.16
736.047	4.35
736.366	4.27
736.686	4.56
737.005	4.56
737.325	4.62
737.644	4.61
737.963	4.68
738.283	4.53
738.602	4.55
738.921	4.6
739.24	4.8
739.56	4.61
739.879	4.59
740.198	4.51
740.517	4.39
740.836	4.46
741.155	4.44
741.473	4.68
741.792	4.54
742.111	4.57
742.43	4.49
742.748	4.48
743.067	4.48
743.386	4.31
743.704	4.43
744.023	4.5
744.341	4.61
744.66	4.87
744.978	5.1
745.297	4.96
745.615	5.1
745.933	4.97
746.252	4.98
746.57	4.88
746.888	4.81
747.206	4.76
747.524	4.75
747.842	4.82
748.16	4.76
748.478	4.89
748.796	5.15
749.114	5.36
749.432	5.19
749.749	5.44
750.067	5.51
750.385	5.26
750.703	5.19
751.02	4.92
751.338	4.73
751.655	4.61
751.973	4.67
752.29	4.54
752.608	4.59
752.925	4.81
753.242	4.98
753.56	5.11
753.877	5.22
754.194	5.2
754.511	5.45
754.828	5.39
755.145	5.14
755.462	5.01
755.779	4.84
756.096	4.95
756.413	4.72
756.73	4.85
757.047	4.99
757.364	5.08
757.68	5.31
757.997	5.33
758.314	5.66
758.63	5.83
758.947	5.93
759.264	5.57
759.58	5.61
759.896	5.86
760.213	5.81
760.529	5.81
760.846	5.68
761.162	5.48
761.478	5.52
761.794	5.54
762.11	5.18
762.426	5.18
762.743	5.36
763.059	5.42
763.375	5.49
763.69	5.52
764.006	5.49
764.322	5.67
764.638	5.62
764.954	5.57
765.27	5.43
765.585	5.29
765.901	5.71
766.216	5.55
766.532	5.3
766.848	5.24
767.163	5.21
767.478	5.31
767.794	5.53
768.109	5.27
768.424	5.27
768.74	5.48
769.055	5.66
769.37	5.59
769.685	5.29
770	5.34
770.315	5.15
770.63	5.05
770.945	4.61
771.26	4.75
771.575	4.62
771.89	4.59
772.205	4.56
772.52	4.24
772.834	3.98
773.149	4.1
773.464	4.22
773.778	4.16
774.093	4.07
774.407	4.06
774.722	4.22
775.036	4.26
775.351	4.35
775.665	3.84
775.979	3.48
776.293	3.88
776.608	3.33
776.922	3.43
777.236	3.54
777.55	3.88
777.864	3.67
778.178	4.05
778.492	4.33
778.806	4.33
779.12	4.41
779.434	4.86
779.747	5.17
780.061	4.92
780.375	4.81
780.689	4.88
781.002	4.97
781.316	5.27
781.629	5.39
781.943	5.3
782.256	5.76
782.57	5.75
782.883	5.69
783.196	5.68
783.51	5.95
783.823	5.69
784.136	5.67
784.449	5.82
784.762	5.74
785.075	5.42
785.388	5.25
785.701	5.46
786.014	5.26
786.327	4.91
786.64	4.95
786.953	5.01
787.266	5.35
787.578	4.79
787.891	4.5
788.204	4.48
788.516	4.32
788.829	4.36
789.141	5.21
789.454	5.35
789.766	5.84
790.079	5.97
790.391	6.36
790.703	6.57
791.016	6.4
791.328	6.09
791.64	6.23
791.952	7.19
792.264	6.55
792.576	6.93
792.888	7.13
793.2	7.09
793.512	7.35
793.824	7.11
794.136	7.48
794.448	7.98
794.76	7.69
795.071	8.1
795.383	8.47
795.695	7.91
796.006	7.59
796.318	7.21
796.629	7.02
796.941	6.75
797.252	6.62
797.564	6.95
797.875	6.97
798.186	7.16
798.497	6.54
798.809	7.14
799.12	7.07
799.431	7
799.742	7.67
800.053	7.87
800.364	7.94
800.675	7.61
800.986	7.23
801.297	7.21
801.608	7.1
801.918	7.05
802.229	7.02
802.54	7.01
802.851	7.17
803.161	7.37
803.472	7.47
803.782	7.7
804.093	7.66
804.403	8.07
804.714	7.98
805.024	7.95
805.334	7.89
805.645	7.89
805.955	7.95
806.265	7.73
806.575	7.29
806.885	7.68
807.195	7.97
807.505	7.76
807.815	8.05
808.125	7.94
808.435	7.79
808.745	8.09
809.055	8.34
809.365	7.95
809.674	7.9
809.984	8.36
810.294	8.3
810.603	8.37
810.913	8.93
811.222	9.01
811.532	9.34
811.841	9.58
812.151	9.79
812.46	9.37
812.769	8.76
813.079	8.78
813.388	8.36
813.697	8.56
814.006	8.66
814.315	8.67
814.624	8.85
814.933	8.82
815.242	8.6
815.551	8.94
815.86	9.74
816.169	9.67
816.478	9.05
816.786	8.52
817.095	8.18
817.404	7.76
817.712	7.39
818.021	7.58
818.33	6.89
818.638	6.45
818.947	6.67
819.255	7.15
819.563	7.19
819.872	6.88
820.18	6.6
820.488	6.61
820.796	6.6
821.105	6.53
821.413	6.44
821.721	6.27
822.029	6.32
822.337	6.34
822.645	6.23
822.953	6.19
823.26	6.2
823.568	6.28
823.876	6.09
824.184	6.2
824.491	6.06
824.799	6.06
825.107	6.05
825.414	6.17
825.722	6.19
826.029	6.06
826.337	6.19
826.644	6.41
826.951	6.39
827.259	6.49
827.566	6.41
827.873	6.27
828.18	6.6
828.488	6.27
828.795	6.12
829.102	6.23
829.409	6.49
829.716	6.61
830.023	6.51
830.329	6.51
830.636	6.48
830.943	6.51
831.25	6.78
831.557	6.71
831.863	6.56
832.17	6.17
832.476	6.57
832.783	6.84
833.089	6.45
833.396	6.83
833.702	6.93
834.009	7.1
834.315	7.53
834.621	7.11
834.928	7.8
835.234	7.64
835.54	7.89
835.846	8.22
836.152	8.34
836.458	8.44
836.764	8.64
837.07	9.1
837.376	9.12
837.682	9.26
837.988	9.46
838.293	9.51
838.599	9.64
838.905	9.17
839.211	8.9
839.516	9.27
839.822	8.9
840.127	8.15
840.433	8.73
840.738	8.57
841.044	8.32
841.349	8.39
841.654	8.74
841.959	8.02
842.265	7.34
842.57	7.51
842.875	7.81
843.18	7.59
843.485	6.69
843.79	8.02
844.095	7.8
844.4	8.32
844.705	7.52
845.01	8.26
845.315	8.95
845.619	8.41
845.924	8.05
846.229	7.45
846.533	8
846.838	6.3
847.142	7.25
847.447	7.14
847.751	4.89
848.056	4.83
848.36	5.01
848.664	4.19
848.969	3.43
849.273	2.7
849.577	2.68
849.881	2.24
850.185	1.04
850.489	2.53
850.794	1.23
851.097	1.85
851.401	-0.4
851.705	-1.75
852.009	0.45
852.313	0.95
852.617	2.41
852.92	3.74
853.224	3.78
853.528	4.26
853.831	4.29
854.135	6.55
854.438	6.93
854.742	7.75
855.045	7.55
855.349	7.55
855.652	7.69
855.955	8.72
856.259	8.74
856.562	8.78
856.865	7.28
857.168	8.07
857.471	8.8
857.774	12.47
858.077	14.45
858.38	14.12
858.683	13.91
858.986	12.87
859.289	10.89
859.592	9.9
859.894	9.13
860.197	11.32
860.5	13.48
860.802	14.59
861.105	15.05
861.407	15.26
861.71	15.61
862.012	15.52
862.315	14.45
862.617	14.95
862.919	14.55
863.222	15.71
863.524	14.31
863.826	16.47
864.128	12.8
864.43	12.95
864.732	13.98
865.034	13.22
865.336	14.14
865.638	14.51
865.94	14.83
866.242	13.98
866.544	14.01
866.846	11.82
867.147	9.79
867.449	7.46
867.751	9.18
868.052	10.33
868.354	10.01
868.655	10.78
868.957	9.22
869.258	7.98
869.56	5.97
869.861	8.05
870.162	6.55
870.463	8.93
870.765	10.55
871.066	8.01
871.367	8.47
871.668	8.11
871.969	8.83
872.27	9.43
872.571	9.83
872.872	10.72
873.173	8.81
873.473	8
873.774	8.22
874.075	7.68
874.376	4.36
874.676	6.24
874.977	4.83
875.277	6.65
875.578	7.15
875.878	7.17
876.179	6.96
876.479	6.32
876.78	4.44
877.08	2.32
877.38	3.08
877.68	3.85
877.981	3.49
878.281	3.66
878.581	5.7
