Data from BU57650_Reflection_00004.txt Node
Date: Tue Nov 19 11:01:15 EST 2019
User: vgr7
Spectrometer: USB2G7710
Scans to average: 3
Trigger mode: 4
Integration Time (sec): 2.000000E-2
Electric dark correction enabled: true
Boxcar width: 10
XAxis mode: Wavelengths
Number of Pixels in Spectrum: 2048
>>>>>Begin Spectral Data<<<<<
177.721	37.85
178.105	87.01
178.488	-259.81
178.871	45.95
179.254	158.62
179.636	510.71
180.019	-183.51
180.402	245.45
180.785	408.7
181.168	160.75
181.55	586.3
181.933	121.74
182.316	170.19
182.698	205.7
183.081	10742.86
183.463	299.6
183.846	223.27
184.228	673.39
184.611	-128.22
184.993	-57.85
185.376	-62.92
185.758	9.68
186.14	-5.18
186.522	-16.89
186.904	-34.32
187.287	-79.57
187.669	-1.75
188.051	5.34
188.433	2.31
188.815	2.82
189.197	6.37
189.579	25.75
189.961	15.63
190.342	20.38
190.724	20.86
191.106	22.37
191.488	7.84
191.869	17.31
192.251	30.07
192.633	30.62
193.014	26.8
193.396	25.68
193.777	26.47
194.159	39.42
194.54	39.83
194.922	38.67
195.303	36.36
195.684	27.35
196.065	20.51
196.447	16.92
196.828	15.95
197.209	7.07
197.59	4.95
197.971	5.79
198.352	-6.27
198.733	-8.5
199.114	-9.34
199.495	-0.91
199.876	-12.45
200.257	-24.19
200.638	-32.48
201.018	-37.03
201.399	-28.16
201.78	-22.52
202.16	-43.19
202.541	-39.31
202.922	-47.46
203.302	-45.17
203.683	-32.15
204.063	-36.75
204.444	-34.15
204.824	-35.25
205.204	-12.29
205.585	-14.97
205.965	-15.76
206.345	-9.78
206.725	3.91
207.106	14.44
207.486	9.35
207.866	12.75
208.246	14.28
208.626	6.43
209.006	3.26
209.386	8.26
209.766	-0.61
210.145	7.22
210.525	8.87
210.905	16.05
211.285	15.15
211.664	2.75
212.044	5.17
212.424	8.31
212.803	9.46
213.183	0.27
213.562	-7.21
213.942	-3.57
214.321	-4.16
214.701	-12.24
215.08	-25.11
215.459	-21.58
215.838	-21.06
216.218	-22.54
216.597	-12.96
216.976	-17.57
217.355	-21.97
217.734	-22.09
218.113	-29.19
218.492	-25.33
218.871	-35.42
219.25	-38.98
219.629	-32.62
220.008	-31.71
220.387	-35.1
220.766	-24.89
221.144	-20.21
221.523	-21.46
221.902	-17.6
222.28	-11.56
222.659	-4.11
223.037	1.21
223.416	-0.38
223.794	-3.74
224.173	-6.73
224.551	-8.31
224.929	-8.45
225.308	-11.44
225.686	-14.24
226.064	-12.08
226.442	-9.25
226.821	-2.59
227.199	-0.17
227.577	-0.75
227.955	-2.12
228.333	-5.84
228.711	-7.19
229.089	-8.2
229.467	-6.29
229.845	-7.01
230.222	-6.21
230.6	-7.57
230.978	-7.5
231.356	-5.75
231.733	-3.73
232.111	-1.31
232.488	-0.93
232.866	0.77
233.243	0.76
233.621	2.88
233.998	4.17
234.376	3.72
234.753	1.6
235.13	0.44
235.508	1.02
235.885	2.29
236.262	3.3
236.639	3.59
237.016	4.41
237.393	5.99
237.77	6.06
238.147	5.67
238.524	5.56
238.901	5.11
239.278	4.1
239.655	4.61
240.032	4.25
240.409	4.19
240.785	4.25
241.162	4.38
241.539	3.66
241.915	3.44
242.292	3.38
242.668	3.76
243.045	4.23
243.421	4.32
243.798	4.25
244.174	4.64
244.551	4.99
244.927	5.1
245.303	4.89
245.679	4.81
246.056	4.71
246.432	4.68
246.808	4.86
247.184	4.86
247.56	4.67
247.936	4.74
248.312	4.94
248.688	4.83
249.064	4.75
249.44	4.86
249.815	5
250.191	5.29
250.567	5.26
250.943	5.19
251.318	5.23
251.694	5.03
252.069	4.9
252.445	4.76
252.82	4.67
253.196	4.53
253.571	4.62
253.947	4.69
254.322	4.4
254.697	4.32
255.073	4.26
255.448	4.2
255.823	4.1
256.198	4.04
256.573	4.37
256.948	4.54
257.323	4.49
257.698	4.58
258.073	4.32
258.448	4.43
258.823	4.23
259.198	4.13
259.573	4.13
259.948	4.12
260.322	4.1
260.697	4.13
261.072	4.22
261.446	4.24
261.821	4.14
262.195	4.21
262.57	4.16
262.944	4.22
263.319	4.42
263.693	4.4
264.067	4.31
264.442	4.08
264.816	3.91
265.19	4.1
265.564	3.72
265.938	3.82
266.313	3.7
266.687	3.85
267.061	3.98
267.435	4.25
267.809	4.19
268.183	4.17
268.556	4.13
268.93	4.28
269.304	3.96
269.678	4.07
270.051	4.02
270.425	4.01
270.799	3.91
271.172	3.64
271.546	3.72
271.919	3.68
272.293	3.61
272.666	3.72
273.04	3.59
273.413	3.64
273.787	3.59
274.16	3.45
274.533	3.52
274.906	3.54
275.279	3.6
275.653	3.77
276.026	3.76
276.399	3.8
276.772	3.7
277.145	3.91
277.518	3.67
277.891	3.77
278.263	3.96
278.636	4.13
279.009	4.24
279.382	4.32
279.755	4.47
280.127	4.56
280.5	4.44
280.872	4.39
281.245	4.48
281.617	4.54
281.99	4.59
282.362	4.51
282.735	4.34
283.107	4.16
283.479	4.08
283.852	4.05
284.224	4.06
284.596	4.07
284.968	4.09
285.34	4.12
285.713	4.2
286.085	4.09
286.457	4.1
286.829	4.1
287.201	4.04
287.572	4.13
287.944	4.26
288.316	4.36
288.688	4.47
289.06	4.42
289.431	4.51
289.803	4.61
290.175	4.68
290.546	4.71
290.918	4.62
291.289	4.6
291.661	4.57
292.032	4.47
292.403	4.44
292.775	4.36
293.146	4.49
293.517	4.35
293.889	4.18
294.26	4.27
294.631	4.33
295.002	4.33
295.373	4.24
295.744	4.24
296.115	4.31
296.486	4.26
296.857	4.32
297.228	4.23
297.599	4.17
297.97	4.18
298.34	4.22
298.711	4.4
299.082	4.38
299.452	4.35
299.823	4.32
300.194	4.28
300.564	4.36
300.935	4.32
301.305	4.36
301.676	4.47
302.046	4.36
302.416	4.31
302.787	4.29
303.157	4.2
303.527	4.22
303.897	4.01
304.267	4.07
304.637	4.05
305.008	3.97
305.378	3.99
305.748	3.98
306.117	3.86
306.487	3.9
306.857	4.05
307.227	4.08
307.597	4.14
307.967	4.23
308.336	4.09
308.706	4.06
309.076	4.13
309.445	4.27
309.815	4.22
310.184	4.19
310.554	4.29
310.923	4.28
311.293	4.11
311.662	4.2
312.031	4.17
312.401	4.14
312.77	4.13
313.139	4.14
313.508	4.08
313.877	4.11
314.246	3.94
314.616	3.92
314.985	3.92
315.353	3.89
315.722	3.87
316.091	4
316.46	4.07
316.829	4.1
317.198	3.97
317.567	4.03
317.935	4.11
318.304	3.99
318.672	4.17
319.041	4.21
319.41	4.26
319.778	4.22
320.147	4.28
320.515	4.38
320.883	4.23
321.252	4.27
321.62	4.26
321.988	4.33
322.357	4.13
322.725	4.13
323.093	4.14
323.461	4.03
323.829	4.13
324.197	4.12
324.565	4.1
324.933	3.94
325.301	3.81
325.669	3.78
326.037	3.71
326.405	3.48
326.772	3.51
327.14	3.35
327.508	3.43
327.875	3.37
328.243	3.31
328.61	3.5
328.978	3.38
329.346	3.33
329.713	3.48
330.08	3.53
330.448	3.59
330.815	3.7
331.182	3.72
331.55	3.6
331.917	3.52
332.284	3.46
332.651	3.59
333.018	3.72
333.385	3.65
333.752	3.77
334.119	3.92
334.486	3.89
334.853	4.01
335.22	3.93
335.587	3.82
335.954	3.79
336.32	3.7
336.687	3.83
337.054	3.85
337.42	3.73
337.787	3.84
338.153	3.82
338.52	3.78
338.886	3.73
339.253	3.64
339.619	3.78
339.986	3.75
340.352	3.83
340.718	3.79
341.084	3.76
341.451	3.73
341.817	3.74
342.183	3.72
342.549	3.76
342.915	3.83
343.281	3.95
343.647	3.97
344.013	3.89
344.379	3.9
344.745	3.96
345.11	3.95
345.476	3.94
345.842	3.88
346.208	3.83
346.573	3.77
346.939	3.76
347.304	3.76
347.67	3.69
348.035	3.63
348.401	3.66
348.766	3.64
349.132	3.69
349.497	3.71
349.862	3.81
350.228	3.67
350.593	3.59
350.958	3.63
351.323	3.66
351.688	3.72
352.053	3.71
352.418	3.7
352.783	3.68
353.148	3.69
353.513	3.72
353.878	3.69
354.243	3.73
354.608	3.78
354.972	3.69
355.337	3.82
355.702	3.79
356.066	3.72
356.431	3.83
356.795	3.78
357.16	3.69
357.524	3.62
357.889	3.72
358.253	3.72
358.618	3.72
358.982	3.69
359.346	3.8
359.71	3.76
360.075	3.74
360.439	3.75
360.803	3.72
361.167	3.72
361.531	3.75
361.895	3.77
362.259	3.8
362.623	3.85
362.987	3.8
363.351	3.78
363.714	3.83
364.078	3.76
364.442	3.72
364.806	3.79
365.169	3.81
365.533	3.79
365.896	3.8
366.26	3.71
366.623	3.76
366.987	3.68
367.35	3.72
367.714	3.74
368.077	3.69
368.44	3.63
368.803	3.59
369.167	3.6
369.53	3.6
369.893	3.57
370.256	3.55
370.619	3.48
370.982	3.49
371.345	3.5
371.708	3.57
372.071	3.6
372.434	3.56
372.797	3.59
373.159	3.51
373.522	3.46
373.885	3.48
374.247	3.4
374.61	3.42
374.973	3.44
375.335	3.42
375.698	3.46
376.06	3.45
376.423	3.47
376.785	3.46
377.147	3.45
377.51	3.43
377.872	3.42
378.234	3.45
378.596	3.46
378.958	3.48
379.321	3.45
379.683	3.48
380.045	3.47
380.407	3.4
380.769	3.44
381.13	3.47
381.492	3.5
381.854	3.51
382.216	3.49
382.578	3.42
382.939	3.41
383.301	3.44
383.663	3.5
384.024	3.48
384.386	3.49
384.747	3.54
385.109	3.55
385.47	3.53
385.832	3.56
386.193	3.55
386.554	3.51
386.916	3.56
387.277	3.53
387.638	3.53
387.999	3.55
388.36	3.56
388.721	3.58
389.082	3.58
389.443	3.6
389.804	3.58
390.165	3.63
390.526	3.62
390.887	3.58
391.248	3.57
391.609	3.62
391.969	3.59
392.33	3.57
392.691	3.54
393.051	3.57
393.412	3.57
393.772	3.57
394.133	3.58
394.493	3.51
394.854	3.53
395.214	3.54
395.574	3.54
395.935	3.55
396.295	3.54
396.655	3.55
397.015	3.59
397.376	3.59
397.736	3.58
398.096	3.61
398.456	3.61
398.816	3.57
399.176	3.52
399.535	3.54
399.895	3.53
400.255	3.56
400.615	3.57
400.975	3.55
401.334	3.55
401.694	3.57
402.054	3.6
402.413	3.57
402.773	3.54
403.132	3.54
403.492	3.55
403.851	3.55
404.211	3.53
404.57	3.49
404.929	3.5
405.288	3.49
405.648	3.48
406.007	3.48
406.366	3.48
406.725	3.48
407.084	3.45
407.443	3.44
407.802	3.42
408.161	3.42
408.52	3.44
408.879	3.45
409.238	3.42
409.596	3.44
409.955	3.45
410.314	3.47
410.673	3.46
411.031	3.42
411.39	3.39
411.748	3.4
412.107	3.42
412.465	3.4
412.824	3.39
413.182	3.37
413.54	3.4
413.899	3.42
414.257	3.43
414.615	3.45
414.974	3.47
415.332	3.48
415.69	3.48
416.048	3.47
416.406	3.46
416.764	3.47
417.122	3.44
417.48	3.44
417.838	3.45
418.195	3.44
418.553	3.44
418.911	3.45
419.269	3.44
419.626	3.43
419.984	3.43
420.342	3.43
420.699	3.43
421.057	3.41
421.414	3.41
421.772	3.39
422.129	3.38
422.486	3.38
422.844	3.36
423.201	3.37
423.558	3.37
423.915	3.36
424.273	3.35
424.63	3.36
424.987	3.36
425.344	3.36
425.701	3.36
426.058	3.37
426.415	3.37
426.772	3.36
427.128	3.35
427.485	3.36
427.842	3.35
428.199	3.36
428.555	3.36
428.912	3.35
429.269	3.36
429.625	3.37
429.982	3.39
430.338	3.41
430.695	3.4
431.051	3.38
431.407	3.38
431.764	3.38
432.12	3.38
432.476	3.37
432.832	3.38
433.189	3.38
433.545	3.39
433.901	3.36
434.257	3.35
434.613	3.35
434.969	3.33
435.325	3.35
435.681	3.36
436.036	3.35
436.392	3.35
436.748	3.36
437.104	3.38
437.459	3.36
437.815	3.34
438.171	3.34
438.526	3.36
438.882	3.37
439.237	3.38
439.593	3.38
439.948	3.37
440.304	3.35
440.659	3.33
441.014	3.33
441.369	3.34
441.725	3.35
442.08	3.35
442.435	3.36
442.79	3.36
443.145	3.34
443.5	3.34
443.855	3.34
444.21	3.35
444.565	3.33
444.92	3.33
445.275	3.33
445.629	3.34
445.984	3.32
446.339	3.31
446.693	3.31
447.048	3.31
447.403	3.31
447.757	3.3
448.112	3.31
448.466	3.29
448.82	3.3
449.175	3.3
449.529	3.31
449.883	3.31
450.238	3.3
450.592	3.31
450.946	3.31
451.3	3.32
451.654	3.29
452.008	3.29
452.362	3.29
452.716	3.28
453.07	3.27
453.424	3.28
453.778	3.27
454.132	3.25
454.486	3.26
454.839	3.25
455.193	3.28
455.547	3.29
455.9	3.31
456.254	3.32
456.607	3.31
456.961	3.31
457.314	3.3
457.668	3.3
458.021	3.28
458.375	3.29
458.728	3.27
459.081	3.27
459.434	3.27
459.787	3.28
460.141	3.3
460.494	3.3
460.847	3.31
461.2	3.29
461.553	3.31
461.906	3.3
462.259	3.31
462.611	3.31
462.964	3.31
463.317	3.31
463.67	3.28
464.022	3.28
464.375	3.29
464.728	3.3
465.08	3.3
465.433	3.31
465.785	3.31
466.138	3.33
466.49	3.34
466.843	3.35
467.195	3.35
467.547	3.34
467.899	3.36
468.252	3.34
468.604	3.37
468.956	3.37
469.308	3.36
469.66	3.37
470.012	3.35
470.364	3.35
470.716	3.37
471.068	3.41
471.42	3.41
471.772	3.4
472.123	3.4
472.475	3.43
472.827	3.44
473.178	3.46
473.53	3.45
473.882	3.44
474.233	3.41
474.585	3.42
474.936	3.43
475.288	3.41
475.639	3.42
475.99	3.42
476.342	3.42
476.693	3.43
477.044	3.44
477.395	3.44
477.746	3.43
478.097	3.41
478.448	3.39
478.8	3.4
479.15	3.4
479.501	3.4
479.852	3.39
480.203	3.39
480.554	3.38
480.905	3.39
481.255	3.4
481.606	3.41
481.957	3.42
482.307	3.42
482.658	3.43
483.009	3.42
483.359	3.42
483.709	3.42
484.06	3.43
484.41	3.42
484.761	3.43
485.111	3.43
485.461	3.44
485.811	3.43
486.162	3.44
486.512	3.44
486.862	3.44
487.212	3.44
487.562	3.43
487.912	3.43
488.262	3.42
488.612	3.42
488.961	3.42
489.311	3.41
489.661	3.4
490.011	3.4
490.36	3.4
490.71	3.41
491.06	3.4
491.409	3.39
491.759	3.39
492.108	3.4
492.458	3.39
492.807	3.38
493.157	3.38
493.506	3.36
493.855	3.36
494.204	3.35
494.554	3.36
494.903	3.37
495.252	3.36
495.601	3.37
495.95	3.38
496.299	3.38
496.648	3.39
496.997	3.42
497.346	3.42
497.695	3.42
498.043	3.42
498.392	3.43
498.741	3.45
499.09	3.46
499.438	3.46
499.787	3.46
500.135	3.47
500.484	3.48
500.832	3.5
501.181	3.53
501.529	3.56
501.878	3.56
502.226	3.57
502.574	3.59
502.923	3.6
503.271	3.61
503.619	3.61
503.967	3.59
504.315	3.6
504.663	3.6
505.011	3.61
505.359	3.6
505.707	3.6
506.055	3.59
506.403	3.6
506.751	3.6
507.098	3.62
507.446	3.62
507.794	3.62
508.141	3.61
508.489	3.59
508.837	3.58
509.184	3.58
509.531	3.59
509.879	3.59
510.226	3.59
510.574	3.6
510.921	3.6
511.268	3.63
511.616	3.63
511.963	3.64
512.31	3.64
512.657	3.64
513.004	3.64
513.351	3.64
513.698	3.65
514.045	3.67
514.392	3.67
514.739	3.69
515.086	3.73
515.432	3.75
515.779	3.76
516.126	3.78
516.473	3.8
516.819	3.8
517.166	3.79
517.512	3.77
517.859	3.78
518.205	3.77
518.552	3.77
518.898	3.8
519.245	3.8
519.591	3.81
519.937	3.81
520.283	3.82
520.629	3.83
520.976	3.82
521.322	3.82
521.668	3.81
522.014	3.8
522.36	3.79
522.706	3.79
523.052	3.81
523.398	3.82
523.743	3.82
524.089	3.81
524.435	3.82
524.781	3.85
525.126	3.84
525.472	3.86
525.817	3.87
526.163	3.86
526.509	3.86
526.854	3.89
527.199	3.9
527.545	3.91
527.89	3.9
528.235	3.91
528.581	3.91
528.926	3.92
529.271	3.92
529.616	3.92
529.961	3.93
530.306	3.92
530.651	3.91
530.996	3.92
531.341	3.92
531.686	3.93
532.031	3.94
532.376	3.95
532.721	3.94
533.065	3.94
533.41	3.93
533.755	3.94
534.099	3.92
534.444	3.92
534.788	3.92
535.133	3.93
535.477	3.94
535.822	3.93
536.166	3.94
536.51	3.94
536.855	3.94
537.199	3.93
537.543	3.93
537.887	3.96
538.231	3.97
538.576	3.96
538.92	3.96
539.264	3.95
539.608	3.96
539.951	3.96
540.295	3.97
540.639	3.98
540.983	3.99
541.327	3.99
541.671	3.98
542.014	3.99
542.358	3.99
542.701	3.98
543.045	4
543.389	3.99
543.732	4.01
544.075	4.02
544.419	4.04
544.762	4.04
545.105	4.03
545.449	4.04
545.792	4.04
546.135	4.05
546.478	4.06
546.821	4.05
547.165	4.06
547.508	4.06
547.851	4.08
548.194	4.07
548.536	4.05
548.879	4.08
549.222	4.08
549.565	4.08
549.908	4.08
550.25	4.09
550.593	4.1
550.936	4.08
551.278	4.06
551.621	4.05
551.963	4.03
552.306	4.04
552.648	4.01
552.991	4.03
553.333	4.04
553.675	4.05
554.017	4.05
554.36	4.06
554.702	4.06
555.044	4.05
555.386	4.04
555.728	4.08
556.07	4.03
556.412	4.03
556.754	4.02
557.096	4.01
557.438	4.03
557.78	4.01
558.121	4.02
558.463	4.01
558.805	4.02
559.147	4.04
559.488	4.01
559.83	4.01
560.171	3.99
560.513	3.99
560.854	3.98
561.196	4
561.537	4
561.878	4
562.22	3.95
562.561	3.97
562.902	3.96
563.243	3.97
563.584	3.97
563.925	4.02
564.266	4.03
564.607	4
564.948	4
565.289	4.01
565.63	4.01
565.971	4.03
566.312	4
566.653	4.03
566.993	4.05
567.334	4.04
567.675	4.04
568.015	4.02
568.356	4.01
568.696	4
569.037	4
569.377	4.06
569.718	4.07
570.058	4.07
570.398	4.08
570.739	4.09
571.079	4.07
571.419	4.06
571.759	4.07
572.099	4.09
572.439	4.09
572.779	4.09
573.119	4.09
573.459	4.1
573.799	4.08
574.139	4.07
574.479	4.09
574.819	4.09
575.158	4.1
575.498	4.1
575.838	4.12
576.177	4.13
576.517	4.08
576.856	4.07
577.196	4.06
577.535	4.07
577.875	4.04
578.214	4.05
578.553	4.07
578.893	4.07
579.232	4.06
579.571	4.1
579.91	4.1
580.25	4.1
580.589	4.11
580.928	4.1
581.267	4.11
581.606	4.11
581.945	4.09
582.283	4.12
582.622	4.11
582.961	4.11
583.3	4.1
583.639	4.11
583.977	4.11
584.316	4.13
584.654	4.14
584.993	4.15
585.332	4.15
585.67	4.18
586.008	4.24
586.347	4.23
586.685	4.17
587.024	4.18
587.362	4.2
587.7	4.2
588.038	4.25
588.376	4.21
588.715	4.17
589.053	4.16
589.391	4.15
589.729	4.2
590.067	4.2
590.404	4.22
590.742	4.21
591.08	4.22
591.418	4.21
591.756	4.22
592.093	4.21
592.431	4.22
592.769	4.22
593.106	4.18
593.444	4.18
593.781	4.18
594.119	4.19
594.456	4.14
594.793	4.15
595.131	4.15
595.468	4.18
595.805	4.24
596.143	4.27
596.48	4.25
596.817	4.21
597.154	4.23
597.491	4.22
597.828	4.24
598.165	4.25
598.502	4.23
598.839	4.19
599.176	4.19
599.512	4.15
599.849	4.14
600.186	4.13
600.523	4.15
600.859	4.15
601.196	4.15
601.532	4.18
601.869	4.19
602.205	4.17
602.542	4.17
602.878	4.16
603.215	4.12
603.551	4.14
603.887	4.17
604.223	4.17
604.56	4.17
604.896	4.22
605.232	4.2
605.568	4.19
605.904	4.2
606.24	4.24
606.576	4.28
606.912	4.26
607.248	4.29
607.583	4.31
607.919	4.32
608.255	4.31
608.591	4.31
608.926	4.31
609.262	4.28
609.597	4.26
609.933	4.26
610.268	4.28
610.604	4.27
610.939	4.29
611.275	4.27
611.61	4.24
611.945	4.16
612.281	4.18
612.616	4.23
612.951	4.27
613.286	4.24
613.621	4.23
613.956	4.3
614.291	4.28
614.626	4.24
614.961	4.22
615.296	4.27
615.631	4.27
615.966	4.31
616.3	4.32
616.635	4.33
616.97	4.28
617.304	4.29
617.639	4.27
617.973	4.2
618.308	4.19
618.642	4.23
618.977	4.22
619.311	4.19
619.646	4.19
619.98	4.14
620.314	4.15
620.648	4.18
620.983	4.11
621.317	4.09
621.651	4.1
621.985	4.12
622.319	4.05
622.653	4.03
622.987	3.97
623.321	4.02
623.655	4.08
623.988	4.13
624.322	4.1
624.656	4.1
624.99	4.13
625.323	4.14
625.657	4.18
625.99	4.22
626.324	4.18
626.657	4.16
626.991	4.2
627.324	4.23
627.658	4.21
627.991	4.23
628.324	4.23
628.657	4.25
628.991	4.25
629.324	4.26
629.657	4.25
629.99	4.31
630.323	4.32
630.656	4.33
630.989	4.36
631.322	4.37
631.655	4.44
631.987	4.45
632.32	4.48
632.653	4.44
632.986	4.46
633.318	4.5
633.651	4.48
633.984	4.44
634.316	4.43
634.649	4.44
634.981	4.44
635.313	4.46
635.646	4.46
635.978	4.43
636.31	4.44
636.643	4.47
636.975	4.44
637.307	4.41
637.639	4.36
637.971	4.32
638.303	4.31
638.635	4.29
638.967	4.29
639.299	4.23
639.631	4.19
639.963	4.19
640.295	4.23
640.626	4.24
640.958	4.28
641.29	4.23
641.621	4.23
641.953	4.23
642.285	4.24
642.616	4.24
642.948	4.25
643.279	4.23
643.61	4.26
643.942	4.3
644.273	4.35
644.604	4.35
644.936	4.39
645.267	4.43
645.598	4.37
645.929	4.36
646.26	4.39
646.591	4.52
646.922	4.57
647.253	4.54
647.584	4.55
647.915	4.58
648.245	4.6
648.576	4.57
648.907	4.6
649.238	4.58
649.568	4.61
649.899	4.61
650.229	4.64
650.56	4.63
650.89	4.57
651.221	4.55
651.551	4.58
651.882	4.56
652.212	4.57
652.542	4.64
652.872	4.62
653.203	4.62
653.533	4.58
653.863	4.51
654.193	4.46
654.523	4.47
654.853	4.49
655.183	4.47
655.513	4.53
655.843	4.5
656.172	4.51
656.502	4.51
656.832	4.54
657.162	4.5
657.491	4.51
657.821	4.5
658.15	4.49
658.48	4.53
658.809	4.56
659.139	4.52
659.468	4.51
659.798	4.57
660.127	4.56
660.456	4.5
660.785	4.53
661.115	4.54
661.444	4.54
661.773	4.52
662.102	4.62
662.431	4.61
662.76	4.63
663.089	4.69
663.418	4.68
663.747	4.63
664.076	4.68
664.404	4.77
664.733	4.81
665.062	4.8
665.39	4.77
665.719	4.78
666.048	4.84
666.376	4.91
666.705	4.94
667.033	5
667.362	5.03
667.69	5.04
668.018	5.11
668.347	5.16
668.675	5.2
669.003	5.16
669.331	5.19
669.659	5.11
669.987	5.05
670.315	5.08
670.643	5.12
670.971	5.15
671.299	5.13
671.627	5.12
671.955	5.12
672.283	5.12
672.61	5.04
672.938	5.05
673.266	5.06
673.593	5.05
673.921	5.09
674.249	5.04
674.576	5
674.904	4.97
675.231	5.01
675.558	4.99
675.886	5.01
676.213	5.04
676.54	5.11
676.867	5.13
677.195	5.14
677.522	5.13
677.849	5.13
678.176	5.08
678.503	5.06
678.83	5.1
679.157	5.08
679.484	5.18
679.81	5.17
680.137	5.18
680.464	5.15
680.791	5.1
681.117	5.11
681.444	5.12
681.771	5.2
682.097	5.19
682.424	5.13
682.75	5.09
683.077	5.04
683.403	5.06
683.729	5.08
684.056	5.05
684.382	5.12
684.708	5.1
685.034	5.09
685.36	5.11
685.686	5.1
686.012	5.11
686.339	4.98
686.664	4.94
686.99	4.82
687.316	4.81
687.642	4.83
687.968	4.93
688.294	4.95
688.619	4.88
688.945	4.81
689.271	4.83
689.596	4.91
689.922	4.85
690.247	4.78
690.573	4.73
690.898	4.79
691.224	4.71
691.549	4.79
691.874	4.83
692.2	4.88
692.525	4.94
692.85	4.96
693.175	5.07
693.5	5.05
693.825	5.1
694.15	5.07
694.475	5.11
694.8	4.99
695.125	5.12
695.45	5.03
695.775	4.96
696.099	5.07
696.424	5.04
696.749	5.06
697.073	5.07
697.398	5.21
697.723	5.17
698.047	5.27
698.372	5.19
698.696	5.18
699.02	5.18
699.345	5.16
699.669	5.18
699.993	5.14
700.318	5.2
700.642	5.26
700.966	5.31
701.29	5.31
701.614	5.39
701.938	5.28
702.262	5.45
702.586	5.57
702.91	5.48
703.234	5.48
703.557	5.54
703.881	5.6
704.205	5.42
704.529	5.37
704.852	5.16
705.176	5.17
705.499	5.09
705.823	5.06
706.146	5.05
706.47	5.16
706.793	5.1
707.117	5.1
707.44	4.95
707.763	4.97
708.086	4.86
708.409	4.84
708.733	4.93
709.056	4.77
709.379	4.79
709.702	4.83
710.025	4.78
710.348	4.84
710.671	4.8
710.993	4.85
711.316	5.06
711.639	5.2
711.962	5.23
712.284	5.36
712.607	5.43
712.93	5.4
713.252	5.21
713.575	5.26
713.897	5.27
714.22	5.28
714.542	5.27
714.864	5.28
715.187	5.29
715.509	5.26
715.831	5.39
716.153	5.42
716.475	5.43
716.798	5.49
717.12	5.48
717.442	5.5
717.764	5.49
718.085	5.37
718.407	5.33
718.729	5.28
719.051	5.24
719.373	5.2
719.695	5.23
720.016	5.31
720.338	5.35
720.659	5.26
720.981	5.18
721.302	5.18
721.624	5.3
721.945	5.24
722.267	5.05
722.588	5.04
722.909	4.95
723.231	4.9
723.552	4.79
723.873	4.81
724.194	4.77
724.515	4.77
724.836	4.72
725.157	4.79
725.478	4.93
725.799	4.94
726.12	4.91
726.441	4.9
726.762	4.87
727.083	4.91
727.403	5.07
727.724	5.29
728.045	5.3
728.365	5.22
728.686	5.35
729.006	5.56
729.327	5.44
729.647	5.42
729.967	5.39
730.288	5.46
730.608	5.39
730.928	5.44
731.249	5.48
731.569	5.55
731.889	5.56
732.209	5.44
732.529	5.43
732.849	5.43
733.169	5.37
733.489	5.21
733.809	5.16
734.129	5.11
734.448	5.13
734.768	5.18
735.088	5.22
735.408	5.14
735.727	5.07
736.047	5.23
736.366	5.25
736.686	5.3
737.005	5.29
737.325	5.33
737.644	5.16
737.963	5.09
738.283	5.11
738.602	5.15
738.921	5.15
739.24	4.99
739.56	5.15
739.879	5.18
740.198	5.47
740.517	5.49
740.836	5.48
741.155	5.37
741.473	5.25
741.792	5.35
742.111	5.41
742.43	5.4
742.748	5.4
743.067	5.37
743.386	5.21
743.704	5.17
744.023	5.2
744.341	5.25
744.66	5.18
744.978	5.13
745.297	4.92
745.615	4.96
745.933	5.24
746.252	5.18
746.57	5.18
746.888	5.18
747.206	5.08
747.524	5.21
747.842	5.29
748.16	5.42
748.478	5.29
748.796	5.29
749.114	5.32
749.432	5.38
749.749	5.42
750.067	5.64
750.385	5.75
750.703	5.51
751.02	5.61
751.338	5.7
751.655	5.7
751.973	5.85
752.29	5.96
752.608	5.74
752.925	5.81
753.242	5.83
753.56	5.65
753.877	5.81
754.194	6.02
754.511	5.96
754.828	5.71
755.145	5.67
755.462	5.72
755.779	5.65
756.096	5.39
756.413	5.4
756.73	5.37
757.047	5.22
757.364	5.53
757.68	5.66
757.997	5.81
758.314	5.96
758.63	5.87
758.947	5.81
759.264	5.9
759.58	6.02
759.896	6.2
760.213	6.3
760.529	6.23
760.846	6.02
761.162	6.02
761.478	6.12
761.794	6.32
762.11	6.25
762.426	6.34
762.743	6.41
763.059	6.42
763.375	6.34
763.69	6.59
764.006	6.46
764.322	6.32
764.638	6.3
764.954	6.19
765.27	6.49
765.585	6.56
765.901	6.64
766.216	6.5
766.532	6.41
766.848	6.34
767.163	6.5
767.478	6.48
767.794	6.53
768.109	6.46
768.424	6.37
768.74	6.23
769.055	6.38
769.37	6.32
769.685	6.29
770	6.46
770.315	6.18
770.63	6.12
770.945	6.39
771.26	6.34
771.575	6.3
771.89	5.75
772.205	5.71
772.52	5.55
772.834	5.63
773.149	5.7
773.464	5.78
773.778	5.5
774.093	5.86
774.407	5.82
774.722	5.73
775.036	5.77
775.351	6.24
775.665	5.99
775.979	6.29
776.293	6.34
776.608	6.2
776.922	6.18
777.236	6.23
777.55	6.1
777.864	6.19
778.178	6.03
778.492	6.3
778.806	6.23
779.12	6.7
779.434	6.48
779.747	6.22
780.061	6.54
780.375	6.75
780.689	6.34
781.002	6.35
781.316	6.7
781.629	6.7
781.943	6.31
782.256	6.28
782.57	6.02
782.883	6.21
783.196	6.41
783.51	6.57
783.823	6.82
784.136	6.72
784.449	6.57
784.762	7.14
785.075	7.22
785.388	7.53
785.701	6.8
786.014	6.86
786.327	7.09
786.64	6.98
786.953	6.89
787.266	6.69
787.578	6.88
787.891	6.9
788.204	6.87
788.516	7.05
788.829	7.04
789.141	7.38
789.454	7.26
789.766	7.65
790.079	7.42
790.391	6.83
790.703	6.99
791.016	7.45
791.328	7.19
791.64	7.37
791.952	7.4
792.264	7.8
792.576	8.07
792.888	8.3
793.2	7.69
793.512	7.71
793.824	8.03
794.136	7.91
794.448	7.91
794.76	7.93
795.071	7.71
795.383	8.2
795.695	7.87
796.006	8.14
796.318	7.42
796.629	7.66
796.941	7.95
797.252	7.63
797.564	7.2
797.875	7.03
798.186	6.98
798.497	6.69
798.809	6.6
799.12	6.51
799.431	6.5
799.742	7.63
800.053	6.93
800.364	7.53
800.675	7.62
800.986	7.65
801.297	7.68
801.608	7.8
801.918	7.64
802.229	8.03
802.54	8.1
802.851	8.53
803.161	8.92
803.472	9.46
803.782	10.09
804.093	10.27
804.403	10.65
804.714	10.66
805.024	10.86
805.334	10.73
805.645	10.63
805.955	10.32
806.265	9.65
806.575	10.2
806.885	9.89
807.195	10.19
807.505	9.8
807.815	9.98
808.125	10.38
808.435	10.91
808.745	10.38
809.055	10.12
809.365	10.01
809.674	9.58
809.984	9.47
810.294	9.68
810.603	9.68
810.913	9.35
811.222	9.04
811.532	8.4
811.841	9.01
812.151	8.83
812.46	8.59
812.769	8.52
813.079	9.17
813.388	9.05
813.697	7.94
814.006	8.18
814.315	8.23
814.624	8.55
814.933	7.85
815.242	8.22
815.551	8.48
815.86	8.53
816.169	8.55
816.478	8.56
816.786	8.03
817.095	8.39
817.404	8.54
817.712	8.58
818.021	8.94
818.33	8.3
818.638	8.49
818.947	8.63
819.255	8.66
819.563	8.24
819.872	7.69
820.18	8.27
820.488	8.37
820.796	8.27
821.105	8.11
821.413	8.04
821.721	7.95
822.029	7.8
822.337	7.76
822.645	7.84
822.953	7.71
823.26	7.81
823.568	7.67
823.876	7.62
824.184	7.63
824.491	7.74
824.799	7.69
825.107	7.73
825.414	7.66
825.722	7.48
826.029	7.58
826.337	7.68
826.644	7.46
826.951	7.41
827.259	7.49
827.566	7.44
827.873	7.46
828.18	7.62
828.488	7.63
828.795	7.61
829.102	7.39
829.409	7.43
829.716	7.28
830.023	7.43
830.329	7.54
830.636	7.63
830.943	7.32
831.25	7.51
831.557	7.25
831.863	7.28
832.17	7.43
832.476	7.43
832.783	7.57
833.089	7.85
833.396	7.81
833.702	7.9
834.009	7.72
834.315	7.58
834.621	7.18
834.928	7.58
835.234	7.51
835.54	7.96
835.846	8.37
836.152	8.1
836.458	7.62
836.764	7.43
837.07	7.23
837.376	7.28
837.682	7.07
837.988	7.56
838.293	7.75
838.599	8.14
838.905	7.96
839.211	7.84
839.516	7.73
839.822	7.71
840.127	6.54
840.433	7.05
840.738	7.03
841.044	6.96
841.349	6.08
841.654	5.99
841.959	5.53
842.265	4.4
842.57	5.67
842.875	6.15
843.18	6.55
843.485	6.87
843.79	6.69
844.095	7.33
844.4	6.89
844.705	7.66
845.01	8.37
845.315	8.16
845.619	8.55
845.924	8.65
846.229	8.49
846.533	10.86
846.838	10.53
847.142	10.15
847.447	10.6
847.751	11.1
848.056	10.98
848.36	12.65
848.664	13.87
848.969	12.01
849.273	12.35
849.577	12.68
849.881	11.63
850.185	11.52
850.489	10.9
850.794	10.84
851.097	10.85
851.401	9.16
851.705	8.64
852.009	7.65
852.313	7.23
852.617	7.25
852.92	5.55
853.224	4.95
853.528	5.46
853.831	5.54
854.135	4.6
854.438	5.12
854.742	3.52
855.045	1.89
855.349	2.92
855.652	2.31
855.955	2.37
856.259	3.03
856.562	4.76
856.865	5.66
857.168	5.77
857.471	6.52
857.774	8.35
858.077	9.01
858.38	10.43
858.683	11.58
858.986	12.95
859.289	14.07
859.592	13.69
859.894	13.88
860.197	12.3
860.5	13.28
860.802	12
861.105	11.45
861.407	12.45
861.71	12.83
862.012	14.03
862.315	13.72
862.617	13.44
862.919	12.81
863.222	11.94
863.524	11.29
863.826	8.38
864.128	8.11
864.43	8.67
864.732	7.84
865.034	7.44
865.336	7.45
865.638	6.47
865.94	8.45
866.242	9.1
866.544	11.26
866.846	11.23
867.147	14.63
867.449	17.17
867.751	15.04
868.052	15.36
868.354	14.75
868.655	14.84
868.957	14.9
869.258	14.43
869.56	14.41
869.861	13.96
870.162	14.07
870.463	13.74
870.765	13.25
871.066	14.12
871.367	12.35
871.668	11.31
871.969	10.05
872.27	9.04
872.571	8.43
872.872	7.93
873.173	7.37
873.473	4.65
873.774	1.97
874.075	3.11
874.376	2.48
874.676	3.92
874.977	6.02
875.277	5.9
875.578	7.2
875.878	7.43
876.179	8.03
876.479	8.99
876.78	8.2
877.08	8.53
877.38	7.72
877.68	9.11
877.981	9.35
878.281	11.95
878.581	11.58
