Data from BU57614_Reflection_00003.txt Node
Date: Mon Nov 18 16:24:15 EST 2019
User: vgr7
Spectrometer: USB2G7710
Scans to average: 3
Trigger mode: 4
Integration Time (sec): 2.000000E-2
Electric dark correction enabled: true
Boxcar width: 10
XAxis mode: Wavelengths
Number of Pixels in Spectrum: 2048
>>>>>Begin Spectral Data<<<<<
177.721	382.17
178.105	-40.58
178.488	-21.65
178.871	52.26
179.254	186.51
179.636	211.65
180.019	23.69
180.402	45.28
180.785	-81.64
181.168	-195.45
181.55	5.31
181.933	86.51
182.316	94.16
182.698	100.52
183.081	81.43
183.463	80.04
183.846	115.36
184.228	178
184.611	187.78
184.993	277.2
185.376	-5605.88
185.758	-4486.21
186.14	1595.41
186.522	-3272.88
186.904	-1037.34
187.287	-907.12
187.669	-255.58
188.051	-309.58
188.433	-104.46
188.815	-83.55
189.197	-80.77
189.579	-81.21
189.961	-56.9
190.342	-41.05
190.724	-52.38
191.106	-70.85
191.488	-84.25
191.869	-53.01
192.251	-52.38
192.633	-37.37
193.014	-39.94
193.396	-97.75
193.777	-80.33
194.159	-97.62
194.54	-80.12
194.922	-46.65
195.303	-49.92
195.684	-44.75
196.065	-42.39
196.447	-46.76
196.828	-60.64
197.209	-65.61
197.59	-61.42
197.971	-84.19
198.352	-75.48
198.733	-75.44
199.114	-65.28
199.495	-62.64
199.876	-67.91
200.257	-60.29
200.638	-59.5
201.018	-62.46
201.399	-68.47
201.78	-64.78
202.16	-75.71
202.541	-100.69
202.922	-138.12
203.302	-197.8
203.683	-205.38
204.063	-262.89
204.444	-231.72
204.824	-191.23
205.204	-172.48
205.585	-162.03
205.965	-157.07
206.345	-188.19
206.725	-180.22
207.106	-180.02
207.486	-193.12
207.866	-175.52
208.246	-163.39
208.626	-160.73
209.006	-140.22
209.386	-154.48
209.766	-156.46
210.145	-130.2
210.525	-110.65
210.905	-108.59
211.285	-79.29
211.664	-80.87
212.044	-71.02
212.424	-71.91
212.803	-83.62
213.183	-68.33
213.562	-57.14
213.942	-37.37
214.321	-33.12
214.701	-24.56
215.08	-29.24
215.459	-28.32
215.838	-22.08
216.218	-35.93
216.597	-27.66
216.976	-29.88
217.355	-19.63
217.734	-13.7
218.113	-11.02
218.492	-6.18
218.871	-6.17
219.25	-2.28
219.629	2.22
220.008	-7.45
220.387	-7.19
220.766	-3.79
221.144	-10.32
221.523	-15.41
221.902	-36.25
222.28	-45.8
222.659	-49.34
223.037	-46.43
223.416	-50.75
223.794	-46.7
224.173	-34.21
224.551	-32.8
224.929	-28.95
225.308	-21.11
225.686	-25.39
226.064	-24.9
226.442	-23.02
226.821	-19.04
227.199	-20.05
227.577	-20.8
227.955	-17.73
228.333	-17.98
228.711	-13.27
229.089	-9.45
229.467	-10.49
229.845	-9.05
230.222	-7.51
230.6	-8.56
230.978	-6.91
231.356	-4.99
231.733	-4.53
232.111	-4.71
232.488	-4.58
232.866	-4.78
233.243	-5.88
233.621	-6.04
233.998	-2.38
234.376	-3.65
234.753	-3.17
235.13	-3.07
235.508	-2.28
235.885	-1.64
236.262	-1.66
236.639	-3.85
237.016	-3.48
237.393	-0.63
237.77	1.08
238.147	2.01
238.524	2.41
238.901	3.02
239.278	4
239.655	3.93
240.032	3.85
240.409	3.2
240.785	2.94
241.162	2.88
241.539	2.68
241.915	2.18
242.292	2.56
242.668	2.33
243.045	2.87
243.421	2.81
243.798	2.69
244.174	3
244.551	3.34
244.927	3.29
245.303	3.34
245.679	3.29
246.056	3.04
246.432	3.25
246.808	3.13
247.184	2.68
247.56	2.57
247.936	2.66
248.312	2.83
248.688	3.24
249.064	3.35
249.44	3.53
249.815	3.59
250.191	3.5
250.567	3.44
250.943	3.24
251.318	3.38
251.694	3.62
252.069	3.34
252.445	3.41
252.82	3.34
253.196	3.02
253.571	2.76
253.947	2.92
254.322	3.08
254.697	3.07
255.073	3.09
255.448	3.01
255.823	2.93
256.198	3.29
256.573	3.24
256.948	3.26
257.323	3.19
257.698	3.15
258.073	3.31
258.448	3.58
258.823	3.55
259.198	3.42
259.573	3.28
259.948	3.44
260.322	3.42
260.697	3.38
261.072	3.28
261.446	3.41
261.821	3.39
262.195	3.36
262.57	3.35
262.944	3.44
263.319	3.57
263.693	3.41
264.067	3.3
264.442	3.16
264.816	3.02
265.19	3.05
265.564	3.14
265.938	3.07
266.313	2.88
266.687	3.04
267.061	3.18
267.435	3.16
267.809	3.04
268.183	3.05
268.556	3.3
268.93	3.43
269.304	3.47
269.678	3.56
270.051	3.53
270.425	3.65
270.799	3.5
271.172	3.38
271.546	3.63
271.919	3.66
272.293	3.84
272.666	4.07
273.04	4.13
273.413	4.01
273.787	3.98
274.16	4.02
274.533	3.87
274.906	3.86
275.279	3.97
275.653	4.03
276.026	3.95
276.399	3.79
276.772	3.88
277.145	3.79
277.518	3.8
277.891	3.66
278.263	3.56
278.636	3.57
279.009	3.67
279.382	3.68
279.755	3.61
280.127	3.64
280.5	3.5
280.872	3.43
281.245	3.35
281.617	3.55
281.99	3.47
282.362	3.69
282.735	3.54
283.107	3.46
283.479	3.66
283.852	3.76
284.224	3.9
284.596	3.85
284.968	3.95
285.34	4.06
285.713	4.13
286.085	4.06
286.457	4.23
286.829	4.29
287.201	4.31
287.572	4.29
287.944	4.19
288.316	4.18
288.688	4.26
289.06	4.39
289.431	4.4
289.803	4.56
290.175	4.54
290.546	4.73
290.918	4.82
291.289	4.64
291.661	4.71
292.032	4.89
292.403	4.9
292.775	4.71
293.146	4.53
293.517	4.49
293.889	4.7
294.26	4.59
294.631	4.61
295.002	4.53
295.373	4.67
295.744	4.67
296.115	4.65
296.486	4.64
296.857	4.65
297.228	4.6
297.599	4.61
297.97	4.57
298.34	4.53
298.711	4.69
299.082	4.73
299.452	4.74
299.823	4.6
300.194	4.6
300.564	4.71
300.935	4.8
301.305	4.8
301.676	4.84
302.046	5.03
302.416	5.03
302.787	5.12
303.157	5.12
303.527	5.27
303.897	5.39
304.267	5.49
304.637	5.56
305.008	5.6
305.378	5.64
305.748	5.67
306.117	5.62
306.487	5.34
306.857	5.44
307.227	5.41
307.597	5.48
307.967	5.55
308.336	5.57
308.706	5.69
309.076	5.81
309.445	5.6
309.815	5.52
310.184	5.49
310.554	5.42
310.923	5.3
311.293	5.23
311.662	5.2
312.031	5.15
312.401	5.19
312.77	5.18
313.139	5.32
313.508	5.28
313.877	5.46
314.246	5.6
314.616	5.66
314.985	5.65
315.353	5.63
315.722	5.57
316.091	5.57
316.46	5.45
316.829	5.43
317.198	5.66
317.567	5.59
317.935	5.72
318.304	5.88
318.672	6.02
319.041	5.97
319.41	6.04
319.778	6.09
320.147	6.09
320.515	6.01
320.883	5.96
321.252	6.16
321.62	6.01
321.988	5.96
322.357	5.94
322.725	5.99
323.093	5.94
323.461	6.07
323.829	6.11
324.197	6.15
324.565	6.08
324.933	6.03
325.301	6.08
325.669	6.05
326.037	5.92
326.405	5.88
326.772	5.93
327.14	5.89
327.508	5.86
327.875	5.69
328.243	5.75
328.61	5.58
328.978	5.54
329.346	5.7
329.713	5.67
330.08	5.62
330.448	5.54
330.815	5.42
331.182	5.42
331.55	5.41
331.917	5.46
332.284	5.57
332.651	5.44
333.018	5.56
333.385	5.48
333.752	5.56
334.119	5.55
334.486	5.55
334.853	5.58
335.22	5.53
335.587	5.65
335.954	5.61
336.32	5.62
336.687	5.54
337.054	5.3
337.42	5.45
337.787	5.48
338.153	5.54
338.52	5.7
338.886	5.59
339.253	5.54
339.619	5.5
339.986	5.45
340.352	5.63
340.718	5.58
341.084	5.53
341.451	5.63
341.817	5.61
342.183	5.49
342.549	5.55
342.915	5.65
343.281	5.64
343.647	5.65
344.013	5.62
344.379	5.68
344.745	5.82
345.11	5.76
345.476	5.71
345.842	5.7
346.208	5.7
346.573	5.75
346.939	5.84
347.304	5.74
347.67	5.67
348.035	5.63
348.401	5.57
348.766	5.6
349.132	5.5
349.497	5.56
349.862	5.75
350.228	5.77
350.593	5.65
350.958	5.74
351.323	5.9
351.688	5.95
352.053	5.98
352.418	5.92
352.783	5.91
353.148	5.93
353.513	5.8
353.878	5.75
354.243	5.81
354.608	5.83
354.972	5.94
355.337	6.07
355.702	6.14
356.066	6.22
356.431	6.22
356.795	6.29
357.16	6.23
357.524	6.15
357.889	6.07
358.253	6.11
358.618	6.08
358.982	6.02
359.346	6.03
359.71	5.93
360.075	5.96
360.439	6.01
360.803	5.98
361.167	6.07
361.531	6.11
361.895	6.05
362.259	6.05
362.623	6.04
362.987	5.98
363.351	5.92
363.714	5.9
364.078	5.96
364.442	5.86
364.806	5.93
365.169	5.94
365.533	5.98
365.896	5.97
366.26	5.94
366.623	5.93
366.987	6.03
367.35	6.02
367.714	6.04
368.077	6.01
368.44	6.04
368.803	6.05
369.167	6.06
369.53	6.06
369.893	6.05
370.256	6.01
370.619	6.11
370.982	6.1
371.345	6.1
371.708	6.01
372.071	6.05
372.434	5.98
372.797	5.97
373.159	5.91
373.522	5.91
373.885	6
374.247	6.02
374.61	5.94
374.973	5.95
375.335	5.93
375.698	5.97
376.06	5.96
376.423	5.92
376.785	5.93
377.147	5.93
377.51	5.96
377.872	6.01
378.234	5.92
378.596	5.92
378.958	5.88
379.321	5.95
379.683	6.02
380.045	6.06
380.407	6.09
380.769	6.12
381.13	6.16
381.492	6.06
381.854	6.03
382.216	6.02
382.578	6.03
382.939	6.03
383.301	6.03
383.663	6
384.024	6.03
384.386	6.04
384.747	6.1
385.109	6.08
385.47	6.03
385.832	6.03
386.193	6.08
386.554	6.07
386.916	6.04
387.277	5.98
387.638	6.02
387.999	5.99
388.36	6.01
388.721	6
389.082	6.02
389.443	6.03
389.804	6.01
390.165	6.03
390.526	6.03
390.887	5.99
391.248	6.07
391.609	6.09
391.969	6.02
392.33	5.97
392.691	6
393.051	6.04
393.412	6.07
393.772	6.06
394.133	6.09
394.493	6.1
394.854	6.1
395.214	6.1
395.574	6.13
395.935	6.11
396.295	6.12
396.655	6.15
397.015	6.15
397.376	6.15
397.736	6.13
398.096	6.15
398.456	6.13
398.816	6.1
399.176	6.09
399.535	6.11
399.895	6.14
400.255	6.1
400.615	6.08
400.975	6.08
401.334	6.07
401.694	6.04
402.054	6.06
402.413	6.07
402.773	6.03
403.132	6
403.492	5.99
403.851	5.98
404.211	5.98
404.57	6.01
404.929	6.02
405.288	6.01
405.648	5.97
406.007	6.03
406.366	6.03
406.725	6.03
407.084	6.04
407.443	6.03
407.802	6.06
408.161	6.05
408.52	6.03
408.879	6.03
409.238	6.05
409.596	6.02
409.955	6.04
410.314	6.04
410.673	6.05
411.031	6.08
411.39	6.08
411.748	6.07
412.107	6.05
412.465	6.04
412.824	6.07
413.182	6.1
413.54	6.09
413.899	6.11
414.257	6.11
414.615	6.11
414.974	6.14
415.332	6.13
415.69	6.14
416.048	6.13
416.406	6.13
416.764	6.12
417.122	6.13
417.48	6.12
417.838	6.13
418.195	6.13
418.553	6.16
418.911	6.17
419.269	6.16
419.626	6.16
419.984	6.17
420.342	6.19
420.699	6.19
421.057	6.17
421.414	6.15
421.772	6.15
422.129	6.17
422.486	6.16
422.844	6.17
423.201	6.16
423.558	6.18
423.915	6.16
424.273	6.18
424.63	6.17
424.987	6.19
425.344	6.18
425.701	6.17
426.058	6.14
426.415	6.11
426.772	6.1
427.128	6.11
427.485	6.11
427.842	6.09
428.199	6.11
428.555	6.12
428.912	6.15
429.269	6.17
429.625	6.15
429.982	6.14
430.338	6.12
430.695	6.14
431.051	6.12
431.407	6.14
431.764	6.13
432.12	6.14
432.476	6.12
432.832	6.12
433.189	6.14
433.545	6.14
433.901	6.18
434.257	6.19
434.613	6.2
434.969	6.2
435.325	6.19
435.681	6.17
436.036	6.16
436.392	6.14
436.748	6.11
437.104	6.11
437.459	6.13
437.815	6.15
438.171	6.16
438.526	6.18
438.882	6.21
439.237	6.2
439.593	6.19
439.948	6.2
440.304	6.2
440.659	6.2
441.014	6.22
441.369	6.21
441.725	6.21
442.08	6.2
442.435	6.21
442.79	6.21
443.145	6.21
443.5	6.22
443.855	6.24
444.21	6.25
444.565	6.26
444.92	6.26
445.275	6.24
445.629	6.23
445.984	6.22
446.339	6.19
446.693	6.19
447.048	6.2
447.403	6.2
447.757	6.21
448.112	6.2
448.466	6.18
448.82	6.17
449.175	6.18
449.529	6.2
449.883	6.19
450.238	6.18
450.592	6.19
450.946	6.18
451.3	6.16
451.654	6.14
452.008	6.14
452.362	6.14
452.716	6.15
453.07	6.15
453.424	6.14
453.778	6.16
454.132	6.13
454.486	6.13
454.839	6.12
455.193	6.12
455.547	6.13
455.9	6.14
456.254	6.14
456.607	6.13
456.961	6.13
457.314	6.12
457.668	6.13
458.021	6.13
458.375	6.14
458.728	6.14
459.081	6.14
459.434	6.14
459.787	6.13
460.141	6.13
460.494	6.13
460.847	6.16
461.2	6.15
461.553	6.17
461.906	6.19
462.259	6.21
462.611	6.21
462.964	6.23
463.317	6.23
463.67	6.24
464.022	6.24
464.375	6.24
464.728	6.26
465.08	6.23
465.433	6.2
465.785	6.2
466.138	6.23
466.49	6.24
466.843	6.25
467.195	6.25
467.547	6.24
467.899	6.26
468.252	6.23
468.604	6.23
468.956	6.22
469.308	6.2
469.66	6.18
470.012	6.17
470.364	6.17
470.716	6.16
471.068	6.16
471.42	6.17
471.772	6.17
472.123	6.15
472.475	6.18
472.827	6.19
473.178	6.2
473.53	6.16
473.882	6.16
474.233	6.14
474.585	6.13
474.936	6.14
475.288	6.13
475.639	6.15
475.99	6.18
476.342	6.2
476.693	6.21
477.044	6.26
477.395	6.27
477.746	6.27
478.097	6.26
478.448	6.26
478.8	6.27
479.15	6.26
479.501	6.28
479.852	6.3
480.203	6.32
480.554	6.33
480.905	6.34
481.255	6.36
481.606	6.37
481.957	6.39
482.307	6.39
482.658	6.4
483.009	6.4
483.359	6.39
483.709	6.39
484.06	6.4
484.41	6.39
484.761	6.38
485.111	6.39
485.461	6.39
485.811	6.4
486.162	6.4
486.512	6.41
486.862	6.4
487.212	6.39
487.562	6.38
487.912	6.39
488.262	6.38
488.612	6.38
488.961	6.39
489.311	6.38
489.661	6.37
490.011	6.38
490.36	6.38
490.71	6.37
491.06	6.38
491.409	6.37
491.759	6.37
492.108	6.38
492.458	6.36
492.807	6.35
493.157	6.36
493.506	6.35
493.855	6.34
494.204	6.33
494.554	6.33
494.903	6.35
495.252	6.32
495.601	6.32
495.95	6.32
496.299	6.3
496.648	6.32
496.997	6.31
497.346	6.31
497.695	6.3
498.043	6.31
498.392	6.29
498.741	6.28
499.09	6.29
499.438	6.26
499.787	6.29
500.135	6.31
500.484	6.31
500.832	6.32
501.181	6.35
501.529	6.37
501.878	6.39
502.226	6.38
502.574	6.38
502.923	6.38
503.271	6.37
503.619	6.38
503.967	6.37
504.315	6.36
504.663	6.34
505.011	6.34
505.359	6.34
505.707	6.35
506.055	6.35
506.403	6.34
506.751	6.36
507.098	6.37
507.446	6.36
507.794	6.37
508.141	6.37
508.489	6.37
508.837	6.39
509.184	6.37
509.531	6.39
509.879	6.43
510.226	6.44
510.574	6.44
510.921	6.44
511.268	6.45
511.616	6.46
511.963	6.46
512.31	6.46
512.657	6.46
513.004	6.47
513.351	6.47
513.698	6.48
514.045	6.46
514.392	6.44
514.739	6.44
515.086	6.45
515.432	6.44
515.779	6.43
516.126	6.44
516.473	6.45
516.819	6.46
517.166	6.43
517.512	6.43
517.859	6.42
518.205	6.41
518.552	6.43
518.898	6.44
519.245	6.45
519.591	6.47
519.937	6.47
520.283	6.47
520.629	6.48
520.976	6.48
521.322	6.49
521.668	6.51
522.014	6.51
522.36	6.51
522.706	6.53
523.052	6.53
523.398	6.54
523.743	6.54
524.089	6.53
524.435	6.56
524.781	6.57
525.126	6.6
525.472	6.62
525.817	6.62
526.163	6.61
526.509	6.63
526.854	6.63
527.199	6.66
527.545	6.64
527.89	6.65
528.235	6.66
528.581	6.66
528.926	6.66
529.271	6.65
529.616	6.63
529.961	6.64
530.306	6.66
530.651	6.66
530.996	6.67
531.341	6.66
531.686	6.65
532.031	6.66
532.376	6.66
532.721	6.65
533.065	6.64
533.41	6.67
533.755	6.65
534.099	6.66
534.444	6.64
534.788	6.67
535.133	6.67
535.477	6.66
535.822	6.66
536.166	6.66
536.51	6.68
536.855	6.7
537.199	6.7
537.543	6.69
537.887	6.69
538.231	6.7
538.576	6.71
538.92	6.73
539.264	6.72
539.608	6.73
539.951	6.72
540.295	6.72
540.639	6.71
540.983	6.73
541.327	6.71
541.671	6.71
542.014	6.7
542.358	6.7
542.701	6.7
543.045	6.71
543.389	6.72
543.732	6.74
544.075	6.75
544.419	6.75
544.762	6.75
545.105	6.76
545.449	6.75
545.792	6.75
546.135	6.75
546.478	6.77
546.821	6.76
547.165	6.76
547.508	6.8
547.851	6.78
548.194	6.77
548.536	6.76
548.879	6.78
549.222	6.79
549.565	6.79
549.908	6.78
550.25	6.79
550.593	6.81
550.936	6.75
551.278	6.75
551.621	6.76
551.963	6.78
552.306	6.77
552.648	6.75
552.991	6.76
553.333	6.73
553.675	6.73
554.017	6.75
554.36	6.75
554.702	6.74
555.044	6.76
555.386	6.75
555.728	6.8
556.07	6.81
556.412	6.81
556.754	6.79
557.096	6.81
557.438	6.83
557.78	6.85
558.121	6.92
558.463	6.93
558.805	6.89
559.147	6.89
559.488	6.92
559.83	6.93
560.171	6.94
560.513	6.97
560.854	6.94
561.196	6.91
561.537	6.92
561.878	6.87
562.22	6.89
562.561	6.88
562.902	6.86
563.243	6.83
563.584	6.84
563.925	6.85
564.266	6.85
564.607	6.83
564.948	6.82
565.289	6.77
565.63	6.76
565.971	6.78
566.312	6.77
566.653	6.75
566.993	6.76
567.334	6.76
567.675	6.76
568.015	6.79
568.356	6.78
568.696	6.82
569.037	6.84
569.377	6.85
569.718	6.88
570.058	6.88
570.398	6.91
570.739	6.89
571.079	6.91
571.419	6.92
571.759	6.93
572.099	6.91
572.439	6.9
572.779	6.87
573.119	6.86
573.459	6.92
573.799	6.93
574.139	6.93
574.479	6.93
574.819	6.91
575.158	6.9
575.498	6.89
575.838	6.87
576.177	6.9
576.517	6.87
576.856	6.86
577.196	6.87
577.535	6.84
577.875	6.86
578.214	6.83
578.553	6.85
578.893	6.8
579.232	6.82
579.571	6.88
579.91	6.93
580.25	6.93
580.589	6.9
580.928	6.87
581.267	6.88
581.606	6.85
581.945	6.85
582.283	6.87
582.622	6.88
582.961	6.86
583.3	6.82
583.639	6.86
583.977	6.89
584.316	6.89
584.654	6.88
584.993	6.88
585.332	6.92
585.67	6.9
586.008	6.95
586.347	6.93
586.685	6.9
587.024	6.85
587.362	6.83
587.7	6.84
588.038	6.85
588.376	6.86
588.715	6.87
589.053	6.9
589.391	6.89
589.729	6.87
590.067	6.9
590.404	6.9
590.742	6.88
591.08	6.86
591.418	6.89
591.756	6.93
592.093	6.89
592.431	6.89
592.769	6.91
593.106	6.89
593.444	6.9
593.781	6.88
594.119	6.89
594.456	6.89
594.793	6.87
595.131	6.88
595.468	6.86
595.805	6.83
596.143	6.83
596.48	6.86
596.817	6.91
597.154	6.88
597.491	6.9
597.828	6.86
598.165	6.85
598.502	6.82
598.839	6.81
599.176	6.82
599.512	6.83
599.849	6.84
600.186	6.85
600.523	6.86
600.859	6.92
601.196	6.94
601.532	6.96
601.869	6.96
602.205	6.95
602.542	6.95
602.878	6.99
603.215	7.01
603.551	6.97
603.887	6.95
604.223	6.96
604.56	6.98
604.896	6.97
605.232	7.01
605.568	7
605.904	7.01
606.24	7.04
606.576	7.04
606.912	7.03
607.248	7.03
607.583	7.05
607.919	7.03
608.255	6.98
608.591	7.02
608.926	7.03
609.262	7.09
609.597	7.11
609.933	7.09
610.268	7.09
610.604	7.1
610.939	7.15
611.275	7.17
611.61	7.12
611.945	7.15
612.281	7.12
612.616	7.11
612.951	7.11
613.286	7.15
613.621	7.15
613.956	7.18
614.291	7.2
614.626	7.13
614.961	7.09
615.296	7.13
615.631	7.08
615.966	7.06
616.3	6.99
616.635	7
616.97	7.03
617.304	6.98
617.639	7.05
617.973	7
618.308	6.97
618.642	6.98
618.977	7.01
619.311	6.98
619.646	7.03
619.98	7.05
620.314	7.01
620.648	7.05
620.983	7
621.317	6.99
621.651	7.08
621.985	7.14
622.319	7.17
622.653	7.16
622.987	7.18
623.321	7.18
623.655	7.19
623.988	7.22
624.322	7.23
624.656	7.2
624.99	7.23
625.323	7.23
625.657	7.21
625.99	7.22
626.324	7.26
626.657	7.22
626.991	7.22
627.324	7.24
627.658	7.21
627.991	7.21
628.324	7.21
628.657	7.13
628.991	7.16
629.324	7.14
629.657	7.15
629.99	7.18
630.323	7.2
630.656	7.19
630.989	7.19
631.322	7.16
631.655	7.14
631.987	7.2
632.32	7.2
632.653	7.23
632.986	7.21
633.318	7.21
633.651	7.22
633.984	7.16
634.316	7.14
634.649	7.13
634.981	7.09
635.313	7.13
635.646	7.21
635.978	7.18
636.31	7.21
636.643	7.21
636.975	7.17
637.307	7.15
637.639	7.14
637.971	7.14
638.303	7.16
638.635	7.18
638.967	7.12
639.299	7.16
639.631	7.19
639.963	7.19
640.295	7.17
640.626	7.2
640.958	7.27
641.29	7.28
641.621	7.3
641.953	7.38
642.285	7.34
642.616	7.31
642.948	7.28
643.279	7.25
643.61	7.26
643.942	7.23
644.273	7.21
644.604	7.19
644.936	7.07
645.267	7.04
645.598	7.04
645.929	7.06
646.26	7.12
646.591	7.13
646.922	7.12
647.253	7.14
647.584	7.11
647.915	7.05
648.245	7.04
648.576	7.05
648.907	7.02
649.238	6.99
649.568	6.95
649.899	6.98
650.229	7
650.56	7.02
650.89	7.07
651.221	7.08
651.551	7.05
651.882	7.13
652.212	7.16
652.542	7.18
652.872	7.17
653.203	7.08
653.533	7.05
653.863	7.05
654.193	6.98
654.523	7.05
654.853	7.08
655.183	7.13
655.513	7.08
655.843	7.1
656.172	7.16
656.502	7.2
656.832	7.2
657.162	7.24
657.491	7.24
657.821	7.17
658.15	7.2
658.48	7.26
658.809	7.23
659.139	7.25
659.468	7.22
659.798	7.19
660.127	7.23
660.456	7.25
660.785	7.27
661.115	7.31
661.444	7.29
661.773	7.3
662.102	7.21
662.431	7.31
662.76	7.29
663.089	7.24
663.418	7.24
663.747	7.25
664.076	7.15
664.404	7.16
664.733	7.25
665.062	7.18
665.39	7.15
665.719	7.22
666.048	7.21
666.376	7.15
666.705	7.16
667.033	7.14
667.362	7.2
667.69	7.19
668.018	7.18
668.347	7.16
668.675	7.15
669.003	7.22
669.331	7.22
669.659	7.23
669.987	7.27
670.315	7.31
670.643	7.34
670.971	7.41
671.299	7.43
671.627	7.49
671.955	7.56
672.283	7.55
672.61	7.46
672.938	7.44
673.266	7.53
673.593	7.67
673.921	7.63
674.249	7.54
674.576	7.52
674.904	7.57
675.231	7.57
675.558	7.57
675.886	7.62
676.213	7.59
676.54	7.61
676.867	7.63
677.195	7.46
677.522	7.39
677.849	7.42
678.176	7.4
678.503	7.31
678.83	7.32
679.157	7.29
679.484	7.37
679.81	7.39
680.137	7.33
680.464	7.24
680.791	7.19
681.117	7.25
681.444	7.23
681.771	7.21
682.097	7.17
682.424	7.13
682.75	7.1
683.077	7.09
683.403	7.11
683.729	7.09
684.056	7.23
684.382	7.28
684.708	7.19
685.034	7.21
685.36	7.24
685.686	7.16
686.012	7.19
686.339	7.29
686.664	7.31
686.99	7.36
687.316	7.28
687.642	7.33
687.968	7.27
688.294	7.37
688.619	7.37
688.945	7.37
689.271	7.42
689.596	7.37
689.922	7.32
690.247	7.27
690.573	7.24
690.898	7.26
691.224	7.35
691.549	7.42
691.874	7.4
692.2	7.48
692.525	7.66
692.85	7.8
693.175	7.77
693.5	7.74
693.825	7.81
694.15	7.9
694.475	7.99
694.8	8.1
695.125	7.98
695.45	8.03
695.775	8.01
696.099	8.04
696.424	8.03
696.749	8.09
697.073	8.07
697.398	8.07
697.723	8.1
698.047	8.05
698.372	8.01
698.696	8.04
699.02	7.96
699.345	7.85
699.669	7.79
699.993	7.68
700.318	7.72
700.642	7.7
700.966	7.67
701.29	7.62
701.614	7.59
701.938	7.7
702.262	7.7
702.586	7.91
702.91	7.9
703.234	7.95
703.557	7.87
703.881	7.87
704.205	7.91
704.529	7.84
704.852	7.8
705.176	7.94
705.499	7.86
705.823	7.88
706.146	7.96
706.47	8
706.793	8.16
707.117	8.14
707.44	8.02
707.763	8.07
708.086	8.02
708.409	7.96
708.733	7.82
709.056	7.79
709.379	7.63
709.702	7.58
710.025	7.64
710.348	7.62
710.671	7.64
710.993	7.59
711.316	7.68
711.639	7.74
711.962	7.78
712.284	7.76
712.607	7.85
712.93	7.85
713.252	7.76
713.575	7.59
713.897	7.61
714.22	7.76
714.542	7.78
714.864	7.81
715.187	7.89
715.509	8
715.831	8.09
716.153	8.1
716.475	8.16
716.798	8.19
717.12	8.17
717.442	8.2
717.764	8.27
718.085	8.17
718.407	8.17
718.729	8.01
719.051	8.06
719.373	7.97
719.695	7.98
720.016	7.96
720.338	8.1
720.659	8.03
720.981	7.96
721.302	8.03
721.624	8.18
721.945	7.97
722.267	7.91
722.588	7.62
722.909	7.62
723.231	7.46
723.552	7.35
723.873	7.38
724.194	7.47
724.515	7.41
724.836	7.25
725.157	7.26
725.478	7.17
725.799	7.21
726.12	7.31
726.441	7.28
726.762	7.51
727.083	7.47
727.403	7.46
727.724	7.61
728.045	7.46
728.365	7.26
728.686	7.39
729.006	7.37
729.327	7.49
729.647	7.45
729.967	7.73
730.288	7.83
730.608	7.91
730.928	7.85
731.249	7.81
731.569	8.14
731.889	8.16
732.209	8.24
732.529	8.12
732.849	8.1
733.169	8.12
733.489	7.94
733.809	8.04
734.129	8.18
734.448	8.11
734.768	8.26
735.088	8.37
735.408	8.51
735.727	8.75
736.047	8.93
736.366	8.87
736.686	8.61
737.005	8.67
737.325	8.76
737.644	8.75
737.963	8.85
738.283	8.66
738.602	8.6
738.921	8.64
739.24	8.85
739.56	8.72
739.879	8.87
740.198	9.03
740.517	8.95
740.836	8.98
741.155	8.87
741.473	8.69
741.792	8.58
742.111	8.52
742.43	8.33
742.748	8.02
743.067	8
743.386	8.35
743.704	8.08
744.023	8.06
744.341	7.99
744.66	7.99
744.978	8.05
745.297	8.2
745.615	8.28
745.933	8.09
746.252	8.29
746.57	8.1
746.888	7.92
747.206	7.78
747.524	7.48
747.842	7.54
748.16	7.81
748.478	8.05
748.796	8.03
749.114	8.24
749.432	8.46
749.749	8.5
750.067	8.34
750.385	8.39
750.703	8.15
751.02	8.21
751.338	8.27
751.655	8.18
751.973	7.78
752.29	7.61
752.608	7.84
752.925	7.66
753.242	7.66
753.56	7.69
753.877	7.73
754.194	8.02
754.511	7.98
754.828	7.83
755.145	7.69
755.462	7.58
755.779	7.69
756.096	7.76
756.413	8.13
756.73	8.04
757.047	8.2
757.364	8.42
757.68	8.43
757.997	8.47
758.314	8.47
758.63	8.62
758.947	8.69
759.264	8.57
759.58	8.47
759.896	8.62
760.213	8.48
760.529	8.66
760.846	8.58
761.162	8.53
761.478	8.47
761.794	8.44
762.11	8.51
762.426	8.41
762.743	8.31
763.059	8.14
763.375	8.26
763.69	8.45
764.006	8.38
764.322	8.38
764.638	8.37
764.954	8.52
765.27	8.59
765.585	8.73
765.901	8.78
766.216	9.02
766.532	8.87
766.848	9.02
767.163	8.91
767.478	9.04
767.794	9.12
768.109	9.24
768.424	9.52
768.74	9.57
769.055	9.37
769.37	9.61
769.685	9.88
770	9.69
770.315	9.25
770.63	9.37
770.945	9.44
771.26	9.29
771.575	9.28
771.89	9.46
772.205	9.54
772.52	9.42
772.834	9.33
773.149	9.51
773.464	9.62
773.778	9.85
774.093	9.61
774.407	9.78
774.722	9.46
775.036	9.29
775.351	9.44
775.665	9.5
775.979	9.18
776.293	8.98
776.608	9.09
776.922	9.35
777.236	9.27
777.55	9.43
777.864	9.42
778.178	9.37
778.492	9.17
778.806	8.92
779.12	9.14
779.434	9.13
779.747	8.87
780.061	8.77
780.375	8.69
780.689	8.85
781.002	8.67
781.316	8.94
781.629	8.83
781.943	9
782.256	8.87
782.57	9.15
782.883	9.08
783.196	8.58
783.51	8.15
783.823	8.15
784.136	8.2
784.449	8.15
784.762	8.25
785.075	8.35
785.388	8.5
785.701	8.52
786.014	8.71
786.327	9.09
786.64	9.39
786.953	9.2
787.266	8.97
787.578	9.04
787.891	9.35
788.204	9.12
788.516	8.51
788.829	9
789.141	9.19
789.454	9.28
789.766	10.42
790.079	10.45
790.391	9.96
790.703	10.02
791.016	10.4
791.328	10.6
791.64	10.23
791.952	9.88
792.264	9.45
792.576	9.11
792.888	8.78
793.2	8.44
793.512	8.56
793.824	9.06
794.136	8.98
794.448	8.16
794.76	8.09
795.071	8.37
795.383	8.01
795.695	7.24
796.006	7.27
796.318	6.52
796.629	6.93
796.941	7.34
797.252	7.57
797.564	7.6
797.875	7.26
798.186	7.47
798.497	7.92
798.809	8.15
799.12	8.54
799.431	8.45
799.742	8.11
800.053	8.06
800.364	7.69
800.675	7.57
800.986	8.11
801.297	8.29
801.608	7.86
801.918	8.06
802.229	8.58
802.54	8.58
802.851	8.84
803.161	8.96
803.472	9.65
803.782	9.28
804.093	9.24
804.403	8.59
804.714	9.16
805.024	8.73
805.334	8.95
805.645	8.92
805.955	9.39
806.265	9.72
806.575	9.5
806.885	9.42
807.195	9.88
807.505	10.04
807.815	10.04
808.125	10.69
808.435	10.57
808.745	10.32
809.055	10
809.365	9.95
809.674	10.34
809.984	10.11
810.294	9.84
810.603	10.08
810.913	11.59
811.222	11.64
811.532	11.91
811.841	11.74
812.151	11.55
812.46	11.65
812.769	11.46
813.079	11.19
813.388	11.33
813.697	11.1
814.006	11.18
814.315	11.38
814.624	10.67
814.933	11.03
815.242	11.38
815.551	11.84
815.86	12.17
816.169	10.86
816.478	10.12
816.786	10.38
817.095	10.15
817.404	9.53
817.712	9.45
818.021	9.92
818.33	10.02
818.638	9.56
818.947	9.7
819.255	10.26
819.563	10.75
819.872	11.08
820.18	11.06
820.488	10.66
820.796	10.78
821.105	10.88
821.413	10.68
821.721	10.48
822.029	10.49
822.337	10.54
822.645	10.79
822.953	10.91
823.26	10.85
823.568	10.67
823.876	10.76
824.184	10.7
824.491	10.69
824.799	10.68
825.107	10.83
825.414	10.88
825.722	10.91
826.029	10.92
826.337	10.81
826.644	10.72
826.951	10.94
827.259	10.88
827.566	10.8
827.873	10.74
828.18	10.7
828.488	10.48
828.795	10.26
829.102	10.1
829.409	10.1
829.716	9.9
830.023	10.01
830.329	9.56
830.636	9.31
830.943	8.87
831.25	8.81
831.557	8.59
831.863	8.26
832.17	7.54
832.476	7.49
832.783	7.84
833.089	7.78
833.396	7.56
833.702	7.81
834.009	7.85
834.315	7.78
834.621	8.21
834.928	8.55
835.234	8.43
835.54	8.36
835.846	8.49
836.152	8.37
836.458	8.36
836.764	8.28
837.07	7.77
837.376	7.98
837.682	8.19
837.988	7.77
838.293	7.45
838.599	7.99
838.905	7.56
839.211	6.61
839.516	6.84
839.822	6.81
840.127	6.36
840.433	6.35
840.738	6.96
841.044	6.6
841.349	6.77
841.654	7
841.959	7.4
842.265	6.77
842.57	7.17
842.875	8.1
843.18	8.74
843.485	10.19
843.79	9.12
844.095	7.26
844.4	9.25
844.705	8.78
845.01	8.29
845.315	7.84
845.619	7.3
845.924	6.58
846.229	6.9
846.533	7.54
846.838	7.48
847.142	6.47
847.447	6
847.751	5.92
848.056	3.77
848.36	2.88
848.664	3.07
848.969	3.69
849.273	0.36
849.577	-0.85
849.881	-0.81
850.185	1.44
850.489	2.92
850.794	2.05
851.097	1.66
851.401	2.91
851.705	4.27
852.009	5.16
852.313	6.55
852.617	5.85
852.92	5.95
853.224	5.51
853.528	7.59
853.831	8.81
854.135	8.75
854.438	9.49
854.742	9.63
855.045	9.82
855.349	9.57
855.652	11.85
855.955	12.13
856.259	10.39
856.562	11.43
856.865	11.68
857.168	9.52
857.471	10.2
857.774	9.32
858.077	8.63
858.38	8.23
858.683	7.17
858.986	6.94
859.289	4.51
859.592	3.76
859.894	2.37
860.197	0.84
860.5	-0.53
860.802	-0.28
861.105	-0.07
861.407	-0.8
861.71	-0.84
862.012	-1
862.315	-0.85
862.617	-0.39
862.919	-2.07
863.222	-1.87
863.524	-0.07
863.826	2.3
864.128	1.97
864.43	1.93
864.732	1.77
865.034	1.59
865.336	0.8
865.638	1.24
865.94	0.55
866.242	0.74
866.544	0.18
866.846	0.38
867.147	2.76
867.449	1.69
867.751	1.37
868.052	1.4
868.354	0.73
868.655	1.36
868.957	2.8
869.258	2.93
869.56	1.42
869.861	0.66
870.162	-0.21
870.463	-0.67
870.765	-2.3
871.066	-2.09
871.367	-2.25
871.668	-2.65
871.969	-3.13
872.27	-1.74
872.571	-1.49
872.872	-1.63
873.173	-3.27
873.473	-4.96
873.774	-3.89
874.075	-3.23
874.376	-4.45
874.676	-2.44
874.977	-5.27
875.277	-5.5
875.578	-4.24
875.878	-3.07
876.179	-2.96
876.479	-3.43
876.78	-3.63
877.08	-1.99
877.38	-2.42
877.68	-2.29
877.981	-1.09
878.281	-0.31
878.581	0.52
