Data from BU57994_Reflection_00003.txt Node
Date: Mon Nov 18 16:53:01 EST 2019
User: vgr7
Spectrometer: USB2G7710
Scans to average: 3
Trigger mode: 4
Integration Time (sec): 2.000000E-2
Electric dark correction enabled: true
Boxcar width: 10
XAxis mode: Wavelengths
Number of Pixels in Spectrum: 2048
>>>>>Begin Spectral Data<<<<<
177.721	72.29
178.105	-98.81
178.488	-63.5
178.871	-127.83
179.254	-119.18
179.636	5.86
180.019	117.08
180.402	7.69
180.785	428.17
181.168	-150
181.55	-43.76
181.933	62.79
182.316	63.54
182.698	65.11
183.081	35.9
183.463	23.94
183.846	86.82
184.228	59.5
184.611	69.96
184.993	-195.3
185.376	22.42
185.758	23.88
186.14	-401.51
186.522	-106.75
186.904	-102.08
187.287	-97.71
187.669	2.14
188.051	63.69
188.433	30.68
188.815	65.61
189.197	16.71
189.579	-7.25
189.961	9.6
190.342	-5.65
190.724	-4.67
191.106	-18.45
191.488	-11.91
191.869	6.21
192.251	-0.66
192.633	3.15
193.014	-14.21
193.396	-61.44
193.777	-30.51
194.159	-32.16
194.54	-39.09
194.922	-31.36
195.303	-27.68
195.684	-48.29
196.065	-38.97
196.447	-16.21
196.828	-55.48
197.209	-25.06
197.59	-1.71
197.971	9.58
198.352	46.66
198.733	47.41
199.114	63.78
199.495	43.23
199.876	30.23
200.257	33.79
200.638	20.8
201.018	29.57
201.399	30.86
201.78	26.93
202.16	28.37
202.541	31.89
202.922	45.11
203.302	40.38
203.683	38.15
204.063	21.38
204.444	7.43
204.824	25.89
205.204	16.23
205.585	5.09
205.965	-6.78
206.345	-41.19
206.725	-46.86
207.106	-51.3
207.486	-59.67
207.866	-37.64
208.246	-72.76
208.626	-85.69
209.006	-87.71
209.386	-81.55
209.766	-51.74
210.145	-35.48
210.525	-12.15
210.905	-13.09
211.285	-10.81
211.664	-2.13
212.044	8.67
212.424	13.82
212.803	14.13
213.183	15.81
213.562	11.89
213.942	25.26
214.321	25.03
214.701	24.39
215.08	7.06
215.459	6.57
215.838	11.22
216.218	10.34
216.597	9.32
216.976	11.55
217.355	18.61
217.734	11.49
218.113	-1.31
218.492	-10.42
218.871	-15.35
219.25	-21.81
219.629	-29.8
220.008	-47.24
220.387	-41.03
220.766	-48.7
221.144	-52.93
221.523	-53.15
221.902	-48
222.28	-52.11
222.659	-35.1
223.037	-13.39
223.416	-15.49
223.794	-17.49
224.173	-13.76
224.551	-6.65
224.929	-1.96
225.308	-2.99
225.686	-5.24
226.064	3.31
226.442	3.46
226.821	2.33
227.199	5.17
227.577	4
227.955	5.8
228.333	3.49
228.711	4.36
229.089	6.01
229.467	6.95
229.845	4.63
230.222	2.58
230.6	0.14
230.978	-1.74
231.356	-1.68
231.733	-2.59
232.111	-1.01
232.488	-0.72
232.866	-1.29
233.243	-0.82
233.621	0.72
233.998	-0.34
234.376	-1.37
234.753	-1.23
235.13	-1.34
235.508	0.46
235.885	0.56
236.262	-1.14
236.639	-0.84
237.016	0.13
237.393	-0.16
237.77	0.6
238.147	1.83
238.524	2.17
238.901	2.77
239.278	3.43
239.655	4.28
240.032	3.92
240.409	3.04
240.785	2.6
241.162	2.99
241.539	3.2
241.915	3.77
242.292	4.13
242.668	4.66
243.045	4.67
243.421	3.98
243.798	3.85
244.174	4.06
244.551	4.19
244.927	4.05
245.303	4.36
245.679	4.4
246.056	4.05
246.432	3.83
246.808	3.95
247.184	3.6
247.56	3.33
247.936	3.23
248.312	3.47
248.688	3.77
249.064	3.66
249.44	3.58
249.815	3.6
250.191	3.73
250.567	3.63
250.943	3.53
251.318	3.72
251.694	3.88
252.069	3.92
252.445	3.86
252.82	3.93
253.196	3.76
253.571	3.61
253.947	3.86
254.322	4.31
254.697	4.13
255.073	4.33
255.448	4.33
255.823	4.36
256.198	4.52
256.573	4.31
256.948	4.34
257.323	4.52
257.698	4.33
258.073	4.14
258.448	4.08
258.823	4.16
259.198	4.26
259.573	4.26
259.948	4.28
260.322	4.27
260.697	4.2
261.072	4.17
261.446	4.22
261.821	4.32
262.195	4.25
262.57	4.12
262.944	4.06
263.319	4.01
263.693	4.14
264.067	3.99
264.442	4.15
264.816	4.15
265.19	3.97
265.564	4.09
265.938	4.09
266.313	4.12
266.687	3.94
267.061	3.98
267.435	3.97
267.809	3.91
268.183	3.88
268.556	3.88
268.93	3.85
269.304	3.83
269.678	3.9
270.051	3.82
270.425	3.89
270.799	3.94
271.172	4.03
271.546	3.87
271.919	3.95
272.293	3.86
272.666	3.9
273.04	4.02
273.413	3.93
273.787	3.92
274.16	3.81
274.533	3.82
274.906	3.63
275.279	3.55
275.653	3.6
276.026	3.54
276.399	3.53
276.772	3.7
277.145	3.64
277.518	3.53
277.891	3.56
278.263	3.41
278.636	3.53
279.009	3.42
279.382	3.63
279.755	3.64
280.127	3.69
280.5	3.76
280.872	3.64
281.245	3.63
281.617	3.8
281.99	3.89
282.362	4.06
282.735	4.1
283.107	4.07
283.479	4.17
283.852	4.25
284.224	4.26
284.596	4.09
284.968	4.21
285.34	4.27
285.713	4.28
286.085	4.39
286.457	4.5
286.829	4.54
287.201	4.47
287.572	4.47
287.944	4.43
288.316	4.52
288.688	4.54
289.06	4.64
289.431	4.51
289.803	4.54
290.175	4.51
290.546	4.67
290.918	4.74
291.289	4.61
291.661	4.6
292.032	4.7
292.403	4.86
292.775	4.98
293.146	5
293.517	5.12
293.889	5.11
294.26	4.98
294.631	5.03
295.002	5.01
295.373	5.04
295.744	5.07
296.115	5.05
296.486	5.03
296.857	5
297.228	5.22
297.599	5.16
297.97	5.32
298.34	5.33
298.711	5.37
299.082	5.41
299.452	5.45
299.823	5.45
300.194	5.49
300.564	5.37
300.935	5.41
301.305	5.31
301.676	5.48
302.046	5.49
302.416	5.61
302.787	5.57
303.157	5.63
303.527	5.65
303.897	5.67
304.267	5.88
304.637	5.84
305.008	5.75
305.378	5.93
305.748	5.68
306.117	5.65
306.487	5.69
306.857	5.72
307.227	5.77
307.597	5.81
307.967	5.78
308.336	5.86
308.706	5.83
309.076	5.83
309.445	5.67
309.815	5.62
310.184	5.63
310.554	5.75
310.923	5.72
311.293	5.7
311.662	5.53
312.031	5.38
312.401	5.38
312.77	5.39
313.139	5.39
313.508	5.47
313.877	5.41
314.246	5.35
314.616	5.44
314.985	5.47
315.353	5.31
315.722	5.31
316.091	5.21
316.46	5.16
316.829	5.41
317.198	5.54
317.567	5.6
317.935	5.52
318.304	5.64
318.672	5.56
319.041	5.62
319.41	5.81
319.778	5.76
320.147	5.8
320.515	5.68
320.883	5.66
321.252	5.79
321.62	5.83
321.988	5.95
322.357	5.85
322.725	5.65
323.093	5.78
323.461	5.75
323.829	5.91
324.197	5.96
324.565	5.84
324.933	5.83
325.301	5.81
325.669	5.78
326.037	5.59
326.405	5.68
326.772	5.73
327.14	5.74
327.508	5.83
327.875	5.85
328.243	6.01
328.61	5.99
328.978	5.86
329.346	5.99
329.713	5.86
330.08	5.8
330.448	5.75
330.815	5.68
331.182	5.51
331.55	5.31
331.917	5.34
332.284	5.39
332.651	5.48
333.018	5.58
333.385	5.61
333.752	5.63
334.119	5.56
334.486	5.49
334.853	5.39
335.22	5.43
335.587	5.36
335.954	5.29
336.32	5.32
336.687	5.38
337.054	5.2
337.42	5.33
337.787	5.44
338.153	5.69
338.52	5.77
338.886	5.79
339.253	5.91
339.619	5.85
339.986	5.8
340.352	5.71
340.718	5.68
341.084	5.76
341.451	5.93
341.817	6.09
342.183	6.07
342.549	6.06
342.915	6.04
343.281	6.07
343.647	6
344.013	6.01
344.379	5.82
344.745	5.87
345.11	5.77
345.476	5.77
345.842	5.67
346.208	5.69
346.573	5.78
346.939	5.81
347.304	5.82
347.67	5.82
348.035	5.81
348.401	5.9
348.766	5.81
349.132	5.73
349.497	5.62
349.862	5.72
350.228	5.73
350.593	5.74
350.958	5.8
351.323	5.85
351.688	5.86
352.053	6.01
352.418	6.02
352.783	6.1
353.148	6
353.513	6.1
353.878	6.07
354.243	6.07
354.608	6.03
354.972	6.05
355.337	6.09
355.702	6.21
356.066	6.14
356.431	6.11
356.795	6.09
357.16	6.12
357.524	6.05
357.889	6.01
358.253	6.03
358.618	5.98
358.982	5.96
359.346	5.91
359.71	5.86
360.075	5.87
360.439	5.81
360.803	5.85
361.167	5.74
361.531	5.74
361.895	5.73
362.259	5.68
362.623	5.71
362.987	5.69
363.351	5.62
363.714	5.63
364.078	5.71
364.442	5.71
364.806	5.71
365.169	5.75
365.533	5.76
365.896	5.75
366.26	5.8
366.623	5.78
366.987	5.87
367.35	5.96
367.714	5.96
368.077	6.02
368.44	6.02
368.803	6.04
369.167	6
369.53	5.96
369.893	6.1
370.256	6.13
370.619	6.09
370.982	6.05
371.345	6.03
371.708	6.09
372.071	5.98
372.434	5.93
372.797	5.91
373.159	5.95
373.522	5.94
373.885	5.94
374.247	5.93
374.61	5.85
374.973	5.8
375.335	5.85
375.698	5.85
376.06	5.81
376.423	5.87
376.785	5.91
377.147	5.96
377.51	5.89
377.872	5.9
378.234	5.91
378.596	5.97
378.958	5.92
379.321	5.83
379.683	5.9
380.045	5.96
380.407	5.94
380.769	5.95
381.13	5.96
381.492	5.95
381.854	6.03
382.216	6.01
382.578	6.02
382.939	5.96
383.301	5.93
383.663	5.93
384.024	5.9
384.386	5.89
384.747	5.87
385.109	5.87
385.47	5.84
385.832	5.8
386.193	5.79
386.554	5.83
386.916	5.84
387.277	5.86
387.638	5.85
387.999	5.88
388.36	5.87
388.721	5.9
389.082	5.9
389.443	5.87
389.804	5.88
390.165	5.87
390.526	5.91
390.887	5.92
391.248	5.94
391.609	5.93
391.969	5.91
392.33	5.93
392.691	5.94
393.051	5.89
393.412	5.91
393.772	5.89
394.133	5.87
394.493	5.89
394.854	5.92
395.214	5.92
395.574	5.89
395.935	5.95
396.295	5.95
396.655	5.95
397.015	5.93
397.376	5.94
397.736	5.91
398.096	5.88
398.456	5.91
398.816	5.94
399.176	5.95
399.535	5.97
399.895	5.95
400.255	5.94
400.615	6
400.975	6.03
401.334	5.99
401.694	6.01
402.054	6
402.413	5.97
402.773	5.93
403.132	5.97
403.492	5.9
403.851	5.9
404.211	5.91
404.57	5.91
404.929	5.93
405.288	5.94
405.648	5.97
406.007	5.91
406.366	5.91
406.725	5.9
407.084	5.93
407.443	5.95
407.802	5.94
408.161	5.93
408.52	5.87
408.879	5.89
409.238	5.87
409.596	5.85
409.955	5.81
410.314	5.85
410.673	5.82
411.031	5.83
411.39	5.81
411.748	5.79
412.107	5.78
412.465	5.78
412.824	5.8
413.182	5.77
413.54	5.82
413.899	5.8
414.257	5.81
414.615	5.79
414.974	5.77
415.332	5.79
415.69	5.78
416.048	5.8
416.406	5.82
416.764	5.83
417.122	5.84
417.48	5.85
417.838	5.84
418.195	5.86
418.553	5.84
418.911	5.82
419.269	5.83
419.626	5.82
419.984	5.8
420.342	5.82
420.699	5.82
421.057	5.8
421.414	5.8
421.772	5.81
422.129	5.8
422.486	5.8
422.844	5.8
423.201	5.8
423.558	5.81
423.915	5.82
424.273	5.81
424.63	5.81
424.987	5.81
425.344	5.81
425.701	5.81
426.058	5.8
426.415	5.81
426.772	5.81
427.128	5.81
427.485	5.83
427.842	5.81
428.199	5.84
428.555	5.84
428.912	5.84
429.269	5.84
429.625	5.86
429.982	5.87
430.338	5.88
430.695	5.88
431.051	5.85
431.407	5.85
431.764	5.87
432.12	5.86
432.476	5.87
432.832	5.86
433.189	5.88
433.545	5.9
433.901	5.9
434.257	5.89
434.613	5.92
434.969	5.91
435.325	5.91
435.681	5.91
436.036	5.92
436.392	5.91
436.748	5.88
437.104	5.87
437.459	5.9
437.815	5.89
438.171	5.89
438.526	5.9
438.882	5.91
439.237	5.91
439.593	5.91
439.948	5.89
440.304	5.9
440.659	5.9
441.014	5.91
441.369	5.92
441.725	5.93
442.08	5.93
442.435	5.94
442.79	5.94
443.145	5.93
443.5	5.93
443.855	5.95
444.21	5.97
444.565	5.99
444.92	5.98
445.275	5.98
445.629	5.98
445.984	5.98
446.339	5.98
446.693	5.97
447.048	5.98
447.403	5.99
447.757	5.99
448.112	5.98
448.466	5.95
448.82	5.95
449.175	5.95
449.529	5.94
449.883	5.92
450.238	5.93
450.592	5.93
450.946	5.93
451.3	5.92
451.654	5.91
452.008	5.9
452.362	5.89
452.716	5.89
453.07	5.9
453.424	5.89
453.778	5.89
454.132	5.89
454.486	5.85
454.839	5.86
455.193	5.84
455.547	5.85
455.9	5.88
456.254	5.86
456.607	5.89
456.961	5.89
457.314	5.89
457.668	5.88
458.021	5.89
458.375	5.88
458.728	5.89
459.081	5.88
459.434	5.87
459.787	5.88
460.141	5.87
460.494	5.86
460.847	5.88
461.2	5.87
461.553	5.89
461.906	5.9
462.259	5.9
462.611	5.91
462.964	5.93
463.317	5.92
463.67	5.93
464.022	5.9
464.375	5.91
464.728	5.93
465.08	5.93
465.433	5.94
465.785	5.94
466.138	5.94
466.49	5.96
466.843	5.97
467.195	5.96
467.547	5.98
467.899	5.99
468.252	5.97
468.604	5.98
468.956	5.97
469.308	5.96
469.66	5.93
470.012	5.96
470.364	5.95
470.716	5.97
471.068	5.95
471.42	5.98
471.772	5.98
472.123	5.98
472.475	5.97
472.827	5.98
473.178	5.96
473.53	5.94
473.882	5.91
474.233	5.91
474.585	5.92
474.936	5.92
475.288	5.92
475.639	5.95
475.99	5.95
476.342	5.94
476.693	5.95
477.044	5.98
477.395	5.98
477.746	5.96
478.097	5.96
478.448	5.98
478.8	6
479.15	6
479.501	6
479.852	6.02
480.203	6.02
480.554	6.03
480.905	6.04
481.255	6.07
481.606	6.07
481.957	6.08
482.307	6.09
482.658	6.08
483.009	6.07
483.359	6.08
483.709	6.09
484.06	6.1
484.41	6.1
484.761	6.1
485.111	6.1
485.461	6.11
485.811	6.11
486.162	6.1
486.512	6.11
486.862	6.1
487.212	6.11
487.562	6.1
487.912	6.1
488.262	6.09
488.612	6.09
488.961	6.09
489.311	6.07
489.661	6.07
490.011	6.07
490.36	6.07
490.71	6.07
491.06	6.06
491.409	6.05
491.759	6.04
492.108	6.04
492.458	6.03
492.807	6.02
493.157	6.02
493.506	6.01
493.855	6
494.204	5.98
494.554	5.96
494.903	5.97
495.252	5.99
495.601	6
495.95	5.99
496.299	5.99
496.648	6.01
496.997	6.01
497.346	5.99
497.695	6
498.043	5.99
498.392	5.99
498.741	5.99
499.09	5.99
499.438	5.99
499.787	5.99
500.135	5.99
500.484	6
500.832	6
501.181	6.01
501.529	6
501.878	6.02
502.226	6.02
502.574	6.02
502.923	6
503.271	5.99
503.619	5.98
503.967	5.96
504.315	5.94
504.663	5.95
505.011	5.95
505.359	5.97
505.707	5.99
506.055	6
506.403	6.03
506.751	6.05
507.098	6.04
507.446	6.07
507.794	6.06
508.141	6.07
508.489	6.06
508.837	6.09
509.184	6.1
509.531	6.1
509.879	6.13
510.226	6.14
510.574	6.13
510.921	6.15
511.268	6.15
511.616	6.2
511.963	6.2
512.31	6.19
512.657	6.19
513.004	6.19
513.351	6.2
513.698	6.2
514.045	6.19
514.392	6.2
514.739	6.19
515.086	6.21
515.432	6.19
515.779	6.19
516.126	6.19
516.473	6.18
516.819	6.18
517.166	6.15
517.512	6.16
517.859	6.18
518.205	6.19
518.552	6.2
518.898	6.17
519.245	6.18
519.591	6.17
519.937	6.15
520.283	6.13
520.629	6.14
520.976	6.12
521.322	6.11
521.668	6.1
522.014	6.1
522.36	6.09
522.706	6.1
523.052	6.1
523.398	6.12
523.743	6.14
524.089	6.13
524.435	6.15
524.781	6.16
525.126	6.16
525.472	6.16
525.817	6.16
526.163	6.18
526.509	6.18
526.854	6.19
527.199	6.2
527.545	6.21
527.89	6.22
528.235	6.22
528.581	6.24
528.926	6.25
529.271	6.26
529.616	6.27
529.961	6.28
530.306	6.29
530.651	6.28
530.996	6.29
531.341	6.31
531.686	6.29
532.031	6.28
532.376	6.28
532.721	6.28
533.065	6.28
533.41	6.27
533.755	6.28
534.099	6.3
534.444	6.29
534.788	6.31
535.133	6.28
535.477	6.3
535.822	6.29
536.166	6.28
536.51	6.27
536.855	6.27
537.199	6.27
537.543	6.26
537.887	6.26
538.231	6.24
538.576	6.25
538.92	6.27
539.264	6.27
539.608	6.28
539.951	6.3
540.295	6.3
540.639	6.3
540.983	6.3
541.327	6.3
541.671	6.3
542.014	6.3
542.358	6.33
542.701	6.32
543.045	6.32
543.389	6.32
543.732	6.33
544.075	6.35
544.419	6.34
544.762	6.33
545.105	6.34
545.449	6.34
545.792	6.33
546.135	6.32
546.478	6.35
546.821	6.34
547.165	6.35
547.508	6.35
547.851	6.35
548.194	6.35
548.536	6.34
548.879	6.36
549.222	6.34
549.565	6.33
549.908	6.35
550.25	6.35
550.593	6.35
550.936	6.31
551.278	6.3
551.621	6.3
551.963	6.32
552.306	6.34
552.648	6.33
552.991	6.34
553.333	6.32
553.675	6.3
554.017	6.31
554.36	6.28
554.702	6.27
555.044	6.27
555.386	6.28
555.728	6.27
556.07	6.29
556.412	6.3
556.754	6.31
557.096	6.29
557.438	6.28
557.78	6.3
558.121	6.33
558.463	6.34
558.805	6.33
559.147	6.28
559.488	6.27
559.83	6.27
560.171	6.27
560.513	6.27
560.854	6.28
561.196	6.27
561.537	6.3
561.878	6.32
562.22	6.32
562.561	6.33
562.902	6.35
563.243	6.33
563.584	6.32
563.925	6.34
564.266	6.34
564.607	6.37
564.948	6.39
565.289	6.41
565.63	6.42
565.971	6.44
566.312	6.48
566.653	6.49
566.993	6.51
567.334	6.51
567.675	6.54
568.015	6.57
568.356	6.59
568.696	6.6
569.037	6.61
569.377	6.63
569.718	6.62
570.058	6.63
570.398	6.61
570.739	6.64
571.079	6.65
571.419	6.65
571.759	6.65
572.099	6.64
572.439	6.61
572.779	6.59
573.119	6.59
573.459	6.6
573.799	6.6
574.139	6.61
574.479	6.6
574.819	6.59
575.158	6.54
575.498	6.55
575.838	6.55
576.177	6.53
576.517	6.49
576.856	6.53
577.196	6.52
577.535	6.55
577.875	6.5
578.214	6.44
578.553	6.44
578.893	6.41
579.232	6.38
579.571	6.37
579.91	6.37
580.25	6.39
580.589	6.42
580.928	6.43
581.267	6.4
581.606	6.42
581.945	6.41
582.283	6.48
582.622	6.45
582.961	6.45
583.3	6.43
583.639	6.46
583.977	6.48
584.316	6.48
584.654	6.48
584.993	6.47
585.332	6.55
585.67	6.57
586.008	6.59
586.347	6.61
586.685	6.62
587.024	6.62
587.362	6.62
587.7	6.63
588.038	6.63
588.376	6.66
588.715	6.68
589.053	6.71
589.391	6.7
589.729	6.73
590.067	6.72
590.404	6.74
590.742	6.76
591.08	6.7
591.418	6.74
591.756	6.77
592.093	6.83
592.431	6.81
592.769	6.81
593.106	6.8
593.444	6.76
593.781	6.75
594.119	6.78
594.456	6.8
594.793	6.78
595.131	6.78
595.468	6.78
595.805	6.78
596.143	6.75
596.48	6.75
596.817	6.72
597.154	6.73
597.491	6.76
597.828	6.75
598.165	6.77
598.502	6.76
598.839	6.74
599.176	6.7
599.512	6.69
599.849	6.69
600.186	6.74
600.523	6.78
600.859	6.84
601.196	6.83
601.532	6.83
601.869	6.82
602.205	6.78
602.542	6.78
602.878	6.77
603.215	6.78
603.551	6.81
603.887	6.82
604.223	6.81
604.56	6.8
604.896	6.82
605.232	6.83
605.568	6.83
605.904	6.87
606.24	6.9
606.576	6.92
606.912	6.95
607.248	6.91
607.583	6.92
607.919	6.85
608.255	6.88
608.591	6.87
608.926	6.87
609.262	6.92
609.597	6.92
609.933	6.94
610.268	6.95
610.604	6.94
610.939	6.93
611.275	6.94
611.61	6.94
611.945	6.94
612.281	6.93
612.616	6.93
612.951	6.9
613.286	6.89
613.621	6.87
613.956	6.8
614.291	6.82
614.626	6.8
614.961	6.8
615.296	6.72
615.631	6.76
615.966	6.79
616.3	6.79
616.635	6.82
616.97	6.81
617.304	6.78
617.639	6.81
617.973	6.8
618.308	6.8
618.642	6.77
618.977	6.75
619.311	6.74
619.646	6.77
619.98	6.76
620.314	6.78
620.648	6.78
620.983	6.86
621.317	6.9
621.651	6.96
621.985	7.02
622.319	7.07
622.653	7.02
622.987	7.05
623.321	7.04
623.655	7.05
623.988	7.11
624.322	7.12
624.656	7.12
624.99	7.19
625.323	7.18
625.657	7.23
625.99	7.25
626.324	7.28
626.657	7.25
626.991	7.24
627.324	7.25
627.658	7.27
627.991	7.27
628.324	7.24
628.657	7.22
628.991	7.2
629.324	7.17
629.657	7.19
629.99	7.19
630.323	7.2
630.656	7.15
630.989	7.21
631.322	7.23
631.655	7.2
631.987	7.14
632.32	7.14
632.653	7.06
632.986	7.07
633.318	7.09
633.651	7.08
633.984	7.1
634.316	7.09
634.649	7.13
634.981	7.15
635.313	7.17
635.646	7.19
635.978	7.26
636.31	7.32
636.643	7.3
636.975	7.32
637.307	7.28
637.639	7.32
637.971	7.2
638.303	7.15
638.635	7.12
638.967	7.15
639.299	7.22
639.631	7.25
639.963	7.23
640.295	7.25
640.626	7.29
640.958	7.35
641.29	7.34
641.621	7.23
641.953	7.18
642.285	7.2
642.616	7.19
642.948	7.14
643.279	7.1
643.61	7.1
643.942	7.02
644.273	7.05
644.604	7.02
644.936	7.02
645.267	7.09
645.598	7.1
645.929	7.14
646.26	7.12
646.591	7.13
646.922	7.12
647.253	7.09
647.584	7.07
647.915	7.01
648.245	6.95
648.576	6.98
648.907	7.02
649.238	6.96
649.568	7.03
649.899	7.05
650.229	7.09
650.56	7.15
650.89	7.22
651.221	7.22
651.551	7.22
651.882	7.31
652.212	7.26
652.542	7.28
652.872	7.26
653.203	7.26
653.533	7.26
653.863	7.22
654.193	7.2
654.523	7.2
654.853	7.23
655.183	7.24
655.513	7.26
655.843	7.23
656.172	7.25
656.502	7.24
656.832	7.22
657.162	7.24
657.491	7.17
657.821	7.18
658.15	7.16
658.48	7.2
658.809	7.16
659.139	7.17
659.468	7.18
659.798	7.18
660.127	7.22
660.456	7.26
660.785	7.3
661.115	7.34
661.444	7.36
661.773	7.36
662.102	7.45
662.431	7.49
662.76	7.47
663.089	7.5
663.418	7.47
663.747	7.43
664.076	7.42
664.404	7.39
664.733	7.44
665.062	7.48
665.39	7.46
665.719	7.42
666.048	7.43
666.376	7.41
666.705	7.37
667.033	7.37
667.362	7.39
667.69	7.37
668.018	7.33
668.347	7.28
668.675	7.29
669.003	7.24
669.331	7.32
669.659	7.44
669.987	7.43
670.315	7.36
670.643	7.47
670.971	7.45
671.299	7.59
671.627	7.52
671.955	7.52
672.283	7.46
672.61	7.54
672.938	7.62
673.266	7.65
673.593	7.69
673.921	7.61
674.249	7.68
674.576	7.67
674.904	7.72
675.231	7.73
675.558	7.73
675.886	7.7
676.213	7.55
676.54	7.51
676.867	7.58
677.195	7.63
677.522	7.58
677.849	7.59
678.176	7.55
678.503	7.5
678.83	7.48
679.157	7.45
679.484	7.46
679.81	7.36
680.137	7.42
680.464	7.4
680.791	7.38
681.117	7.33
681.444	7.4
681.771	7.37
682.097	7.36
682.424	7.34
682.75	7.32
683.077	7.37
683.403	7.37
683.729	7.24
684.056	7.27
684.382	7.31
684.708	7.27
685.034	7.29
685.36	7.32
685.686	7.29
686.012	7.4
686.339	7.35
686.664	7.39
686.99	7.32
687.316	7.28
687.642	7.37
687.968	7.34
688.294	7.37
688.619	7.4
688.945	7.42
689.271	7.41
689.596	7.38
689.922	7.37
690.247	7.35
690.573	7.51
690.898	7.49
691.224	7.6
691.549	7.62
691.874	7.47
692.2	7.42
692.525	7.51
692.85	7.55
693.175	7.54
693.5	7.61
693.825	7.61
694.15	7.71
694.475	7.75
694.8	7.83
695.125	7.76
695.45	7.67
695.775	7.73
696.099	7.76
696.424	7.83
696.749	7.91
697.073	7.9
697.398	7.89
697.723	7.92
698.047	7.77
698.372	7.86
698.696	7.97
699.02	8.02
699.345	8.03
699.669	8.06
699.993	8.15
700.318	8.09
700.642	8.18
700.966	8.17
701.29	8.09
701.614	8.06
701.938	8.08
702.262	8.23
702.586	8.23
702.91	8.19
703.234	8.28
703.557	8.25
703.881	8.18
704.205	8.07
704.529	8.02
704.852	8.18
705.176	8.2
705.499	8.14
705.823	8.16
706.146	8.09
706.47	8
706.793	7.93
707.117	8.02
707.44	7.86
707.763	7.89
708.086	7.9
708.409	7.87
708.733	7.86
709.056	7.81
709.379	7.82
709.702	7.87
710.025	7.65
710.348	7.57
710.671	7.6
710.993	7.83
711.316	7.85
711.639	7.78
711.962	7.55
712.284	7.51
712.607	7.48
712.93	7.55
713.252	7.44
713.575	7.49
713.897	7.47
714.22	7.61
714.542	7.7
714.864	7.75
715.187	7.78
715.509	7.86
715.831	7.85
716.153	7.83
716.475	7.81
716.798	7.96
717.12	7.92
717.442	7.99
717.764	7.8
718.085	7.78
718.407	7.84
718.729	8.07
719.051	8.2
719.373	8.31
719.695	8.35
720.016	8.48
720.338	8.49
720.659	8.56
720.981	8.42
721.302	8.43
721.624	8.45
721.945	8.48
722.267	8.45
722.588	8.43
722.909	8.43
723.231	8.49
723.552	8.59
723.873	8.9
724.194	8.89
724.515	8.88
724.836	8.72
725.157	8.6
725.478	8.59
725.799	8.59
726.12	8.54
726.441	8.31
726.762	8.62
727.083	8.6
727.403	8.42
727.724	8.55
728.045	8.4
728.365	8.37
728.686	8.3
729.006	8.45
729.327	8.53
729.647	8.58
729.967	8.5
730.288	8.62
730.608	8.39
730.928	8.57
731.249	8.58
731.569	8.78
731.889	8.67
732.209	8.68
732.529	8.71
732.849	8.8
733.169	9
733.489	8.67
733.809	8.73
734.129	8.82
734.448	8.86
734.768	8.9
735.088	8.99
735.408	9.15
735.727	9.02
736.047	9.09
736.366	8.95
736.686	9.03
737.005	9
737.325	9.25
737.644	8.97
737.963	9.08
738.283	8.76
738.602	8.93
738.921	8.92
739.24	8.93
739.56	8.94
739.879	8.88
740.198	8.87
740.517	8.83
740.836	9.02
741.155	8.82
741.473	8.81
741.792	8.67
742.111	8.57
742.43	8.55
742.748	8.53
743.067	8.85
743.386	9.05
743.704	8.71
744.023	8.39
744.341	8.56
744.66	8.64
744.978	8.88
745.297	8.88
745.615	8.94
745.933	8.73
746.252	8.76
746.57	8.79
746.888	8.97
747.206	9
747.524	8.84
747.842	9.2
748.16	9.47
748.478	9.58
748.796	9.52
749.114	9.94
749.432	9.72
749.749	9.64
750.067	9.48
750.385	9.59
750.703	9.73
751.02	9.71
751.338	9.48
751.655	9.71
751.973	9.58
752.29	9.25
752.608	9.5
752.925	9.23
753.242	9.18
753.56	9.13
753.877	9.16
754.194	8.95
754.511	8.69
754.828	8.24
755.145	8.27
755.462	8.46
755.779	8.2
756.096	8.23
756.413	8.23
756.73	8.2
757.047	8.51
757.364	8.47
757.68	8.42
757.997	8.61
758.314	8.44
758.63	8.79
758.947	9.06
759.264	8.99
759.58	9.27
759.896	9.3
760.213	9.26
760.529	9.19
760.846	9.28
761.162	9.38
761.478	9.52
761.794	9.22
762.11	9.03
762.426	8.99
762.743	9.1
763.059	8.93
763.375	8.97
763.69	8.87
764.006	8.97
764.322	8.88
764.638	8.96
764.954	9.12
765.27	8.96
765.585	8.92
765.901	8.97
766.216	8.82
766.532	9.04
766.848	9.22
767.163	9.26
767.478	9.5
767.794	9.43
768.109	9.53
768.424	9.7
768.74	9.78
769.055	10
769.37	10
769.685	9.95
770	9.96
770.315	9.98
770.63	9.86
770.945	10.02
771.26	9.8
771.575	9.44
771.89	9.41
772.205	9.28
772.52	9.19
772.834	8.98
773.149	8.85
773.464	8.54
773.778	8.58
774.093	8.08
774.407	8.19
774.722	8.2
775.036	8.43
775.351	8.49
775.665	7.96
775.979	7.78
776.293	8.16
776.608	8.18
776.922	8.11
777.236	8.45
777.55	8.6
777.864	8.65
778.178	9.03
778.492	9.01
778.806	8.99
779.12	9.05
779.434	9.25
779.747	9.28
780.061	9.48
780.375	9.58
780.689	9.93
781.002	10.1
781.316	10.22
781.629	10.38
781.943	10.25
782.256	10.53
782.57	10.65
782.883	10.62
783.196	10.55
783.51	10.48
783.823	9.86
784.136	10.19
784.449	10.29
784.762	10.42
785.075	10.43
785.388	10.54
785.701	10.86
786.014	10.88
786.327	10.59
786.64	10.65
786.953	10.01
787.266	9.63
787.578	9.27
787.891	8.98
788.204	8.56
788.516	8.85
788.829	8.8
789.141	9.15
789.454	9.1
789.766	9.26
790.079	9.31
790.391	9.65
790.703	9.66
791.016	9.32
791.328	9.67
791.64	10.17
791.952	10.25
792.264	9.9
792.576	9.77
792.888	10.36
793.2	10.15
793.512	10.44
793.824	10.84
794.136	10.76
794.448	11.14
794.76	11.29
795.071	11.44
795.383	11.37
795.695	11.11
796.006	11.14
796.318	11
796.629	11.05
796.941	10.85
797.252	10.86
797.564	11.46
797.875	10.99
798.186	10.72
798.497	10.58
798.809	10.94
799.12	10.95
799.431	10.63
799.742	10.8
800.053	11.55
800.364	11.51
800.675	11.46
800.986	10.86
801.297	11.06
801.608	10.68
801.918	10.29
802.229	10.51
802.54	10.69
802.851	10.62
803.161	10.79
803.472	11.24
803.782	11.01
804.093	11.12
804.403	10.9
804.714	10.93
805.024	10.81
805.334	10.8
805.645	10.93
805.955	11.16
806.265	11.18
806.575	10.91
806.885	11.15
807.195	11.56
807.505	12.17
807.815	12
808.125	12.65
808.435	13.02
808.745	12.9
809.055	12.62
809.365	13.11
809.674	12.82
809.984	12.31
810.294	12.57
810.603	12.51
810.913	13
811.222	12.98
811.532	13.42
811.841	13.65
812.151	14.35
812.46	13.98
812.769	13.85
813.079	13.1
813.388	12.83
813.697	13.21
814.006	12.57
814.315	12.66
814.624	11.82
814.933	11.86
815.242	11.8
815.551	11.74
815.86	11.73
816.169	12.43
816.478	12.29
816.786	12.25
817.095	11.91
817.404	11.1
817.712	10.83
818.021	10.87
818.33	10.19
818.638	10.08
818.947	10.31
819.255	10.82
819.563	11.16
819.872	11.09
820.18	11.07
820.488	11.21
820.796	11.36
821.105	11.36
821.413	11.39
821.721	11.37
822.029	11.46
822.337	11.5
822.645	11.31
822.953	11.61
823.26	11.44
823.568	11.33
823.876	11.52
824.184	11.7
824.491	11.65
824.799	11.77
825.107	11.71
825.414	11.76
825.722	11.51
826.029	11.47
826.337	11.53
826.644	11.39
826.951	11.44
827.259	11.44
827.566	11.56
827.873	11.54
828.18	11.57
828.488	11.56
828.795	11.21
829.102	11.17
829.409	10.76
829.716	10.92
830.023	11.22
830.329	11.24
830.636	11.02
830.943	10.97
831.25	10.74
831.557	10.63
831.863	10.79
832.17	10.86
832.476	10.93
832.783	11.25
833.089	11.27
833.396	11.07
833.702	10.74
834.009	10.74
834.315	10.88
834.621	10.97
834.928	11.34
835.234	11.63
835.54	11.77
835.846	11.83
836.152	11.84
836.458	11.57
836.764	11.32
837.07	10.66
837.376	10.49
837.682	10.52
837.988	10.87
838.293	10.74
838.599	11.21
838.905	10.88
839.211	10.67
839.516	11.09
839.822	11.49
840.127	11.92
840.433	12.24
840.738	12.11
841.044	11.97
841.349	11.24
841.654	11.39
841.959	11.42
842.265	11.14
842.57	11.01
842.875	10.31
843.18	10.37
843.485	11.8
843.79	13.11
844.095	12.44
844.4	13.29
844.705	11.87
845.01	11.51
845.315	12.27
845.619	11.88
845.924	12.19
846.229	12.82
846.533	12.35
846.838	11.41
847.142	12.01
847.447	10.36
847.751	9.69
848.056	8.42
848.36	8.3
848.664	9.83
848.969	9.37
849.273	9.83
849.577	10.99
849.881	10.02
850.185	10.13
850.489	13.19
850.794	11.04
851.097	11.91
851.401	12
851.705	12.59
852.009	12.23
852.313	11.6
852.617	9.16
852.92	8.43
853.224	7
853.528	6.87
853.831	8.13
854.135	9.51
854.438	9.95
854.742	8.8
855.045	8.59
855.349	9.13
855.652	10.36
855.955	9.76
856.259	9.88
856.562	8.74
856.865	8.13
857.168	7.67
857.471	7.53
857.774	8.28
858.077	9.78
858.38	10.14
858.683	10.4
858.986	14.91
859.289	15.86
859.592	19.01
859.894	19.1
860.197	19.37
860.5	19.07
860.802	20.76
861.105	22.89
861.407	22.91
861.71	23.6
862.012	22.7
862.315	21.74
862.617	21.97
862.919	22.64
863.222	23.55
863.524	24.34
863.826	26.45
864.128	25.53
864.43	23.43
864.732	24.45
865.034	22.29
865.336	18.11
865.638	18.4
865.94	16.09
866.242	16.08
866.544	15.52
866.846	14.55
867.147	14.31
867.449	12.03
867.751	11.52
868.052	12.41
868.354	13.92
868.655	15.33
868.957	14.13
869.258	13.89
869.56	11.74
869.861	13.29
870.162	12.95
870.463	13.18
870.765	12.37
871.066	13.68
871.367	14.73
871.668	15.03
871.969	12.44
872.27	12.39
872.571	11.71
872.872	13.84
873.173	14.35
873.473	14.63
873.774	15.86
874.075	19.35
874.376	18.89
874.676	19.26
874.977	15.39
875.277	17.69
875.578	15.91
875.878	15.95
876.179	14.68
876.479	13.65
876.78	13.64
877.08	14.6
877.38	11.54
877.68	12.59
877.981	14.01
878.281	18.22
878.581	20.12
