Data from BU57648_Reflection_00001.txt Node
Date: Tue Nov 19 10:46:27 EST 2019
User: vgr7
Spectrometer: USB2G7710
Scans to average: 3
Trigger mode: 4
Integration Time (sec): 2.000000E-2
Electric dark correction enabled: true
Boxcar width: 10
XAxis mode: Wavelengths
Number of Pixels in Spectrum: 2048
>>>>>Begin Spectral Data<<<<<
177.721	-7.89
178.105	-41.98
178.488	-5.16
178.871	23.61
179.254	28.89
179.636	4.1
180.019	-26.07
180.402	157.14
180.785	144.44
181.168	368.52
181.55	315.69
181.933	22.62
182.316	-1.31
182.698	-66.67
183.081	-24.5
183.463	-1.37
183.846	-17.06
184.228	-233.33
184.611	-17.75
184.993	6.67
185.376	6.89
185.758	-19.97
186.14	-30.16
186.522	-3.17
186.904	2.38
187.287	12.56
187.669	7.88
188.051	0.27
188.433	0.31
188.815	-20.63
189.197	-27.45
189.579	-18.28
189.961	-10.54
190.342	6.13
190.724	-5.97
191.106	-1.08
191.488	10.74
191.869	50.49
192.251	57.76
192.633	73.28
193.014	82.42
193.396	79.61
193.777	108.01
194.159	91.23
194.54	112.52
194.922	116.01
195.303	98.55
195.684	100.66
196.065	122.76
196.447	113.63
196.828	98.69
197.209	81.55
197.59	87.61
197.971	71.82
198.352	71.31
198.733	69.64
199.114	62.7
199.495	50.22
199.876	7.97
200.257	-6.73
200.638	-2.62
201.018	-1.71
201.399	12.88
201.78	-1.45
202.16	-26.11
202.541	-44.37
202.922	-40.5
203.302	-59.37
203.683	-67.9
204.063	-60.45
204.444	-57.24
204.824	-67.2
205.204	-43.22
205.585	-37.83
205.965	-27.84
206.345	-14.14
206.725	0.98
207.106	16.67
207.486	25.99
207.866	38.79
208.246	36.51
208.626	31.07
209.006	20.41
209.386	10.18
209.766	16.37
210.145	51.3
210.525	68.94
210.905	75.54
211.285	64.73
211.664	43.89
212.044	42.66
212.424	42.98
212.803	38.65
213.183	28.67
213.562	14.36
213.942	8.93
214.321	-2.93
214.701	-11.28
215.08	-2.97
215.459	0.79
215.838	-4.75
216.218	1.62
216.597	5.76
216.976	9.99
217.355	27.56
217.734	23.8
218.113	17.69
218.492	3.89
218.871	5.05
219.25	3.37
219.629	14.32
220.008	13.26
220.387	-3.88
220.766	28.68
221.144	47.69
221.523	50.28
221.902	47.31
222.28	52.58
222.659	57.17
223.037	54.51
223.416	61.78
223.794	56.12
224.173	43.6
224.551	37.45
224.929	28.18
225.308	16.31
225.686	13.87
226.064	11.27
226.442	7.96
226.821	9.61
227.199	12.71
227.577	19.63
227.955	21.29
228.333	22.8
228.711	23.92
229.089	22.09
229.467	23.49
229.845	18.68
230.222	15.92
230.6	11.2
230.978	8.97
231.356	10.41
231.733	11.22
232.111	10.63
232.488	11.06
232.866	10.66
233.243	12.73
233.621	14.97
233.998	13.57
234.376	14.83
234.753	14.93
235.13	13.59
235.508	11.52
235.885	9.4
236.262	9.86
236.639	9.07
237.016	7.23
237.393	6.18
237.77	7.66
238.147	6.22
238.524	6.57
238.901	6.77
239.278	5.15
239.655	5
240.032	6.31
240.409	5.71
240.785	6.24
241.162	5.48
241.539	5
241.915	5.24
242.292	4.99
242.668	4.74
243.045	4.74
243.421	4.52
243.798	4.63
244.174	4.44
244.551	4.17
244.927	4.54
245.303	4.45
245.679	4.69
246.056	5.02
246.432	5.05
246.808	4.96
247.184	5.03
247.56	4.87
247.936	4.41
248.312	4.65
248.688	4.93
249.064	5.23
249.44	5.21
249.815	5.17
250.191	5.29
250.567	5.34
250.943	5.36
251.318	5.26
251.694	5.24
252.069	5.36
252.445	5.43
252.82	5.76
253.196	5.84
253.571	5.86
253.947	5.71
254.322	5.74
254.697	5.7
255.073	5.8
255.448	5.75
255.823	5.97
256.198	5.8
256.573	5.62
256.948	5.47
257.323	5.46
257.698	5.45
258.073	5.25
258.448	5.27
258.823	5.25
259.198	5.46
259.573	5.31
259.948	5.3
260.322	5.3
260.697	5.18
261.072	5.12
261.446	4.94
261.821	5.03
262.195	4.95
262.57	5.16
262.944	5.05
263.319	5.23
263.693	5.07
264.067	5.03
264.442	4.99
264.816	4.92
265.19	4.88
265.564	4.95
265.938	4.97
266.313	4.84
266.687	4.97
267.061	4.97
267.435	5.16
267.809	4.99
268.183	5.05
268.556	4.82
268.93	4.96
269.304	4.97
269.678	5.01
270.051	5.09
270.425	4.9
270.799	4.84
271.172	4.72
271.546	4.81
271.919	4.87
272.293	4.85
272.666	4.89
273.04	4.85
273.413	4.75
273.787	4.8
274.16	4.74
274.533	4.73
274.906	4.63
275.279	4.34
275.653	4.38
276.026	4.24
276.399	4.21
276.772	4.18
277.145	4.17
277.518	3.96
277.891	3.91
278.263	4.15
278.636	4.27
279.009	4.33
279.382	4.39
279.755	4.24
280.127	4.27
280.5	4.38
280.872	4.53
281.245	4.55
281.617	4.76
281.99	4.86
282.362	4.88
282.735	4.71
283.107	4.95
283.479	5.01
283.852	5.02
284.224	5.2
284.596	5.12
284.968	5.12
285.34	5.21
285.713	5.24
286.085	5.01
286.457	5.03
286.829	4.94
287.201	4.88
287.572	4.98
287.944	4.98
288.316	4.9
288.688	4.9
289.06	4.86
289.431	4.75
289.803	4.81
290.175	4.63
290.546	4.74
290.918	4.68
291.289	4.55
291.661	4.6
292.032	4.45
292.403	4.58
292.775	4.74
293.146	4.72
293.517	4.67
293.889	4.79
294.26	4.78
294.631	4.89
295.002	4.88
295.373	4.85
295.744	4.87
296.115	4.96
296.486	4.92
296.857	5.03
297.228	4.99
297.599	5.02
297.97	5.15
298.34	5.27
298.711	5.21
299.082	5.35
299.452	5.39
299.823	5.41
300.194	5.41
300.564	5.31
300.935	5.43
301.305	5.44
301.676	5.28
302.046	5.29
302.416	5.2
302.787	5.17
303.157	5.1
303.527	5.07
303.897	5.11
304.267	5.14
304.637	5.13
305.008	5.29
305.378	5.46
305.748	5.65
306.117	5.45
306.487	5.63
306.857	5.68
307.227	5.56
307.597	5.57
307.967	5.49
308.336	5.34
308.706	5.3
309.076	5.43
309.445	5.58
309.815	5.56
310.184	5.5
310.554	5.59
310.923	5.65
311.293	5.76
311.662	5.64
312.031	5.6
312.401	5.59
312.77	5.47
313.139	5.32
313.508	5.15
313.877	5.2
314.246	5.15
314.616	5.16
314.985	5.04
315.353	5.12
315.722	5.11
316.091	5.2
316.46	5.1
316.829	4.99
317.198	4.92
317.567	4.86
317.935	5.1
318.304	5.15
318.672	5.1
319.041	5.05
319.41	5.17
319.778	5.32
320.147	5.34
320.515	5.26
320.883	5.29
321.252	5.27
321.62	5.43
321.988	5.47
322.357	5.42
322.725	5.69
323.093	5.64
323.461	5.66
323.829	5.73
324.197	5.79
324.565	5.77
324.933	5.76
325.301	5.78
325.669	5.66
326.037	5.72
326.405	5.92
326.772	5.96
327.14	5.81
327.508	5.68
327.875	5.7
328.243	5.67
328.61	5.64
328.978	5.72
329.346	5.6
329.713	5.69
330.08	5.71
330.448	5.74
330.815	5.75
331.182	5.68
331.55	5.7
331.917	5.71
332.284	5.78
332.651	5.96
333.018	5.9
333.385	5.96
333.752	5.95
334.119	5.85
334.486	5.77
334.853	5.83
335.22	5.87
335.587	5.93
335.954	6
336.32	5.99
336.687	6.05
337.054	6.1
337.42	5.96
337.787	5.92
338.153	5.97
338.52	6.02
338.886	6.22
339.253	6.12
339.619	6.05
339.986	5.79
340.352	5.82
340.718	5.8
341.084	5.82
341.451	5.84
341.817	5.89
342.183	5.86
342.549	5.93
342.915	5.88
343.281	5.73
343.647	5.81
344.013	5.86
344.379	5.83
344.745	5.85
345.11	5.87
345.476	5.89
345.842	5.81
346.208	5.7
346.573	5.67
346.939	5.73
347.304	5.76
347.67	5.9
348.035	5.78
348.401	5.85
348.766	5.78
349.132	5.69
349.497	5.58
349.862	5.54
350.228	5.52
350.593	5.54
350.958	5.74
351.323	5.67
351.688	5.67
352.053	5.65
352.418	5.54
352.783	5.49
353.148	5.55
353.513	5.53
353.878	5.58
354.243	5.49
354.608	5.45
354.972	5.47
355.337	5.53
355.702	5.61
356.066	5.57
356.431	5.6
356.795	5.59
357.16	5.63
357.524	5.69
357.889	5.64
358.253	5.67
358.618	5.58
358.982	5.61
359.346	5.63
359.71	5.63
360.075	5.67
360.439	5.74
360.803	5.73
361.167	5.76
361.531	5.76
361.895	5.83
362.259	5.9
362.623	5.92
362.987	5.94
363.351	5.9
363.714	5.98
364.078	5.98
364.442	6.02
364.806	6.06
365.169	5.99
365.533	5.98
365.896	6.03
366.26	6.01
366.623	6.01
366.987	5.99
367.35	6.09
367.714	6.08
368.077	6.03
368.44	6.04
368.803	5.98
369.167	5.96
369.53	5.88
369.893	5.9
370.256	5.82
370.619	5.76
370.982	5.72
371.345	5.69
371.708	5.69
372.071	5.66
372.434	5.65
372.797	5.72
373.159	5.78
373.522	5.68
373.885	5.71
374.247	5.64
374.61	5.62
374.973	5.53
375.335	5.53
375.698	5.49
376.06	5.44
376.423	5.41
376.785	5.47
377.147	5.48
377.51	5.42
377.872	5.47
378.234	5.49
378.596	5.53
378.958	5.57
379.321	5.51
379.683	5.51
380.045	5.48
380.407	5.43
380.769	5.37
381.13	5.37
381.492	5.36
381.854	5.39
382.216	5.4
382.578	5.37
382.939	5.43
383.301	5.4
383.663	5.41
384.024	5.44
384.386	5.41
384.747	5.41
385.109	5.36
385.47	5.38
385.832	5.36
386.193	5.35
386.554	5.23
386.916	5.29
387.277	5.29
387.638	5.29
387.999	5.35
388.36	5.35
388.721	5.39
389.082	5.34
389.443	5.37
389.804	5.42
390.165	5.46
390.526	5.41
390.887	5.46
391.248	5.49
391.609	5.52
391.969	5.5
392.33	5.49
392.691	5.52
393.051	5.52
393.412	5.54
393.772	5.53
394.133	5.58
394.493	5.55
394.854	5.55
395.214	5.57
395.574	5.55
395.935	5.56
396.295	5.53
396.655	5.58
397.015	5.55
397.376	5.52
397.736	5.47
398.096	5.48
398.456	5.46
398.816	5.43
399.176	5.4
399.535	5.41
399.895	5.44
400.255	5.47
400.615	5.46
400.975	5.41
401.334	5.4
401.694	5.37
402.054	5.4
402.413	5.39
402.773	5.39
403.132	5.38
403.492	5.34
403.851	5.37
404.211	5.33
404.57	5.33
404.929	5.29
405.288	5.31
405.648	5.28
406.007	5.3
406.366	5.27
406.725	5.26
407.084	5.26
407.443	5.24
407.802	5.21
408.161	5.22
408.52	5.27
408.879	5.27
409.238	5.31
409.596	5.3
409.955	5.27
410.314	5.25
410.673	5.25
411.031	5.29
411.39	5.26
411.748	5.27
412.107	5.3
412.465	5.31
412.824	5.28
413.182	5.3
413.54	5.29
413.899	5.27
414.257	5.28
414.615	5.27
414.974	5.27
415.332	5.29
415.69	5.28
416.048	5.27
416.406	5.26
416.764	5.23
417.122	5.23
417.48	5.24
417.838	5.22
418.195	5.19
418.553	5.18
418.911	5.16
419.269	5.15
419.626	5.13
419.984	5.13
420.342	5.14
420.699	5.13
421.057	5.13
421.414	5.16
421.772	5.15
422.129	5.14
422.486	5.13
422.844	5.1
423.201	5.09
423.558	5.06
423.915	5.07
424.273	5.06
424.63	5.06
424.987	5.06
425.344	5.08
425.701	5.1
426.058	5.11
426.415	5.14
426.772	5.13
427.128	5.16
427.485	5.13
427.842	5.13
428.199	5.13
428.555	5.14
428.912	5.13
429.269	5.1
429.625	5.1
429.982	5.12
430.338	5.11
430.695	5.09
431.051	5.11
431.407	5.09
431.764	5.11
432.12	5.12
432.476	5.13
432.832	5.11
433.189	5.09
433.545	5.06
433.901	5.06
434.257	5.06
434.613	5.03
434.969	5.06
435.325	5.06
435.681	5.06
436.036	5.05
436.392	5.06
436.748	5.08
437.104	5.07
437.459	5.05
437.815	5.07
438.171	5.08
438.526	5.07
438.882	5.08
439.237	5.07
439.593	5.06
439.948	5.04
440.304	5.04
440.659	5.05
441.014	5.04
441.369	5.03
441.725	5.02
442.08	5.03
442.435	5.02
442.79	5
443.145	4.98
443.5	4.98
443.855	4.96
444.21	4.98
444.565	4.99
444.92	4.96
445.275	4.95
445.629	4.95
445.984	4.95
446.339	4.96
446.693	4.96
447.048	4.95
447.403	4.96
447.757	4.94
448.112	4.93
448.466	4.94
448.82	4.94
449.175	4.94
449.529	4.95
449.883	4.94
450.238	4.95
450.592	4.94
450.946	4.92
451.3	4.91
451.654	4.88
452.008	4.89
452.362	4.93
452.716	4.94
453.07	4.94
453.424	4.94
453.778	4.93
454.132	4.93
454.486	4.93
454.839	4.91
455.193	4.94
455.547	4.94
455.9	4.95
456.254	4.95
456.607	4.95
456.961	4.95
457.314	4.96
457.668	4.95
458.021	4.96
458.375	4.96
458.728	4.97
459.081	4.99
459.434	5
459.787	4.98
460.141	4.99
460.494	4.99
460.847	4.97
461.2	4.98
461.553	4.99
461.906	5.01
462.259	5
462.611	5
462.964	5.02
463.317	5.01
463.67	5.02
464.022	5.01
464.375	5
464.728	5.01
465.08	5.03
465.433	5.04
465.785	5.05
466.138	5.07
466.49	5.08
466.843	5.07
467.195	5.09
467.547	5.1
467.899	5.11
468.252	5.14
468.604	5.15
468.956	5.16
469.308	5.15
469.66	5.17
470.012	5.18
470.364	5.18
470.716	5.19
471.068	5.19
471.42	5.2
471.772	5.21
472.123	5.22
472.475	5.23
472.827	5.23
473.178	5.25
473.53	5.24
473.882	5.23
474.233	5.25
474.585	5.23
474.936	5.24
475.288	5.22
475.639	5.23
475.99	5.21
476.342	5.21
476.693	5.21
477.044	5.19
477.395	5.17
477.746	5.17
478.097	5.16
478.448	5.18
478.8	5.18
479.15	5.18
479.501	5.18
479.852	5.16
480.203	5.17
480.554	5.17
480.905	5.18
481.255	5.18
481.606	5.17
481.957	5.19
482.307	5.19
482.658	5.19
483.009	5.19
483.359	5.2
483.709	5.2
484.06	5.21
484.41	5.21
484.761	5.22
485.111	5.22
485.461	5.22
485.811	5.21
486.162	5.21
486.512	5.22
486.862	5.21
487.212	5.21
487.562	5.21
487.912	5.2
488.262	5.19
488.612	5.19
488.961	5.19
489.311	5.18
489.661	5.16
490.011	5.16
490.36	5.17
490.71	5.16
491.06	5.14
491.409	5.13
491.759	5.13
492.108	5.13
492.458	5.11
492.807	5.09
493.157	5.1
493.506	5.1
493.855	5.12
494.204	5.11
494.554	5.12
494.903	5.11
495.252	5.13
495.601	5.13
495.95	5.15
496.299	5.15
496.648	5.16
496.997	5.16
497.346	5.19
497.695	5.16
498.043	5.17
498.392	5.19
498.741	5.22
499.09	5.25
499.438	5.26
499.787	5.28
500.135	5.28
500.484	5.31
500.832	5.32
501.181	5.32
501.529	5.35
501.878	5.37
502.226	5.42
502.574	5.43
502.923	5.44
503.271	5.43
503.619	5.44
503.967	5.46
504.315	5.48
504.663	5.47
505.011	5.5
505.359	5.52
505.707	5.52
506.055	5.52
506.403	5.5
506.751	5.48
507.098	5.52
507.446	5.55
507.794	5.52
508.141	5.51
508.489	5.52
508.837	5.51
509.184	5.48
509.531	5.46
509.879	5.47
510.226	5.5
510.574	5.5
510.921	5.5
511.268	5.49
511.616	5.51
511.963	5.51
512.31	5.52
512.657	5.51
513.004	5.52
513.351	5.51
513.698	5.52
514.045	5.55
514.392	5.53
514.739	5.53
515.086	5.57
515.432	5.6
515.779	5.6
516.126	5.64
516.473	5.66
516.819	5.65
517.166	5.65
517.512	5.66
517.859	5.68
518.205	5.68
518.552	5.7
518.898	5.69
519.245	5.7
519.591	5.69
519.937	5.71
520.283	5.72
520.629	5.73
520.976	5.74
521.322	5.76
521.668	5.76
522.014	5.77
522.36	5.77
522.706	5.77
523.052	5.79
523.398	5.77
523.743	5.78
524.089	5.81
524.435	5.82
524.781	5.82
525.126	5.82
525.472	5.82
525.817	5.83
526.163	5.85
526.509	5.85
526.854	5.85
527.199	5.85
527.545	5.85
527.89	5.87
528.235	5.88
528.581	5.87
528.926	5.88
529.271	5.88
529.616	5.89
529.961	5.89
530.306	5.88
530.651	5.88
530.996	5.88
531.341	5.89
531.686	5.89
532.031	5.9
532.376	5.91
532.721	5.92
533.065	5.93
533.41	5.94
533.755	5.95
534.099	5.95
534.444	5.97
534.788	5.96
535.133	5.95
535.477	5.94
535.822	5.92
536.166	5.92
536.51	5.93
536.855	5.9
537.199	5.89
537.543	5.92
537.887	5.94
538.231	5.95
538.576	5.92
538.92	5.92
539.264	5.91
539.608	5.9
539.951	5.9
540.295	5.89
540.639	5.89
540.983	5.88
541.327	5.91
541.671	5.91
542.014	5.94
542.358	5.94
542.701	5.95
543.045	5.96
543.389	5.97
543.732	5.96
544.075	5.98
544.419	6
544.762	5.97
545.105	5.96
545.449	5.98
545.792	6
546.135	6.02
546.478	6.03
546.821	6.06
547.165	6.07
547.508	6.08
547.851	6.08
548.194	6.1
548.536	6.11
548.879	6.1
549.222	6.07
549.565	6.08
549.908	6.09
550.25	6.13
550.593	6.13
550.936	6.15
551.278	6.14
551.621	6.13
551.963	6.17
552.306	6.19
552.648	6.16
552.991	6.15
553.333	6.12
553.675	6.13
554.017	6.1
554.36	6.08
554.702	6.07
555.044	6.05
555.386	6.03
555.728	6
556.07	6.01
556.412	6.01
556.754	5.99
557.096	5.98
557.438	5.95
557.78	5.94
558.121	5.95
558.463	5.97
558.805	5.99
559.147	5.97
559.488	5.99
559.83	6.03
560.171	6.03
560.513	6.07
560.854	6.04
561.196	6.07
561.537	6.07
561.878	6.05
562.22	6.1
562.561	6.15
562.902	6.17
563.243	6.17
563.584	6.17
563.925	6.21
564.266	6.22
564.607	6.23
564.948	6.23
565.289	6.23
565.63	6.21
565.971	6.23
566.312	6.25
566.653	6.26
566.993	6.25
567.334	6.28
567.675	6.28
568.015	6.28
568.356	6.3
568.696	6.31
569.037	6.34
569.377	6.34
569.718	6.27
570.058	6.28
570.398	6.3
570.739	6.3
571.079	6.28
571.419	6.31
571.759	6.3
572.099	6.31
572.439	6.31
572.779	6.31
573.119	6.32
573.459	6.31
573.799	6.28
574.139	6.26
574.479	6.25
574.819	6.25
575.158	6.29
575.498	6.27
575.838	6.26
576.177	6.23
576.517	6.24
576.856	6.26
577.196	6.25
577.535	6.22
577.875	6.26
578.214	6.29
578.553	6.23
578.893	6.23
579.232	6.25
579.571	6.28
579.91	6.3
580.25	6.27
580.589	6.27
580.928	6.26
581.267	6.29
581.606	6.3
581.945	6.34
582.283	6.3
582.622	6.32
582.961	6.33
583.3	6.32
583.639	6.34
583.977	6.35
584.316	6.36
584.654	6.38
584.993	6.38
585.332	6.36
585.67	6.41
586.008	6.4
586.347	6.4
586.685	6.34
587.024	6.35
587.362	6.37
587.7	6.39
588.038	6.45
588.376	6.44
588.715	6.44
589.053	6.43
589.391	6.46
589.729	6.44
590.067	6.45
590.404	6.5
590.742	6.47
591.08	6.52
591.418	6.53
591.756	6.54
592.093	6.53
592.431	6.54
592.769	6.53
593.106	6.51
593.444	6.5
593.781	6.52
594.119	6.5
594.456	6.5
594.793	6.49
595.131	6.46
595.468	6.47
595.805	6.47
596.143	6.46
596.48	6.44
596.817	6.44
597.154	6.45
597.491	6.41
597.828	6.4
598.165	6.33
598.502	6.3
598.839	6.32
599.176	6.34
599.512	6.32
599.849	6.32
600.186	6.38
600.523	6.41
600.859	6.46
601.196	6.48
601.532	6.54
601.869	6.55
602.205	6.58
602.542	6.59
602.878	6.63
603.215	6.61
603.551	6.62
603.887	6.66
604.223	6.65
604.56	6.65
604.896	6.7
605.232	6.72
605.568	6.75
605.904	6.72
606.24	6.69
606.576	6.73
606.912	6.7
607.248	6.69
607.583	6.69
607.919	6.68
608.255	6.65
608.591	6.58
608.926	6.57
609.262	6.53
609.597	6.54
609.933	6.47
610.268	6.5
610.604	6.5
610.939	6.51
611.275	6.54
611.61	6.52
611.945	6.48
612.281	6.53
612.616	6.54
612.951	6.57
613.286	6.63
613.621	6.64
613.956	6.77
614.291	6.77
614.626	6.75
614.961	6.79
615.296	6.84
615.631	6.88
615.966	6.87
616.3	6.87
616.635	6.87
616.97	6.87
617.304	6.81
617.639	6.82
617.973	6.78
618.308	6.8
618.642	6.85
618.977	6.86
619.311	6.82
619.646	6.82
619.98	6.86
620.314	6.84
620.648	6.8
620.983	6.71
621.317	6.71
621.651	6.73
621.985	6.68
622.319	6.62
622.653	6.62
622.987	6.61
623.321	6.67
623.655	6.66
623.988	6.73
624.322	6.76
624.656	6.75
624.99	6.78
625.323	6.7
625.657	6.7
625.99	6.7
626.324	6.71
626.657	6.72
626.991	6.65
627.324	6.64
627.658	6.63
627.991	6.69
628.324	6.7
628.657	6.64
628.991	6.63
629.324	6.67
629.657	6.63
629.99	6.62
630.323	6.55
630.656	6.58
630.989	6.53
631.322	6.51
631.655	6.45
631.987	6.46
632.32	6.55
632.653	6.57
632.986	6.6
633.318	6.64
633.651	6.63
633.984	6.66
634.316	6.7
634.649	6.72
634.981	6.64
635.313	6.67
635.646	6.75
635.978	6.75
636.31	6.8
636.643	6.88
636.975	6.95
637.307	7.02
637.639	7
637.971	7.01
638.303	7.08
638.635	7.13
638.967	7.09
639.299	7.05
639.631	7.02
639.963	6.95
640.295	6.89
640.626	6.89
640.958	6.95
641.29	6.9
641.621	6.82
641.953	6.84
642.285	6.84
642.616	6.89
642.948	6.96
643.279	6.9
643.61	6.84
643.942	6.86
644.273	6.84
644.604	6.88
644.936	6.95
645.267	6.92
645.598	6.97
645.929	6.94
646.26	6.97
646.591	7
646.922	7.07
647.253	7.08
647.584	7.08
647.915	7.07
648.245	7.13
648.576	7.2
648.907	7.21
649.238	7.18
649.568	7.17
649.899	7.13
650.229	7.17
650.56	7.21
650.89	7.17
651.221	7.19
651.551	7.25
651.882	7.16
652.212	7.2
652.542	7.24
652.872	7.29
653.203	7.31
653.533	7.31
653.863	7.27
654.193	7.24
654.523	7.2
654.853	7.21
655.183	7.15
655.513	7.19
655.843	7.26
656.172	7.27
656.502	7.18
656.832	7.11
657.162	7.07
657.491	7.1
657.821	7.13
658.15	7.16
658.48	7.08
658.809	7.12
659.139	7.07
659.468	7
659.798	7
660.127	6.93
660.456	6.91
660.785	6.96
661.115	7
661.444	7
661.773	6.96
662.102	6.94
662.431	6.94
662.76	6.93
663.089	6.91
663.418	6.96
663.747	7.07
664.076	7.05
664.404	7.01
664.733	6.96
665.062	6.92
665.39	6.97
665.719	7.01
666.048	6.97
666.376	7.02
666.705	6.96
667.033	7.1
667.362	7.13
667.69	7.14
668.018	7.14
668.347	7.26
668.675	7.34
669.003	7.37
669.331	7.4
669.659	7.29
669.987	7.38
670.315	7.27
670.643	7.2
670.971	7.24
671.299	7.29
671.627	7.35
671.955	7.28
672.283	7.29
672.61	7.21
672.938	7.28
673.266	7.21
673.593	7.17
673.921	7.15
674.249	7.11
674.576	7.1
674.904	7.12
675.231	7.17
675.558	7.16
675.886	7.16
676.213	7.11
676.54	7.26
676.867	7.19
677.195	7.37
677.522	7.39
677.849	7.45
678.176	7.42
678.503	7.35
678.83	7.42
679.157	7.33
679.484	7.34
679.81	7.36
680.137	7.44
680.464	7.48
680.791	7.49
681.117	7.54
681.444	7.54
681.771	7.56
682.097	7.49
682.424	7.49
682.75	7.55
683.077	7.56
683.403	7.5
683.729	7.54
684.056	7.45
684.382	7.52
684.708	7.48
685.034	7.48
685.36	7.49
685.686	7.47
686.012	7.59
686.339	7.58
686.664	7.56
686.99	7.42
687.316	7.55
687.642	7.46
687.968	7.59
688.294	7.58
688.619	7.59
688.945	7.55
689.271	7.43
689.596	7.33
689.922	7.28
690.247	7.24
690.573	7.27
690.898	7.41
691.224	7.35
691.549	7.31
691.874	7.36
692.2	7.35
692.525	7.36
692.85	7.19
693.175	7.25
693.5	7.3
693.825	7.43
694.15	7.44
694.475	7.45
694.8	7.22
695.125	7.33
695.45	7.2
695.775	7.14
696.099	7.25
696.424	7.29
696.749	7.31
697.073	7.34
697.398	7.36
697.723	7.32
698.047	7.31
698.372	7.43
698.696	7.42
699.02	7.44
699.345	7.47
699.669	7.63
699.993	7.59
700.318	7.6
700.642	7.58
700.966	7.56
701.29	7.6
701.614	7.83
701.938	7.79
702.262	7.72
702.586	7.9
702.91	7.95
703.234	7.98
703.557	8.12
703.881	8.2
704.205	8.18
704.529	8.15
704.852	8.19
705.176	8.21
705.499	8.25
705.823	8.24
706.146	8.21
706.47	8.1
706.793	8.15
707.117	8.06
707.44	8.22
707.763	8.17
708.086	8.27
708.409	8.09
708.733	7.93
709.056	8.16
709.379	8.03
709.702	7.92
710.025	8.12
710.348	8.02
710.671	7.97
710.993	7.95
711.316	8.03
711.639	7.97
711.962	7.86
712.284	7.74
712.607	7.89
712.93	8.04
713.252	8.01
713.575	7.95
713.897	7.98
714.22	7.76
714.542	7.87
714.864	7.69
715.187	7.64
715.509	7.77
715.831	7.75
716.153	7.76
716.475	7.81
716.798	7.78
717.12	7.75
717.442	7.84
717.764	7.88
718.085	7.78
718.407	7.98
718.729	8.04
719.051	8.09
719.373	8
719.695	7.99
720.016	7.99
720.338	8.21
720.659	8.27
720.981	8.32
721.302	8.33
721.624	8.44
721.945	8.49
722.267	8.51
722.588	8.49
722.909	8.34
723.231	8.43
723.552	8.33
723.873	8.4
724.194	8.32
724.515	8.46
724.836	8.36
725.157	8.32
725.478	8.26
725.799	8.28
726.12	8.19
726.441	8.16
726.762	8.36
727.083	8.23
727.403	8.27
727.724	8.53
728.045	8.51
728.365	8.51
728.686	8.62
729.006	8.63
729.327	8.64
729.647	8.99
729.967	8.9
730.288	8.91
730.608	8.88
730.928	8.87
731.249	8.81
731.569	8.87
731.889	8.88
732.209	8.97
732.529	8.97
732.849	9.11
733.169	9.06
733.489	9.01
733.809	9.16
734.129	9.17
734.448	9.12
734.768	9.05
735.088	8.92
735.408	8.91
735.727	8.85
736.047	8.93
736.366	8.81
736.686	8.82
737.005	8.76
737.325	8.77
737.644	8.86
737.963	8.98
738.283	9.13
738.602	9.11
738.921	9.15
739.24	9.22
739.56	9.41
739.879	9.48
740.198	9.35
740.517	9.27
740.836	9.21
741.155	9.2
741.473	9.42
741.792	9.6
742.111	9.7
742.43	9.94
742.748	9.86
743.067	9.91
743.386	9.93
743.704	9.99
744.023	10.2
744.341	10.24
744.66	9.87
744.978	9.73
745.297	9.49
745.615	9.18
745.933	9.35
746.252	9.24
746.57	9.36
746.888	9.65
747.206	9.56
747.524	9.53
747.842	9.12
748.16	9
748.478	9.13
748.796	9.23
749.114	8.78
749.432	9.08
749.749	8.88
750.067	8.7
750.385	9
750.703	8.82
751.02	9.07
751.338	9.14
751.655	9.39
751.973	9.63
752.29	9.79
752.608	9.32
752.925	9.27
753.242	9.09
753.56	8.87
753.877	8.85
754.194	9
754.511	9.52
754.828	9.07
755.145	8.84
755.462	8.56
755.779	8.9
756.096	8.73
756.413	9.01
756.73	9.39
757.047	8.98
757.364	8.64
757.68	8.5
757.997	8.48
758.314	8.42
758.63	8.32
758.947	8.47
759.264	8.98
759.58	9.2
759.896	9.24
760.213	9.23
760.529	9.38
760.846	9.28
761.162	8.97
761.478	9.32
761.794	9.26
762.11	9.48
762.426	9.33
762.743	9.36
763.059	9.52
763.375	9.34
763.69	9.43
764.006	9.8
764.322	9.74
764.638	10.08
764.954	10.04
765.27	10.33
765.585	10.59
765.901	10.35
766.216	10.01
766.532	9.92
766.848	10.09
767.163	10.1
767.478	10.26
767.794	10.27
768.109	10.25
768.424	10.46
768.74	10.34
769.055	10.66
769.37	10.39
769.685	10.1
770	9.99
770.315	10.03
770.63	10
770.945	9.87
771.26	9.77
771.575	9.8
771.89	9.36
772.205	8.89
772.52	9.11
772.834	9.26
773.149	9.47
773.464	9.11
773.778	9.11
774.093	9.07
774.407	9.64
774.722	9.61
775.036	9.74
775.351	9.91
775.665	9.77
775.979	10.45
776.293	10.6
776.608	10.82
776.922	10.82
777.236	10.78
777.55	10.67
777.864	10.53
778.178	10.57
778.492	10.74
778.806	10.93
779.12	10.96
779.434	11.1
779.747	11.33
780.061	11.74
780.375	11.7
780.689	11.84
781.002	11.88
781.316	12.03
781.629	11.92
781.943	11.53
782.256	11.33
782.57	11.15
782.883	11.25
783.196	11.52
783.51	11.48
783.823	11.76
784.136	11.86
784.449	11.46
784.762	11.95
785.075	12.16
785.388	12.44
785.701	12.22
786.014	12.15
786.327	11.61
786.64	11.53
786.953	11.3
787.266	11.22
787.578	11.17
787.891	11.33
788.204	11.57
788.516	12.32
788.829	12.49
789.141	12.61
789.454	12.5
789.766	12.68
790.079	12.74
790.391	12.5
790.703	12.52
791.016	12.77
791.328	12.63
791.64	12.39
791.952	12.36
792.264	12.6
792.576	12.95
792.888	13.44
793.2	13.09
793.512	13.19
793.824	13.82
794.136	14.14
794.448	14.15
794.76	14.15
795.071	13.78
795.383	13.67
795.695	13.53
796.006	13.58
796.318	13.25
796.629	13.63
796.941	13.42
797.252	13.86
797.564	13.93
797.875	13.41
798.186	13.72
798.497	13.36
798.809	13.39
799.12	12.98
799.431	12.89
799.742	13.13
800.053	13.5
800.364	12.72
800.675	12.22
800.986	12.73
801.297	12.66
801.608	12.68
801.918	12.54
802.229	12.6
802.54	12.74
802.851	13.2
803.161	12.92
803.472	13.11
803.782	13.2
804.093	13.33
804.403	13.79
804.714	13.74
805.024	13.54
805.334	13.97
805.645	14.08
805.955	14.21
806.265	14.89
806.575	14.76
806.885	15.2
807.195	15.51
807.505	14.71
807.815	14.51
808.125	14.32
808.435	14.83
808.745	14.89
809.055	14.75
809.365	14.42
809.674	14.43
809.984	14.85
810.294	14.36
810.603	14.14
810.913	13.7
811.222	13.59
811.532	14.22
811.841	14.32
812.151	14.35
812.46	14.02
812.769	13.27
813.079	12.86
813.388	12.44
813.697	12.15
814.006	12.28
814.315	12.15
814.624	12.36
814.933	12.27
815.242	11.94
815.551	12.12
815.86	12.63
816.169	11.97
816.478	11.72
816.786	12.04
817.095	12.11
817.404	12.2
817.712	12.87
818.021	13.05
818.33	12.1
818.638	12.47
818.947	12.56
819.255	12.74
819.563	12.87
819.872	13.13
820.18	13.05
820.488	13.18
820.796	13.23
821.105	13.11
821.413	13.22
821.721	13.03
822.029	12.97
822.337	12.83
822.645	12.99
822.953	12.85
823.26	12.63
823.568	12.56
823.876	12.69
824.184	12.48
824.491	12.31
824.799	12.49
825.107	12.38
825.414	12.47
825.722	12.3
826.029	12.31
826.337	12.21
826.644	12.2
826.951	11.98
827.259	11.97
827.566	12.03
827.873	11.81
828.18	11.94
828.488	11.87
828.795	11.83
829.102	11.67
829.409	11.6
829.716	11.92
830.023	12.05
830.329	12
830.636	11.99
830.943	11.8
831.25	11.79
831.557	11.76
831.863	11.59
832.17	11.9
832.476	11.88
832.783	11.75
833.089	11.62
833.396	12.1
833.702	11.9
834.009	11.8
834.315	11.93
834.621	12.14
834.928	12.13
835.234	12.59
835.54	12.72
835.846	13.1
836.152	13.09
836.458	13.4
836.764	13.44
837.07	13.4
837.376	13.97
837.682	13.59
837.988	14.23
838.293	14.53
838.599	14.13
838.905	14.9
839.211	14.93
839.516	15.14
839.822	15.63
840.127	15.45
840.433	15.81
840.738	16.01
841.044	15.92
841.349	16.93
841.654	16.35
841.959	16.71
842.265	16.44
842.57	16.9
842.875	16.6
843.18	16.32
843.485	17.43
843.79	17.37
844.095	18.17
844.4	17.85
844.705	17.9
845.01	19.2
845.315	18.42
845.619	19.09
845.924	18.87
846.229	18.84
846.533	20.99
846.838	20.86
847.142	20.61
847.447	20.25
847.751	18.73
848.056	17.08
848.36	17.92
848.664	17.89
848.969	16.83
849.273	15.43
849.577	15.59
849.881	16.04
850.185	16.32
850.489	16.84
850.794	16.43
851.097	16.81
851.401	16.73
851.705	16.33
852.009	16.79
852.313	15.99
852.617	13.96
852.92	13.47
853.224	15.66
853.528	15.29
853.831	16.88
854.135	18.34
854.438	19.98
854.742	19.67
855.045	19.97
855.349	19.52
855.652	23.27
855.955	23.22
856.259	22.47
856.562	22.03
856.865	20.26
857.168	20.91
857.471	18.71
857.774	19.58
858.077	18.83
858.38	19.3
858.683	21.76
858.986	23.47
859.289	23.67
859.592	22.13
859.894	24.97
860.197	23.4
860.5	22.34
860.802	23.38
861.105	24.36
861.407	23.4
861.71	23.62
862.012	22.02
862.315	21.6
862.617	21.08
862.919	21.01
863.222	22.4
863.524	20.74
863.826	20.36
864.128	18.89
864.43	22.42
864.732	22
865.034	20.73
865.336	21.43
865.638	21.72
865.94	21.91
866.242	22.07
866.544	23.92
866.846	25.91
867.147	28.87
867.449	26.6
867.751	28.29
868.052	29.64
868.354	29.97
868.655	31.92
868.957	31.16
869.258	31.21
869.56	30.66
869.861	30.66
870.162	32.96
870.463	32.81
870.765	30.15
871.066	28.37
871.367	28.34
871.668	25.49
871.969	24.8
872.27	22.63
872.571	20.22
872.872	19.04
873.173	16.35
873.473	9.48
873.774	9.61
874.075	9.99
874.376	7.9
874.676	8.48
874.977	5.64
875.277	7.49
875.578	5.53
875.878	4.56
876.179	5.84
876.479	4.29
876.78	4.53
877.08	3.77
877.38	4.36
877.68	5.8
877.981	7.75
878.281	6.97
878.581	9.35
