Data from BU57994_Reflection_00007.txt Node
Date: Mon Nov 18 16:53:10 EST 2019
User: vgr7
Spectrometer: USB2G7710
Scans to average: 3
Trigger mode: 4
Integration Time (sec): 2.000000E-2
Electric dark correction enabled: true
Boxcar width: 10
XAxis mode: Wavelengths
Number of Pixels in Spectrum: 2048
>>>>>Begin Spectral Data<<<<<
177.721	7.77
178.105	-36.5
178.488	22.7
178.871	-31.77
179.254	-42.86
179.636	40.5
180.019	88.9
180.402	59.62
180.785	84.52
181.168	-103.13
181.55	-75.48
181.933	12.96
182.316	29.76
182.698	42.02
183.081	20.08
183.463	-4.89
183.846	-37.77
184.228	-49.49
184.611	-32.02
184.993	267.79
185.376	-65.56
185.758	-214.88
186.14	-265.56
186.522	-12.08
186.904	-79.79
187.287	-82.1
187.669	-19.3
188.051	-9.71
188.433	-17.5
188.815	15.64
189.197	1.52
189.579	-21.76
189.961	-21.08
190.342	-24.49
190.724	-5.66
191.106	-17.6
191.488	-9.69
191.869	-11.87
192.251	-20.35
192.633	-11.18
193.014	17.03
193.396	-11.21
193.777	3.85
194.159	4.75
194.54	26.25
194.922	23.77
195.303	29.54
195.684	17.88
196.065	24.47
196.447	1.5
196.828	-10.57
197.209	6.44
197.59	10.13
197.971	5.16
198.352	6.2
198.733	-3.24
199.114	-8.94
199.495	-3.01
199.876	11.93
200.257	26.46
200.638	27.44
201.018	17.33
201.399	30.21
201.78	16.16
202.16	10.68
202.541	-14.11
202.922	-44.18
203.302	-37.75
203.683	-29.06
204.063	-32.3
204.444	-3.83
204.824	-31.56
205.204	-45.22
205.585	-49.67
205.965	-57.8
206.345	-85.57
206.725	-100.53
207.106	-127.26
207.486	-224.41
207.866	-215.15
208.246	-270.67
208.626	-323.27
209.006	-277.89
209.386	-319.45
209.766	-245.33
210.145	-225.52
210.525	-148.19
210.905	-109.2
211.285	-94.23
211.664	-82.18
212.044	-90.31
212.424	-106.56
212.803	-110.49
213.183	-101.41
213.562	-84.84
213.942	-66.11
214.321	-32.44
214.701	-24.39
215.08	-25.49
215.459	-13.85
215.838	-15.93
216.218	-13.31
216.597	-6.29
216.976	-1.64
217.355	-5.8
217.734	-8.01
218.113	-14.43
218.492	-26.54
218.871	-25.97
219.25	-22.25
219.629	-28.43
220.008	-17.62
220.387	-12.86
220.766	-9.88
221.144	-13.5
221.523	-18.58
221.902	-24.89
222.28	-28.51
222.659	-26.34
223.037	-14.94
223.416	-13.13
223.794	-12.62
224.173	-7.33
224.551	-6.27
224.929	-1.58
225.308	10.54
225.686	13.63
226.064	13.98
226.442	14.07
226.821	15.55
227.199	9.63
227.577	10.52
227.955	5.3
228.333	4.61
228.711	7.93
229.089	8.52
229.467	6.57
229.845	6.26
230.222	4.56
230.6	5.13
230.978	5.21
231.356	5.03
231.733	4.76
232.111	4.8
232.488	5.34
232.866	1.77
233.243	1.85
233.621	4.01
233.998	3.92
234.376	4.64
234.753	3.49
235.13	4.3
235.508	4.39
235.885	5.28
236.262	5.1
236.639	3.18
237.016	2.3
237.393	3.39
237.77	3.29
238.147	3.29
238.524	3.15
238.901	4.15
239.278	3.93
239.655	4.46
240.032	4.35
240.409	3.73
240.785	4.44
241.162	4.24
241.539	3.98
241.915	4.45
242.292	3.93
242.668	4.1
243.045	4.23
243.421	4.11
243.798	4.06
244.174	3.8
244.551	3.92
244.927	4.01
245.303	4.1
245.679	4.22
246.056	4.43
246.432	4.28
246.808	4.03
247.184	4
247.56	3.99
247.936	3.84
248.312	3.91
248.688	4.03
249.064	4.02
249.44	4.05
249.815	3.88
250.191	3.99
250.567	4.02
250.943	3.82
251.318	3.89
251.694	3.84
252.069	3.77
252.445	3.64
252.82	3.82
253.196	3.8
253.571	3.9
253.947	3.65
254.322	4.1
254.697	4.04
255.073	3.99
255.448	3.85
255.823	3.95
256.198	3.98
256.573	3.95
256.948	4.02
257.323	4.21
257.698	4.4
258.073	4.45
258.448	4.4
258.823	4.33
259.198	4.19
259.573	4.23
259.948	4.29
260.322	4.45
260.697	4.36
261.072	4.29
261.446	4.34
261.821	4.3
262.195	4.18
262.57	4.18
262.944	4.15
263.319	4.12
263.693	4.28
264.067	4.3
264.442	4.3
264.816	4.36
265.19	4.12
265.564	3.95
265.938	3.73
266.313	3.59
266.687	3.7
267.061	3.69
267.435	3.82
267.809	3.88
268.183	3.77
268.556	3.69
268.93	3.58
269.304	3.41
269.678	3.57
270.051	3.51
270.425	3.61
270.799	3.62
271.172	3.63
271.546	3.43
271.919	3.43
272.293	3.34
272.666	3.3
273.04	3.32
273.413	3.39
273.787	3.54
274.16	3.63
274.533	3.74
274.906	3.92
275.279	3.79
275.653	3.74
276.026	3.78
276.399	3.71
276.772	3.96
277.145	3.91
277.518	3.9
277.891	4.1
278.263	3.92
278.636	3.89
279.009	3.84
279.382	3.96
279.755	3.93
280.127	3.92
280.5	3.94
280.872	3.99
281.245	3.9
281.617	4.05
281.99	4.06
282.362	4.06
282.735	3.92
283.107	3.85
283.479	3.94
283.852	3.81
284.224	3.87
284.596	3.81
284.968	3.94
285.34	3.92
285.713	3.79
286.085	3.87
286.457	3.99
286.829	4.03
287.201	4.04
287.572	3.94
287.944	3.96
288.316	3.89
288.688	3.87
289.06	3.82
289.431	3.72
289.803	3.72
290.175	3.64
290.546	3.77
290.918	3.97
291.289	3.98
291.661	4.11
292.032	4.11
292.403	4.04
292.775	4.09
293.146	4.13
293.517	4.21
293.889	4.32
294.26	4.31
294.631	4.47
295.002	4.43
295.373	4.61
295.744	4.72
296.115	4.68
296.486	4.57
296.857	4.74
297.228	4.83
297.599	4.84
297.97	4.87
298.34	4.92
298.711	4.97
299.082	4.9
299.452	4.92
299.823	5.03
300.194	5.08
300.564	5.01
300.935	5.1
301.305	5.13
301.676	5.18
302.046	5.34
302.416	5.37
302.787	5.45
303.157	5.47
303.527	5.5
303.897	5.64
304.267	6.02
304.637	6.22
305.008	6.24
305.378	6.43
305.748	6.61
306.117	6.47
306.487	6.46
306.857	6.66
307.227	6.85
307.597	7.05
307.967	7.1
308.336	7.31
308.706	7.3
309.076	7.3
309.445	7.4
309.815	7.4
310.184	7.42
310.554	7.53
310.923	7.55
311.293	7.68
311.662	7.72
312.031	7.57
312.401	7.59
312.77	7.75
313.139	7.73
313.508	7.81
313.877	8.05
314.246	8.05
314.616	8.14
314.985	8.04
315.353	8
315.722	8.17
316.091	8.1
316.46	8.15
316.829	8.42
317.198	8.46
317.567	8.62
317.935	8.79
318.304	8.87
318.672	8.96
319.041	9.08
319.41	9.23
319.778	9.5
320.147	9.45
320.515	9.3
320.883	9.6
321.252	9.76
321.62	9.77
321.988	9.81
322.357	9.72
322.725	10
323.093	10.03
323.461	10.08
323.829	10.16
324.197	10.23
324.565	10.17
324.933	10.2
325.301	10.07
325.669	10.15
326.037	10.07
326.405	10.01
326.772	10.01
327.14	10.08
327.508	10.02
327.875	9.96
328.243	10.11
328.61	10.05
328.978	9.89
329.346	10.23
329.713	10.34
330.08	10.51
330.448	10.43
330.815	10.41
331.182	10.32
331.55	10.37
331.917	10.49
332.284	10.54
332.651	10.55
333.018	10.69
333.385	10.49
333.752	10.65
334.119	10.81
334.486	10.78
334.853	10.73
335.22	10.7
335.587	10.79
335.954	10.81
336.32	10.83
336.687	11.02
337.054	10.8
337.42	10.88
337.787	10.81
338.153	10.89
338.52	11.08
338.886	11.16
339.253	11.23
339.619	11.26
339.986	11.33
340.352	11.36
340.718	11.43
341.084	11.47
341.451	11.53
341.817	11.62
342.183	11.62
342.549	11.68
342.915	11.76
343.281	11.82
343.647	11.88
344.013	11.88
344.379	11.78
344.745	11.86
345.11	11.9
345.476	12.05
345.842	12.04
346.208	12
346.573	12.02
346.939	12.06
347.304	11.95
347.67	11.85
348.035	11.88
348.401	11.78
348.766	11.85
349.132	11.78
349.497	11.61
349.862	11.69
350.228	11.77
350.593	11.82
350.958	11.77
351.323	11.7
351.688	11.78
352.053	11.78
352.418	11.8
352.783	11.77
353.148	11.71
353.513	11.75
353.878	11.74
354.243	11.82
354.608	11.76
354.972	11.78
355.337	11.82
355.702	11.88
356.066	11.87
356.431	11.83
356.795	11.87
357.16	11.88
357.524	11.78
357.889	11.7
358.253	11.69
358.618	11.73
358.982	11.77
359.346	11.63
359.71	11.59
360.075	11.53
360.439	11.56
360.803	11.54
361.167	11.5
361.531	11.45
361.895	11.37
362.259	11.28
362.623	11.28
362.987	11.24
363.351	11.09
363.714	11.1
364.078	11.11
364.442	11.03
364.806	11.03
365.169	10.98
365.533	10.93
365.896	10.81
366.26	10.71
366.623	10.58
366.987	10.52
367.35	10.5
367.714	10.42
368.077	10.26
368.44	10.15
368.803	10
369.167	9.95
369.53	9.87
369.893	9.89
370.256	9.81
370.619	9.76
370.982	9.71
371.345	9.52
371.708	9.41
372.071	9.35
372.434	9.28
372.797	9.19
373.159	9.07
373.522	9.06
373.885	9.01
374.247	8.9
374.61	8.82
374.973	8.69
375.335	8.58
375.698	8.5
376.06	8.41
376.423	8.37
376.785	8.35
377.147	8.31
377.51	8.15
377.872	8.08
378.234	7.99
378.596	7.96
378.958	7.99
379.321	7.91
379.683	7.85
380.045	7.74
380.407	7.67
380.769	7.62
381.13	7.55
381.492	7.45
381.854	7.41
382.216	7.37
382.578	7.34
382.939	7.26
383.301	7.22
383.663	7.2
384.024	7.13
384.386	7.03
384.747	6.98
385.109	7
385.47	6.9
385.832	6.84
386.193	6.77
386.554	6.7
386.916	6.65
387.277	6.57
387.638	6.51
387.999	6.51
388.36	6.51
388.721	6.43
389.082	6.42
389.443	6.4
389.804	6.35
390.165	6.28
390.526	6.23
390.887	6.16
391.248	6.15
391.609	6.11
391.969	6.05
392.33	6.01
392.691	6
393.051	5.97
393.412	5.94
393.772	5.87
394.133	5.84
394.493	5.82
394.854	5.82
395.214	5.8
395.574	5.77
395.935	5.68
396.295	5.64
396.655	5.57
397.015	5.54
397.376	5.5
397.736	5.47
398.096	5.46
398.456	5.44
398.816	5.4
399.176	5.38
399.535	5.34
399.895	5.26
400.255	5.22
400.615	5.2
400.975	5.17
401.334	5.18
401.694	5.14
402.054	5.09
402.413	5.02
402.773	4.99
403.132	4.94
403.492	4.93
403.851	4.94
404.211	4.94
404.57	4.9
404.929	4.89
405.288	4.86
405.648	4.82
406.007	4.8
406.366	4.77
406.725	4.76
407.084	4.76
407.443	4.76
407.802	4.75
408.161	4.71
408.52	4.67
408.879	4.63
409.238	4.59
409.596	4.59
409.955	4.6
410.314	4.61
410.673	4.58
411.031	4.56
411.39	4.52
411.748	4.5
412.107	4.48
412.465	4.46
412.824	4.45
413.182	4.45
413.54	4.44
413.899	4.42
414.257	4.38
414.615	4.32
414.974	4.29
415.332	4.25
415.69	4.25
416.048	4.24
416.406	4.23
416.764	4.22
417.122	4.21
417.48	4.18
417.838	4.18
418.195	4.16
418.553	4.14
418.911	4.13
419.269	4.12
419.626	4.11
419.984	4.11
420.342	4.1
420.699	4.08
421.057	4.07
421.414	4.04
421.772	4.03
422.129	4.03
422.486	4.03
422.844	4.03
423.201	4.01
423.558	4
423.915	3.99
424.273	3.99
424.63	3.97
424.987	3.97
425.344	3.94
425.701	3.95
426.058	3.94
426.415	3.93
426.772	3.91
427.128	3.91
427.485	3.9
427.842	3.88
428.199	3.89
428.555	3.89
428.912	3.91
429.269	3.93
429.625	3.94
429.982	3.91
430.338	3.9
430.695	3.92
431.051	3.92
431.407	3.92
431.764	3.91
432.12	3.91
432.476	3.89
432.832	3.88
433.189	3.89
433.545	3.88
433.901	3.88
434.257	3.87
434.613	3.88
434.969	3.9
435.325	3.91
435.681	3.92
436.036	3.91
436.392	3.9
436.748	3.88
437.104	3.86
437.459	3.86
437.815	3.85
438.171	3.83
438.526	3.82
438.882	3.82
439.237	3.83
439.593	3.84
439.948	3.84
440.304	3.85
440.659	3.84
441.014	3.86
441.369	3.86
441.725	3.86
442.08	3.84
442.435	3.81
442.79	3.81
443.145	3.78
443.5	3.76
443.855	3.76
444.21	3.75
444.565	3.76
444.92	3.77
445.275	3.76
445.629	3.77
445.984	3.77
446.339	3.74
446.693	3.72
447.048	3.71
447.403	3.69
447.757	3.68
448.112	3.67
448.466	3.65
448.82	3.63
449.175	3.63
449.529	3.62
449.883	3.61
450.238	3.58
450.592	3.59
450.946	3.59
451.3	3.58
451.654	3.59
452.008	3.57
452.362	3.57
452.716	3.55
453.07	3.52
453.424	3.51
453.778	3.53
454.132	3.54
454.486	3.52
454.839	3.51
455.193	3.5
455.547	3.5
455.9	3.52
456.254	3.52
456.607	3.52
456.961	3.52
457.314	3.51
457.668	3.52
458.021	3.52
458.375	3.52
458.728	3.53
459.081	3.5
459.434	3.51
459.787	3.51
460.141	3.51
460.494	3.53
460.847	3.55
461.2	3.55
461.553	3.56
461.906	3.56
462.259	3.58
462.611	3.61
462.964	3.61
463.317	3.6
463.67	3.61
464.022	3.61
464.375	3.6
464.728	3.62
465.08	3.62
465.433	3.62
465.785	3.66
466.138	3.65
466.49	3.68
466.843	3.68
467.195	3.69
467.547	3.72
467.899	3.74
468.252	3.74
468.604	3.75
468.956	3.75
469.308	3.76
469.66	3.77
470.012	3.78
470.364	3.79
470.716	3.79
471.068	3.78
471.42	3.81
471.772	3.85
472.123	3.88
472.475	3.9
472.827	3.9
473.178	3.89
473.53	3.91
473.882	3.9
474.233	3.92
474.585	3.91
474.936	3.89
475.288	3.88
475.639	3.89
475.99	3.91
476.342	3.91
476.693	3.91
477.044	3.92
477.395	3.92
477.746	3.92
478.097	3.91
478.448	3.92
478.8	3.91
479.15	3.89
479.501	3.88
479.852	3.88
480.203	3.87
480.554	3.87
480.905	3.87
481.255	3.87
481.606	3.87
481.957	3.88
482.307	3.88
482.658	3.88
483.009	3.86
483.359	3.85
483.709	3.86
484.06	3.86
484.41	3.85
484.761	3.84
485.111	3.85
485.461	3.85
485.811	3.85
486.162	3.85
486.512	3.85
486.862	3.84
487.212	3.84
487.562	3.84
487.912	3.84
488.262	3.83
488.612	3.82
488.961	3.82
489.311	3.81
489.661	3.82
490.011	3.83
490.36	3.83
490.71	3.84
491.06	3.83
491.409	3.83
491.759	3.83
492.108	3.84
492.458	3.85
492.807	3.86
493.157	3.87
493.506	3.89
493.855	3.9
494.204	3.92
494.554	3.92
494.903	3.93
495.252	3.95
495.601	3.98
495.95	4.02
496.299	4.05
496.648	4.06
496.997	4.09
497.346	4.12
497.695	4.19
498.043	4.21
498.392	4.24
498.741	4.28
499.09	4.3
499.438	4.32
499.787	4.37
500.135	4.41
500.484	4.44
500.832	4.48
501.181	4.52
501.529	4.56
501.878	4.64
502.226	4.7
502.574	4.76
502.923	4.81
503.271	4.85
503.619	4.93
503.967	5
504.315	5.03
504.663	5.08
505.011	5.13
505.359	5.2
505.707	5.29
506.055	5.35
506.403	5.46
506.751	5.56
507.098	5.64
507.446	5.74
507.794	5.81
508.141	5.88
508.489	5.98
508.837	6.09
509.184	6.21
509.531	6.29
509.879	6.4
510.226	6.5
510.574	6.62
510.921	6.7
511.268	6.82
511.616	6.95
511.963	7.09
512.31	7.22
512.657	7.37
513.004	7.52
513.351	7.7
513.698	7.83
514.045	8.02
514.392	8.17
514.739	8.34
515.086	8.54
515.432	8.71
515.779	8.89
516.126	9.07
516.473	9.22
516.819	9.43
517.166	9.59
517.512	9.75
517.859	9.92
518.205	10.09
518.552	10.26
518.898	10.41
519.245	10.54
519.591	10.72
519.937	10.87
520.283	11.03
520.629	11.2
520.976	11.39
521.322	11.55
521.668	11.75
522.014	11.96
522.36	12.16
522.706	12.4
523.052	12.66
523.398	12.93
523.743	13.18
524.089	13.43
524.435	13.67
524.781	13.92
525.126	14.11
525.472	14.33
525.817	14.49
526.163	14.68
526.509	14.87
526.854	15.02
527.199	15.17
527.545	15.33
527.89	15.49
528.235	15.66
528.581	15.83
528.926	16.01
529.271	16.18
529.616	16.33
529.961	16.48
530.306	16.62
530.651	16.78
530.996	16.94
531.341	17.12
531.686	17.31
532.031	17.49
532.376	17.7
532.721	17.91
533.065	18.14
533.41	18.36
533.755	18.58
534.099	18.81
534.444	19.04
534.788	19.26
535.133	19.45
535.477	19.65
535.822	19.88
536.166	20.12
536.51	20.36
536.855	20.64
537.199	20.94
537.543	21.23
537.887	21.51
538.231	21.81
538.576	22.11
538.92	22.41
539.264	22.69
539.608	22.96
539.951	23.19
540.295	23.43
540.639	23.68
540.983	23.91
541.327	24.13
541.671	24.37
542.014	24.6
542.358	24.84
542.701	25.07
543.045	25.28
543.389	25.48
543.732	25.72
544.075	25.96
544.419	26.21
544.762	26.48
545.105	26.72
545.449	27.01
545.792	27.28
546.135	27.59
546.478	27.92
546.821	28.24
547.165	28.57
547.508	28.91
547.851	29.2
548.194	29.51
548.536	29.85
548.879	30.2
549.222	30.5
549.565	30.82
549.908	31.17
550.25	31.54
550.593	31.88
550.936	32.2
551.278	32.56
551.621	32.9
551.963	33.26
552.306	33.62
552.648	33.96
552.991	34.32
553.333	34.61
553.675	34.92
554.017	35.25
554.36	35.55
554.702	35.84
555.044	36.15
555.386	36.48
555.728	36.79
556.07	37.04
556.412	37.37
556.754	37.72
557.096	38.01
557.438	38.31
557.78	38.66
558.121	39.01
558.463	39.33
558.805	39.64
559.147	39.92
559.488	40.27
559.83	40.54
560.171	40.81
560.513	41.11
560.854	41.39
561.196	41.67
561.537	41.95
561.878	42.28
562.22	42.63
562.561	42.93
562.902	43.23
563.243	43.49
563.584	43.73
563.925	43.97
564.266	44.28
564.607	44.55
564.948	44.77
565.289	45.06
565.63	45.27
565.971	45.51
566.312	45.77
566.653	46.03
566.993	46.31
567.334	46.51
567.675	46.74
568.015	46.99
568.356	47.16
568.696	47.4
569.037	47.58
569.377	47.72
569.718	47.95
570.058	48.12
570.398	48.35
570.739	48.63
571.079	48.88
571.419	49.07
571.759	49.26
572.099	49.48
572.439	49.65
572.779	49.86
573.119	49.96
573.459	50.18
573.799	50.31
574.139	50.47
574.479	50.65
574.819	50.78
575.158	50.93
575.498	51.12
575.838	51.34
576.177	51.48
576.517	51.69
576.856	51.89
577.196	52.1
577.535	52.31
577.875	52.43
578.214	52.49
578.553	52.64
578.893	52.86
579.232	52.97
579.571	53.11
579.91	53.25
580.25	53.53
580.589	53.68
580.928	53.88
581.267	54.03
581.606	54.21
581.945	54.43
582.283	54.6
582.622	54.83
582.961	54.91
583.3	55.13
583.639	55.32
583.977	55.38
584.316	55.49
584.654	55.62
584.993	55.77
585.332	55.95
585.67	56.14
586.008	56.25
586.347	56.51
586.685	56.68
587.024	56.79
587.362	56.94
587.7	56.97
588.038	57.1
588.376	57.12
588.715	57.23
589.053	57.3
589.391	57.49
589.729	57.59
590.067	57.7
590.404	57.79
590.742	57.84
591.08	57.96
591.418	58.11
591.756	58.21
592.093	58.22
592.431	58.31
592.769	58.46
593.106	58.56
593.444	58.59
593.781	58.68
594.119	58.75
594.456	58.82
594.793	58.98
595.131	58.97
595.468	59.15
595.805	59.25
596.143	59.41
596.48	59.38
596.817	59.5
597.154	59.65
597.491	59.74
597.828	59.78
598.165	59.89
598.502	59.97
598.839	60.09
599.176	60.24
599.512	60.33
599.849	60.27
600.186	60.27
600.523	60.36
600.859	60.46
601.196	60.64
601.532	60.7
601.869	60.7
602.205	60.76
602.542	60.77
602.878	60.81
603.215	60.87
603.551	60.91
603.887	60.95
604.223	60.88
604.56	60.84
604.896	60.95
605.232	60.91
605.568	60.88
605.904	60.92
606.24	61
606.576	61.04
606.912	61.2
607.248	61.32
607.583	61.31
607.919	61.31
608.255	61.31
608.591	61.31
608.926	61.4
609.262	61.53
609.597	61.59
609.933	61.62
610.268	61.65
610.604	61.74
610.939	61.73
611.275	61.86
611.61	61.92
611.945	61.97
612.281	62.12
612.616	62.2
612.951	62.2
613.286	62.23
613.621	62.25
613.956	62.25
614.291	62.26
614.626	62.39
614.961	62.37
615.296	62.36
615.631	62.41
615.966	62.45
616.3	62.5
616.635	62.58
616.97	62.65
617.304	62.71
617.639	62.66
617.973	62.61
618.308	62.64
618.642	62.77
618.977	62.68
619.311	62.64
619.646	62.72
619.98	62.79
620.314	62.8
620.648	62.87
620.983	62.97
621.317	63.03
621.651	63.04
621.985	63.16
622.319	63.18
622.653	63.28
622.987	63.34
623.321	63.38
623.655	63.35
623.988	63.38
624.322	63.34
624.656	63.45
624.99	63.62
625.323	63.54
625.657	63.6
625.99	63.65
626.324	63.68
626.657	63.56
626.991	63.59
627.324	63.67
627.658	63.78
627.991	63.75
628.324	63.76
628.657	63.79
628.991	63.78
629.324	63.86
629.657	63.84
629.99	63.8
630.323	63.7
630.656	63.74
630.989	63.83
631.322	63.92
631.655	63.88
631.987	63.74
632.32	63.86
632.653	63.76
632.986	63.86
633.318	63.91
633.651	64.12
633.984	64.1
634.316	64.04
634.649	64.01
634.981	64
635.313	64.02
635.646	64.16
635.978	64.31
636.31	64.38
636.643	64.39
636.975	64.47
637.307	64.52
637.639	64.57
637.971	64.49
638.303	64.47
638.635	64.55
638.967	64.65
639.299	64.75
639.631	64.85
639.963	64.77
640.295	64.78
640.626	64.8
640.958	64.84
641.29	64.98
641.621	64.92
641.953	65
642.285	65.04
642.616	64.95
642.948	64.83
643.279	64.85
643.61	64.85
643.942	64.8
644.273	64.81
644.604	64.89
644.936	64.86
645.267	64.93
645.598	64.94
645.929	65.08
646.26	64.99
646.591	64.97
646.922	65.08
647.253	64.97
647.584	64.93
647.915	64.93
648.245	64.94
648.576	64.93
648.907	64.99
649.238	64.98
649.568	64.95
649.899	65.06
650.229	65.01
650.56	65.1
650.89	65.28
651.221	65.41
651.551	65.4
651.882	65.52
652.212	65.51
652.542	65.53
652.872	65.45
653.203	65.47
653.533	65.47
653.863	65.46
654.193	65.61
654.523	65.67
654.853	65.71
655.183	65.66
655.513	65.72
655.843	65.63
656.172	65.68
656.502	65.59
656.832	65.55
657.162	65.6
657.491	65.61
657.821	65.59
658.15	65.54
658.48	65.59
658.809	65.64
659.139	65.53
659.468	65.49
659.798	65.5
660.127	65.48
660.456	65.47
660.785	65.5
661.115	65.61
661.444	65.63
661.773	65.64
662.102	65.71
662.431	65.77
662.76	65.82
663.089	65.79
663.418	65.87
663.747	65.78
664.076	65.75
664.404	65.84
664.733	65.72
665.062	65.78
665.39	65.71
665.719	65.56
666.048	65.72
666.376	65.75
666.705	65.73
667.033	65.85
667.362	65.92
667.69	65.87
668.018	65.76
668.347	65.63
668.675	65.66
669.003	65.64
669.331	65.68
669.659	65.68
669.987	65.71
670.315	65.76
670.643	65.9
670.971	65.84
671.299	65.76
671.627	65.79
671.955	65.71
672.283	65.72
672.61	65.79
672.938	65.66
673.266	65.65
673.593	65.75
673.921	65.72
674.249	65.74
674.576	65.64
674.904	65.71
675.231	65.85
675.558	65.75
675.886	65.76
676.213	65.85
676.54	65.8
676.867	65.75
677.195	65.75
677.522	65.71
677.849	65.8
678.176	65.7
678.503	65.56
678.83	65.68
679.157	65.53
679.484	65.54
679.81	65.64
680.137	65.63
680.464	65.58
680.791	65.56
681.117	65.6
681.444	65.64
681.771	65.63
682.097	65.67
682.424	65.75
682.75	65.73
683.077	65.58
683.403	65.58
683.729	65.75
684.056	65.67
684.382	65.7
684.708	65.81
685.034	65.89
685.36	65.99
685.686	65.91
686.012	66.11
686.339	66.1
686.664	66.18
686.99	66.2
687.316	66.16
687.642	66.2
687.968	66.27
688.294	66.35
688.619	66.3
688.945	66.11
689.271	66.19
689.596	65.98
689.922	66.14
690.247	66.23
690.573	66.08
690.898	66.2
691.224	66.15
691.549	65.91
691.874	65.88
692.2	65.89
692.525	65.89
692.85	65.76
693.175	65.92
693.5	65.78
693.825	65.76
694.15	65.95
694.475	65.8
694.8	65.77
695.125	65.74
695.45	65.71
695.775	65.74
696.099	65.6
696.424	65.68
696.749	65.54
697.073	65.56
697.398	65.68
697.723	65.69
698.047	65.7
698.372	65.69
698.696	65.77
699.02	65.82
699.345	65.86
699.669	65.86
699.993	65.89
700.318	65.95
700.642	65.97
700.966	65.84
701.29	65.9
701.614	65.76
701.938	65.75
702.262	65.96
702.586	66.15
702.91	66.16
703.234	66.38
703.557	66.4
703.881	66.38
704.205	66.26
704.529	66.39
704.852	66.47
705.176	66.45
705.499	66.36
705.823	66.37
706.146	66.36
706.47	66.44
706.793	66.24
707.117	66.31
707.44	66.27
707.763	66.19
708.086	66.29
708.409	66.4
708.733	66.55
709.056	66.4
709.379	66.38
709.702	66.29
710.025	66.18
710.348	66.33
710.671	66.25
710.993	66.36
711.316	66.19
711.639	66.08
711.962	66.27
712.284	66.15
712.607	65.91
712.93	65.87
713.252	65.87
713.575	66
713.897	65.99
714.22	66.06
714.542	66.4
714.864	66.39
715.187	66.43
715.509	66.39
715.831	66.34
716.153	66.23
716.475	66.45
716.798	66.58
717.12	66.48
717.442	66.6
717.764	66.54
718.085	66.57
718.407	66.75
718.729	66.57
719.051	66.72
719.373	66.98
719.695	67.1
720.016	67.2
720.338	67.2
720.659	67.33
720.981	67.23
721.302	66.97
721.624	66.99
721.945	67.04
722.267	67.06
722.588	67.02
722.909	66.87
723.231	66.68
723.552	66.45
723.873	66.4
724.194	66.23
724.515	66.2
724.836	66.26
725.157	65.99
725.478	66.14
725.799	66.14
726.12	66.25
726.441	66.27
726.762	66.16
727.083	66.02
727.403	65.94
727.724	65.98
728.045	66.06
728.365	66.01
728.686	65.97
729.006	65.95
729.327	65.89
729.647	66.1
729.967	66.01
730.288	66.18
730.608	66.26
730.928	66.51
731.249	66.5
731.569	66.53
731.889	66.77
732.209	66.98
732.529	66.9
732.849	66.81
733.169	66.66
733.489	66.83
733.809	66.94
734.129	66.87
734.448	66.78
734.768	66.78
735.088	66.98
735.408	67.07
735.727	67.18
736.047	67.44
736.366	67.24
736.686	67.37
737.005	67.34
737.325	67.34
737.644	67.06
737.963	67.31
738.283	67.31
738.602	67.39
738.921	67.31
739.24	67.46
739.56	67.49
739.879	67.64
740.198	67.6
740.517	67.57
740.836	67.51
741.155	67.75
741.473	67.49
741.792	67.14
742.111	66.9
742.43	66.76
742.748	66.86
743.067	66.86
743.386	66.7
743.704	66.58
744.023	66.61
744.341	67.11
744.66	66.87
744.978	66.71
745.297	66.57
745.615	66.59
745.933	66.46
746.252	66.55
746.57	66.52
746.888	66.73
747.206	66.51
747.524	66.7
747.842	66.75
748.16	67.2
748.478	67.37
748.796	67.56
749.114	67.53
749.432	67.02
749.749	67.18
750.067	67.56
750.385	67.53
750.703	66.98
751.02	66.83
751.338	67
751.655	66.9
751.973	66.74
752.29	66.48
752.608	66.55
752.925	66.5
753.242	66.55
753.56	66.26
753.877	66.27
754.194	65.88
754.511	65.75
754.828	65.71
755.145	65.73
755.462	65.78
755.779	65.85
756.096	65.77
756.413	65.84
756.73	65.79
757.047	66.28
757.364	66.84
757.68	66.86
757.997	66.87
758.314	66.8
758.63	66.97
758.947	66.86
759.264	67.02
759.58	66.94
759.896	66.99
760.213	67.06
760.529	67.19
760.846	67.21
761.162	67.15
761.478	67.17
761.794	67.08
762.11	66.67
762.426	66.52
762.743	66.6
763.059	66.76
763.375	66.84
763.69	66.5
764.006	66.29
764.322	65.99
764.638	66
764.954	66.11
765.27	66.19
765.585	66.4
765.901	66.51
766.216	66.72
766.532	66.54
766.848	66.74
767.163	66.67
767.478	66.76
767.794	66.71
768.109	66.35
768.424	66.31
768.74	66.75
769.055	66.99
769.37	66.99
769.685	66.41
770	66.12
770.315	66.28
770.63	66.4
770.945	66.5
771.26	66.5
771.575	66.62
771.89	65.91
772.205	65.77
772.52	65.55
772.834	65.49
773.149	65.74
773.464	65.04
773.778	65.23
774.093	65.16
774.407	65.16
774.722	65.09
775.036	65.36
775.351	64.92
775.665	65.11
775.979	65.15
776.293	65.58
776.608	65.83
776.922	65.59
777.236	65.6
777.55	65.2
777.864	64.97
778.178	64.98
778.492	65.65
778.806	65.93
779.12	65.75
779.434	65.41
779.747	65.16
780.061	65.47
780.375	65.57
780.689	65.32
781.002	65.36
781.316	65.36
781.629	65.16
781.943	65.45
782.256	65.53
782.57	65.89
782.883	65.82
783.196	65.79
783.51	65.9
783.823	66.03
784.136	66.7
784.449	66.73
784.762	66.74
785.075	66.19
785.388	65.56
785.701	65.72
786.014	65.81
786.327	65.85
786.64	65.95
786.953	65.78
787.266	66.61
787.578	66.64
787.891	66.77
788.204	67.09
788.516	67.27
788.829	66.46
789.141	66.6
789.454	66.12
789.766	66.06
790.079	65.95
790.391	66.13
790.703	66.57
791.016	66.7
791.328	66.51
791.64	66.62
791.952	66.86
792.264	66.68
792.576	66.59
792.888	67.13
793.2	67.52
793.512	67.34
793.824	67.12
794.136	67.39
794.448	66.87
794.76	66.11
795.071	65.87
795.383	66.74
795.695	66.63
796.006	67.04
796.318	66.64
796.629	66.68
796.941	66.3
797.252	65.69
797.564	65.71
797.875	66.39
798.186	66.99
798.497	66.94
798.809	66.78
799.12	67.24
799.431	66.54
799.742	66.58
800.053	66.98
800.364	66.61
800.675	66.74
800.986	68.01
801.297	67.43
801.608	66.76
801.918	66.3
802.229	66.46
802.54	67.14
802.851	67.69
803.161	67.72
803.472	67.27
803.782	67.75
804.093	67.63
804.403	67.32
804.714	66.45
805.024	67.67
805.334	68.33
805.645	68.17
805.955	68.33
806.265	67.22
806.575	66.25
806.885	66.74
807.195	66.21
807.505	65.59
807.815	67.28
808.125	68.49
808.435	68.61
808.745	68.68
809.055	68.5
809.365	67.62
809.674	68.42
809.984	68.67
810.294	68.7
810.603	68.72
810.913	68.61
811.222	69.98
811.532	68.78
811.841	68.61
812.151	68.79
812.46	68.98
812.769	69.81
813.079	70.5
813.388	70.42
813.697	70.86
814.006	70.57
814.315	70.62
814.624	69.58
814.933	68.84
815.242	69.01
815.551	68.95
815.86	70.01
816.169	68.79
816.478	69.17
816.786	68.59
817.095	68.96
817.404	69.59
817.712	68.43
818.021	68.38
818.33	68.27
818.638	67.13
818.947	67.03
819.255	67.17
819.563	66.81
819.872	66.1
820.18	65.88
820.488	65.82
820.796	65.39
821.105	65.63
821.413	66.21
821.721	66.14
822.029	65.94
822.337	66.05
822.645	66.21
822.953	66.33
823.26	66.43
823.568	66.21
823.876	66.13
824.184	66.26
824.491	66.26
824.799	66.34
825.107	66.42
825.414	66.44
825.722	66.37
826.029	66.52
826.337	66.73
826.644	66.81
826.951	66.84
827.259	67.06
827.566	67
827.873	66.81
828.18	66.87
828.488	67.13
828.795	66.78
829.102	66.73
829.409	66.76
829.716	66.62
830.023	66.69
830.329	66.6
830.636	66.29
830.943	66.64
831.25	66.52
831.557	66.82
831.863	66.63
832.17	66.5
832.476	66.76
832.783	66.96
833.089	67.27
833.396	67.96
833.702	68.1
834.009	67.99
834.315	67.92
834.621	67.74
834.928	67.89
835.234	68.43
835.54	68.14
835.846	68.02
836.152	68.4
836.458	68.85
836.764	68.92
837.07	69.4
837.376	68.83
837.682	68.81
837.988	68.94
838.293	68.81
838.599	68.6
838.905	68.2
839.211	67.81
839.516	68.1
839.822	67.69
840.127	67.92
840.433	68.65
840.738	68.43
841.044	68.14
841.349	67.65
841.654	67.39
841.959	68.14
842.265	68.6
842.57	68.42
842.875	69.43
843.18	69.7
843.485	69.37
843.79	69.31
844.095	69.82
844.4	71.13
844.705	72.07
845.01	72.9
845.315	73.37
845.619	74.09
845.924	73.81
846.229	73.79
846.533	73.66
846.838	72.57
847.142	72.24
847.447	71.34
847.751	71.69
848.056	71.34
848.36	70.82
848.664	69
848.969	68.93
849.273	66.35
849.577	66.28
849.881	65.22
850.185	66.45
850.489	66.29
850.794	62.99
851.097	62.56
851.401	62.97
851.705	62.54
852.009	62.86
852.313	62.05
852.617	60.9
852.92	61.58
853.224	61.46
853.528	64.21
853.831	65
854.135	63.59
854.438	62.5
854.742	62.35
855.045	60.04
855.349	58.63
855.652	58.15
855.955	56.18
856.259	54.71
856.562	53.88
856.865	53.14
857.168	54.82
857.471	54.14
857.774	54.17
858.077	54.3
858.38	54.49
858.683	55.41
858.986	57.66
859.289	56.31
859.592	58.65
859.894	57.35
860.197	57.15
860.5	58.03
860.802	59.38
861.105	60.36
861.407	63.94
861.71	64.71
862.012	63.61
862.315	61.69
862.617	64.15
862.919	65.42
863.222	64.81
863.524	63.4
863.826	65.6
864.128	63.94
864.43	63.91
864.732	63.59
865.034	63.48
865.336	62.19
865.638	59.82
865.94	60.26
866.242	59.32
866.544	59.28
866.846	58.91
867.147	61.14
867.449	60.6
867.751	58.87
868.052	60.78
868.354	63.71
868.655	68.45
868.957	68.48
869.258	68.07
869.56	68.9
869.861	68.12
870.162	67.14
870.463	66.8
870.765	67.08
871.066	67.32
871.367	64.38
871.668	65.01
871.969	66.68
872.27	64.09
872.571	63.2
872.872	63.5
873.173	61.58
873.473	59.6
873.774	60.1
874.075	61.8
874.376	59.58
874.676	60.78
874.977	58.84
875.277	59.17
875.578	58.96
875.878	58.57
876.179	60.1
876.479	59.62
876.78	59.9
877.08	59.13
877.38	58.66
877.68	60.51
877.981	59.16
878.281	59.66
878.581	61.08
