Data from BU57648_Reflection_00005.txt Node
Date: Tue Nov 19 10:46:36 EST 2019
User: vgr7
Spectrometer: USB2G7710
Scans to average: 3
Trigger mode: 4
Integration Time (sec): 2.000000E-2
Electric dark correction enabled: true
Boxcar width: 10
XAxis mode: Wavelengths
Number of Pixels in Spectrum: 2048
>>>>>Begin Spectral Data<<<<<
177.721	-50.16
178.105	-4.94
178.488	-78.08
178.871	-40.97
179.254	-1.11
179.636	59.66
180.019	54.06
180.402	171.43
180.785	26.11
181.168	-41.2
181.55	-257.84
181.933	-35.42
182.316	-42.97
182.698	-11.58
183.081	-9.44
183.463	11.51
183.846	-37.9
184.228	-436.46
184.611	-80.25
184.993	-29.05
185.376	-6.03
185.758	16.02
186.14	28.17
186.522	23.88
186.904	22.92
187.287	43.37
187.669	76.06
188.051	69.54
188.433	87.93
188.815	105.06
189.197	74.44
189.579	93.62
189.961	99.57
190.342	105.27
190.724	56.17
191.106	55.63
191.488	55.72
191.869	87.1
192.251	75.74
192.633	99.65
193.014	101.91
193.396	112.85
193.777	114.02
194.159	109.09
194.54	101.65
194.922	108.37
195.303	90.94
195.684	64.1
196.065	84.21
196.447	71.81
196.828	81.96
197.209	92.05
197.59	86.68
197.971	88.91
198.352	110.68
198.733	123.77
199.114	121.36
199.495	119.85
199.876	74.47
200.257	88.67
200.638	95.52
201.018	93.77
201.399	65.64
201.78	54.57
202.16	59.72
202.541	58.33
202.922	45.98
203.302	59.32
203.683	86.73
204.063	53.95
204.444	44.69
204.824	40.05
205.204	59.99
205.585	65.11
205.965	61.51
206.345	51.04
206.725	53.57
207.106	43.13
207.486	37.01
207.866	59.62
208.246	53.43
208.626	53.02
209.006	42.18
209.386	74.82
209.766	82.16
210.145	74.97
210.525	67.8
210.905	108.79
211.285	89.48
211.664	84.72
212.044	93.3
212.424	98.08
212.803	101.36
213.183	107.67
213.562	95.13
213.942	81.21
214.321	82.77
214.701	87.32
215.08	91.77
215.459	87.85
215.838	84.26
216.218	85.82
216.597	73.31
216.976	104.94
217.355	84.55
217.734	68.78
218.113	76.74
218.492	102.81
218.871	95.2
219.25	107.46
219.629	77.8
220.008	108.98
220.387	115.89
220.766	115.39
221.144	81.45
221.523	72.34
221.902	75.66
222.28	73
222.659	82.28
223.037	101.01
223.416	107.78
223.794	113.71
224.173	112.42
224.551	107.96
224.929	81.54
225.308	73.96
225.686	61.05
226.064	46.94
226.442	34.73
226.821	24.02
227.199	25.4
227.577	27.29
227.955	21.51
228.333	19.7
228.711	16.41
229.089	14.24
229.467	14.66
229.845	11.16
230.222	9.22
230.6	5.62
230.978	2.61
231.356	2.94
231.733	2.97
232.111	1.85
232.488	-0.75
232.866	3.38
233.243	4.73
233.621	6.6
233.998	7.64
234.376	6.62
234.753	8.61
235.13	9.62
235.508	9.52
235.885	10.32
236.262	8.99
236.639	8.43
237.016	9.17
237.393	7.93
237.77	9.71
238.147	8.75
238.524	6.87
238.901	6.72
239.278	6.39
239.655	5.69
240.032	6.52
240.409	7.16
240.785	6.27
241.162	5.93
241.539	5.81
241.915	5.7
242.292	5.94
242.668	5.57
243.045	5.54
243.421	5.44
243.798	5.68
244.174	5.68
244.551	5.65
244.927	5.74
245.303	5.78
245.679	5.68
246.056	5.74
246.432	5.83
246.808	5.86
247.184	5.82
247.56	5.78
247.936	5.84
248.312	5.88
248.688	6.03
249.064	5.98
249.44	6.11
249.815	5.9
250.191	5.85
250.567	6.08
250.943	5.91
251.318	5.65
251.694	5.37
252.069	5.63
252.445	5.89
252.82	6.05
253.196	6.17
253.571	6.27
253.947	6.47
254.322	6.72
254.697	6.36
255.073	6.15
255.448	5.86
255.823	5.5
256.198	5.18
256.573	5.12
256.948	5.25
257.323	4.99
257.698	5
258.073	5.07
258.448	5.03
258.823	4.9
259.198	4.9
259.573	4.82
259.948	4.95
260.322	4.85
260.697	4.63
261.072	4.54
261.446	4.31
261.821	4.08
262.195	3.93
262.57	4.22
262.944	4.22
263.319	4.28
263.693	4.32
264.067	4.2
264.442	4.3
264.816	4.05
265.19	3.96
265.564	3.97
265.938	3.74
266.313	3.66
266.687	3.51
267.061	3.64
267.435	3.74
267.809	3.46
268.183	3.52
268.556	3.55
268.93	3.6
269.304	3.68
269.678	3.81
270.051	3.67
270.425	3.46
270.799	3.65
271.172	3.73
271.546	3.78
271.919	3.87
272.293	3.87
272.666	4.15
273.04	4.29
273.413	4.32
273.787	4.53
274.16	4.47
274.533	4.56
274.906	4.67
275.279	4.72
275.653	4.81
276.026	4.87
276.399	4.82
276.772	5
277.145	5.18
277.518	5.22
277.891	5.41
278.263	5.62
278.636	5.53
279.009	5.55
279.382	5.52
279.755	5.51
280.127	5.29
280.5	5.18
280.872	5.24
281.245	5.33
281.617	5.08
281.99	5.12
282.362	5.18
282.735	5.02
283.107	4.79
283.479	4.73
283.852	4.68
284.224	4.77
284.596	4.66
284.968	4.44
285.34	4.39
285.713	4.44
286.085	4.27
286.457	4.3
286.829	4.22
287.201	4.2
287.572	4.3
287.944	4.23
288.316	4.28
288.688	4.26
289.06	4.25
289.431	4.49
289.803	4.54
290.175	4.54
290.546	4.48
290.918	4.48
291.289	4.44
291.661	4.51
292.032	4.47
292.403	4.43
292.775	4.46
293.146	4.61
293.517	4.51
293.889	4.63
294.26	4.62
294.631	4.6
295.002	4.62
295.373	4.62
295.744	4.67
296.115	4.6
296.486	4.63
296.857	4.63
297.228	4.45
297.599	4.33
297.97	4.31
298.34	4.5
298.711	4.71
299.082	4.77
299.452	4.64
299.823	4.72
300.194	4.83
300.564	4.91
300.935	4.85
301.305	4.84
301.676	4.65
302.046	4.76
302.416	4.78
302.787	4.67
303.157	4.59
303.527	4.68
303.897	4.56
304.267	4.48
304.637	4.51
305.008	4.52
305.378	4.61
305.748	4.63
306.117	4.31
306.487	4.3
306.857	4.28
307.227	4.32
307.597	4.44
307.967	4.24
308.336	4.17
308.706	4.14
309.076	4.2
309.445	4.43
309.815	4.28
310.184	4.31
310.554	4.3
310.923	4.16
311.293	4.13
311.662	4.2
312.031	4.14
312.401	3.96
312.77	4.07
313.139	4
313.508	3.85
313.877	4.09
314.246	4.04
314.616	4.15
314.985	4.11
315.353	3.87
315.722	4.1
316.091	4.19
316.46	4.12
316.829	4.16
317.198	4.01
317.567	4.06
317.935	4.22
318.304	4.58
318.672	4.76
319.041	4.66
319.41	4.72
319.778	4.71
320.147	4.8
320.515	4.6
320.883	4.55
321.252	4.79
321.62	4.53
321.988	4.43
322.357	4.37
322.725	4.4
323.093	4.43
323.461	4.38
323.829	4.19
324.197	4.27
324.565	4.16
324.933	4.16
325.301	4.17
325.669	3.92
326.037	3.71
326.405	3.62
326.772	3.72
327.14	3.71
327.508	3.72
327.875	3.76
328.243	3.83
328.61	3.9
328.978	3.82
329.346	3.96
329.713	4.12
330.08	4.14
330.448	4.15
330.815	4.16
331.182	4.1
331.55	4.23
331.917	4.23
332.284	4.27
332.651	4.34
333.018	4.37
333.385	4.43
333.752	4.45
334.119	4.63
334.486	4.62
334.853	4.57
335.22	4.55
335.587	4.5
335.954	4.54
336.32	4.5
336.687	4.56
337.054	4.44
337.42	4.25
337.787	4.22
338.153	4.35
338.52	4.42
338.886	4.37
339.253	4.33
339.619	4.32
339.986	4.37
340.352	4.28
340.718	4.21
341.084	4.28
341.451	4.2
341.817	4.19
342.183	4.22
342.549	4.27
342.915	4.23
343.281	4.3
343.647	4.16
344.013	4.23
344.379	4.15
344.745	4.07
345.11	4.12
345.476	4.15
345.842	3.96
346.208	3.9
346.573	3.89
346.939	3.98
347.304	3.95
347.67	3.91
348.035	3.91
348.401	3.89
348.766	3.86
349.132	3.97
349.497	3.88
349.862	3.85
350.228	3.82
350.593	3.79
350.958	3.7
351.323	3.75
351.688	3.79
352.053	3.85
352.418	3.99
352.783	3.96
353.148	3.87
353.513	3.9
353.878	3.84
354.243	3.82
354.608	3.78
354.972	3.79
355.337	3.81
355.702	3.78
356.066	3.78
356.431	3.75
356.795	3.69
357.16	3.59
357.524	3.59
357.889	3.58
358.253	3.58
358.618	3.63
358.982	3.65
359.346	3.58
359.71	3.56
360.075	3.57
360.439	3.64
360.803	3.66
361.167	3.78
361.531	3.83
361.895	3.89
362.259	3.87
362.623	3.87
362.987	3.83
363.351	3.86
363.714	3.88
364.078	3.92
364.442	3.88
364.806	3.96
365.169	4.02
365.533	4.06
365.896	4.17
366.26	4.11
366.623	4.17
366.987	4.21
367.35	4.23
367.714	4.23
368.077	4.2
368.44	4.3
368.803	4.19
369.167	4.1
369.53	4.09
369.893	4.1
370.256	4.06
370.619	4.04
370.982	4.04
371.345	4.07
371.708	4.07
372.071	4.01
372.434	4.06
372.797	4.01
373.159	3.95
373.522	3.83
373.885	3.84
374.247	3.84
374.61	3.84
374.973	3.77
375.335	3.76
375.698	3.76
376.06	3.64
376.423	3.69
376.785	3.74
377.147	3.67
377.51	3.65
377.872	3.65
378.234	3.65
378.596	3.62
378.958	3.57
379.321	3.61
379.683	3.69
380.045	3.63
380.407	3.6
380.769	3.59
381.13	3.65
381.492	3.64
381.854	3.6
382.216	3.61
382.578	3.61
382.939	3.62
383.301	3.58
383.663	3.55
384.024	3.45
384.386	3.48
384.747	3.45
385.109	3.44
385.47	3.48
385.832	3.48
386.193	3.49
386.554	3.48
386.916	3.36
387.277	3.32
387.638	3.31
387.999	3.27
388.36	3.31
388.721	3.29
389.082	3.29
389.443	3.33
389.804	3.28
390.165	3.29
390.526	3.3
390.887	3.32
391.248	3.38
391.609	3.46
391.969	3.47
392.33	3.51
392.691	3.49
393.051	3.48
393.412	3.5
393.772	3.53
394.133	3.52
394.493	3.55
394.854	3.62
395.214	3.62
395.574	3.67
395.935	3.69
396.295	3.67
396.655	3.67
397.015	3.61
397.376	3.58
397.736	3.59
398.096	3.59
398.456	3.56
398.816	3.52
399.176	3.44
399.535	3.4
399.895	3.37
400.255	3.41
400.615	3.4
400.975	3.38
401.334	3.37
401.694	3.39
402.054	3.43
402.413	3.4
402.773	3.4
403.132	3.42
403.492	3.4
403.851	3.43
404.211	3.42
404.57	3.43
404.929	3.48
405.288	3.5
405.648	3.49
406.007	3.51
406.366	3.53
406.725	3.57
407.084	3.57
407.443	3.6
407.802	3.56
408.161	3.57
408.52	3.58
408.879	3.58
409.238	3.58
409.596	3.56
409.955	3.53
410.314	3.56
410.673	3.52
411.031	3.51
411.39	3.52
411.748	3.51
412.107	3.48
412.465	3.46
412.824	3.43
413.182	3.41
413.54	3.36
413.899	3.34
414.257	3.36
414.615	3.35
414.974	3.34
415.332	3.36
415.69	3.34
416.048	3.3
416.406	3.28
416.764	3.28
417.122	3.27
417.48	3.28
417.838	3.28
418.195	3.28
418.553	3.27
418.911	3.26
419.269	3.27
419.626	3.28
419.984	3.29
420.342	3.28
420.699	3.29
421.057	3.3
421.414	3.3
421.772	3.29
422.129	3.3
422.486	3.31
422.844	3.3
423.201	3.31
423.558	3.32
423.915	3.34
424.273	3.33
424.63	3.33
424.987	3.35
425.344	3.34
425.701	3.36
426.058	3.37
426.415	3.36
426.772	3.36
427.128	3.37
427.485	3.36
427.842	3.34
428.199	3.35
428.555	3.34
428.912	3.34
429.269	3.32
429.625	3.33
429.982	3.32
430.338	3.32
430.695	3.3
431.051	3.32
431.407	3.32
431.764	3.33
432.12	3.35
432.476	3.31
432.832	3.32
433.189	3.29
433.545	3.29
433.901	3.31
434.257	3.3
434.613	3.28
434.969	3.28
435.325	3.3
435.681	3.29
436.036	3.28
436.392	3.31
436.748	3.32
437.104	3.31
437.459	3.32
437.815	3.33
438.171	3.34
438.526	3.31
438.882	3.3
439.237	3.3
439.593	3.28
439.948	3.3
440.304	3.29
440.659	3.3
441.014	3.31
441.369	3.29
441.725	3.3
442.08	3.3
442.435	3.31
442.79	3.31
443.145	3.3
443.5	3.31
443.855	3.31
444.21	3.3
444.565	3.3
444.92	3.29
445.275	3.29
445.629	3.29
445.984	3.31
446.339	3.31
446.693	3.32
447.048	3.31
447.403	3.31
447.757	3.32
448.112	3.32
448.466	3.31
448.82	3.32
449.175	3.31
449.529	3.32
449.883	3.31
450.238	3.31
450.592	3.32
450.946	3.32
451.3	3.33
451.654	3.33
452.008	3.33
452.362	3.31
452.716	3.3
453.07	3.29
453.424	3.27
453.778	3.27
454.132	3.24
454.486	3.26
454.839	3.25
455.193	3.27
455.547	3.26
455.9	3.29
456.254	3.28
456.607	3.29
456.961	3.3
457.314	3.3
457.668	3.32
458.021	3.32
458.375	3.3
458.728	3.28
459.081	3.29
459.434	3.28
459.787	3.31
460.141	3.31
460.494	3.33
460.847	3.34
461.2	3.33
461.553	3.35
461.906	3.34
462.259	3.32
462.611	3.31
462.964	3.31
463.317	3.26
463.67	3.27
464.022	3.27
464.375	3.26
464.728	3.23
465.08	3.23
465.433	3.23
465.785	3.24
466.138	3.27
466.49	3.26
466.843	3.27
467.195	3.26
467.547	3.27
467.899	3.26
468.252	3.27
468.604	3.27
468.956	3.27
469.308	3.26
469.66	3.29
470.012	3.3
470.364	3.31
470.716	3.34
471.068	3.33
471.42	3.34
471.772	3.33
472.123	3.35
472.475	3.35
472.827	3.35
473.178	3.38
473.53	3.37
473.882	3.39
474.233	3.38
474.585	3.39
474.936	3.37
475.288	3.37
475.639	3.37
475.99	3.35
476.342	3.35
476.693	3.34
477.044	3.34
477.395	3.33
477.746	3.33
478.097	3.33
478.448	3.34
478.8	3.33
479.15	3.35
479.501	3.35
479.852	3.35
480.203	3.34
480.554	3.34
480.905	3.34
481.255	3.35
481.606	3.36
481.957	3.34
482.307	3.35
482.658	3.36
483.009	3.36
483.359	3.37
483.709	3.36
484.06	3.37
484.41	3.36
484.761	3.37
485.111	3.37
485.461	3.38
485.811	3.38
486.162	3.38
486.512	3.36
486.862	3.37
487.212	3.37
487.562	3.37
487.912	3.37
488.262	3.37
488.612	3.36
488.961	3.37
489.311	3.37
489.661	3.37
490.011	3.35
490.36	3.34
490.71	3.34
491.06	3.35
491.409	3.34
491.759	3.36
492.108	3.34
492.458	3.33
492.807	3.33
493.157	3.33
493.506	3.33
493.855	3.35
494.204	3.34
494.554	3.33
494.903	3.35
495.252	3.33
495.601	3.34
495.95	3.35
496.299	3.34
496.648	3.36
496.997	3.36
497.346	3.39
497.695	3.39
498.043	3.42
498.392	3.42
498.741	3.42
499.09	3.42
499.438	3.43
499.787	3.43
500.135	3.44
500.484	3.44
500.832	3.44
501.181	3.44
501.529	3.45
501.878	3.48
502.226	3.47
502.574	3.49
502.923	3.49
503.271	3.48
503.619	3.47
503.967	3.46
504.315	3.47
504.663	3.44
505.011	3.44
505.359	3.43
505.707	3.44
506.055	3.45
506.403	3.45
506.751	3.46
507.098	3.48
507.446	3.48
507.794	3.48
508.141	3.48
508.489	3.48
508.837	3.47
509.184	3.47
509.531	3.47
509.879	3.47
510.226	3.46
510.574	3.45
510.921	3.47
511.268	3.48
511.616	3.5
511.963	3.51
512.31	3.51
512.657	3.52
513.004	3.51
513.351	3.53
513.698	3.52
514.045	3.5
514.392	3.5
514.739	3.47
515.086	3.47
515.432	3.48
515.779	3.48
516.126	3.49
516.473	3.5
516.819	3.49
517.166	3.5
517.512	3.51
517.859	3.52
518.205	3.5
518.552	3.49
518.898	3.48
519.245	3.48
519.591	3.49
519.937	3.47
520.283	3.5
520.629	3.49
520.976	3.51
521.322	3.53
521.668	3.54
522.014	3.56
522.36	3.56
522.706	3.56
523.052	3.57
523.398	3.57
523.743	3.6
524.089	3.61
524.435	3.59
524.781	3.6
525.126	3.59
525.472	3.62
525.817	3.61
526.163	3.62
526.509	3.63
526.854	3.62
527.199	3.64
527.545	3.62
527.89	3.62
528.235	3.63
528.581	3.64
528.926	3.63
529.271	3.64
529.616	3.65
529.961	3.64
530.306	3.64
530.651	3.64
530.996	3.64
531.341	3.63
531.686	3.63
532.031	3.63
532.376	3.64
532.721	3.64
533.065	3.65
533.41	3.65
533.755	3.65
534.099	3.66
534.444	3.66
534.788	3.67
535.133	3.67
535.477	3.67
535.822	3.66
536.166	3.65
536.51	3.63
536.855	3.64
537.199	3.66
537.543	3.67
537.887	3.68
538.231	3.68
538.576	3.67
538.92	3.69
539.264	3.67
539.608	3.67
539.951	3.64
540.295	3.64
540.639	3.65
540.983	3.66
541.327	3.67
541.671	3.67
542.014	3.68
542.358	3.69
542.701	3.69
543.045	3.7
543.389	3.73
543.732	3.72
544.075	3.72
544.419	3.73
544.762	3.75
545.105	3.74
545.449	3.73
545.792	3.74
546.135	3.74
546.478	3.78
546.821	3.79
547.165	3.83
547.508	3.84
547.851	3.83
548.194	3.81
548.536	3.8
548.879	3.81
549.222	3.78
549.565	3.75
549.908	3.75
550.25	3.74
550.593	3.73
550.936	3.75
551.278	3.74
551.621	3.71
551.963	3.69
552.306	3.73
552.648	3.76
552.991	3.76
553.333	3.76
553.675	3.75
554.017	3.73
554.36	3.75
554.702	3.79
555.044	3.79
555.386	3.8
555.728	3.8
556.07	3.8
556.412	3.82
556.754	3.86
557.096	3.86
557.438	3.87
557.78	3.87
558.121	3.87
558.463	3.87
558.805	3.89
559.147	3.91
559.488	3.88
559.83	3.86
560.171	3.85
560.513	3.87
560.854	3.92
561.196	3.94
561.537	3.91
561.878	3.89
562.22	3.9
562.561	3.9
562.902	3.9
563.243	3.89
563.584	3.88
563.925	3.85
564.266	3.84
564.607	3.85
564.948	3.84
565.289	3.83
565.63	3.82
565.971	3.84
566.312	3.82
566.653	3.81
566.993	3.8
567.334	3.82
567.675	3.82
568.015	3.79
568.356	3.76
568.696	3.77
569.037	3.77
569.377	3.74
569.718	3.74
570.058	3.73
570.398	3.75
570.739	3.76
571.079	3.8
571.419	3.83
571.759	3.83
572.099	3.81
572.439	3.85
572.779	3.9
573.119	3.9
573.459	3.89
573.799	3.88
574.139	3.91
574.479	3.91
574.819	3.92
575.158	3.95
575.498	3.97
575.838	3.94
576.177	3.93
576.517	3.97
576.856	3.99
577.196	4.01
577.535	4.01
577.875	3.99
578.214	3.94
578.553	3.89
578.893	3.91
579.232	3.9
579.571	3.87
579.91	3.82
580.25	3.82
580.589	3.86
580.928	3.86
581.267	3.82
581.606	3.75
581.945	3.75
582.283	3.72
582.622	3.67
582.961	3.73
583.3	3.7
583.639	3.67
583.977	3.69
584.316	3.66
584.654	3.68
584.993	3.71
585.332	3.71
585.67	3.75
586.008	3.75
586.347	3.82
586.685	3.81
587.024	3.78
587.362	3.78
587.7	3.78
588.038	3.81
588.376	3.84
588.715	3.88
589.053	3.89
589.391	3.91
589.729	3.92
590.067	3.89
590.404	3.9
590.742	3.91
591.08	3.94
591.418	3.98
591.756	3.97
592.093	3.96
592.431	3.97
592.769	3.99
593.106	4.02
593.444	3.97
593.781	4.01
594.119	4.01
594.456	4.01
594.793	3.98
595.131	3.96
595.468	3.96
595.805	3.98
596.143	3.99
596.48	3.97
596.817	4
597.154	4.01
597.491	4.05
597.828	4.09
598.165	4.07
598.502	4.02
598.839	3.99
599.176	4
599.512	4.02
599.849	4.01
600.186	3.96
600.523	3.98
600.859	3.99
601.196	4.06
601.532	4.02
601.869	3.99
602.205	4
602.542	3.99
602.878	4.01
603.215	4.01
603.551	4.02
603.887	4
604.223	3.99
604.56	3.99
604.896	3.96
605.232	3.89
605.568	3.89
605.904	3.88
606.24	3.91
606.576	3.89
606.912	3.91
607.248	3.93
607.583	3.91
607.919	3.88
608.255	3.86
608.591	3.91
608.926	3.93
609.262	3.92
609.597	3.89
609.933	3.84
610.268	3.81
610.604	3.78
610.939	3.79
611.275	3.8
611.61	3.76
611.945	3.71
612.281	3.78
612.616	3.78
612.951	3.84
613.286	3.81
613.621	3.8
613.956	3.81
614.291	3.82
614.626	3.83
614.961	3.83
615.296	3.8
615.631	3.79
615.966	3.82
616.3	3.85
616.635	3.93
616.97	3.95
617.304	3.93
617.639	3.99
617.973	3.95
618.308	3.94
618.642	3.94
618.977	3.98
619.311	3.97
619.646	4.02
619.98	4
620.314	4.01
620.648	4.05
620.983	4.02
621.317	4.01
621.651	3.97
621.985	3.92
622.319	3.97
622.653	3.96
622.987	3.97
623.321	4.01
623.655	3.99
623.988	4.03
624.322	4.04
624.656	4.02
624.99	4.03
625.323	4.05
625.657	4.11
625.99	4.12
626.324	4.11
626.657	4.12
626.991	4.1
627.324	4.08
627.658	4.03
627.991	4.05
628.324	4.04
628.657	4.12
628.991	4.21
629.324	4.15
629.657	4.14
629.99	4.16
630.323	4.13
630.656	4.15
630.989	4.13
631.322	4.15
631.655	4.18
631.987	4.12
632.32	4.11
632.653	4.09
632.986	4.05
633.318	4.07
633.651	4.08
633.984	4.08
634.316	4.09
634.649	4.14
634.981	4.13
635.313	4.16
635.646	4.09
635.978	4.07
636.31	4.15
636.643	4.17
636.975	4.12
637.307	4.04
637.639	3.98
637.971	3.98
638.303	3.99
638.635	4.02
638.967	4.13
639.299	4.14
639.631	4.18
639.963	4.17
640.295	4.17
640.626	4.17
640.958	4.2
641.29	4.24
641.621	4.17
641.953	4.13
642.285	4.13
642.616	4.16
642.948	4.11
643.279	4.03
643.61	4.09
643.942	4.1
644.273	4.22
644.604	4.2
644.936	4.19
645.267	4.24
645.598	4.21
645.929	4.11
646.26	4.07
646.591	4.02
646.922	4.12
647.253	4.05
647.584	3.94
647.915	3.91
648.245	3.93
648.576	4
648.907	4.05
649.238	4.02
649.568	3.97
649.899	4.02
650.229	4.06
650.56	3.97
650.89	3.97
651.221	3.92
651.551	3.93
651.882	3.95
652.212	3.91
652.542	3.91
652.872	3.94
653.203	4.04
653.533	4.1
653.863	4.05
654.193	4.03
654.523	4.01
654.853	4.02
655.183	4.01
655.513	3.98
655.843	3.95
656.172	3.93
656.502	3.97
656.832	3.95
657.162	3.91
657.491	3.97
657.821	3.94
658.15	3.9
658.48	3.95
658.809	3.94
659.139	3.99
659.468	3.93
659.798	4.04
660.127	4.05
660.456	4.02
660.785	4.05
661.115	4.17
661.444	4.27
661.773	4.25
662.102	4.28
662.431	4.36
662.76	4.38
663.089	4.47
663.418	4.54
663.747	4.48
664.076	4.5
664.404	4.51
664.733	4.61
665.062	4.66
665.39	4.68
665.719	4.69
666.048	4.69
666.376	4.73
666.705	4.75
667.033	4.72
667.362	4.71
667.69	4.7
668.018	4.67
668.347	4.6
668.675	4.65
669.003	4.55
669.331	4.48
669.659	4.51
669.987	4.6
670.315	4.55
670.643	4.59
670.971	4.63
671.299	4.63
671.627	4.62
671.955	4.6
672.283	4.62
672.61	4.62
672.938	4.61
673.266	4.51
673.593	4.36
673.921	4.33
674.249	4.35
674.576	4.33
674.904	4.3
675.231	4.39
675.558	4.5
675.886	4.56
676.213	4.48
676.54	4.45
676.867	4.38
677.195	4.38
677.522	4.41
677.849	4.38
678.176	4.34
678.503	4.3
678.83	4.32
679.157	4.27
679.484	4.35
679.81	4.28
680.137	4.35
680.464	4.4
680.791	4.42
681.117	4.41
681.444	4.44
681.771	4.43
682.097	4.44
682.424	4.38
682.75	4.33
683.077	4.35
683.403	4.32
683.729	4.29
684.056	4.19
684.382	4.19
684.708	4.17
685.034	4.24
685.36	4.26
685.686	4.32
686.012	4.3
686.339	4.18
686.664	4.2
686.99	4.19
687.316	4.22
687.642	4.24
687.968	4.31
688.294	4.32
688.619	4.38
688.945	4.35
689.271	4.27
689.596	4.32
689.922	4.37
690.247	4.38
690.573	4.36
690.898	4.53
691.224	4.52
691.549	4.55
691.874	4.48
692.2	4.34
692.525	4.27
692.85	4.34
693.175	4.55
693.5	4.54
693.825	4.51
694.15	4.52
694.475	4.52
694.8	4.43
695.125	4.41
695.45	4.34
695.775	4.31
696.099	4.37
696.424	4.4
696.749	4.39
697.073	4.38
697.398	4.37
697.723	4.3
698.047	4.36
698.372	4.37
698.696	4.39
699.02	4.51
699.345	4.54
699.669	4.62
699.993	4.49
700.318	4.52
700.642	4.54
700.966	4.53
701.29	4.56
701.614	4.6
701.938	4.64
702.262	4.75
702.586	4.85
702.91	4.8
703.234	4.72
703.557	4.87
703.881	4.94
704.205	4.97
704.529	5.01
704.852	4.97
705.176	5.16
705.499	5.19
705.823	5.26
706.146	5.23
706.47	5.14
706.793	5.14
707.117	5.22
707.44	5.35
707.763	5.31
708.086	5.34
708.409	5.22
708.733	5.11
709.056	5.05
709.379	5.13
709.702	5.24
710.025	5.42
710.348	5.34
710.671	5.34
710.993	5.18
711.316	5.15
711.639	5.12
711.962	5.01
712.284	4.9
712.607	4.88
712.93	4.95
713.252	4.91
713.575	4.91
713.897	4.89
714.22	4.85
714.542	4.8
714.864	4.68
715.187	4.82
715.509	4.81
715.831	4.92
716.153	4.75
716.475	4.76
716.798	4.74
717.12	4.71
717.442	4.71
717.764	4.85
718.085	4.88
718.407	4.79
718.729	4.69
719.051	4.84
719.373	4.76
719.695	4.77
720.016	4.7
720.338	4.88
720.659	4.86
720.981	5
721.302	5.23
721.624	5.12
721.945	5.09
722.267	5.2
722.588	5.01
722.909	5.11
723.231	4.9
723.552	4.81
723.873	4.87
724.194	5.05
724.515	4.94
724.836	4.83
725.157	5.06
725.478	5.18
725.799	5.15
726.12	5.19
726.441	5.06
726.762	5.13
727.083	5.08
727.403	5.08
727.724	5.04
728.045	4.98
728.365	4.92
728.686	4.96
729.006	4.98
729.327	5.05
729.647	4.96
729.967	5.07
730.288	5.29
730.608	5.15
730.928	5.08
731.249	5.35
731.569	5.51
731.889	5.47
732.209	5.31
732.529	5.34
732.849	5.34
733.169	5.37
733.489	5.3
733.809	5.19
734.129	5.2
734.448	5.25
734.768	5.27
735.088	5.33
735.408	5.43
735.727	5.38
736.047	5.34
736.366	5.37
736.686	5.37
737.005	5.14
737.325	5.28
737.644	5.05
737.963	4.8
738.283	4.68
738.602	4.73
738.921	4.9
739.24	4.8
739.56	4.84
739.879	4.86
740.198	5.05
740.517	5.06
740.836	4.85
741.155	4.84
741.473	4.74
741.792	4.89
742.111	4.83
742.43	5.06
742.748	5.16
743.067	5.09
743.386	5.03
743.704	5.15
744.023	5.41
744.341	5.8
744.66	5.82
744.978	5.73
745.297	5.76
745.615	5.59
745.933	5.91
746.252	5.9
746.57	6.18
746.888	6.26
747.206	6.23
747.524	6.37
747.842	6.2
748.16	6.45
748.478	6.56
748.796	6.64
749.114	6.53
749.432	6.39
749.749	6.52
750.067	6.59
750.385	6.56
750.703	6.05
751.02	5.93
751.338	5.98
751.655	6.19
751.973	6.24
752.29	6.34
752.608	6.14
752.925	5.77
753.242	5.64
753.56	5.13
753.877	5.02
754.194	5.02
754.511	5.02
754.828	4.71
755.145	4.75
755.462	4.7
755.779	4.47
756.096	4.6
756.413	4.52
756.73	4.56
757.047	4.59
757.364	4.85
757.68	4.71
757.997	4.81
758.314	5.06
758.63	4.95
758.947	4.95
759.264	4.97
759.58	5.29
759.896	5.24
760.213	5.74
760.529	5.99
760.846	5.97
761.162	5.79
761.478	5.77
761.794	5.7
762.11	5.78
762.426	5.81
762.743	5.74
763.059	5.87
763.375	5.92
763.69	5.88
764.006	5.88
764.322	6.03
764.638	6.1
764.954	6
765.27	5.9
765.585	6.19
765.901	6.27
766.216	6.54
766.532	6.35
766.848	6.38
767.163	6.38
767.478	6.22
767.794	6.52
768.109	6.84
768.424	6.58
768.74	6.33
769.055	6.54
769.37	6.62
769.685	6.67
770	6.73
770.315	6.8
770.63	7.01
770.945	7
771.26	6.65
771.575	6.54
771.89	6.64
772.205	5.97
772.52	5.94
772.834	5.58
773.149	5.79
773.464	5.9
773.778	5.65
774.093	6.05
774.407	6.07
774.722	5.64
775.036	6.15
775.351	6.48
775.665	6.56
775.979	6.77
776.293	6.96
776.608	6.64
776.922	6.3
777.236	5.87
777.55	5.79
777.864	6.01
778.178	5.91
778.492	6.31
778.806	7.08
779.12	6.97
779.434	6.89
779.747	7.08
780.061	6.55
780.375	6.45
780.689	6.67
781.002	6.74
781.316	6.95
781.629	6.71
781.943	6.79
782.256	6.36
782.57	6.36
782.883	6.44
783.196	6.69
783.51	7.47
783.823	7.41
784.136	7.43
784.449	7.61
784.762	7.71
785.075	7.48
785.388	7.32
785.701	7.5
786.014	7.79
786.327	7.77
786.64	8.04
786.953	8.56
787.266	8.25
787.578	8.22
787.891	8.85
788.204	8.96
788.516	8.7
788.829	8.52
789.141	8.42
789.454	8.08
789.766	8.07
790.079	7.31
790.391	7.76
790.703	7.76
791.016	7.61
791.328	7.54
791.64	7.78
791.952	7.6
792.264	7.31
792.576	7.11
792.888	7.18
793.2	7.43
793.512	7.4
793.824	7.83
794.136	7.63
794.448	6.79
794.76	6.89
795.071	7.16
795.383	7.74
795.695	7.42
796.006	7.59
796.318	7.67
796.629	7.85
796.941	7.85
797.252	7.69
797.564	7.86
797.875	7.79
798.186	7.56
798.497	7.63
798.809	7.35
799.12	6.92
799.431	6.91
799.742	6.57
800.053	6.3
800.364	6.26
800.675	6.66
800.986	7.14
801.297	7.17
801.608	6.67
801.918	6.54
802.229	6.69
802.54	6.27
802.851	6.16
803.161	6.44
803.472	6.09
803.782	6.27
804.093	6.56
804.403	6.87
804.714	6.73
805.024	6.52
805.334	6.98
805.645	7.43
805.955	7.36
806.265	7.43
806.575	7.55
806.885	7.95
807.195	7.32
807.505	6.7
807.815	6.5
808.125	6.24
808.435	6.25
808.745	6.79
809.055	7.27
809.365	7.97
809.674	8.37
809.984	8.63
810.294	8.5
810.603	8.24
810.913	8.69
811.222	8.73
811.532	9.23
811.841	9.79
812.151	9.76
812.46	9.68
812.769	9.56
813.079	10.02
813.388	9.17
813.697	9.67
814.006	10.48
814.315	10.49
814.624	10.98
814.933	11.03
815.242	11.24
815.551	10.88
815.86	10.51
816.169	9.64
816.478	10.03
816.786	9.85
817.095	10.21
817.404	10.16
817.712	10.44
818.021	10.06
818.33	9.55
818.638	9.47
818.947	9.17
819.255	9.17
819.563	8.43
819.872	8.28
820.18	7.9
820.488	7.49
820.796	7.36
821.105	7.43
821.413	7.32
821.721	7.06
822.029	7.06
822.337	6.82
822.645	6.98
822.953	6.85
823.26	7.07
823.568	6.83
823.876	6.72
824.184	6.71
824.491	6.57
824.799	6.57
825.107	6.53
825.414	6.64
825.722	6.64
826.029	6.85
826.337	6.88
826.644	6.89
826.951	7.14
827.259	7.37
827.566	7.2
827.873	7.29
828.18	7.2
828.488	7.28
828.795	7.76
829.102	7.63
829.409	7.66
829.716	7.52
830.023	7.74
830.329	7.87
830.636	7.65
830.943	7.67
831.25	7.9
831.557	7.97
831.863	8.12
832.17	8.14
832.476	7.85
832.783	7.96
833.089	8.06
833.396	8.16
833.702	7.69
834.009	7.9
834.315	7.82
834.621	8.21
834.928	8.3
835.234	8.03
835.54	8.42
835.846	8.97
836.152	9.21
836.458	9.54
836.764	9.92
837.07	10
837.376	10.66
837.682	10.61
837.988	10.58
838.293	10.73
838.599	10.65
838.905	10.97
839.211	10.94
839.516	10.99
839.822	10.66
840.127	10.46
840.433	10.77
840.738	10.78
841.044	11.14
841.349	11.55
841.654	10.3
841.959	10.35
842.265	9.34
842.57	8.89
842.875	9.55
843.18	7.79
843.485	8.58
843.79	8.74
844.095	9.53
844.4	10.26
844.705	9.33
845.01	9.73
845.315	9.91
845.619	9.61
845.924	10.63
846.229	10.76
846.533	11.09
846.838	11.61
847.142	11.77
847.447	11.15
847.751	10.86
848.056	13.62
848.36	12.66
848.664	12.7
848.969	12.32
849.273	9.23
849.577	9.85
849.881	9.65
850.185	8.73
850.489	9.05
850.794	8.86
851.097	10.19
851.401	8.43
851.705	8.82
852.009	9.79
852.313	7.03
852.617	6.77
852.92	8.76
853.224	9.13
853.528	10.43
853.831	9.75
854.135	9.9
854.438	8.58
854.742	9.87
855.045	10.16
855.349	9.86
855.652	12.37
855.955	11.17
856.259	10.9
856.562	11.4
856.865	10.19
857.168	10.04
857.471	11.16
857.774	14.12
858.077	13.57
858.38	13.45
858.683	16.56
858.986	16.43
859.289	16.7
859.592	15.72
859.894	13.43
860.197	14.51
860.5	13.67
860.802	14.6
861.105	15.11
861.407	15.01
861.71	13.7
862.012	13.99
862.315	16.47
862.617	15.89
862.919	14.89
863.222	15.42
863.524	16.83
863.826	16.32
864.128	15.76
864.43	17.5
864.732	17.62
865.034	16.46
865.336	17.12
865.638	17.4
865.94	18.24
866.242	18.69
866.544	20.8
866.846	20.12
867.147	22.28
867.449	20.26
867.751	21.9
868.052	22.54
868.354	24.06
868.655	25
868.957	28.15
869.258	29.43
869.56	27.18
869.861	26.27
870.162	27.28
870.463	26.22
870.765	25.09
871.066	24.89
871.367	26.74
871.668	26.91
871.969	25.78
872.27	24.93
872.571	27.59
872.872	25.55
873.173	25.67
873.473	20.14
873.774	22.07
874.075	21.52
874.376	22.53
874.676	21.13
874.977	19.54
875.277	17.74
875.578	15.61
875.878	17.16
876.179	17.16
876.479	14.44
876.78	15.39
877.08	14.98
877.38	14.83
877.68	12.89
877.981	12.27
878.281	13.53
878.581	14.11
