Data from BU57737_Reflection_00001.txt Node
Date: Mon Nov 18 16:29:35 EST 2019
User: vgr7
Spectrometer: USB2G7710
Scans to average: 3
Trigger mode: 4
Integration Time (sec): 2.000000E-2
Electric dark correction enabled: true
Boxcar width: 10
XAxis mode: Wavelengths
Number of Pixels in Spectrum: 2048
>>>>>Begin Spectral Data<<<<<
177.721	254.04
178.105	-963.49
178.488	-144.71
178.871	-112.12
179.254	3.68
179.636	-56.46
180.019	-34.65
180.402	53.85
180.785	112.87
181.168	-530.95
181.55	69.97
181.933	77.94
182.316	63.1
182.698	80.56
183.081	102.12
183.463	85.57
183.846	38.45
184.228	39.66
184.611	43.78
184.993	11.74
185.376	-11.35
185.758	-3.04
186.14	32.61
186.522	62.42
186.904	82.11
187.287	91.76
187.669	124.4
188.051	175.51
188.433	259.11
188.815	279.81
189.197	189.57
189.579	170.03
189.961	389
190.342	524.95
190.724	593.44
191.106	-3320.29
191.488	80766.67
191.869	-282.32
192.251	-374.96
192.633	-244.95
193.014	-140.77
193.396	-154.4
193.777	-104.49
194.159	-84.69
194.54	-27.34
194.922	-7.99
195.303	-1.79
195.684	14.67
196.065	29.3
196.447	30.31
196.828	27.14
197.209	19.68
197.59	12.02
197.971	9.63
198.352	24.03
198.733	28.47
199.114	38.23
199.495	59.14
199.876	58.58
200.257	64.29
200.638	73.68
201.018	81.41
201.399	86.76
201.78	64.12
202.16	49.09
202.541	32.17
202.922	49.64
203.302	36.85
203.683	-0.76
204.063	-29.56
204.444	-140.9
204.824	-83.51
205.204	-36.75
205.585	-81.6
205.965	-58.92
206.345	-145.31
206.725	-226.88
207.106	-215.99
207.486	-217.32
207.866	-480.86
208.246	2524.24
208.626	10322.22
209.006	9.91
209.386	559.26
209.766	47.99
210.145	-165.37
210.525	91.5
210.905	84.98
211.285	59.91
211.664	70.47
212.044	75.7
212.424	80.34
212.803	97.11
213.183	85.46
213.562	97.58
213.942	127.27
214.321	78.36
214.701	54.97
215.08	47.13
215.459	47.91
215.838	41.82
216.218	18.86
216.597	20.9
216.976	11.57
217.355	18.81
217.734	13.96
218.113	11.18
218.492	7.99
218.871	8.07
219.25	1.56
219.629	1.57
220.008	-6.35
220.387	-10.14
220.766	-3.31
221.144	-9.65
221.523	-34.61
221.902	-46.79
222.28	-54.3
222.659	-42.34
223.037	-25.83
223.416	-41.22
223.794	-39.98
224.173	-16.35
224.551	-11.87
224.929	-11.77
225.308	-8.38
225.686	-1.94
226.064	1.13
226.442	-0.34
226.821	-2.14
227.199	1.19
227.577	-2.08
227.955	-3.51
228.333	-3.45
228.711	-6.09
229.089	-2.03
229.467	-1
229.845	2.05
230.222	1.27
230.6	1.1
230.978	-0.12
231.356	2.6
231.733	2.36
232.111	1.16
232.488	0.4
232.866	0.36
233.243	1.06
233.621	0.34
233.998	1.64
234.376	1.46
234.753	1.38
235.13	0.31
235.508	1.8
235.885	1.84
236.262	0.77
236.639	4.12
237.016	2.59
237.393	2.07
237.77	2.47
238.147	2.52
238.524	2.34
238.901	2.29
239.278	1.82
239.655	2.51
240.032	3.12
240.409	2.82
240.785	2.48
241.162	2.1
241.539	2.27
241.915	1.94
242.292	1.61
242.668	2.19
243.045	2.6
243.421	2.38
243.798	2.49
244.174	2.56
244.551	2.1
244.927	2.15
245.303	2.9
245.679	2.76
246.056	2.82
246.432	2.98
246.808	3.1
247.184	2.94
247.56	2.86
247.936	2.75
248.312	2.88
248.688	3.15
249.064	3.17
249.44	3.15
249.815	3.15
250.191	3.5
250.567	3.37
250.943	3.26
251.318	3.33
251.694	3.41
252.069	3.39
252.445	3.39
252.82	3.56
253.196	3.21
253.571	3.58
253.947	3.7
254.322	3.69
254.697	3.69
255.073	3.8
255.448	3.62
255.823	3.39
256.198	3.69
256.573	3.57
256.948	3.63
257.323	3.67
257.698	3.57
258.073	3.38
258.448	3.18
258.823	3.36
259.198	3.36
259.573	3.38
259.948	3.41
260.322	3.51
260.697	3.39
261.072	3.34
261.446	3.38
261.821	3.29
262.195	3.33
262.57	3.25
262.944	3.19
263.319	3.22
263.693	3.24
264.067	3.21
264.442	3.32
264.816	3.38
265.19	3.05
265.564	3.14
265.938	3.11
266.313	3.14
266.687	3.13
267.061	3.29
267.435	3.3
267.809	3.17
268.183	3.24
268.556	3.2
268.93	3.47
269.304	3.33
269.678	3.32
270.051	3.4
270.425	3.38
270.799	3.44
271.172	3.51
271.546	3.7
271.919	3.52
272.293	3.38
272.666	3.43
273.04	3.66
273.413	3.6
273.787	3.67
274.16	3.75
274.533	3.55
274.906	3.29
275.279	3.29
275.653	3.3
276.026	3.35
276.399	3.44
276.772	3.27
277.145	3.27
277.518	3.36
277.891	3.21
278.263	3.21
278.636	3.17
279.009	3.14
279.382	3.06
279.755	2.95
280.127	3.02
280.5	2.82
280.872	2.82
281.245	2.87
281.617	2.96
281.99	3.06
282.362	3.16
282.735	3.28
283.107	3.25
283.479	3.31
283.852	3.26
284.224	3.25
284.596	3.08
284.968	3.07
285.34	2.96
285.713	2.9
286.085	2.83
286.457	2.81
286.829	2.81
287.201	2.83
287.572	2.9
287.944	2.81
288.316	2.92
288.688	2.83
289.06	2.79
289.431	2.77
289.803	2.66
290.175	2.69
290.546	2.71
290.918	2.78
291.289	2.82
291.661	2.81
292.032	2.89
292.403	3.09
292.775	3.08
293.146	3.07
293.517	3.11
293.889	3.23
294.26	3.27
294.631	3.25
295.002	3.23
295.373	3.28
295.744	3.3
296.115	3.36
296.486	3.5
296.857	3.63
297.228	3.72
297.599	3.8
297.97	3.87
298.34	3.86
298.711	3.86
299.082	3.94
299.452	3.92
299.823	3.89
300.194	3.81
300.564	3.84
300.935	3.88
301.305	3.93
301.676	4.01
302.046	4.03
302.416	4.16
302.787	4.25
303.157	4.25
303.527	4.31
303.897	4.22
304.267	4.28
304.637	4.2
305.008	4.19
305.378	4.32
305.748	4.2
306.117	4.06
306.487	3.87
306.857	3.76
307.227	3.85
307.597	3.83
307.967	3.82
308.336	3.92
308.706	4.09
309.076	4.08
309.445	3.94
309.815	3.96
310.184	3.7
310.554	3.6
310.923	3.52
311.293	3.53
311.662	3.48
312.031	3.29
312.401	3.23
312.77	3.2
313.139	3.1
313.508	3.18
313.877	3.28
314.246	3.4
314.616	3.43
314.985	3.3
315.353	3.21
315.722	3.25
316.091	3.14
316.46	2.92
316.829	2.95
317.198	3.03
317.567	3.1
317.935	3.33
318.304	3.47
318.672	3.56
319.041	3.7
319.41	3.79
319.778	3.75
320.147	3.82
320.515	3.73
320.883	3.62
321.252	3.78
321.62	3.68
321.988	3.69
322.357	3.66
322.725	3.66
323.093	3.75
323.461	3.75
323.829	3.74
324.197	3.75
324.565	3.72
324.933	3.61
325.301	3.62
325.669	3.64
326.037	3.57
326.405	3.56
326.772	3.42
327.14	3.53
327.508	3.73
327.875	3.69
328.243	3.76
328.61	3.75
328.978	3.53
329.346	3.7
329.713	3.59
330.08	3.65
330.448	3.59
330.815	3.59
331.182	3.59
331.55	3.6
331.917	3.61
332.284	3.72
332.651	3.82
333.018	3.69
333.385	3.65
333.752	3.67
334.119	3.72
334.486	3.67
334.853	3.64
335.22	3.53
335.587	3.54
335.954	3.48
336.32	3.61
336.687	3.67
337.054	3.63
337.42	3.74
337.787	3.64
338.153	3.63
338.52	3.66
338.886	3.59
339.253	3.5
339.619	3.59
339.986	3.56
340.352	3.52
340.718	3.55
341.084	3.48
341.451	3.54
341.817	3.67
342.183	3.75
342.549	3.55
342.915	3.61
343.281	3.59
343.647	3.56
344.013	3.47
344.379	3.43
344.745	3.32
345.11	3.27
345.476	3.27
345.842	3.34
346.208	3.25
346.573	3.32
346.939	3.46
347.304	3.37
347.67	3.29
348.035	3.28
348.401	3.3
348.766	3.42
349.132	3.36
349.497	3.18
349.862	3.17
350.228	3.28
350.593	3.22
350.958	3.21
351.323	3.27
351.688	3.35
352.053	3.33
352.418	3.47
352.783	3.46
353.148	3.46
353.513	3.47
353.878	3.57
354.243	3.62
354.608	3.57
354.972	3.58
355.337	3.7
355.702	3.79
356.066	3.8
356.431	3.79
356.795	3.79
357.16	3.77
357.524	3.75
357.889	3.68
358.253	3.69
358.618	3.7
358.982	3.63
359.346	3.59
359.71	3.68
360.075	3.65
360.439	3.74
360.803	3.77
361.167	3.75
361.531	3.66
361.895	3.61
362.259	3.57
362.623	3.6
362.987	3.49
363.351	3.46
363.714	3.5
364.078	3.45
364.442	3.42
364.806	3.42
365.169	3.41
365.533	3.46
365.896	3.44
366.26	3.47
366.623	3.51
366.987	3.49
367.35	3.4
367.714	3.37
368.077	3.26
368.44	3.25
368.803	3.24
369.167	3.24
369.53	3.22
369.893	3.25
370.256	3.23
370.619	3.3
370.982	3.22
371.345	3.17
371.708	3.15
372.071	3.14
372.434	3.2
372.797	3.22
373.159	3.17
373.522	3.18
373.885	3.21
374.247	3.23
374.61	3.24
374.973	3.28
375.335	3.29
375.698	3.31
376.06	3.31
376.423	3.33
376.785	3.32
377.147	3.39
377.51	3.37
377.872	3.41
378.234	3.41
378.596	3.48
378.958	3.48
379.321	3.54
379.683	3.61
380.045	3.63
380.407	3.63
380.769	3.67
381.13	3.66
381.492	3.59
381.854	3.58
382.216	3.56
382.578	3.53
382.939	3.53
383.301	3.55
383.663	3.53
384.024	3.47
384.386	3.53
384.747	3.51
385.109	3.48
385.47	3.46
385.832	3.47
386.193	3.49
386.554	3.46
386.916	3.45
387.277	3.44
387.638	3.42
387.999	3.4
388.36	3.36
388.721	3.33
389.082	3.31
389.443	3.3
389.804	3.29
390.165	3.29
390.526	3.28
390.887	3.27
391.248	3.34
391.609	3.37
391.969	3.36
392.33	3.35
392.691	3.39
393.051	3.38
393.412	3.38
393.772	3.33
394.133	3.31
394.493	3.28
394.854	3.26
395.214	3.22
395.574	3.22
395.935	3.25
396.295	3.32
396.655	3.35
397.015	3.37
397.376	3.38
397.736	3.38
398.096	3.39
398.456	3.35
398.816	3.27
399.176	3.24
399.535	3.21
399.895	3.19
400.255	3.15
400.615	3.16
400.975	3.16
401.334	3.19
401.694	3.2
402.054	3.18
402.413	3.2
402.773	3.2
403.132	3.19
403.492	3.21
403.851	3.16
404.211	3.15
404.57	3.13
404.929	3.14
405.288	3.13
405.648	3.13
406.007	3.14
406.366	3.14
406.725	3.18
407.084	3.21
407.443	3.24
407.802	3.25
408.161	3.22
408.52	3.16
408.879	3.15
409.238	3.16
409.596	3.17
409.955	3.12
410.314	3.16
410.673	3.16
411.031	3.15
411.39	3.16
411.748	3.15
412.107	3.18
412.465	3.16
412.824	3.17
413.182	3.17
413.54	3.19
413.899	3.22
414.257	3.2
414.615	3.16
414.974	3.16
415.332	3.16
415.69	3.17
416.048	3.18
416.406	3.18
416.764	3.17
417.122	3.17
417.48	3.16
417.838	3.14
418.195	3.12
418.553	3.1
418.911	3.08
419.269	3.09
419.626	3.09
419.984	3.07
420.342	3.07
420.699	3.06
421.057	3.04
421.414	3.02
421.772	3.03
422.129	3.04
422.486	3.02
422.844	3.02
423.201	3.01
423.558	3.02
423.915	3
424.273	2.99
424.63	2.98
424.987	2.99
425.344	2.99
425.701	3
426.058	3.01
426.415	3.02
426.772	3.01
427.128	2.99
427.485	3
427.842	2.99
428.199	2.99
428.555	2.98
428.912	3
429.269	2.99
429.625	2.97
429.982	2.97
430.338	2.98
430.695	2.99
431.051	2.97
431.407	2.99
431.764	2.99
432.12	3
432.476	2.99
432.832	2.99
433.189	2.99
433.545	2.98
433.901	2.97
434.257	2.98
434.613	3
434.969	3
435.325	3
435.681	3.01
436.036	3.01
436.392	3.01
436.748	3.01
437.104	3.01
437.459	3
437.815	2.99
438.171	2.98
438.526	3
438.882	2.99
439.237	3
439.593	3
439.948	3
440.304	3
440.659	3.01
441.014	3.02
441.369	3.01
441.725	3
442.08	3
442.435	3
442.79	3.01
443.145	3.02
443.5	3
443.855	3.01
444.21	3.01
444.565	3.04
444.92	3.04
445.275	3.04
445.629	3.04
445.984	3.03
446.339	3.03
446.693	3.02
447.048	3.02
447.403	3.03
447.757	3.01
448.112	3
448.466	2.99
448.82	2.99
449.175	2.99
449.529	2.99
449.883	2.96
450.238	2.96
450.592	2.95
450.946	2.93
451.3	2.92
451.654	2.92
452.008	2.89
452.362	2.87
452.716	2.86
453.07	2.87
453.424	2.86
453.778	2.89
454.132	2.88
454.486	2.86
454.839	2.87
455.193	2.87
455.547	2.88
455.9	2.9
456.254	2.9
456.607	2.89
456.961	2.88
457.314	2.87
457.668	2.87
458.021	2.85
458.375	2.85
458.728	2.84
459.081	2.84
459.434	2.85
459.787	2.87
460.141	2.87
460.494	2.86
460.847	2.88
461.2	2.87
461.553	2.87
461.906	2.88
462.259	2.87
462.611	2.88
462.964	2.89
463.317	2.88
463.67	2.89
464.022	2.89
464.375	2.88
464.728	2.91
465.08	2.91
465.433	2.93
465.785	2.95
466.138	2.97
466.49	2.97
466.843	2.96
467.195	2.95
467.547	2.96
467.899	2.97
468.252	2.95
468.604	2.95
468.956	2.96
469.308	2.96
469.66	2.95
470.012	2.96
470.364	2.94
470.716	2.94
471.068	2.94
471.42	2.96
471.772	2.99
472.123	3
472.475	3.03
472.827	3.02
473.178	3.02
473.53	3.03
473.882	3.03
474.233	3.03
474.585	3.03
474.936	3.03
475.288	3.03
475.639	3.05
475.99	3.05
476.342	3.06
476.693	3.08
477.044	3.1
477.395	3.1
477.746	3.09
478.097	3.09
478.448	3.06
478.8	3.05
479.15	3.03
479.501	3.04
479.852	3.02
480.203	3.02
480.554	3.02
480.905	3.03
481.255	3.02
481.606	3.03
481.957	3.03
482.307	3.03
482.658	3.02
483.009	3.02
483.359	3.02
483.709	3.03
484.06	3.02
484.41	3.02
484.761	3.01
485.111	3.02
485.461	3.02
485.811	3.02
486.162	3.03
486.512	3.04
486.862	3.03
487.212	3.04
487.562	3.05
487.912	3.05
488.262	3.04
488.612	3.04
488.961	3.05
489.311	3.05
489.661	3.05
490.011	3.05
490.36	3.06
490.71	3.05
491.06	3.04
491.409	3.06
491.759	3.06
492.108	3.06
492.458	3.06
492.807	3.06
493.157	3.06
493.506	3.07
493.855	3.07
494.204	3.05
494.554	3.04
494.903	3.01
495.252	3.03
495.601	3.05
495.95	3.07
496.299	3.05
496.648	3.05
496.997	3.04
497.346	3.06
497.695	3.07
498.043	3.08
498.392	3.09
498.741	3.08
499.09	3.1
499.438	3.13
499.787	3.13
500.135	3.13
500.484	3.14
500.832	3.15
501.181	3.16
501.529	3.19
501.878	3.21
502.226	3.24
502.574	3.24
502.923	3.21
503.271	3.22
503.619	3.23
503.967	3.26
504.315	3.25
504.663	3.25
505.011	3.24
505.359	3.23
505.707	3.24
506.055	3.24
506.403	3.25
506.751	3.25
507.098	3.27
507.446	3.28
507.794	3.28
508.141	3.31
508.489	3.32
508.837	3.33
509.184	3.34
509.531	3.35
509.879	3.35
510.226	3.38
510.574	3.39
510.921	3.4
511.268	3.4
511.616	3.42
511.963	3.45
512.31	3.46
512.657	3.46
513.004	3.46
513.351	3.48
513.698	3.48
514.045	3.47
514.392	3.47
514.739	3.49
515.086	3.5
515.432	3.51
515.779	3.51
516.126	3.51
516.473	3.53
516.819	3.53
517.166	3.53
517.512	3.52
517.859	3.52
518.205	3.53
518.552	3.53
518.898	3.54
519.245	3.54
519.591	3.55
519.937	3.57
520.283	3.56
520.629	3.55
520.976	3.56
521.322	3.56
521.668	3.56
522.014	3.55
522.36	3.55
522.706	3.53
523.052	3.53
523.398	3.56
523.743	3.57
524.089	3.58
524.435	3.58
524.781	3.61
525.126	3.62
525.472	3.62
525.817	3.63
526.163	3.62
526.509	3.62
526.854	3.64
527.199	3.64
527.545	3.65
527.89	3.65
528.235	3.66
528.581	3.66
528.926	3.67
529.271	3.68
529.616	3.68
529.961	3.7
530.306	3.7
530.651	3.69
530.996	3.68
531.341	3.68
531.686	3.68
532.031	3.68
532.376	3.69
532.721	3.69
533.065	3.69
533.41	3.7
533.755	3.71
534.099	3.7
534.444	3.7
534.788	3.72
535.133	3.72
535.477	3.72
535.822	3.74
536.166	3.74
536.51	3.74
536.855	3.74
537.199	3.75
537.543	3.75
537.887	3.76
538.231	3.77
538.576	3.75
538.92	3.76
539.264	3.74
539.608	3.74
539.951	3.73
540.295	3.74
540.639	3.73
540.983	3.74
541.327	3.74
541.671	3.73
542.014	3.74
542.358	3.74
542.701	3.74
543.045	3.72
543.389	3.75
543.732	3.75
544.075	3.75
544.419	3.76
544.762	3.76
545.105	3.77
545.449	3.77
545.792	3.78
546.135	3.81
546.478	3.83
546.821	3.83
547.165	3.84
547.508	3.85
547.851	3.86
548.194	3.87
548.536	3.87
548.879	3.91
549.222	3.9
549.565	3.92
549.908	3.92
550.25	3.94
550.593	3.91
550.936	3.92
551.278	3.9
551.621	3.9
551.963	3.93
552.306	3.92
552.648	3.9
552.991	3.95
553.333	3.94
553.675	3.93
554.017	3.94
554.36	3.94
554.702	3.95
555.044	3.96
555.386	3.96
555.728	3.97
556.07	3.96
556.412	3.94
556.754	3.92
557.096	3.94
557.438	3.94
557.78	3.96
558.121	3.94
558.463	3.95
558.805	3.94
559.147	3.92
559.488	3.91
559.83	3.92
560.171	3.89
560.513	3.88
560.854	3.89
561.196	3.88
561.537	3.88
561.878	3.87
562.22	3.87
562.561	3.85
562.902	3.91
563.243	3.89
563.584	3.9
563.925	3.92
564.266	3.89
564.607	3.9
564.948	3.91
565.289	3.92
565.63	3.94
565.971	3.95
566.312	3.94
566.653	3.97
566.993	3.96
567.334	3.95
567.675	3.96
568.015	3.97
568.356	4
568.696	4.01
569.037	4
569.377	4.02
569.718	4.04
570.058	3.98
570.398	4
570.739	4
571.079	4.02
571.419	4.03
571.759	4.02
572.099	3.99
572.439	4
572.779	4
573.119	4.01
573.459	4.05
573.799	4.04
574.139	4.07
574.479	4.06
574.819	4.09
575.158	4.11
575.498	4.1
575.838	4.09
576.177	4.1
576.517	4.06
576.856	4.05
577.196	4.06
577.535	4.06
577.875	4.08
578.214	4.06
578.553	4.1
578.893	4.13
579.232	4.15
579.571	4.16
579.91	4.13
580.25	4.11
580.589	4.11
580.928	4.12
581.267	4.12
581.606	4.12
581.945	4.09
582.283	4.05
582.622	4.05
582.961	4.04
583.3	4.03
583.639	4.09
583.977	4.11
584.316	4.11
584.654	4.12
584.993	4.13
585.332	4.14
585.67	4.11
586.008	4.09
586.347	4.08
586.685	4.07
587.024	4.07
587.362	4.09
587.7	4.06
588.038	4.06
588.376	4.06
588.715	4.08
589.053	4.11
589.391	4.1
589.729	4.11
590.067	4.14
590.404	4.14
590.742	4.1
591.08	4.1
591.418	4.14
591.756	4.14
592.093	4.11
592.431	4.1
592.769	4.11
593.106	4.09
593.444	4.1
593.781	4.11
594.119	4.15
594.456	4.15
594.793	4.16
595.131	4.15
595.468	4.16
595.805	4.18
596.143	4.15
596.48	4.17
596.817	4.17
597.154	4.16
597.491	4.15
597.828	4.16
598.165	4.14
598.502	4.13
598.839	4.13
599.176	4.14
599.512	4.13
599.849	4.15
600.186	4.15
600.523	4.2
600.859	4.2
601.196	4.18
601.532	4.16
601.869	4.16
602.205	4.17
602.542	4.16
602.878	4.16
603.215	4.16
603.551	4.18
603.887	4.15
604.223	4.16
604.56	4.2
604.896	4.19
605.232	4.2
605.568	4.19
605.904	4.17
606.24	4.17
606.576	4.21
606.912	4.17
607.248	4.18
607.583	4.18
607.919	4.14
608.255	4.11
608.591	4.14
608.926	4.11
609.262	4.13
609.597	4.16
609.933	4.13
610.268	4.18
610.604	4.17
610.939	4.2
611.275	4.18
611.61	4.16
611.945	4.19
612.281	4.18
612.616	4.22
612.951	4.24
613.286	4.23
613.621	4.21
613.956	4.23
614.291	4.23
614.626	4.18
614.961	4.19
615.296	4.21
615.631	4.22
615.966	4.27
616.3	4.29
616.635	4.23
616.97	4.27
617.304	4.26
617.639	4.26
617.973	4.23
618.308	4.25
618.642	4.25
618.977	4.21
619.311	4.22
619.646	4.22
619.98	4.23
620.314	4.23
620.648	4.26
620.983	4.26
621.317	4.28
621.651	4.29
621.985	4.34
622.319	4.38
622.653	4.36
622.987	4.32
623.321	4.24
623.655	4.31
623.988	4.34
624.322	4.3
624.656	4.28
624.99	4.29
625.323	4.29
625.657	4.33
625.99	4.35
626.324	4.33
626.657	4.3
626.991	4.31
627.324	4.29
627.658	4.28
627.991	4.31
628.324	4.31
628.657	4.35
628.991	4.31
629.324	4.29
629.657	4.3
629.99	4.33
630.323	4.41
630.656	4.4
630.989	4.38
631.322	4.41
631.655	4.41
631.987	4.45
632.32	4.42
632.653	4.41
632.986	4.41
633.318	4.43
633.651	4.45
633.984	4.43
634.316	4.47
634.649	4.47
634.981	4.5
635.313	4.52
635.646	4.49
635.978	4.47
636.31	4.48
636.643	4.43
636.975	4.44
637.307	4.4
637.639	4.36
637.971	4.39
638.303	4.39
638.635	4.39
638.967	4.36
639.299	4.43
639.631	4.41
639.963	4.4
640.295	4.42
640.626	4.42
640.958	4.42
641.29	4.41
641.621	4.43
641.953	4.36
642.285	4.37
642.616	4.38
642.948	4.42
643.279	4.45
643.61	4.5
643.942	4.51
644.273	4.53
644.604	4.52
644.936	4.47
645.267	4.47
645.598	4.54
645.929	4.59
646.26	4.6
646.591	4.63
646.922	4.63
647.253	4.65
647.584	4.62
647.915	4.66
648.245	4.66
648.576	4.7
648.907	4.7
649.238	4.71
649.568	4.71
649.899	4.7
650.229	4.68
650.56	4.73
650.89	4.77
651.221	4.72
651.551	4.72
651.882	4.73
652.212	4.72
652.542	4.66
652.872	4.59
653.203	4.58
653.533	4.59
653.863	4.56
654.193	4.56
654.523	4.6
654.853	4.55
655.183	4.49
655.513	4.44
655.843	4.43
656.172	4.37
656.502	4.46
656.832	4.51
657.162	4.52
657.491	4.47
657.821	4.44
658.15	4.42
658.48	4.44
658.809	4.42
659.139	4.37
659.468	4.37
659.798	4.39
660.127	4.36
660.456	4.39
660.785	4.41
661.115	4.42
661.444	4.39
661.773	4.41
662.102	4.49
662.431	4.53
662.76	4.54
663.089	4.61
663.418	4.58
663.747	4.56
664.076	4.62
664.404	4.63
664.733	4.64
665.062	4.65
665.39	4.67
665.719	4.63
666.048	4.75
666.376	4.77
666.705	4.85
667.033	4.86
667.362	4.83
667.69	4.89
668.018	4.87
668.347	4.92
668.675	4.96
669.003	4.91
669.331	4.97
669.659	4.98
669.987	4.86
670.315	4.76
670.643	4.72
670.971	4.67
671.299	4.71
671.627	4.72
671.955	4.79
672.283	4.77
672.61	4.85
672.938	4.83
673.266	4.88
673.593	4.96
673.921	4.96
674.249	4.92
674.576	4.81
674.904	4.82
675.231	4.8
675.558	4.8
675.886	4.85
676.213	4.77
676.54	4.83
676.867	4.94
677.195	4.91
677.522	4.98
677.849	4.98
678.176	4.96
678.503	4.91
678.83	4.89
679.157	4.84
679.484	4.83
679.81	4.82
680.137	4.75
680.464	4.65
680.791	4.62
681.117	4.6
681.444	4.72
681.771	4.74
682.097	4.68
682.424	4.71
682.75	4.66
683.077	4.65
683.403	4.62
683.729	4.54
684.056	4.66
684.382	4.61
684.708	4.61
685.034	4.59
685.36	4.59
685.686	4.58
686.012	4.55
686.339	4.62
686.664	4.62
686.99	4.68
687.316	4.68
687.642	4.72
687.968	4.7
688.294	4.74
688.619	4.78
688.945	4.83
689.271	4.78
689.596	4.77
689.922	4.84
690.247	4.85
690.573	4.88
690.898	4.94
691.224	4.98
691.549	5
691.874	5.01
692.2	4.91
692.525	5.09
692.85	5.18
693.175	5.15
693.5	5.1
693.825	5.17
694.15	5.14
694.475	5.09
694.8	5.2
695.125	5.07
695.45	4.97
695.775	5.03
696.099	5
696.424	4.96
696.749	4.86
697.073	4.84
697.398	4.81
697.723	4.77
698.047	4.74
698.372	4.73
698.696	4.67
699.02	4.84
699.345	4.74
699.669	4.86
699.993	4.81
700.318	4.9
700.642	4.89
700.966	4.88
701.29	4.96
701.614	4.94
701.938	4.95
702.262	5.07
702.586	5.03
702.91	5.06
703.234	5.2
703.557	5.25
703.881	5.31
704.205	5.38
704.529	5.35
704.852	5.41
705.176	5.42
705.499	5.55
705.823	5.44
706.146	5.42
706.47	5.28
706.793	5.32
707.117	5.25
707.44	5.07
707.763	5.15
708.086	5.03
708.409	5.02
708.733	5.1
709.056	5.06
709.379	5.21
709.702	5.35
710.025	5.15
710.348	5.14
710.671	5.07
710.993	5.18
711.316	5.18
711.639	5.05
711.962	5.21
712.284	5.19
712.607	5.21
712.93	5.3
713.252	5.39
713.575	5.42
713.897	5.42
714.22	5.51
714.542	5.44
714.864	5.38
715.187	5.44
715.509	5.42
715.831	5.46
716.153	5.42
716.475	5.38
716.798	5.72
717.12	5.67
717.442	5.64
717.764	5.66
718.085	5.64
718.407	5.7
718.729	5.58
719.051	5.65
719.373	5.54
719.695	5.51
720.016	5.5
720.338	5.46
720.659	5.57
720.981	5.55
721.302	5.66
721.624	5.81
721.945	5.75
722.267	5.82
722.588	5.71
722.909	5.58
723.231	5.4
723.552	5.14
723.873	5.21
724.194	5.24
724.515	5.24
724.836	5.25
725.157	5.25
725.478	5.22
725.799	4.98
726.12	5.09
726.441	5.2
726.762	5.13
727.083	5.14
727.403	5.07
727.724	5.26
728.045	5.2
728.365	5.19
728.686	5.14
729.006	5.15
729.327	5.22
729.647	5.36
729.967	5.51
730.288	5.52
730.608	5.52
730.928	5.62
731.249	5.59
731.569	5.76
731.889	5.91
732.209	5.96
732.529	6
732.849	6.02
733.169	5.86
733.489	5.79
733.809	5.73
734.129	5.71
734.448	5.5
734.768	5.56
735.088	5.58
735.408	5.7
735.727	5.58
736.047	5.61
736.366	5.58
736.686	5.63
737.005	5.62
737.325	5.64
737.644	5.57
737.963	5.49
738.283	5.2
738.602	5.04
738.921	5.03
739.24	5.18
739.56	5.2
739.879	5.32
740.198	5.37
740.517	5.35
740.836	5.43
741.155	5.56
741.473	5.52
741.792	5.67
742.111	5.68
742.43	5.81
742.748	5.63
743.067	5.47
743.386	5.4
743.704	5.4
744.023	5.53
744.341	5.72
744.66	5.73
744.978	5.82
745.297	5.9
745.615	6.03
745.933	5.81
746.252	5.69
746.57	5.64
746.888	5.47
747.206	5.38
747.524	5.37
747.842	5.4
748.16	5.32
748.478	5.13
748.796	5.14
749.114	5.35
749.432	5.33
749.749	5.58
750.067	5.47
750.385	5.52
750.703	5.32
751.02	5.2
751.338	5.27
751.655	5.34
751.973	5.55
752.29	5.37
752.608	5.62
752.925	5.84
753.242	6.06
753.56	5.99
753.877	6.33
754.194	6.35
754.511	6.38
754.828	6.47
755.145	6.54
755.462	6.49
755.779	6.04
756.096	6.18
756.413	6.2
756.73	6.3
757.047	6.3
757.364	6.49
757.68	6.49
757.997	6.46
758.314	6.5
758.63	6.44
758.947	6.44
759.264	6.34
759.58	6.29
759.896	6.28
760.213	6.56
760.529	6.57
760.846	6.36
761.162	6.25
761.478	6.33
761.794	6.53
762.11	6.52
762.426	6.62
762.743	6.66
763.059	6.62
763.375	6.63
763.69	6.64
764.006	6.58
764.322	6.62
764.638	6.63
764.954	6.7
765.27	6.53
765.585	6.5
765.901	6.61
766.216	6.72
766.532	6.63
766.848	6.43
767.163	6.34
767.478	6.65
767.794	6.87
768.109	6.54
768.424	6.27
768.74	6.18
769.055	6.15
769.37	6.38
769.685	6.21
770	6.41
770.315	6.26
770.63	6.33
770.945	6.34
771.26	6.35
771.575	6.2
771.89	6.38
772.205	6.69
772.52	6.82
772.834	6.53
773.149	6.73
773.464	7.16
773.778	7.42
774.093	7.19
774.407	6.92
774.722	7.23
775.036	7.67
775.351	7.87
775.665	8.05
775.979	7.95
776.293	8.14
776.608	7.67
776.922	8.01
777.236	8.05
777.55	7.95
777.864	7.96
778.178	8.14
778.492	8.23
778.806	7.71
779.12	7.82
779.434	8.13
779.747	7.81
780.061	7.59
780.375	7.59
780.689	7.9
781.002	8.12
781.316	7.96
781.629	8.06
781.943	8.32
782.256	8.24
782.57	8.15
782.883	7.68
783.196	8.1
783.51	8.07
783.823	7.82
784.136	7.81
784.449	7.85
784.762	7.7
785.075	7.97
785.388	8.47
785.701	8.19
786.014	7.89
786.327	7.88
786.64	8.54
786.953	8.35
787.266	7.82
787.578	7.61
787.891	7.75
788.204	7.45
788.516	7.39
788.829	7.44
789.141	7.3
789.454	7.87
789.766	7.82
790.079	8.13
790.391	8.37
790.703	8.5
791.016	8.45
791.328	8.48
791.64	8.07
791.952	7.97
792.264	7.7
792.576	7.79
792.888	7.65
793.2	7.03
793.512	6.9
793.824	7.14
794.136	7.62
794.448	7.79
794.76	8.05
795.071	7.79
795.383	7.89
795.695	7.83
796.006	7.67
796.318	7.42
796.629	7.13
796.941	6.69
797.252	6.81
797.564	6.93
797.875	7.12
798.186	6.94
798.497	6.78
798.809	7.13
799.12	7.19
799.431	7.48
799.742	7.53
800.053	7.95
800.364	8.04
800.675	7.34
800.986	6.86
801.297	6.38
801.608	6.04
801.918	5.72
802.229	6.1
802.54	6.02
802.851	6.51
803.161	6.42
803.472	6.67
803.782	6.49
804.093	6.75
804.403	6.44
804.714	6.76
805.024	6.83
805.334	6.86
805.645	6.6
805.955	6.54
806.265	6.9
806.575	6.59
806.885	6.91
807.195	7.69
807.505	8.12
807.815	8.23
808.125	8.48
808.435	9.05
808.745	8.46
809.055	8.7
809.365	8.45
809.674	8.17
809.984	8.19
810.294	7.75
810.603	7.93
810.913	8.91
811.222	9.21
811.532	9.51
811.841	9.7
812.151	10.47
812.46	10.38
812.769	10.42
813.079	10.4
813.388	9.99
813.697	9.54
814.006	9.82
814.315	9.96
814.624	10.09
814.933	9.99
815.242	10.43
815.551	10.77
815.86	11.15
816.169	11.4
816.478	11.85
816.786	11.99
817.095	11.88
817.404	11.11
817.712	10.69
818.021	10.47
818.33	10.13
818.638	9.47
818.947	9.58
819.255	9.21
819.563	9.01
819.872	8.96
820.18	8.88
820.488	8.54
820.796	8.67
821.105	8.53
821.413	8.53
821.721	8.54
822.029	8.26
822.337	8.15
822.645	8.06
822.953	7.79
823.26	8.06
823.568	7.87
823.876	7.81
824.184	7.88
824.491	7.96
824.799	7.87
825.107	7.75
825.414	7.78
825.722	7.86
826.029	7.97
826.337	8.03
826.644	8
826.951	8.04
827.259	7.88
827.566	7.84
827.873	7.73
828.18	7.7
828.488	7.76
828.795	7.65
829.102	7.52
829.409	7.71
829.716	7.4
830.023	7.72
830.329	7.7
830.636	7.55
830.943	7.2
831.25	7.6
831.557	7.77
831.863	7.5
832.17	7.14
832.476	7.09
832.783	7.13
833.089	7.33
833.396	7.51
833.702	7.82
834.009	8.02
834.315	8.04
834.621	8.24
834.928	8.3
835.234	8.37
835.54	8.54
835.846	8.83
836.152	9.05
836.458	8.96
836.764	8.94
837.07	8.71
837.376	8.71
837.682	8.61
837.988	8.93
838.293	9.08
838.599	9.5
838.905	8.89
839.211	9.09
839.516	9.14
839.822	9.43
840.127	9.22
840.433	9.36
840.738	9.43
841.044	9.66
841.349	9.63
841.654	9.84
841.959	11.01
842.265	10.86
842.57	11.52
842.875	10.57
843.18	11.12
843.485	12.46
843.79	13.19
844.095	13.32
844.4	14.31
844.705	14.53
845.01	13.76
845.315	14.52
845.619	13.6
845.924	13.41
846.229	13.84
846.533	14.67
846.838	14.61
847.142	14.81
847.447	14.21
847.751	14.19
848.056	15.25
848.36	14.02
848.664	12.84
848.969	11.34
849.273	12.77
849.577	13.17
849.881	10
850.185	10.94
850.489	11.58
850.794	10.37
851.097	9.69
851.401	9.92
851.705	9.19
852.009	11.44
852.313	9.38
852.617	7.39
852.92	6.85
853.224	6.81
853.528	7
853.831	6.18
854.135	6.64
854.438	4.73
854.742	6.41
855.045	9.06
855.349	8.58
855.652	6.73
855.955	7.1
856.259	9.23
856.562	7.59
856.865	7.38
857.168	5.19
857.471	6.83
857.774	7.66
858.077	10.3
858.38	9.43
858.683	10.64
858.986	14.05
859.289	14.55
859.592	15.93
859.894	16.44
860.197	16.19
860.5	16.55
860.802	16.52
861.105	16.42
861.407	13.69
861.71	14.36
862.012	14.82
862.315	13.39
862.617	13.92
862.919	14.36
863.222	14.92
863.524	17.29
863.826	15.61
864.128	15.52
864.43	14.32
864.732	15.37
865.034	17.31
865.336	13.79
865.638	13.29
865.94	11.54
866.242	10.06
866.544	9.57
866.846	10.15
867.147	10.79
867.449	10.65
867.751	12.14
868.052	12.78
868.354	13.47
868.655	15.35
868.957	15.57
869.258	14.53
869.56	12.82
869.861	10.13
870.162	11.89
870.463	11.06
870.765	13.68
871.066	7.82
871.367	6.72
871.668	8.41
871.969	8.32
872.27	9.07
872.571	8.76
872.872	11.06
873.173	7.97
873.473	6.86
873.774	5.6
874.075	5.22
874.376	4.66
874.676	5.59
874.977	2.46
875.277	1.95
875.578	3.57
875.878	2.91
876.179	5.64
876.479	4.7
876.78	5.29
877.08	1.53
877.38	5.7
877.68	5.5
877.981	3.95
878.281	3.82
878.581	3.98
