Data from BU57652_Reflection_00006.txt Node
Date: Tue Nov 19 10:43:12 EST 2019
User: vgr7
Spectrometer: USB2G7710
Scans to average: 3
Trigger mode: 4
Integration Time (sec): 2.000000E-2
Electric dark correction enabled: true
Boxcar width: 10
XAxis mode: Wavelengths
Number of Pixels in Spectrum: 2048
>>>>>Begin Spectral Data<<<<<
177.721	206.35
178.105	154.74
178.488	197.98
178.871	100
179.254	138.71
179.636	145.61
180.019	84.82
180.402	58.33
180.785	188.52
181.168	69.59
181.55	-1746.15
181.933	307.92
182.316	1248.94
182.698	225.52
183.081	394.8
183.463	315.57
183.846	257.89
184.228	783.17
184.611	225.31
184.993	100
185.376	85.65
185.758	91.93
186.14	78.25
186.522	74.35
186.904	76.73
187.287	56.34
187.669	38.11
188.051	20.93
188.433	23.48
188.815	8.34
189.197	1.28
189.579	-5.9
189.961	-9.3
190.342	-4.92
190.724	-10.64
191.106	-28.88
191.488	-23.51
191.869	-13.3
192.251	-20.32
192.633	-26.28
193.014	-23.92
193.396	-33.31
193.777	-34.11
194.159	-33.52
194.54	-41.76
194.922	-47.31
195.303	-44.18
195.684	-29.64
196.065	-30.71
196.447	-36.42
196.828	-45.9
197.209	-38
197.59	-46.34
197.971	-47.41
198.352	-49.04
198.733	-59.7
199.114	-56.32
199.495	-51.99
199.876	-63.34
200.257	-69.65
200.638	-67.37
201.018	-92.13
201.399	-81.77
201.78	-92.04
202.16	-113.56
202.541	-96.21
202.922	-75.1
203.302	-83.27
203.683	-102.68
204.063	-95.04
204.444	-93.55
204.824	-72.14
205.204	-77.02
205.585	-83.97
205.965	-112.86
206.345	-114.97
206.725	-77.41
207.106	-69.34
207.486	-49.57
207.866	-48.1
208.246	-35.38
208.626	-59.5
209.006	-49.89
209.386	-80.41
209.766	-89.3
210.145	-66.86
210.525	-109.47
210.905	-174.35
211.285	-66.88
211.664	-25.09
212.044	-8.78
212.424	7.22
212.803	-12.98
213.183	-28.43
213.562	-19.17
213.942	-7.79
214.321	-2.77
214.701	-13.81
215.08	-5.04
215.459	-14.97
215.838	-22.98
216.218	-31.18
216.597	-17.51
216.976	-16.84
217.355	-5.09
217.734	-14.33
218.113	-24.56
218.492	-21.84
218.871	-16.91
219.25	-13.98
219.629	-17.18
220.008	-20.37
220.387	-29.78
220.766	-22.41
221.144	-23.04
221.523	-27.8
221.902	-27.88
222.28	-36.13
222.659	-34.52
223.037	-52.01
223.416	-46.29
223.794	-32.5
224.173	-33.79
224.551	-40.39
224.929	-47.05
225.308	-50.76
225.686	-39.1
226.064	-38.31
226.442	-30.11
226.821	-31.64
227.199	-28.4
227.577	-25.02
227.955	-19.21
228.333	-18.96
228.711	-16.75
229.089	-15.84
229.467	-12.79
229.845	-10.26
230.222	-8.16
230.6	-7.61
230.978	-2.57
231.356	-4.67
231.733	-6.34
232.111	-4.35
232.488	-1.03
232.866	2.77
233.243	2.24
233.621	3.58
233.998	4.79
234.376	5.42
234.753	4.87
235.13	4.06
235.508	4.39
235.885	3.65
236.262	6.53
236.639	5.64
237.016	6.14
237.393	7.07
237.77	6.92
238.147	6.23
238.524	7.09
238.901	5.55
239.278	6.12
239.655	6.64
240.032	5.55
240.409	5.3
240.785	5.2
241.162	5.38
241.539	5.17
241.915	4.94
242.292	4.84
242.668	4.95
243.045	5.41
243.421	5.5
243.798	5.49
244.174	5.2
244.551	5.67
244.927	5.8
245.303	5.58
245.679	5.68
246.056	5.97
246.432	5.93
246.808	6.29
247.184	6.23
247.56	6.06
247.936	6.37
248.312	6.37
248.688	6.33
249.064	6.68
249.44	6.69
249.815	6.95
250.191	7.05
250.567	7.08
250.943	7.1
251.318	7.01
251.694	7.14
252.069	7.29
252.445	7.08
252.82	7.22
253.196	7.59
253.571	7.7
253.947	7.53
254.322	7.44
254.697	7.47
255.073	7.49
255.448	7.82
255.823	7.72
256.198	7.42
256.573	7.32
256.948	7.25
257.323	7.21
257.698	7.18
258.073	7.06
258.448	7.11
258.823	7
259.198	6.91
259.573	6.75
259.948	6.74
260.322	6.79
260.697	6.79
261.072	6.56
261.446	6.47
261.821	6.48
262.195	6.31
262.57	6.31
262.944	6.25
263.319	6.22
263.693	6.28
264.067	6.38
264.442	6.45
264.816	6.29
265.19	6.42
265.564	6.28
265.938	6.13
266.313	5.87
266.687	5.84
267.061	5.97
267.435	6.11
267.809	5.89
268.183	5.79
268.556	5.69
268.93	5.8
269.304	5.92
269.678	5.97
270.051	6.02
270.425	6.02
270.799	6.03
271.172	5.84
271.546	5.81
271.919	5.86
272.293	5.93
272.666	5.9
273.04	5.84
273.413	5.97
273.787	6.13
274.16	6.23
274.533	6.2
274.906	6.28
275.279	6.23
275.653	6.24
276.026	6.42
276.399	6.51
276.772	6.42
277.145	6.38
277.518	6.39
277.891	6.48
278.263	6.45
278.636	6.49
279.009	6.54
279.382	6.29
279.755	6.31
280.127	6.23
280.5	6.22
280.872	6.06
281.245	6.17
281.617	6.11
281.99	6.16
282.362	6.17
282.735	6.06
283.107	6.16
283.479	6.3
283.852	6.21
284.224	6.15
284.596	6.2
284.968	6.02
285.34	5.98
285.713	6.07
286.085	5.97
286.457	6.06
286.829	6.07
287.201	6.33
287.572	6.41
287.944	6.48
288.316	6.52
288.688	6.73
289.06	6.6
289.431	6.77
289.803	6.83
290.175	6.89
290.546	7.01
290.918	7.04
291.289	7.01
291.661	7.03
292.032	7.19
292.403	7.23
292.775	7.49
293.146	7.51
293.517	7.55
293.889	7.7
294.26	7.65
294.631	7.63
295.002	7.46
295.373	7.33
295.744	7.26
296.115	7.38
296.486	7.32
296.857	7.47
297.228	7.33
297.599	7.27
297.97	7.28
298.34	7.22
298.711	7.32
299.082	7.28
299.452	7.18
299.823	7.16
300.194	7.22
300.564	7.05
300.935	7.15
301.305	6.98
301.676	7.07
302.046	7.1
302.416	7.18
302.787	7.28
303.157	7.36
303.527	7.63
303.897	7.59
304.267	7.54
304.637	7.37
305.008	7.43
305.378	7.49
305.748	7.55
306.117	7.64
306.487	7.53
306.857	7.57
307.227	7.83
307.597	7.93
307.967	7.86
308.336	7.88
308.706	7.84
309.076	8.1
309.445	8.15
309.815	8.17
310.184	8.17
310.554	8.15
310.923	8.14
311.293	8.03
311.662	8.06
312.031	8.19
312.401	8.24
312.77	8.27
313.139	8.31
313.508	8.24
313.877	8.16
314.246	8.1
314.616	8.14
314.985	8.07
315.353	8.04
315.722	8.25
316.091	8.36
316.46	8.41
316.829	8.31
317.198	8.24
317.567	8.27
317.935	8.19
318.304	8.4
318.672	8.37
319.041	8.4
319.41	8.22
319.778	8.19
320.147	8.18
320.515	8.17
320.883	8.21
321.252	8.33
321.62	8.34
321.988	8.39
322.357	8.41
322.725	8.42
323.093	8.3
323.461	8.09
323.829	8.06
324.197	8.13
324.565	8.11
324.933	7.98
325.301	7.85
325.669	7.93
326.037	7.83
326.405	7.9
326.772	7.87
327.14	7.93
327.508	7.94
327.875	7.94
328.243	7.85
328.61	7.68
328.978	7.54
329.346	7.47
329.713	7.55
330.08	7.54
330.448	7.46
330.815	7.5
331.182	7.54
331.55	7.58
331.917	7.47
332.284	7.55
332.651	7.48
333.018	7.61
333.385	7.6
333.752	7.59
334.119	7.56
334.486	7.52
334.853	7.56
335.22	7.36
335.587	7.42
335.954	7.57
336.32	7.67
336.687	7.74
337.054	7.85
337.42	7.86
337.787	7.87
338.153	7.84
338.52	7.93
338.886	7.95
339.253	7.9
339.619	7.84
339.986	7.73
340.352	7.9
340.718	7.94
341.084	7.92
341.451	7.93
341.817	7.94
342.183	7.93
342.549	7.94
342.915	8.04
343.281	7.94
343.647	7.88
344.013	7.91
344.379	7.9
344.745	8.01
345.11	7.85
345.476	7.8
345.842	7.88
346.208	7.76
346.573	7.73
346.939	7.71
347.304	7.82
347.67	7.88
348.035	7.88
348.401	7.85
348.766	7.78
349.132	7.77
349.497	7.8
349.862	7.8
350.228	7.82
350.593	7.87
350.958	7.9
351.323	7.91
351.688	7.89
352.053	7.92
352.418	7.78
352.783	7.85
353.148	7.88
353.513	7.82
353.878	7.8
354.243	7.89
354.608	7.89
354.972	7.96
355.337	7.89
355.702	7.91
356.066	7.93
356.431	8.01
356.795	8.07
357.16	8.06
357.524	8.03
357.889	8.1
358.253	8.06
358.618	8.04
358.982	8
359.346	7.97
359.71	7.91
360.075	7.98
360.439	8.05
360.803	8.08
361.167	8.08
361.531	8.1
361.895	8.04
362.259	8.08
362.623	8.05
362.987	8.11
363.351	8.02
363.714	7.96
364.078	7.94
364.442	7.87
364.806	7.86
365.169	7.82
365.533	7.73
365.896	7.82
366.26	7.83
366.623	7.84
366.987	7.87
367.35	7.9
367.714	7.85
368.077	7.82
368.44	7.84
368.803	7.79
369.167	7.77
369.53	7.78
369.893	7.76
370.256	7.67
370.619	7.6
370.982	7.57
371.345	7.59
371.708	7.55
372.071	7.52
372.434	7.52
372.797	7.62
373.159	7.68
373.522	7.56
373.885	7.55
374.247	7.55
374.61	7.56
374.973	7.61
375.335	7.68
375.698	7.59
376.06	7.56
376.423	7.62
376.785	7.62
377.147	7.56
377.51	7.59
377.872	7.57
378.234	7.57
378.596	7.67
378.958	7.71
379.321	7.69
379.683	7.76
380.045	7.77
380.407	7.68
380.769	7.6
381.13	7.58
381.492	7.55
381.854	7.53
382.216	7.54
382.578	7.47
382.939	7.47
383.301	7.48
383.663	7.47
384.024	7.48
384.386	7.51
384.747	7.56
385.109	7.52
385.47	7.56
385.832	7.53
386.193	7.47
386.554	7.42
386.916	7.46
387.277	7.42
387.638	7.37
387.999	7.43
388.36	7.48
388.721	7.48
389.082	7.56
389.443	7.6
389.804	7.57
390.165	7.6
390.526	7.52
390.887	7.49
391.248	7.47
391.609	7.47
391.969	7.45
392.33	7.43
392.691	7.45
393.051	7.4
393.412	7.44
393.772	7.42
394.133	7.42
394.493	7.43
394.854	7.39
395.214	7.41
395.574	7.35
395.935	7.31
396.295	7.3
396.655	7.24
397.015	7.23
397.376	7.22
397.736	7.22
398.096	7.21
398.456	7.23
398.816	7.21
399.176	7.15
399.535	7.16
399.895	7.16
400.255	7.15
400.615	7.21
400.975	7.19
401.334	7.21
401.694	7.24
402.054	7.22
402.413	7.21
402.773	7.21
403.132	7.25
403.492	7.24
403.851	7.25
404.211	7.24
404.57	7.23
404.929	7.2
405.288	7.19
405.648	7.19
406.007	7.17
406.366	7.19
406.725	7.19
407.084	7.19
407.443	7.18
407.802	7.15
408.161	7.11
408.52	7.14
408.879	7.11
409.238	7.06
409.596	7.05
409.955	7.04
410.314	7.03
410.673	7.02
411.031	7.03
411.39	6.98
411.748	6.97
412.107	6.92
412.465	6.93
412.824	6.92
413.182	6.91
413.54	6.93
413.899	6.94
414.257	6.94
414.615	6.92
414.974	6.9
415.332	6.92
415.69	6.9
416.048	6.87
416.406	6.88
416.764	6.88
417.122	6.86
417.48	6.89
417.838	6.89
418.195	6.86
418.553	6.85
418.911	6.87
419.269	6.87
419.626	6.87
419.984	6.86
420.342	6.85
420.699	6.81
421.057	6.8
421.414	6.79
421.772	6.79
422.129	6.76
422.486	6.74
422.844	6.72
423.201	6.71
423.558	6.71
423.915	6.7
424.273	6.69
424.63	6.67
424.987	6.65
425.344	6.62
425.701	6.62
426.058	6.62
426.415	6.59
426.772	6.58
427.128	6.58
427.485	6.56
427.842	6.54
428.199	6.57
428.555	6.56
428.912	6.54
429.269	6.53
429.625	6.54
429.982	6.56
430.338	6.56
430.695	6.55
431.051	6.53
431.407	6.51
431.764	6.5
432.12	6.54
432.476	6.53
432.832	6.54
433.189	6.54
433.545	6.53
433.901	6.54
434.257	6.53
434.613	6.51
434.969	6.51
435.325	6.51
435.681	6.51
436.036	6.5
436.392	6.5
436.748	6.5
437.104	6.48
437.459	6.47
437.815	6.47
438.171	6.46
438.526	6.46
438.882	6.46
439.237	6.47
439.593	6.46
439.948	6.46
440.304	6.45
440.659	6.46
441.014	6.46
441.369	6.46
441.725	6.48
442.08	6.48
442.435	6.49
442.79	6.51
443.145	6.5
443.5	6.49
443.855	6.51
444.21	6.49
444.565	6.5
444.92	6.51
445.275	6.51
445.629	6.52
445.984	6.51
446.339	6.52
446.693	6.52
447.048	6.49
447.403	6.48
447.757	6.48
448.112	6.46
448.466	6.45
448.82	6.43
449.175	6.4
449.529	6.41
449.883	6.4
450.238	6.39
450.592	6.38
450.946	6.36
451.3	6.32
451.654	6.33
452.008	6.31
452.362	6.28
452.716	6.26
453.07	6.24
453.424	6.27
453.778	6.24
454.132	6.22
454.486	6.24
454.839	6.25
455.193	6.27
455.547	6.27
455.9	6.28
456.254	6.3
456.607	6.31
456.961	6.3
457.314	6.31
457.668	6.29
458.021	6.27
458.375	6.28
458.728	6.27
459.081	6.26
459.434	6.26
459.787	6.27
460.141	6.28
460.494	6.3
460.847	6.28
461.2	6.3
461.553	6.31
461.906	6.32
462.259	6.31
462.611	6.28
462.964	6.3
463.317	6.29
463.67	6.29
464.022	6.28
464.375	6.29
464.728	6.29
465.08	6.29
465.433	6.32
465.785	6.31
466.138	6.34
466.49	6.35
466.843	6.35
467.195	6.38
467.547	6.38
467.899	6.39
468.252	6.38
468.604	6.38
468.956	6.41
469.308	6.4
469.66	6.41
470.012	6.43
470.364	6.43
470.716	6.46
471.068	6.46
471.42	6.46
471.772	6.47
472.123	6.46
472.475	6.49
472.827	6.51
473.178	6.55
473.53	6.55
473.882	6.58
474.233	6.6
474.585	6.58
474.936	6.6
475.288	6.61
475.639	6.64
475.99	6.64
476.342	6.64
476.693	6.63
477.044	6.64
477.395	6.62
477.746	6.62
478.097	6.59
478.448	6.57
478.8	6.6
479.15	6.59
479.501	6.6
479.852	6.59
480.203	6.6
480.554	6.62
480.905	6.63
481.255	6.63
481.606	6.64
481.957	6.66
482.307	6.65
482.658	6.65
483.009	6.65
483.359	6.65
483.709	6.65
484.06	6.66
484.41	6.65
484.761	6.66
485.111	6.66
485.461	6.67
485.811	6.68
486.162	6.66
486.512	6.67
486.862	6.67
487.212	6.66
487.562	6.65
487.912	6.63
488.262	6.63
488.612	6.62
488.961	6.62
489.311	6.6
489.661	6.6
490.011	6.6
490.36	6.58
490.71	6.58
491.06	6.57
491.409	6.57
491.759	6.57
492.108	6.56
492.458	6.56
492.807	6.56
493.157	6.57
493.506	6.57
493.855	6.58
494.204	6.57
494.554	6.59
494.903	6.6
495.252	6.61
495.601	6.62
495.95	6.64
496.299	6.61
496.648	6.62
496.997	6.63
497.346	6.63
497.695	6.65
498.043	6.67
498.392	6.68
498.741	6.69
499.09	6.72
499.438	6.73
499.787	6.74
500.135	6.73
500.484	6.72
500.832	6.74
501.181	6.76
501.529	6.78
501.878	6.8
502.226	6.82
502.574	6.84
502.923	6.83
503.271	6.84
503.619	6.89
503.967	6.92
504.315	6.95
504.663	6.97
505.011	6.96
505.359	6.97
505.707	7
506.055	7.02
506.403	7.02
506.751	7.07
507.098	7.09
507.446	7.12
507.794	7.16
508.141	7.18
508.489	7.22
508.837	7.23
509.184	7.23
509.531	7.27
509.879	7.29
510.226	7.32
510.574	7.35
510.921	7.34
511.268	7.34
511.616	7.35
511.963	7.36
512.31	7.4
512.657	7.43
513.004	7.43
513.351	7.45
513.698	7.47
514.045	7.45
514.392	7.47
514.739	7.48
515.086	7.51
515.432	7.54
515.779	7.53
516.126	7.54
516.473	7.55
516.819	7.53
517.166	7.55
517.512	7.56
517.859	7.58
518.205	7.59
518.552	7.62
518.898	7.63
519.245	7.63
519.591	7.64
519.937	7.65
520.283	7.68
520.629	7.69
520.976	7.68
521.322	7.71
521.668	7.71
522.014	7.75
522.36	7.72
522.706	7.72
523.052	7.75
523.398	7.76
523.743	7.81
524.089	7.83
524.435	7.84
524.781	7.87
525.126	7.87
525.472	7.88
525.817	7.88
526.163	7.89
526.509	7.9
526.854	7.91
527.199	7.92
527.545	7.92
527.89	7.92
528.235	7.93
528.581	7.93
528.926	7.94
529.271	7.92
529.616	7.93
529.961	7.93
530.306	7.95
530.651	7.95
530.996	7.95
531.341	7.95
531.686	7.94
532.031	7.94
532.376	7.95
532.721	7.94
533.065	7.94
533.41	7.94
533.755	7.94
534.099	7.93
534.444	7.91
534.788	7.91
535.133	7.9
535.477	7.91
535.822	7.92
536.166	7.94
536.51	7.96
536.855	7.97
537.199	7.99
537.543	7.98
537.887	7.97
538.231	7.95
538.576	7.97
538.92	7.98
539.264	7.95
539.608	7.97
539.951	7.97
540.295	7.99
540.639	8
540.983	8.01
541.327	8.01
541.671	8.03
542.014	8.03
542.358	8.05
542.701	8.05
543.045	8.05
543.389	8.03
543.732	8.04
544.075	8.06
544.419	8.06
544.762	8.06
545.105	8.09
545.449	8.12
545.792	8.1
546.135	8.1
546.478	8.13
546.821	8.12
547.165	8.12
547.508	8.12
547.851	8.12
548.194	8.12
548.536	8.14
548.879	8.12
549.222	8.15
549.565	8.13
549.908	8.13
550.25	8.14
550.593	8.16
550.936	8.17
551.278	8.16
551.621	8.13
551.963	8.15
552.306	8.14
552.648	8.09
552.991	8.1
553.333	8.13
553.675	8.11
554.017	8.11
554.36	8.14
554.702	8.15
555.044	8.17
555.386	8.15
555.728	8.16
556.07	8.17
556.412	8.18
556.754	8.18
557.096	8.2
557.438	8.18
557.78	8.17
558.121	8.11
558.463	8.09
558.805	8.12
559.147	8.11
559.488	8.13
559.83	8.15
560.171	8.13
560.513	8.13
560.854	8.14
561.196	8.11
561.537	8.1
561.878	8.13
562.22	8.13
562.561	8.14
562.902	8.12
563.243	8.13
563.584	8.14
563.925	8.15
564.266	8.15
564.607	8.16
564.948	8.16
565.289	8.17
565.63	8.14
565.971	8.17
566.312	8.17
566.653	8.16
566.993	8.19
567.334	8.21
567.675	8.21
568.015	8.23
568.356	8.24
568.696	8.23
569.037	8.23
569.377	8.21
569.718	8.22
570.058	8.2
570.398	8.19
570.739	8.15
571.079	8.16
571.419	8.18
571.759	8.16
572.099	8.17
572.439	8.19
572.779	8.23
573.119	8.22
573.459	8.21
573.799	8.19
574.139	8.16
574.479	8.16
574.819	8.16
575.158	8.13
575.498	8.15
575.838	8.14
576.177	8.15
576.517	8.15
576.856	8.15
577.196	8.19
577.535	8.18
577.875	8.18
578.214	8.17
578.553	8.14
578.893	8.14
579.232	8.14
579.571	8.16
579.91	8.14
580.25	8.14
580.589	8.16
580.928	8.21
581.267	8.25
581.606	8.24
581.945	8.25
582.283	8.27
582.622	8.21
582.961	8.24
583.3	8.23
583.639	8.27
583.977	8.24
584.316	8.22
584.654	8.28
584.993	8.3
585.332	8.3
585.67	8.31
586.008	8.34
586.347	8.36
586.685	8.3
587.024	8.32
587.362	8.29
587.7	8.28
588.038	8.29
588.376	8.29
588.715	8.28
589.053	8.26
589.391	8.28
589.729	8.37
590.067	8.36
590.404	8.36
590.742	8.35
591.08	8.38
591.418	8.38
591.756	8.35
592.093	8.36
592.431	8.36
592.769	8.37
593.106	8.38
593.444	8.36
593.781	8.43
594.119	8.46
594.456	8.45
594.793	8.47
595.131	8.43
595.468	8.47
595.805	8.51
596.143	8.54
596.48	8.58
596.817	8.57
597.154	8.6
597.491	8.62
597.828	8.61
598.165	8.63
598.502	8.63
598.839	8.67
599.176	8.69
599.512	8.71
599.849	8.74
600.186	8.72
600.523	8.72
600.859	8.7
601.196	8.69
601.532	8.69
601.869	8.69
602.205	8.71
602.542	8.68
602.878	8.68
603.215	8.66
603.551	8.64
603.887	8.63
604.223	8.58
604.56	8.55
604.896	8.52
605.232	8.53
605.568	8.52
605.904	8.49
606.24	8.46
606.576	8.49
606.912	8.48
607.248	8.5
607.583	8.56
607.919	8.53
608.255	8.56
608.591	8.61
608.926	8.58
609.262	8.57
609.597	8.56
609.933	8.53
610.268	8.54
610.604	8.52
610.939	8.55
611.275	8.59
611.61	8.62
611.945	8.64
612.281	8.64
612.616	8.67
612.951	8.72
613.286	8.71
613.621	8.67
613.956	8.66
614.291	8.66
614.626	8.55
614.961	8.57
615.296	8.56
615.631	8.55
615.966	8.57
616.3	8.59
616.635	8.62
616.97	8.62
617.304	8.61
617.639	8.58
617.973	8.53
618.308	8.51
618.642	8.49
618.977	8.5
619.311	8.5
619.646	8.49
619.98	8.49
620.314	8.54
620.648	8.53
620.983	8.56
621.317	8.58
621.651	8.62
621.985	8.61
622.319	8.63
622.653	8.58
622.987	8.58
623.321	8.57
623.655	8.56
623.988	8.58
624.322	8.61
624.656	8.66
624.99	8.68
625.323	8.69
625.657	8.7
625.99	8.69
626.324	8.7
626.657	8.68
626.991	8.71
627.324	8.68
627.658	8.69
627.991	8.73
628.324	8.77
628.657	8.74
628.991	8.79
629.324	8.78
629.657	8.81
629.99	8.84
630.323	8.85
630.656	8.86
630.989	8.83
631.322	8.83
631.655	8.85
631.987	8.85
632.32	8.84
632.653	8.87
632.986	8.89
633.318	8.86
633.651	8.86
633.984	8.85
634.316	8.88
634.649	8.87
634.981	8.81
635.313	8.8
635.646	8.89
635.978	8.91
636.31	8.91
636.643	8.85
636.975	8.81
637.307	8.84
637.639	8.83
637.971	8.8
638.303	8.81
638.635	8.79
638.967	8.77
639.299	8.82
639.631	8.82
639.963	8.83
640.295	8.86
640.626	8.87
640.958	8.84
641.29	8.87
641.621	8.87
641.953	8.88
642.285	8.86
642.616	8.85
642.948	8.79
643.279	8.77
643.61	8.84
643.942	8.88
644.273	8.83
644.604	8.81
644.936	8.89
645.267	8.87
645.598	8.88
645.929	8.91
646.26	8.91
646.591	8.88
646.922	8.88
647.253	8.87
647.584	8.9
647.915	8.92
648.245	8.95
648.576	8.9
648.907	8.94
649.238	8.89
649.568	8.84
649.899	8.85
650.229	8.92
650.56	8.9
650.89	8.87
651.221	8.9
651.551	8.88
651.882	8.87
652.212	8.92
652.542	8.93
652.872	8.9
653.203	8.89
653.533	8.94
653.863	8.98
654.193	8.98
654.523	8.99
654.853	9.04
655.183	9.03
655.513	9.17
655.843	9.09
656.172	9.15
656.502	9.22
656.832	9.16
657.162	9.15
657.491	9.19
657.821	9.26
658.15	9.23
658.48	9.25
658.809	9.27
659.139	9.28
659.468	9.31
659.798	9.35
660.127	9.36
660.456	9.33
660.785	9.33
661.115	9.31
661.444	9.36
661.773	9.36
662.102	9.3
662.431	9.22
662.76	9.26
663.089	9.23
663.418	9.24
663.747	9.34
664.076	9.31
664.404	9.31
664.733	9.25
665.062	9.34
665.39	9.37
665.719	9.42
666.048	9.41
666.376	9.39
666.705	9.38
667.033	9.35
667.362	9.36
667.69	9.38
668.018	9.49
668.347	9.46
668.675	9.42
669.003	9.42
669.331	9.44
669.659	9.45
669.987	9.5
670.315	9.41
670.643	9.47
670.971	9.47
671.299	9.44
671.627	9.42
671.955	9.35
672.283	9.37
672.61	9.31
672.938	9.35
673.266	9.38
673.593	9.46
673.921	9.47
674.249	9.44
674.576	9.45
674.904	9.34
675.231	9.31
675.558	9.38
675.886	9.39
676.213	9.4
676.54	9.39
676.867	9.43
677.195	9.54
677.522	9.46
677.849	9.51
678.176	9.57
678.503	9.61
678.83	9.63
679.157	9.65
679.484	9.7
679.81	9.62
680.137	9.6
680.464	9.54
680.791	9.67
681.117	9.75
681.444	9.69
681.771	9.78
682.097	9.84
682.424	9.78
682.75	9.83
683.077	9.84
683.403	9.89
683.729	9.78
684.056	9.71
684.382	9.67
684.708	9.61
685.034	9.53
685.36	9.54
685.686	9.52
686.012	9.5
686.339	9.45
686.664	9.53
686.99	9.5
687.316	9.58
687.642	9.47
687.968	9.52
688.294	9.62
688.619	9.6
688.945	9.51
689.271	9.64
689.596	9.57
689.922	9.58
690.247	9.59
690.573	9.64
690.898	9.73
691.224	9.83
691.549	9.91
691.874	9.96
692.2	9.85
692.525	9.88
692.85	9.93
693.175	9.96
693.5	9.88
693.825	9.93
694.15	9.84
694.475	9.78
694.8	9.75
695.125	9.65
695.45	9.65
695.775	9.75
696.099	9.74
696.424	9.76
696.749	9.8
697.073	9.76
697.398	9.76
697.723	9.68
698.047	9.66
698.372	9.54
698.696	9.56
699.02	9.68
699.345	9.73
699.669	9.68
699.993	9.65
700.318	9.7
700.642	9.63
700.966	9.59
701.29	9.67
701.614	9.68
701.938	9.73
702.262	9.64
702.586	9.57
702.91	9.45
703.234	9.45
703.557	9.43
703.881	9.51
704.205	9.46
704.529	9.48
704.852	9.44
705.176	9.52
705.499	9.56
705.823	9.49
706.146	9.44
706.47	9.46
706.793	9.6
707.117	9.57
707.44	9.54
707.763	9.59
708.086	9.61
708.409	9.65
708.733	9.64
709.056	9.71
709.379	9.82
709.702	9.96
710.025	9.96
710.348	9.94
710.671	10
710.993	9.99
711.316	9.95
711.639	10
711.962	10.1
712.284	10.11
712.607	10.2
712.93	10.24
713.252	10.21
713.575	10.16
713.897	10.14
714.22	10.15
714.542	10.19
714.864	10.16
715.187	9.96
715.509	9.98
715.831	9.95
716.153	9.9
716.475	9.87
716.798	9.93
717.12	9.96
717.442	9.86
717.764	9.87
718.085	9.96
718.407	10.14
718.729	10.14
719.051	10.12
719.373	10.16
719.695	10.12
720.016	10.21
720.338	10.3
720.659	10.38
720.981	10.47
721.302	10.55
721.624	10.54
721.945	10.72
722.267	10.65
722.588	10.71
722.909	10.62
723.231	10.52
723.552	10.56
723.873	10.6
724.194	10.61
724.515	10.63
724.836	10.62
725.157	10.44
725.478	10.31
725.799	10.23
726.12	10
726.441	10.18
726.762	10.24
727.083	10.27
727.403	10.45
727.724	10.49
728.045	10.48
728.365	10.46
728.686	10.46
729.006	10.56
729.327	10.62
729.647	10.69
729.967	10.66
730.288	10.67
730.608	10.64
730.928	10.56
731.249	10.76
731.569	10.82
731.889	10.76
732.209	10.92
732.529	11.01
732.849	11.19
733.169	11.08
733.489	11.01
733.809	10.94
734.129	10.8
734.448	10.87
734.768	10.76
735.088	10.83
735.408	10.81
735.727	10.72
736.047	10.74
736.366	10.79
736.686	10.8
737.005	10.86
737.325	11
737.644	10.96
737.963	10.86
738.283	10.91
738.602	11.06
738.921	11.18
739.24	11.03
739.56	11.08
739.879	11.04
740.198	11.02
740.517	11.02
740.836	11.15
741.155	11.13
741.473	11.13
741.792	11.1
742.111	11.18
742.43	11.15
742.748	11.14
743.067	11.05
743.386	11.04
743.704	10.94
744.023	10.86
744.341	11.07
744.66	11.03
744.978	11.09
745.297	11.07
745.615	10.64
745.933	10.77
746.252	10.9
746.57	10.96
746.888	10.97
747.206	10.63
747.524	10.31
747.842	10.04
748.16	10.17
748.478	10.23
748.796	10.11
749.114	10.06
749.432	10.09
749.749	10.14
750.067	10.28
750.385	10.47
750.703	10.45
751.02	10.47
751.338	10.37
751.655	10.11
751.973	9.89
752.29	10.11
752.608	10.22
752.925	9.84
753.242	9.69
753.56	9.83
753.877	10.2
754.194	10.55
754.511	10.93
754.828	10.95
755.145	10.82
755.462	10.76
755.779	10.95
756.096	10.98
756.413	11.06
756.73	10.94
757.047	10.54
757.364	10.22
757.68	10.23
757.997	10.51
758.314	10.62
758.63	11.01
758.947	10.86
759.264	10.77
759.58	11.05
759.896	11.19
760.213	11.25
760.529	11.39
760.846	11.35
761.162	11
761.478	11.1
761.794	11.11
762.11	11.14
762.426	10.92
762.743	11.05
763.059	11.16
763.375	11.18
763.69	11.31
764.006	11.62
764.322	11.74
764.638	11.69
764.954	11.78
765.27	11.76
765.585	11.89
765.901	11.8
766.216	11.73
766.532	11.77
766.848	11.66
767.163	11.35
767.478	11.26
767.794	11.44
768.109	11.33
768.424	11.4
768.74	11.54
769.055	12.11
769.37	11.94
769.685	11.79
770	12.09
770.315	12.03
770.63	12.17
770.945	12.03
771.26	11.84
771.575	11.91
771.89	11.79
772.205	12.18
772.52	12.23
772.834	11.9
773.149	11.81
773.464	11.86
773.778	12.1
774.093	12.06
774.407	12.51
774.722	12.71
775.036	12.75
775.351	12.95
775.665	12.53
775.979	12.71
776.293	12.56
776.608	12.09
776.922	12.08
777.236	11.9
777.55	11.7
777.864	11.58
778.178	11.5
778.492	11.37
778.806	11.16
779.12	11.38
779.434	11.53
779.747	11.58
780.061	11.46
780.375	11.54
780.689	11.73
781.002	11.49
781.316	11.39
781.629	11.59
781.943	11.31
782.256	11.41
782.57	11.29
782.883	11.93
783.196	12.34
783.51	12.43
783.823	12.52
784.136	12.84
784.449	13.24
784.762	13.15
785.075	13.43
785.388	13.61
785.701	13.48
786.014	13.65
786.327	13.67
786.64	13.97
786.953	13.96
787.266	14.04
787.578	13.76
787.891	13.68
788.204	13.26
788.516	13.42
788.829	13.56
789.141	13.66
789.454	13.14
789.766	13.19
790.079	13.23
790.391	12.98
790.703	13.23
791.016	13.32
791.328	13.24
791.64	13.27
791.952	13.01
792.264	13.09
792.576	13.48
792.888	13.5
793.2	12.81
793.512	12.81
793.824	12.61
794.136	12.73
794.448	12.51
794.76	12.62
795.071	12.71
795.383	12.7
795.695	12.36
796.006	12.64
796.318	12.63
796.629	12.99
796.941	12.91
797.252	12.54
797.564	12.85
797.875	12.94
798.186	12.98
798.497	12.57
798.809	13
799.12	12.77
799.431	12.8
799.742	13.53
800.053	13.47
800.364	13.59
800.675	13.63
800.986	13.82
801.297	14.13
801.608	14.06
801.918	13.86
802.229	13.76
802.54	13.45
802.851	13.37
803.161	13.23
803.472	13.36
803.782	13.67
804.093	12.68
804.403	12.96
804.714	12.96
805.024	12.96
805.334	12.18
805.645	12.3
805.955	11.95
806.265	11.71
806.575	11.99
806.885	12.22
807.195	11.86
807.505	12.46
807.815	12.14
808.125	11.43
808.435	12.17
808.745	12.55
809.055	12.76
809.365	12.64
809.674	12.72
809.984	12.42
810.294	11.78
810.603	11.77
810.913	11.06
811.222	10.9
811.532	11.5
811.841	12.15
812.151	12.06
812.46	12.67
812.769	12.13
813.079	12.31
813.388	11.57
813.697	11.88
814.006	11.19
814.315	11.67
814.624	12.84
814.933	12.35
815.242	11.41
815.551	10.85
815.86	11.49
816.169	10.75
816.478	11.57
816.786	11.81
817.095	12.36
817.404	13.07
817.712	13.72
818.021	13.68
818.33	13.68
818.638	13.76
818.947	13.79
819.255	13.99
819.563	13.9
819.872	14.01
820.18	14.2
820.488	14.39
820.796	14.17
821.105	14.14
821.413	14.13
821.721	14.25
822.029	14.43
822.337	14.25
822.645	14.39
822.953	14.15
823.26	14.27
823.568	14.34
823.876	14.22
824.184	14.1
824.491	14.01
824.799	13.92
825.107	13.9
825.414	13.88
825.722	13.86
826.029	13.82
826.337	13.86
826.644	13.78
826.951	13.71
827.259	13.79
827.566	13.6
827.873	13.43
828.18	13.36
828.488	13.31
828.795	13.41
829.102	13.29
829.409	13.58
829.716	13.39
830.023	13.48
830.329	13.67
830.636	13.54
830.943	13.55
831.25	14.04
831.557	14.08
831.863	13.92
832.17	13.81
832.476	13.72
832.783	14.07
833.089	13.99
833.396	14.01
833.702	14.12
834.009	14.3
834.315	14.7
834.621	15.37
834.928	15.16
835.234	14.93
835.54	15.02
835.846	14.85
836.152	14.62
836.458	14.11
836.764	14.39
837.07	14.46
837.376	14.52
837.682	13.66
837.988	13.7
838.293	13.94
838.599	14.34
838.905	14.86
839.211	13.62
839.516	13.89
839.822	14.43
840.127	14.38
840.433	14.27
840.738	13.48
841.044	12.91
841.349	12.96
841.654	12.63
841.959	12.95
842.265	12.76
842.57	13.92
842.875	14.67
843.18	13.38
843.485	13.31
843.79	12.7
844.095	13.79
844.4	13.36
844.705	13.31
845.01	14.27
845.315	13.14
845.619	14.61
845.924	15.3
846.229	14.16
846.533	14
846.838	12.58
847.142	13.22
847.447	13.57
847.751	14.41
848.056	14.92
848.36	15.44
848.664	15.27
848.969	14.13
849.273	13.71
849.577	14.17
849.881	13.42
850.185	14.92
850.489	15.14
850.794	15.55
851.097	16.52
851.401	13.72
851.705	14.87
852.009	14.81
852.313	13.32
852.617	13.5
852.92	14.03
853.224	17.03
853.528	17.57
853.831	16.69
854.135	16.72
854.438	16.14
854.742	14.47
855.045	14.15
855.349	13.23
855.652	12.71
855.955	12.54
856.259	12.67
856.562	11.38
856.865	10.41
857.168	11.17
857.471	10.59
857.774	10.99
858.077	10.39
858.38	10.93
858.683	13.29
858.986	14.46
859.289	10.68
859.592	9.92
859.894	8.55
860.197	9.39
860.5	11.85
860.802	13.26
861.105	14.09
861.407	15.03
861.71	15.32
862.012	16.4
862.315	17.06
862.617	16.23
862.919	16.33
863.222	16.07
863.524	15.1
863.826	11.85
864.128	12.12
864.43	13.4
864.732	13
865.034	10.92
865.336	8.66
865.638	10.81
865.94	10.01
866.242	10.58
866.544	10.21
866.846	7.96
867.147	7.49
867.449	8.51
867.751	7.77
868.052	7.25
868.354	6.72
868.655	5.64
868.957	7.6
869.258	7.84
869.56	8.74
869.861	8.53
870.162	10.97
870.463	12.74
870.765	11.82
871.066	10.75
871.367	8.91
871.668	8.96
871.969	7.34
872.27	7.34
872.571	6.07
872.872	4.77
873.173	2.79
873.473	1.47
873.774	1.11
874.075	1.79
874.376	4.14
874.676	4.78
874.977	5.48
875.277	4.91
875.578	7.07
875.878	6.12
876.179	5.91
876.479	5.43
876.78	4.27
877.08	3.09
877.38	3.95
877.68	5.7
877.981	5.91
878.281	9.28
878.581	9.97
