Data from BU57652_Reflection_00003.txt Node
Date: Tue Nov 19 10:43:07 EST 2019
User: vgr7
Spectrometer: USB2G7710
Scans to average: 3
Trigger mode: 4
Integration Time (sec): 2.000000E-2
Electric dark correction enabled: true
Boxcar width: 10
XAxis mode: Wavelengths
Number of Pixels in Spectrum: 2048
>>>>>Begin Spectral Data<<<<<
177.721	284.64
178.105	81.75
178.488	180.87
178.871	130.53
179.254	306.45
179.636	177.7
180.019	153.96
180.402	45.83
180.785	27.87
181.168	-65.54
181.55	2946.15
181.933	-474.26
182.316	-368.09
182.698	-42.26
183.081	-27.17
183.463	-121.56
183.846	-148.8
184.228	-177.23
184.611	9.09
184.993	2.59
185.376	9.09
185.758	12.58
186.14	-25.68
186.522	6.47
186.904	3.05
187.287	-0.67
187.669	-14.04
188.051	-29.64
188.433	-65.47
188.815	-57.22
189.197	-41.1
189.579	-32.84
189.961	-27.73
190.342	-22.41
190.724	-29.47
191.106	-40.79
191.488	-30.09
191.869	-29.37
192.251	-30.59
192.633	-37.55
193.014	-43.45
193.396	-45.94
193.777	-34.51
194.159	-22.22
194.54	-43.3
194.922	-41.08
195.303	-32.35
195.684	-31.27
196.065	-29.87
196.447	-23.86
196.828	-28.3
197.209	-35.6
197.59	-30.41
197.971	-43.23
198.352	-53.96
198.733	-48.83
199.114	-41.82
199.495	-45.11
199.876	-46.33
200.257	-54.65
200.638	-57.17
201.018	-56.77
201.399	-39.07
201.78	-42.55
202.16	-45.08
202.541	-45.85
202.922	-37.3
203.302	-47.5
203.683	-35.66
204.063	-19.6
204.444	-17.67
204.824	-28.9
205.204	-13.1
205.585	-10.27
205.965	10.25
206.345	27.08
206.725	24.9
207.106	45.48
207.486	34.1
207.866	39.29
208.246	40.48
208.626	53.39
209.006	24.32
209.386	8.83
209.766	-6.95
210.145	-50.64
210.525	-25.44
210.905	-45.13
211.285	-9.96
211.664	-21.55
212.044	-28.93
212.424	-11.58
212.803	-7.6
213.183	-32.91
213.562	-22.4
213.942	-26.36
214.321	-37.85
214.701	-49.98
215.08	-59.23
215.459	-50.93
215.838	-38.82
216.218	-35.8
216.597	-30.46
216.976	-27.43
217.355	-21.59
217.734	-19.09
218.113	-6.68
218.492	-5.94
218.871	-4.19
219.25	-8.31
219.629	-2.25
220.008	-0.31
220.387	-15.14
220.766	-13.17
221.144	-3.37
221.523	-3.93
221.902	4.56
222.28	5.88
222.659	10.32
223.037	20.24
223.416	19.6
223.794	11.98
224.173	8.11
224.551	8.45
224.929	4.77
225.308	4.81
225.686	5.33
226.064	2.45
226.442	2.36
226.821	1.08
227.199	2.62
227.577	1.64
227.955	1.4
228.333	4.68
228.711	3.12
229.089	0.47
229.467	-2.08
229.845	-4.6
230.222	-3.34
230.6	-2.01
230.978	-1.83
231.356	-1.05
231.733	-0.09
232.111	3.13
232.488	2.62
232.866	5.56
233.243	6.4
233.621	5.55
233.998	4.93
234.376	2.81
234.753	3.13
235.13	2.35
235.508	2.95
235.885	2.75
236.262	3.42
236.639	4.97
237.016	5.65
237.393	7.03
237.77	8.76
238.147	8.02
238.524	7.37
238.901	6
239.278	4.75
239.655	5.46
240.032	4.75
240.409	4.99
240.785	4.57
241.162	4.14
241.539	4.07
241.915	4.18
242.292	4.51
242.668	4.65
243.045	5
243.421	4.92
243.798	5.1
244.174	5.05
244.551	4.92
244.927	4.62
245.303	4.51
245.679	4.04
246.056	4.2
246.432	4.36
246.808	4.67
247.184	5.03
247.56	4.83
247.936	4.79
248.312	4.77
248.688	4.86
249.064	5.03
249.44	4.85
249.815	4.79
250.191	5.19
250.567	5.18
250.943	5.2
251.318	4.95
251.694	4.96
252.069	5
252.445	5.19
252.82	5.36
253.196	5.72
253.571	6.03
253.947	5.83
254.322	5.59
254.697	5.6
255.073	5.47
255.448	5.2
255.823	5.23
256.198	5.03
256.573	4.86
256.948	4.61
257.323	4.79
257.698	4.66
258.073	4.26
258.448	4.17
258.823	4.01
259.198	4.17
259.573	3.91
259.948	4.03
260.322	3.89
260.697	3.94
261.072	3.76
261.446	3.66
261.821	3.69
262.195	3.81
262.57	3.82
262.944	3.61
263.319	3.75
263.693	3.68
264.067	3.71
264.442	3.61
264.816	3.75
265.19	3.8
265.564	3.84
265.938	4.02
266.313	4
266.687	3.96
267.061	3.85
267.435	4.18
267.809	3.93
268.183	4.12
268.556	4.2
268.93	4.13
269.304	4.05
269.678	4.18
270.051	4.12
270.425	4.19
270.799	4.21
271.172	4.15
271.546	4.28
271.919	4.36
272.293	4.42
272.666	4.39
273.04	4.4
273.413	4.51
273.787	4.35
274.16	4.34
274.533	4.57
274.906	4.59
275.279	4.4
275.653	4.36
276.026	4.11
276.399	3.97
276.772	3.94
277.145	4.01
277.518	3.82
277.891	3.86
278.263	3.85
278.636	3.97
279.009	3.93
279.382	3.77
279.755	3.62
280.127	3.76
280.5	3.6
280.872	3.58
281.245	3.66
281.617	3.76
281.99	3.71
282.362	3.49
282.735	3.43
283.107	3.51
283.479	3.53
283.852	3.57
284.224	3.61
284.596	3.63
284.968	3.47
285.34	3.59
285.713	3.64
286.085	3.48
286.457	3.44
286.829	3.44
287.201	3.46
287.572	3.48
287.944	3.42
288.316	3.54
288.688	3.55
289.06	3.48
289.431	3.52
289.803	3.7
290.175	3.74
290.546	3.74
290.918	3.66
291.289	3.54
291.661	3.67
292.032	3.68
292.403	3.75
292.775	4.08
293.146	4.18
293.517	4.19
293.889	4.21
294.26	4.16
294.631	4.17
295.002	4.22
295.373	4.3
295.744	4.24
296.115	4.23
296.486	4.2
296.857	4.31
297.228	4.32
297.599	4.21
297.97	4.26
298.34	4.37
298.711	4.51
299.082	4.71
299.452	4.77
299.823	4.78
300.194	4.81
300.564	4.66
300.935	4.61
301.305	4.57
301.676	4.61
302.046	4.7
302.416	4.73
302.787	4.67
303.157	4.69
303.527	4.79
303.897	4.71
304.267	4.64
304.637	4.57
305.008	4.58
305.378	4.61
305.748	4.59
306.117	4.56
306.487	4.56
306.857	4.53
307.227	4.52
307.597	4.47
307.967	4.51
308.336	4.59
308.706	4.63
309.076	4.82
309.445	4.76
309.815	4.85
310.184	4.94
310.554	4.98
310.923	4.89
311.293	4.91
311.662	4.96
312.031	4.95
312.401	4.84
312.77	4.86
313.139	4.92
313.508	5.02
313.877	4.99
314.246	4.97
314.616	5.05
314.985	4.95
315.353	4.97
315.722	5
316.091	5.05
316.46	4.96
316.829	4.8
317.198	4.97
317.567	4.93
317.935	4.72
318.304	4.8
318.672	4.97
319.041	4.89
319.41	5.03
319.778	5.12
320.147	5.31
320.515	5.31
320.883	5.26
321.252	5.16
321.62	5.2
321.988	5.15
322.357	5.08
322.725	5.26
323.093	5.19
323.461	5.07
323.829	5.06
324.197	5.25
324.565	5.26
324.933	5.15
325.301	5.15
325.669	5.22
326.037	5.18
326.405	5.16
326.772	5.29
327.14	5.17
327.508	5.32
327.875	5.25
328.243	5.25
328.61	5.36
328.978	5.28
329.346	5.3
329.713	5.33
330.08	5.33
330.448	5.12
330.815	5.16
331.182	5.19
331.55	5.13
331.917	4.94
332.284	4.82
332.651	4.89
333.018	4.89
333.385	4.98
333.752	4.93
334.119	4.88
334.486	4.81
334.853	4.82
335.22	4.71
335.587	4.58
335.954	4.48
336.32	4.43
336.687	4.58
337.054	4.59
337.42	4.65
337.787	4.64
338.153	4.68
338.52	4.8
338.886	4.8
339.253	4.72
339.619	4.75
339.986	4.81
340.352	4.82
340.718	4.84
341.084	4.85
341.451	4.98
341.817	5.01
342.183	4.96
342.549	5.02
342.915	5.1
343.281	5.24
343.647	5.27
344.013	5.29
344.379	5.27
344.745	5.24
345.11	5.12
345.476	5.19
345.842	5.25
346.208	5.24
346.573	5.26
346.939	5.33
347.304	5.28
347.67	5.24
348.035	5.19
348.401	5.26
348.766	5.22
349.132	5.23
349.497	5.15
349.862	5.18
350.228	5.16
350.593	5.12
350.958	5.16
351.323	5.15
351.688	5.06
352.053	5.05
352.418	5.08
352.783	5.18
353.148	5.17
353.513	5.1
353.878	5.14
354.243	5.11
354.608	5.14
354.972	5.11
355.337	5.11
355.702	5.15
356.066	5.13
356.431	5.11
356.795	5.04
357.16	5.17
357.524	5.12
357.889	5.05
358.253	5
358.618	4.95
358.982	4.99
359.346	5.03
359.71	4.98
360.075	4.92
360.439	4.93
360.803	4.95
361.167	5
361.531	4.96
361.895	5.01
362.259	5.02
362.623	5.1
362.987	5.14
363.351	5.07
363.714	5.05
364.078	5.08
364.442	5
364.806	4.97
365.169	5.05
365.533	5.08
365.896	5.12
366.26	5.05
366.623	5.02
366.987	5.01
367.35	5.08
367.714	5.12
368.077	5.1
368.44	5.04
368.803	5.01
369.167	5.01
369.53	4.88
369.893	4.86
370.256	4.84
370.619	4.81
370.982	4.86
371.345	4.86
371.708	4.87
372.071	4.95
372.434	4.84
372.797	4.83
373.159	4.91
373.522	4.87
373.885	4.94
374.247	4.96
374.61	4.98
374.973	4.93
375.335	4.89
375.698	4.86
376.06	4.86
376.423	4.88
376.785	4.93
377.147	5
377.51	5
377.872	4.97
378.234	4.97
378.596	4.95
378.958	4.93
379.321	4.88
379.683	4.91
380.045	4.96
380.407	4.93
380.769	4.84
381.13	4.84
381.492	4.84
381.854	4.79
382.216	4.82
382.578	4.82
382.939	4.84
383.301	4.84
383.663	4.77
384.024	4.76
384.386	4.68
384.747	4.66
385.109	4.65
385.47	4.69
385.832	4.69
386.193	4.68
386.554	4.65
386.916	4.68
387.277	4.65
387.638	4.64
387.999	4.62
388.36	4.64
388.721	4.64
389.082	4.63
389.443	4.65
389.804	4.65
390.165	4.67
390.526	4.66
390.887	4.68
391.248	4.75
391.609	4.76
391.969	4.77
392.33	4.77
392.691	4.77
393.051	4.79
393.412	4.77
393.772	4.8
394.133	4.84
394.493	4.8
394.854	4.8
395.214	4.79
395.574	4.8
395.935	4.78
396.295	4.82
396.655	4.83
397.015	4.83
397.376	4.84
397.736	4.82
398.096	4.85
398.456	4.83
398.816	4.83
399.176	4.76
399.535	4.77
399.895	4.78
400.255	4.78
400.615	4.76
400.975	4.78
401.334	4.79
401.694	4.76
402.054	4.83
402.413	4.83
402.773	4.8
403.132	4.8
403.492	4.8
403.851	4.73
404.211	4.72
404.57	4.71
404.929	4.66
405.288	4.68
405.648	4.64
406.007	4.64
406.366	4.61
406.725	4.64
407.084	4.63
407.443	4.6
407.802	4.58
408.161	4.56
408.52	4.55
408.879	4.52
409.238	4.55
409.596	4.53
409.955	4.5
410.314	4.52
410.673	4.52
411.031	4.52
411.39	4.56
411.748	4.56
412.107	4.56
412.465	4.57
412.824	4.52
413.182	4.51
413.54	4.55
413.899	4.55
414.257	4.55
414.615	4.54
414.974	4.53
415.332	4.52
415.69	4.52
416.048	4.53
416.406	4.51
416.764	4.49
417.122	4.46
417.48	4.49
417.838	4.48
418.195	4.47
418.553	4.47
418.911	4.44
419.269	4.44
419.626	4.43
419.984	4.43
420.342	4.45
420.699	4.45
421.057	4.44
421.414	4.42
421.772	4.41
422.129	4.4
422.486	4.4
422.844	4.41
423.201	4.41
423.558	4.41
423.915	4.41
424.273	4.4
424.63	4.4
424.987	4.39
425.344	4.39
425.701	4.41
426.058	4.4
426.415	4.42
426.772	4.41
427.128	4.41
427.485	4.41
427.842	4.39
428.199	4.38
428.555	4.37
428.912	4.38
429.269	4.35
429.625	4.39
429.982	4.39
430.338	4.41
430.695	4.37
431.051	4.36
431.407	4.36
431.764	4.33
432.12	4.34
432.476	4.37
432.832	4.36
433.189	4.36
433.545	4.36
433.901	4.35
434.257	4.35
434.613	4.35
434.969	4.36
435.325	4.37
435.681	4.37
436.036	4.39
436.392	4.4
436.748	4.41
437.104	4.38
437.459	4.37
437.815	4.37
438.171	4.37
438.526	4.37
438.882	4.4
439.237	4.4
439.593	4.41
439.948	4.38
440.304	4.36
440.659	4.35
441.014	4.33
441.369	4.35
441.725	4.35
442.08	4.34
442.435	4.32
442.79	4.32
443.145	4.32
443.5	4.3
443.855	4.29
444.21	4.3
444.565	4.29
444.92	4.31
445.275	4.3
445.629	4.28
445.984	4.28
446.339	4.26
446.693	4.27
447.048	4.26
447.403	4.26
447.757	4.28
448.112	4.29
448.466	4.31
448.82	4.28
449.175	4.27
449.529	4.28
449.883	4.28
450.238	4.27
450.592	4.27
450.946	4.26
451.3	4.25
451.654	4.25
452.008	4.26
452.362	4.23
452.716	4.25
453.07	4.27
453.424	4.27
453.778	4.29
454.132	4.28
454.486	4.29
454.839	4.29
455.193	4.28
455.547	4.28
455.9	4.25
456.254	4.25
456.607	4.28
456.961	4.29
457.314	4.28
457.668	4.29
458.021	4.29
458.375	4.29
458.728	4.31
459.081	4.32
459.434	4.33
459.787	4.36
460.141	4.34
460.494	4.33
460.847	4.31
461.2	4.31
461.553	4.3
461.906	4.31
462.259	4.29
462.611	4.3
462.964	4.3
463.317	4.32
463.67	4.33
464.022	4.31
464.375	4.31
464.728	4.32
465.08	4.32
465.433	4.33
465.785	4.35
466.138	4.33
466.49	4.33
466.843	4.31
467.195	4.32
467.547	4.32
467.899	4.34
468.252	4.37
468.604	4.36
468.956	4.37
469.308	4.36
469.66	4.39
470.012	4.4
470.364	4.4
470.716	4.39
471.068	4.4
471.42	4.41
471.772	4.42
472.123	4.43
472.475	4.44
472.827	4.44
473.178	4.44
473.53	4.44
473.882	4.45
474.233	4.47
474.585	4.44
474.936	4.46
475.288	4.45
475.639	4.44
475.99	4.43
476.342	4.44
476.693	4.44
477.044	4.43
477.395	4.41
477.746	4.39
478.097	4.41
478.448	4.41
478.8	4.42
479.15	4.42
479.501	4.41
479.852	4.41
480.203	4.42
480.554	4.43
480.905	4.43
481.255	4.43
481.606	4.44
481.957	4.45
482.307	4.46
482.658	4.47
483.009	4.47
483.359	4.48
483.709	4.48
484.06	4.49
484.41	4.5
484.761	4.51
485.111	4.52
485.461	4.52
485.811	4.51
486.162	4.51
486.512	4.52
486.862	4.52
487.212	4.52
487.562	4.51
487.912	4.51
488.262	4.51
488.612	4.52
488.961	4.51
489.311	4.5
489.661	4.5
490.011	4.49
490.36	4.49
490.71	4.49
491.06	4.51
491.409	4.51
491.759	4.51
492.108	4.49
492.458	4.49
492.807	4.48
493.157	4.49
493.506	4.48
493.855	4.48
494.204	4.48
494.554	4.48
494.903	4.51
495.252	4.51
495.601	4.51
495.95	4.52
496.299	4.53
496.648	4.56
496.997	4.57
497.346	4.58
497.695	4.58
498.043	4.59
498.392	4.58
498.741	4.58
499.09	4.58
499.438	4.59
499.787	4.6
500.135	4.62
500.484	4.62
500.832	4.65
501.181	4.68
501.529	4.71
501.878	4.72
502.226	4.73
502.574	4.73
502.923	4.74
503.271	4.73
503.619	4.76
503.967	4.75
504.315	4.75
504.663	4.77
505.011	4.8
505.359	4.8
505.707	4.8
506.055	4.83
506.403	4.83
506.751	4.85
507.098	4.9
507.446	4.94
507.794	4.96
508.141	4.98
508.489	4.98
508.837	4.96
509.184	4.97
509.531	4.97
509.879	4.97
510.226	4.98
510.574	5.02
510.921	5.01
511.268	5.03
511.616	5.04
511.963	5.06
512.31	5.08
512.657	5.09
513.004	5.1
513.351	5.1
513.698	5.12
514.045	5.13
514.392	5.11
514.739	5.09
515.086	5.11
515.432	5.12
515.779	5.12
516.126	5.16
516.473	5.19
516.819	5.2
517.166	5.21
517.512	5.23
517.859	5.21
518.205	5.2
518.552	5.19
518.898	5.2
519.245	5.2
519.591	5.17
519.937	5.19
520.283	5.2
520.629	5.19
520.976	5.19
521.322	5.21
521.668	5.21
522.014	5.22
522.36	5.2
522.706	5.19
523.052	5.21
523.398	5.2
523.743	5.18
524.089	5.21
524.435	5.2
524.781	5.23
525.126	5.25
525.472	5.28
525.817	5.3
526.163	5.3
526.509	5.3
526.854	5.32
527.199	5.34
527.545	5.35
527.89	5.36
528.235	5.37
528.581	5.38
528.926	5.39
529.271	5.4
529.616	5.41
529.961	5.41
530.306	5.42
530.651	5.43
530.996	5.45
531.341	5.45
531.686	5.46
532.031	5.46
532.376	5.47
532.721	5.46
533.065	5.46
533.41	5.47
533.755	5.48
534.099	5.47
534.444	5.46
534.788	5.45
535.133	5.46
535.477	5.47
535.822	5.46
536.166	5.46
536.51	5.46
536.855	5.46
537.199	5.47
537.543	5.47
537.887	5.49
538.231	5.5
538.576	5.49
538.92	5.5
539.264	5.51
539.608	5.52
539.951	5.51
540.295	5.53
540.639	5.53
540.983	5.53
541.327	5.56
541.671	5.55
542.014	5.56
542.358	5.57
542.701	5.58
543.045	5.59
543.389	5.61
543.732	5.61
544.075	5.62
544.419	5.61
544.762	5.62
545.105	5.63
545.449	5.62
545.792	5.63
546.135	5.65
546.478	5.65
546.821	5.65
547.165	5.68
547.508	5.67
547.851	5.69
548.194	5.68
548.536	5.67
548.879	5.68
549.222	5.68
549.565	5.68
549.908	5.66
550.25	5.67
550.593	5.67
550.936	5.67
551.278	5.67
551.621	5.7
551.963	5.7
552.306	5.69
552.648	5.7
552.991	5.7
553.333	5.69
553.675	5.7
554.017	5.67
554.36	5.66
554.702	5.66
555.044	5.67
555.386	5.71
555.728	5.72
556.07	5.74
556.412	5.76
556.754	5.77
557.096	5.81
557.438	5.8
557.78	5.77
558.121	5.74
558.463	5.74
558.805	5.72
559.147	5.72
559.488	5.72
559.83	5.73
560.171	5.72
560.513	5.7
560.854	5.7
561.196	5.73
561.537	5.75
561.878	5.75
562.22	5.74
562.561	5.73
562.902	5.71
563.243	5.68
563.584	5.66
563.925	5.66
564.266	5.64
564.607	5.65
564.948	5.64
565.289	5.65
565.63	5.66
565.971	5.66
566.312	5.65
566.653	5.65
566.993	5.64
567.334	5.66
567.675	5.66
568.015	5.65
568.356	5.65
568.696	5.64
569.037	5.63
569.377	5.64
569.718	5.66
570.058	5.66
570.398	5.68
570.739	5.68
571.079	5.65
571.419	5.66
571.759	5.68
572.099	5.7
572.439	5.7
572.779	5.7
573.119	5.72
573.459	5.71
573.799	5.72
574.139	5.72
574.479	5.74
574.819	5.76
575.158	5.8
575.498	5.82
575.838	5.84
576.177	5.82
576.517	5.84
576.856	5.83
577.196	5.83
577.535	5.84
577.875	5.86
578.214	5.89
578.553	5.89
578.893	5.86
579.232	5.88
579.571	5.9
579.91	5.92
580.25	5.93
580.589	5.95
580.928	5.92
581.267	5.94
581.606	5.89
581.945	5.89
582.283	5.88
582.622	5.8
582.961	5.8
583.3	5.8
583.639	5.79
583.977	5.8
584.316	5.81
584.654	5.81
584.993	5.79
585.332	5.79
585.67	5.82
586.008	5.82
586.347	5.81
586.685	5.78
587.024	5.77
587.362	5.76
587.7	5.8
588.038	5.83
588.376	5.83
588.715	5.88
589.053	5.9
589.391	5.9
589.729	5.95
590.067	5.92
590.404	5.97
590.742	5.98
591.08	5.96
591.418	6
591.756	6.02
592.093	6.03
592.431	6.03
592.769	6
593.106	5.99
593.444	6.01
593.781	6.03
594.119	6.01
594.456	6.01
594.793	5.97
595.131	5.96
595.468	6
595.805	5.99
596.143	5.98
596.48	5.99
596.817	5.98
597.154	6.01
597.491	5.97
597.828	5.93
598.165	5.89
598.502	5.85
598.839	5.82
599.176	5.85
599.512	5.86
599.849	5.9
600.186	5.93
600.523	5.92
600.859	5.94
601.196	5.98
601.532	5.98
601.869	6
602.205	5.99
602.542	5.94
602.878	5.94
603.215	5.97
603.551	5.98
603.887	5.99
604.223	5.97
604.56	6.01
604.896	6.05
605.232	6.1
605.568	6.15
605.904	6.18
606.24	6.12
606.576	6.16
606.912	6.15
607.248	6.13
607.583	6.14
607.919	6.1
608.255	6.07
608.591	6.11
608.926	6.1
609.262	6.13
609.597	6.15
609.933	6.14
610.268	6.14
610.604	6.13
610.939	6.15
611.275	6.14
611.61	6.14
611.945	6.09
612.281	6.08
612.616	6.06
612.951	6.06
613.286	6.08
613.621	6.05
613.956	6.04
614.291	6.07
614.626	6.1
614.961	6.14
615.296	6.14
615.631	6.11
615.966	6.09
616.3	6.03
616.635	6.07
616.97	6.07
617.304	6.02
617.639	6.04
617.973	5.99
618.308	6.07
618.642	6.02
618.977	6.03
619.311	6.05
619.646	6.04
619.98	6.06
620.314	6.1
620.648	6.1
620.983	6.15
621.317	6.16
621.651	6.13
621.985	6.14
622.319	6.16
622.653	6.18
622.987	6.26
623.321	6.29
623.655	6.28
623.988	6.31
624.322	6.29
624.656	6.29
624.99	6.32
625.323	6.27
625.657	6.29
625.99	6.35
626.324	6.36
626.657	6.37
626.991	6.37
627.324	6.35
627.658	6.35
627.991	6.33
628.324	6.31
628.657	6.34
628.991	6.35
629.324	6.33
629.657	6.32
629.99	6.32
630.323	6.36
630.656	6.31
630.989	6.32
631.322	6.35
631.655	6.34
631.987	6.34
632.32	6.33
632.653	6.37
632.986	6.33
633.318	6.33
633.651	6.34
633.984	6.37
634.316	6.39
634.649	6.44
634.981	6.41
635.313	6.45
635.646	6.41
635.978	6.37
636.31	6.41
636.643	6.41
636.975	6.34
637.307	6.32
637.639	6.32
637.971	6.28
638.303	6.32
638.635	6.38
638.967	6.43
639.299	6.49
639.631	6.48
639.963	6.46
640.295	6.48
640.626	6.55
640.958	6.47
641.29	6.45
641.621	6.4
641.953	6.37
642.285	6.35
642.616	6.4
642.948	6.5
643.279	6.48
643.61	6.53
643.942	6.54
644.273	6.53
644.604	6.6
644.936	6.62
645.267	6.6
645.598	6.63
645.929	6.59
646.26	6.58
646.591	6.55
646.922	6.57
647.253	6.51
647.584	6.46
647.915	6.48
648.245	6.45
648.576	6.44
648.907	6.49
649.238	6.47
649.568	6.44
649.899	6.42
650.229	6.48
650.56	6.48
650.89	6.52
651.221	6.51
651.551	6.49
651.882	6.47
652.212	6.48
652.542	6.48
652.872	6.48
653.203	6.51
653.533	6.56
653.863	6.55
654.193	6.6
654.523	6.51
654.853	6.55
655.183	6.58
655.513	6.6
655.843	6.61
656.172	6.7
656.502	6.73
656.832	6.67
657.162	6.58
657.491	6.6
657.821	6.57
658.15	6.59
658.48	6.62
658.809	6.65
659.139	6.67
659.468	6.63
659.798	6.64
660.127	6.62
660.456	6.52
660.785	6.54
661.115	6.57
661.444	6.58
661.773	6.58
662.102	6.57
662.431	6.65
662.76	6.62
663.089	6.59
663.418	6.62
663.747	6.65
664.076	6.64
664.404	6.67
664.733	6.71
665.062	6.8
665.39	6.7
665.719	6.69
666.048	6.65
666.376	6.68
666.705	6.64
667.033	6.64
667.362	6.84
667.69	6.85
668.018	6.87
668.347	6.88
668.675	6.83
669.003	6.86
669.331	6.73
669.659	6.73
669.987	6.73
670.315	6.7
670.643	6.7
670.971	6.79
671.299	6.73
671.627	6.69
671.955	6.62
672.283	6.71
672.61	6.69
672.938	6.68
673.266	6.65
673.593	6.66
673.921	6.64
674.249	6.54
674.576	6.64
674.904	6.59
675.231	6.72
675.558	6.81
675.886	6.77
676.213	6.79
676.54	6.85
676.867	6.79
677.195	6.8
677.522	6.76
677.849	6.77
678.176	6.75
678.503	6.78
678.83	6.76
679.157	6.75
679.484	6.78
679.81	6.81
680.137	6.84
680.464	6.89
680.791	6.93
681.117	6.94
681.444	6.93
681.771	6.96
682.097	6.89
682.424	6.86
682.75	6.94
683.077	7.01
683.403	7.02
683.729	7.03
684.056	7.05
684.382	7.21
684.708	7.24
685.034	7.3
685.36	7.23
685.686	7.24
686.012	7.29
686.339	7.29
686.664	7.43
686.99	7.38
687.316	7.36
687.642	7.35
687.968	7.39
688.294	7.36
688.619	7.36
688.945	7.39
689.271	7.36
689.596	7.44
689.922	7.39
690.247	7.4
690.573	7.4
690.898	7.43
691.224	7.4
691.549	7.39
691.874	7.45
692.2	7.57
692.525	7.6
692.85	7.52
693.175	7.61
693.5	7.45
693.825	7.47
694.15	7.5
694.475	7.54
694.8	7.52
695.125	7.47
695.45	7.47
695.775	7.46
696.099	7.5
696.424	7.4
696.749	7.5
697.073	7.39
697.398	7.46
697.723	7.46
698.047	7.47
698.372	7.47
698.696	7.48
699.02	7.49
699.345	7.51
699.669	7.56
699.993	7.48
700.318	7.57
700.642	7.59
700.966	7.66
701.29	7.68
701.614	7.74
701.938	7.79
702.262	7.88
702.586	7.96
702.91	7.9
703.234	7.83
703.557	7.76
703.881	7.89
704.205	7.92
704.529	7.89
704.852	7.86
705.176	7.89
705.499	7.9
705.823	7.88
706.146	7.94
706.47	8.04
706.793	8.21
707.117	8.14
707.44	8.03
707.763	7.95
708.086	7.81
708.409	7.71
708.733	7.65
709.056	7.67
709.379	7.66
709.702	7.82
710.025	8.14
710.348	8.08
710.671	8.11
710.993	8.02
711.316	8.03
711.639	7.97
711.962	7.94
712.284	7.9
712.607	7.9
712.93	7.76
713.252	7.72
713.575	7.68
713.897	7.69
714.22	7.71
714.542	7.76
714.864	7.84
715.187	7.82
715.509	7.79
715.831	7.57
716.153	7.59
716.475	7.56
716.798	7.43
717.12	7.59
717.442	7.65
717.764	7.73
718.085	7.82
718.407	8
718.729	8.02
719.051	7.99
719.373	8.14
719.695	8.29
720.016	8.19
720.338	8.21
720.659	8.11
720.981	8.18
721.302	8.26
721.624	8.32
721.945	8.49
722.267	8.5
722.588	8.63
722.909	8.73
723.231	8.76
723.552	8.62
723.873	8.63
724.194	8.58
724.515	8.63
724.836	8.51
725.157	8.47
725.478	8.55
725.799	8.59
726.12	8.37
726.441	8.45
726.762	8.66
727.083	8.68
727.403	8.87
727.724	8.92
728.045	8.72
728.365	8.68
728.686	8.57
729.006	8.59
729.327	8.55
729.647	8.48
729.967	8.49
730.288	8.7
730.608	8.58
730.928	8.61
731.249	8.57
731.569	8.61
731.889	8.36
732.209	8.26
732.529	8.45
732.849	8.54
733.169	8.53
733.489	8.35
733.809	8.39
734.129	8.37
734.448	8.41
734.768	8.43
735.088	8.42
735.408	8.34
735.727	8.43
736.047	8.55
736.366	8.56
736.686	8.39
737.005	8.24
737.325	8.23
737.644	8.08
737.963	8.09
738.283	8.12
738.602	8.42
738.921	8.46
739.24	8.19
739.56	8.36
739.879	8.37
740.198	8.52
740.517	8.45
740.836	8.47
741.155	8.42
741.473	8.36
741.792	8.38
742.111	8.55
742.43	8.68
742.748	8.57
743.067	8.35
743.386	8.51
743.704	8.63
744.023	8.72
744.341	8.86
744.66	9.03
744.978	8.93
745.297	8.74
745.615	8.54
745.933	8.54
746.252	8.48
746.57	8.37
746.888	8.29
747.206	8.23
747.524	8.19
747.842	8.06
748.16	8.31
748.478	8.46
748.796	8.49
749.114	8.3
749.432	8.28
749.749	8.54
750.067	8.39
750.385	8.47
750.703	8.23
751.02	8.17
751.338	7.87
751.655	8.12
751.973	8.28
752.29	8.4
752.608	8.28
752.925	8.11
753.242	8.22
753.56	7.94
753.877	7.71
754.194	7.79
754.511	7.89
754.828	7.84
755.145	7.79
755.462	7.74
755.779	7.77
756.096	8.01
756.413	8.26
756.73	8.49
757.047	8.29
757.364	8.38
757.68	8.54
757.997	8.69
758.314	8.82
758.63	8.89
758.947	8.93
759.264	9.21
759.58	9.49
759.896	9.5
760.213	9.9
760.529	10.05
760.846	9.93
761.162	9.88
761.478	9.92
761.794	9.9
762.11	9.9
762.426	9.85
762.743	9.89
763.059	9.55
763.375	9.42
763.69	9.43
764.006	9.51
764.322	9.35
764.638	9.38
764.954	9.26
765.27	9.28
765.585	9.3
765.901	9.04
766.216	8.88
766.532	8.72
766.848	8.44
767.163	8.6
767.478	8.76
767.794	8.88
768.109	8.77
768.424	8.73
768.74	8.79
769.055	9.05
769.37	8.75
769.685	8.86
770	9.11
770.315	9.39
770.63	9.53
770.945	9.56
771.26	9.53
771.575	9.39
771.89	8.96
772.205	9.01
772.52	9.05
772.834	8.7
773.149	9.01
773.464	9.23
773.778	9.25
774.093	9.31
774.407	9.12
774.722	9.2
775.036	9.09
775.351	8.97
775.665	8.79
775.979	9.14
776.293	9.36
776.608	9.16
776.922	8.98
777.236	8.67
777.55	8.5
777.864	8.46
778.178	8.37
778.492	8.72
778.806	8.92
779.12	9.29
779.434	9.46
779.747	9.49
780.061	9.79
780.375	9.6
780.689	9.64
781.002	9.92
781.316	10.08
781.629	10.3
781.943	10.31
782.256	10.1
782.57	9.93
782.883	10
783.196	10.15
783.51	10.22
783.823	10.41
784.136	10.49
784.449	10.64
784.762	10.83
785.075	10.77
785.388	10.72
785.701	10.54
786.014	10.61
786.327	10.13
786.64	10.01
786.953	10.04
787.266	10.08
787.578	10.2
787.891	10.17
788.204	10.19
788.516	10.22
788.829	10.4
789.141	10.51
789.454	10.25
789.766	9.95
790.079	9.83
790.391	9.79
790.703	9.88
791.016	9.91
791.328	10.06
791.64	10.37
791.952	10.4
792.264	10.27
792.576	10.23
792.888	10.58
793.2	10.33
793.512	10.31
793.824	10.02
794.136	9.86
794.448	10.49
794.76	10.83
795.071	10.82
795.383	10.73
795.695	10.85
796.006	10.86
796.318	11.21
796.629	11.09
796.941	11.1
797.252	11.3
797.564	11.49
797.875	11.29
798.186	10.8
798.497	10.69
798.809	10.62
799.12	10.58
799.431	11.21
799.742	11.35
800.053	11.06
800.364	11.34
800.675	11.23
800.986	10.22
801.297	9.72
801.608	9.78
801.918	10.28
802.229	10.35
802.54	10.13
802.851	10.19
803.161	10.43
803.472	10.39
803.782	10.63
804.093	10.22
804.403	10.46
804.714	11.24
805.024	11.38
805.334	11.5
805.645	12.29
805.955	11.26
806.265	11.65
806.575	11.88
806.885	11.66
807.195	12.14
807.505	12.6
807.815	12.98
808.125	13
808.435	12.25
808.745	11.86
809.055	11.86
809.365	11.84
809.674	12.23
809.984	11.56
810.294	11.6
810.603	11.27
810.913	11.09
811.222	10.34
811.532	10.29
811.841	10.65
812.151	10.4
812.46	10.94
812.769	10.87
813.079	10.94
813.388	10.54
813.697	10.21
814.006	10.14
814.315	9.93
814.624	10
814.933	10.07
815.242	10.46
815.551	11.75
815.86	12.22
816.169	11.31
816.478	12.23
816.786	12.24
817.095	12.51
817.404	12.23
817.712	11.84
818.021	11.6
818.33	11.27
818.638	11.52
818.947	11.21
819.255	11.06
819.563	11.37
819.872	11.43
820.18	11.42
820.488	11.84
820.796	11.63
821.105	11.72
821.413	11.88
821.721	12.02
822.029	11.69
822.337	11.43
822.645	11.52
822.953	11.5
823.26	11.6
823.568	11.6
823.876	11.67
824.184	11.81
824.491	11.93
824.799	11.88
825.107	11.69
825.414	11.71
825.722	11.62
826.029	11.62
826.337	11.76
826.644	11.93
826.951	11.77
827.259	11.92
827.566	11.97
827.873	12
828.18	11.72
828.488	11.7
828.795	11.74
829.102	11.81
829.409	11.91
829.716	11.62
830.023	11.62
830.329	11.56
830.636	11.57
830.943	11.21
831.25	11.71
831.557	12.1
831.863	12.12
832.17	12.31
832.476	12.17
832.783	12.23
833.089	11.88
833.396	11.7
833.702	11.91
834.009	12.06
834.315	11.84
834.621	12.06
834.928	12.18
835.234	12.22
835.54	12.44
835.846	12.68
836.152	12.66
836.458	12.5
836.764	12.77
837.07	12.93
837.376	13.21
837.682	13
837.988	12.71
838.293	13.18
838.599	13.26
838.905	13.34
839.211	12.71
839.516	12.32
839.822	12.55
840.127	11.8
840.433	10.98
840.738	11.07
841.044	11.04
841.349	10.78
841.654	10.23
841.959	9.8
842.265	9.1
842.57	8.89
842.875	8.87
843.18	8.54
843.485	8.3
843.79	7.32
844.095	6.54
844.4	6.42
844.705	6.31
845.01	6.46
845.315	6.12
845.619	6.69
845.924	7.11
846.229	7.19
846.533	7.24
846.838	5.64
847.142	4.97
847.447	5.17
847.751	4.46
848.056	4.18
848.36	4.66
848.664	3.14
848.969	3.29
849.273	2.91
849.577	2.54
849.881	2.33
850.185	4.68
850.489	5.38
850.794	6.81
851.097	5.41
851.401	4.19
851.705	4.35
852.009	5.32
852.313	4.48
852.617	3.89
852.92	4.4
853.224	6.09
853.528	5.45
853.831	3.83
854.135	4.53
854.438	6.73
854.742	5.39
855.045	7.56
855.349	7.37
855.652	8.7
855.955	8.67
856.259	9.76
856.562	7.96
856.865	8.83
857.168	6.7
857.471	8.62
857.774	9.9
858.077	9.81
858.38	9.64
858.683	13.23
858.986	13.66
859.289	14.08
859.592	16.26
859.894	19.88
860.197	20.51
860.5	21.03
860.802	19.16
861.105	20.39
861.407	20.84
861.71	21.13
862.012	21.92
862.315	22.34
862.617	21.95
862.919	24.38
863.222	23.1
863.524	22.96
863.826	20.4
864.128	20.15
864.43	20.57
864.732	19.46
865.034	15.69
865.336	15.97
865.638	14.22
865.94	13.76
866.242	11.47
866.544	11.83
866.846	13.53
867.147	15.26
867.449	16.23
867.751	15.96
868.052	17.1
868.354	16.26
868.655	16.91
868.957	16.07
869.258	14.51
869.56	14.55
869.861	17.39
870.162	17.58
870.463	18.9
870.765	16.98
871.066	18.31
871.367	19.56
871.668	17.6
871.969	19.72
872.27	19.97
872.571	18.75
872.872	20.67
873.173	19.09
873.473	17.13
873.774	15.86
874.075	14.7
874.376	12.18
874.676	13.36
874.977	15.08
875.277	13.44
875.578	13.96
875.878	14.2
876.179	12.31
876.479	12.87
876.78	11.49
877.08	13.03
877.38	11.12
877.68	10.7
877.981	12.35
878.281	12.03
878.581	9.66
