Data from BU57614_Reflection_00012.txt Node
Date: Mon Nov 18 16:24:38 EST 2019
User: vgr7
Spectrometer: USB2G7710
Scans to average: 3
Trigger mode: 4
Integration Time (sec): 2.000000E-2
Electric dark correction enabled: true
Boxcar width: 10
XAxis mode: Wavelengths
Number of Pixels in Spectrum: 2048
>>>>>Begin Spectral Data<<<<<
177.721	546.95
178.105	-43.77
178.488	-9.91
178.871	-148.74
179.254	-24.57
179.636	274.76
180.019	64.32
180.402	-7.55
180.785	100
181.168	-718.18
181.55	72.29
181.933	103.52
182.316	141.38
182.698	115.72
183.081	144.56
183.463	161.94
183.846	192.16
184.228	274.62
184.611	203.17
184.993	377.35
185.376	-11194.12
185.758	-5693.1
186.14	2522.02
186.522	-6001.69
186.904	-1496.57
187.287	-1330.6
187.669	-477.66
188.051	-660.43
188.433	-218.64
188.815	-157.41
189.197	-188.43
189.579	-160.67
189.961	-135.85
190.342	-143.39
190.724	-144.08
191.106	-171.72
191.488	-185.85
191.869	-132.54
192.251	-112.07
192.633	-106.6
193.014	-122.07
193.396	-204.37
193.777	-185.49
194.159	-168.51
194.54	-103.03
194.922	-71.06
195.303	-63.91
195.684	-58.6
196.065	-53.13
196.447	-55.95
196.828	-72.55
197.209	-68.02
197.59	-71.77
197.971	-78.2
198.352	-48.94
198.733	-39.48
199.114	-32.3
199.495	-17.72
199.876	-21.9
200.257	-22.75
200.638	-17.98
201.018	-18.78
201.399	-16.67
201.78	-17.09
202.16	-20.43
202.541	-48.65
202.922	-59.06
203.302	-82.21
203.683	-94.12
204.063	-114.2
204.444	-105.04
204.824	-83.18
205.204	-64.3
205.585	-45.13
205.965	-51.25
206.345	-76.74
206.725	-88.27
207.106	-92.24
207.486	-122.1
207.866	-114.75
208.246	-94.81
208.626	-100.94
209.006	-64.92
209.386	-83.1
209.766	-97.44
210.145	-74.56
210.525	-58.45
210.905	-54.07
211.285	-43.92
211.664	-45.92
212.044	-53.87
212.424	-45.48
212.803	-45.1
213.183	-43.13
213.562	-42
213.942	-23.04
214.321	-22.36
214.701	-15.1
215.08	-14.53
215.459	-8.53
215.838	-1.36
216.218	-14.41
216.597	-10.96
216.976	-19.13
217.355	-18.15
217.734	-7.71
218.113	-12.81
218.492	-9.23
218.871	-8.56
219.25	-6.1
219.629	-6.13
220.008	4.17
220.387	-0.43
220.766	1.47
221.144	-5.6
221.523	-16.12
221.902	-27.15
222.28	-28.88
222.659	-35.32
223.037	-35.3
223.416	-46.17
223.794	-47.35
224.173	-44.99
224.551	-39.89
224.929	-30.12
225.308	-23.97
225.686	-28.14
226.064	-23.28
226.442	-25.24
226.821	-19.81
227.199	-20.37
227.577	-16.52
227.955	-19.99
228.333	-20.15
228.711	-19.91
229.089	-15.61
229.467	-13.2
229.845	-14.6
230.222	-11.6
230.6	-11.14
230.978	-9.81
231.356	-7.36
231.733	-6.22
232.111	-4.86
232.488	-4.91
232.866	-5.27
233.243	-4.69
233.621	-4.53
233.998	-2.35
234.376	-2.82
234.753	-4.26
235.13	-2.58
235.508	-1.95
235.885	-1.76
236.262	-1.21
236.639	-0.5
237.016	0.3
237.393	2.43
237.77	3.56
238.147	4
238.524	4.58
238.901	4.67
239.278	5.43
239.655	6.1
240.032	6.1
240.409	5.68
240.785	5.53
241.162	5.32
241.539	5.44
241.915	4.82
242.292	4.7
242.668	4.99
243.045	5.05
243.421	5.08
243.798	5.09
244.174	5.19
244.551	5.1
244.927	4.58
245.303	4.56
245.679	4.41
246.056	4.26
246.432	4.3
246.808	4.21
247.184	3.73
247.56	3.56
247.936	3.64
248.312	3.64
248.688	3.79
249.064	3.91
249.44	4.01
249.815	3.91
250.191	4.12
250.567	4.11
250.943	3.88
251.318	3.81
251.694	3.58
252.069	3.29
252.445	3.36
252.82	3.58
253.196	3.42
253.571	3.59
253.947	3.58
254.322	3.52
254.697	3.47
255.073	3.62
255.448	3.62
255.823	3.73
256.198	3.65
256.573	3.76
256.948	3.9
257.323	3.95
257.698	4.02
258.073	4.11
258.448	3.97
258.823	3.94
259.198	3.73
259.573	3.93
259.948	3.99
260.322	3.83
260.697	3.81
261.072	3.71
261.446	3.67
261.821	3.6
262.195	3.59
262.57	3.52
262.944	3.43
263.319	3.47
263.693	3.32
264.067	3.5
264.442	3.41
264.816	3.25
265.19	3.09
265.564	3.09
265.938	3.11
266.313	3.04
266.687	3.09
267.061	3.45
267.435	3.44
267.809	3.62
268.183	3.63
268.556	3.59
268.93	3.64
269.304	3.75
269.678	3.75
270.051	3.82
270.425	3.91
270.799	4.06
271.172	4.02
271.546	3.9
271.919	3.74
272.293	3.76
272.666	3.73
273.04	3.56
273.413	3.63
273.787	3.61
274.16	3.63
274.533	3.61
274.906	3.49
275.279	3.45
275.653	3.35
276.026	3.3
276.399	3.34
276.772	3.37
277.145	3.13
277.518	3.2
277.891	3.1
278.263	3.02
278.636	3.04
279.009	2.98
279.382	3.38
279.755	3.39
280.127	3.5
280.5	3.52
280.872	3.79
281.245	3.75
281.617	3.75
281.99	3.78
282.362	3.9
282.735	3.8
283.107	3.91
283.479	3.92
283.852	4
284.224	4.02
284.596	4.11
284.968	4.32
285.34	4.38
285.713	4.41
286.085	4.54
286.457	4.63
286.829	4.67
287.201	4.55
287.572	4.62
287.944	4.41
288.316	4.54
288.688	4.5
289.06	4.51
289.431	4.53
289.803	4.65
290.175	4.59
290.546	4.66
290.918	4.59
291.289	4.72
291.661	4.8
292.032	4.98
292.403	4.92
292.775	4.89
293.146	4.92
293.517	4.88
293.889	4.84
294.26	4.74
294.631	4.85
295.002	4.74
295.373	4.75
295.744	5.09
296.115	5.02
296.486	5.1
296.857	5.18
297.228	5.23
297.599	5.16
297.97	5.27
298.34	5.34
298.711	5.46
299.082	5.28
299.452	5.44
299.823	5.44
300.194	5.53
300.564	5.54
300.935	5.58
301.305	5.74
301.676	5.87
302.046	6.04
302.416	5.97
302.787	6.21
303.157	6.37
303.527	6.25
303.897	6.28
304.267	6.4
304.637	6.42
305.008	6.37
305.378	6.47
305.748	6.52
306.117	6.61
306.487	6.71
306.857	6.88
307.227	6.85
307.597	6.86
307.967	6.96
308.336	7.01
308.706	7.16
309.076	7.13
309.445	7.13
309.815	7.19
310.184	7.32
310.554	7.37
310.923	7.34
311.293	7.36
311.662	7.41
312.031	7.47
312.401	7.64
312.77	7.81
313.139	7.93
313.508	7.95
313.877	8.02
314.246	8.06
314.616	8.07
314.985	8.11
315.353	8.14
315.722	8.18
316.091	8.32
316.46	8.37
316.829	8.49
317.198	8.61
317.567	8.65
317.935	8.81
318.304	8.89
318.672	8.94
319.041	9.03
319.41	9.16
319.778	9.18
320.147	9.12
320.515	9.08
320.883	9.06
321.252	9.18
321.62	9.29
321.988	9.23
322.357	9.41
322.725	9.52
323.093	9.68
323.461	9.75
323.829	9.83
324.197	9.77
324.565	9.97
324.933	10.05
325.301	10.09
325.669	10.06
326.037	10
326.405	10.14
326.772	10.19
327.14	10.26
327.508	10.23
327.875	10.32
328.243	10.5
328.61	10.56
328.978	10.42
329.346	10.52
329.713	10.52
330.08	10.65
330.448	10.73
330.815	10.72
331.182	10.81
331.55	10.84
331.917	10.88
332.284	10.99
332.651	11.06
333.018	11.11
333.385	11.23
333.752	11.39
334.119	11.43
334.486	11.46
334.853	11.54
335.22	11.56
335.587	11.62
335.954	11.66
336.32	11.82
336.687	11.94
337.054	11.95
337.42	12.05
337.787	12.09
338.153	12.02
338.52	12.09
338.886	12.05
339.253	12.11
339.619	12.11
339.986	11.98
340.352	11.93
340.718	11.91
341.084	11.9
341.451	11.87
341.817	11.8
342.183	11.91
342.549	11.83
342.915	11.99
343.281	11.99
343.647	11.9
344.013	11.85
344.379	11.99
344.745	12.09
345.11	12.18
345.476	12.13
345.842	12.15
346.208	12.06
346.573	12.11
346.939	12.16
347.304	12.13
347.67	12.16
348.035	12.13
348.401	12.24
348.766	12.27
349.132	12.39
349.497	12.52
349.862	12.57
350.228	12.69
350.593	12.62
350.958	12.62
351.323	12.76
351.688	12.73
352.053	12.75
352.418	12.75
352.783	12.77
353.148	12.74
353.513	12.75
353.878	12.92
354.243	12.89
354.608	12.93
354.972	13.03
355.337	13.09
355.702	13.15
356.066	13.1
356.431	13.07
356.795	13
357.16	12.9
357.524	12.8
357.889	12.69
358.253	12.68
358.618	12.62
358.982	12.54
359.346	12.51
359.71	12.46
360.075	12.39
360.439	12.31
360.803	12.31
361.167	12.27
361.531	12.22
361.895	12.24
362.259	12.15
362.623	12.11
362.987	12.05
363.351	12
363.714	11.99
364.078	11.96
364.442	11.92
364.806	11.94
365.169	11.97
365.533	11.93
365.896	11.88
366.26	11.88
366.623	11.85
366.987	11.84
367.35	11.79
367.714	11.69
368.077	11.6
368.44	11.5
368.803	11.5
369.167	11.28
369.53	11.23
369.893	11.2
370.256	11.18
370.619	11.13
370.982	11.02
371.345	10.91
371.708	10.81
372.071	10.73
372.434	10.64
372.797	10.54
373.159	10.51
373.522	10.49
373.885	10.42
374.247	10.37
374.61	10.25
374.973	10.18
375.335	10.11
375.698	10.05
376.06	10.03
376.423	9.97
376.785	10.04
377.147	9.94
377.51	9.84
377.872	9.79
378.234	9.76
378.596	9.72
378.958	9.67
379.321	9.61
379.683	9.6
380.045	9.54
380.407	9.43
380.769	9.37
381.13	9.3
381.492	9.21
381.854	9.12
382.216	9.1
382.578	9.01
382.939	8.94
383.301	8.86
383.663	8.77
384.024	8.6
384.386	8.54
384.747	8.44
385.109	8.43
385.47	8.34
385.832	8.22
386.193	8.21
386.554	8.16
386.916	8.09
387.277	7.99
387.638	7.91
387.999	7.85
388.36	7.79
388.721	7.73
389.082	7.71
389.443	7.64
389.804	7.54
390.165	7.48
390.526	7.47
390.887	7.41
391.248	7.41
391.609	7.43
391.969	7.36
392.33	7.33
392.691	7.26
393.051	7.17
393.412	7.16
393.772	7.06
394.133	6.97
394.493	6.92
394.854	6.86
395.214	6.81
395.574	6.77
395.935	6.7
396.295	6.68
396.655	6.59
397.015	6.52
397.376	6.5
397.736	6.44
398.096	6.35
398.456	6.3
398.816	6.22
399.176	6.09
399.535	6.05
399.895	6
400.255	5.9
400.615	5.87
400.975	5.77
401.334	5.76
401.694	5.72
402.054	5.65
402.413	5.61
402.773	5.58
403.132	5.53
403.492	5.46
403.851	5.39
404.211	5.36
404.57	5.36
404.929	5.33
405.288	5.29
405.648	5.26
406.007	5.23
406.366	5.22
406.725	5.27
407.084	5.23
407.443	5.21
407.802	5.24
408.161	5.22
408.52	5.21
408.879	5.16
409.238	5.16
409.596	5.17
409.955	5.16
410.314	5.14
410.673	5.15
411.031	5.15
411.39	5.1
411.748	5.06
412.107	5.03
412.465	5.01
412.824	4.99
413.182	4.96
413.54	4.97
413.899	4.94
414.257	4.89
414.615	4.85
414.974	4.83
415.332	4.82
415.69	4.79
416.048	4.77
416.406	4.76
416.764	4.72
417.122	4.7
417.48	4.67
417.838	4.63
418.195	4.62
418.553	4.57
418.911	4.56
419.269	4.55
419.626	4.52
419.984	4.47
420.342	4.46
420.699	4.44
421.057	4.41
421.414	4.38
421.772	4.36
422.129	4.34
422.486	4.32
422.844	4.3
423.201	4.28
423.558	4.25
423.915	4.23
424.273	4.21
424.63	4.19
424.987	4.16
425.344	4.15
425.701	4.11
426.058	4.1
426.415	4.1
426.772	4.08
427.128	4.06
427.485	4.08
427.842	4.06
428.199	4.06
428.555	4.06
428.912	4.07
429.269	4.07
429.625	4.04
429.982	4
430.338	3.98
430.695	3.97
431.051	3.96
431.407	3.96
431.764	3.94
432.12	3.92
432.476	3.92
432.832	3.89
433.189	3.91
433.545	3.89
433.901	3.88
434.257	3.85
434.613	3.86
434.969	3.84
435.325	3.84
435.681	3.84
436.036	3.81
436.392	3.8
436.748	3.79
437.104	3.79
437.459	3.79
437.815	3.79
438.171	3.79
438.526	3.8
438.882	3.78
439.237	3.78
439.593	3.79
439.948	3.79
440.304	3.8
440.659	3.79
441.014	3.81
441.369	3.8
441.725	3.81
442.08	3.79
442.435	3.8
442.79	3.79
443.145	3.79
443.5	3.77
443.855	3.74
444.21	3.74
444.565	3.75
444.92	3.75
445.275	3.72
445.629	3.72
445.984	3.71
446.339	3.69
446.693	3.67
447.048	3.66
447.403	3.64
447.757	3.61
448.112	3.6
448.466	3.58
448.82	3.57
449.175	3.57
449.529	3.56
449.883	3.54
450.238	3.51
450.592	3.49
450.946	3.49
451.3	3.47
451.654	3.45
452.008	3.42
452.362	3.39
452.716	3.4
453.07	3.39
453.424	3.37
453.778	3.36
454.132	3.36
454.486	3.35
454.839	3.35
455.193	3.34
455.547	3.35
455.9	3.35
456.254	3.36
456.607	3.36
456.961	3.35
457.314	3.34
457.668	3.35
458.021	3.33
458.375	3.34
458.728	3.35
459.081	3.36
459.434	3.36
459.787	3.38
460.141	3.38
460.494	3.38
460.847	3.38
461.2	3.38
461.553	3.39
461.906	3.4
462.259	3.41
462.611	3.42
462.964	3.44
463.317	3.44
463.67	3.44
464.022	3.44
464.375	3.47
464.728	3.49
465.08	3.5
465.433	3.51
465.785	3.53
466.138	3.56
466.49	3.58
466.843	3.6
467.195	3.61
467.547	3.64
467.899	3.65
468.252	3.68
468.604	3.71
468.956	3.69
469.308	3.72
469.66	3.73
470.012	3.74
470.364	3.73
470.716	3.77
471.068	3.76
471.42	3.76
471.772	3.78
472.123	3.79
472.475	3.8
472.827	3.83
473.178	3.82
473.53	3.8
473.882	3.8
474.233	3.8
474.585	3.8
474.936	3.8
475.288	3.82
475.639	3.84
475.99	3.84
476.342	3.85
476.693	3.83
477.044	3.86
477.395	3.85
477.746	3.85
478.097	3.84
478.448	3.84
478.8	3.84
479.15	3.82
479.501	3.82
479.852	3.83
480.203	3.82
480.554	3.82
480.905	3.84
481.255	3.83
481.606	3.83
481.957	3.82
482.307	3.82
482.658	3.81
483.009	3.8
483.359	3.8
483.709	3.81
484.06	3.8
484.41	3.8
484.761	3.81
485.111	3.8
485.461	3.8
485.811	3.8
486.162	3.79
486.512	3.8
486.862	3.79
487.212	3.78
487.562	3.79
487.912	3.79
488.262	3.78
488.612	3.79
488.961	3.78
489.311	3.78
489.661	3.78
490.011	3.78
490.36	3.77
490.71	3.77
491.06	3.77
491.409	3.78
491.759	3.77
492.108	3.78
492.458	3.78
492.807	3.79
493.157	3.8
493.506	3.82
493.855	3.82
494.204	3.83
494.554	3.86
494.903	3.86
495.252	3.86
495.601	3.88
495.95	3.9
496.299	3.93
496.648	3.95
496.997	4
497.346	4.05
497.695	4.1
498.043	4.13
498.392	4.17
498.741	4.21
499.09	4.24
499.438	4.27
499.787	4.33
500.135	4.35
500.484	4.4
500.832	4.45
501.181	4.51
501.529	4.56
501.878	4.62
502.226	4.68
502.574	4.73
502.923	4.79
503.271	4.85
503.619	4.91
503.967	4.98
504.315	5.03
504.663	5.06
505.011	5.14
505.359	5.2
505.707	5.26
506.055	5.33
506.403	5.42
506.751	5.51
507.098	5.57
507.446	5.67
507.794	5.75
508.141	5.81
508.489	5.86
508.837	5.94
509.184	6
509.531	6.08
509.879	6.19
510.226	6.29
510.574	6.38
510.921	6.48
511.268	6.55
511.616	6.63
511.963	6.74
512.31	6.82
512.657	6.92
513.004	7.02
513.351	7.14
513.698	7.26
514.045	7.37
514.392	7.48
514.739	7.59
515.086	7.71
515.432	7.83
515.779	7.97
516.126	8.11
516.473	8.23
516.819	8.36
517.166	8.46
517.512	8.55
517.859	8.63
518.205	8.73
518.552	8.84
518.898	8.93
519.245	9.04
519.591	9.16
519.937	9.25
520.283	9.37
520.629	9.48
520.976	9.61
521.322	9.74
521.668	9.89
522.014	10.03
522.36	10.2
522.706	10.38
523.052	10.55
523.398	10.72
523.743	10.91
524.089	11.08
524.435	11.28
524.781	11.48
525.126	11.66
525.472	11.82
525.817	11.96
526.163	12.1
526.509	12.23
526.854	12.37
527.199	12.49
527.545	12.62
527.89	12.73
528.235	12.85
528.581	12.98
528.926	13.11
529.271	13.26
529.616	13.39
529.961	13.5
530.306	13.65
530.651	13.8
530.996	13.98
531.341	14.16
531.686	14.34
532.031	14.52
532.376	14.71
532.721	14.91
533.065	15.11
533.41	15.34
533.755	15.58
534.099	15.79
534.444	16.01
534.788	16.24
535.133	16.46
535.477	16.69
535.822	16.93
536.166	17.19
536.51	17.48
536.855	17.8
537.199	18.13
537.543	18.45
537.887	18.75
538.231	19.05
538.576	19.35
538.92	19.63
539.264	19.93
539.608	20.21
539.951	20.48
540.295	20.76
540.639	21
540.983	21.23
541.327	21.49
541.671	21.73
542.014	21.98
542.358	22.24
542.701	22.48
543.045	22.72
543.389	22.98
543.732	23.22
544.075	23.45
544.419	23.73
544.762	23.99
545.105	24.29
545.449	24.6
545.792	24.91
546.135	25.25
546.478	25.58
546.821	25.94
547.165	26.27
547.508	26.62
547.851	26.99
548.194	27.35
548.536	27.71
548.879	28.09
549.222	28.4
549.565	28.8
549.908	29.2
550.25	29.59
550.593	29.93
550.936	30.32
551.278	30.69
551.621	31.05
551.963	31.46
552.306	31.81
552.648	32.14
552.991	32.52
553.333	32.85
553.675	33.21
554.017	33.55
554.36	33.93
554.702	34.22
555.044	34.51
555.386	34.84
555.728	35.17
556.07	35.57
556.412	35.92
556.754	36.23
557.096	36.56
557.438	36.83
557.78	37.22
558.121	37.6
558.463	37.94
558.805	38.27
559.147	38.52
559.488	38.84
559.83	39.16
560.171	39.47
560.513	39.83
560.854	40.07
561.196	40.36
561.537	40.63
561.878	40.97
562.22	41.27
562.561	41.61
562.902	41.88
563.243	42.06
563.584	42.36
563.925	42.67
564.266	42.88
564.607	43.16
564.948	43.41
565.289	43.58
565.63	43.8
565.971	44.06
566.312	44.34
566.653	44.55
566.993	44.71
567.334	44.91
567.675	45.11
568.015	45.3
568.356	45.51
568.696	45.71
569.037	45.95
569.377	46.16
569.718	46.35
570.058	46.54
570.398	46.82
570.739	47.02
571.079	47.15
571.419	47.38
571.759	47.54
572.099	47.68
572.439	47.84
572.779	47.96
573.119	48.13
573.459	48.31
573.799	48.47
574.139	48.67
574.479	48.81
574.819	48.92
575.158	49.08
575.498	49.22
575.838	49.39
576.177	49.54
576.517	49.68
576.856	49.83
577.196	50.01
577.535	50.09
577.875	50.22
578.214	50.4
578.553	50.55
578.893	50.76
579.232	50.95
579.571	51.08
579.91	51.27
580.25	51.37
580.589	51.45
580.928	51.58
581.267	51.68
581.606	51.83
581.945	52.06
582.283	52.18
582.622	52.29
582.961	52.38
583.3	52.39
583.639	52.52
583.977	52.61
584.316	52.68
584.654	52.78
584.993	52.91
585.332	53.01
585.67	53.06
586.008	53.11
586.347	53.14
586.685	53.24
587.024	53.29
587.362	53.37
587.7	53.43
588.038	53.53
588.376	53.67
588.715	53.77
589.053	53.8
589.391	53.91
589.729	53.97
590.067	54.06
590.404	54.16
590.742	54.34
591.08	54.35
591.418	54.44
591.756	54.57
592.093	54.66
592.431	54.72
592.769	54.81
593.106	54.89
593.444	55.01
593.781	55.05
594.119	55.16
594.456	55.23
594.793	55.28
595.131	55.38
595.468	55.44
595.805	55.43
596.143	55.46
596.48	55.55
596.817	55.63
597.154	55.68
597.491	55.81
597.828	55.79
598.165	55.86
598.502	55.88
598.839	55.85
599.176	55.86
599.512	55.91
599.849	56.01
600.186	56.06
600.523	56.1
600.859	56.18
601.196	56.27
601.532	56.29
601.869	56.4
602.205	56.35
602.542	56.38
602.878	56.43
603.215	56.45
603.551	56.49
603.887	56.58
604.223	56.64
604.56	56.63
604.896	56.68
605.232	56.8
605.568	56.88
605.904	56.98
606.24	57.11
606.576	57.16
606.912	57.22
607.248	57.32
607.583	57.4
607.919	57.39
608.255	57.35
608.591	57.44
608.926	57.48
609.262	57.57
609.597	57.59
609.933	57.69
610.268	57.77
610.604	57.8
610.939	57.79
611.275	57.83
611.61	57.92
611.945	57.98
612.281	57.99
612.616	58
612.951	57.95
613.286	57.83
613.621	57.85
613.956	57.81
614.291	57.8
614.626	57.91
614.961	58.02
615.296	58.09
615.631	58.06
615.966	58.15
616.3	58.17
616.635	58.21
616.97	58.21
617.304	58.28
617.639	58.2
617.973	58.23
618.308	58.25
618.642	58.26
618.977	58.25
619.311	58.2
619.646	58.22
619.98	58.31
620.314	58.41
620.648	58.45
620.983	58.41
621.317	58.47
621.651	58.41
621.985	58.53
622.319	58.52
622.653	58.56
622.987	58.52
623.321	58.59
623.655	58.63
623.988	58.67
624.322	58.71
624.656	58.74
624.99	58.74
625.323	58.71
625.657	58.69
625.99	58.73
626.324	58.82
626.657	58.85
626.991	58.77
627.324	58.72
627.658	58.79
627.991	58.86
628.324	58.89
628.657	58.91
628.991	58.89
629.324	58.96
629.657	59.1
629.99	59.12
630.323	59.11
630.656	59.16
630.989	59.25
631.322	59.25
631.655	59.37
631.987	59.52
632.32	59.64
632.653	59.64
632.986	59.68
633.318	59.73
633.651	59.75
633.984	59.92
634.316	59.97
634.649	60
634.981	60.02
635.313	60.04
635.646	60.05
635.978	59.99
636.31	60.02
636.643	60.03
636.975	60.02
637.307	60.02
637.639	60.02
637.971	59.89
638.303	59.86
638.635	59.73
638.967	59.72
639.299	59.58
639.631	59.69
639.963	59.6
640.295	59.63
640.626	59.62
640.958	59.62
641.29	59.62
641.621	59.59
641.953	59.65
642.285	59.65
642.616	59.69
642.948	59.67
643.279	59.58
643.61	59.56
643.942	59.57
644.273	59.65
644.604	59.62
644.936	59.7
645.267	59.84
645.598	60.01
645.929	59.95
646.26	60.07
646.591	60.04
646.922	60.07
647.253	60.04
647.584	60.03
647.915	59.98
648.245	60.18
648.576	60.29
648.907	60.22
649.238	60.16
649.568	60.23
649.899	60.37
650.229	60.4
650.56	60.3
650.89	60.43
651.221	60.39
651.551	60.48
651.882	60.48
652.212	60.47
652.542	60.44
652.872	60.44
653.203	60.42
653.533	60.39
653.863	60.46
654.193	60.39
654.523	60.36
654.853	60.34
655.183	60.31
655.513	60.2
655.843	60.28
656.172	60.41
656.502	60.37
656.832	60.35
657.162	60.49
657.491	60.47
657.821	60.5
658.15	60.43
658.48	60.31
658.809	60.33
659.139	60.26
659.468	60.29
659.798	60.32
660.127	60.32
660.456	60.3
660.785	60.23
661.115	60.28
661.444	60.24
661.773	60.24
662.102	60.19
662.431	60.19
662.76	60.07
663.089	60
663.418	59.93
663.747	59.9
664.076	59.88
664.404	60.02
664.733	59.99
665.062	60.2
665.39	60.34
665.719	60.35
666.048	60.26
666.376	60.19
666.705	60.15
667.033	60.2
667.362	60.21
667.69	60.22
668.018	60.21
668.347	60.28
668.675	60.39
669.003	60.42
669.331	60.4
669.659	60.54
669.987	60.58
670.315	60.6
670.643	60.57
670.971	60.46
671.299	60.39
671.627	60.38
671.955	60.21
672.283	60.17
672.61	60.2
672.938	60.3
673.266	60.42
673.593	60.54
673.921	60.63
674.249	60.61
674.576	60.6
674.904	60.59
675.231	60.77
675.558	60.61
675.886	60.53
676.213	60.63
676.54	60.62
676.867	60.5
677.195	60.46
677.522	60.61
677.849	60.69
678.176	60.75
678.503	60.66
678.83	60.67
679.157	60.57
679.484	60.6
679.81	60.56
680.137	60.51
680.464	60.53
680.791	60.52
681.117	60.51
681.444	60.58
681.771	60.59
682.097	60.64
682.424	60.82
682.75	60.86
683.077	60.95
683.403	61.01
683.729	61.12
684.056	61.14
684.382	61.1
684.708	60.95
685.034	60.9
685.36	60.87
685.686	60.86
686.012	60.94
686.339	61
686.664	61.13
686.99	61.19
687.316	61.15
687.642	61.08
687.968	61.25
688.294	61.34
688.619	61.47
688.945	61.4
689.271	61.39
689.596	61.34
689.922	61.25
690.247	61.08
690.573	61.01
690.898	61.16
691.224	61.17
691.549	61.33
691.874	61.28
692.2	61.33
692.525	61.53
692.85	61.5
693.175	61.46
693.5	61.27
693.825	61.21
694.15	61.21
694.475	61.17
694.8	61.23
695.125	61.09
695.45	61.06
695.775	61
696.099	61.1
696.424	61.01
696.749	60.93
697.073	60.96
697.398	61.03
697.723	60.96
698.047	60.81
698.372	60.78
698.696	60.81
699.02	60.8
699.345	60.77
699.669	60.74
699.993	60.64
700.318	60.61
700.642	60.56
700.966	60.37
701.29	60.38
701.614	60.26
701.938	60.3
702.262	60.12
702.586	60.16
702.91	59.91
703.234	60.03
703.557	60.12
703.881	60.23
704.205	60.2
704.529	60.11
704.852	60.31
705.176	60.3
705.499	60.26
705.823	60.17
706.146	60.05
706.47	60.23
706.793	60.31
707.117	60.44
707.44	60.6
707.763	60.92
708.086	60.97
708.409	60.85
708.733	60.92
709.056	60.98
709.379	60.89
709.702	60.96
710.025	60.93
710.348	60.69
710.671	60.63
710.993	60.68
711.316	60.65
711.639	60.46
711.962	60.44
712.284	60.47
712.607	60.44
712.93	60.44
713.252	60.28
713.575	60.29
713.897	60.23
714.22	60.27
714.542	60.12
714.864	59.98
715.187	60.07
715.509	59.84
715.831	60.07
716.153	60.14
716.475	60.11
716.798	60.14
717.12	60.36
717.442	60.18
717.764	60.2
718.085	60.25
718.407	60.47
718.729	60.5
719.051	60.55
719.373	60.74
719.695	60.92
720.016	61.21
720.338	61.17
720.659	61.09
720.981	61.05
721.302	61.14
721.624	61.16
721.945	61.16
722.267	61.3
722.588	61.32
722.909	60.99
723.231	61.13
723.552	60.92
723.873	61.03
724.194	61.24
724.515	61.14
724.836	61
725.157	60.98
725.478	60.89
725.799	60.86
726.12	60.85
726.441	60.64
726.762	60.23
727.083	60.13
727.403	60.22
727.724	60.27
728.045	60.45
728.365	60.49
728.686	60.37
729.006	60.61
729.327	60.41
729.647	60.62
729.967	60.72
730.288	61.04
730.608	60.84
730.928	60.91
731.249	60.84
731.569	61.15
731.889	61.16
732.209	61.25
732.529	61.27
732.849	61.33
733.169	61.36
733.489	61.64
733.809	61.82
734.129	61.8
734.448	61.65
734.768	61.51
735.088	61.7
735.408	61.75
735.727	61.54
736.047	61.6
736.366	61.48
736.686	61.57
737.005	61.42
737.325	61.33
737.644	61.27
737.963	61.3
738.283	61.19
738.602	61.1
738.921	61.41
739.24	61.34
739.56	61.16
739.879	61.51
740.198	61.34
740.517	61.51
740.836	61.64
741.155	61.61
741.473	61.59
741.792	61.18
742.111	61.52
742.43	61.41
742.748	61.35
743.067	61.62
743.386	61.33
743.704	61.16
744.023	61.12
744.341	61.11
744.66	61.08
744.978	61.22
745.297	61.15
745.615	60.64
745.933	60.53
746.252	60.69
746.57	60.41
746.888	60.98
747.206	60.75
747.524	60.59
747.842	60.48
748.16	60.52
748.478	60.96
748.796	60.63
749.114	60.85
749.432	60.76
749.749	60.56
750.067	60.32
750.385	60.69
750.703	61.13
751.02	61.01
751.338	61.23
751.655	61.06
751.973	60.97
752.29	60.99
752.608	61.24
752.925	61.1
753.242	60.96
753.56	60.77
753.877	60.87
754.194	60.92
754.511	61.09
754.828	60.82
755.145	61.04
755.462	61.35
755.779	61.21
756.096	61.16
756.413	61.15
756.73	61.48
757.047	61.11
757.364	60.95
757.68	60.86
757.997	60.58
758.314	60.37
758.63	60.36
758.947	60.72
759.264	60.7
759.58	60.9
759.896	60.9
760.213	60.54
760.529	60.64
760.846	60.59
761.162	60.81
761.478	61.02
761.794	60.7
762.11	60.66
762.426	60.87
762.743	61.23
763.059	61.36
763.375	61.24
763.69	61.42
764.006	61.35
764.322	61.39
764.638	61.92
764.954	62.11
765.27	62.52
765.585	62.51
765.901	62.67
766.216	62.51
766.532	62.74
766.848	62.82
767.163	62.74
767.478	62.92
767.794	62.68
768.109	62.76
768.424	62.76
768.74	62.79
769.055	62.85
769.37	62.69
769.685	62.67
770	62.8
770.315	62.85
770.63	62.89
770.945	62.78
771.26	62.33
771.575	62.33
771.89	62.19
772.205	62.2
772.52	62.16
772.834	62.39
773.149	62.16
773.464	61.99
773.778	61.77
774.093	61.78
774.407	62.4
774.722	61.89
775.036	61.93
775.351	62.12
775.665	61.5
775.979	61.44
776.293	61.28
776.608	61.18
776.922	61.15
777.236	61.41
777.55	61.73
777.864	61.85
778.178	61.97
778.492	61.5
778.806	61.36
779.12	61.02
779.434	61.19
779.747	61.21
780.061	61.87
780.375	62.05
780.689	61.74
781.002	61.06
781.316	61.89
781.629	62
781.943	62.06
782.256	62.37
782.57	62.39
782.883	62.71
783.196	63.01
783.51	62.9
783.823	62.68
784.136	62.61
784.449	62.59
784.762	62.5
785.075	62.45
785.388	62.87
785.701	63.24
786.014	62.92
786.327	63.08
786.64	62.76
786.953	63.02
787.266	63.55
787.578	63.31
787.891	62.65
788.204	62.64
788.516	62.19
788.829	62.46
789.141	62.54
789.454	62.54
789.766	62.79
790.079	62.86
790.391	62.92
790.703	63.15
791.016	62.88
791.328	62.63
791.64	63.1
791.952	63.24
792.264	63.02
792.576	62.63
792.888	62.98
793.2	62.73
793.512	62.28
793.824	62
794.136	62.32
794.448	63.01
794.76	63.38
795.071	63.3
795.383	62.76
795.695	63.2
796.006	63.19
796.318	63.27
796.629	63.8
796.941	63.98
797.252	63.87
797.564	64.42
797.875	64.26
798.186	63.92
798.497	63.09
798.809	63.5
799.12	64.17
799.431	63.75
799.742	64.04
800.053	64.18
800.364	63.97
800.675	64.17
800.986	63.89
801.297	63.26
801.608	63.59
801.918	64.27
802.229	63.84
802.54	64.45
802.851	63.89
803.161	63.23
803.472	62.71
803.782	62.66
804.093	62.35
804.403	62.94
804.714	63.33
805.024	63.29
805.334	63.09
805.645	62.46
805.955	62.01
806.265	61.87
806.575	62.25
806.885	62.43
807.195	62.02
807.505	61.53
807.815	62.26
808.125	62.38
808.435	61.62
808.745	61.42
809.055	60.54
809.365	60.46
809.674	60.44
809.984	60.85
810.294	60.36
810.603	59.99
810.913	59.85
811.222	59.76
811.532	60.31
811.841	60.32
812.151	60.65
812.46	61.27
812.769	61.27
813.079	60.6
813.388	60.72
813.697	60.57
814.006	60.54
814.315	59.65
814.624	59.14
814.933	60.3
815.242	60.28
815.551	60.98
815.86	61.38
816.169	61.21
816.478	60.49
816.786	60.27
817.095	60.42
817.404	60.5
817.712	60.48
818.021	59.42
818.33	58.94
818.638	59.45
818.947	59.69
819.255	60.19
819.563	60.72
819.872	60.77
820.18	61.04
820.488	61.3
820.796	61.5
821.105	61.54
821.413	60.98
821.721	60.7
822.029	60.71
822.337	60.67
822.645	60.81
822.953	61.14
823.26	61.49
823.568	61.24
823.876	61.26
824.184	61.3
824.491	61.52
824.799	61.6
825.107	61.57
825.414	61.64
825.722	61.61
826.029	61.37
826.337	61.26
826.644	61.29
826.951	61.22
827.259	61.06
827.566	60.91
827.873	61.2
828.18	61.44
828.488	61.3
828.795	61.19
829.102	60.95
829.409	60.82
829.716	60.35
830.023	60.97
830.329	61
830.636	61.3
830.943	61.62
831.25	61.59
831.557	61.67
831.863	61.77
832.17	61.25
832.476	61.16
832.783	61.45
833.089	61.65
833.396	61.39
833.702	61.56
834.009	61.81
834.315	61.83
834.621	61.74
834.928	61.97
835.234	61.53
835.54	61.69
835.846	61.75
836.152	61.44
836.458	60.75
836.764	60.12
837.07	59.28
837.376	58.59
837.682	58.53
837.988	58.18
838.293	57.81
838.599	58.15
838.905	58.44
839.211	57.69
839.516	57.54
839.822	57.89
840.127	57.43
840.433	57.47
840.738	57.05
841.044	57.73
841.349	57.46
841.654	58.72
841.959	59.27
842.265	58.6
842.57	59.32
842.875	59.14
843.18	59.49
843.485	60.57
843.79	61.19
844.095	61.33
844.4	60.38
844.705	59.22
845.01	59.51
845.315	60.01
845.619	61
845.924	59.33
846.229	59.51
846.533	59.43
846.838	57.55
847.142	57.85
847.447	57.89
847.751	56.56
848.056	55.6
848.36	55.33
848.664	55.07
848.969	54.27
849.273	54.27
849.577	53.86
849.881	52.53
850.185	52.15
850.489	52.21
850.794	53.23
851.097	54.03
851.401	54.46
851.705	54.64
852.009	53.79
852.313	54.71
852.617	53.84
852.92	55.18
853.224	56.25
853.528	56.16
853.831	54.64
854.135	56.26
854.438	57.47
854.742	56.35
855.045	56.55
855.349	57.83
855.652	59.22
855.955	62.62
856.259	63.81
856.562	63.12
856.865	62.19
857.168	61.6
857.471	60.94
857.774	60.45
858.077	59.89
858.38	61.86
858.683	60.43
858.986	61.18
859.289	59.82
859.592	61.73
859.894	61.17
860.197	60.92
860.5	57.84
860.802	57.57
861.105	58.91
861.407	59.94
861.71	59.42
862.012	59.43
862.315	56.71
862.617	54.37
862.919	54.38
863.222	56.33
863.524	57.36
863.826	57.54
864.128	56.94
864.43	57.88
864.732	56.95
865.034	60.03
865.336	57.5
865.638	57.09
865.94	55.95
866.242	55.84
866.544	55.55
866.846	56.63
867.147	55.74
867.449	55.25
867.751	52.37
868.052	52.83
868.354	52.74
868.655	52.91
868.957	54.04
869.258	54.58
869.56	54.24
869.861	54.28
870.162	54.64
870.463	52.9
870.765	52.84
871.066	54.11
871.367	53.05
871.668	55.2
871.969	56.19
872.27	56.08
872.571	55.84
872.872	57.91
873.173	58.08
873.473	56.57
873.774	55.2
874.075	57.46
874.376	58.5
874.676	59.98
874.977	59.17
875.277	59.49
875.578	59.07
875.878	57.98
876.179	57.89
876.479	57.72
876.78	59.84
877.08	59.11
877.38	57.71
877.68	56.66
877.981	56.73
878.281	56.87
878.581	56.91
