Data from BU57737_Reflection_00015.txt Node
Date: Mon Nov 18 16:30:13 EST 2019
User: vgr7
Spectrometer: USB2G7710
Scans to average: 3
Trigger mode: 4
Integration Time (sec): 2.000000E-2
Electric dark correction enabled: true
Boxcar width: 10
XAxis mode: Wavelengths
Number of Pixels in Spectrum: 2048
>>>>>Begin Spectral Data<<<<<
177.721	-42.95
178.105	496.83
178.488	56.55
178.871	39.39
179.254	29.02
179.636	-19.05
180.019	86.86
180.402	26.92
180.785	-75.03
181.168	-340.48
181.55	130.03
181.933	70.26
182.316	86.58
182.698	129.73
183.081	250.26
183.463	330.88
183.846	133.39
184.228	182.41
184.611	267.07
184.993	330.1
185.376	272.09
185.758	251.46
186.14	235.82
186.522	148.85
186.904	157.1
187.287	143.54
187.669	193.66
188.051	274.86
188.433	413.44
188.815	403.65
189.197	321.37
189.579	328.96
189.961	855.34
190.342	844.64
190.724	976.64
191.106	-5610.14
191.488	125433.33
191.869	-291.88
192.251	-309.16
192.633	-166.31
193.014	-71.98
193.396	-86.02
193.777	-69.65
194.159	-38.27
194.54	-21.89
194.922	-0.03
195.303	-0.78
195.684	4.91
196.065	25.82
196.447	14.42
196.828	-1.34
197.209	-1.04
197.59	0.82
197.971	12.87
198.352	12.54
198.733	4.76
199.114	-13.57
199.495	-17.4
199.876	-29.1
200.257	-29.38
200.638	-23.84
201.018	-45.47
201.399	-40.85
201.78	-45.65
202.16	-80.89
202.541	-169.21
202.922	-201.04
203.302	-219.37
203.683	-242.31
204.063	-540.75
204.444	-1121.29
204.824	-462.14
205.204	-655.56
205.585	-449.58
205.965	-286.53
206.345	-702.31
206.725	-1095.7
207.106	-901.93
207.486	-665.65
207.866	-1319.14
208.246	10948.48
208.626	41877.78
209.006	-490.99
209.386	2174.07
209.766	662.65
210.145	773.14
210.525	-135.58
210.905	-86.02
211.285	-63.83
211.664	-38.8
212.044	-31.36
212.424	-34.72
212.803	-48.79
213.183	-30.16
213.562	-32
213.942	-15.54
214.321	-15.72
214.701	-4.48
215.08	-8.07
215.459	-10.92
215.838	-30.81
216.218	-37.6
216.597	-34.14
216.976	-31.12
217.355	-22.48
217.734	-24.59
218.113	-24.35
218.492	-29.29
218.871	-47.24
219.25	-52.51
219.629	-72.82
220.008	-57.29
220.387	-53.56
220.766	-44.08
221.144	-61.25
221.523	-78.24
221.902	-83.86
222.28	-99.58
222.659	-94.61
223.037	-83.45
223.416	-88.12
223.794	-71.77
224.173	-55.39
224.551	-38.7
224.929	-42.88
225.308	-38.42
225.686	-32.91
226.064	-32.14
226.442	-29.91
226.821	-20.63
227.199	-18.6
227.577	-17.09
227.955	-18.05
228.333	-13.53
228.711	-12.58
229.089	-7.67
229.467	-8.52
229.845	-9.42
230.222	-7.42
230.6	-10.5
230.978	-8.37
231.356	-6.06
231.733	-4.04
232.111	-3.11
232.488	-2.6
232.866	-2.83
233.243	-3.88
233.621	-4.27
233.998	-1.81
234.376	-1.59
234.753	-1.8
235.13	-1.74
235.508	-0.82
235.885	-0.65
236.262	-0.85
236.639	0.06
237.016	-0.38
237.393	1.9
237.77	2.55
238.147	2.28
238.524	3.47
238.901	4.12
239.278	3.9
239.655	3.96
240.032	3.44
240.409	3.63
240.785	4.02
241.162	3.93
241.539	4.72
241.915	4.36
242.292	4.39
242.668	4.12
243.045	4.09
243.421	3.98
243.798	4.35
244.174	4.1
244.551	4.11
244.927	3.7
245.303	3.81
245.679	4
246.056	3.92
246.432	3.84
246.808	3.73
247.184	3.64
247.56	3.4
247.936	3.57
248.312	3.47
248.688	3.6
249.064	3.71
249.44	3.49
249.815	3.42
250.191	3.3
250.567	3.54
250.943	3.54
251.318	3.66
251.694	3.82
252.069	3.62
252.445	3.6
252.82	3.86
253.196	3.74
253.571	3.74
253.947	4.06
254.322	4.41
254.697	4.15
255.073	4.15
255.448	3.88
255.823	3.59
256.198	3.48
256.573	3.23
256.948	3.25
257.323	3.23
257.698	3.19
258.073	3.13
258.448	3.07
258.823	2.93
259.198	2.75
259.573	2.49
259.948	2.62
260.322	2.65
260.697	2.62
261.072	2.47
261.446	2.34
261.821	2.2
262.195	2.04
262.57	2.12
262.944	2.02
263.319	2.14
263.693	2.09
264.067	2.19
264.442	2.2
264.816	2.08
265.19	1.94
265.564	1.92
265.938	1.84
266.313	1.7
266.687	2
267.061	2.18
267.435	2.34
267.809	2.24
268.183	2.07
268.556	2.02
268.93	2.03
269.304	2.09
269.678	2.15
270.051	2.12
270.425	1.98
270.799	2.04
271.172	2.04
271.546	2.24
271.919	2.11
272.293	2.18
272.666	2.18
273.04	2.38
273.413	2.36
273.787	2.49
274.16	2.51
274.533	2.3
274.906	2.11
275.279	1.84
275.653	1.73
276.026	1.89
276.399	1.99
276.772	2.03
277.145	1.88
277.518	1.88
277.891	1.98
278.263	2.07
278.636	2.2
279.009	2.19
279.382	2.14
279.755	2.05
280.127	2.07
280.5	2.14
280.872	2.03
281.245	2.09
281.617	2.11
281.99	2.1
282.362	2.12
282.735	2.1
283.107	2.43
283.479	2.59
283.852	2.55
284.224	2.45
284.596	2.43
284.968	2.59
285.34	2.67
285.713	2.67
286.085	2.72
286.457	2.73
286.829	2.8
287.201	2.67
287.572	2.72
287.944	2.65
288.316	2.63
288.688	2.63
289.06	2.57
289.431	2.54
289.803	2.59
290.175	2.53
290.546	2.6
290.918	2.44
291.289	2.32
291.661	2.39
292.032	2.56
292.403	2.65
292.775	2.58
293.146	2.49
293.517	2.45
293.889	2.5
294.26	2.45
294.631	2.37
295.002	2.46
295.373	2.47
295.744	2.43
296.115	2.49
296.486	2.53
296.857	2.57
297.228	2.69
297.599	2.68
297.97	2.87
298.34	2.9
298.711	2.94
299.082	3.03
299.452	3.01
299.823	3.08
300.194	3.05
300.564	3.13
300.935	3.27
301.305	3.33
301.676	3.34
302.046	3.39
302.416	3.62
302.787	3.58
303.157	3.68
303.527	3.67
303.897	3.78
304.267	3.84
304.637	3.89
305.008	3.97
305.378	4.01
305.748	3.94
306.117	3.95
306.487	3.95
306.857	3.96
307.227	3.98
307.597	4
307.967	4.09
308.336	4.1
308.706	4.12
309.076	4.19
309.445	4.19
309.815	4.19
310.184	4.17
310.554	4.28
310.923	4.29
311.293	4.47
311.662	4.43
312.031	4.43
312.401	4.42
312.77	4.39
313.139	4.55
313.508	4.62
313.877	4.7
314.246	4.75
314.616	4.88
314.985	4.97
315.353	4.88
315.722	5.09
316.091	5.21
316.46	5.24
316.829	5.16
317.198	5.24
317.567	5.35
317.935	5.32
318.304	5.49
318.672	5.52
319.041	5.56
319.41	5.74
319.778	5.68
320.147	5.89
320.515	6.03
320.883	5.94
321.252	6.03
321.62	6.19
321.988	6.18
322.357	6.21
322.725	6.27
323.093	6.49
323.461	6.39
323.829	6.37
324.197	6.37
324.565	6.53
324.933	6.6
325.301	6.6
325.669	6.68
326.037	6.68
326.405	6.75
326.772	6.85
327.14	6.78
327.508	6.92
327.875	6.89
328.243	6.95
328.61	6.98
328.978	7.1
329.346	7.07
329.713	7.15
330.08	7.25
330.448	7.21
330.815	7
331.182	7.12
331.55	7.1
331.917	7.3
332.284	7.43
332.651	7.44
333.018	7.47
333.385	7.5
333.752	7.54
334.119	7.61
334.486	7.65
334.853	7.64
335.22	7.72
335.587	7.85
335.954	7.83
336.32	7.83
336.687	7.79
337.054	7.86
337.42	7.94
337.787	7.93
338.153	8
338.52	8.14
338.886	7.99
339.253	8.09
339.619	8
339.986	7.92
340.352	7.98
340.718	8
341.084	8.04
341.451	8.1
341.817	8.12
342.183	7.93
342.549	7.96
342.915	7.97
343.281	7.9
343.647	7.88
344.013	7.87
344.379	7.82
344.745	7.79
345.11	7.89
345.476	7.99
345.842	7.97
346.208	8.03
346.573	8.09
346.939	8.13
347.304	8.21
347.67	8.18
348.035	8.13
348.401	8.04
348.766	8.04
349.132	7.96
349.497	7.96
349.862	8.11
350.228	8.13
350.593	8.05
350.958	8.04
351.323	8.1
351.688	8.18
352.053	8.16
352.418	8.2
352.783	8.05
353.148	7.88
353.513	7.87
353.878	7.74
354.243	7.85
354.608	7.73
354.972	7.7
355.337	7.72
355.702	7.77
356.066	7.81
356.431	7.72
356.795	7.75
357.16	7.62
357.524	7.59
357.889	7.55
358.253	7.67
358.618	7.71
358.982	7.65
359.346	7.49
359.71	7.55
360.075	7.5
360.439	7.54
360.803	7.55
361.167	7.46
361.531	7.43
361.895	7.29
362.259	7.29
362.623	7.2
362.987	7.17
363.351	7.13
363.714	7.17
364.078	7.23
364.442	7.18
364.806	7.16
365.169	7.03
365.533	7.03
365.896	6.86
366.26	6.74
366.623	6.68
366.987	6.76
367.35	6.62
367.714	6.56
368.077	6.42
368.44	6.38
368.803	6.36
369.167	6.33
369.53	6.26
369.893	6.28
370.256	6.27
370.619	6.21
370.982	6.11
371.345	6
371.708	5.94
372.071	5.83
372.434	5.76
372.797	5.78
373.159	5.67
373.522	5.61
373.885	5.6
374.247	5.58
374.61	5.53
374.973	5.46
375.335	5.35
375.698	5.33
376.06	5.27
376.423	5.2
376.785	5.2
377.147	5.24
377.51	5.1
377.872	5.06
378.234	5
378.596	4.98
378.958	4.89
379.321	4.8
379.683	4.82
380.045	4.84
380.407	4.77
380.769	4.74
381.13	4.72
381.492	4.67
381.854	4.58
382.216	4.47
382.578	4.47
382.939	4.44
383.301	4.42
383.663	4.39
384.024	4.37
384.386	4.32
384.747	4.3
385.109	4.3
385.47	4.21
385.832	4.21
386.193	4.14
386.554	4.16
386.916	4.09
387.277	4.06
387.638	4.06
387.999	4.02
388.36	4.03
388.721	4.02
389.082	3.98
389.443	3.95
389.804	3.97
390.165	3.93
390.526	3.92
390.887	3.86
391.248	3.83
391.609	3.81
391.969	3.75
392.33	3.68
392.691	3.65
393.051	3.65
393.412	3.6
393.772	3.58
394.133	3.55
394.493	3.55
394.854	3.52
395.214	3.45
395.574	3.43
395.935	3.36
396.295	3.34
396.655	3.31
397.015	3.3
397.376	3.27
397.736	3.27
398.096	3.29
398.456	3.27
398.816	3.23
399.176	3.19
399.535	3.19
399.895	3.17
400.255	3.16
400.615	3.14
400.975	3.15
401.334	3.09
401.694	3.06
402.054	3.03
402.413	3
402.773	2.97
403.132	2.95
403.492	2.93
403.851	2.9
404.211	2.88
404.57	2.83
404.929	2.8
405.288	2.76
405.648	2.7
406.007	2.69
406.366	2.69
406.725	2.72
407.084	2.73
407.443	2.72
407.802	2.72
408.161	2.71
408.52	2.69
408.879	2.7
409.238	2.69
409.596	2.69
409.955	2.65
410.314	2.66
410.673	2.67
411.031	2.65
411.39	2.65
411.748	2.67
412.107	2.69
412.465	2.68
412.824	2.7
413.182	2.69
413.54	2.68
413.899	2.68
414.257	2.65
414.615	2.63
414.974	2.62
415.332	2.59
415.69	2.59
416.048	2.56
416.406	2.56
416.764	2.55
417.122	2.55
417.48	2.55
417.838	2.55
418.195	2.54
418.553	2.55
418.911	2.54
419.269	2.52
419.626	2.5
419.984	2.5
420.342	2.47
420.699	2.47
421.057	2.46
421.414	2.45
421.772	2.43
422.129	2.44
422.486	2.43
422.844	2.43
423.201	2.41
423.558	2.43
423.915	2.41
424.273	2.42
424.63	2.39
424.987	2.38
425.344	2.37
425.701	2.36
426.058	2.36
426.415	2.35
426.772	2.34
427.128	2.33
427.485	2.32
427.842	2.32
428.199	2.32
428.555	2.32
428.912	2.31
429.269	2.31
429.625	2.29
429.982	2.27
430.338	2.27
430.695	2.26
431.051	2.23
431.407	2.21
431.764	2.2
432.12	2.24
432.476	2.26
432.832	2.24
433.189	2.25
433.545	2.25
433.901	2.24
434.257	2.21
434.613	2.23
434.969	2.23
435.325	2.24
435.681	2.24
436.036	2.24
436.392	2.25
436.748	2.24
437.104	2.24
437.459	2.24
437.815	2.23
438.171	2.24
438.526	2.26
438.882	2.27
439.237	2.27
439.593	2.27
439.948	2.25
440.304	2.26
440.659	2.26
441.014	2.26
441.369	2.25
441.725	2.26
442.08	2.26
442.435	2.25
442.79	2.25
443.145	2.25
443.5	2.25
443.855	2.24
444.21	2.25
444.565	2.26
444.92	2.27
445.275	2.25
445.629	2.25
445.984	2.24
446.339	2.25
446.693	2.23
447.048	2.22
447.403	2.22
447.757	2.2
448.112	2.17
448.466	2.16
448.82	2.16
449.175	2.16
449.529	2.16
449.883	2.14
450.238	2.12
450.592	2.12
450.946	2.1
451.3	2.1
451.654	2.08
452.008	2.07
452.362	2.06
452.716	2.09
453.07	2.1
453.424	2.11
453.778	2.09
454.132	2.11
454.486	2.11
454.839	2.1
455.193	2.1
455.547	2.11
455.9	2.13
456.254	2.14
456.607	2.16
456.961	2.16
457.314	2.18
457.668	2.2
458.021	2.18
458.375	2.2
458.728	2.19
459.081	2.2
459.434	2.19
459.787	2.2
460.141	2.2
460.494	2.19
460.847	2.18
461.2	2.18
461.553	2.16
461.906	2.16
462.259	2.17
462.611	2.18
462.964	2.19
463.317	2.19
463.67	2.19
464.022	2.18
464.375	2.17
464.728	2.19
465.08	2.2
465.433	2.21
465.785	2.2
466.138	2.21
466.49	2.2
466.843	2.19
467.195	2.21
467.547	2.21
467.899	2.22
468.252	2.23
468.604	2.23
468.956	2.24
469.308	2.25
469.66	2.23
470.012	2.24
470.364	2.24
470.716	2.24
471.068	2.24
471.42	2.26
471.772	2.3
472.123	2.3
472.475	2.26
472.827	2.26
473.178	2.27
473.53	2.26
473.882	2.27
474.233	2.27
474.585	2.24
474.936	2.24
475.288	2.23
475.639	2.24
475.99	2.25
476.342	2.25
476.693	2.25
477.044	2.27
477.395	2.26
477.746	2.26
478.097	2.27
478.448	2.25
478.8	2.24
479.15	2.21
479.501	2.2
479.852	2.22
480.203	2.24
480.554	2.25
480.905	2.26
481.255	2.26
481.606	2.28
481.957	2.28
482.307	2.29
482.658	2.3
483.009	2.29
483.359	2.28
483.709	2.29
484.06	2.28
484.41	2.28
484.761	2.28
485.111	2.29
485.461	2.29
485.811	2.3
486.162	2.3
486.512	2.32
486.862	2.32
487.212	2.31
487.562	2.31
487.912	2.3
488.262	2.3
488.612	2.3
488.961	2.31
489.311	2.31
489.661	2.31
490.011	2.31
490.36	2.31
490.71	2.33
491.06	2.34
491.409	2.34
491.759	2.34
492.108	2.34
492.458	2.34
492.807	2.34
493.157	2.34
493.506	2.36
493.855	2.35
494.204	2.35
494.554	2.37
494.903	2.37
495.252	2.36
495.601	2.37
495.95	2.38
496.299	2.35
496.648	2.35
496.997	2.36
497.346	2.37
497.695	2.4
498.043	2.4
498.392	2.4
498.741	2.42
499.09	2.42
499.438	2.45
499.787	2.48
500.135	2.49
500.484	2.52
500.832	2.53
501.181	2.56
501.529	2.56
501.878	2.6
502.226	2.65
502.574	2.7
502.923	2.71
503.271	2.75
503.619	2.8
503.967	2.84
504.315	2.87
504.663	2.88
505.011	2.91
505.359	2.92
505.707	2.96
506.055	2.99
506.403	3.04
506.751	3.07
507.098	3.1
507.446	3.15
507.794	3.16
508.141	3.19
508.489	3.24
508.837	3.3
509.184	3.33
509.531	3.35
509.879	3.41
510.226	3.45
510.574	3.51
510.921	3.54
511.268	3.56
511.616	3.62
511.963	3.68
512.31	3.72
512.657	3.8
513.004	3.87
513.351	3.93
513.698	4
514.045	4.07
514.392	4.12
514.739	4.2
515.086	4.3
515.432	4.38
515.779	4.44
516.126	4.53
516.473	4.6
516.819	4.7
517.166	4.75
517.512	4.82
517.859	4.88
518.205	4.96
518.552	5.04
518.898	5.09
519.245	5.15
519.591	5.22
519.937	5.27
520.283	5.36
520.629	5.47
520.976	5.56
521.322	5.65
521.668	5.77
522.014	5.87
522.36	5.98
522.706	6.11
523.052	6.24
523.398	6.38
523.743	6.54
524.089	6.68
524.435	6.83
524.781	6.99
525.126	7.11
525.472	7.25
525.817	7.35
526.163	7.48
526.509	7.61
526.854	7.72
527.199	7.82
527.545	7.91
527.89	8
528.235	8.11
528.581	8.23
528.926	8.35
529.271	8.46
529.616	8.58
529.961	8.69
530.306	8.81
530.651	8.94
530.996	9.06
531.341	9.21
531.686	9.37
532.031	9.52
532.376	9.7
532.721	9.86
533.065	10.06
533.41	10.24
533.755	10.42
534.099	10.63
534.444	10.85
534.788	11.07
535.133	11.28
535.477	11.49
535.822	11.71
536.166	11.92
536.51	12.17
536.855	12.47
537.199	12.74
537.543	13.06
537.887	13.35
538.231	13.65
538.576	13.94
538.92	14.23
539.264	14.5
539.608	14.77
539.951	15.04
540.295	15.29
540.639	15.55
540.983	15.78
541.327	16.01
541.671	16.24
542.014	16.47
542.358	16.71
542.701	16.93
543.045	17.15
543.389	17.39
543.732	17.64
544.075	17.85
544.419	18.12
544.762	18.38
545.105	18.67
545.449	18.97
545.792	19.27
546.135	19.59
546.478	19.93
546.821	20.3
547.165	20.65
547.508	21.03
547.851	21.42
548.194	21.77
548.536	22.15
548.879	22.53
549.222	22.91
549.565	23.25
549.908	23.68
550.25	24.09
550.593	24.51
550.936	24.89
551.278	25.31
551.621	25.7
551.963	26.08
552.306	26.43
552.648	26.78
552.991	27.14
553.333	27.51
553.675	27.83
554.017	28.16
554.36	28.5
554.702	28.81
555.044	29.11
555.386	29.45
555.728	29.78
556.07	30.14
556.412	30.43
556.754	30.76
557.096	31.1
557.438	31.43
557.78	31.76
558.121	32.14
558.463	32.46
558.805	32.77
559.147	33.08
559.488	33.43
559.83	33.76
560.171	34.08
560.513	34.4
560.854	34.77
561.196	35.06
561.537	35.29
561.878	35.56
562.22	35.82
562.561	36.14
562.902	36.43
563.243	36.67
563.584	36.99
563.925	37.28
564.266	37.48
564.607	37.77
564.948	38.02
565.289	38.24
565.63	38.53
565.971	38.79
566.312	39.02
566.653	39.27
566.993	39.51
567.334	39.79
567.675	40.01
568.015	40.24
568.356	40.46
568.696	40.76
569.037	41.02
569.377	41.29
569.718	41.5
570.058	41.7
570.398	41.98
570.739	42.19
571.079	42.44
571.419	42.66
571.759	42.85
572.099	43.04
572.439	43.24
572.779	43.39
573.119	43.61
573.459	43.8
573.799	43.92
574.139	44.15
574.479	44.34
574.819	44.5
575.158	44.68
575.498	44.86
575.838	45.02
576.177	45.21
576.517	45.39
576.856	45.61
577.196	45.78
577.535	45.93
577.875	46.14
578.214	46.34
578.553	46.55
578.893	46.75
579.232	46.97
579.571	47.13
579.91	47.35
580.25	47.51
580.589	47.62
580.928	47.89
581.267	48.01
581.606	48.09
581.945	48.22
582.283	48.36
582.622	48.56
582.961	48.71
583.3	48.79
583.639	48.99
583.977	49.15
584.316	49.36
584.654	49.47
584.993	49.6
585.332	49.67
585.67	49.85
586.008	49.95
586.347	50.08
586.685	50.26
587.024	50.33
587.362	50.44
587.7	50.66
588.038	50.79
588.376	50.89
588.715	51.01
589.053	51.14
589.391	51.25
589.729	51.33
590.067	51.45
590.404	51.62
590.742	51.64
591.08	51.69
591.418	51.78
591.756	51.88
592.093	51.97
592.431	52.08
592.769	52.14
593.106	52.24
593.444	52.33
593.781	52.43
594.119	52.49
594.456	52.55
594.793	52.59
595.131	52.59
595.468	52.68
595.805	52.84
596.143	52.89
596.48	52.95
596.817	53.01
597.154	53.08
597.491	53.16
597.828	53.24
598.165	53.31
598.502	53.37
598.839	53.45
599.176	53.52
599.512	53.56
599.849	53.61
600.186	53.64
600.523	53.72
600.859	53.76
601.196	53.85
601.532	53.94
601.869	54.04
602.205	54.16
602.542	54.22
602.878	54.23
603.215	54.31
603.551	54.46
603.887	54.55
604.223	54.54
604.56	54.56
604.896	54.63
605.232	54.7
605.568	54.73
605.904	54.78
606.24	54.89
606.576	54.98
606.912	55.06
607.248	55.09
607.583	55.1
607.919	55.09
608.255	55.17
608.591	55.31
608.926	55.33
609.262	55.41
609.597	55.46
609.933	55.54
610.268	55.59
610.604	55.53
610.939	55.51
611.275	55.59
611.61	55.61
611.945	55.58
612.281	55.58
612.616	55.66
612.951	55.64
613.286	55.62
613.621	55.7
613.956	55.74
614.291	55.94
614.626	55.97
614.961	56.1
615.296	56.08
615.631	56.07
615.966	56.13
616.3	56.15
616.635	56.2
616.97	56.17
617.304	56.32
617.639	56.36
617.973	56.43
618.308	56.41
618.642	56.56
618.977	56.73
619.311	56.78
619.646	56.88
619.98	57
620.314	57.09
620.648	57.08
620.983	57.1
621.317	57.17
621.651	57.22
621.985	57.28
622.319	57.47
622.653	57.52
622.987	57.51
623.321	57.51
623.655	57.55
623.988	57.56
624.322	57.47
624.656	57.46
624.99	57.5
625.323	57.66
625.657	57.57
625.99	57.63
626.324	57.61
626.657	57.62
626.991	57.62
627.324	57.6
627.658	57.66
627.991	57.74
628.324	57.65
628.657	57.66
628.991	57.68
629.324	57.74
629.657	57.76
629.99	57.85
630.323	57.92
630.656	58.01
630.989	58.06
631.322	58.15
631.655	58.2
631.987	58.25
632.32	58.25
632.653	58.33
632.986	58.29
633.318	58.45
633.651	58.5
633.984	58.54
634.316	58.65
634.649	58.71
634.981	58.75
635.313	58.85
635.646	58.94
635.978	58.94
636.31	58.86
636.643	58.87
636.975	58.87
637.307	58.81
637.639	58.75
637.971	58.78
638.303	58.81
638.635	58.86
638.967	58.85
639.299	58.95
639.631	58.92
639.963	58.96
640.295	58.9
640.626	58.92
640.958	58.94
641.29	58.93
641.621	58.96
641.953	58.93
642.285	58.87
642.616	58.88
642.948	58.87
643.279	58.92
643.61	58.84
643.942	58.93
644.273	59.17
644.604	59.2
644.936	59.17
645.267	59.17
645.598	59.15
645.929	59.18
646.26	59.08
646.591	59.16
646.922	59.15
647.253	59.14
647.584	59
647.915	58.95
648.245	58.93
648.576	58.93
648.907	58.99
649.238	59.05
649.568	59.04
649.899	59.04
650.229	59.09
650.56	59.17
650.89	59.11
651.221	58.99
651.551	58.96
651.882	59.06
652.212	59.05
652.542	59.14
652.872	58.98
653.203	59.09
653.533	59.1
653.863	59.11
654.193	59.16
654.523	59.23
654.853	59.33
655.183	59.3
655.513	59.28
655.843	59.29
656.172	59.31
656.502	59.31
656.832	59.41
657.162	59.38
657.491	59.36
657.821	59.36
658.15	59.43
658.48	59.54
658.809	59.5
659.139	59.49
659.468	59.49
659.798	59.64
660.127	59.6
660.456	59.59
660.785	59.59
661.115	59.61
661.444	59.7
661.773	59.7
662.102	59.8
662.431	59.75
662.76	59.68
663.089	59.7
663.418	59.67
663.747	59.66
664.076	59.83
664.404	59.87
664.733	59.85
665.062	59.75
665.39	59.64
665.719	59.76
666.048	59.88
666.376	59.95
666.705	59.9
667.033	60.01
667.362	59.98
667.69	60.01
668.018	60.02
668.347	60.03
668.675	60.05
669.003	59.97
669.331	59.96
669.659	59.97
669.987	59.94
670.315	60.04
670.643	60.08
670.971	59.86
671.299	59.94
671.627	59.99
671.955	60.02
672.283	60.17
672.61	60.12
672.938	60
673.266	59.91
673.593	59.95
673.921	59.8
674.249	59.72
674.576	59.64
674.904	59.62
675.231	59.45
675.558	59.54
675.886	59.64
676.213	59.6
676.54	59.53
676.867	59.57
677.195	59.58
677.522	59.66
677.849	59.73
678.176	59.56
678.503	59.6
678.83	59.63
679.157	59.54
679.484	59.5
679.81	59.6
680.137	59.63
680.464	59.59
680.791	59.6
681.117	59.7
681.444	59.93
681.771	59.97
682.097	60.07
682.424	59.96
682.75	59.93
683.077	60.07
683.403	60.19
683.729	60.18
684.056	60.21
684.382	60.09
684.708	60.03
685.034	60.12
685.36	60.07
685.686	60.08
686.012	60.14
686.339	60.31
686.664	60.3
686.99	60.39
687.316	60.49
687.642	60.64
687.968	60.61
688.294	60.58
688.619	60.58
688.945	60.57
689.271	60.63
689.596	60.71
689.922	60.7
690.247	60.61
690.573	60.62
690.898	60.7
691.224	60.8
691.549	60.92
691.874	61.03
692.2	60.97
692.525	60.89
692.85	60.89
693.175	60.69
693.5	60.57
693.825	60.47
694.15	60.4
694.475	60.31
694.8	60.37
695.125	60.32
695.45	60.26
695.775	60.29
696.099	60.16
696.424	59.96
696.749	59.95
697.073	60.07
697.398	60.14
697.723	60.22
698.047	60.17
698.372	60.06
698.696	59.95
699.02	59.95
699.345	60.08
699.669	60.2
699.993	60.26
700.318	60.29
700.642	60.27
700.966	60.15
701.29	60.05
701.614	60.08
701.938	60.03
702.262	60.08
702.586	60.18
702.91	60.27
703.234	60.36
703.557	60.37
703.881	60.35
704.205	60.34
704.529	60.14
704.852	60.12
705.176	60.01
705.499	60.11
705.823	60.24
706.146	60.13
706.47	59.78
706.793	59.89
707.117	59.89
707.44	59.98
707.763	60.31
708.086	60.54
708.409	60.55
708.733	60.53
709.056	60.45
709.379	60.31
709.702	60.31
710.025	60.29
710.348	60.17
710.671	60.3
710.993	60.06
711.316	59.97
711.639	60.06
711.962	60.22
712.284	60.27
712.607	60.14
712.93	60.21
713.252	60.21
713.575	60.03
713.897	60.11
714.22	59.95
714.542	59.75
714.864	59.57
715.187	59.46
715.509	59.25
715.831	59.43
716.153	59.46
716.475	59.45
716.798	59.48
717.12	59.49
717.442	59.37
717.764	59.58
718.085	59.62
718.407	59.44
718.729	59.49
719.051	59.45
719.373	59.41
719.695	59.2
720.016	59.58
720.338	59.63
720.659	59.56
720.981	59.73
721.302	59.78
721.624	60
721.945	60.03
722.267	60.07
722.588	59.89
722.909	59.83
723.231	59.99
723.552	60.08
723.873	60.22
724.194	60.05
724.515	60.16
724.836	60.3
725.157	60.11
725.478	60.12
725.799	60.05
726.12	60.17
726.441	60.2
726.762	60.03
727.083	60.17
727.403	60.16
727.724	60.07
728.045	59.93
728.365	59.84
728.686	59.83
729.006	59.97
729.327	60.02
729.647	60.17
729.967	60.14
730.288	60.25
730.608	60.07
730.928	60.01
731.249	59.91
731.569	59.77
731.889	60.19
732.209	60.16
732.529	60.09
732.849	60
733.169	60.19
733.489	60.08
733.809	59.83
734.129	59.97
734.448	59.96
734.768	60.14
735.088	60.25
735.408	60.27
735.727	60.2
736.047	60.14
736.366	60.06
736.686	59.97
737.005	59.91
737.325	60.06
737.644	60.35
737.963	60.12
738.283	60.17
738.602	59.78
738.921	59.59
739.24	59.75
739.56	59.85
739.879	59.67
740.198	59.65
740.517	59.98
740.836	59.73
741.155	59.82
741.473	59.69
741.792	59.73
742.111	59.65
742.43	59.87
742.748	59.73
743.067	59.58
743.386	59.29
743.704	59.31
744.023	59.17
744.341	59.08
744.66	59.22
744.978	58.95
745.297	59.4
745.615	59.68
745.933	59.68
746.252	59.58
746.57	59.58
746.888	59.7
747.206	59.37
747.524	59.42
747.842	59.21
748.16	59.41
748.478	59.18
748.796	59.39
749.114	58.99
749.432	59.35
749.749	59.49
750.067	59.68
750.385	59.39
750.703	59.61
751.02	59.57
751.338	59.71
751.655	60.14
751.973	59.72
752.29	59.8
752.608	59.65
752.925	59.73
753.242	59.95
753.56	60.12
753.877	60.3
754.194	60.29
754.511	60.52
754.828	60.48
755.145	60.18
755.462	59.8
755.779	60.21
756.096	60.1
756.413	60.25
756.73	60.38
757.047	60.36
757.364	60.15
757.68	60.15
757.997	60.21
758.314	59.81
758.63	59.9
758.947	59.9
759.264	59.68
759.58	59.73
759.896	59.76
760.213	59.69
760.529	59.68
760.846	59.86
761.162	59.84
761.478	59.84
761.794	60.26
762.11	60.41
762.426	60.47
762.743	60.47
763.059	60.16
763.375	60.16
763.69	60.2
764.006	60.16
764.322	60.28
764.638	60.19
764.954	60.45
765.27	60.64
765.585	60.42
765.901	60.54
766.216	60.42
766.532	60.26
766.848	60.3
767.163	60.26
767.478	60.44
767.794	60.4
768.109	60.56
768.424	60.59
768.74	60.53
769.055	60.57
769.37	60.65
769.685	61.06
770	61.21
770.315	61.45
770.63	61.69
770.945	61.46
771.26	61.28
771.575	60.99
771.89	60.86
772.205	61.11
772.52	61.25
772.834	61.64
773.149	61.91
773.464	61.84
773.778	62.27
774.093	61.58
774.407	61.62
774.722	61.13
775.036	61.07
775.351	61.06
775.665	60.56
775.979	60.27
776.293	60.1
776.608	59.61
776.922	59.28
777.236	59.48
777.55	59.99
777.864	60.24
778.178	60.65
778.492	60.83
778.806	60.58
779.12	61.05
779.434	60.88
779.747	60.89
780.061	60.09
780.375	59.82
780.689	60.28
781.002	60.56
781.316	60.71
781.629	61.01
781.943	61.22
782.256	61.72
782.57	61.43
782.883	61.26
783.196	61.78
783.51	61.93
783.823	61.76
784.136	62.24
784.449	61.96
784.762	62.13
785.075	62
785.388	62.04
785.701	61.82
786.014	61.58
786.327	61.21
786.64	62.09
786.953	62.36
787.266	62.3
787.578	61.76
787.891	61.77
788.204	61.21
788.516	61.28
788.829	60.82
789.141	61.29
789.454	61.67
789.766	61.9
790.079	61.74
790.391	61.78
790.703	60.69
791.016	61.08
791.328	60.77
791.64	60.3
791.952	60.78
792.264	60.4
792.576	60.69
792.888	61.02
793.2	60.73
793.512	60.16
793.824	59.8
794.136	59.75
794.448	60.19
794.76	60.45
795.071	60.81
795.383	60.93
795.695	60.43
796.006	60.34
796.318	59.71
796.629	59.87
796.941	59.24
797.252	59.45
797.564	59.86
797.875	60.16
798.186	60.51
798.497	59.96
798.809	59.86
799.12	59.91
799.431	59.55
799.742	59.67
800.053	59.7
800.364	59.96
800.675	60.37
800.986	59.87
801.297	59.05
801.608	57.96
801.918	58.02
802.229	58.6
802.54	58.15
802.851	58.11
803.161	58.05
803.472	58.76
803.782	58.55
804.093	58.42
804.403	58.42
804.714	58.49
805.024	58.4
805.334	58.67
805.645	58.98
805.955	59.71
806.265	59.64
806.575	59.81
806.885	59.95
807.195	60
807.505	60.72
807.815	61.55
808.125	62.14
808.435	62.09
808.745	62.24
809.055	62.39
809.365	62.42
809.674	63.33
809.984	63.09
810.294	63.4
810.603	62.57
810.913	62.15
811.222	61.83
811.532	62.34
811.841	62.46
812.151	61.8
812.46	61.55
812.769	61.71
813.079	61.45
813.388	61.59
813.697	61.86
814.006	61.03
814.315	61.02
814.624	60.67
814.933	60.53
815.242	61.01
815.551	61.21
815.86	61.4
816.169	60.6
816.478	60.32
816.786	60.69
817.095	60.76
817.404	60.5
817.712	60.62
818.021	60.81
818.33	59.94
818.638	60.33
818.947	59.99
819.255	59.65
819.563	59.49
819.872	59.51
820.18	59.63
820.488	59.74
820.796	59.8
821.105	59.54
821.413	59.5
821.721	58.97
822.029	58.93
822.337	59.05
822.645	59
822.953	59
823.26	59.06
823.568	59.19
823.876	59.28
824.184	59.37
824.491	59.23
824.799	59.5
825.107	59.58
825.414	59.67
825.722	59.92
826.029	60.1
826.337	60.29
826.644	60.13
826.951	60.25
827.259	60.2
827.566	60.62
827.873	60.77
828.18	61.2
828.488	61.48
828.795	61.68
829.102	61.95
829.409	62.34
829.716	62.34
830.023	62.55
830.329	62.53
830.636	62.36
830.943	62.65
831.25	62.4
831.557	61.96
831.863	62.22
832.17	62.11
832.476	61.97
832.783	61.2
833.089	61.28
833.396	60.89
833.702	60.75
834.009	60.44
834.315	60.8
834.621	60.85
834.928	60.58
835.234	60.69
835.54	60.42
835.846	60.15
836.152	60.06
836.458	59.84
836.764	59.82
837.07	60.08
837.376	59.8
837.682	59.83
837.988	59.87
838.293	59.03
838.599	59.27
838.905	59.53
839.211	60.38
839.516	60.63
839.822	60.59
840.127	61.09
840.433	61.82
840.738	61.05
841.044	60.3
841.349	60.11
841.654	59.27
841.959	59.7
842.265	60.08
842.57	60.23
842.875	59.86
843.18	59.79
843.485	60.55
843.79	60.54
844.095	60.52
844.4	61.14
844.705	61.23
845.01	59.94
845.315	59.93
845.619	59.16
845.924	57.97
846.229	58.28
846.533	56.7
846.838	55.8
847.142	56.17
847.447	57.11
847.751	57.69
848.056	58.93
848.36	61.11
848.664	60.22
848.969	59.39
849.273	59.65
849.577	61.33
849.881	59.21
850.185	60.15
850.489	61.26
850.794	60.68
851.097	61.91
851.401	62.73
851.705	62.94
852.009	63.53
852.313	65.59
852.617	65.6
852.92	66.73
853.224	64.46
853.528	64.03
853.831	64.73
854.135	64.03
854.438	61.61
854.742	58.68
855.045	59.55
855.349	61.19
855.652	60.63
855.955	59.91
856.259	58.93
856.562	57.22
856.865	58.65
857.168	59.3
857.471	58.18
857.774	57.71
858.077	57.08
858.38	57.01
858.683	55.76
858.986	56.04
859.289	56.53
859.592	59.18
859.894	60.49
860.197	60.82
860.5	62.62
860.802	62.63
861.105	64.06
861.407	62.38
861.71	61.06
862.012	60.69
862.315	58.55
862.617	61.14
862.919	62.33
863.222	58.51
863.524	60.68
863.826	62.26
864.128	64.06
864.43	65.07
864.732	64.8
865.034	62.94
865.336	62.89
865.638	62.14
865.94	63.47
866.242	62.3
866.544	63.92
866.846	60.28
867.147	62.84
867.449	60.27
867.751	61.51
868.052	62.66
868.354	63.8
868.655	67.06
868.957	65.99
869.258	65.11
869.56	68.13
869.861	65.09
870.162	63.26
870.463	60.81
870.765	59.42
871.066	57.71
871.367	59.76
871.668	61.79
871.969	61.3
872.27	60.81
872.571	62.6
872.872	59.36
873.173	61.78
873.473	59.12
873.774	62.34
874.075	62.71
874.376	60.78
874.676	61.11
874.977	60.06
875.277	61.46
875.578	63.55
875.878	62.53
876.179	62.85
876.479	64.88
876.78	65.39
877.08	65.94
877.38	68.1
877.68	68.6
877.981	65.59
878.281	67.48
878.581	66.47
