Data from BU57647_Reflection_00002.txt Node
Date: Mon Nov 18 16:49:21 EST 2019
User: vgr7
Spectrometer: USB2G7710
Scans to average: 3
Trigger mode: 4
Integration Time (sec): 2.000000E-2
Electric dark correction enabled: true
Boxcar width: 10
XAxis mode: Wavelengths
Number of Pixels in Spectrum: 2048
>>>>>Begin Spectral Data<<<<<
177.721	36.26
178.105	33.72
178.488	-13.94
178.871	-150
179.254	-4.78
179.636	-590.22
180.019	-213.48
180.402	27.5
180.785	266.22
181.168	98.1
181.55	-14.14
181.933	60.59
182.316	39.55
182.698	57.71
183.081	48.77
183.463	-92.11
183.846	1081.13
184.228	1009.09
184.611	-104.08
184.993	-12.06
185.376	23.69
185.758	15.6
186.14	26.81
186.522	5.35
186.904	-8.71
187.287	-56.54
187.669	8.53
188.051	-113.3
188.433	-63.15
188.815	-21.55
189.197	-10.51
189.579	-6.8
189.961	-18.41
190.342	-41.72
190.724	-8.28
191.106	-21.75
191.488	-37.26
191.869	-52.99
192.251	-38.21
192.633	-31.61
193.014	-25.87
193.396	-90.24
193.777	-64.13
194.159	-196.4
194.54	-105.56
194.922	-43.96
195.303	24.13
195.684	2.23
196.065	41.21
196.447	52.55
196.828	17.93
197.209	-8.36
197.59	-43.06
197.971	-56.29
198.352	-46.37
198.733	-70.4
199.114	-53.79
199.495	-47.01
199.876	-39.43
200.257	-51.82
200.638	-34.79
201.018	-52.28
201.399	-30.18
201.78	-23.6
202.16	-30.45
202.541	-56.02
202.922	-87.09
203.302	-146.41
203.683	-129.71
204.063	-185.1
204.444	-176.95
204.824	-158.41
205.204	-184.55
205.585	-207.41
205.965	-269.85
206.345	-279.2
206.725	-1360.47
207.106	-1919.14
207.486	907.78
207.866	1032.08
208.246	2688.96
208.626	2220.6
209.006	-1303.28
209.386	4923.53
209.766	-10027.66
210.145	-1572.6
210.525	-207.94
210.905	-155.96
211.285	-107.71
211.664	-54.13
212.044	-39.85
212.424	-25.39
212.803	-26.47
213.183	-10.46
213.562	1.04
213.942	-8.82
214.321	1.25
214.701	-4.92
215.08	21.09
215.459	20.94
215.838	26.82
216.218	25.25
216.597	22.64
216.976	25.48
217.355	15.16
217.734	24.28
218.113	21.71
218.492	16.32
218.871	10.83
219.25	5.33
219.629	-20.73
220.008	-22.52
220.387	-43.59
220.766	-38.6
221.144	-74.65
221.523	-88.66
221.902	-62.37
222.28	-73.87
222.659	-53.14
223.037	-57.06
223.416	-65.59
223.794	-47.2
224.173	-38.18
224.551	-33.45
224.929	-39.43
225.308	-19.4
225.686	-12.37
226.064	-11.32
226.442	-13.47
226.821	-1.87
227.199	-0.09
227.577	-1.4
227.955	-1.04
228.333	7.8
228.711	5.57
229.089	13.3
229.467	11.77
229.845	9.06
230.222	10.78
230.6	7.9
230.978	4.52
231.356	7.38
231.733	5.24
232.111	3.93
232.488	3.17
232.866	4.88
233.243	4.85
233.621	0.72
233.998	1.27
234.376	1.07
234.753	0.07
235.13	-0.43
235.508	1.25
235.885	2.34
236.262	0.75
236.639	-0.07
237.016	0.06
237.393	1.32
237.77	3.59
238.147	3.28
238.524	4.48
238.901	4.44
239.278	4.03
239.655	4.91
240.032	5.69
240.409	5.59
240.785	5.28
241.162	5.43
241.539	6.88
241.915	6.84
242.292	6.46
242.668	6.3
243.045	7.04
243.421	6.68
243.798	6.22
244.174	6.14
244.551	6.37
244.927	6.37
245.303	6.35
245.679	5.86
246.056	6.06
246.432	6
246.808	6.49
247.184	6.41
247.56	6.06
247.936	5.89
248.312	5.81
248.688	5.89
249.064	5.96
249.44	5.61
249.815	5.5
250.191	5.75
250.567	5.71
250.943	5.39
251.318	5.57
251.694	5.64
252.069	5.88
252.445	6
252.82	5.83
253.196	5.53
253.571	5.68
253.947	5.38
254.322	5.2
254.697	4.98
255.073	5.12
255.448	5.36
255.823	5.62
256.198	5.81
256.573	5.63
256.948	5.32
257.323	5.48
257.698	5.69
258.073	5.47
258.448	5.48
258.823	5.47
259.198	5.23
259.573	5.01
259.948	4.92
260.322	4.9
260.697	4.94
261.072	5.15
261.446	5.15
261.821	5.05
262.195	5.03
262.57	4.84
262.944	4.77
263.319	4.7
263.693	4.52
264.067	4.5
264.442	4.53
264.816	4.54
265.19	4.46
265.564	4.25
265.938	4.28
266.313	4.24
266.687	4.17
267.061	4.32
267.435	4.43
267.809	4.2
268.183	4.3
268.556	3.96
268.93	3.79
269.304	3.66
269.678	3.7
270.051	3.72
270.425	3.7
270.799	3.6
271.172	3.67
271.546	3.76
271.919	3.62
272.293	3.65
272.666	3.76
273.04	3.71
273.413	3.78
273.787	3.74
274.16	3.73
274.533	3.83
274.906	3.76
275.279	3.73
275.653	3.79
276.026	3.57
276.399	3.78
276.772	4.06
277.145	4.09
277.518	4.17
277.891	4.24
278.263	4.24
278.636	4.34
279.009	4.21
279.382	4.16
279.755	4.3
280.127	4.43
280.5	4.33
280.872	4.46
281.245	4.4
281.617	4.43
281.99	4.52
282.362	4.57
282.735	4.51
283.107	4.57
283.479	4.6
283.852	4.69
284.224	4.8
284.596	4.57
284.968	4.52
285.34	4.53
285.713	4.59
286.085	4.68
286.457	4.78
286.829	4.82
287.201	4.69
287.572	4.53
287.944	4.42
288.316	4.43
288.688	4.25
289.06	4.27
289.431	4.34
289.803	4.31
290.175	4.14
290.546	4.34
290.918	4.21
291.289	4.21
291.661	4.23
292.032	4.23
292.403	4.34
292.775	4.48
293.146	4.53
293.517	4.49
293.889	4.58
294.26	4.51
294.631	4.45
295.002	4.59
295.373	4.73
295.744	4.71
296.115	4.81
296.486	4.81
296.857	4.79
297.228	4.74
297.599	4.65
297.97	4.79
298.34	4.67
298.711	4.79
299.082	4.76
299.452	4.67
299.823	4.63
300.194	4.64
300.564	4.55
300.935	4.7
301.305	4.64
301.676	4.67
302.046	4.67
302.416	4.87
302.787	4.81
303.157	4.74
303.527	4.87
303.897	4.83
304.267	5
304.637	5.03
305.008	5.2
305.378	5.35
305.748	5.38
306.117	5.48
306.487	5.42
306.857	5.55
307.227	5.63
307.597	5.53
307.967	5.49
308.336	5.62
308.706	5.48
309.076	5.53
309.445	5.37
309.815	5.43
310.184	5.3
310.554	5.46
310.923	5.46
311.293	5.43
311.662	5.32
312.031	5.29
312.401	5.33
312.77	5.31
313.139	5.28
313.508	5.31
313.877	5.17
314.246	5.28
314.616	5.15
314.985	5.11
315.353	5.21
315.722	5.28
316.091	5.26
316.46	5.18
316.829	5.09
317.198	5.23
317.567	5.09
317.935	5.13
318.304	5.06
318.672	5.05
319.041	5.17
319.41	5.26
319.778	5.18
320.147	5.22
320.515	5.09
320.883	4.98
321.252	4.96
321.62	5.04
321.988	5.09
322.357	5.11
322.725	5.15
323.093	5.25
323.461	5.18
323.829	5.07
324.197	5.05
324.565	5.01
324.933	5.08
325.301	5.14
325.669	5.12
326.037	5.08
326.405	5.11
326.772	5.05
327.14	5.05
327.508	5.17
327.875	4.99
328.243	5.09
328.61	5.27
328.978	5.34
329.346	5.33
329.713	5.3
330.08	5.36
330.448	5.31
330.815	5.05
331.182	5.01
331.55	5.1
331.917	5.19
332.284	5.36
332.651	5.19
333.018	5.06
333.385	4.99
333.752	4.96
334.119	4.95
334.486	4.98
334.853	5.02
335.22	5.03
335.587	5.13
335.954	4.98
336.32	4.95
336.687	4.78
337.054	4.68
337.42	4.63
337.787	4.68
338.153	4.64
338.52	4.67
338.886	4.63
339.253	4.63
339.619	4.57
339.986	4.49
340.352	4.57
340.718	4.51
341.084	4.63
341.451	4.63
341.817	4.63
342.183	4.48
342.549	4.42
342.915	4.27
343.281	4.25
343.647	4.35
344.013	4.23
344.379	4.22
344.745	4.36
345.11	4.42
345.476	4.45
345.842	4.55
346.208	4.64
346.573	4.7
346.939	4.64
347.304	4.62
347.67	4.6
348.035	4.51
348.401	4.57
348.766	4.48
349.132	4.51
349.497	4.52
349.862	4.64
350.228	4.69
350.593	4.67
350.958	4.66
351.323	4.6
351.688	4.7
352.053	4.74
352.418	4.8
352.783	4.75
353.148	4.65
353.513	4.68
353.878	4.67
354.243	4.73
354.608	4.84
354.972	4.93
355.337	4.98
355.702	5.01
356.066	5.14
356.431	5.18
356.795	5.24
357.16	5.26
357.524	5.15
357.889	5.05
358.253	5.13
358.618	5.19
358.982	5.21
359.346	5.15
359.71	5.14
360.075	5.03
360.439	5.03
360.803	5.02
361.167	4.93
361.531	4.9
361.895	4.85
362.259	4.84
362.623	4.83
362.987	4.83
363.351	4.81
363.714	4.77
364.078	4.79
364.442	4.76
364.806	4.76
365.169	4.74
365.533	4.82
365.896	4.77
366.26	4.73
366.623	4.73
366.987	4.79
367.35	4.81
367.714	4.84
368.077	4.85
368.44	4.89
368.803	4.96
369.167	4.96
369.53	4.98
369.893	4.97
370.256	4.95
370.619	4.97
370.982	4.98
371.345	4.95
371.708	4.92
372.071	4.86
372.434	4.84
372.797	4.86
373.159	4.8
373.522	4.89
373.885	4.93
374.247	4.96
374.61	4.88
374.973	4.84
375.335	4.87
375.698	4.84
376.06	4.82
376.423	4.76
376.785	4.81
377.147	4.87
377.51	4.81
377.872	4.81
378.234	4.75
378.596	4.76
378.958	4.69
379.321	4.71
379.683	4.72
380.045	4.67
380.407	4.72
380.769	4.75
381.13	4.68
381.492	4.65
381.854	4.7
382.216	4.72
382.578	4.74
382.939	4.71
383.301	4.7
383.663	4.68
384.024	4.73
384.386	4.71
384.747	4.67
385.109	4.68
385.47	4.66
385.832	4.66
386.193	4.68
386.554	4.71
386.916	4.7
387.277	4.7
387.638	4.72
387.999	4.65
388.36	4.67
388.721	4.71
389.082	4.68
389.443	4.62
389.804	4.6
390.165	4.59
390.526	4.62
390.887	4.65
391.248	4.7
391.609	4.67
391.969	4.68
392.33	4.64
392.691	4.65
393.051	4.66
393.412	4.66
393.772	4.64
394.133	4.64
394.493	4.65
394.854	4.67
395.214	4.65
395.574	4.7
395.935	4.7
396.295	4.7
396.655	4.71
397.015	4.7
397.376	4.74
397.736	4.71
398.096	4.72
398.456	4.71
398.816	4.71
399.176	4.69
399.535	4.68
399.895	4.7
400.255	4.69
400.615	4.71
400.975	4.71
401.334	4.71
401.694	4.72
402.054	4.7
402.413	4.71
402.773	4.71
403.132	4.67
403.492	4.68
403.851	4.65
404.211	4.65
404.57	4.65
404.929	4.64
405.288	4.62
405.648	4.61
406.007	4.62
406.366	4.63
406.725	4.65
407.084	4.67
407.443	4.7
407.802	4.7
408.161	4.66
408.52	4.66
408.879	4.65
409.238	4.68
409.596	4.67
409.955	4.66
410.314	4.69
410.673	4.7
411.031	4.7
411.39	4.72
411.748	4.71
412.107	4.72
412.465	4.69
412.824	4.74
413.182	4.73
413.54	4.75
413.899	4.72
414.257	4.69
414.615	4.66
414.974	4.62
415.332	4.62
415.69	4.63
416.048	4.63
416.406	4.65
416.764	4.62
417.122	4.64
417.48	4.63
417.838	4.63
418.195	4.61
418.553	4.6
418.911	4.6
419.269	4.6
419.626	4.59
419.984	4.6
420.342	4.6
420.699	4.6
421.057	4.58
421.414	4.58
421.772	4.59
422.129	4.6
422.486	4.6
422.844	4.59
423.201	4.58
423.558	4.59
423.915	4.57
424.273	4.58
424.63	4.56
424.987	4.57
425.344	4.56
425.701	4.57
426.058	4.56
426.415	4.55
426.772	4.54
427.128	4.55
427.485	4.54
427.842	4.53
428.199	4.5
428.555	4.49
428.912	4.49
429.269	4.48
429.625	4.47
429.982	4.49
430.338	4.49
430.695	4.51
431.051	4.5
431.407	4.51
431.764	4.5
432.12	4.51
432.476	4.51
432.832	4.5
433.189	4.51
433.545	4.52
433.901	4.53
434.257	4.52
434.613	4.52
434.969	4.54
435.325	4.55
435.681	4.58
436.036	4.58
436.392	4.58
436.748	4.6
437.104	4.59
437.459	4.58
437.815	4.61
438.171	4.6
438.526	4.62
438.882	4.62
439.237	4.62
439.593	4.63
439.948	4.62
440.304	4.62
440.659	4.63
441.014	4.62
441.369	4.61
441.725	4.62
442.08	4.61
442.435	4.6
442.79	4.58
443.145	4.57
443.5	4.56
443.855	4.55
444.21	4.53
444.565	4.54
444.92	4.53
445.275	4.52
445.629	4.51
445.984	4.5
446.339	4.49
446.693	4.49
447.048	4.49
447.403	4.48
447.757	4.47
448.112	4.45
448.466	4.42
448.82	4.43
449.175	4.42
449.529	4.41
449.883	4.39
450.238	4.38
450.592	4.4
450.946	4.4
451.3	4.39
451.654	4.39
452.008	4.38
452.362	4.37
452.716	4.36
453.07	4.37
453.424	4.36
453.778	4.35
454.132	4.35
454.486	4.33
454.839	4.34
455.193	4.35
455.547	4.37
455.9	4.4
456.254	4.41
456.607	4.44
456.961	4.44
457.314	4.46
457.668	4.47
458.021	4.45
458.375	4.45
458.728	4.46
459.081	4.47
459.434	4.47
459.787	4.47
460.141	4.46
460.494	4.45
460.847	4.46
461.2	4.46
461.553	4.47
461.906	4.48
462.259	4.48
462.611	4.49
462.964	4.5
463.317	4.5
463.67	4.5
464.022	4.49
464.375	4.49
464.728	4.48
465.08	4.51
465.433	4.52
465.785	4.52
466.138	4.52
466.49	4.53
466.843	4.51
467.195	4.52
467.547	4.54
467.899	4.56
468.252	4.55
468.604	4.58
468.956	4.56
469.308	4.57
469.66	4.56
470.012	4.57
470.364	4.57
470.716	4.56
471.068	4.57
471.42	4.59
471.772	4.6
472.123	4.6
472.475	4.6
472.827	4.6
473.178	4.62
473.53	4.62
473.882	4.59
474.233	4.61
474.585	4.61
474.936	4.61
475.288	4.62
475.639	4.64
475.99	4.62
476.342	4.64
476.693	4.63
477.044	4.65
477.395	4.64
477.746	4.63
478.097	4.62
478.448	4.63
478.8	4.61
479.15	4.61
479.501	4.62
479.852	4.61
480.203	4.6
480.554	4.6
480.905	4.61
481.255	4.62
481.606	4.63
481.957	4.64
482.307	4.64
482.658	4.64
483.009	4.63
483.359	4.63
483.709	4.63
484.06	4.63
484.41	4.64
484.761	4.64
485.111	4.65
485.461	4.66
485.811	4.66
486.162	4.67
486.512	4.67
486.862	4.67
487.212	4.67
487.562	4.67
487.912	4.68
488.262	4.68
488.612	4.68
488.961	4.68
489.311	4.68
489.661	4.68
490.011	4.69
490.36	4.68
490.71	4.69
491.06	4.69
491.409	4.7
491.759	4.7
492.108	4.7
492.458	4.71
492.807	4.7
493.157	4.69
493.506	4.67
493.855	4.67
494.204	4.69
494.554	4.69
494.903	4.69
495.252	4.68
495.601	4.71
495.95	4.71
496.299	4.7
496.648	4.69
496.997	4.69
497.346	4.7
497.695	4.72
498.043	4.72
498.392	4.71
498.741	4.7
499.09	4.69
499.438	4.7
499.787	4.68
500.135	4.7
500.484	4.72
500.832	4.74
501.181	4.76
501.529	4.77
501.878	4.79
502.226	4.81
502.574	4.83
502.923	4.81
503.271	4.8
503.619	4.81
503.967	4.84
504.315	4.85
504.663	4.83
505.011	4.83
505.359	4.83
505.707	4.84
506.055	4.86
506.403	4.89
506.751	4.89
507.098	4.89
507.446	4.9
507.794	4.89
508.141	4.9
508.489	4.88
508.837	4.9
509.184	4.89
509.531	4.86
509.879	4.89
510.226	4.91
510.574	4.93
510.921	4.94
511.268	4.94
511.616	4.95
511.963	4.97
512.31	4.96
512.657	4.97
513.004	5
513.351	4.99
513.698	4.98
514.045	4.97
514.392	4.97
514.739	4.96
515.086	4.98
515.432	4.98
515.779	4.98
516.126	4.99
516.473	5
516.819	5.03
517.166	5
517.512	5.01
517.859	4.99
518.205	5
518.552	4.99
518.898	4.99
519.245	4.98
519.591	4.99
519.937	4.98
520.283	4.98
520.629	4.99
520.976	5.01
521.322	5.03
521.668	5.03
522.014	5.05
522.36	5.05
522.706	5.05
523.052	5.09
523.398	5.07
523.743	5.07
524.089	5.07
524.435	5.08
524.781	5.08
525.126	5.12
525.472	5.14
525.817	5.13
526.163	5.14
526.509	5.16
526.854	5.17
527.199	5.18
527.545	5.16
527.89	5.17
528.235	5.17
528.581	5.17
528.926	5.18
529.271	5.17
529.616	5.17
529.961	5.18
530.306	5.17
530.651	5.17
530.996	5.17
531.341	5.18
531.686	5.18
532.031	5.18
532.376	5.17
532.721	5.16
533.065	5.17
533.41	5.17
533.755	5.16
534.099	5.15
534.444	5.15
534.788	5.17
535.133	5.19
535.477	5.2
535.822	5.2
536.166	5.2
536.51	5.22
536.855	5.22
537.199	5.23
537.543	5.23
537.887	5.24
538.231	5.22
538.576	5.23
538.92	5.22
539.264	5.21
539.608	5.18
539.951	5.17
540.295	5.18
540.639	5.18
540.983	5.2
541.327	5.21
541.671	5.2
542.014	5.21
542.358	5.2
542.701	5.2
543.045	5.19
543.389	5.18
543.732	5.19
544.075	5.21
544.419	5.2
544.762	5.2
545.105	5.2
545.449	5.2
545.792	5.2
546.135	5.23
546.478	5.24
546.821	5.28
547.165	5.3
547.508	5.31
547.851	5.3
548.194	5.26
548.536	5.25
548.879	5.27
549.222	5.26
549.565	5.24
549.908	5.26
550.25	5.26
550.593	5.28
550.936	5.27
551.278	5.26
551.621	5.24
551.963	5.24
552.306	5.24
552.648	5.24
552.991	5.26
553.333	5.25
553.675	5.26
554.017	5.26
554.36	5.25
554.702	5.24
555.044	5.25
555.386	5.26
555.728	5.26
556.07	5.25
556.412	5.23
556.754	5.24
557.096	5.21
557.438	5.22
557.78	5.22
558.121	5.24
558.463	5.23
558.805	5.27
559.147	5.25
559.488	5.26
559.83	5.26
560.171	5.27
560.513	5.28
560.854	5.28
561.196	5.28
561.537	5.27
561.878	5.27
562.22	5.28
562.561	5.29
562.902	5.3
563.243	5.32
563.584	5.33
563.925	5.32
564.266	5.34
564.607	5.33
564.948	5.31
565.289	5.3
565.63	5.3
565.971	5.27
566.312	5.29
566.653	5.3
566.993	5.29
567.334	5.27
567.675	5.29
568.015	5.29
568.356	5.26
568.696	5.29
569.037	5.29
569.377	5.29
569.718	5.3
570.058	5.29
570.398	5.26
570.739	5.27
571.079	5.24
571.419	5.24
571.759	5.27
572.099	5.27
572.439	5.24
572.779	5.22
573.119	5.23
573.459	5.23
573.799	5.26
574.139	5.28
574.479	5.27
574.819	5.26
575.158	5.24
575.498	5.28
575.838	5.27
576.177	5.25
576.517	5.23
576.856	5.27
577.196	5.27
577.535	5.31
577.875	5.3
578.214	5.32
578.553	5.31
578.893	5.28
579.232	5.3
579.571	5.33
579.91	5.37
580.25	5.4
580.589	5.41
580.928	5.38
581.267	5.38
581.606	5.41
581.945	5.39
582.283	5.41
582.622	5.38
582.961	5.43
583.3	5.47
583.639	5.48
583.977	5.46
584.316	5.48
584.654	5.47
584.993	5.5
585.332	5.5
585.67	5.48
586.008	5.47
586.347	5.51
586.685	5.5
587.024	5.48
587.362	5.45
587.7	5.43
588.038	5.43
588.376	5.41
588.715	5.41
589.053	5.44
589.391	5.43
589.729	5.47
590.067	5.41
590.404	5.37
590.742	5.39
591.08	5.34
591.418	5.33
591.756	5.34
592.093	5.35
592.431	5.34
592.769	5.37
593.106	5.39
593.444	5.32
593.781	5.32
594.119	5.33
594.456	5.33
594.793	5.35
595.131	5.35
595.468	5.36
595.805	5.35
596.143	5.35
596.48	5.34
596.817	5.3
597.154	5.33
597.491	5.33
597.828	5.31
598.165	5.36
598.502	5.38
598.839	5.35
599.176	5.32
599.512	5.35
599.849	5.37
600.186	5.38
600.523	5.42
600.859	5.45
601.196	5.46
601.532	5.45
601.869	5.44
602.205	5.45
602.542	5.47
602.878	5.48
603.215	5.46
603.551	5.51
603.887	5.5
604.223	5.5
604.56	5.52
604.896	5.54
605.232	5.56
605.568	5.59
605.904	5.59
606.24	5.63
606.576	5.64
606.912	5.64
607.248	5.64
607.583	5.66
607.919	5.65
608.255	5.66
608.591	5.69
608.926	5.71
609.262	5.72
609.597	5.71
609.933	5.69
610.268	5.7
610.604	5.69
610.939	5.72
611.275	5.72
611.61	5.72
611.945	5.71
612.281	5.65
612.616	5.6
612.951	5.65
613.286	5.63
613.621	5.6
613.956	5.56
614.291	5.54
614.626	5.49
614.961	5.47
615.296	5.45
615.631	5.43
615.966	5.41
616.3	5.36
616.635	5.32
616.97	5.33
617.304	5.33
617.639	5.3
617.973	5.29
618.308	5.31
618.642	5.26
618.977	5.23
619.311	5.26
619.646	5.24
619.98	5.21
620.314	5.21
620.648	5.23
620.983	5.26
621.317	5.28
621.651	5.33
621.985	5.37
622.319	5.39
622.653	5.41
622.987	5.48
623.321	5.5
623.655	5.51
623.988	5.57
624.322	5.55
624.656	5.56
624.99	5.56
625.323	5.56
625.657	5.63
625.99	5.72
626.324	5.74
626.657	5.77
626.991	5.81
627.324	5.81
627.658	5.81
627.991	5.78
628.324	5.78
628.657	5.8
628.991	5.8
629.324	5.81
629.657	5.78
629.99	5.74
630.323	5.81
630.656	5.88
630.989	5.91
631.322	5.94
631.655	5.98
631.987	6
632.32	6
632.653	5.99
632.986	5.93
633.318	5.91
633.651	5.92
633.984	5.9
634.316	5.87
634.649	5.84
634.981	5.86
635.313	5.87
635.646	5.85
635.978	5.81
636.31	5.82
636.643	5.83
636.975	5.84
637.307	5.84
637.639	5.82
637.971	5.76
638.303	5.76
638.635	5.72
638.967	5.75
639.299	5.8
639.631	5.76
639.963	5.72
640.295	5.74
640.626	5.8
640.958	5.83
641.29	5.83
641.621	5.87
641.953	5.89
642.285	5.85
642.616	5.87
642.948	5.86
643.279	5.84
643.61	5.87
643.942	5.86
644.273	5.83
644.604	5.74
644.936	5.81
645.267	5.82
645.598	5.81
645.929	5.85
646.26	5.82
646.591	5.85
646.922	5.9
647.253	5.94
647.584	5.86
647.915	5.78
648.245	5.81
648.576	5.86
648.907	5.89
649.238	5.89
649.568	5.9
649.899	5.92
650.229	5.99
650.56	5.92
650.89	5.93
651.221	5.89
651.551	5.87
651.882	5.84
652.212	5.83
652.542	5.86
652.872	5.74
653.203	5.72
653.533	5.79
653.863	5.82
654.193	5.78
654.523	5.81
654.853	5.94
655.183	5.93
655.513	5.88
655.843	5.9
656.172	5.99
656.502	6.02
656.832	6.03
657.162	5.93
657.491	5.95
657.821	5.95
658.15	5.97
658.48	6.04
658.809	5.99
659.139	5.97
659.468	5.98
659.798	6.04
660.127	6.14
660.456	6.13
660.785	6.1
661.115	6.14
661.444	6.15
661.773	6.1
662.102	6.05
662.431	6.1
662.76	6.05
663.089	6.03
663.418	5.94
663.747	5.95
664.076	5.97
664.404	5.99
664.733	5.96
665.062	5.9
665.39	5.86
665.719	5.85
666.048	5.88
666.376	5.84
666.705	5.76
667.033	5.65
667.362	5.68
667.69	5.64
668.018	5.58
668.347	5.58
668.675	5.59
669.003	5.63
669.331	5.72
669.659	5.8
669.987	5.78
670.315	5.85
670.643	5.83
670.971	5.96
671.299	5.96
671.627	6
671.955	6.13
672.283	6.13
672.61	6.18
672.938	6.25
673.266	6.35
673.593	6.55
673.921	6.56
674.249	6.5
674.576	6.49
674.904	6.53
675.231	6.53
675.558	6.48
675.886	6.5
676.213	6.41
676.54	6.31
676.867	6.34
677.195	6.32
677.522	6.39
677.849	6.26
678.176	6.32
678.503	6.29
678.83	6.27
679.157	6.27
679.484	6.26
679.81	6.19
680.137	6.07
680.464	5.89
680.791	5.92
681.117	5.92
681.444	5.89
681.771	5.85
682.097	5.82
682.424	5.85
682.75	5.86
683.077	5.93
683.403	5.96
683.729	5.86
684.056	5.96
684.382	5.9
684.708	5.94
685.034	5.86
685.36	5.9
685.686	5.86
686.012	5.85
686.339	5.91
686.664	5.88
686.99	5.96
687.316	5.98
687.642	6.06
687.968	6.07
688.294	6.12
688.619	6.22
688.945	6.16
689.271	6.2
689.596	6.19
689.922	6.11
690.247	6.14
690.573	6.2
690.898	6.01
691.224	5.95
691.549	5.95
691.874	6
692.2	5.99
692.525	6.05
692.85	6.2
693.175	6.23
693.5	6.25
693.825	6.27
694.15	6.29
694.475	6.2
694.8	6.28
695.125	6.32
695.45	6.12
695.775	6.15
696.099	6.02
696.424	5.97
696.749	5.9
697.073	5.88
697.398	5.86
697.723	5.95
698.047	6
698.372	6.06
698.696	6.11
699.02	6.08
699.345	6.03
699.669	6
699.993	5.96
700.318	5.97
700.642	5.88
700.966	5.95
701.29	5.96
701.614	5.76
701.938	5.77
702.262	5.93
702.586	6.05
702.91	6.11
703.234	6.23
703.557	6.29
703.881	6.27
704.205	6.3
704.529	6.35
704.852	6.32
705.176	6.15
705.499	6.02
705.823	6.08
706.146	6.1
706.47	6.12
706.793	6.15
707.117	6.17
707.44	6.2
707.763	6.21
708.086	6.19
708.409	6.3
708.733	6.35
709.056	6.3
709.379	6.28
709.702	6.35
710.025	6.12
710.348	6.19
710.671	6.21
710.993	6.2
711.316	6.15
711.639	6.17
711.962	6.34
712.284	6.32
712.607	6.24
712.93	6.35
713.252	6.35
713.575	6.33
713.897	6.29
714.22	6.38
714.542	6.29
714.864	6.35
715.187	6.43
715.509	6.39
715.831	6.41
716.153	6.37
716.475	6.32
716.798	6.57
717.12	6.49
717.442	6.45
717.764	6.46
718.085	6.5
718.407	6.56
718.729	6.35
719.051	6.4
719.373	6.45
719.695	6.34
720.016	6.37
720.338	6.37
720.659	6.38
720.981	6.26
721.302	6.45
721.624	6.32
721.945	6.16
722.267	6.07
722.588	6.07
722.909	6.12
723.231	6.01
723.552	5.92
723.873	5.97
724.194	6.16
724.515	6.08
724.836	6.2
725.157	6.25
725.478	6.42
725.799	6.55
726.12	6.57
726.441	6.54
726.762	6.35
727.083	6.29
727.403	6.52
727.724	6.76
728.045	6.59
728.365	6.5
728.686	6.66
729.006	6.7
729.327	6.7
729.647	6.65
729.967	6.81
730.288	6.81
730.608	6.78
730.928	6.72
731.249	6.78
731.569	6.66
731.889	6.51
732.209	6.51
732.529	6.59
732.849	6.66
733.169	6.71
733.489	6.84
733.809	6.91
734.129	6.78
734.448	6.75
734.768	6.69
735.088	7.02
735.408	7.07
735.727	7.1
736.047	7.13
736.366	7.01
736.686	6.96
737.005	7.12
737.325	7.08
737.644	7.04
737.963	6.86
738.283	6.61
738.602	6.7
738.921	6.85
739.24	6.7
739.56	6.54
739.879	6.47
740.198	6.47
740.517	6.49
740.836	6.3
741.155	6.13
741.473	6.34
741.792	6.05
742.111	5.96
742.43	5.93
742.748	5.78
743.067	5.97
743.386	6.25
743.704	6.09
744.023	6.16
744.341	6.21
744.66	6.71
744.978	6.89
745.297	6.92
745.615	6.77
745.933	6.82
746.252	6.9
746.57	6.91
746.888	6.96
747.206	6.81
747.524	7.25
747.842	7.56
748.16	7.5
748.478	7.71
748.796	7.8
749.114	8.05
749.432	8.02
749.749	8.2
750.067	7.9
750.385	7.96
750.703	7.95
751.02	7.6
751.338	7.47
751.655	7.74
751.973	8.04
752.29	7.92
752.608	7.91
752.925	7.77
753.242	7.98
753.56	7.87
753.877	7.9
754.194	7.61
754.511	7.47
754.828	7.14
755.145	7.04
755.462	6.93
755.779	6.68
756.096	6.97
756.413	6.77
756.73	6.86
757.047	6.88
757.364	6.88
757.68	7
757.997	6.81
758.314	6.51
758.63	6.16
758.947	6.36
759.264	6.2
759.58	6.23
759.896	6.2
760.213	6.33
760.529	6.33
760.846	6.32
761.162	6.23
761.478	6.52
761.794	6.46
762.11	6.51
762.426	6.61
762.743	6.68
763.059	6.75
763.375	6.99
763.69	7.03
764.006	7.15
764.322	7.26
764.638	7.56
764.954	7.83
765.27	7.7
765.585	7.68
765.901	7.57
766.216	7.78
766.532	7.76
766.848	7.54
767.163	7.48
767.478	7.49
767.794	7.68
768.109	7.64
768.424	7.81
768.74	7.85
769.055	7.91
769.37	7.71
769.685	7.42
770	7.27
770.315	7.19
770.63	7.24
770.945	7.18
771.26	6.95
771.575	6.67
771.89	6.98
772.205	7.15
772.52	7.52
772.834	7.43
773.149	7.15
773.464	7.51
773.778	7.71
774.093	7.67
774.407	7.58
774.722	7.55
775.036	7.38
775.351	7.13
775.665	6.93
775.979	6.87
776.293	7.36
776.608	6.95
776.922	6.96
777.236	6.81
777.55	6.92
777.864	7.19
778.178	7.33
778.492	7.56
778.806	7.07
779.12	7.47
779.434	7.47
779.747	7.66
780.061	7.72
780.375	7.75
780.689	7.82
781.002	7.83
781.316	8.09
781.629	8.58
781.943	9.04
782.256	9.09
782.57	9.56
782.883	9.15
783.196	9.25
783.51	9.24
783.823	9.22
784.136	9.11
784.449	9.06
784.762	9.19
785.075	9.11
785.388	9.67
785.701	9.19
786.014	9
786.327	9.09
786.64	9.28
786.953	9.45
787.266	9.56
787.578	9.62
787.891	9.8
788.204	9.48
788.516	9.55
788.829	9.55
789.141	9.46
789.454	9.63
789.766	10
790.079	10.23
790.391	10.25
790.703	10.52
791.016	10.03
791.328	9.64
791.64	9.68
791.952	9.78
792.264	9.87
792.576	10.35
792.888	10.15
793.2	10.24
793.512	10.44
793.824	10.54
794.136	10.34
794.448	10.15
794.76	10
795.071	9.82
795.383	9.82
795.695	9.97
796.006	10.05
796.318	9.8
796.629	9.53
796.941	9.41
797.252	9.38
797.564	9.72
797.875	9.77
798.186	9.74
798.497	9.84
798.809	9.66
799.12	9.76
799.431	9.97
799.742	9.58
800.053	9.45
800.364	9.47
800.675	9.4
800.986	9.31
801.297	9.12
801.608	9.19
801.918	9.45
802.229	9.19
802.54	9.26
802.851	9.67
803.161	9.97
803.472	9.93
803.782	9.65
804.093	9.8
804.403	10.03
804.714	9.91
805.024	8.9
805.334	8.85
805.645	8.61
805.955	9.21
806.265	9.8
806.575	9.49
806.885	9.31
807.195	9.69
807.505	9.67
807.815	9.99
808.125	9.86
808.435	9.78
808.745	9.89
809.055	9.94
809.365	9.87
809.674	9.61
809.984	9.72
810.294	9.74
810.603	9.51
810.913	9.77
811.222	9.96
811.532	11.16
811.841	11.57
812.151	11.77
812.46	11.31
812.769	9.92
813.079	10.11
813.388	10.59
813.697	10.38
814.006	10.13
814.315	10.26
814.624	10.39
814.933	10.57
815.242	10.41
815.551	10.54
815.86	10.37
816.169	10.41
816.478	10.41
816.786	10.76
817.095	10.86
817.404	10.98
817.712	10.64
818.021	10.46
818.33	10.78
818.638	10.26
818.947	10.41
819.255	10.91
819.563	10.51
819.872	10.3
820.18	10.45
820.488	10.5
820.796	10.28
821.105	9.97
821.413	9.81
821.721	9.6
822.029	9.54
822.337	9.33
822.645	9.27
822.953	9.28
823.26	9.23
823.568	9.35
823.876	9.29
824.184	9.23
824.491	9.05
824.799	8.95
825.107	8.91
825.414	8.86
825.722	8.77
826.029	8.93
826.337	8.95
826.644	8.9
826.951	8.83
827.259	8.79
827.566	8.77
827.873	8.93
828.18	8.9
828.488	8.73
828.795	8.87
829.102	8.74
829.409	8.84
829.716	8.85
830.023	8.54
830.329	8.48
830.636	8.78
830.943	8.92
831.25	8.91
831.557	8.92
831.863	8.88
832.17	8.92
832.476	8.65
832.783	8.55
833.089	8.68
833.396	9.15
833.702	9.62
834.009	9.83
834.315	9.38
834.621	9.61
834.928	9.91
835.234	9.65
835.54	9.79
835.846	9.13
836.152	9.24
836.458	9.42
836.764	9.49
837.07	9.02
837.376	8.8
837.682	8.69
837.988	8.91
838.293	8.43
838.599	8.62
838.905	8.32
839.211	7.87
839.516	7.39
839.822	7.08
840.127	6.05
840.433	6.39
840.738	6.69
841.044	6.27
841.349	6.15
841.654	7.5
841.959	7.88
842.265	8.84
842.57	9.17
842.875	8.63
843.18	8.94
843.485	10.2
843.79	11.32
844.095	11.16
844.4	12.02
844.705	12.15
845.01	12.54
845.315	12.67
845.619	13.48
845.924	13.06
846.229	12.54
846.533	14.22
846.838	13.03
847.142	12.78
847.447	13.71
847.751	13.83
848.056	12.71
848.36	12.49
848.664	12.57
848.969	12.41
849.273	12.7
849.577	13.04
849.881	12.24
850.185	11.15
850.489	11.69
850.794	9.48
851.097	10.43
851.401	10.21
851.705	10.56
852.009	10.38
852.313	10.26
852.617	8.03
852.92	7.89
853.224	9.38
853.528	10.1
853.831	10.33
854.135	11.18
854.438	10.68
854.742	11.56
855.045	11.16
855.349	9.95
855.652	11.13
855.955	10.02
856.259	8.9
856.562	10.53
856.865	9.99
857.168	11.64
857.471	12.97
857.774	13.07
858.077	14.63
858.38	14.48
858.683	14.5
858.986	15.03
859.289	15.68
859.592	16.55
859.894	15.65
860.197	16.01
860.5	14.47
860.802	16.52
861.105	15.83
861.407	14.53
861.71	15.17
862.012	14.11
862.315	12.63
862.617	14.3
862.919	13.65
863.222	15.71
863.524	13.23
863.826	10.87
864.128	11.56
864.43	10.61
864.732	12.11
865.034	12.46
865.336	14.33
865.638	12.57
865.94	10.6
866.242	12.69
866.544	11.76
866.846	10.71
867.147	9.52
867.449	9.48
867.751	10.49
868.052	11.02
868.354	11.92
868.655	14.71
868.957	13.46
869.258	9.73
869.56	9.64
869.861	9.42
870.162	13.2
870.463	12.76
870.765	13.16
871.066	11.14
871.367	12.42
871.668	12.01
871.969	11.6
872.27	11.81
872.571	12.21
872.872	12.98
873.173	14.27
873.473	11.79
873.774	11.52
874.075	14.8
874.376	16.27
874.676	17.75
874.977	14.97
875.277	15.37
875.578	17.5
875.878	16.49
876.179	18.91
876.479	16.5
876.78	15.12
877.08	15.41
877.38	16.24
877.68	15.17
877.981	16.35
878.281	18.43
878.581	19.91
