Data from BU57650_Reflection_00011.txt Node
Date: Tue Nov 19 11:01:30 EST 2019
User: vgr7
Spectrometer: USB2G7710
Scans to average: 3
Trigger mode: 4
Integration Time (sec): 2.000000E-2
Electric dark correction enabled: true
Boxcar width: 10
XAxis mode: Wavelengths
Number of Pixels in Spectrum: 2048
>>>>>Begin Spectral Data<<<<<
177.721	-16.28
178.105	-10.39
178.488	791.59
178.871	216.22
179.254	106.9
179.636	-212.5
180.019	234.02
180.402	72.73
180.785	-491.3
181.168	13.55
181.55	72.6
181.933	45.18
182.316	82.72
182.698	81
183.081	4957.14
183.463	186.96
183.846	144.32
184.228	659.63
184.611	-300.7
184.993	-104.96
185.376	-123.11
185.758	-90.15
186.14	-112.44
186.522	-154.38
186.904	-202.96
187.287	-217.76
187.669	-120.96
188.051	-101
188.433	-82.44
188.815	-82.71
189.197	-73.77
189.579	-79.93
189.961	-62.3
190.342	-61.11
190.724	-64.52
191.106	-75.24
191.488	-63.06
191.869	-44.83
192.251	-40.57
192.633	-29.55
193.014	-34.69
193.396	-35.46
193.777	-30.04
194.159	-21.8
194.54	-13.2
194.922	-1.25
195.303	-3.5
195.684	-4.77
196.065	-13.91
196.447	-16.28
196.828	-21.14
197.209	-18.42
197.59	-18.85
197.971	-18.01
198.352	-18.24
198.733	-23.32
199.114	-29.67
199.495	-28.75
199.876	-28.87
200.257	-36.72
200.638	-30.18
201.018	-21.31
201.399	-14.58
201.78	-21.11
202.16	-29.91
202.541	-23.44
202.922	-31.43
203.302	-42.5
203.683	-45.05
204.063	-38.49
204.444	-27.55
204.824	-19.21
205.204	-11.69
205.585	-12.06
205.965	-7.24
206.345	-6.82
206.725	-1.07
207.106	18.29
207.486	20
207.866	14.21
208.246	24.19
208.626	2.26
209.006	-13.81
209.386	-21.25
209.766	-17.56
210.145	-13.39
210.525	-24.88
210.905	-14.82
211.285	-5.88
211.664	-0.96
212.044	-0.76
212.424	-2.51
212.803	2.4
213.183	5.55
213.562	21.5
213.942	16.09
214.321	14.32
214.701	10.49
215.08	0.57
215.459	-6.15
215.838	-9.13
216.218	-16.45
216.597	4.33
216.976	12.14
217.355	26.99
217.734	19.84
218.113	17.28
218.492	9.82
218.871	8.09
219.25	9.89
219.629	-3.06
220.008	-8.52
220.387	-11.95
220.766	-15.64
221.144	-15.13
221.523	-20.32
221.902	-16.47
222.28	-8.44
222.659	-3.24
223.037	-5.32
223.416	-3.48
223.794	-1.78
224.173	3.25
224.551	0.35
224.929	-0.92
225.308	1.32
225.686	4.65
226.064	4.33
226.442	6.33
226.821	6.55
227.199	3.22
227.577	5.4
227.955	5.36
228.333	2.36
228.711	-0.41
229.089	1.23
229.467	-1.39
229.845	-2.67
230.222	-1.62
230.6	-4.18
230.978	-1.44
231.356	-0.48
231.733	-2.2
232.111	-2.82
232.488	-4.73
232.866	-2.62
233.243	-3.8
233.621	-2.5
233.998	-1.99
234.376	-1.09
234.753	-2.53
235.13	0.73
235.508	0.37
235.885	1.85
236.262	1.88
236.639	4.14
237.016	3.42
237.393	5.35
237.77	4.84
238.147	4.79
238.524	5.93
238.901	4.57
239.278	3.88
239.655	4.49
240.032	4.51
240.409	4.93
240.785	4.34
241.162	4.35
241.539	3.81
241.915	3.74
242.292	3.96
242.668	4.25
243.045	3.95
243.421	4.22
243.798	4.49
244.174	4.96
244.551	4.91
244.927	4.84
245.303	4.68
245.679	4.96
246.056	5.11
246.432	5.04
246.808	5.16
247.184	5.35
247.56	5.2
247.936	5.2
248.312	5.3
248.688	5.61
249.064	5.54
249.44	5.51
249.815	5.53
250.191	5.55
250.567	5.38
250.943	5.34
251.318	5.26
251.694	5.14
252.069	5.35
252.445	5.25
252.82	5.36
253.196	5.28
253.571	5.11
253.947	5.09
254.322	4.78
254.697	4.76
255.073	4.81
255.448	4.92
255.823	5
256.198	4.74
256.573	4.6
256.948	4.75
257.323	4.82
257.698	4.79
258.073	4.56
258.448	4.79
258.823	4.59
259.198	4.7
259.573	4.64
259.948	4.52
260.322	4.37
260.697	4.25
261.072	4.4
261.446	4.5
261.821	4.25
262.195	4.34
262.57	4.33
262.944	4.25
263.319	4.3
263.693	4.19
264.067	4.33
264.442	4.26
264.816	4.33
265.19	4.33
265.564	4.45
265.938	4.44
266.313	4.3
266.687	4.38
267.061	4.39
267.435	4.3
267.809	4.11
268.183	4.18
268.556	4.19
268.93	3.96
269.304	3.87
269.678	4.05
270.051	4.08
270.425	4.09
270.799	4.12
271.172	4.05
271.546	4.1
271.919	3.93
272.293	3.94
272.666	3.74
273.04	3.81
273.413	3.78
273.787	3.91
274.16	3.83
274.533	4.01
274.906	3.79
275.279	3.81
275.653	3.94
276.026	3.92
276.399	3.83
276.772	4.02
277.145	3.87
277.518	3.74
277.891	3.75
278.263	3.84
278.636	3.99
279.009	3.91
279.382	3.78
279.755	3.94
280.127	3.99
280.5	4.02
280.872	3.98
281.245	3.82
281.617	3.7
281.99	3.94
282.362	4
282.735	4.1
283.107	4.02
283.479	3.9
283.852	3.97
284.224	4
284.596	3.91
284.968	3.94
285.34	3.97
285.713	4.03
286.085	3.98
286.457	3.87
286.829	3.97
287.201	4.07
287.572	4.04
287.944	4.06
288.316	4.06
288.688	4.13
289.06	4.15
289.431	4.36
289.803	4.24
290.175	4.12
290.546	4.14
290.918	4.35
291.289	4.31
291.661	4.3
292.032	4.51
292.403	4.73
292.775	4.89
293.146	4.94
293.517	5.01
293.889	5.14
294.26	5.22
294.631	5.38
295.002	5.43
295.373	5.44
295.744	5.52
296.115	5.56
296.486	5.6
296.857	5.71
297.228	5.57
297.599	5.55
297.97	5.74
298.34	5.83
298.711	5.86
299.082	6.09
299.452	6.21
299.823	6.12
300.194	6.11
300.564	5.97
300.935	6.03
301.305	6.05
301.676	5.93
302.046	5.91
302.416	5.81
302.787	5.97
303.157	6.14
303.527	6.09
303.897	6.16
304.267	6.12
304.637	6.12
305.008	6.3
305.378	6.48
305.748	6.4
306.117	6.36
306.487	6.32
306.857	6.5
307.227	6.44
307.597	6.58
307.967	6.55
308.336	6.81
308.706	6.92
309.076	7.06
309.445	7.28
309.815	7.55
310.184	7.63
310.554	7.64
310.923	7.65
311.293	7.64
311.662	7.76
312.031	7.85
312.401	7.86
312.77	7.96
313.139	8.03
313.508	8.02
313.877	8.08
314.246	8.14
314.616	8.06
314.985	8.23
315.353	8.36
315.722	8.49
316.091	8.59
316.46	8.63
316.829	8.63
317.198	8.72
317.567	8.68
317.935	8.77
318.304	8.89
318.672	9
319.041	9.24
319.41	9.17
319.778	9.15
320.147	9.31
320.515	9.25
320.883	9.21
321.252	9.49
321.62	9.66
321.988	9.86
322.357	9.88
322.725	9.96
323.093	9.92
323.461	10.02
323.829	10.11
324.197	10.2
324.565	10.1
324.933	9.99
325.301	10.03
325.669	10.12
326.037	10
326.405	10
326.772	9.93
327.14	9.98
327.508	10.03
327.875	10.17
328.243	10.22
328.61	10.44
328.978	10.36
329.346	10.24
329.713	10.25
330.08	10.38
330.448	10.4
330.815	10.53
331.182	10.46
331.55	10.43
331.917	10.38
332.284	10.65
332.651	10.84
333.018	10.84
333.385	10.86
333.752	10.91
334.119	11.05
334.486	11.23
334.853	11.35
335.22	11.42
335.587	11.4
335.954	11.38
336.32	11.38
336.687	11.54
337.054	11.68
337.42	11.65
337.787	11.7
338.153	11.78
338.52	11.78
338.886	11.89
339.253	11.94
339.619	12.05
339.986	11.99
340.352	12.09
340.718	12.12
341.084	12.1
341.451	12.26
341.817	12.2
342.183	12.19
342.549	12.26
342.915	12.28
343.281	12.26
343.647	12.35
344.013	12.26
344.379	12.16
344.745	12.22
345.11	12.27
345.476	12.27
345.842	12.19
346.208	12.23
346.573	12.12
346.939	12.15
347.304	12.08
347.67	12.02
348.035	11.83
348.401	11.82
348.766	11.88
349.132	11.79
349.497	11.75
349.862	11.81
350.228	11.74
350.593	11.79
350.958	11.82
351.323	11.88
351.688	11.9
352.053	11.9
352.418	11.89
352.783	11.89
353.148	11.75
353.513	11.71
353.878	11.63
354.243	11.65
354.608	11.65
354.972	11.68
355.337	11.73
355.702	11.78
356.066	11.77
356.431	11.64
356.795	11.68
357.16	11.71
357.524	11.58
357.889	11.53
358.253	11.44
358.618	11.42
358.982	11.34
359.346	11.33
359.71	11.36
360.075	11.35
360.439	11.31
360.803	11.37
361.167	11.36
361.531	11.29
361.895	11.28
362.259	11.2
362.623	11.14
362.987	11.05
363.351	11.01
363.714	10.94
364.078	10.92
364.442	10.84
364.806	10.72
365.169	10.68
365.533	10.64
365.896	10.59
366.26	10.44
366.623	10.36
366.987	10.31
367.35	10.18
367.714	10.04
368.077	9.89
368.44	9.83
368.803	9.77
369.167	9.73
369.53	9.62
369.893	9.57
370.256	9.54
370.619	9.49
370.982	9.3
371.345	9.24
371.708	9.2
372.071	9.09
372.434	9
372.797	8.98
373.159	8.82
373.522	8.71
373.885	8.7
374.247	8.67
374.61	8.58
374.973	8.43
375.335	8.36
375.698	8.26
376.06	8.12
376.423	8.05
376.785	8
377.147	7.92
377.51	7.75
377.872	7.64
378.234	7.53
378.596	7.54
378.958	7.4
379.321	7.33
379.683	7.26
380.045	7.24
380.407	7.15
380.769	7.16
381.13	7.12
381.492	7.08
381.854	7.01
382.216	6.95
382.578	6.93
382.939	6.85
383.301	6.8
383.663	6.8
384.024	6.73
384.386	6.66
384.747	6.62
385.109	6.61
385.47	6.59
385.832	6.58
386.193	6.58
386.554	6.55
386.916	6.52
387.277	6.47
387.638	6.44
387.999	6.4
388.36	6.35
388.721	6.32
389.082	6.27
389.443	6.19
389.804	6.18
390.165	6.14
390.526	6.1
390.887	6.12
391.248	6.04
391.609	5.98
391.969	5.94
392.33	5.87
392.691	5.82
393.051	5.79
393.412	5.75
393.772	5.68
394.133	5.66
394.493	5.6
394.854	5.55
395.214	5.51
395.574	5.46
395.935	5.39
396.295	5.32
396.655	5.24
397.015	5.21
397.376	5.12
397.736	5.11
398.096	5.1
398.456	5.04
398.816	5.03
399.176	4.99
399.535	4.97
399.895	4.92
400.255	4.91
400.615	4.87
400.975	4.8
401.334	4.76
401.694	4.72
402.054	4.7
402.413	4.67
402.773	4.63
403.132	4.59
403.492	4.59
403.851	4.59
404.211	4.59
404.57	4.56
404.929	4.55
405.288	4.54
405.648	4.49
406.007	4.48
406.366	4.48
406.725	4.45
407.084	4.41
407.443	4.42
407.802	4.39
408.161	4.38
408.52	4.39
408.879	4.37
409.238	4.35
409.596	4.32
409.955	4.31
410.314	4.28
410.673	4.28
411.031	4.25
411.39	4.22
411.748	4.23
412.107	4.2
412.465	4.17
412.824	4.13
413.182	4.12
413.54	4.08
413.899	4.05
414.257	4.03
414.615	4.02
414.974	4.03
415.332	4.01
415.69	4
416.048	3.99
416.406	3.97
416.764	3.96
417.122	3.92
417.48	3.94
417.838	3.93
418.195	3.91
418.553	3.91
418.911	3.89
419.269	3.88
419.626	3.86
419.984	3.84
420.342	3.84
420.699	3.82
421.057	3.81
421.414	3.81
421.772	3.8
422.129	3.79
422.486	3.77
422.844	3.75
423.201	3.73
423.558	3.71
423.915	3.71
424.273	3.7
424.63	3.71
424.987	3.68
425.344	3.66
425.701	3.64
426.058	3.62
426.415	3.61
426.772	3.57
427.128	3.58
427.485	3.59
427.842	3.56
428.199	3.56
428.555	3.56
428.912	3.54
429.269	3.52
429.625	3.5
429.982	3.49
430.338	3.49
430.695	3.45
431.051	3.47
431.407	3.43
431.764	3.42
432.12	3.43
432.476	3.43
432.832	3.43
433.189	3.45
433.545	3.45
433.901	3.45
434.257	3.45
434.613	3.44
434.969	3.42
435.325	3.43
435.681	3.42
436.036	3.4
436.392	3.39
436.748	3.41
437.104	3.43
437.459	3.43
437.815	3.44
438.171	3.45
438.526	3.45
438.882	3.44
439.237	3.44
439.593	3.44
439.948	3.45
440.304	3.46
440.659	3.46
441.014	3.44
441.369	3.45
441.725	3.45
442.08	3.46
442.435	3.46
442.79	3.45
443.145	3.44
443.5	3.43
443.855	3.44
444.21	3.43
444.565	3.42
444.92	3.42
445.275	3.4
445.629	3.4
445.984	3.39
446.339	3.4
446.693	3.39
447.048	3.38
447.403	3.35
447.757	3.34
448.112	3.32
448.466	3.32
448.82	3.3
449.175	3.29
449.529	3.27
449.883	3.26
450.238	3.25
450.592	3.27
450.946	3.26
451.3	3.25
451.654	3.22
452.008	3.21
452.362	3.19
452.716	3.18
453.07	3.17
453.424	3.17
453.778	3.17
454.132	3.18
454.486	3.17
454.839	3.17
455.193	3.17
455.547	3.16
455.9	3.17
456.254	3.17
456.607	3.18
456.961	3.17
457.314	3.19
457.668	3.17
458.021	3.15
458.375	3.15
458.728	3.16
459.081	3.16
459.434	3.14
459.787	3.15
460.141	3.16
460.494	3.16
460.847	3.16
461.2	3.15
461.553	3.16
461.906	3.16
462.259	3.17
462.611	3.15
462.964	3.17
463.317	3.16
463.67	3.17
464.022	3.14
464.375	3.15
464.728	3.16
465.08	3.19
465.433	3.22
465.785	3.24
466.138	3.26
466.49	3.28
466.843	3.32
467.195	3.32
467.547	3.35
467.899	3.36
468.252	3.39
468.604	3.4
468.956	3.42
469.308	3.41
469.66	3.44
470.012	3.47
470.364	3.48
470.716	3.51
471.068	3.51
471.42	3.56
471.772	3.56
472.123	3.55
472.475	3.57
472.827	3.56
473.178	3.57
473.53	3.56
473.882	3.57
474.233	3.56
474.585	3.58
474.936	3.57
475.288	3.56
475.639	3.56
475.99	3.56
476.342	3.57
476.693	3.56
477.044	3.57
477.395	3.54
477.746	3.53
478.097	3.53
478.448	3.53
478.8	3.52
479.15	3.52
479.501	3.51
479.852	3.48
480.203	3.47
480.554	3.47
480.905	3.46
481.255	3.46
481.606	3.46
481.957	3.45
482.307	3.45
482.658	3.46
483.009	3.46
483.359	3.46
483.709	3.47
484.06	3.47
484.41	3.46
484.761	3.47
485.111	3.48
485.461	3.46
485.811	3.47
486.162	3.46
486.512	3.46
486.862	3.47
487.212	3.48
487.562	3.47
487.912	3.47
488.262	3.48
488.612	3.48
488.961	3.48
489.311	3.48
489.661	3.48
490.011	3.47
490.36	3.47
490.71	3.48
491.06	3.48
491.409	3.49
491.759	3.5
492.108	3.5
492.458	3.51
492.807	3.53
493.157	3.54
493.506	3.56
493.855	3.57
494.204	3.56
494.554	3.58
494.903	3.62
495.252	3.63
495.601	3.66
495.95	3.65
496.299	3.68
496.648	3.71
496.997	3.73
497.346	3.78
497.695	3.79
498.043	3.8
498.392	3.81
498.741	3.83
499.09	3.85
499.438	3.87
499.787	3.91
500.135	3.93
500.484	3.94
500.832	3.99
501.181	4.05
501.529	4.12
501.878	4.16
502.226	4.2
502.574	4.26
502.923	4.29
503.271	4.36
503.619	4.4
503.967	4.43
504.315	4.5
504.663	4.52
505.011	4.56
505.359	4.61
505.707	4.7
506.055	4.76
506.403	4.81
506.751	4.91
507.098	4.98
507.446	5.06
507.794	5.13
508.141	5.19
508.489	5.26
508.837	5.3
509.184	5.37
509.531	5.43
509.879	5.48
510.226	5.54
510.574	5.63
510.921	5.7
511.268	5.79
511.616	5.88
511.963	5.98
512.31	6.08
512.657	6.19
513.004	6.26
513.351	6.37
513.698	6.48
514.045	6.56
514.392	6.66
514.739	6.75
515.086	6.88
515.432	6.99
515.779	7.1
516.126	7.22
516.473	7.33
516.819	7.45
517.166	7.57
517.512	7.69
517.859	7.79
518.205	7.88
518.552	7.98
518.898	8.05
519.245	8.14
519.591	8.24
519.937	8.32
520.283	8.41
520.629	8.51
520.976	8.62
521.322	8.74
521.668	8.85
522.014	8.97
522.36	9.1
522.706	9.23
523.052	9.37
523.398	9.51
523.743	9.67
524.089	9.83
524.435	9.98
524.781	10.15
525.126	10.3
525.472	10.46
525.817	10.59
526.163	10.71
526.509	10.83
526.854	10.95
527.199	11.07
527.545	11.18
527.89	11.27
528.235	11.37
528.581	11.49
528.926	11.59
529.271	11.7
529.616	11.81
529.961	11.92
530.306	12.03
530.651	12.16
530.996	12.28
531.341	12.4
531.686	12.54
532.031	12.65
532.376	12.78
532.721	12.94
533.065	13.07
533.41	13.21
533.755	13.37
534.099	13.53
534.444	13.67
534.788	13.84
535.133	14.01
535.477	14.17
535.822	14.32
536.166	14.51
536.51	14.71
536.855	14.91
537.199	15.12
537.543	15.36
537.887	15.58
538.231	15.79
538.576	16.02
538.92	16.24
539.264	16.47
539.608	16.67
539.951	16.84
540.295	17.08
540.639	17.29
540.983	17.47
541.327	17.65
541.671	17.84
542.014	18.04
542.358	18.22
542.701	18.41
543.045	18.6
543.389	18.8
543.732	18.98
544.075	19.16
544.419	19.38
544.762	19.58
545.105	19.79
545.449	20.04
545.792	20.28
546.135	20.56
546.478	20.84
546.821	21.14
547.165	21.42
547.508	21.65
547.851	21.94
548.194	22.26
548.536	22.55
548.879	22.83
549.222	23.13
549.565	23.44
549.908	23.74
550.25	24.03
550.593	24.32
550.936	24.67
551.278	25.06
551.621	25.36
551.963	25.7
552.306	26.07
552.648	26.38
552.991	26.69
553.333	26.99
553.675	27.29
554.017	27.61
554.36	27.9
554.702	28.19
555.044	28.5
555.386	28.8
555.728	29.14
556.07	29.48
556.412	29.84
556.754	30.13
557.096	30.48
557.438	30.84
557.78	31.23
558.121	31.55
558.463	31.82
558.805	32.17
559.147	32.49
559.488	32.86
559.83	33.2
560.171	33.56
560.513	33.87
560.854	34.18
561.196	34.48
561.537	34.85
561.878	35.19
562.22	35.54
562.561	35.82
562.902	36.09
563.243	36.36
563.584	36.62
563.925	36.96
564.266	37.25
564.607	37.56
564.948	37.87
565.289	38.24
565.63	38.61
565.971	38.87
566.312	39.15
566.653	39.43
566.993	39.72
567.334	40
567.675	40.28
568.015	40.6
568.356	40.84
568.696	41.08
569.037	41.34
569.377	41.57
569.718	41.87
570.058	42.21
570.398	42.47
570.739	42.72
571.079	42.97
571.419	43.21
571.759	43.46
572.099	43.68
572.439	43.88
572.779	44.06
573.119	44.28
573.459	44.52
573.799	44.71
574.139	44.93
574.479	45.11
574.819	45.36
575.158	45.55
575.498	45.81
575.838	46.05
576.177	46.31
576.517	46.55
576.856	46.76
577.196	47.03
577.535	47.23
577.875	47.45
578.214	47.64
578.553	47.89
578.893	48.18
579.232	48.37
579.571	48.6
579.91	48.8
580.25	49.02
580.589	49.18
580.928	49.41
581.267	49.64
581.606	49.86
581.945	50.04
582.283	50.19
582.622	50.33
582.961	50.52
583.3	50.7
583.639	50.86
583.977	51.02
584.316	51.11
584.654	51.34
584.993	51.55
585.332	51.79
585.67	52.02
586.008	52.17
586.347	52.37
586.685	52.48
587.024	52.75
587.362	52.94
587.7	53.12
588.038	53.22
588.376	53.33
588.715	53.45
589.053	53.62
589.391	53.79
589.729	54.02
590.067	54.17
590.404	54.3
590.742	54.45
591.08	54.64
591.418	54.79
591.756	54.93
592.093	55.04
592.431	55.18
592.769	55.26
593.106	55.31
593.444	55.45
593.781	55.6
594.119	55.64
594.456	55.69
594.793	55.86
595.131	56.05
595.468	56.16
595.805	56.27
596.143	56.31
596.48	56.51
596.817	56.58
597.154	56.67
597.491	56.71
597.828	56.81
598.165	56.92
598.502	57
598.839	57.09
599.176	57.2
599.512	57.33
599.849	57.48
600.186	57.57
600.523	57.61
600.859	57.69
601.196	57.81
601.532	57.97
601.869	58
602.205	58.08
602.542	58.15
602.878	58.29
603.215	58.44
603.551	58.36
603.887	58.47
604.223	58.47
604.56	58.61
604.896	58.72
605.232	58.78
605.568	58.83
605.904	58.97
606.24	59.07
606.576	59.08
606.912	59.17
607.248	59.29
607.583	59.44
607.919	59.5
608.255	59.57
608.591	59.66
608.926	59.75
609.262	59.78
609.597	59.89
609.933	59.88
610.268	59.96
610.604	60.14
610.939	60.13
611.275	60.24
611.61	60.33
611.945	60.32
612.281	60.31
612.616	60.42
612.951	60.43
613.286	60.49
613.621	60.59
613.956	60.65
614.291	60.7
614.626	60.7
614.961	60.79
615.296	60.74
615.631	60.78
615.966	60.85
616.3	60.93
616.635	60.96
616.97	60.99
617.304	61.02
617.639	61.04
617.973	61.18
618.308	61.31
618.642	61.34
618.977	61.39
619.311	61.58
619.646	61.64
619.98	61.69
620.314	61.79
620.648	61.75
620.983	61.69
621.317	61.69
621.651	61.77
621.985	61.76
622.319	61.94
622.653	62.01
622.987	61.98
623.321	62.04
623.655	62.08
623.988	62.21
624.322	62.18
624.656	62.11
624.99	62.12
625.323	62.08
625.657	62.11
625.99	62.14
626.324	62.07
626.657	62.07
626.991	62.16
627.324	62.14
627.658	62.25
627.991	62.25
628.324	62.34
628.657	62.35
628.991	62.45
629.324	62.45
629.657	62.51
629.99	62.61
630.323	62.64
630.656	62.61
630.989	62.6
631.322	62.68
631.655	62.77
631.987	62.81
632.32	62.82
632.653	62.83
632.986	62.85
633.318	62.94
633.651	62.9
633.984	62.86
634.316	62.86
634.649	62.89
634.981	62.89
635.313	62.95
635.646	63.03
635.978	63.01
636.31	63.01
636.643	62.92
636.975	62.87
637.307	62.83
637.639	62.87
637.971	62.87
638.303	62.74
638.635	62.81
638.967	62.77
639.299	62.86
639.631	62.87
639.963	62.93
640.295	62.96
640.626	63.06
640.958	63.05
641.29	63.08
641.621	63.08
641.953	63.25
642.285	63.19
642.616	63.14
642.948	63.25
643.279	63.31
643.61	63.36
643.942	63.52
644.273	63.53
644.604	63.53
644.936	63.53
645.267	63.76
645.598	63.77
645.929	63.9
646.26	63.88
646.591	63.88
646.922	64.01
647.253	64.03
647.584	64.05
647.915	64.11
648.245	64.14
648.576	64.23
648.907	64.3
649.238	64.28
649.568	64.27
649.899	64.2
650.229	64.22
650.56	64.28
650.89	64.23
651.221	64.33
651.551	64.35
651.882	64.35
652.212	64.28
652.542	64.26
652.872	64.17
653.203	64.24
653.533	64.28
653.863	64.13
654.193	64.03
654.523	64.05
654.853	64.02
655.183	64.01
655.513	63.94
655.843	63.91
656.172	63.93
656.502	64.01
656.832	64.16
657.162	64.12
657.491	64.15
657.821	64.15
658.15	64.13
658.48	64.22
658.809	64.3
659.139	64.35
659.468	64.37
659.798	64.41
660.127	64.45
660.456	64.38
660.785	64.43
661.115	64.42
661.444	64.38
661.773	64.33
662.102	64.38
662.431	64.4
662.76	64.49
663.089	64.55
663.418	64.63
663.747	64.52
664.076	64.51
664.404	64.45
664.733	64.5
665.062	64.47
665.39	64.56
665.719	64.46
666.048	64.37
666.376	64.43
666.705	64.35
667.033	64.29
667.362	64.43
667.69	64.43
668.018	64.66
668.347	64.77
668.675	64.98
669.003	64.95
669.331	65.04
669.659	64.81
669.987	64.82
670.315	64.71
670.643	64.76
670.971	64.79
671.299	64.85
671.627	64.87
671.955	64.91
672.283	64.75
672.61	64.72
672.938	64.91
673.266	64.8
673.593	64.88
673.921	64.89
674.249	64.89
674.576	64.95
674.904	64.82
675.231	64.65
675.558	64.51
675.886	64.51
676.213	64.48
676.54	64.55
676.867	64.76
677.195	64.94
677.522	64.92
677.849	64.94
678.176	64.91
678.503	64.86
678.83	64.89
679.157	65.01
679.484	65.1
679.81	64.98
680.137	65.15
680.464	65.11
680.791	65.01
681.117	64.99
681.444	65.08
681.771	65.14
682.097	65.27
682.424	65.33
682.75	65.25
683.077	65.26
683.403	65.34
683.729	65.06
684.056	64.89
684.382	64.99
684.708	65.02
685.034	65.15
685.36	65.22
685.686	65.23
686.012	65.29
686.339	65.26
686.664	65.39
686.99	65.27
687.316	65.3
687.642	65.51
687.968	65.59
688.294	65.5
688.619	65.36
688.945	65.43
689.271	65.4
689.596	65.53
689.922	65.53
690.247	65.52
690.573	65.61
690.898	65.6
691.224	65.5
691.549	65.49
691.874	65.35
692.2	65.26
692.525	65.24
692.85	65.15
693.175	65.34
693.5	65.09
693.825	65.21
694.15	65.3
694.475	65.32
694.8	65.22
695.125	65.25
695.45	65.49
695.775	65.48
696.099	65.46
696.424	65.54
696.749	65.59
697.073	65.54
697.398	65.57
697.723	65.67
698.047	65.71
698.372	65.77
698.696	65.79
699.02	65.86
699.345	65.86
699.669	65.77
699.993	65.61
700.318	65.67
700.642	65.52
700.966	65.51
701.29	65.49
701.614	65.45
701.938	65.37
702.262	65.34
702.586	65.36
702.91	65.45
703.234	65.39
703.557	65.4
703.881	65.44
704.205	65.6
704.529	65.52
704.852	65.55
705.176	65.49
705.499	65.56
705.823	65.46
706.146	65.48
706.47	65.37
706.793	65.38
707.117	65.57
707.44	65.8
707.763	65.72
708.086	65.68
708.409	65.69
708.733	65.81
709.056	65.65
709.379	65.44
709.702	65.33
710.025	65.33
710.348	65.32
710.671	65.32
710.993	65.17
711.316	65.43
711.639	65.3
711.962	65.45
712.284	65.58
712.607	65.63
712.93	65.64
713.252	66
713.575	66.22
713.897	66.08
714.22	66.15
714.542	66.2
714.864	66.14
715.187	66.16
715.509	66.14
715.831	66.28
716.153	66.4
716.475	66.41
716.798	66.29
717.12	66.24
717.442	66.26
717.764	66.13
718.085	65.83
718.407	65.79
718.729	65.64
719.051	65.63
719.373	65.64
719.695	65.48
720.016	65.29
720.338	65.08
720.659	65.08
720.981	64.93
721.302	65.09
721.624	65.13
721.945	65.29
722.267	65.44
722.588	65.29
722.909	65.28
723.231	65.19
723.552	65.27
723.873	65.36
724.194	65.3
724.515	65.41
724.836	65.37
725.157	65.5
725.478	65.48
725.799	65.2
726.12	65.23
726.441	65.44
726.762	65.43
727.083	65.62
727.403	65.64
727.724	65.65
728.045	65.55
728.365	65.51
728.686	65.41
729.006	65.35
729.327	65.4
729.647	65.17
729.967	65.21
730.288	65.27
730.608	65.34
730.928	65.51
731.249	65.53
731.569	65.85
731.889	65.73
732.209	65.67
732.529	65.82
732.849	65.91
733.169	65.75
733.489	65.61
733.809	65.54
734.129	65.61
734.448	65.63
734.768	65.57
735.088	65.77
735.408	65.53
735.727	65.45
736.047	65.52
736.366	65.74
736.686	66.01
737.005	65.93
737.325	65.88
737.644	65.93
737.963	66.19
738.283	65.95
738.602	66.09
738.921	66.18
739.24	66
739.56	66.08
739.879	66.22
740.198	66.06
740.517	66.22
740.836	66.26
741.155	66.18
741.473	66.33
741.792	66.13
742.111	66.52
742.43	66.62
742.748	66.23
743.067	66.16
743.386	65.9
743.704	66.14
744.023	66.13
744.341	65.86
744.66	65.67
744.978	65.67
745.297	65.66
745.615	65.68
745.933	65.87
746.252	65.52
746.57	65.47
746.888	65.77
747.206	65.43
747.524	65.4
747.842	65.44
748.16	65.43
748.478	65.66
748.796	65.3
749.114	65.09
749.432	65.79
749.749	65.85
750.067	65.9
750.385	65.56
750.703	65.47
751.02	65.21
751.338	65.02
751.655	64.98
751.973	64.91
752.29	64.52
752.608	64.46
752.925	64.86
753.242	65.19
753.56	65.16
753.877	65.24
754.194	65.29
754.511	65.06
754.828	64.83
755.145	64.58
755.462	64.94
755.779	64.96
756.096	64.67
756.413	64.88
756.73	65.07
757.047	65.48
757.364	65.86
757.68	66.29
757.997	66.61
758.314	66.54
758.63	66.61
758.947	67.06
759.264	67.24
759.58	67.19
759.896	67.09
760.213	67.22
760.529	66.9
760.846	66.67
761.162	67.07
761.478	67.48
761.794	67.82
762.11	67.68
762.426	67.66
762.743	67.63
763.059	67.52
763.375	67.35
763.69	67.25
764.006	66.82
764.322	66.64
764.638	66.25
764.954	66.39
765.27	66.47
765.585	66.38
765.901	66.11
766.216	65.8
766.532	65.75
766.848	65.51
767.163	65.76
767.478	65.91
767.794	65.86
768.109	65.57
768.424	65.05
768.74	64.84
769.055	65.07
769.37	65.23
769.685	65.27
770	65.1
770.315	64.9
770.63	65.17
770.945	65.49
771.26	65.73
771.575	65.55
771.89	65.42
772.205	65.69
772.52	65.95
772.834	66.1
773.149	66.01
773.464	66.08
773.778	65.75
774.093	65.5
774.407	65.64
774.722	65.43
775.036	65.5
775.351	65.46
775.665	64.93
775.979	64.68
776.293	64.55
776.608	64.71
776.922	64.21
777.236	63.98
777.55	63.46
777.864	63.64
778.178	63.74
778.492	63.94
778.806	63.33
779.12	63.14
779.434	63.34
779.747	63.31
780.061	63.74
780.375	64.43
780.689	64.93
781.002	64.51
781.316	64.63
781.629	65.27
781.943	64.97
782.256	64.95
782.57	65.07
782.883	65.52
783.196	65.3
783.51	66.04
783.823	65.81
784.136	65.9
784.449	66.16
784.762	66.46
785.075	65.94
785.388	66.16
785.701	66.49
786.014	66.55
786.327	66.53
786.64	66.54
786.953	65.86
787.266	65.64
787.578	65.59
787.891	65.48
788.204	65.09
788.516	65.63
788.829	65.71
789.141	65.46
789.454	65.03
789.766	65.36
790.079	65.28
790.391	65.75
790.703	66.19
791.016	65.95
791.328	65.45
791.64	66.15
791.952	66.11
792.264	65.74
792.576	65.37
792.888	65.47
793.2	65.4
793.512	66.08
793.824	66.01
794.136	66.31
794.448	66.7
794.76	67.18
795.071	67.41
795.383	68.33
795.695	68.46
796.006	68.01
796.318	68.03
796.629	68.32
796.941	68.08
797.252	67.52
797.564	67.47
797.875	67.09
798.186	66.31
798.497	66.83
798.809	67.07
799.12	66.92
799.431	66.49
799.742	66.47
800.053	65.68
800.364	65.67
800.675	65.84
800.986	66.05
801.297	65.36
801.608	64.99
801.918	64.11
802.229	64.22
802.54	64.61
802.851	64.38
803.161	63.57
803.472	63.72
803.782	64.24
804.093	63.92
804.403	64.59
804.714	65.17
805.024	64.68
805.334	64.73
805.645	65.09
805.955	64.82
806.265	64.67
806.575	65.33
806.885	65.77
807.195	65.01
807.505	64.55
807.815	65.35
808.125	65.4
808.435	65.47
808.745	65.21
809.055	65.08
809.365	65.68
809.674	66.08
809.984	65.79
810.294	65.62
810.603	66.07
810.913	65.95
811.222	66.06
811.532	66.25
811.841	66.33
812.151	65.99
812.46	66.74
812.769	66.25
813.079	66.58
813.388	65.9
813.697	65.8
814.006	66.1
814.315	66.03
814.624	66.5
814.933	65.88
815.242	65.99
815.551	66.44
815.86	66.07
816.169	65.6
816.478	66.59
816.786	67.17
817.095	66.6
817.404	66.96
817.712	66.93
818.021	67.21
818.33	67.25
818.638	67.35
818.947	67.21
819.255	67.99
819.563	67.8
819.872	67.89
820.18	68.18
820.488	67.96
820.796	68.15
821.105	67.99
821.413	68.25
821.721	68.05
822.029	68.06
822.337	68.14
822.645	68.36
822.953	68.37
823.26	67.87
823.568	68.12
823.876	67.95
824.184	67.96
824.491	67.86
824.799	67.58
825.107	67.69
825.414	67.61
825.722	67.53
826.029	67.44
826.337	67.5
826.644	67.61
826.951	67.47
827.259	67.28
827.566	67.43
827.873	67.16
828.18	67.11
828.488	66.69
828.795	66.51
829.102	66.37
829.409	65.76
829.716	66.23
830.023	65.93
830.329	65.96
830.636	65.77
830.943	65.61
831.25	66.24
831.557	66.25
831.863	66.52
832.17	66.11
832.476	65.92
832.783	65.74
833.089	65.63
833.396	65.79
833.702	65.54
834.009	65.22
834.315	65.53
834.621	66.07
834.928	66.61
835.234	66.51
835.54	66.48
835.846	66.88
836.152	66.69
836.458	66.46
836.764	66.89
837.07	67.05
837.376	67.4
837.682	66.91
837.988	66.28
838.293	65.67
838.599	65.93
838.905	66.35
839.211	66.79
839.516	66.6
839.822	66.89
840.127	67.15
840.433	66.45
840.738	67.04
841.044	66.66
841.349	67.02
841.654	67.04
841.959	66.41
842.265	66.6
842.57	66.28
842.875	66.69
843.18	66.05
843.485	64.88
843.79	63.73
844.095	63.77
844.4	64.53
844.705	65.98
845.01	65.82
845.315	65.25
845.619	63.89
845.924	63.77
846.229	63.93
846.533	63.23
846.838	63.43
847.142	61.53
847.447	60.64
847.751	59.03
848.056	58.91
848.36	59.69
848.664	58.94
848.969	58.32
849.273	57.36
849.577	55.23
849.881	55.9
850.185	57.91
850.489	56.73
850.794	56.21
851.097	55.79
851.401	55.4
851.705	55.37
852.009	56.09
852.313	55.23
852.617	52.82
852.92	52.71
853.224	54.96
853.528	54.85
853.831	54.91
854.135	53.86
854.438	53.68
854.742	52.8
855.045	52.81
855.349	53.67
855.652	53.18
855.955	54.26
856.259	53.15
856.562	52.23
856.865	52.92
857.168	52.24
857.471	53.19
857.774	54.78
858.077	55.19
858.38	53.69
858.683	53.95
858.986	56.49
859.289	56.69
859.592	54.68
859.894	55.39
860.197	54.66
860.5	58.49
860.802	57.4
861.105	56.71
861.407	58.7
861.71	58.38
862.012	60.53
862.315	59.7
862.617	62.37
862.919	63.23
863.222	63.21
863.524	65.02
863.826	62.23
864.128	58.36
864.43	55.77
864.732	55.81
865.034	56.84
865.336	56.82
865.638	58.27
865.94	57.64
866.242	57.56
866.544	57.99
866.846	60.08
867.147	61.42
867.449	62.43
867.751	60.12
868.052	61.79
868.354	62.34
868.655	65.7
868.957	65.49
869.258	65.93
869.56	67.01
869.861	65.91
870.162	66.16
870.463	67.19
870.765	71.21
871.066	72.55
871.367	70.7
871.668	70.14
871.969	67.93
872.27	67.96
872.571	68.99
872.872	67.64
873.173	62.62
873.473	61.12
873.774	61.64
874.075	60.83
874.376	61.56
874.676	61.06
874.977	59.58
875.277	57.03
875.578	54.62
875.878	54.36
876.179	54.68
876.479	55.3
876.78	56.44
877.08	53.99
877.38	53.28
877.68	53.33
877.981	52.57
878.281	52.67
878.581	53.66
