Data from BU57994_Reflection_00001.txt Node
Date: Mon Nov 18 16:52:57 EST 2019
User: vgr7
Spectrometer: USB2G7710
Scans to average: 3
Trigger mode: 4
Integration Time (sec): 2.000000E-2
Electric dark correction enabled: true
Boxcar width: 10
XAxis mode: Wavelengths
Number of Pixels in Spectrum: 2048
>>>>>Begin Spectral Data<<<<<
177.721	44.95
178.105	-9.79
178.488	3.28
178.871	19.95
179.254	4.11
179.636	19.18
180.019	99.15
180.402	26.92
180.785	-287
181.168	365.63
181.55	26
181.933	60.8
182.316	78.02
182.698	54.34
183.081	24.95
183.463	-14.92
183.846	1.78
184.228	4.11
184.611	5.93
184.993	26.17
185.376	-25.83
185.758	-111.07
186.14	-48.04
186.522	27.09
186.904	18.28
187.287	-19.67
187.669	-6.1
188.051	13.97
188.433	-68.22
188.815	-55.29
189.197	-62.63
189.579	-16.48
189.961	-15.14
190.342	-20.06
190.724	-13.61
191.106	-14.2
191.488	-12.64
191.869	-11.87
192.251	-42.86
192.633	-45.59
193.014	-49.48
193.396	-57.58
193.777	-39.88
194.159	-58.52
194.54	-63.16
194.922	-48.54
195.303	-56.87
195.684	-83.48
196.065	-50.63
196.447	-28.46
196.828	-27.96
197.209	-18.21
197.59	-39.85
197.971	-42.01
198.352	-11.78
198.733	-23.17
199.114	-29.01
199.495	-38.24
199.876	-26.13
200.257	-10.86
200.638	-1.51
201.018	-7.15
201.399	-0.71
201.78	-5.39
202.16	-20.77
202.541	-49.99
202.922	-65.06
203.302	-65.99
203.683	-68.82
204.063	-67.5
204.444	-54.87
204.824	-53.94
205.204	-42.46
205.585	-36.78
205.965	-31.97
206.345	-63.77
206.725	-76.5
207.106	-84.12
207.486	-155.19
207.866	-169.83
208.246	-188.09
208.626	-221.68
209.006	-157
209.386	-187.78
209.766	-135.04
210.145	-122.26
210.525	-59.65
210.905	-51.15
211.285	-44.8
211.664	-23.44
212.044	-24.32
212.424	-25.91
212.803	-42.26
213.183	-40.91
213.562	-39.06
213.942	-43.08
214.321	-20.08
214.701	-21.86
215.08	-29.17
215.459	-23.78
215.838	-10.81
216.218	-15.16
216.597	-11.64
216.976	-18.42
217.355	-13.81
217.734	-15.48
218.113	-13.59
218.492	-22.19
218.871	-27.67
219.25	-26.68
219.629	-32.07
220.008	-43.6
220.387	-40.52
220.766	-31.62
221.144	-46.82
221.523	-54.91
221.902	-56.07
222.28	-62.4
222.659	-36.85
223.037	-21.14
223.416	-18.78
223.794	-27.68
224.173	-16.76
224.551	-15.5
224.929	-16.18
225.308	-15.89
225.686	-16.33
226.064	-12.58
226.442	-8.97
226.821	-5.02
227.199	-5.48
227.577	-8.1
227.955	-8.41
228.333	-7.83
228.711	-6.93
229.089	-5.48
229.467	-5.56
229.845	-7.23
230.222	-6.64
230.6	-7.5
230.978	-7.84
231.356	-4.88
231.733	-4.1
232.111	-3.48
232.488	-4.09
232.866	-2.31
233.243	-1.46
233.621	-1.32
233.998	0.1
234.376	-1.63
234.753	-0.28
235.13	0.6
235.508	2.3
235.885	2.8
236.262	2.46
236.639	2.47
237.016	3.49
237.393	5.43
237.77	6.91
238.147	6.71
238.524	6.11
238.901	5.99
239.278	6
239.655	6.2
240.032	5.7
240.409	5.61
240.785	5.01
241.162	4.46
241.539	5.09
241.915	5.16
242.292	5.31
242.668	5.26
243.045	5.25
243.421	5.19
243.798	5.13
244.174	4.98
244.551	4.83
244.927	4.86
245.303	4.53
245.679	4.29
246.056	4.52
246.432	4.64
246.808	4.76
247.184	4.72
247.56	4.73
247.936	4.59
248.312	4.55
248.688	4.65
249.064	4.78
249.44	4.3
249.815	4.11
250.191	4.14
250.567	4.13
250.943	4.01
251.318	3.97
251.694	4.05
252.069	3.94
252.445	4.04
252.82	4.24
253.196	4.55
253.571	4.75
253.947	4.45
254.322	4.49
254.697	4.31
255.073	4.26
255.448	4.26
255.823	4.25
256.198	4.44
256.573	4.39
256.948	4.43
257.323	4.7
257.698	4.86
258.073	4.91
258.448	4.74
258.823	4.83
259.198	4.7
259.573	4.64
259.948	4.78
260.322	4.72
260.697	4.52
261.072	4.37
261.446	4.37
261.821	4.35
262.195	4.38
262.57	4.31
262.944	4.32
263.319	4.25
263.693	4.36
264.067	4.39
264.442	4.44
264.816	4.47
265.19	4.48
265.564	4.36
265.938	4.22
266.313	4.28
266.687	4.05
267.061	4.27
267.435	4.26
267.809	4.16
268.183	4.24
268.556	4.14
268.93	4.1
269.304	4.1
269.678	4.1
270.051	4.12
270.425	4.12
270.799	4.08
271.172	4.05
271.546	3.93
271.919	3.8
272.293	3.75
272.666	3.7
273.04	3.71
273.413	3.62
273.787	3.54
274.16	3.65
274.533	3.81
274.906	3.5
275.279	3.39
275.653	3.47
276.026	3.27
276.399	3.23
276.772	3.27
277.145	3.25
277.518	3.36
277.891	3.28
278.263	3.27
278.636	3.09
279.009	3.2
279.382	3.31
279.755	3.34
280.127	3.45
280.5	3.55
280.872	3.59
281.245	3.7
281.617	3.94
281.99	3.9
282.362	3.85
282.735	3.9
283.107	3.93
283.479	3.85
283.852	3.96
284.224	4.05
284.596	3.89
284.968	3.91
285.34	3.86
285.713	3.86
286.085	4.06
286.457	4.26
286.829	4.35
287.201	4.4
287.572	4.41
287.944	4.31
288.316	4.34
288.688	4.24
289.06	4.25
289.431	4.22
289.803	4.29
290.175	4.31
290.546	4.34
290.918	4.49
291.289	4.6
291.661	4.57
292.032	4.64
292.403	4.94
292.775	5.05
293.146	5.07
293.517	5.09
293.889	4.98
294.26	4.94
294.631	4.89
295.002	4.94
295.373	4.94
295.744	4.9
296.115	4.86
296.486	4.93
296.857	4.87
297.228	4.9
297.599	4.76
297.97	4.82
298.34	4.92
298.711	4.92
299.082	4.88
299.452	4.94
299.823	4.91
300.194	4.75
300.564	4.74
300.935	4.8
301.305	4.84
301.676	4.92
302.046	4.96
302.416	5.1
302.787	4.97
303.157	5.06
303.527	5.18
303.897	5.2
304.267	5.38
304.637	5.46
305.008	5.61
305.378	5.76
305.748	5.78
306.117	5.85
306.487	5.87
306.857	5.96
307.227	6.03
307.597	6.12
307.967	6.23
308.336	6.26
308.706	6.2
309.076	6.2
309.445	6.15
309.815	6.13
310.184	6.09
310.554	6.12
310.923	6.12
311.293	6.07
311.662	6.05
312.031	5.96
312.401	5.94
312.77	5.79
313.139	5.82
313.508	5.77
313.877	5.64
314.246	5.67
314.616	5.68
314.985	5.59
315.353	5.56
315.722	5.54
316.091	5.46
316.46	5.44
316.829	5.43
317.198	5.46
317.567	5.4
317.935	5.4
318.304	5.51
318.672	5.4
319.041	5.52
319.41	5.56
319.778	5.49
320.147	5.54
320.515	5.55
320.883	5.42
321.252	5.55
321.62	5.62
321.988	5.54
322.357	5.4
322.725	5.34
323.093	5.34
323.461	5.28
323.829	5.29
324.197	5.32
324.565	5.35
324.933	5.32
325.301	5.33
325.669	5.28
326.037	5.2
326.405	5.32
326.772	5.4
327.14	5.5
327.508	5.44
327.875	5.45
328.243	5.51
328.61	5.53
328.978	5.53
329.346	5.52
329.713	5.44
330.08	5.51
330.448	5.66
330.815	5.54
331.182	5.59
331.55	5.62
331.917	5.7
332.284	5.72
332.651	5.73
333.018	5.81
333.385	5.82
333.752	5.8
334.119	5.82
334.486	5.77
334.853	5.7
335.22	5.75
335.587	5.71
335.954	5.61
336.32	5.62
336.687	5.53
337.054	5.72
337.42	5.78
337.787	5.92
338.153	5.78
338.52	5.78
338.886	5.75
339.253	5.56
339.619	5.45
339.986	5.49
340.352	5.57
340.718	5.59
341.084	5.62
341.451	5.69
341.817	5.57
342.183	5.51
342.549	5.54
342.915	5.64
343.281	5.68
343.647	5.66
344.013	5.59
344.379	5.62
344.745	5.5
345.11	5.53
345.476	5.44
345.842	5.55
346.208	5.71
346.573	5.77
346.939	5.98
347.304	6
347.67	5.93
348.035	5.74
348.401	5.72
348.766	5.68
349.132	5.69
349.497	5.7
349.862	5.85
350.228	5.83
350.593	5.68
350.958	5.63
351.323	5.72
351.688	5.84
352.053	5.81
352.418	5.82
352.783	5.82
353.148	5.75
353.513	5.7
353.878	5.62
354.243	5.62
354.608	5.53
354.972	5.55
355.337	5.61
355.702	5.73
356.066	5.76
356.431	5.83
356.795	5.81
357.16	5.78
357.524	5.58
357.889	5.56
358.253	5.64
358.618	5.68
358.982	5.65
359.346	5.57
359.71	5.55
360.075	5.51
360.439	5.49
360.803	5.51
361.167	5.49
361.531	5.46
361.895	5.46
362.259	5.47
362.623	5.56
362.987	5.49
363.351	5.46
363.714	5.45
364.078	5.34
364.442	5.34
364.806	5.44
365.169	5.55
365.533	5.56
365.896	5.53
366.26	5.46
366.623	5.44
366.987	5.48
367.35	5.57
367.714	5.63
368.077	5.63
368.44	5.65
368.803	5.62
369.167	5.59
369.53	5.52
369.893	5.58
370.256	5.5
370.619	5.51
370.982	5.5
371.345	5.43
371.708	5.5
372.071	5.47
372.434	5.36
372.797	5.31
373.159	5.25
373.522	5.31
373.885	5.36
374.247	5.39
374.61	5.39
374.973	5.33
375.335	5.3
375.698	5.3
376.06	5.25
376.423	5.33
376.785	5.38
377.147	5.46
377.51	5.41
377.872	5.44
378.234	5.42
378.596	5.52
378.958	5.54
379.321	5.53
379.683	5.56
380.045	5.52
380.407	5.58
380.769	5.59
381.13	5.58
381.492	5.58
381.854	5.55
382.216	5.51
382.578	5.51
382.939	5.51
383.301	5.49
383.663	5.53
384.024	5.49
384.386	5.49
384.747	5.5
385.109	5.47
385.47	5.41
385.832	5.44
386.193	5.36
386.554	5.34
386.916	5.31
387.277	5.34
387.638	5.39
387.999	5.39
388.36	5.4
388.721	5.39
389.082	5.37
389.443	5.39
389.804	5.43
390.165	5.42
390.526	5.43
390.887	5.45
391.248	5.44
391.609	5.44
391.969	5.41
392.33	5.38
392.691	5.44
393.051	5.42
393.412	5.44
393.772	5.43
394.133	5.47
394.493	5.52
394.854	5.48
395.214	5.48
395.574	5.42
395.935	5.39
396.295	5.42
396.655	5.43
397.015	5.45
397.376	5.46
397.736	5.48
398.096	5.49
398.456	5.52
398.816	5.55
399.176	5.56
399.535	5.59
399.895	5.57
400.255	5.56
400.615	5.59
400.975	5.6
401.334	5.6
401.694	5.56
402.054	5.51
402.413	5.53
402.773	5.48
403.132	5.52
403.492	5.56
403.851	5.56
404.211	5.55
404.57	5.5
404.929	5.5
405.288	5.46
405.648	5.44
406.007	5.4
406.366	5.36
406.725	5.39
407.084	5.4
407.443	5.41
407.802	5.41
408.161	5.4
408.52	5.34
408.879	5.34
409.238	5.36
409.596	5.4
409.955	5.39
410.314	5.42
410.673	5.39
411.031	5.4
411.39	5.37
411.748	5.37
412.107	5.41
412.465	5.4
412.824	5.43
413.182	5.44
413.54	5.45
413.899	5.47
414.257	5.45
414.615	5.45
414.974	5.46
415.332	5.44
415.69	5.46
416.048	5.5
416.406	5.54
416.764	5.53
417.122	5.52
417.48	5.51
417.838	5.52
418.195	5.54
418.553	5.55
418.911	5.55
419.269	5.56
419.626	5.55
419.984	5.55
420.342	5.54
420.699	5.52
421.057	5.54
421.414	5.54
421.772	5.54
422.129	5.54
422.486	5.54
422.844	5.55
423.201	5.53
423.558	5.52
423.915	5.51
424.273	5.51
424.63	5.5
424.987	5.5
425.344	5.5
425.701	5.5
426.058	5.48
426.415	5.48
426.772	5.48
427.128	5.47
427.485	5.47
427.842	5.46
428.199	5.49
428.555	5.47
428.912	5.48
429.269	5.49
429.625	5.49
429.982	5.48
430.338	5.47
430.695	5.5
431.051	5.52
431.407	5.5
431.764	5.49
432.12	5.5
432.476	5.51
432.832	5.49
433.189	5.49
433.545	5.47
433.901	5.47
434.257	5.45
434.613	5.48
434.969	5.49
435.325	5.5
435.681	5.51
436.036	5.52
436.392	5.52
436.748	5.51
437.104	5.51
437.459	5.51
437.815	5.52
438.171	5.53
438.526	5.51
438.882	5.53
439.237	5.56
439.593	5.58
439.948	5.6
440.304	5.62
440.659	5.63
441.014	5.67
441.369	5.65
441.725	5.66
442.08	5.63
442.435	5.63
442.79	5.64
443.145	5.64
443.5	5.64
443.855	5.65
444.21	5.64
444.565	5.65
444.92	5.65
445.275	5.64
445.629	5.63
445.984	5.65
446.339	5.64
446.693	5.64
447.048	5.6
447.403	5.58
447.757	5.56
448.112	5.56
448.466	5.54
448.82	5.55
449.175	5.54
449.529	5.55
449.883	5.54
450.238	5.53
450.592	5.52
450.946	5.52
451.3	5.5
451.654	5.49
452.008	5.49
452.362	5.49
452.716	5.49
453.07	5.5
453.424	5.49
453.778	5.47
454.132	5.46
454.486	5.47
454.839	5.44
455.193	5.46
455.547	5.45
455.9	5.46
456.254	5.47
456.607	5.5
456.961	5.51
457.314	5.51
457.668	5.51
458.021	5.52
458.375	5.53
458.728	5.54
459.081	5.56
459.434	5.56
459.787	5.56
460.141	5.57
460.494	5.57
460.847	5.56
461.2	5.56
461.553	5.57
461.906	5.58
462.259	5.61
462.611	5.64
462.964	5.64
463.317	5.65
463.67	5.65
464.022	5.64
464.375	5.63
464.728	5.63
465.08	5.64
465.433	5.63
465.785	5.6
466.138	5.6
466.49	5.58
466.843	5.57
467.195	5.59
467.547	5.59
467.899	5.6
468.252	5.6
468.604	5.61
468.956	5.62
469.308	5.65
469.66	5.62
470.012	5.63
470.364	5.63
470.716	5.61
471.068	5.61
471.42	5.6
471.772	5.64
472.123	5.64
472.475	5.65
472.827	5.67
473.178	5.68
473.53	5.67
473.882	5.67
474.233	5.69
474.585	5.67
474.936	5.68
475.288	5.68
475.639	5.71
475.99	5.72
476.342	5.71
476.693	5.69
477.044	5.72
477.395	5.71
477.746	5.72
478.097	5.73
478.448	5.73
478.8	5.75
479.15	5.72
479.501	5.73
479.852	5.74
480.203	5.73
480.554	5.75
480.905	5.76
481.255	5.75
481.606	5.76
481.957	5.77
482.307	5.77
482.658	5.77
483.009	5.75
483.359	5.76
483.709	5.76
484.06	5.77
484.41	5.76
484.761	5.76
485.111	5.76
485.461	5.76
485.811	5.76
486.162	5.76
486.512	5.77
486.862	5.76
487.212	5.76
487.562	5.75
487.912	5.75
488.262	5.76
488.612	5.76
488.961	5.74
489.311	5.74
489.661	5.73
490.011	5.72
490.36	5.74
490.71	5.72
491.06	5.72
491.409	5.72
491.759	5.72
492.108	5.72
492.458	5.72
492.807	5.71
493.157	5.71
493.506	5.72
493.855	5.72
494.204	5.73
494.554	5.73
494.903	5.74
495.252	5.73
495.601	5.72
495.95	5.73
496.299	5.74
496.648	5.74
496.997	5.73
497.346	5.76
497.695	5.76
498.043	5.76
498.392	5.75
498.741	5.75
499.09	5.74
499.438	5.75
499.787	5.75
500.135	5.76
500.484	5.76
500.832	5.77
501.181	5.76
501.529	5.75
501.878	5.78
502.226	5.79
502.574	5.78
502.923	5.79
503.271	5.78
503.619	5.8
503.967	5.82
504.315	5.84
504.663	5.83
505.011	5.83
505.359	5.84
505.707	5.87
506.055	5.87
506.403	5.88
506.751	5.88
507.098	5.87
507.446	5.89
507.794	5.89
508.141	5.91
508.489	5.9
508.837	5.91
509.184	5.89
509.531	5.9
509.879	5.92
510.226	5.95
510.574	5.96
510.921	5.95
511.268	5.94
511.616	5.93
511.963	5.94
512.31	5.95
512.657	5.94
513.004	5.94
513.351	5.97
513.698	5.97
514.045	5.96
514.392	5.97
514.739	5.95
515.086	5.96
515.432	5.92
515.779	5.94
516.126	5.96
516.473	5.96
516.819	5.96
517.166	5.95
517.512	5.94
517.859	5.95
518.205	5.95
518.552	5.94
518.898	5.94
519.245	5.94
519.591	5.94
519.937	5.94
520.283	5.92
520.629	5.92
520.976	5.91
521.322	5.91
521.668	5.91
522.014	5.9
522.36	5.9
522.706	5.92
523.052	5.92
523.398	5.92
523.743	5.94
524.089	5.94
524.435	5.95
524.781	5.96
525.126	5.97
525.472	5.98
525.817	5.99
526.163	5.99
526.509	5.99
526.854	5.99
527.199	6.01
527.545	6.01
527.89	6
528.235	6.01
528.581	6.03
528.926	6.03
529.271	6.05
529.616	6.05
529.961	6.05
530.306	6.05
530.651	6.05
530.996	6.05
531.341	6.06
531.686	6.06
532.031	6.05
532.376	6.05
532.721	6.05
533.065	6.05
533.41	6.05
533.755	6.05
534.099	6.06
534.444	6.04
534.788	6.05
535.133	6.05
535.477	6.04
535.822	6.02
536.166	6.01
536.51	6.02
536.855	6.03
537.199	6.03
537.543	6.03
537.887	6.03
538.231	6.01
538.576	6.02
538.92	6.03
539.264	6.01
539.608	5.99
539.951	5.98
540.295	5.98
540.639	5.99
540.983	6
541.327	6
541.671	5.99
542.014	5.99
542.358	6
542.701	6.04
543.045	6.04
543.389	6.06
543.732	6.06
544.075	6.07
544.419	6.08
544.762	6.08
545.105	6.09
545.449	6.11
545.792	6.11
546.135	6.1
546.478	6.1
546.821	6.13
547.165	6.15
547.508	6.18
547.851	6.18
548.194	6.19
548.536	6.19
548.879	6.2
549.222	6.23
549.565	6.23
549.908	6.19
550.25	6.18
550.593	6.17
550.936	6.17
551.278	6.13
551.621	6.13
551.963	6.11
552.306	6.1
552.648	6.07
552.991	6.08
553.333	6.08
553.675	6.09
554.017	6.09
554.36	6.08
554.702	6.07
555.044	6.07
555.386	6.07
555.728	6.05
556.07	6.09
556.412	6.05
556.754	6.07
557.096	6.09
557.438	6.1
557.78	6.11
558.121	6.11
558.463	6.14
558.805	6.12
559.147	6.15
559.488	6.15
559.83	6.16
560.171	6.15
560.513	6.23
560.854	6.24
561.196	6.21
561.537	6.18
561.878	6.18
562.22	6.15
562.561	6.12
562.902	6.16
563.243	6.13
563.584	6.14
563.925	6.11
564.266	6.1
564.607	6.1
564.948	6.09
565.289	6.1
565.63	6.11
565.971	6.1
566.312	6.06
566.653	6.07
566.993	6.06
567.334	6.04
567.675	6
568.015	6.01
568.356	6.01
568.696	6.02
569.037	6.02
569.377	6.05
569.718	6.06
570.058	6.04
570.398	6.02
570.739	6.04
571.079	6.07
571.419	6.08
571.759	6.1
572.099	6.09
572.439	6.09
572.779	6.09
573.119	6.1
573.459	6.14
573.799	6.15
574.139	6.17
574.479	6.21
574.819	6.21
575.158	6.19
575.498	6.22
575.838	6.24
576.177	6.23
576.517	6.24
576.856	6.29
577.196	6.31
577.535	6.33
577.875	6.36
578.214	6.35
578.553	6.38
578.893	6.33
579.232	6.31
579.571	6.29
579.91	6.3
580.25	6.31
580.589	6.28
580.928	6.28
581.267	6.28
581.606	6.23
581.945	6.25
582.283	6.25
582.622	6.25
582.961	6.23
583.3	6.28
583.639	6.25
583.977	6.24
584.316	6.22
584.654	6.23
584.993	6.2
585.332	6.22
585.67	6.23
586.008	6.23
586.347	6.25
586.685	6.31
587.024	6.31
587.362	6.33
587.7	6.35
588.038	6.37
588.376	6.35
588.715	6.38
589.053	6.38
589.391	6.44
589.729	6.44
590.067	6.44
590.404	6.41
590.742	6.47
591.08	6.43
591.418	6.46
591.756	6.45
592.093	6.49
592.431	6.45
592.769	6.42
593.106	6.44
593.444	6.44
593.781	6.45
594.119	6.45
594.456	6.41
594.793	6.41
595.131	6.4
595.468	6.42
595.805	6.41
596.143	6.38
596.48	6.3
596.817	6.3
597.154	6.33
597.491	6.29
597.828	6.27
598.165	6.25
598.502	6.23
598.839	6.23
599.176	6.2
599.512	6.23
599.849	6.24
600.186	6.24
600.523	6.28
600.859	6.24
601.196	6.26
601.532	6.29
601.869	6.27
602.205	6.28
602.542	6.27
602.878	6.29
603.215	6.33
603.551	6.35
603.887	6.37
604.223	6.36
604.56	6.39
604.896	6.38
605.232	6.42
605.568	6.43
605.904	6.41
606.24	6.43
606.576	6.42
606.912	6.42
607.248	6.44
607.583	6.4
607.919	6.39
608.255	6.36
608.591	6.39
608.926	6.38
609.262	6.44
609.597	6.45
609.933	6.42
610.268	6.43
610.604	6.47
610.939	6.47
611.275	6.49
611.61	6.49
611.945	6.54
612.281	6.55
612.616	6.53
612.951	6.56
613.286	6.57
613.621	6.62
613.956	6.59
614.291	6.55
614.626	6.56
614.961	6.55
615.296	6.56
615.631	6.59
615.966	6.58
616.3	6.54
616.635	6.55
616.97	6.56
617.304	6.57
617.639	6.54
617.973	6.54
618.308	6.5
618.642	6.56
618.977	6.51
619.311	6.54
619.646	6.59
619.98	6.56
620.314	6.53
620.648	6.49
620.983	6.58
621.317	6.63
621.651	6.68
621.985	6.73
622.319	6.74
622.653	6.68
622.987	6.78
623.321	6.74
623.655	6.74
623.988	6.79
624.322	6.71
624.656	6.73
624.99	6.79
625.323	6.79
625.657	6.76
625.99	6.75
626.324	6.72
626.657	6.74
626.991	6.79
627.324	6.8
627.658	6.87
627.991	6.85
628.324	6.85
628.657	6.81
628.991	6.82
629.324	6.84
629.657	6.85
629.99	6.79
630.323	6.84
630.656	6.83
630.989	6.81
631.322	6.85
631.655	6.83
631.987	6.75
632.32	6.76
632.653	6.75
632.986	6.82
633.318	6.87
633.651	6.84
633.984	6.84
634.316	6.87
634.649	6.8
634.981	6.78
635.313	6.75
635.646	6.73
635.978	6.71
636.31	6.67
636.643	6.68
636.975	6.65
637.307	6.57
637.639	6.57
637.971	6.62
638.303	6.61
638.635	6.61
638.967	6.63
639.299	6.66
639.631	6.65
639.963	6.6
640.295	6.54
640.626	6.56
640.958	6.57
641.29	6.54
641.621	6.53
641.953	6.53
642.285	6.61
642.616	6.67
642.948	6.65
643.279	6.68
643.61	6.74
643.942	6.74
644.273	6.77
644.604	6.76
644.936	6.7
645.267	6.72
645.598	6.77
645.929	6.76
646.26	6.74
646.591	6.76
646.922	6.71
647.253	6.66
647.584	6.63
647.915	6.62
648.245	6.64
648.576	6.62
648.907	6.68
649.238	6.57
649.568	6.56
649.899	6.61
650.229	6.61
650.56	6.55
650.89	6.59
651.221	6.63
651.551	6.65
651.882	6.7
652.212	6.71
652.542	6.71
652.872	6.74
653.203	6.7
653.533	6.69
653.863	6.7
654.193	6.67
654.523	6.68
654.853	6.7
655.183	6.64
655.513	6.65
655.843	6.58
656.172	6.65
656.502	6.64
656.832	6.56
657.162	6.6
657.491	6.62
657.821	6.7
658.15	6.64
658.48	6.68
658.809	6.63
659.139	6.6
659.468	6.55
659.798	6.49
660.127	6.59
660.456	6.63
660.785	6.69
661.115	6.81
661.444	6.84
661.773	6.8
662.102	6.88
662.431	6.94
662.76	6.98
663.089	6.99
663.418	6.98
663.747	6.97
664.076	6.95
664.404	7
664.733	6.94
665.062	7.02
665.39	7.02
665.719	6.93
666.048	6.98
666.376	7.03
666.705	7.13
667.033	7.09
667.362	7.09
667.69	7.06
668.018	7
668.347	7
668.675	7.08
669.003	7.06
669.331	7.1
669.659	7.07
669.987	7.01
670.315	7.01
670.643	7.11
670.971	7.13
671.299	7.06
671.627	7.03
671.955	7.01
672.283	6.96
672.61	7.04
672.938	7.03
673.266	7.02
673.593	7.13
673.921	7.04
674.249	7.09
674.576	7.06
674.904	7.06
675.231	6.97
675.558	6.89
675.886	6.94
676.213	6.95
676.54	6.98
676.867	7.09
677.195	7.13
677.522	7.09
677.849	7.09
678.176	7.17
678.503	7.22
678.83	7.25
679.157	7.26
679.484	7.3
679.81	7.38
680.137	7.34
680.464	7.25
680.791	7.29
681.117	7.23
681.444	7.25
681.771	7.26
682.097	7.34
682.424	7.39
682.75	7.3
683.077	7.2
683.403	7.22
683.729	7.13
684.056	7.1
684.382	7.13
684.708	7
685.034	6.97
685.36	6.96
685.686	6.92
686.012	6.91
686.339	6.9
686.664	6.75
686.99	6.85
687.316	6.85
687.642	6.9
687.968	6.98
688.294	6.94
688.619	6.96
688.945	6.87
689.271	6.84
689.596	6.89
689.922	7.04
690.247	7
690.573	7.07
690.898	7.04
691.224	7.04
691.549	7.18
691.874	7.22
692.2	7.27
692.525	7.29
692.85	7.51
693.175	7.61
693.5	7.7
693.825	7.64
694.15	7.62
694.475	7.59
694.8	7.55
695.125	7.65
695.45	7.62
695.775	7.7
696.099	7.73
696.424	7.69
696.749	7.57
697.073	7.52
697.398	7.55
697.723	7.6
698.047	7.53
698.372	7.56
698.696	7.5
699.02	7.41
699.345	7.38
699.669	7.25
699.993	7.15
700.318	7.15
700.642	7.15
700.966	7.11
701.29	7.16
701.614	7.12
701.938	7.18
702.262	7.26
702.586	7.32
702.91	7.24
703.234	7.29
703.557	7.32
703.881	7.43
704.205	7.39
704.529	7.36
704.852	7.46
705.176	7.44
705.499	7.47
705.823	7.5
706.146	7.43
706.47	7.48
706.793	7.54
707.117	7.55
707.44	7.66
707.763	7.69
708.086	7.54
708.409	7.52
708.733	7.46
709.056	7.37
709.379	7.39
709.702	7.39
710.025	7.29
710.348	7.25
710.671	7.14
710.993	7.12
711.316	7.17
711.639	7.26
711.962	7.22
712.284	7.21
712.607	7.33
712.93	7.46
713.252	7.39
713.575	7.48
713.897	7.47
714.22	7.41
714.542	7.45
714.864	7.47
715.187	7.55
715.509	7.65
715.831	7.66
716.153	7.56
716.475	7.72
716.798	7.84
717.12	7.85
717.442	7.94
717.764	7.98
718.085	7.95
718.407	7.96
718.729	7.94
719.051	7.96
719.373	7.76
719.695	7.73
720.016	7.71
720.338	7.56
720.659	7.59
720.981	7.46
721.302	7.39
721.624	7.5
721.945	7.51
722.267	7.38
722.588	7.35
722.909	7.27
723.231	7.07
723.552	6.88
723.873	6.95
724.194	6.88
724.515	6.92
724.836	6.91
725.157	6.93
725.478	7.08
725.799	7.08
726.12	7.02
726.441	7.16
726.762	7.27
727.083	7.4
727.403	7.53
727.724	7.66
728.045	7.67
728.365	7.73
728.686	7.68
729.006	7.64
729.327	7.68
729.647	7.71
729.967	7.75
730.288	8.03
730.608	8.02
730.928	8.02
731.249	7.9
731.569	8.11
731.889	8.03
732.209	7.98
732.529	8.04
732.849	8.12
733.169	8.09
733.489	8.08
733.809	8.03
734.129	7.95
734.448	8.01
734.768	8.02
735.088	7.9
735.408	7.88
735.727	8.04
736.047	8.08
736.366	8.17
736.686	8.24
737.005	8.15
737.325	8.22
737.644	8.39
737.963	8.58
738.283	8.34
738.602	8.18
738.921	8.08
739.24	8.13
739.56	8.36
739.879	8.52
740.198	8.63
740.517	8.43
740.836	8.31
741.155	8.25
741.473	8.4
741.792	8.46
742.111	8.56
742.43	8.33
742.748	8.18
743.067	8.25
743.386	8.24
743.704	8.18
744.023	8.15
744.341	8.08
744.66	8.33
744.978	8.43
745.297	8.71
745.615	8.91
745.933	8.76
746.252	8.7
746.57	8.34
746.888	8.18
747.206	8.08
747.524	8.3
747.842	8.37
748.16	8.42
748.478	8.33
748.796	8.54
749.114	8.75
749.432	8.74
749.749	8.81
750.067	8.86
750.385	8.73
750.703	8.76
751.02	8.65
751.338	8.21
751.655	8.11
751.973	8.02
752.29	7.97
752.608	7.95
752.925	7.7
753.242	7.82
753.56	7.66
753.877	7.92
754.194	7.87
754.511	7.93
754.828	7.84
755.145	7.85
755.462	7.87
755.779	7.73
756.096	7.9
756.413	7.83
756.73	7.71
757.047	7.99
757.364	8.08
757.68	8.13
757.997	8.27
758.314	8.11
758.63	8.04
758.947	8.16
759.264	8.35
759.58	8.39
759.896	8.43
760.213	8.82
760.529	8.93
760.846	8.78
761.162	8.77
761.478	8.74
761.794	8.77
762.11	8.56
762.426	8.74
762.743	8.67
763.059	8.72
763.375	8.94
763.69	8.89
764.006	8.85
764.322	8.97
764.638	9
764.954	9.32
765.27	9.22
765.585	9.02
765.901	8.9
766.216	9.23
766.532	9.36
766.848	9.08
767.163	9.01
767.478	9.22
767.794	9.28
768.109	9.03
768.424	9.31
768.74	9.19
769.055	9.07
769.37	9.51
769.685	9.15
770	8.98
770.315	8.74
770.63	8.81
770.945	8.44
771.26	8.57
771.575	8.29
771.89	8.58
772.205	8.62
772.52	8.84
772.834	8.25
773.149	7.91
773.464	8.14
773.778	8.15
774.093	7.92
774.407	7.61
774.722	7.82
775.036	7.5
775.351	7.8
775.665	7.82
775.979	7.45
776.293	7.82
776.608	7.43
776.922	7.81
777.236	8.01
777.55	8.48
777.864	8.44
778.178	8.75
778.492	8.83
778.806	8.91
779.12	8.8
779.434	9.3
779.747	9.23
780.061	9.22
780.375	9.39
780.689	9.49
781.002	9.7
781.316	9.89
781.629	10.01
781.943	10.06
782.256	9.72
782.57	9.4
782.883	9.33
783.196	9.8
783.51	9.9
783.823	9.51
784.136	9.5
784.449	9.52
784.762	9.5
785.075	9.25
785.388	9.28
785.701	9.6
786.014	9.32
786.327	9.44
786.64	9.81
786.953	9.88
787.266	9.8
787.578	9.81
787.891	9.73
788.204	9.35
788.516	9.75
788.829	10.24
789.141	10.89
789.454	10.98
789.766	11.03
790.079	10.68
790.391	10.74
790.703	10.98
791.016	10.99
791.328	10.97
791.64	11.56
791.952	11.84
792.264	11.16
792.576	11.28
792.888	11.57
793.2	11.21
793.512	10.98
793.824	10.82
794.136	10.82
794.448	11.49
794.76	11.97
795.071	11.25
795.383	11.1
795.695	10.38
796.006	10.45
796.318	10.51
796.629	10.99
796.941	11.34
797.252	10.88
797.564	11.19
797.875	10.63
798.186	9.93
798.497	9.8
798.809	10.2
799.12	10.38
799.431	10.35
799.742	10.78
800.053	11.57
800.364	12.1
800.675	11.61
800.986	10.84
801.297	10.32
801.608	10.53
801.918	10.36
802.229	10.58
802.54	10.94
802.851	10.74
803.161	10.25
803.472	9.65
803.782	10.08
804.093	9.7
804.403	10.49
804.714	10.81
805.024	10.68
805.334	10.97
805.645	10.71
805.955	10.44
806.265	10.66
806.575	9.98
806.885	9.97
807.195	10.24
807.505	10.23
807.815	10.19
808.125	10.27
808.435	10.46
808.745	10.59
809.055	10.09
809.365	10.57
809.674	10.84
809.984	11.43
810.294	11.37
810.603	11.57
810.913	11.9
811.222	12.25
811.532	12.63
811.841	12.21
812.151	12.52
812.46	12.62
812.769	12.37
813.079	12.46
813.388	12.35
813.697	12.72
814.006	12.89
814.315	12.98
814.624	12.55
814.933	12.7
815.242	12.35
815.551	12.82
815.86	12.05
816.169	11.94
816.478	11.8
816.786	11.19
817.095	10.75
817.404	10.23
817.712	9.93
818.021	9.84
818.33	10.22
818.638	9.73
818.947	10.03
819.255	9.96
819.563	10.21
819.872	10.07
820.18	10.44
820.488	10.71
820.796	11.13
821.105	11.13
821.413	11.01
821.721	11.07
822.029	10.73
822.337	10.98
822.645	10.9
822.953	10.82
823.26	11.11
823.568	11.07
823.876	11.07
824.184	11.17
824.491	11.11
824.799	11.12
825.107	11.29
825.414	11.36
825.722	11.55
826.029	11.57
826.337	11.67
826.644	11.49
826.951	11.23
827.259	11.17
827.566	11.16
827.873	11.1
828.18	11.11
828.488	11.47
828.795	11.31
829.102	11.45
829.409	11.55
829.716	11.21
830.023	11.47
830.329	11.36
830.636	11.01
830.943	10.99
831.25	10.88
831.557	10.74
831.863	10.52
832.17	9.95
832.476	10.13
832.783	10.2
833.089	10.37
833.396	10.66
833.702	10.61
834.009	10.83
834.315	11.12
834.621	11.36
834.928	11.35
835.234	11.34
835.54	11.25
835.846	11.62
836.152	11.7
836.458	11.47
836.764	11.58
837.07	11.44
837.376	11.24
837.682	11.08
837.988	11.08
838.293	11.38
838.599	11.59
838.905	11.17
839.211	10.97
839.516	10.95
839.822	10.72
840.127	10.59
840.433	11.25
840.738	10.72
841.044	10.52
841.349	9.74
841.654	9.7
841.959	9.67
842.265	9.26
842.57	9.41
842.875	8.66
843.18	8.87
843.485	9.72
843.79	10.8
844.095	10.26
844.4	10.55
844.705	8.73
845.01	7.98
845.315	7.76
845.619	7.25
845.924	6.6
846.229	7.15
846.533	7.15
846.838	6.44
847.142	5.74
847.447	5.6
847.751	6.4
848.056	4.02
848.36	4.67
848.664	3.74
848.969	5.52
849.273	5.9
849.577	5.05
849.881	4.43
850.185	4.33
850.489	5.15
850.794	3.75
851.097	5.1
851.401	6.18
851.705	4.33
852.009	7.26
852.313	8.57
852.617	8.11
852.92	7.22
853.224	6.43
853.528	7.77
853.831	6.89
854.135	6.27
854.438	8.2
854.742	8.38
855.045	9.02
855.349	6.19
855.652	7.08
855.955	7.14
856.259	5.35
856.562	5.55
856.865	5.11
857.168	4.82
857.471	4.49
857.774	4.21
858.077	7.74
858.38	7.24
858.683	7.28
858.986	7.59
859.289	7.46
859.592	6.74
859.894	8.53
860.197	8.03
860.5	9.44
860.802	10.75
861.105	10.11
861.407	10.52
861.71	12.71
862.012	13.16
862.315	13.71
862.617	15.79
862.919	15.13
863.222	14.89
863.524	15.61
863.826	18.09
864.128	20.48
864.43	16.76
864.732	16.97
865.034	16.05
865.336	15.88
865.638	16.54
865.94	17.58
866.242	15.35
866.544	17.54
866.846	16.37
867.147	14.41
867.449	13.83
867.751	12.03
868.052	10.29
868.354	8.73
868.655	9.38
868.957	8.29
869.258	8.08
869.56	9.94
869.861	8.61
870.162	6.32
870.463	2.9
870.765	4.35
871.066	0.19
871.367	-0.33
871.668	0.01
871.969	-0.73
872.27	-1.35
872.571	-0.17
872.872	-1.12
873.173	-2.66
873.473	-2.52
873.774	-2.13
874.075	0.96
874.376	0.41
874.676	2.51
874.977	1.18
875.277	3.8
875.578	3.82
875.878	3.26
876.179	5.09
876.479	6.07
876.78	6.69
877.08	6.64
877.38	9.44
877.68	10.1
877.981	10.2
878.281	11.31
878.581	12.53
