Data from BU57648_Reflection_00003.txt Node
Date: Tue Nov 19 10:46:31 EST 2019
User: vgr7
Spectrometer: USB2G7710
Scans to average: 3
Trigger mode: 4
Integration Time (sec): 2.000000E-2
Electric dark correction enabled: true
Boxcar width: 10
XAxis mode: Wavelengths
Number of Pixels in Spectrum: 2048
>>>>>Begin Spectral Data<<<<<
177.721	109.26
178.105	69.14
178.488	55.85
178.871	65.28
179.254	18.89
179.636	12.04
180.019	-3.63
180.402	207.14
180.785	-33.89
181.168	-124.54
181.55	-140.2
181.933	-8.63
182.316	-52.78
182.698	-62.43
183.081	-51.61
183.463	-19.42
183.846	-73.61
184.228	-686.46
184.611	-69.38
184.993	39.52
185.376	29.19
185.758	33.53
186.14	23.41
186.522	17.39
186.904	28.27
187.287	29.28
187.669	36.06
188.051	27.38
188.433	31.85
188.815	58.1
189.197	63.94
189.579	37.16
189.961	24.44
190.342	56.42
190.724	47.5
191.106	60.26
191.488	51.53
191.869	70.36
192.251	68.89
192.633	91.21
193.014	78.98
193.396	94.24
193.777	65.95
194.159	48.93
194.54	81.88
194.922	86.54
195.303	71.38
195.684	52.24
196.065	66.59
196.447	58.8
196.828	54.4
197.209	30.98
197.59	53.22
197.971	60.13
198.352	46.58
198.733	48.17
199.114	38.33
199.495	32.61
199.876	40.8
200.257	66.74
200.638	48
201.018	46.52
201.399	52.65
201.78	52.9
202.16	53.06
202.541	37.63
202.922	38.71
203.302	44.16
203.683	47.84
204.063	50.56
204.444	55.11
204.824	54.57
205.204	70.69
205.585	91.06
205.965	113.72
206.345	121.08
206.725	127.37
207.106	138.02
207.486	138.7
207.866	122.89
208.246	102.3
208.626	108.26
209.006	91.34
209.386	99.74
209.766	113.74
210.145	114.06
210.525	120.08
210.905	113.38
211.285	80.94
211.664	94.72
212.044	98.12
212.424	83.28
212.803	98.1
213.183	97.67
213.562	76.67
213.942	56.01
214.321	47.36
214.701	25.21
215.08	26.49
215.459	23.86
215.838	22.34
216.218	7.7
216.597	10.63
216.976	23.05
217.355	13.12
217.734	15.68
218.113	30.73
218.492	15.39
218.871	27.02
219.25	17.96
219.629	10.4
220.008	-11.83
220.387	13.57
220.766	-8.48
221.144	-9.79
221.523	-13.8
221.902	0.06
222.28	-3.05
222.659	16.86
223.037	18.88
223.416	35.78
223.794	40.3
224.173	26.56
224.551	28.71
224.929	31.74
225.308	27.62
225.686	23.13
226.064	15.32
226.442	22.47
226.821	18.73
227.199	20.54
227.577	17.9
227.955	17.99
228.333	15.98
228.711	15.64
229.089	16.16
229.467	15.79
229.845	10.8
230.222	11.28
230.6	7.99
230.978	8.19
231.356	5.29
231.733	4.93
232.111	9.95
232.488	5.49
232.866	4.15
233.243	6.46
233.621	7.09
233.998	9.5
234.376	8.64
234.753	7.06
235.13	6.19
235.508	5.5
235.885	5.21
236.262	3.35
236.639	3.85
237.016	4.79
237.393	4.12
237.77	5.34
238.147	5.51
238.524	5.81
238.901	4.44
239.278	4
239.655	2.75
240.032	2.7
240.409	3.63
240.785	3.55
241.162	2.89
241.539	2.5
241.915	2.45
242.292	2.5
242.668	2.96
243.045	3.54
243.421	4.05
243.798	4.4
244.174	4.26
244.551	4.18
244.927	4.08
245.303	4.09
245.679	4.13
246.056	4.13
246.432	4.15
246.808	4.41
247.184	4.44
247.56	4.56
247.936	4.5
248.312	4.79
248.688	4.97
249.064	5.17
249.44	5.17
249.815	5.05
250.191	5.18
250.567	5.22
250.943	5.27
251.318	5.08
251.694	4.92
252.069	5.17
252.445	5.65
252.82	5.99
253.196	5.92
253.571	5.84
253.947	5.79
254.322	5.52
254.697	5.44
255.073	5.34
255.448	5.06
255.823	4.95
256.198	4.55
256.573	4.66
256.948	4.67
257.323	4.77
257.698	4.82
258.073	4.63
258.448	4.38
258.823	4.18
259.198	4.18
259.573	4.15
259.948	4.15
260.322	3.74
260.697	3.74
261.072	3.75
261.446	3.97
261.821	4.06
262.195	4.14
262.57	4.24
262.944	4.31
263.319	4.48
263.693	4.43
264.067	4.55
264.442	4.24
264.816	4.16
265.19	4
265.564	3.73
265.938	3.78
266.313	3.8
266.687	3.94
267.061	3.85
267.435	3.91
267.809	3.91
268.183	4.22
268.556	4.04
268.93	4.26
269.304	4.03
269.678	3.96
270.051	4.13
270.425	4.11
270.799	4
271.172	3.88
271.546	3.89
271.919	3.76
272.293	3.96
272.666	4.09
273.04	4.22
273.413	4.36
273.787	4.39
274.16	4.46
274.533	4.37
274.906	4.34
275.279	4.37
275.653	4.23
276.026	4.07
276.399	4.18
276.772	4.08
277.145	4.18
277.518	4.19
277.891	4.01
278.263	3.77
278.636	3.84
279.009	3.86
279.382	3.9
279.755	4.12
280.127	3.96
280.5	3.89
280.872	3.84
281.245	3.87
281.617	3.8
281.99	3.7
282.362	3.78
282.735	3.88
283.107	3.81
283.479	3.86
283.852	4.01
284.224	3.83
284.596	3.77
284.968	3.69
285.34	3.66
285.713	3.72
286.085	3.79
286.457	3.75
286.829	3.84
287.201	3.66
287.572	3.62
287.944	3.74
288.316	3.69
288.688	3.71
289.06	3.76
289.431	3.87
289.803	4.06
290.175	4.07
290.546	4
290.918	4.17
291.289	3.97
291.661	3.86
292.032	4.05
292.403	3.94
292.775	3.94
293.146	4.03
293.517	3.97
293.889	4.04
294.26	3.98
294.631	3.96
295.002	4.1
295.373	4.12
295.744	3.99
296.115	3.92
296.486	3.88
296.857	3.84
297.228	3.77
297.599	3.64
297.97	3.63
298.34	3.7
298.711	3.7
299.082	3.92
299.452	4.01
299.823	4.05
300.194	4.27
300.564	4.16
300.935	4.22
301.305	4.26
301.676	4.24
302.046	4.3
302.416	4.46
302.787	4.42
303.157	4.42
303.527	4.47
303.897	4.56
304.267	4.73
304.637	4.8
305.008	4.75
305.378	4.79
305.748	4.63
306.117	4.56
306.487	4.51
306.857	4.47
307.227	4.61
307.597	4.37
307.967	4.2
308.336	4.39
308.706	4.26
309.076	4.18
309.445	4.24
309.815	4.22
310.184	4.11
310.554	4.19
310.923	4.15
311.293	4.27
311.662	4.21
312.031	4.12
312.401	4.07
312.77	4.07
313.139	4.07
313.508	4.26
313.877	4.31
314.246	4.23
314.616	4.35
314.985	4.12
315.353	4.23
315.722	4.42
316.091	4.29
316.46	4.5
316.829	4.68
317.198	4.55
317.567	4.68
317.935	4.56
318.304	4.77
318.672	4.92
319.041	4.89
319.41	5.16
319.778	4.98
320.147	5.09
320.515	5.09
320.883	5.15
321.252	5.23
321.62	5.26
321.988	5.31
322.357	5.28
322.725	5.35
323.093	5.38
323.461	5.42
323.829	5.62
324.197	5.48
324.565	5.41
324.933	5.51
325.301	5.43
325.669	5.42
326.037	5.44
326.405	5.51
326.772	5.54
327.14	5.36
327.508	5.34
327.875	5.37
328.243	5.37
328.61	5.33
328.978	5.25
329.346	5.22
329.713	5.31
330.08	5.37
330.448	5.48
330.815	5.29
331.182	5.16
331.55	5.11
331.917	5.16
332.284	5.21
332.651	5.19
333.018	5.19
333.385	5.28
333.752	5.14
334.119	5.07
334.486	4.93
334.853	4.94
335.22	5.1
335.587	5.05
335.954	5.01
336.32	5
336.687	5.06
337.054	5.06
337.42	4.98
337.787	4.92
338.153	4.83
338.52	5.15
338.886	5.19
339.253	5.03
339.619	5.09
339.986	4.96
340.352	5.08
340.718	5.08
341.084	5.15
341.451	5.12
341.817	5.06
342.183	5.12
342.549	5.17
342.915	5.23
343.281	5.17
343.647	5.22
344.013	5.25
344.379	5.12
344.745	5.06
345.11	5.07
345.476	5.06
345.842	5.12
346.208	5.01
346.573	4.93
346.939	5.07
347.304	4.92
347.67	4.95
348.035	4.82
348.401	4.88
348.766	4.79
349.132	4.87
349.497	4.87
349.862	4.87
350.228	4.82
350.593	4.78
350.958	4.91
351.323	4.84
351.688	4.84
352.053	4.89
352.418	4.94
352.783	4.91
353.148	5.01
353.513	4.89
353.878	4.82
354.243	4.77
354.608	4.77
354.972	4.79
355.337	4.85
355.702	4.91
356.066	4.92
356.431	4.91
356.795	4.88
357.16	4.94
357.524	5.01
357.889	5
358.253	4.94
358.618	4.87
358.982	4.87
359.346	4.88
359.71	4.86
360.075	4.88
360.439	4.88
360.803	4.8
361.167	4.85
361.531	4.87
361.895	4.94
362.259	4.94
362.623	4.95
362.987	4.99
363.351	4.97
363.714	5
364.078	5.01
364.442	5.03
364.806	4.97
365.169	4.94
365.533	4.98
365.896	5.08
366.26	5.06
366.623	5.06
366.987	5.07
367.35	5.12
367.714	5.12
368.077	5.14
368.44	5.16
368.803	5.09
369.167	5.08
369.53	5.07
369.893	5.05
370.256	5.04
370.619	5.04
370.982	5.03
371.345	4.91
371.708	4.97
372.071	4.92
372.434	4.91
372.797	4.9
373.159	4.9
373.522	4.84
373.885	4.9
374.247	4.92
374.61	4.9
374.973	4.88
375.335	4.9
375.698	4.88
376.06	4.89
376.423	4.89
376.785	4.91
377.147	4.87
377.51	4.84
377.872	4.88
378.234	4.8
378.596	4.83
378.958	4.91
379.321	4.88
379.683	4.92
380.045	4.98
380.407	4.95
380.769	4.92
381.13	4.93
381.492	4.93
381.854	4.93
382.216	4.98
382.578	4.99
382.939	5
383.301	4.99
383.663	4.98
384.024	4.97
384.386	4.99
384.747	4.99
385.109	5
385.47	4.98
385.832	5.01
386.193	4.95
386.554	4.9
386.916	4.88
387.277	4.87
387.638	4.85
387.999	4.86
388.36	4.86
388.721	4.82
389.082	4.84
389.443	4.82
389.804	4.79
390.165	4.81
390.526	4.77
390.887	4.79
391.248	4.79
391.609	4.83
391.969	4.85
392.33	4.89
392.691	4.91
393.051	4.89
393.412	4.87
393.772	4.89
394.133	4.89
394.493	4.88
394.854	4.84
395.214	4.81
395.574	4.78
395.935	4.76
396.295	4.8
396.655	4.79
397.015	4.81
397.376	4.8
397.736	4.75
398.096	4.72
398.456	4.7
398.816	4.68
399.176	4.63
399.535	4.59
399.895	4.55
400.255	4.53
400.615	4.57
400.975	4.56
401.334	4.53
401.694	4.51
402.054	4.57
402.413	4.6
402.773	4.6
403.132	4.63
403.492	4.65
403.851	4.59
404.211	4.56
404.57	4.56
404.929	4.52
405.288	4.53
405.648	4.55
406.007	4.59
406.366	4.6
406.725	4.62
407.084	4.64
407.443	4.64
407.802	4.65
408.161	4.65
408.52	4.64
408.879	4.66
409.238	4.67
409.596	4.62
409.955	4.59
410.314	4.61
410.673	4.64
411.031	4.64
411.39	4.67
411.748	4.65
412.107	4.62
412.465	4.62
412.824	4.62
413.182	4.59
413.54	4.53
413.899	4.51
414.257	4.49
414.615	4.45
414.974	4.46
415.332	4.44
415.69	4.4
416.048	4.43
416.406	4.44
416.764	4.45
417.122	4.43
417.48	4.43
417.838	4.42
418.195	4.38
418.553	4.37
418.911	4.34
419.269	4.34
419.626	4.34
419.984	4.34
420.342	4.34
420.699	4.35
421.057	4.35
421.414	4.37
421.772	4.36
422.129	4.37
422.486	4.37
422.844	4.36
423.201	4.36
423.558	4.35
423.915	4.34
424.273	4.32
424.63	4.33
424.987	4.34
425.344	4.33
425.701	4.33
426.058	4.32
426.415	4.34
426.772	4.35
427.128	4.34
427.485	4.34
427.842	4.34
428.199	4.33
428.555	4.34
428.912	4.3
429.269	4.29
429.625	4.27
429.982	4.29
430.338	4.28
430.695	4.27
431.051	4.27
431.407	4.25
431.764	4.27
432.12	4.29
432.476	4.28
432.832	4.3
433.189	4.29
433.545	4.3
433.901	4.27
434.257	4.27
434.613	4.27
434.969	4.26
435.325	4.26
435.681	4.27
436.036	4.26
436.392	4.27
436.748	4.28
437.104	4.31
437.459	4.3
437.815	4.32
438.171	4.31
438.526	4.31
438.882	4.32
439.237	4.29
439.593	4.28
439.948	4.27
440.304	4.27
440.659	4.28
441.014	4.28
441.369	4.28
441.725	4.29
442.08	4.32
442.435	4.32
442.79	4.31
443.145	4.3
443.5	4.29
443.855	4.29
444.21	4.28
444.565	4.28
444.92	4.25
445.275	4.26
445.629	4.26
445.984	4.24
446.339	4.25
446.693	4.24
447.048	4.23
447.403	4.22
447.757	4.2
448.112	4.2
448.466	4.19
448.82	4.18
449.175	4.17
449.529	4.14
449.883	4.14
450.238	4.15
450.592	4.14
450.946	4.14
451.3	4.15
451.654	4.13
452.008	4.11
452.362	4.12
452.716	4.1
453.07	4.1
453.424	4.1
453.778	4.1
454.132	4.09
454.486	4.1
454.839	4.1
455.193	4.13
455.547	4.13
455.9	4.15
456.254	4.15
456.607	4.16
456.961	4.17
457.314	4.18
457.668	4.16
458.021	4.17
458.375	4.18
458.728	4.18
459.081	4.18
459.434	4.21
459.787	4.19
460.141	4.21
460.494	4.23
460.847	4.25
461.2	4.25
461.553	4.26
461.906	4.26
462.259	4.25
462.611	4.23
462.964	4.23
463.317	4.25
463.67	4.24
464.022	4.26
464.375	4.25
464.728	4.25
465.08	4.28
465.433	4.3
465.785	4.31
466.138	4.32
466.49	4.32
466.843	4.31
467.195	4.34
467.547	4.33
467.899	4.33
468.252	4.31
468.604	4.33
468.956	4.34
469.308	4.34
469.66	4.37
470.012	4.37
470.364	4.39
470.716	4.36
471.068	4.38
471.42	4.37
471.772	4.38
472.123	4.39
472.475	4.36
472.827	4.35
473.178	4.34
473.53	4.35
473.882	4.35
474.233	4.35
474.585	4.34
474.936	4.33
475.288	4.32
475.639	4.31
475.99	4.29
476.342	4.31
476.693	4.32
477.044	4.32
477.395	4.33
477.746	4.31
478.097	4.31
478.448	4.27
478.8	4.26
479.15	4.25
479.501	4.24
479.852	4.25
480.203	4.25
480.554	4.26
480.905	4.28
481.255	4.29
481.606	4.29
481.957	4.29
482.307	4.29
482.658	4.3
483.009	4.31
483.359	4.31
483.709	4.32
484.06	4.32
484.41	4.31
484.761	4.32
485.111	4.32
485.461	4.33
485.811	4.34
486.162	4.34
486.512	4.34
486.862	4.36
487.212	4.36
487.562	4.37
487.912	4.37
488.262	4.36
488.612	4.36
488.961	4.37
489.311	4.37
489.661	4.38
490.011	4.38
490.36	4.37
490.71	4.37
491.06	4.36
491.409	4.37
491.759	4.37
492.108	4.35
492.458	4.35
492.807	4.35
493.157	4.36
493.506	4.37
493.855	4.38
494.204	4.36
494.554	4.36
494.903	4.36
495.252	4.35
495.601	4.36
495.95	4.36
496.299	4.36
496.648	4.36
496.997	4.35
497.346	4.38
497.695	4.39
498.043	4.41
498.392	4.43
498.741	4.42
499.09	4.45
499.438	4.47
499.787	4.47
500.135	4.47
500.484	4.49
500.832	4.5
501.181	4.52
501.529	4.54
501.878	4.57
502.226	4.58
502.574	4.59
502.923	4.59
503.271	4.6
503.619	4.63
503.967	4.62
504.315	4.64
504.663	4.64
505.011	4.62
505.359	4.61
505.707	4.62
506.055	4.64
506.403	4.65
506.751	4.65
507.098	4.67
507.446	4.69
507.794	4.66
508.141	4.66
508.489	4.67
508.837	4.65
509.184	4.65
509.531	4.67
509.879	4.65
510.226	4.62
510.574	4.64
510.921	4.65
511.268	4.68
511.616	4.7
511.963	4.7
512.31	4.73
512.657	4.74
513.004	4.73
513.351	4.75
513.698	4.74
514.045	4.73
514.392	4.73
514.739	4.74
515.086	4.78
515.432	4.79
515.779	4.78
516.126	4.8
516.473	4.8
516.819	4.8
517.166	4.83
517.512	4.85
517.859	4.86
518.205	4.84
518.552	4.83
518.898	4.83
519.245	4.83
519.591	4.84
519.937	4.85
520.283	4.85
520.629	4.83
520.976	4.85
521.322	4.85
521.668	4.87
522.014	4.87
522.36	4.87
522.706	4.88
523.052	4.89
523.398	4.92
523.743	4.92
524.089	4.92
524.435	4.92
524.781	4.93
525.126	4.91
525.472	4.92
525.817	4.93
526.163	4.93
526.509	4.93
526.854	4.93
527.199	4.93
527.545	4.94
527.89	4.96
528.235	4.96
528.581	4.97
528.926	4.97
529.271	4.98
529.616	4.99
529.961	4.99
530.306	5
530.651	4.98
530.996	4.99
531.341	5
531.686	5.02
532.031	5.02
532.376	5.05
532.721	5.05
533.065	5.05
533.41	5.07
533.755	5.07
534.099	5.08
534.444	5.08
534.788	5.08
535.133	5.07
535.477	5.07
535.822	5.07
536.166	5.08
536.51	5.09
536.855	5.08
537.199	5.08
537.543	5.08
537.887	5.1
538.231	5.11
538.576	5.1
538.92	5.1
539.264	5.12
539.608	5.1
539.951	5.1
540.295	5.1
540.639	5.1
540.983	5.1
541.327	5.09
541.671	5.1
542.014	5.11
542.358	5.12
542.701	5.12
543.045	5.13
543.389	5.13
543.732	5.13
544.075	5.14
544.419	5.15
544.762	5.14
545.105	5.14
545.449	5.13
545.792	5.13
546.135	5.11
546.478	5.1
546.821	5.13
547.165	5.16
547.508	5.18
547.851	5.16
548.194	5.18
548.536	5.19
548.879	5.18
549.222	5.18
549.565	5.15
549.908	5.15
550.25	5.13
550.593	5.12
550.936	5.12
551.278	5.12
551.621	5.09
551.963	5.11
552.306	5.1
552.648	5.1
552.991	5.1
553.333	5.13
553.675	5.13
554.017	5.1
554.36	5.07
554.702	5.04
555.044	5.09
555.386	5.09
555.728	5.1
556.07	5.1
556.412	5.1
556.754	5.08
557.096	5.09
557.438	5.1
557.78	5.11
558.121	5.14
558.463	5.14
558.805	5.18
559.147	5.19
559.488	5.19
559.83	5.22
560.171	5.22
560.513	5.2
560.854	5.22
561.196	5.24
561.537	5.22
561.878	5.24
562.22	5.22
562.561	5.22
562.902	5.21
563.243	5.25
563.584	5.27
563.925	5.35
564.266	5.35
564.607	5.35
564.948	5.37
565.289	5.35
565.63	5.33
565.971	5.31
566.312	5.28
566.653	5.29
566.993	5.26
567.334	5.29
567.675	5.29
568.015	5.27
568.356	5.26
568.696	5.29
569.037	5.3
569.377	5.31
569.718	5.27
570.058	5.29
570.398	5.27
570.739	5.27
571.079	5.21
571.419	5.2
571.759	5.2
572.099	5.15
572.439	5.15
572.779	5.17
573.119	5.18
573.459	5.22
573.799	5.22
574.139	5.2
574.479	5.18
574.819	5.17
575.158	5.18
575.498	5.18
575.838	5.18
576.177	5.19
576.517	5.18
576.856	5.21
577.196	5.21
577.535	5.19
577.875	5.22
578.214	5.26
578.553	5.23
578.893	5.25
579.232	5.28
579.571	5.31
579.91	5.33
580.25	5.34
580.589	5.33
580.928	5.31
581.267	5.34
581.606	5.35
581.945	5.37
582.283	5.39
582.622	5.39
582.961	5.42
583.3	5.42
583.639	5.43
583.977	5.42
584.316	5.41
584.654	5.46
584.993	5.45
585.332	5.46
585.67	5.52
586.008	5.51
586.347	5.54
586.685	5.48
587.024	5.45
587.362	5.47
587.7	5.48
588.038	5.52
588.376	5.53
588.715	5.55
589.053	5.54
589.391	5.5
589.729	5.51
590.067	5.47
590.404	5.45
590.742	5.43
591.08	5.48
591.418	5.5
591.756	5.49
592.093	5.47
592.431	5.41
592.769	5.4
593.106	5.41
593.444	5.42
593.781	5.46
594.119	5.47
594.456	5.46
594.793	5.44
595.131	5.45
595.468	5.48
595.805	5.49
596.143	5.53
596.48	5.56
596.817	5.58
597.154	5.61
597.491	5.58
597.828	5.6
598.165	5.58
598.502	5.55
598.839	5.57
599.176	5.61
599.512	5.63
599.849	5.64
600.186	5.62
600.523	5.58
600.859	5.56
601.196	5.59
601.532	5.56
601.869	5.58
602.205	5.56
602.542	5.52
602.878	5.52
603.215	5.49
603.551	5.47
603.887	5.43
604.223	5.43
604.56	5.49
604.896	5.52
605.232	5.5
605.568	5.57
605.904	5.54
606.24	5.54
606.576	5.57
606.912	5.58
607.248	5.63
607.583	5.63
607.919	5.66
608.255	5.63
608.591	5.65
608.926	5.61
609.262	5.61
609.597	5.59
609.933	5.58
610.268	5.61
610.604	5.64
610.939	5.68
611.275	5.67
611.61	5.65
611.945	5.6
612.281	5.62
612.616	5.58
612.951	5.62
613.286	5.63
613.621	5.67
613.956	5.7
614.291	5.64
614.626	5.66
614.961	5.67
615.296	5.63
615.631	5.66
615.966	5.69
616.3	5.73
616.635	5.72
616.97	5.71
617.304	5.7
617.639	5.73
617.973	5.73
618.308	5.71
618.642	5.72
618.977	5.75
619.311	5.77
619.646	5.76
619.98	5.72
620.314	5.7
620.648	5.65
620.983	5.66
621.317	5.72
621.651	5.68
621.985	5.65
622.319	5.68
622.653	5.71
622.987	5.74
623.321	5.74
623.655	5.77
623.988	5.75
624.322	5.76
624.656	5.75
624.99	5.77
625.323	5.79
625.657	5.8
625.99	5.79
626.324	5.81
626.657	5.81
626.991	5.83
627.324	5.79
627.658	5.8
627.991	5.76
628.324	5.72
628.657	5.71
628.991	5.8
629.324	5.76
629.657	5.71
629.99	5.69
630.323	5.7
630.656	5.73
630.989	5.74
631.322	5.75
631.655	5.71
631.987	5.66
632.32	5.68
632.653	5.69
632.986	5.72
633.318	5.73
633.651	5.73
633.984	5.73
634.316	5.79
634.649	5.75
634.981	5.74
635.313	5.8
635.646	5.87
635.978	5.89
636.31	5.95
636.643	5.93
636.975	5.98
637.307	5.96
637.639	5.96
637.971	5.96
638.303	5.93
638.635	5.96
638.967	5.98
639.299	6.01
639.631	5.98
639.963	5.89
640.295	5.87
640.626	5.88
640.958	5.92
641.29	5.94
641.621	6
641.953	5.99
642.285	6
642.616	5.97
642.948	5.93
643.279	5.94
643.61	6.02
643.942	5.98
644.273	6.02
644.604	5.98
644.936	5.99
645.267	5.98
645.598	5.92
645.929	5.92
646.26	5.83
646.591	5.8
646.922	5.85
647.253	5.85
647.584	5.78
647.915	5.75
648.245	5.69
648.576	5.7
648.907	5.73
649.238	5.67
649.568	5.65
649.899	5.65
650.229	5.64
650.56	5.58
650.89	5.69
651.221	5.68
651.551	5.72
651.882	5.74
652.212	5.81
652.542	5.89
652.872	5.9
653.203	5.92
653.533	5.96
653.863	5.98
654.193	5.93
654.523	6.01
654.853	6.04
655.183	6.07
655.513	6.07
655.843	6.13
656.172	6.18
656.502	6.18
656.832	6.16
657.162	6.22
657.491	6.32
657.821	6.23
658.15	6.23
658.48	6.25
658.809	6.24
659.139	6.21
659.468	6.2
659.798	6.25
660.127	6.32
660.456	6.3
660.785	6.3
661.115	6.35
661.444	6.32
661.773	6.37
662.102	6.37
662.431	6.36
662.76	6.35
663.089	6.39
663.418	6.47
663.747	6.48
664.076	6.48
664.404	6.46
664.733	6.49
665.062	6.51
665.39	6.41
665.719	6.44
666.048	6.47
666.376	6.49
666.705	6.41
667.033	6.33
667.362	6.31
667.69	6.27
668.018	6.25
668.347	6.28
668.675	6.22
669.003	6.22
669.331	6.24
669.659	6.17
669.987	6.19
670.315	6.17
670.643	6.1
670.971	5.99
671.299	5.98
671.627	5.94
671.955	5.93
672.283	5.97
672.61	5.93
672.938	5.92
673.266	5.93
673.593	5.94
673.921	6.01
674.249	6.04
674.576	6.16
674.904	6.23
675.231	6.25
675.558	6.26
675.886	6.27
676.213	6.21
676.54	6.26
676.867	6.19
677.195	6.19
677.522	6.22
677.849	6.29
678.176	6.22
678.503	6.19
678.83	6.21
679.157	6.29
679.484	6.35
679.81	6.35
680.137	6.35
680.464	6.36
680.791	6.35
681.117	6.37
681.444	6.28
681.771	6.26
682.097	6.28
682.424	6.24
682.75	6.23
683.077	6.34
683.403	6.37
683.729	6.35
684.056	6.27
684.382	6.32
684.708	6.34
685.034	6.37
685.36	6.42
685.686	6.31
686.012	6.28
686.339	6.28
686.664	6.36
686.99	6.37
687.316	6.37
687.642	6.4
687.968	6.47
688.294	6.6
688.619	6.5
688.945	6.5
689.271	6.54
689.596	6.54
689.922	6.57
690.247	6.51
690.573	6.49
690.898	6.61
691.224	6.58
691.549	6.59
691.874	6.5
692.2	6.53
692.525	6.58
692.85	6.58
693.175	6.51
693.5	6.45
693.825	6.42
694.15	6.41
694.475	6.37
694.8	6.38
695.125	6.21
695.45	6.26
695.775	6.25
696.099	6.31
696.424	6.33
696.749	6.3
697.073	6.35
697.398	6.53
697.723	6.5
698.047	6.64
698.372	6.56
698.696	6.68
699.02	6.71
699.345	6.66
699.669	6.65
699.993	6.67
700.318	6.69
700.642	6.63
700.966	6.54
701.29	6.58
701.614	6.54
701.938	6.67
702.262	6.64
702.586	6.63
702.91	6.66
703.234	6.7
703.557	6.72
703.881	6.83
704.205	6.67
704.529	6.66
704.852	6.5
705.176	6.61
705.499	6.54
705.823	6.54
706.146	6.69
706.47	6.75
706.793	6.88
707.117	6.8
707.44	6.9
707.763	7.07
708.086	7.01
708.409	7.01
708.733	6.88
709.056	7.02
709.379	7.06
709.702	7.09
710.025	7.15
710.348	7.09
710.671	6.96
710.993	6.91
711.316	7.05
711.639	7.07
711.962	7.06
712.284	7.09
712.607	7.03
712.93	7.03
713.252	6.97
713.575	6.95
713.897	6.98
714.22	6.99
714.542	7.09
714.864	7.01
715.187	7.05
715.509	7.22
715.831	7.11
716.153	7.11
716.475	6.95
716.798	6.84
717.12	6.82
717.442	6.9
717.764	6.87
718.085	6.93
718.407	7
718.729	6.92
719.051	6.99
719.373	7.02
719.695	6.97
720.016	6.84
720.338	6.87
720.659	6.88
720.981	6.9
721.302	6.84
721.624	6.83
721.945	6.84
722.267	6.92
722.588	6.91
722.909	7.06
723.231	7.13
723.552	7.18
723.873	7.26
724.194	7.11
724.515	7.28
724.836	6.98
725.157	7.05
725.478	7.26
725.799	7.32
726.12	7.48
726.441	7.47
726.762	7.59
727.083	7.51
727.403	7.52
727.724	7.61
728.045	7.7
728.365	7.94
728.686	7.92
729.006	7.66
729.327	7.8
729.647	7.76
729.967	7.73
730.288	7.78
730.608	7.74
730.928	8.09
731.249	8.06
731.569	8.07
731.889	8.05
732.209	7.92
732.529	7.89
732.849	7.7
733.169	7.78
733.489	7.72
733.809	7.73
734.129	7.77
734.448	7.54
734.768	7.59
735.088	7.42
735.408	7.27
735.727	7.49
736.047	7.5
736.366	7.43
736.686	7.43
737.005	7.45
737.325	7.45
737.644	7.17
737.963	7.1
738.283	6.98
738.602	6.99
738.921	7.01
739.24	7.04
739.56	7.29
739.879	7.26
740.198	7.18
740.517	7.13
740.836	7.24
741.155	7.36
741.473	7.13
741.792	7.23
742.111	7.47
742.43	7.51
742.748	7.63
743.067	7.56
743.386	7.54
743.704	7.55
744.023	7.81
744.341	7.95
744.66	7.99
744.978	8.29
745.297	8.27
745.615	8.38
745.933	8.4
746.252	8.38
746.57	8.4
746.888	8.87
747.206	9.01
747.524	8.84
747.842	8.89
748.16	9.2
748.478	9.43
748.796	9.41
749.114	9.14
749.432	9.21
749.749	9.28
750.067	9.33
750.385	9.26
750.703	9.03
751.02	9.09
751.338	8.97
751.655	8.85
751.973	8.79
752.29	8.58
752.608	8.52
752.925	8.5
753.242	8.7
753.56	8.28
753.877	8.15
754.194	8.5
754.511	8.57
754.828	8.24
755.145	7.98
755.462	7.8
755.779	7.68
756.096	7.64
756.413	7.74
756.73	7.92
757.047	7.84
757.364	7.96
757.68	7.64
757.997	8.04
758.314	8.28
758.63	8.34
758.947	8.76
759.264	8.82
759.58	8.83
759.896	8.77
760.213	8.96
760.529	9.07
760.846	8.66
761.162	8.55
761.478	8.39
761.794	8.48
762.11	8.63
762.426	8.83
762.743	8.72
763.059	8.73
763.375	8.59
763.69	8.66
764.006	8.54
764.322	8.61
764.638	8.6
764.954	8.68
765.27	8.71
765.585	8.67
765.901	8.5
766.216	8.26
766.532	8.3
766.848	8.13
767.163	8.04
767.478	8.28
767.794	8.32
768.109	8.43
768.424	8.36
768.74	8.21
769.055	8.28
769.37	8.15
769.685	7.96
770	8.04
770.315	8.12
770.63	8.27
770.945	8.51
771.26	8.39
771.575	8.04
771.89	8.17
772.205	8.18
772.52	8.27
772.834	8.57
773.149	8.42
773.464	8.96
773.778	9.16
774.093	9.22
774.407	9.45
774.722	9.83
775.036	9.93
775.351	10.14
775.665	10.46
775.979	10.5
776.293	10.94
776.608	10.91
776.922	10.73
777.236	10.62
777.55	10.22
777.864	10.18
778.178	10.41
778.492	9.99
778.806	9.96
779.12	10.39
779.434	10.74
779.747	11.01
780.061	11
780.375	11.03
780.689	11.24
781.002	11
781.316	10.99
781.629	11.27
781.943	11.35
782.256	10.99
782.57	11.25
782.883	11.19
783.196	11.38
783.51	11.25
783.823	11.02
784.136	11.5
784.449	11.56
784.762	11.38
785.075	11.8
785.388	11.57
785.701	11.31
786.014	11.41
786.327	11.17
786.64	10.7
786.953	10.81
787.266	10.4
787.578	10.14
787.891	10.27
788.204	9.76
788.516	9.7
788.829	9.39
789.141	9.59
789.454	9.38
789.766	9.29
790.079	9.36
790.391	9.53
790.703	9.32
791.016	9.44
791.328	9.47
791.64	9.38
791.952	9.56
792.264	9.37
792.576	9.18
792.888	9.21
793.2	9.67
793.512	9.48
793.824	9.73
794.136	10.19
794.448	9.91
794.76	9.98
795.071	9.84
795.383	10.32
795.695	10.09
796.006	10.18
796.318	10.22
796.629	10.87
796.941	11.18
797.252	11.47
797.564	11.44
797.875	11.52
798.186	11.54
798.497	11.14
798.809	11.25
799.12	10.69
799.431	10.82
799.742	10.19
800.053	10.2
800.364	10.47
800.675	10.64
800.986	11.05
801.297	10.8
801.608	10.54
801.918	10.19
802.229	10.22
802.54	10.08
802.851	9.96
803.161	9.44
803.472	8.9
803.782	8.87
804.093	8.4
804.403	8.22
804.714	8.29
805.024	8.52
805.334	8.35
805.645	9.03
805.955	9.39
806.265	9.76
806.575	9.5
806.885	9.75
807.195	9.43
807.505	9.19
807.815	9.97
808.125	10.44
808.435	10.67
808.745	10.05
809.055	10.01
809.365	10.43
809.674	10.42
809.984	11.18
810.294	11.38
810.603	11.76
810.913	11.9
811.222	11.3
811.532	11.84
811.841	12.92
812.151	12.4
812.46	12.13
812.769	11.77
813.079	12.09
813.388	10.85
813.697	10.08
814.006	10.14
814.315	10.08
814.624	9.51
814.933	9.83
815.242	9.97
815.551	10.47
815.86	10.38
816.169	10.11
816.478	9.83
816.786	8.93
817.095	8.92
817.404	9.03
817.712	9.33
818.021	9.05
818.33	8.09
818.638	8.75
818.947	8.79
819.255	9.3
819.563	8.97
819.872	9.22
820.18	9.81
820.488	9.89
820.796	9.66
821.105	9.88
821.413	10.07
821.721	10.39
822.029	10.25
822.337	10.27
822.645	10.35
822.953	10.21
823.26	10.47
823.568	10.4
823.876	10.31
824.184	10.3
824.491	10.31
824.799	10.52
825.107	10.47
825.414	10.37
825.722	10.31
826.029	10.56
826.337	10.69
826.644	10.63
826.951	10.65
827.259	10.98
827.566	11.3
827.873	11.08
828.18	11.01
828.488	11.04
828.795	11.13
829.102	11.12
829.409	11.14
829.716	10.9
830.023	11.05
830.329	11.23
830.636	11.18
830.943	11.16
831.25	11.1
831.557	10.84
831.863	11.15
832.17	11.27
832.476	11.38
832.783	11.35
833.089	11.21
833.396	11.21
833.702	10.95
834.009	10.47
834.315	10.71
834.621	10.46
834.928	10.68
835.234	10.09
835.54	10.12
835.846	10.64
836.152	10.9
836.458	10.91
836.764	11.08
837.07	11.46
837.376	11.69
837.682	11.53
837.988	11.94
838.293	11.73
838.599	11.74
838.905	11.83
839.211	11.84
839.516	11.74
839.822	12.37
840.127	12.2
840.433	12.37
840.738	12.14
841.044	12.48
841.349	12.54
841.654	12.79
841.959	13.42
842.265	13.86
842.57	14.17
842.875	14.45
843.18	14.4
843.485	14.44
843.79	14.32
844.095	13.87
844.4	13.87
844.705	14.93
845.01	15.63
845.315	15.47
845.619	16.17
845.924	15.91
846.229	15.42
846.533	16.93
846.838	16.48
847.142	15.28
847.447	15.66
847.751	16.36
848.056	17.31
848.36	16.59
848.664	15.42
848.969	14.94
849.273	14.19
849.577	14.34
849.881	14.42
850.185	14.66
850.489	15.35
850.794	16.17
851.097	16.37
851.401	14.96
851.705	15.12
852.009	14.27
852.313	14.97
852.617	14.05
852.92	12.27
853.224	12.8
853.528	14.28
853.831	14.98
854.135	13.32
854.438	14.04
854.742	15.02
855.045	14.52
855.349	14.04
855.652	15.97
855.955	17.77
856.259	16.63
856.562	15.94
856.865	16.9
857.168	15.22
857.471	13.78
857.774	16.3
858.077	15.84
858.38	15.5
858.683	17.79
858.986	19.49
859.289	18.57
859.592	21.18
859.894	22.71
860.197	23.29
860.5	23.91
860.802	24.52
861.105	24.88
861.407	25.78
861.71	24.13
862.012	23.75
862.315	22.9
862.617	24.03
862.919	24.93
863.222	25.33
863.524	25.65
863.826	26.05
864.128	23.63
864.43	24.93
864.732	24.55
865.034	21.66
865.336	20.28
865.638	21.83
865.94	19.29
866.242	18.48
866.544	19.79
866.846	21.14
867.147	23.9
867.449	24.48
867.751	23.32
868.052	24.8
868.354	25.31
868.655	23.76
868.957	22.75
869.258	21.69
869.56	20.01
869.861	20.7
870.162	19.13
870.463	17.57
870.765	16.7
871.066	16.46
871.367	19.48
871.668	19.69
871.969	20.53
872.27	20.76
872.571	21.92
872.872	18.92
873.173	16.47
873.473	12.71
873.774	10.46
874.075	11.32
874.376	11.22
874.676	9.09
874.977	9.94
875.277	8.6
875.578	10.27
875.878	10.9
876.179	9.73
876.479	11.25
876.78	13.83
877.08	12.32
877.38	13.36
877.68	12.5
877.981	11.86
878.281	10.03
878.581	9.26
