Data from BU57650_Reflection_00005.txt Node
Date: Tue Nov 19 11:01:18 EST 2019
User: vgr7
Spectrometer: USB2G7710
Scans to average: 3
Trigger mode: 4
Integration Time (sec): 2.000000E-2
Electric dark correction enabled: true
Boxcar width: 10
XAxis mode: Wavelengths
Number of Pixels in Spectrum: 2048
>>>>>Begin Spectral Data<<<<<
177.721	-3.45
178.105	2.6
178.488	324.3
178.871	156.76
179.254	120.69
179.636	46.43
180.019	502.06
180.402	236.36
180.785	-265.22
181.168	-96.26
181.55	-269.86
181.933	3.59
182.316	2.81
182.698	114.25
183.081	5671.43
183.463	194.86
183.846	174.79
184.228	540.37
184.611	-244.95
184.993	-128.1
185.376	-92.62
185.758	-45.2
186.14	-58.55
186.522	-82.29
186.904	-95.27
187.287	-104.27
187.669	-41.48
188.051	-75.15
188.433	-69.5
188.815	-72.9
189.197	-61.9
189.579	-62.7
189.961	-48.61
190.342	-47.25
190.724	-41.02
191.106	-44.19
191.488	-46.21
191.869	-47.52
192.251	-46.49
192.633	-47.96
193.014	-44.68
193.396	-42.51
193.777	-34.62
194.159	-31.92
194.54	-25.53
194.922	-32.15
195.303	-35.94
195.684	-37.03
196.065	-36.85
196.447	-26.93
196.828	-30.87
197.209	-31.91
197.59	-28.26
197.971	-27.75
198.352	-22.38
198.733	-27.51
199.114	-24.41
199.495	-14.76
199.876	-8.85
200.257	-13.21
200.638	-16.98
201.018	-16.23
201.399	-17.08
201.78	-22.68
202.16	-26.37
202.541	-32.73
202.922	-34.02
203.302	-36.8
203.683	-50.28
204.063	-41.59
204.444	-42.74
204.824	-34.26
205.204	-30.43
205.585	-37.26
205.965	-52.33
206.345	-62
206.725	-44.96
207.106	-44.01
207.486	-52.52
207.866	-40.82
208.246	-21.74
208.626	-32.69
209.006	-31.04
209.386	-33.51
209.766	-40.15
210.145	-38.16
210.525	-41.68
210.905	-35.1
211.285	-27.95
211.664	-20.5
212.044	-28.2
212.424	-34.36
212.803	-35.25
213.183	-47.77
213.562	-50.62
213.942	-36.33
214.321	-33.04
214.701	-39.83
215.08	-41.48
215.459	-33.2
215.838	-47.95
216.218	-62.04
216.597	-47.71
216.976	-68.53
217.355	-62.16
217.734	-54.6
218.113	-41.81
218.492	-38.83
218.871	-34.66
219.25	-37.36
219.629	-31.86
220.008	-17.31
220.387	-11.65
220.766	-9.19
221.144	3.1
221.523	2.88
221.902	1.77
222.28	1.5
222.659	-0.72
223.037	-1.72
223.416	-4.42
223.794	0.65
224.173	-4.12
224.551	-6.17
224.929	-0.23
225.308	2.48
225.686	1.8
226.064	-4.33
226.442	-1.21
226.821	-0.71
227.199	-0.94
227.577	-3.8
227.955	-2.18
228.333	-4.96
228.711	-5.43
229.089	-8.83
229.467	-9.13
229.845	-13.48
230.222	-12.29
230.6	-9.79
230.978	-8.57
231.356	-8.24
231.733	-7.54
232.111	-6.9
232.488	-5.52
232.866	-5.23
233.243	-7.18
233.621	-5.75
233.998	-4.27
234.376	-5.55
234.753	-7.64
235.13	-8.33
235.508	-7.86
235.885	-8.01
236.262	-5.75
236.639	-5.19
237.016	-4.6
237.393	-2.34
237.77	-0.11
238.147	-0.86
238.524	-0.86
238.901	-0.26
239.278	-0.31
239.655	-0.21
240.032	0.69
240.409	1.03
240.785	0.76
241.162	0.99
241.539	0.46
241.915	0.77
242.292	1.55
242.668	2.2
243.045	3.4
243.421	3.72
243.798	3.69
244.174	3.82
244.551	3.94
244.927	4.14
245.303	3.87
245.679	3.84
246.056	4.09
246.432	4.02
246.808	4.02
247.184	4.03
247.56	3.73
247.936	3.7
248.312	3.79
248.688	4.06
249.064	4.08
249.44	4.13
249.815	4.04
250.191	4.26
250.567	4.15
250.943	3.9
251.318	3.62
251.694	3.33
252.069	3.25
252.445	3.3
252.82	3.07
253.196	3.33
253.571	3.3
253.947	3.29
254.322	3.11
254.697	3.04
255.073	2.72
255.448	3.03
255.823	3.01
256.198	3.02
256.573	2.88
256.948	3
257.323	3.29
257.698	3.38
258.073	3.22
258.448	3.31
258.823	3.31
259.198	3.51
259.573	3.51
259.948	3.66
260.322	3.52
260.697	3.57
261.072	3.57
261.446	3.61
261.821	3.48
262.195	3.53
262.57	3.57
262.944	3.75
263.319	3.76
263.693	3.91
264.067	3.93
264.442	3.83
264.816	3.9
265.19	3.81
265.564	3.81
265.938	3.65
266.313	3.55
266.687	3.49
267.061	3.28
267.435	3.37
267.809	3.11
268.183	3.05
268.556	3.07
268.93	3.12
269.304	3.01
269.678	3.18
270.051	3.31
270.425	3.29
270.799	3.27
271.172	3.28
271.546	3.23
271.919	3.1
272.293	3.23
272.666	3.21
273.04	3.12
273.413	3.11
273.787	3.31
274.16	3.37
274.533	3.46
274.906	3.65
275.279	3.71
275.653	3.75
276.026	4.02
276.399	3.91
276.772	3.82
277.145	3.94
277.518	3.86
277.891	3.82
278.263	3.73
278.636	3.76
279.009	3.76
279.382	3.76
279.755	3.94
280.127	3.91
280.5	4.08
280.872	4.17
281.245	4.27
281.617	4.29
281.99	4.31
282.362	4.25
282.735	4.25
283.107	4.3
283.479	4.22
283.852	4.15
284.224	4.31
284.596	4.13
284.968	4.08
285.34	4.11
285.713	4.2
286.085	4.2
286.457	4.18
286.829	4.17
287.201	4.15
287.572	4.02
287.944	4.05
288.316	3.88
288.688	3.87
289.06	3.83
289.431	3.77
289.803	3.89
290.175	3.77
290.546	3.74
290.918	3.58
291.289	3.71
291.661	3.68
292.032	3.66
292.403	3.73
292.775	3.79
293.146	3.85
293.517	3.7
293.889	3.65
294.26	3.76
294.631	3.79
295.002	3.83
295.373	3.96
295.744	3.95
296.115	4.04
296.486	4.03
296.857	4.05
297.228	3.97
297.599	3.86
297.97	4
298.34	3.92
298.711	4.14
299.082	4.05
299.452	3.99
299.823	4.02
300.194	4.14
300.564	4.14
300.935	4.08
301.305	4.12
301.676	4.1
302.046	4.14
302.416	3.99
302.787	3.98
303.157	3.92
303.527	4.03
303.897	3.86
304.267	3.88
304.637	3.85
305.008	3.83
305.378	3.89
305.748	3.92
306.117	3.97
306.487	3.8
306.857	3.9
307.227	4.05
307.597	3.97
307.967	3.9
308.336	3.87
308.706	3.98
309.076	4.09
309.445	4.18
309.815	4.11
310.184	4.22
310.554	4.24
310.923	4.1
311.293	4.07
311.662	4.12
312.031	4.24
312.401	4.2
312.77	4.16
313.139	3.98
313.508	3.87
313.877	3.81
314.246	3.85
314.616	3.8
314.985	3.69
315.353	3.8
315.722	3.87
316.091	3.91
316.46	3.72
316.829	3.73
317.198	3.64
317.567	3.57
317.935	3.47
318.304	3.54
318.672	3.7
319.041	3.7
319.41	3.85
319.778	3.74
320.147	3.79
320.515	3.82
320.883	4.05
321.252	4.06
321.62	4
321.988	3.96
322.357	4.01
322.725	3.97
323.093	3.85
323.461	3.8
323.829	3.85
324.197	3.98
324.565	3.94
324.933	3.95
325.301	3.93
325.669	4.01
326.037	3.9
326.405	3.87
326.772	3.88
327.14	3.72
327.508	3.66
327.875	3.61
328.243	3.66
328.61	3.59
328.978	3.46
329.346	3.48
329.713	3.41
330.08	3.5
330.448	3.6
330.815	3.66
331.182	3.72
331.55	3.55
331.917	3.49
332.284	3.52
332.651	3.54
333.018	3.68
333.385	3.72
333.752	3.68
334.119	3.59
334.486	3.47
334.853	3.55
335.22	3.54
335.587	3.51
335.954	3.38
336.32	3.36
336.687	3.45
337.054	3.48
337.42	3.58
337.787	3.42
338.153	3.43
338.52	3.41
338.886	3.27
339.253	3.27
339.619	3.38
339.986	3.29
340.352	3.34
340.718	3.29
341.084	3.27
341.451	3.46
341.817	3.62
342.183	3.67
342.549	3.66
342.915	3.71
343.281	3.74
343.647	3.81
344.013	3.74
344.379	3.82
344.745	3.84
345.11	3.94
345.476	4.01
345.842	3.98
346.208	3.96
346.573	4.11
346.939	4.17
347.304	4.1
347.67	4.08
348.035	4.01
348.401	4.02
348.766	4
349.132	3.95
349.497	3.85
349.862	3.92
350.228	3.94
350.593	3.9
350.958	3.93
351.323	3.86
351.688	4.01
352.053	4
352.418	4.03
352.783	3.94
353.148	3.9
353.513	3.78
353.878	3.72
354.243	3.57
354.608	3.64
354.972	3.64
355.337	3.67
355.702	3.71
356.066	3.66
356.431	3.72
356.795	3.66
357.16	3.66
357.524	3.65
357.889	3.66
358.253	3.72
358.618	3.64
358.982	3.71
359.346	3.7
359.71	3.7
360.075	3.76
360.439	3.8
360.803	3.81
361.167	3.87
361.531	3.9
361.895	3.94
362.259	3.95
362.623	3.99
362.987	4.02
363.351	3.98
363.714	4.01
364.078	3.98
364.442	4.01
364.806	4
365.169	3.99
365.533	3.97
365.896	3.94
366.26	3.97
366.623	3.96
366.987	3.94
367.35	3.93
367.714	3.83
368.077	3.75
368.44	3.74
368.803	3.76
369.167	3.81
369.53	3.81
369.893	3.69
370.256	3.53
370.619	3.51
370.982	3.51
371.345	3.53
371.708	3.54
372.071	3.49
372.434	3.49
372.797	3.5
373.159	3.5
373.522	3.51
373.885	3.54
374.247	3.55
374.61	3.57
374.973	3.58
375.335	3.59
375.698	3.6
376.06	3.58
376.423	3.53
376.785	3.49
377.147	3.51
377.51	3.53
377.872	3.66
378.234	3.69
378.596	3.7
378.958	3.62
379.321	3.58
379.683	3.61
380.045	3.65
380.407	3.66
380.769	3.62
381.13	3.61
381.492	3.57
381.854	3.54
382.216	3.56
382.578	3.57
382.939	3.55
383.301	3.52
383.663	3.54
384.024	3.54
384.386	3.56
384.747	3.51
385.109	3.5
385.47	3.54
385.832	3.49
386.193	3.52
386.554	3.54
386.916	3.56
387.277	3.51
387.638	3.49
387.999	3.47
388.36	3.49
388.721	3.5
389.082	3.55
389.443	3.54
389.804	3.5
390.165	3.47
390.526	3.48
390.887	3.47
391.248	3.5
391.609	3.54
391.969	3.51
392.33	3.52
392.691	3.52
393.051	3.48
393.412	3.49
393.772	3.44
394.133	3.46
394.493	3.45
394.854	3.48
395.214	3.49
395.574	3.5
395.935	3.48
396.295	3.48
396.655	3.43
397.015	3.44
397.376	3.44
397.736	3.44
398.096	3.42
398.456	3.43
398.816	3.4
399.176	3.38
399.535	3.39
399.895	3.38
400.255	3.4
400.615	3.41
400.975	3.39
401.334	3.41
401.694	3.4
402.054	3.44
402.413	3.44
402.773	3.41
403.132	3.38
403.492	3.4
403.851	3.39
404.211	3.43
404.57	3.45
404.929	3.44
405.288	3.47
405.648	3.47
406.007	3.49
406.366	3.48
406.725	3.48
407.084	3.48
407.443	3.48
407.802	3.48
408.161	3.48
408.52	3.49
408.879	3.49
409.238	3.49
409.596	3.47
409.955	3.45
410.314	3.45
410.673	3.46
411.031	3.46
411.39	3.45
411.748	3.43
412.107	3.4
412.465	3.41
412.824	3.39
413.182	3.41
413.54	3.43
413.899	3.45
414.257	3.44
414.615	3.44
414.974	3.46
415.332	3.46
415.69	3.42
416.048	3.41
416.406	3.4
416.764	3.41
417.122	3.41
417.48	3.42
417.838	3.41
418.195	3.41
418.553	3.4
418.911	3.39
419.269	3.4
419.626	3.39
419.984	3.38
420.342	3.39
420.699	3.38
421.057	3.38
421.414	3.38
421.772	3.38
422.129	3.37
422.486	3.36
422.844	3.36
423.201	3.38
423.558	3.38
423.915	3.38
424.273	3.39
424.63	3.38
424.987	3.38
425.344	3.39
425.701	3.38
426.058	3.39
426.415	3.4
426.772	3.4
427.128	3.42
427.485	3.42
427.842	3.39
428.199	3.4
428.555	3.37
428.912	3.34
429.269	3.35
429.625	3.36
429.982	3.36
430.338	3.35
430.695	3.34
431.051	3.34
431.407	3.33
431.764	3.32
432.12	3.34
432.476	3.33
432.832	3.32
433.189	3.32
433.545	3.32
433.901	3.3
434.257	3.29
434.613	3.29
434.969	3.29
435.325	3.33
435.681	3.32
436.036	3.33
436.392	3.35
436.748	3.36
437.104	3.36
437.459	3.35
437.815	3.35
438.171	3.35
438.526	3.34
438.882	3.34
439.237	3.34
439.593	3.34
439.948	3.35
440.304	3.35
440.659	3.35
441.014	3.35
441.369	3.37
441.725	3.37
442.08	3.37
442.435	3.36
442.79	3.34
443.145	3.34
443.5	3.34
443.855	3.32
444.21	3.3
444.565	3.31
444.92	3.31
445.275	3.31
445.629	3.32
445.984	3.32
446.339	3.33
446.693	3.31
447.048	3.3
447.403	3.3
447.757	3.3
448.112	3.3
448.466	3.29
448.82	3.28
449.175	3.28
449.529	3.27
449.883	3.27
450.238	3.27
450.592	3.26
450.946	3.25
451.3	3.27
451.654	3.27
452.008	3.26
452.362	3.25
452.716	3.24
453.07	3.24
453.424	3.24
453.778	3.24
454.132	3.25
454.486	3.26
454.839	3.25
455.193	3.24
455.547	3.24
455.9	3.25
456.254	3.27
456.607	3.27
456.961	3.26
457.314	3.27
457.668	3.27
458.021	3.28
458.375	3.27
458.728	3.28
459.081	3.28
459.434	3.28
459.787	3.29
460.141	3.29
460.494	3.3
460.847	3.3
461.2	3.3
461.553	3.3
461.906	3.28
462.259	3.27
462.611	3.27
462.964	3.29
463.317	3.27
463.67	3.27
464.022	3.27
464.375	3.26
464.728	3.26
465.08	3.26
465.433	3.27
465.785	3.29
466.138	3.3
466.49	3.29
466.843	3.32
467.195	3.33
467.547	3.34
467.899	3.34
468.252	3.34
468.604	3.33
468.956	3.33
469.308	3.35
469.66	3.35
470.012	3.37
470.364	3.35
470.716	3.36
471.068	3.35
471.42	3.35
471.772	3.37
472.123	3.38
472.475	3.4
472.827	3.39
473.178	3.4
473.53	3.4
473.882	3.4
474.233	3.38
474.585	3.38
474.936	3.38
475.288	3.37
475.639	3.39
475.99	3.39
476.342	3.4
476.693	3.39
477.044	3.42
477.395	3.39
477.746	3.4
478.097	3.41
478.448	3.43
478.8	3.42
479.15	3.42
479.501	3.42
479.852	3.43
480.203	3.44
480.554	3.44
480.905	3.44
481.255	3.45
481.606	3.45
481.957	3.45
482.307	3.45
482.658	3.45
483.009	3.44
483.359	3.45
483.709	3.45
484.06	3.45
484.41	3.44
484.761	3.44
485.111	3.44
485.461	3.43
485.811	3.43
486.162	3.44
486.512	3.44
486.862	3.44
487.212	3.42
487.562	3.41
487.912	3.41
488.262	3.4
488.612	3.4
488.961	3.4
489.311	3.39
489.661	3.39
490.011	3.39
490.36	3.39
490.71	3.38
491.06	3.38
491.409	3.38
491.759	3.38
492.108	3.37
492.458	3.38
492.807	3.39
493.157	3.39
493.506	3.37
493.855	3.37
494.204	3.36
494.554	3.36
494.903	3.36
495.252	3.33
495.601	3.34
495.95	3.33
496.299	3.34
496.648	3.33
496.997	3.33
497.346	3.33
497.695	3.34
498.043	3.36
498.392	3.36
498.741	3.38
499.09	3.39
499.438	3.41
499.787	3.41
500.135	3.39
500.484	3.39
500.832	3.39
501.181	3.4
501.529	3.43
501.878	3.44
502.226	3.45
502.574	3.48
502.923	3.46
503.271	3.46
503.619	3.47
503.967	3.48
504.315	3.48
504.663	3.5
505.011	3.48
505.359	3.46
505.707	3.46
506.055	3.49
506.403	3.5
506.751	3.51
507.098	3.52
507.446	3.54
507.794	3.55
508.141	3.56
508.489	3.56
508.837	3.55
509.184	3.54
509.531	3.56
509.879	3.58
510.226	3.59
510.574	3.61
510.921	3.58
511.268	3.6
511.616	3.63
511.963	3.64
512.31	3.64
512.657	3.65
513.004	3.65
513.351	3.66
513.698	3.66
514.045	3.66
514.392	3.68
514.739	3.68
515.086	3.69
515.432	3.7
515.779	3.71
516.126	3.73
516.473	3.73
516.819	3.74
517.166	3.75
517.512	3.76
517.859	3.76
518.205	3.8
518.552	3.81
518.898	3.8
519.245	3.8
519.591	3.83
519.937	3.84
520.283	3.86
520.629	3.84
520.976	3.85
521.322	3.87
521.668	3.87
522.014	3.89
522.36	3.89
522.706	3.9
523.052	3.9
523.398	3.91
523.743	3.91
524.089	3.91
524.435	3.92
524.781	3.93
525.126	3.95
525.472	3.96
525.817	3.94
526.163	3.95
526.509	3.95
526.854	3.95
527.199	3.96
527.545	3.96
527.89	3.96
528.235	3.96
528.581	3.97
528.926	3.97
529.271	3.96
529.616	3.96
529.961	3.97
530.306	3.98
530.651	3.98
530.996	4
531.341	4.01
531.686	4
532.031	4
532.376	3.99
532.721	3.98
533.065	3.99
533.41	3.99
533.755	3.99
534.099	3.99
534.444	3.97
534.788	3.97
535.133	3.97
535.477	3.98
535.822	3.96
536.166	3.97
536.51	3.99
536.855	3.99
537.199	3.99
537.543	4.01
537.887	4.01
538.231	3.99
538.576	3.99
538.92	3.99
539.264	4.01
539.608	4.02
539.951	4.01
540.295	4.02
540.639	4.02
540.983	4.03
541.327	4.05
541.671	4.05
542.014	4.06
542.358	4.07
542.701	4.06
543.045	4.07
543.389	4.07
543.732	4.07
544.075	4.07
544.419	4.08
544.762	4.06
545.105	4.08
545.449	4.09
545.792	4.1
546.135	4.11
546.478	4.1
546.821	4.09
547.165	4.11
547.508	4.11
547.851	4.1
548.194	4.09
548.536	4.08
548.879	4.09
549.222	4.11
549.565	4.1
549.908	4.09
550.25	4.06
550.593	4.05
550.936	4.06
551.278	4.05
551.621	4.03
551.963	4.05
552.306	4.04
552.648	4.05
552.991	4.02
553.333	4.01
553.675	4.04
554.017	4.05
554.36	4.05
554.702	4.04
555.044	4.08
555.386	4.08
555.728	4.1
556.07	4.12
556.412	4.1
556.754	4.09
557.096	4.08
557.438	4.12
557.78	4.13
558.121	4.12
558.463	4.12
558.805	4.15
559.147	4.18
559.488	4.14
559.83	4.13
560.171	4.15
560.513	4.15
560.854	4.14
561.196	4.15
561.537	4.16
561.878	4.17
562.22	4.15
562.561	4.16
562.902	4.16
563.243	4.16
563.584	4.16
563.925	4.19
564.266	4.22
564.607	4.21
564.948	4.22
565.289	4.22
565.63	4.22
565.971	4.22
566.312	4.19
566.653	4.19
566.993	4.19
567.334	4.21
567.675	4.21
568.015	4.17
568.356	4.19
568.696	4.18
569.037	4.18
569.377	4.16
569.718	4.16
570.058	4.16
570.398	4.15
570.739	4.14
571.079	4.14
571.419	4.13
571.759	4.13
572.099	4.12
572.439	4.1
572.779	4.09
573.119	4.07
573.459	4.07
573.799	4.09
574.139	4.08
574.479	4.08
574.819	4.08
575.158	4.1
575.498	4.1
575.838	4.06
576.177	4.05
576.517	4.09
576.856	4.08
577.196	4.06
577.535	4.04
577.875	4.03
578.214	4.02
578.553	4.03
578.893	4.05
579.232	4.03
579.571	4.04
579.91	4.06
580.25	4.05
580.589	4.05
580.928	4.06
581.267	4.09
581.606	4.05
581.945	4.04
582.283	4.02
582.622	4.01
582.961	4.06
583.3	4.07
583.639	4.05
583.977	4.06
584.316	4.05
584.654	4.06
584.993	4.08
585.332	4.08
585.67	4.06
586.008	4.06
586.347	4.11
586.685	4.12
587.024	4.15
587.362	4.17
587.7	4.2
588.038	4.19
588.376	4.18
588.715	4.19
589.053	4.21
589.391	4.25
589.729	4.26
590.067	4.25
590.404	4.28
590.742	4.29
591.08	4.31
591.418	4.32
591.756	4.34
592.093	4.38
592.431	4.37
592.769	4.38
593.106	4.38
593.444	4.38
593.781	4.4
594.119	4.39
594.456	4.37
594.793	4.34
595.131	4.35
595.468	4.38
595.805	4.4
596.143	4.4
596.48	4.4
596.817	4.38
597.154	4.4
597.491	4.37
597.828	4.37
598.165	4.35
598.502	4.35
598.839	4.36
599.176	4.33
599.512	4.3
599.849	4.32
600.186	4.33
600.523	4.32
600.859	4.31
601.196	4.3
601.532	4.32
601.869	4.34
602.205	4.34
602.542	4.31
602.878	4.32
603.215	4.3
603.551	4.28
603.887	4.28
604.223	4.27
604.56	4.26
604.896	4.27
605.232	4.29
605.568	4.3
605.904	4.31
606.24	4.32
606.576	4.38
606.912	4.36
607.248	4.35
607.583	4.32
607.919	4.32
608.255	4.32
608.591	4.34
608.926	4.31
609.262	4.3
609.597	4.3
609.933	4.29
610.268	4.3
610.604	4.31
610.939	4.31
611.275	4.33
611.61	4.34
611.945	4.28
612.281	4.27
612.616	4.27
612.951	4.25
613.286	4.26
613.621	4.24
613.956	4.23
614.291	4.27
614.626	4.29
614.961	4.31
615.296	4.27
615.631	4.29
615.966	4.32
616.3	4.3
616.635	4.3
616.97	4.3
617.304	4.26
617.639	4.29
617.973	4.25
618.308	4.22
618.642	4.23
618.977	4.25
619.311	4.27
619.646	4.27
619.98	4.21
620.314	4.15
620.648	4.14
620.983	4.12
621.317	4.13
621.651	4.18
621.985	4.17
622.319	4.18
622.653	4.16
622.987	4.13
623.321	4.2
623.655	4.18
623.988	4.25
624.322	4.3
624.656	4.3
624.99	4.33
625.323	4.4
625.657	4.43
625.99	4.48
626.324	4.51
626.657	4.51
626.991	4.56
627.324	4.56
627.658	4.53
627.991	4.6
628.324	4.57
628.657	4.56
628.991	4.56
629.324	4.55
629.657	4.53
629.99	4.54
630.323	4.52
630.656	4.53
630.989	4.5
631.322	4.49
631.655	4.5
631.987	4.52
632.32	4.51
632.653	4.48
632.986	4.46
633.318	4.42
633.651	4.38
633.984	4.38
634.316	4.42
634.649	4.54
634.981	4.51
635.313	4.55
635.646	4.54
635.978	4.61
636.31	4.64
636.643	4.63
636.975	4.7
637.307	4.69
637.639	4.71
637.971	4.7
638.303	4.68
638.635	4.66
638.967	4.7
639.299	4.68
639.631	4.68
639.963	4.65
640.295	4.71
640.626	4.74
640.958	4.75
641.29	4.76
641.621	4.65
641.953	4.62
642.285	4.57
642.616	4.59
642.948	4.56
643.279	4.54
643.61	4.56
643.942	4.57
644.273	4.58
644.604	4.6
644.936	4.59
645.267	4.62
645.598	4.64
645.929	4.58
646.26	4.53
646.591	4.56
646.922	4.59
647.253	4.57
647.584	4.51
647.915	4.53
648.245	4.52
648.576	4.54
648.907	4.55
649.238	4.55
649.568	4.52
649.899	4.46
650.229	4.49
650.56	4.44
650.89	4.39
651.221	4.34
651.551	4.34
651.882	4.33
652.212	4.35
652.542	4.32
652.872	4.39
653.203	4.4
653.533	4.39
653.863	4.37
654.193	4.29
654.523	4.35
654.853	4.38
655.183	4.42
655.513	4.44
655.843	4.44
656.172	4.43
656.502	4.43
656.832	4.44
657.162	4.44
657.491	4.55
657.821	4.51
658.15	4.5
658.48	4.5
658.809	4.49
659.139	4.52
659.468	4.55
659.798	4.52
660.127	4.54
660.456	4.53
660.785	4.54
661.115	4.56
661.444	4.61
661.773	4.64
662.102	4.62
662.431	4.66
662.76	4.67
663.089	4.74
663.418	4.77
663.747	4.8
664.076	4.81
664.404	4.82
664.733	4.9
665.062	5
665.39	5.05
665.719	5.12
666.048	5.14
666.376	5.11
666.705	5.17
667.033	5.17
667.362	5.14
667.69	5.2
668.018	5.28
668.347	5.23
668.675	5.2
669.003	5.12
669.331	5.12
669.659	5.1
669.987	5.12
670.315	5.15
670.643	5.1
670.971	5.1
671.299	4.98
671.627	5
671.955	4.92
672.283	4.84
672.61	4.88
672.938	4.8
673.266	4.86
673.593	4.82
673.921	4.87
674.249	4.94
674.576	4.91
674.904	4.88
675.231	4.79
675.558	4.77
675.886	4.87
676.213	4.82
676.54	4.89
676.867	4.77
677.195	4.79
677.522	4.86
677.849	4.86
678.176	4.98
678.503	4.87
678.83	4.89
679.157	4.91
679.484	4.9
679.81	4.92
680.137	4.92
680.464	4.86
680.791	4.79
681.117	4.79
681.444	4.81
681.771	4.89
682.097	5.02
682.424	4.97
682.75	4.98
683.077	5
683.403	4.92
683.729	4.99
684.056	4.91
684.382	4.85
684.708	4.88
685.034	4.8
685.36	4.8
685.686	4.79
686.012	4.73
686.339	4.75
686.664	4.77
686.99	4.72
687.316	4.76
687.642	4.81
687.968	4.78
688.294	4.63
688.619	4.53
688.945	4.46
689.271	4.51
689.596	4.52
689.922	4.61
690.247	4.7
690.573	4.69
690.898	4.78
691.224	4.8
691.549	4.78
691.874	4.8
692.2	4.88
692.525	4.95
692.85	5.01
693.175	4.99
693.5	4.9
693.825	4.99
694.15	5.04
694.475	5.04
694.8	5.12
695.125	5.25
695.45	5.23
695.775	5.22
696.099	5.27
696.424	5.25
696.749	5.26
697.073	5.21
697.398	5.21
697.723	5.2
698.047	5.31
698.372	5.34
698.696	5.32
699.02	5.33
699.345	5.28
699.669	5.32
699.993	5.25
700.318	5.36
700.642	5.34
700.966	5.32
701.29	5.39
701.614	5.33
701.938	5.3
702.262	5.25
702.586	5.38
702.91	5.37
703.234	5.26
703.557	5.26
703.881	5.3
704.205	5.42
704.529	5.38
704.852	5.31
705.176	5.45
705.499	5.44
705.823	5.44
706.146	5.5
706.47	5.48
706.793	5.6
707.117	5.48
707.44	5.38
707.763	5.33
708.086	5.12
708.409	5.15
708.733	5.18
709.056	5.25
709.379	5.22
709.702	5.19
710.025	5.32
710.348	5.17
710.671	5.21
710.993	5.06
711.316	5.1
711.639	5.05
711.962	5.03
712.284	5.08
712.607	5.12
712.93	5.12
713.252	4.98
713.575	4.98
713.897	5.06
714.22	5.21
714.542	5.23
714.864	5.29
715.187	5.25
715.509	5.26
715.831	5.32
716.153	5.25
716.475	5.16
716.798	5.12
717.12	5.15
717.442	5.08
717.764	5.15
718.085	5.17
718.407	5.13
718.729	4.98
719.051	5.08
719.373	5.05
719.695	5.12
720.016	5.27
720.338	5.15
720.659	5.15
720.981	5.04
721.302	5.18
721.624	5.35
721.945	5.39
722.267	5.32
722.588	5.21
722.909	5.32
723.231	5.47
723.552	5.29
723.873	5.27
724.194	5.27
724.515	5.24
724.836	5.25
725.157	5.27
725.478	5.31
725.799	4.96
726.12	4.97
726.441	4.93
726.762	4.89
727.083	4.97
727.403	5.01
727.724	5.09
728.045	5.06
728.365	4.91
728.686	4.9
729.006	4.91
729.327	5
729.647	4.86
729.967	4.73
730.288	4.94
730.608	4.99
730.928	4.97
731.249	4.96
731.569	4.76
731.889	4.83
732.209	4.84
732.529	4.92
732.849	4.89
733.169	4.86
733.489	4.82
733.809	4.84
734.129	4.76
734.448	4.67
734.768	4.49
735.088	4.43
735.408	4.43
735.727	4.62
736.047	4.63
736.366	4.68
736.686	4.81
737.005	4.84
737.325	4.93
737.644	5.11
737.963	5.16
738.283	5.28
738.602	5.25
738.921	5.18
739.24	5.27
739.56	5.33
739.879	5.16
740.198	5.13
740.517	5.08
740.836	4.98
741.155	5.09
741.473	5.32
741.792	5.58
742.111	5.71
742.43	5.54
742.748	5.57
743.067	5.6
743.386	5.37
743.704	5.38
744.023	5.18
744.341	5.02
744.66	4.84
744.978	4.62
745.297	4.48
745.615	4.47
745.933	4.54
746.252	4.73
746.57	4.94
746.888	5.19
747.206	5.16
747.524	5.32
747.842	4.99
748.16	4.91
748.478	4.81
748.796	4.69
749.114	4.82
749.432	4.88
749.749	4.85
750.067	5.12
750.385	5.09
750.703	5.32
751.02	5.21
751.338	5.07
751.655	5.31
751.973	5.36
752.29	5.38
752.608	5.31
752.925	5.09
753.242	5.09
753.56	4.88
753.877	5.01
754.194	4.97
754.511	5.24
754.828	5.14
755.145	5.04
755.462	5.06
755.779	5.14
756.096	4.97
756.413	5.09
756.73	5.1
757.047	4.93
757.364	4.79
757.68	5
757.997	5.1
758.314	5.27
758.63	5.49
758.947	5.69
759.264	5.66
759.58	5.87
759.896	5.8
760.213	6.22
760.529	6.16
760.846	6.21
761.162	6.17
761.478	6.14
761.794	6.3
762.11	6.25
762.426	6.18
762.743	6.29
763.059	6.25
763.375	6.23
763.69	6.32
764.006	6.45
764.322	6.38
764.638	6.49
764.954	6.6
765.27	6.42
765.585	6.32
765.901	6.4
766.216	6.36
766.532	6.3
766.848	6.15
767.163	5.96
767.478	5.9
767.794	5.9
768.109	5.85
768.424	5.76
768.74	5.71
769.055	5.8
769.37	5.71
769.685	5.59
770	5.41
770.315	5.58
770.63	5.55
770.945	5.56
771.26	5.68
771.575	5.27
771.89	5.59
772.205	5.6
772.52	5.49
772.834	5.21
773.149	5.72
773.464	5.52
773.778	5.61
774.093	5.86
774.407	5.64
774.722	5.55
775.036	5.62
775.351	5.85
775.665	5.37
775.979	5.45
776.293	5.26
776.608	5.44
776.922	5.06
777.236	4.96
777.55	4.76
777.864	4.84
778.178	5.04
778.492	4.68
778.806	4.89
779.12	4.92
779.434	5.12
779.747	4.71
780.061	4.69
780.375	4.89
780.689	4.81
781.002	4.94
781.316	5.32
781.629	5.36
781.943	5.14
782.256	5.23
782.57	5.16
782.883	5.51
783.196	5.33
783.51	5.55
783.823	5.65
784.136	5.65
784.449	5.53
784.762	5.63
785.075	5.5
785.388	5.74
785.701	5.83
786.014	5.7
786.327	5.57
786.64	5.79
786.953	5.81
787.266	5.58
787.578	5.56
787.891	5.76
788.204	5.6
788.516	5.94
788.829	5.79
789.141	5.93
789.454	6.12
789.766	6.41
790.079	6.14
790.391	6.18
790.703	6.27
791.016	6.37
791.328	6.22
791.64	6.71
791.952	6.25
792.264	5.82
792.576	5.83
792.888	5.97
793.2	5.72
793.512	5.6
793.824	5.6
794.136	5.93
794.448	5.94
794.76	6.46
795.071	6.24
795.383	6.35
795.695	6.5
796.006	6
796.318	5.97
796.629	6.16
796.941	5.98
797.252	6.05
797.564	5.89
797.875	5.88
798.186	5.71
798.497	5.79
798.809	6.06
799.12	5.84
799.431	5.83
799.742	6.38
800.053	6.34
800.364	6.51
800.675	6.12
800.986	5.72
801.297	5.28
801.608	5.37
801.918	5.75
802.229	5.38
802.54	6.01
802.851	5.87
803.161	5.61
803.472	5.77
803.782	5.92
804.093	6
804.403	6.54
804.714	6.43
805.024	6.34
805.334	6.28
805.645	6.32
805.955	6.42
806.265	6
806.575	6.09
806.885	6.37
807.195	7
807.505	7.29
807.815	7.83
808.125	7.92
808.435	7.55
808.745	7.31
809.055	7.28
809.365	7.24
809.674	7.55
809.984	7.51
810.294	7.56
810.603	6.95
810.913	6.24
811.222	6.14
811.532	6.61
811.841	7.16
812.151	7.13
812.46	7.15
812.769	7.41
813.079	7.94
813.388	7.2
813.697	6.86
814.006	7.03
814.315	6.06
814.624	5.58
814.933	5.46
815.242	5.99
815.551	5.72
815.86	5.85
816.169	5.82
816.478	5.84
816.786	4.99
817.095	5.56
817.404	5.7
817.712	5.79
818.021	5.46
818.33	5.43
818.638	5.87
818.947	5.76
819.255	6.06
819.563	5.73
819.872	6.18
820.18	6.47
820.488	6.54
820.796	6.51
821.105	6.6
821.413	6.57
821.721	6.64
822.029	6.67
822.337	6.71
822.645	6.8
822.953	6.91
823.26	7.03
823.568	7.03
823.876	6.77
824.184	6.9
824.491	6.92
824.799	6.88
825.107	7.04
825.414	7.06
825.722	6.9
826.029	6.97
826.337	7
826.644	7
826.951	6.9
827.259	7
827.566	7.07
827.873	7.39
828.18	7.29
828.488	7.38
828.795	7.31
829.102	7.17
829.409	7.02
829.716	7.18
830.023	6.98
830.329	7.64
830.636	7.68
830.943	7.46
831.25	7.51
831.557	7.01
831.863	6.84
832.17	7.01
832.476	7.04
832.783	7.37
833.089	7.21
833.396	7.06
833.702	6.99
834.009	6.98
834.315	6.76
834.621	6.6
834.928	6.31
835.234	6.56
835.54	6.6
835.846	6.92
836.152	6.89
836.458	6.93
836.764	7.07
837.07	7.06
837.376	7.19
837.682	7.36
837.988	7.64
838.293	7.97
838.599	7.9
838.905	8.25
839.211	7.46
839.516	7.06
839.822	7.29
840.127	7.33
840.433	7.63
840.738	6.95
841.044	7.52
841.349	7.63
841.654	7.54
841.959	7.99
842.265	7
842.57	6.58
842.875	6.65
843.18	4.93
843.485	4.39
843.79	4.45
844.095	4.47
844.4	3.75
844.705	3.09
845.01	3.41
845.315	2.96
845.619	3.88
845.924	4.3
846.229	4.44
846.533	4.46
846.838	2.91
847.142	3.88
847.447	3.9
847.751	4.02
848.056	2.47
848.36	2.89
848.664	3.46
848.969	3.71
849.273	3.89
849.577	5.81
849.881	4.61
850.185	5.06
850.489	4.23
850.794	4.99
851.097	5.55
851.401	3
851.705	1.78
852.009	0.42
852.313	-0.4
852.617	-1.55
852.92	-1.79
853.224	-0.6
853.528	-2.38
853.831	-1.92
854.135	-2.54
854.438	-1.04
854.742	-0.6
855.045	-2
855.349	-3.46
855.652	-4.65
855.955	-6.34
856.259	-6.22
856.562	-6.31
856.865	-6.98
857.168	-6.48
857.471	-6.74
857.774	-2.3
858.077	-1.49
858.38	-3.59
858.683	-3.27
858.986	-1.97
859.289	-0.08
859.592	-0.84
859.894	0.97
860.197	-1.53
860.5	-1.27
860.802	-2.78
861.105	-4.75
861.407	-3.9
861.71	-1.88
862.012	0.93
862.315	2.94
862.617	3.64
862.919	4.27
863.222	6.77
863.524	5.47
863.826	6.22
864.128	4.46
864.43	5.98
864.732	8.75
865.034	8.91
865.336	9.48
865.638	8.33
865.94	7.44
866.242	7.27
866.544	8.5
866.846	9.18
867.147	11.21
867.449	12.29
867.751	12.41
868.052	10.94
868.354	10.36
868.655	9.43
868.957	9.78
869.258	9.39
869.56	8.11
869.861	7.99
870.162	9.12
870.463	9.18
870.765	5.78
871.066	5.93
871.367	4.32
871.668	2.4
871.969	0.24
872.27	3.48
872.571	3.27
872.872	2.52
873.173	1.86
873.473	1.11
873.774	-0.49
874.075	-1.45
874.376	-4.5
874.676	-6.26
874.977	-5.25
875.277	-5.59
875.578	-4.32
875.878	-5.21
876.179	-5.01
876.479	-7.23
876.78	-8.98
877.08	-7.73
877.38	-9.69
877.68	-7.94
877.981	-7.46
878.281	-5.38
878.581	-9.1
