Data from BU57652_Reflection_00009.txt Node
Date: Tue Nov 19 10:43:19 EST 2019
User: vgr7
Spectrometer: USB2G7710
Scans to average: 3
Trigger mode: 4
Integration Time (sec): 2.000000E-2
Electric dark correction enabled: true
Boxcar width: 10
XAxis mode: Wavelengths
Number of Pixels in Spectrum: 2048
>>>>>Begin Spectral Data<<<<<
177.721	167.21
178.105	256.93
178.488	374.49
178.871	231.58
179.254	374.19
179.636	319.59
180.019	262.73
180.402	25
180.785	3.28
181.168	-14.86
181.55	292.31
181.933	-132.67
182.316	-910.64
182.698	-174.06
183.081	-53.18
183.463	-130.54
183.846	-199.04
184.228	-607.92
184.611	-142.01
184.993	-58.03
185.376	-35
185.758	-36.85
186.14	-22.96
186.522	-7.16
186.904	-7.76
187.287	-10.67
187.669	2.29
188.051	-12.69
188.433	-54.68
188.815	-60.09
189.197	-43.61
189.579	-39.11
189.961	-30.95
190.342	-15.7
190.724	-19.67
191.106	-18.46
191.488	-15.89
191.869	-3.46
192.251	-2.25
192.633	5.7
193.014	16.82
193.396	29.27
193.777	33.75
194.159	32.36
194.54	34.5
194.922	21.03
195.303	15.9
195.684	-2.53
196.065	12.23
196.447	6.67
196.828	16.86
197.209	19.74
197.59	25.58
197.971	35.96
198.352	32.37
198.733	30.2
199.114	17.31
199.495	19.09
199.876	2.53
200.257	-13.96
200.638	-27.47
201.018	-27.75
201.399	-36.47
201.78	-32.06
202.16	-25.76
202.541	-23.28
202.922	-9.78
203.302	-8.7
203.683	-5.9
204.063	-12.9
204.444	11.63
204.824	5.41
205.204	-0.36
205.585	-12.69
205.965	-32.5
206.345	-34.75
206.725	-22.12
207.106	4.11
207.486	19.48
207.866	40.29
208.246	61.09
208.626	32.63
209.006	18.81
209.386	21.92
209.766	26.74
210.145	-7.18
210.525	-23.67
210.905	-12.33
211.285	-35.19
211.664	7.07
212.044	-8.38
212.424	-19.77
212.803	-22.73
213.183	-26.2
213.562	-12.01
213.942	-8.8
214.321	-6.27
214.701	-10.94
215.08	-29.85
215.459	-37.3
215.838	-31.07
216.218	-37.4
216.597	-24.15
216.976	-18.72
217.355	-9.97
217.734	-5.35
218.113	5.3
218.492	8.97
218.871	7.58
219.25	7.43
219.629	-1.78
220.008	0.11
220.387	-2.66
220.766	7.4
221.144	9.14
221.523	6.54
221.902	13.05
222.28	5.38
222.659	17.09
223.037	23.67
223.416	20.1
223.794	13.37
224.173	7.66
224.551	9.77
224.929	-3.27
225.308	-14.4
225.686	-26.7
226.064	-30.52
226.442	-37.41
226.821	-36.83
227.199	-30.39
227.577	-25.95
227.955	-15.17
228.333	-14.48
228.711	-13.42
229.089	-16.16
229.467	-11.69
229.845	-12.91
230.222	-9.75
230.6	-13.57
230.978	-11.73
231.356	-11.52
231.733	-12.37
232.111	-8.45
232.488	-8.91
232.866	-6.89
233.243	-4.08
233.621	-0.67
233.998	-0.13
234.376	1.74
234.753	1.92
235.13	1.34
235.508	0.27
235.885	-3.03
236.262	-3.26
236.639	-5.19
237.016	-4.13
237.393	-4.33
237.77	-4.22
238.147	-3.76
238.524	-3.01
238.901	-3.53
239.278	-3.06
239.655	-2.1
240.032	-2.43
240.409	-1.66
240.785	-1.11
241.162	-1
241.539	-0.89
241.915	-0.43
242.292	0.15
242.668	0.87
243.045	1.72
243.421	2.02
243.798	2.28
244.174	2.7
244.551	2.89
244.927	2.88
245.303	2.84
245.679	3.13
246.056	3.03
246.432	3.17
246.808	3.55
247.184	3.8
247.56	3.73
247.936	3.98
248.312	4.02
248.688	4.07
249.064	4.18
249.44	4.14
249.815	4
250.191	4.04
250.567	3.83
250.943	3.66
251.318	3.71
251.694	3.64
252.069	3.66
252.445	3.51
252.82	3.88
253.196	4.17
253.571	4.25
253.947	4.49
254.322	4.42
254.697	4.16
255.073	4.22
255.448	4.39
255.823	4.09
256.198	3.91
256.573	3.74
256.948	3.59
257.323	3.68
257.698	3.72
258.073	3.44
258.448	3.39
258.823	3.39
259.198	3.33
259.573	3.27
259.948	3.21
260.322	3.16
260.697	3.14
261.072	3.05
261.446	3.06
261.821	2.86
262.195	2.92
262.57	2.93
262.944	2.79
263.319	2.74
263.693	2.83
264.067	2.83
264.442	2.79
264.816	2.86
265.19	2.67
265.564	2.55
265.938	2.79
266.313	2.74
266.687	2.68
267.061	2.73
267.435	2.96
267.809	2.87
268.183	3.1
268.556	2.96
268.93	2.94
269.304	2.8
269.678	2.92
270.051	2.79
270.425	2.88
270.799	2.67
271.172	2.84
271.546	2.81
271.919	2.82
272.293	3.07
272.666	2.97
273.04	3
273.413	3.13
273.787	2.87
274.16	2.88
274.533	3.04
274.906	3.21
275.279	3.1
275.653	3.25
276.026	3.25
276.399	3.32
276.772	3.29
277.145	3.31
277.518	3.33
277.891	3.41
278.263	3.39
278.636	3.83
279.009	3.62
279.382	3.44
279.755	3.53
280.127	3.39
280.5	3.43
280.872	3.55
281.245	3.54
281.617	3.66
281.99	3.87
282.362	3.81
282.735	3.61
283.107	3.54
283.479	3.47
283.852	3.31
284.224	3.29
284.596	3.35
284.968	3.4
285.34	3.35
285.713	3.39
286.085	3.39
286.457	3.18
286.829	3.06
287.201	3.22
287.572	3.16
287.944	3.19
288.316	3.04
288.688	3.15
289.06	3.16
289.431	3.27
289.803	3.18
290.175	3.14
290.546	3.24
290.918	3.32
291.289	3.25
291.661	3.45
292.032	3.39
292.403	3.4
292.775	3.44
293.146	3.58
293.517	3.65
293.889	3.69
294.26	3.77
294.631	3.93
295.002	3.88
295.373	3.91
295.744	3.84
296.115	4.06
296.486	3.96
296.857	3.96
297.228	3.73
297.599	3.61
297.97	3.62
298.34	3.49
298.711	3.46
299.082	3.44
299.452	3.43
299.823	3.43
300.194	3.44
300.564	3.29
300.935	3.3
301.305	3.31
301.676	3.2
302.046	3.33
302.416	3.25
302.787	3.24
303.157	3.26
303.527	3.39
303.897	3.28
304.267	3.34
304.637	3.34
305.008	3.58
305.378	3.84
305.748	3.85
306.117	4.11
306.487	4.18
306.857	4.32
307.227	4.38
307.597	4.49
307.967	4.51
308.336	4.86
308.706	4.91
309.076	4.97
309.445	5.22
309.815	5.15
310.184	5.23
310.554	5.37
310.923	5.41
311.293	5.52
311.662	5.72
312.031	5.79
312.401	5.76
312.77	5.82
313.139	5.82
313.508	5.96
313.877	5.91
314.246	5.96
314.616	6.09
314.985	6.15
315.353	6.3
315.722	6.42
316.091	6.39
316.46	6.33
316.829	6.29
317.198	6.24
317.567	6.45
317.935	6.49
318.304	6.65
318.672	6.81
319.041	6.74
319.41	6.7
319.778	6.65
320.147	6.75
320.515	6.59
320.883	6.65
321.252	6.56
321.62	6.82
321.988	6.89
322.357	7.02
322.725	7.02
323.093	6.97
323.461	7.13
323.829	7.17
324.197	7.27
324.565	7.44
324.933	7.59
325.301	7.38
325.669	7.4
326.037	7.45
326.405	7.52
326.772	7.5
327.14	7.54
327.508	7.68
327.875	7.78
328.243	7.97
328.61	8.01
328.978	8.07
329.346	7.99
329.713	8.22
330.08	8.21
330.448	8.25
330.815	8.31
331.182	8.26
331.55	8.23
331.917	8.23
332.284	8.14
332.651	7.98
333.018	8.07
333.385	8.23
333.752	8.1
334.119	8.14
334.486	8.27
334.853	8.32
335.22	8.37
335.587	8.4
335.954	8.53
336.32	8.6
336.687	8.65
337.054	8.65
337.42	8.53
337.787	8.51
338.153	8.62
338.52	8.74
338.886	8.8
339.253	8.75
339.619	8.79
339.986	8.76
340.352	8.78
340.718	8.84
341.084	8.86
341.451	8.91
341.817	8.89
342.183	8.78
342.549	8.85
342.915	8.75
343.281	8.73
343.647	8.67
344.013	8.66
344.379	8.74
344.745	8.84
345.11	8.88
345.476	8.96
345.842	8.85
346.208	8.88
346.573	8.89
346.939	8.96
347.304	9.01
347.67	9.1
348.035	9.11
348.401	9.16
348.766	9.12
349.132	9.2
349.497	9.17
349.862	9.24
350.228	9.23
350.593	9.29
350.958	9.41
351.323	9.44
351.688	9.52
352.053	9.45
352.418	9.42
352.783	9.35
353.148	9.29
353.513	9.37
353.878	9.22
354.243	9.11
354.608	9.16
354.972	9.19
355.337	9.12
355.702	9.11
356.066	9.14
356.431	9.11
356.795	9.04
357.16	9.04
357.524	9.01
357.889	8.94
358.253	8.89
358.618	8.74
358.982	8.68
359.346	8.65
359.71	8.63
360.075	8.58
360.439	8.61
360.803	8.59
361.167	8.56
361.531	8.57
361.895	8.56
362.259	8.49
362.623	8.45
362.987	8.44
363.351	8.41
363.714	8.34
364.078	8.33
364.442	8.32
364.806	8.25
365.169	8.27
365.533	8.26
365.896	8.27
366.26	8.25
366.623	8.21
366.987	8.1
367.35	8.09
367.714	8.02
368.077	7.97
368.44	7.88
368.803	7.78
369.167	7.74
369.53	7.74
369.893	7.77
370.256	7.63
370.619	7.53
370.982	7.45
371.345	7.43
371.708	7.36
372.071	7.18
372.434	7.06
372.797	7.01
373.159	6.89
373.522	6.81
373.885	6.77
374.247	6.69
374.61	6.69
374.973	6.59
375.335	6.59
375.698	6.47
376.06	6.4
376.423	6.36
376.785	6.27
377.147	6.21
377.51	6.07
377.872	6.02
378.234	6.03
378.596	5.97
378.958	5.93
379.321	5.92
379.683	5.94
380.045	5.94
380.407	5.89
380.769	5.84
381.13	5.76
381.492	5.73
381.854	5.65
382.216	5.62
382.578	5.61
382.939	5.54
383.301	5.52
383.663	5.49
384.024	5.49
384.386	5.49
384.747	5.4
385.109	5.33
385.47	5.34
385.832	5.29
386.193	5.28
386.554	5.22
386.916	5.14
387.277	5.09
387.638	5.04
387.999	4.94
388.36	4.96
388.721	4.92
389.082	4.85
389.443	4.84
389.804	4.79
390.165	4.73
390.526	4.7
390.887	4.66
391.248	4.63
391.609	4.6
391.969	4.55
392.33	4.54
392.691	4.54
393.051	4.48
393.412	4.45
393.772	4.42
394.133	4.39
394.493	4.35
394.854	4.33
395.214	4.3
395.574	4.29
395.935	4.25
396.295	4.23
396.655	4.25
397.015	4.23
397.376	4.21
397.736	4.22
398.096	4.18
398.456	4.17
398.816	4.13
399.176	4.04
399.535	4
399.895	3.95
400.255	3.94
400.615	3.94
400.975	3.92
401.334	3.92
401.694	3.91
402.054	3.93
402.413	3.87
402.773	3.86
403.132	3.84
403.492	3.79
403.851	3.75
404.211	3.7
404.57	3.69
404.929	3.64
405.288	3.6
405.648	3.59
406.007	3.55
406.366	3.57
406.725	3.58
407.084	3.57
407.443	3.59
407.802	3.56
408.161	3.56
408.52	3.55
408.879	3.53
409.238	3.51
409.596	3.46
409.955	3.46
410.314	3.45
410.673	3.42
411.031	3.42
411.39	3.43
411.748	3.45
412.107	3.41
412.465	3.36
412.824	3.37
413.182	3.36
413.54	3.37
413.899	3.36
414.257	3.36
414.615	3.39
414.974	3.36
415.332	3.32
415.69	3.27
416.048	3.26
416.406	3.25
416.764	3.23
417.122	3.23
417.48	3.23
417.838	3.2
418.195	3.21
418.553	3.2
418.911	3.19
419.269	3.16
419.626	3.16
419.984	3.16
420.342	3.15
420.699	3.13
421.057	3.14
421.414	3.12
421.772	3.09
422.129	3.06
422.486	3.07
422.844	3.06
423.201	3.06
423.558	3.05
423.915	3.04
424.273	3.05
424.63	3.05
424.987	3.04
425.344	3.05
425.701	3.03
426.058	3.03
426.415	3.04
426.772	3.05
427.128	3.04
427.485	3.04
427.842	3.03
428.199	3.03
428.555	3.01
428.912	3
429.269	2.99
429.625	3.02
429.982	3.01
430.338	3.02
430.695	2.98
431.051	2.98
431.407	2.99
431.764	2.96
432.12	2.94
432.476	2.95
432.832	2.96
433.189	2.96
433.545	2.95
433.901	2.93
434.257	2.92
434.613	2.92
434.969	2.95
435.325	2.94
435.681	2.95
436.036	2.94
436.392	2.97
436.748	2.97
437.104	2.95
437.459	2.95
437.815	2.97
438.171	2.98
438.526	2.98
438.882	2.96
439.237	2.96
439.593	2.96
439.948	2.95
440.304	2.92
440.659	2.92
441.014	2.93
441.369	2.93
441.725	2.93
442.08	2.93
442.435	2.93
442.79	2.92
443.145	2.9
443.5	2.9
443.855	2.9
444.21	2.9
444.565	2.9
444.92	2.9
445.275	2.88
445.629	2.88
445.984	2.87
446.339	2.86
446.693	2.86
447.048	2.86
447.403	2.86
447.757	2.87
448.112	2.86
448.466	2.86
448.82	2.87
449.175	2.86
449.529	2.85
449.883	2.84
450.238	2.85
450.592	2.85
450.946	2.85
451.3	2.82
451.654	2.81
452.008	2.8
452.362	2.79
452.716	2.78
453.07	2.78
453.424	2.78
453.778	2.78
454.132	2.78
454.486	2.78
454.839	2.78
455.193	2.81
455.547	2.8
455.9	2.82
456.254	2.81
456.607	2.82
456.961	2.82
457.314	2.81
457.668	2.8
458.021	2.8
458.375	2.8
458.728	2.81
459.081	2.8
459.434	2.8
459.787	2.81
460.141	2.83
460.494	2.83
460.847	2.84
461.2	2.86
461.553	2.86
461.906	2.87
462.259	2.87
462.611	2.84
462.964	2.85
463.317	2.83
463.67	2.84
464.022	2.83
464.375	2.82
464.728	2.83
465.08	2.82
465.433	2.83
465.785	2.84
466.138	2.85
466.49	2.87
466.843	2.9
467.195	2.9
467.547	2.89
467.899	2.91
468.252	2.9
468.604	2.88
468.956	2.88
469.308	2.86
469.66	2.9
470.012	2.91
470.364	2.92
470.716	2.92
471.068	2.91
471.42	2.92
471.772	2.94
472.123	2.95
472.475	2.97
472.827	2.98
473.178	2.99
473.53	3
473.882	2.98
474.233	2.96
474.585	2.97
474.936	2.98
475.288	2.97
475.639	2.98
475.99	2.99
476.342	3.01
476.693	3.01
477.044	2.97
477.395	2.97
477.746	2.97
478.097	2.97
478.448	2.98
478.8	2.98
479.15	2.96
479.501	2.97
479.852	2.96
480.203	2.97
480.554	2.99
480.905	2.99
481.255	3
481.606	3.02
481.957	3.01
482.307	3
482.658	3
483.009	3
483.359	3.02
483.709	3.03
484.06	3.04
484.41	3.05
484.761	3.05
485.111	3.05
485.461	3.06
485.811	3.06
486.162	3.06
486.512	3.07
486.862	3.07
487.212	3.07
487.562	3.08
487.912	3.06
488.262	3.05
488.612	3.04
488.961	3.04
489.311	3.04
489.661	3.04
490.011	3.04
490.36	3.03
490.71	3.01
491.06	3
491.409	3
491.759	3
492.108	3
492.458	3
492.807	3
493.157	3.01
493.506	3.01
493.855	3.01
494.204	3.03
494.554	3.04
494.903	3.04
495.252	3.06
495.601	3.09
495.95	3.13
496.299	3.14
496.648	3.17
496.997	3.19
497.346	3.21
497.695	3.25
498.043	3.3
498.392	3.33
498.741	3.34
499.09	3.36
499.438	3.41
499.787	3.44
500.135	3.47
500.484	3.49
500.832	3.51
501.181	3.55
501.529	3.6
501.878	3.6
502.226	3.65
502.574	3.68
502.923	3.7
503.271	3.73
503.619	3.78
503.967	3.81
504.315	3.86
504.663	3.9
505.011	3.93
505.359	3.96
505.707	4
506.055	4.05
506.403	4.09
506.751	4.11
507.098	4.16
507.446	4.21
507.794	4.26
508.141	4.34
508.489	4.39
508.837	4.43
509.184	4.48
509.531	4.55
509.879	4.62
510.226	4.67
510.574	4.72
510.921	4.78
511.268	4.84
511.616	4.92
511.963	4.99
512.31	5.05
512.657	5.13
513.004	5.21
513.351	5.28
513.698	5.36
514.045	5.44
514.392	5.51
514.739	5.58
515.086	5.68
515.432	5.78
515.779	5.86
516.126	5.94
516.473	6.03
516.819	6.11
517.166	6.2
517.512	6.29
517.859	6.38
518.205	6.44
518.552	6.54
518.898	6.58
519.245	6.67
519.591	6.75
519.937	6.83
520.283	6.94
520.629	7.02
520.976	7.14
521.322	7.26
521.668	7.39
522.014	7.5
522.36	7.61
522.706	7.72
523.052	7.87
523.398	8
523.743	8.14
524.089	8.28
524.435	8.41
524.781	8.52
525.126	8.63
525.472	8.75
525.817	8.84
526.163	8.95
526.509	9.03
526.854	9.11
527.199	9.18
527.545	9.25
527.89	9.33
528.235	9.4
528.581	9.46
528.926	9.53
529.271	9.62
529.616	9.7
529.961	9.78
530.306	9.85
530.651	9.92
530.996	10.01
531.341	10.1
531.686	10.19
532.031	10.29
532.376	10.4
532.721	10.5
533.065	10.61
533.41	10.7
533.755	10.82
534.099	10.94
534.444	11.05
534.788	11.18
535.133	11.31
535.477	11.42
535.822	11.56
536.166	11.7
536.51	11.83
536.855	11.99
537.199	12.14
537.543	12.29
537.887	12.48
538.231	12.63
538.576	12.79
538.92	12.97
539.264	13.14
539.608	13.28
539.951	13.44
540.295	13.57
540.639	13.7
540.983	13.83
541.327	13.99
541.671	14.15
542.014	14.29
542.358	14.41
542.701	14.55
543.045	14.69
543.389	14.81
543.732	14.96
544.075	15.1
544.419	15.26
544.762	15.43
545.105	15.59
545.449	15.78
545.792	15.96
546.135	16.13
546.478	16.31
546.821	16.52
547.165	16.72
547.508	16.96
547.851	17.2
548.194	17.44
548.536	17.67
548.879	17.85
549.222	18.1
549.565	18.35
549.908	18.58
550.25	18.82
550.593	19.09
550.936	19.32
551.278	19.59
551.621	19.85
551.963	20.11
552.306	20.39
552.648	20.64
552.991	20.93
553.333	21.18
553.675	21.44
554.017	21.69
554.36	21.96
554.702	22.2
555.044	22.48
555.386	22.75
555.728	23.05
556.07	23.33
556.412	23.62
556.754	23.88
557.096	24.19
557.438	24.52
557.78	24.86
558.121	25.23
558.463	25.48
558.805	25.83
559.147	26.15
559.488	26.41
559.83	26.68
560.171	26.94
560.513	27.24
560.854	27.57
561.196	27.89
561.537	28.21
561.878	28.54
562.22	28.84
562.561	29.12
562.902	29.34
563.243	29.64
563.584	29.85
563.925	30.14
564.266	30.43
564.607	30.71
564.948	30.95
565.289	31.18
565.63	31.46
565.971	31.73
566.312	32.01
566.653	32.29
566.993	32.59
567.334	32.85
567.675	33.11
568.015	33.39
568.356	33.64
568.696	33.93
569.037	34.18
569.377	34.47
569.718	34.81
570.058	35.11
570.398	35.39
570.739	35.68
571.079	35.99
571.419	36.29
571.759	36.57
572.099	36.85
572.439	37.1
572.779	37.33
573.119	37.57
573.459	37.8
573.799	38.05
574.139	38.29
574.479	38.55
574.819	38.76
575.158	39
575.498	39.3
575.838	39.52
576.177	39.77
576.517	40.01
576.856	40.19
577.196	40.44
577.535	40.67
577.875	40.95
578.214	41.17
578.553	41.44
578.893	41.66
579.232	41.91
579.571	42.2
579.91	42.54
580.25	42.83
580.589	43.06
580.928	43.36
581.267	43.57
581.606	43.84
581.945	44.16
582.283	44.41
582.622	44.63
582.961	44.83
583.3	45.14
583.639	45.34
583.977	45.57
584.316	45.77
584.654	45.99
584.993	46.2
585.332	46.47
585.67	46.66
586.008	46.85
586.347	47.02
586.685	47.22
587.024	47.38
587.362	47.52
587.7	47.73
588.038	47.81
588.376	48.05
588.715	48.25
589.053	48.42
589.391	48.58
589.729	48.72
590.067	48.88
590.404	49
590.742	49.23
591.08	49.45
591.418	49.69
591.756	49.88
592.093	50.08
592.431	50.29
592.769	50.44
593.106	50.59
593.444	50.77
593.781	50.95
594.119	51.09
594.456	51.25
594.793	51.39
595.131	51.59
595.468	51.69
595.805	51.77
596.143	51.91
596.48	52.05
596.817	52.2
597.154	52.44
597.491	52.49
597.828	52.58
598.165	52.78
598.502	52.92
598.839	53.14
599.176	53.24
599.512	53.34
599.849	53.49
600.186	53.67
600.523	53.83
600.859	53.94
601.196	54.11
601.532	54.21
601.869	54.38
602.205	54.48
602.542	54.63
602.878	54.81
603.215	54.89
603.551	54.94
603.887	55.03
604.223	55.02
604.56	55.21
604.896	55.34
605.232	55.4
605.568	55.45
605.904	55.45
606.24	55.54
606.576	55.61
606.912	55.69
607.248	55.75
607.583	55.86
607.919	55.95
608.255	56.03
608.591	56.1
608.926	56.16
609.262	56.26
609.597	56.35
609.933	56.45
610.268	56.52
610.604	56.63
610.939	56.75
611.275	56.85
611.61	56.84
611.945	56.78
612.281	56.85
612.616	57
612.951	57.16
613.286	57.23
613.621	57.3
613.956	57.4
614.291	57.44
614.626	57.53
614.961	57.64
615.296	57.76
615.631	57.91
615.966	58.01
616.3	58.06
616.635	58.19
616.97	58.21
617.304	58.29
617.639	58.41
617.973	58.41
618.308	58.48
618.642	58.6
618.977	58.77
619.311	58.77
619.646	58.78
619.98	58.76
620.314	58.75
620.648	58.77
620.983	58.92
621.317	59.03
621.651	59.12
621.985	59.07
622.319	59.15
622.653	59.16
622.987	59.15
623.321	59.19
623.655	59.13
623.988	59.14
624.322	59.19
624.656	59.26
624.99	59.26
625.323	59.33
625.657	59.34
625.99	59.4
626.324	59.46
626.657	59.54
626.991	59.69
627.324	59.74
627.658	59.77
627.991	59.77
628.324	59.78
628.657	59.71
628.991	59.78
629.324	59.83
629.657	59.87
629.99	59.88
630.323	59.92
630.656	59.97
630.989	60.09
631.322	60.08
631.655	60.07
631.987	60.15
632.32	60.15
632.653	60.27
632.986	60.34
633.318	60.35
633.651	60.3
633.984	60.21
634.316	60.35
634.649	60.44
634.981	60.49
635.313	60.59
635.646	60.72
635.978	60.76
636.31	60.76
636.643	60.73
636.975	60.8
637.307	60.89
637.639	60.94
637.971	60.93
638.303	61
638.635	61.01
638.967	61.05
639.299	61.03
639.631	61.02
639.963	60.99
640.295	60.96
640.626	61
640.958	61.17
641.29	61.1
641.621	60.99
641.953	60.96
642.285	60.95
642.616	61
642.948	61.06
643.279	61.1
643.61	61.25
643.942	61.34
644.273	61.36
644.604	61.39
644.936	61.4
645.267	61.4
645.598	61.34
645.929	61.39
646.26	61.37
646.591	61.45
646.922	61.48
647.253	61.55
647.584	61.64
647.915	61.65
648.245	61.75
648.576	61.83
648.907	61.89
649.238	61.95
649.568	61.93
649.899	61.88
650.229	61.8
650.56	61.77
650.89	61.81
651.221	61.81
651.551	61.83
651.882	61.83
652.212	61.95
652.542	62
652.872	62.06
653.203	62.2
653.533	62.14
653.863	62.16
654.193	62.16
654.523	62.09
654.853	62.05
655.183	61.99
655.513	62.15
655.843	62.12
656.172	62.18
656.502	62.22
656.832	62.29
657.162	62.22
657.491	62.25
657.821	62.21
658.15	62.2
658.48	62.2
658.809	62.3
659.139	62.29
659.468	62.45
659.798	62.45
660.127	62.49
660.456	62.47
660.785	62.48
661.115	62.49
661.444	62.59
661.773	62.62
662.102	62.65
662.431	62.54
662.76	62.53
663.089	62.43
663.418	62.49
663.747	62.56
664.076	62.65
664.404	62.64
664.733	62.57
665.062	62.8
665.39	62.88
665.719	62.94
666.048	63.03
666.376	62.96
666.705	63.08
667.033	63.01
667.362	62.99
667.69	63.04
668.018	63.12
668.347	63.06
668.675	63.04
669.003	63.22
669.331	63.36
669.659	63.37
669.987	63.3
670.315	63.22
670.643	63.33
670.971	63.35
671.299	63.44
671.627	63.58
671.955	63.43
672.283	63.39
672.61	63.34
672.938	63.29
673.266	63.32
673.593	63.17
673.921	63.17
674.249	63.24
674.576	63.27
674.904	63.15
675.231	63.25
675.558	63.36
675.886	63.13
676.213	63.06
676.54	63.01
676.867	63.16
677.195	63.14
677.522	62.94
677.849	63.09
678.176	62.98
678.503	63.04
678.83	62.92
679.157	63.01
679.484	63.12
679.81	63.11
680.137	63.08
680.464	63.12
680.791	63.26
681.117	63.31
681.444	63.22
681.771	63.19
682.097	63.14
682.424	63.09
682.75	63.23
683.077	63.34
683.403	63.42
683.729	63.4
684.056	63.43
684.382	63.52
684.708	63.36
685.034	63.4
685.36	63.32
685.686	63.54
686.012	63.51
686.339	63.37
686.664	63.46
686.99	63.48
687.316	63.43
687.642	63.37
687.968	63.41
688.294	63.46
688.619	63.57
688.945	63.59
689.271	63.59
689.596	63.75
689.922	63.63
690.247	63.62
690.573	63.62
690.898	63.69
691.224	63.86
691.549	64.05
691.874	64.06
692.2	63.91
692.525	63.81
692.85	63.76
693.175	63.77
693.5	63.66
693.825	63.61
694.15	63.55
694.475	63.47
694.8	63.36
695.125	63.32
695.45	63.36
695.775	63.22
696.099	63.4
696.424	63.08
696.749	63.15
697.073	63.18
697.398	63.26
697.723	63.2
698.047	63.13
698.372	63.07
698.696	63.17
699.02	63.36
699.345	63.45
699.669	63.49
699.993	63.54
700.318	63.47
700.642	63.55
700.966	63.62
701.29	63.76
701.614	63.82
701.938	63.85
702.262	64.01
702.586	63.98
702.91	63.85
703.234	63.93
703.557	64
703.881	64.02
704.205	63.9
704.529	63.96
704.852	63.81
705.176	63.7
705.499	63.63
705.823	63.75
706.146	63.69
706.47	63.7
706.793	63.77
707.117	63.82
707.44	63.52
707.763	63.78
708.086	63.55
708.409	63.61
708.733	63.63
709.056	63.49
709.379	63.83
709.702	63.98
710.025	63.93
710.348	63.87
710.671	63.73
710.993	63.8
711.316	63.86
711.639	63.89
711.962	63.94
712.284	63.99
712.607	63.94
712.93	63.9
713.252	63.88
713.575	63.8
713.897	63.89
714.22	64.14
714.542	64.06
714.864	64.28
715.187	64.21
715.509	64.33
715.831	64.34
716.153	64.29
716.475	64.14
716.798	64.37
717.12	64.46
717.442	64.73
717.764	64.85
718.085	64.93
718.407	64.96
718.729	65.04
719.051	65.11
719.373	64.8
719.695	64.86
720.016	64.94
720.338	64.96
720.659	64.92
720.981	64.98
721.302	64.81
721.624	64.74
721.945	64.81
722.267	64.85
722.588	64.92
722.909	64.74
723.231	64.59
723.552	64.39
723.873	64.34
724.194	64.07
724.515	63.97
724.836	63.68
725.157	63.61
725.478	63.48
725.799	63.45
726.12	63.61
726.441	63.62
726.762	63.63
727.083	63.51
727.403	63.59
727.724	63.44
728.045	63.4
728.365	63.22
728.686	63.25
729.006	63.01
729.327	62.98
729.647	62.92
729.967	63.02
730.288	63.29
730.608	62.98
730.928	63.09
731.249	63.02
731.569	63.23
731.889	63.35
732.209	63.33
732.529	63.4
732.849	63.37
733.169	63.41
733.489	63.44
733.809	63.53
734.129	63.46
734.448	63.55
734.768	63.61
735.088	63.91
735.408	63.93
735.727	63.83
736.047	63.93
736.366	64.06
736.686	64.09
737.005	63.95
737.325	64.3
737.644	64.39
737.963	64.28
738.283	64.04
738.602	64.13
738.921	64.44
739.24	64.52
739.56	64.62
739.879	64.69
740.198	64.8
740.517	64.6
740.836	64.65
741.155	64.82
741.473	64.72
741.792	64.42
742.111	64.42
742.43	64.72
742.748	64.77
743.067	64.77
743.386	64.77
743.704	64.83
744.023	64.73
744.341	64.64
744.66	64.79
744.978	65.25
745.297	65.14
745.615	65.08
745.933	64.73
746.252	64.77
746.57	64.67
746.888	64.51
747.206	65.06
747.524	64.93
747.842	64.57
748.16	64.7
748.478	65.12
748.796	65.45
749.114	65.53
749.432	65.5
749.749	65.41
750.067	65.37
750.385	65.53
750.703	65.42
751.02	65.27
751.338	65.13
751.655	64.38
751.973	64.41
752.29	64.12
752.608	64.34
752.925	64.2
753.242	64.28
753.56	64.49
753.877	64.14
754.194	64.54
754.511	64.95
754.828	65.13
755.145	64.93
755.462	64.42
755.779	64.49
756.096	64.35
756.413	64.42
756.73	64.24
757.047	64
757.364	63.95
757.68	64.12
757.997	64.06
758.314	64.81
758.63	64.94
758.947	65
759.264	64.98
759.58	65.16
759.896	65.17
760.213	65.28
760.529	65.06
760.846	64.82
761.162	64.48
761.478	64.62
761.794	64.88
762.11	64.98
762.426	64.6
762.743	64.7
763.059	64.68
763.375	64.74
763.69	64.66
764.006	64.62
764.322	64.85
764.638	65.22
764.954	65.11
765.27	64.89
765.585	65.22
765.901	65.06
766.216	64.81
766.532	64.84
766.848	64.61
767.163	64.72
767.478	64.81
767.794	65.06
768.109	64.61
768.424	64.07
768.74	64.08
769.055	64.37
769.37	64.39
769.685	64.31
770	64.52
770.315	64.77
770.63	64.56
770.945	64.47
771.26	64.19
771.575	64.13
771.89	64.01
772.205	63.68
772.52	63.43
772.834	63.8
773.149	63.46
773.464	63.21
773.778	63.48
774.093	63.19
774.407	63.01
774.722	63.51
775.036	63.62
775.351	63.64
775.665	63.61
775.979	63.61
776.293	63.59
776.608	63.41
776.922	63.1
777.236	63.57
777.55	63.25
777.864	63.16
778.178	62.86
778.492	62.99
778.806	62.83
779.12	63.27
779.434	63.34
779.747	63.87
780.061	64.15
780.375	64.02
780.689	63.77
781.002	63.7
781.316	63.61
781.629	63.6
781.943	63.17
782.256	62.61
782.57	62.51
782.883	62.92
783.196	63.06
783.51	63.19
783.823	63.41
784.136	63.54
784.449	63.29
784.762	63.26
785.075	63.45
785.388	63.62
785.701	63.9
786.014	63.29
786.327	62.82
786.64	62.38
786.953	62.14
787.266	62.44
787.578	62.89
787.891	63.21
788.204	63.21
788.516	63.75
788.829	64.13
789.141	63.66
789.454	63.54
789.766	63.78
790.079	63.88
790.391	64.18
790.703	64.21
791.016	64.49
791.328	64.52
791.64	64.48
791.952	64.77
792.264	64.57
792.576	65.03
792.888	65.02
793.2	65.23
793.512	65.71
793.824	65.87
794.136	65.36
794.448	64.92
794.76	65.24
795.071	65.09
795.383	65.03
795.695	65.78
796.006	65.35
796.318	65.18
796.629	64.97
796.941	64.67
797.252	64.27
797.564	64.37
797.875	64.56
798.186	64.56
798.497	64.62
798.809	63.99
799.12	63.69
799.431	63.75
799.742	63.25
800.053	62.69
800.364	62.08
800.675	61.76
800.986	61.53
801.297	61.66
801.608	61.48
801.918	61.72
802.229	60.9
802.54	61.51
802.851	61.43
803.161	62.07
803.472	62.35
803.782	63.13
804.093	63.13
804.403	63.14
804.714	63.43
805.024	62.96
805.334	63.27
805.645	64.13
805.955	64.59
806.265	65.33
806.575	65.81
806.885	66.87
807.195	67.52
807.505	67.59
807.815	66.96
808.125	67.09
808.435	66.99
808.745	67.53
809.055	67.15
809.365	66.7
809.674	65.93
809.984	65.34
810.294	64.66
810.603	63.56
810.913	63.24
811.222	63.24
811.532	63.59
811.841	64.16
812.151	63.27
812.46	62.53
812.769	62.8
813.079	62.77
813.388	62.16
813.697	62.5
814.006	62.59
814.315	62.88
814.624	63.66
814.933	63.22
815.242	63.5
815.551	63.66
815.86	64.2
816.169	64.07
816.478	64.25
816.786	63.89
817.095	65.04
817.404	64.72
817.712	65.22
818.021	65.13
818.33	64.62
818.638	64.69
818.947	64.65
819.255	64.88
819.563	65.16
819.872	65.58
820.18	65.41
820.488	65.58
820.796	65.56
821.105	65.02
821.413	65.28
821.721	65.05
822.029	65.11
822.337	65.21
822.645	65.48
822.953	65.54
823.26	65.75
823.568	65.96
823.876	66.24
824.184	66.2
824.491	66.19
824.799	66.29
825.107	66.38
825.414	66.69
825.722	66.59
826.029	66.32
826.337	66.13
826.644	66.24
826.951	66.34
827.259	66.59
827.566	67.01
827.873	67.01
828.18	67.17
828.488	67.45
828.795	67.48
829.102	67.46
829.409	67.63
829.716	67.65
830.023	67.49
830.329	67.31
830.636	67.29
830.943	67.4
831.25	67.64
831.557	67.86
831.863	67.07
832.17	67.27
832.476	68.06
832.783	68.18
833.089	68.2
833.396	67.92
833.702	68.09
834.009	67.47
834.315	67.75
834.621	68.04
834.928	67.35
835.234	67.45
835.54	67.2
835.846	66.84
836.152	66.7
836.458	66.38
836.764	67.2
837.07	66.31
837.376	65.59
837.682	64.72
837.988	64.72
838.293	65.66
838.599	65.72
838.905	64.94
839.211	64.98
839.516	64.52
839.822	65
840.127	64.51
840.433	65.21
840.738	64.53
841.044	63.66
841.349	64.62
841.654	64.44
841.959	64.86
842.265	65.98
842.57	64.48
842.875	64.81
843.18	64.1
843.485	65.99
843.79	67.07
844.095	68.91
844.4	67.81
844.705	68.11
845.01	66.82
845.315	66.85
845.619	66.68
845.924	67.07
846.229	66.22
846.533	67.33
846.838	65.65
847.142	66.11
847.447	66.09
847.751	65.09
848.056	65
848.36	65.99
848.664	64.56
848.969	66.93
849.273	65.39
849.577	64.86
849.881	62.26
850.185	62.93
850.489	62.45
850.794	63
851.097	61.66
851.401	62.82
851.705	63.91
852.009	65.39
852.313	62.86
852.617	61.63
852.92	60.44
853.224	62.8
853.528	60.91
853.831	63.44
854.135	62.46
854.438	62.12
854.742	60.63
855.045	60.46
855.349	60.21
855.652	61.32
855.955	59.87
856.259	61.31
856.562	61.62
856.865	61
857.168	60.62
857.471	61.16
857.774	61.86
858.077	62.39
858.38	61.58
858.683	64.8
858.986	66.37
859.289	65.03
859.592	65.43
859.894	66.61
860.197	67.03
860.5	70.02
860.802	70.99
861.105	70.69
861.407	71.64
861.71	70.5
862.012	72.1
862.315	70.74
862.617	71.11
862.919	69.37
863.222	69.69
863.524	72.01
863.826	70.98
864.128	68.83
864.43	65.24
864.732	66.82
865.034	65.75
865.336	63.91
865.638	64.32
865.94	63.35
866.242	65.45
866.544	64.11
866.846	61.34
867.147	59.37
867.449	58.92
867.751	57.12
868.052	59.08
868.354	58.28
868.655	59.72
868.957	59.77
869.258	59.09
869.56	58.57
869.861	57.52
870.162	56.57
870.463	57.67
870.765	59.53
871.066	56.74
871.367	57.93
871.668	58.28
871.969	58.74
872.27	54.79
872.571	54.93
872.872	53.11
873.173	53.7
873.473	54.45
873.774	54.79
874.075	56.52
874.376	55.17
874.676	56.06
874.977	55.63
875.277	54.15
875.578	54.05
875.878	54.16
876.179	53.63
876.479	54.03
876.78	53
877.08	52.81
877.38	53.5
877.68	51.61
877.981	52.16
878.281	50.41
878.581	55.83
