Data from BU57737_Reflection_00014.txt Node
Date: Mon Nov 18 16:30:10 EST 2019
User: vgr7
Spectrometer: USB2G7710
Scans to average: 3
Trigger mode: 4
Integration Time (sec): 2.000000E-2
Electric dark correction enabled: true
Boxcar width: 10
XAxis mode: Wavelengths
Number of Pixels in Spectrum: 2048
>>>>>Begin Spectral Data<<<<<
177.721	10.04
178.105	179.37
178.488	40.54
178.871	45.22
179.254	79.72
179.636	-56.46
180.019	83.58
180.402	96.15
180.785	-49.29
181.168	540.48
181.55	33.93
181.933	69.3
182.316	83.23
182.698	145.74
183.081	286.24
183.463	319.34
183.846	147.99
184.228	158.87
184.611	222.09
184.993	229.24
185.376	227.26
185.758	172
186.14	185.02
186.522	132.32
186.904	108.94
187.287	118.24
187.669	129.12
188.051	205.32
188.433	302.07
188.815	269.64
189.197	262.51
189.579	287.21
189.961	674.71
190.342	758.87
190.724	955.64
191.106	-5320.29
191.488	140766.67
191.869	-375.51
192.251	-529.47
192.633	-314.66
193.014	-174.15
193.396	-184.57
193.777	-173.27
194.159	-179.51
194.54	-127.44
194.922	-103.47
195.303	-77.37
195.684	-73.22
196.065	-46.88
196.447	-52.7
196.828	-74.75
197.209	-53.88
197.59	-47.97
197.971	-45.09
198.352	-48.23
198.733	-54.92
199.114	-77.24
199.495	-78.95
199.876	-74.93
200.257	-76.85
200.638	-80.37
201.018	-85.94
201.399	-62.56
201.78	-61.18
202.16	-71.31
202.541	-133.17
202.922	-186.81
203.302	-232.73
203.683	-282.33
204.063	-538.4
204.444	-1250.14
204.824	-487.69
205.204	-723.93
205.585	-447.19
205.965	-273.06
206.345	-638.82
206.725	-923.66
207.106	-874.95
207.486	-662.74
207.866	-1431.35
208.246	10706.06
208.626	38988.89
209.006	-606.31
209.386	3137.04
209.766	1012.53
210.145	1252.1
210.525	-203.58
210.905	-178.45
211.285	-115.25
211.664	-111.15
212.044	-97.7
212.424	-94.85
212.803	-134.74
213.183	-130.59
213.562	-136.75
213.942	-141.84
214.321	-77.11
214.701	-66.99
215.08	-53.16
215.459	-44.28
215.838	-46.01
216.218	-58.53
216.597	-52.36
216.976	-61.62
217.355	-44.18
217.734	-54.19
218.113	-44.13
218.492	-57.45
218.871	-60.26
219.25	-87.2
219.629	-106.58
220.008	-102.07
220.387	-89.57
220.766	-67.25
221.144	-63.56
221.523	-60.15
221.902	-70.2
222.28	-88.26
222.659	-85.71
223.037	-62.31
223.416	-87.58
223.794	-75.56
224.173	-52.74
224.551	-36.56
224.929	-33.12
225.308	-30.56
225.686	-20.15
226.064	-20.74
226.442	-18.78
226.821	-10.19
227.199	-6.68
227.577	-6.17
227.955	-4.57
228.333	-4.11
228.711	-2.26
229.089	0.74
229.467	-1.89
229.845	-0.51
230.222	-1.15
230.6	-2.48
230.978	-3.24
231.356	0.57
231.733	1.71
232.111	2.21
232.488	0.61
232.866	1.81
233.243	0.86
233.621	-0.65
233.998	0.32
234.376	-0.22
234.753	-2.29
235.13	-3.13
235.508	-0.08
235.885	-0.6
236.262	-1.27
236.639	-3.01
237.016	-2.7
237.393	-0.97
237.77	-0.8
238.147	-0.33
238.524	0.11
238.901	0.77
239.278	1.33
239.655	1.7
240.032	1.88
240.409	1.67
240.785	2.07
241.162	2.83
241.539	3.21
241.915	2.79
242.292	2.36
242.668	2.53
243.045	2.6
243.421	2.34
243.798	2.14
244.174	2.18
244.551	2.31
244.927	2.23
245.303	2.22
245.679	2.49
246.056	2.58
246.432	2.56
246.808	2.34
247.184	2.1
247.56	1.8
247.936	1.74
248.312	2
248.688	1.79
249.064	1.6
249.44	1.5
249.815	1.46
250.191	1.6
250.567	1.56
250.943	1.55
251.318	1.55
251.694	1.74
252.069	1.84
252.445	1.84
252.82	1.87
253.196	1.84
253.571	1.64
253.947	1.55
254.322	1.88
254.697	2.15
255.073	2.04
255.448	2.04
255.823	2.11
256.198	2.22
256.573	2.34
256.948	2.34
257.323	2.43
257.698	2.41
258.073	2.57
258.448	2.68
258.823	2.74
259.198	2.54
259.573	2.43
259.948	2.4
260.322	2.47
260.697	2.41
261.072	2.32
261.446	2.36
261.821	2.22
262.195	2.23
262.57	2.15
262.944	2.26
263.319	2.34
263.693	2.33
264.067	2.19
264.442	2.28
264.816	2.3
265.19	2.28
265.564	2.44
265.938	2.36
266.313	2.08
266.687	2.07
267.061	2.2
267.435	2.22
267.809	2.2
268.183	2.09
268.556	2.02
268.93	2.2
269.304	2.13
269.678	2.33
270.051	2.29
270.425	2.34
270.799	2.29
271.172	2.25
271.546	2.13
271.919	2.15
272.293	2.11
272.666	2.08
273.04	2.23
273.413	2.09
273.787	2.04
274.16	2.19
274.533	2.04
274.906	2.09
275.279	2.1
275.653	2.1
276.026	2.18
276.399	2.17
276.772	2.08
277.145	1.98
277.518	1.96
277.891	2.11
278.263	2.04
278.636	1.89
279.009	1.82
279.382	1.97
279.755	1.79
280.127	1.78
280.5	1.81
280.872	1.64
281.245	1.53
281.617	1.61
281.99	1.61
282.362	1.72
282.735	1.61
283.107	1.63
283.479	1.76
283.852	1.77
284.224	1.76
284.596	1.83
284.968	1.98
285.34	1.95
285.713	1.83
286.085	1.86
286.457	2.07
286.829	2.07
287.201	2.14
287.572	2.24
287.944	2.19
288.316	2.28
288.688	2.33
289.06	2.43
289.431	2.45
289.803	2.45
290.175	2.53
290.546	2.76
290.918	2.82
291.289	2.82
291.661	2.76
292.032	2.91
292.403	2.9
292.775	2.97
293.146	2.9
293.517	2.91
293.889	3.03
294.26	3.01
294.631	3.15
295.002	3.01
295.373	3.03
295.744	3.1
296.115	3.03
296.486	2.93
296.857	2.99
297.228	2.98
297.599	2.97
297.97	2.92
298.34	3.03
298.711	3.1
299.082	3.09
299.452	3.19
299.823	3.34
300.194	3.38
300.564	3.3
300.935	3.55
301.305	3.49
301.676	3.44
302.046	3.52
302.416	3.55
302.787	3.77
303.157	3.77
303.527	3.86
303.897	3.84
304.267	4.1
304.637	4.14
305.008	4.22
305.378	4.32
305.748	4.41
306.117	4.23
306.487	4.26
306.857	4.31
307.227	4.39
307.597	4.3
307.967	4.29
308.336	4.34
308.706	4.26
309.076	4.39
309.445	4.44
309.815	4.64
310.184	4.73
310.554	4.66
310.923	4.73
311.293	4.66
311.662	4.78
312.031	4.86
312.401	4.95
312.77	5.11
313.139	5.26
313.508	5.47
313.877	5.39
314.246	5.46
314.616	5.41
314.985	5.48
315.353	5.46
315.722	5.77
316.091	5.89
316.46	5.91
316.829	6.01
317.198	6.08
317.567	5.82
317.935	5.87
318.304	6.01
318.672	6.05
319.041	6.35
319.41	6.49
319.778	6.37
320.147	6.51
320.515	6.53
320.883	6.36
321.252	6.25
321.62	6.46
321.988	6.34
322.357	6.55
322.725	6.47
323.093	6.64
323.461	6.44
323.829	6.54
324.197	6.58
324.565	6.53
324.933	6.54
325.301	6.77
325.669	6.82
326.037	6.73
326.405	6.96
326.772	6.91
327.14	6.98
327.508	7.01
327.875	6.89
328.243	6.93
328.61	7.08
328.978	7.19
329.346	7.38
329.713	7.41
330.08	7.53
330.448	7.63
330.815	7.57
331.182	7.64
331.55	7.6
331.917	7.75
332.284	7.94
332.651	7.94
333.018	7.78
333.385	7.73
333.752	7.87
334.119	7.85
334.486	7.85
334.853	7.84
335.22	7.96
335.587	8.07
335.954	8.07
336.32	8.09
336.687	8.14
337.054	8.13
337.42	8.22
337.787	8.21
338.153	8.27
338.52	8.42
338.886	8.39
339.253	8.39
339.619	8.41
339.986	8.35
340.352	8.46
340.718	8.57
341.084	8.62
341.451	8.73
341.817	8.71
342.183	8.62
342.549	8.54
342.915	8.52
343.281	8.5
343.647	8.45
344.013	8.49
344.379	8.36
344.745	8.27
345.11	8.25
345.476	8.18
345.842	8.2
346.208	8.11
346.573	8.34
346.939	8.44
347.304	8.37
347.67	8.31
348.035	8.29
348.401	8.26
348.766	8.27
349.132	8.24
349.497	8.25
349.862	8.37
350.228	8.35
350.593	8.35
350.958	8.31
351.323	8.32
351.688	8.26
352.053	8.34
352.418	8.45
352.783	8.46
353.148	8.5
353.513	8.46
353.878	8.5
354.243	8.36
354.608	8.29
354.972	8.35
355.337	8.46
355.702	8.46
356.066	8.39
356.431	8.35
356.795	8.26
357.16	8.18
357.524	8.1
357.889	8.03
358.253	8
358.618	8.05
358.982	8
359.346	7.97
359.71	7.95
360.075	7.89
360.439	7.87
360.803	7.75
361.167	7.73
361.531	7.61
361.895	7.57
362.259	7.56
362.623	7.5
362.987	7.35
363.351	7.34
363.714	7.41
364.078	7.36
364.442	7.31
364.806	7.24
365.169	7.2
365.533	7.21
365.896	7.14
366.26	7.07
366.623	7.05
366.987	6.99
367.35	6.87
367.714	6.78
368.077	6.71
368.44	6.68
368.803	6.57
369.167	6.59
369.53	6.47
369.893	6.43
370.256	6.38
370.619	6.41
370.982	6.26
371.345	6.11
371.708	6.13
372.071	6.08
372.434	6.07
372.797	6.01
373.159	5.96
373.522	5.91
373.885	5.85
374.247	5.82
374.61	5.78
374.973	5.66
375.335	5.61
375.698	5.56
376.06	5.54
376.423	5.53
376.785	5.51
377.147	5.49
377.51	5.42
377.872	5.31
378.234	5.25
378.596	5.26
378.958	5.21
379.321	5.12
379.683	5.08
380.045	5.03
380.407	4.95
380.769	4.88
381.13	4.88
381.492	4.81
381.854	4.73
382.216	4.67
382.578	4.7
382.939	4.68
383.301	4.68
383.663	4.61
384.024	4.54
384.386	4.5
384.747	4.42
385.109	4.34
385.47	4.31
385.832	4.26
386.193	4.24
386.554	4.24
386.916	4.21
387.277	4.18
387.638	4.16
387.999	4.1
388.36	4.09
388.721	4.04
389.082	3.99
389.443	3.93
389.804	3.89
390.165	3.82
390.526	3.79
390.887	3.69
391.248	3.69
391.609	3.67
391.969	3.63
392.33	3.62
392.691	3.62
393.051	3.62
393.412	3.59
393.772	3.53
394.133	3.48
394.493	3.42
394.854	3.4
395.214	3.37
395.574	3.38
395.935	3.34
396.295	3.31
396.655	3.27
397.015	3.28
397.376	3.24
397.736	3.24
398.096	3.19
398.456	3.16
398.816	3.16
399.176	3.14
399.535	3.09
399.895	3.06
400.255	3.02
400.615	3
400.975	3.01
401.334	3.02
401.694	3.01
402.054	3
402.413	2.97
402.773	2.92
403.132	2.95
403.492	2.9
403.851	2.9
404.211	2.9
404.57	2.85
404.929	2.88
405.288	2.86
405.648	2.84
406.007	2.87
406.366	2.8
406.725	2.76
407.084	2.78
407.443	2.76
407.802	2.77
408.161	2.73
408.52	2.69
408.879	2.65
409.238	2.62
409.596	2.62
409.955	2.59
410.314	2.6
410.673	2.54
411.031	2.53
411.39	2.51
411.748	2.49
412.107	2.53
412.465	2.52
412.824	2.49
413.182	2.5
413.54	2.48
413.899	2.52
414.257	2.5
414.615	2.49
414.974	2.5
415.332	2.48
415.69	2.48
416.048	2.47
416.406	2.47
416.764	2.47
417.122	2.48
417.48	2.48
417.838	2.48
418.195	2.47
418.553	2.47
418.911	2.47
419.269	2.47
419.626	2.46
419.984	2.45
420.342	2.45
420.699	2.44
421.057	2.44
421.414	2.42
421.772	2.41
422.129	2.41
422.486	2.41
422.844	2.4
423.201	2.38
423.558	2.38
423.915	2.39
424.273	2.39
424.63	2.36
424.987	2.36
425.344	2.34
425.701	2.35
426.058	2.34
426.415	2.32
426.772	2.31
427.128	2.3
427.485	2.29
427.842	2.29
428.199	2.27
428.555	2.27
428.912	2.27
429.269	2.27
429.625	2.26
429.982	2.25
430.338	2.24
430.695	2.27
431.051	2.26
431.407	2.26
431.764	2.24
432.12	2.23
432.476	2.21
432.832	2.21
433.189	2.22
433.545	2.22
433.901	2.22
434.257	2.23
434.613	2.22
434.969	2.22
435.325	2.21
435.681	2.2
436.036	2.2
436.392	2.21
436.748	2.2
437.104	2.17
437.459	2.17
437.815	2.19
438.171	2.18
438.526	2.18
438.882	2.18
439.237	2.2
439.593	2.21
439.948	2.22
440.304	2.21
440.659	2.2
441.014	2.19
441.369	2.19
441.725	2.18
442.08	2.18
442.435	2.17
442.79	2.18
443.145	2.2
443.5	2.18
443.855	2.16
444.21	2.17
444.565	2.18
444.92	2.19
445.275	2.18
445.629	2.19
445.984	2.18
446.339	2.17
446.693	2.14
447.048	2.13
447.403	2.12
447.757	2.13
448.112	2.11
448.466	2.1
448.82	2.1
449.175	2.12
449.529	2.12
449.883	2.12
450.238	2.1
450.592	2.1
450.946	2.11
451.3	2.12
451.654	2.11
452.008	2.12
452.362	2.09
452.716	2.09
453.07	2.08
453.424	2.08
453.778	2.07
454.132	2.07
454.486	2.05
454.839	2.06
455.193	2.06
455.547	2.08
455.9	2.09
456.254	2.08
456.607	2.07
456.961	2.07
457.314	2.08
457.668	2.1
458.021	2.08
458.375	2.07
458.728	2.06
459.081	2.07
459.434	2.07
459.787	2.08
460.141	2.08
460.494	2.08
460.847	2.09
461.2	2.08
461.553	2.1
461.906	2.11
462.259	2.11
462.611	2.12
462.964	2.13
463.317	2.12
463.67	2.13
464.022	2.15
464.375	2.14
464.728	2.17
465.08	2.16
465.433	2.19
465.785	2.22
466.138	2.22
466.49	2.22
466.843	2.21
467.195	2.22
467.547	2.22
467.899	2.2
468.252	2.2
468.604	2.22
468.956	2.21
469.308	2.23
469.66	2.23
470.012	2.23
470.364	2.23
470.716	2.24
471.068	2.25
471.42	2.24
471.772	2.26
472.123	2.25
472.475	2.26
472.827	2.24
473.178	2.25
473.53	2.26
473.882	2.28
474.233	2.29
474.585	2.3
474.936	2.32
475.288	2.34
475.639	2.34
475.99	2.33
476.342	2.33
476.693	2.34
477.044	2.33
477.395	2.34
477.746	2.33
478.097	2.34
478.448	2.32
478.8	2.31
479.15	2.29
479.501	2.27
479.852	2.26
480.203	2.26
480.554	2.26
480.905	2.25
481.255	2.24
481.606	2.24
481.957	2.25
482.307	2.24
482.658	2.24
483.009	2.24
483.359	2.25
483.709	2.26
484.06	2.25
484.41	2.25
484.761	2.25
485.111	2.25
485.461	2.25
485.811	2.24
486.162	2.24
486.512	2.25
486.862	2.25
487.212	2.26
487.562	2.27
487.912	2.26
488.262	2.27
488.612	2.27
488.961	2.27
489.311	2.27
489.661	2.27
490.011	2.27
490.36	2.26
490.71	2.26
491.06	2.25
491.409	2.26
491.759	2.26
492.108	2.26
492.458	2.26
492.807	2.27
493.157	2.29
493.506	2.28
493.855	2.3
494.204	2.31
494.554	2.3
494.903	2.28
495.252	2.28
495.601	2.28
495.95	2.3
496.299	2.3
496.648	2.29
496.997	2.31
497.346	2.33
497.695	2.34
498.043	2.34
498.392	2.35
498.741	2.35
499.09	2.37
499.438	2.38
499.787	2.39
500.135	2.41
500.484	2.42
500.832	2.47
501.181	2.49
501.529	2.5
501.878	2.54
502.226	2.57
502.574	2.61
502.923	2.65
503.271	2.66
503.619	2.7
503.967	2.74
504.315	2.75
504.663	2.79
505.011	2.82
505.359	2.86
505.707	2.9
506.055	2.93
506.403	2.96
506.751	2.99
507.098	3.04
507.446	3.07
507.794	3.1
508.141	3.12
508.489	3.15
508.837	3.21
509.184	3.25
509.531	3.29
509.879	3.36
510.226	3.39
510.574	3.44
510.921	3.49
511.268	3.53
511.616	3.58
511.963	3.63
512.31	3.66
512.657	3.74
513.004	3.81
513.351	3.89
513.698	3.99
514.045	4.08
514.392	4.15
514.739	4.22
515.086	4.3
515.432	4.41
515.779	4.46
516.126	4.52
516.473	4.59
516.819	4.68
517.166	4.75
517.512	4.84
517.859	4.92
518.205	5
518.552	5.08
518.898	5.17
519.245	5.24
519.591	5.33
519.937	5.39
520.283	5.46
520.629	5.56
520.976	5.65
521.322	5.76
521.668	5.86
522.014	5.98
522.36	6.09
522.706	6.2
523.052	6.37
523.398	6.53
523.743	6.7
524.089	6.85
524.435	6.99
524.781	7.15
525.126	7.3
525.472	7.43
525.817	7.57
526.163	7.68
526.509	7.81
526.854	7.94
527.199	8.05
527.545	8.16
527.89	8.26
528.235	8.35
528.581	8.46
528.926	8.56
529.271	8.69
529.616	8.79
529.961	8.91
530.306	9.03
530.651	9.17
530.996	9.3
531.341	9.43
531.686	9.58
532.031	9.72
532.376	9.88
532.721	10.05
533.065	10.22
533.41	10.4
533.755	10.59
534.099	10.77
534.444	10.97
534.788	11.16
535.133	11.35
535.477	11.58
535.822	11.79
536.166	12.04
536.51	12.29
536.855	12.58
537.199	12.87
537.543	13.15
537.887	13.46
538.231	13.75
538.576	14.07
538.92	14.36
539.264	14.64
539.608	14.9
539.951	15.14
540.295	15.38
540.639	15.63
540.983	15.87
541.327	16.1
541.671	16.32
542.014	16.57
542.358	16.82
542.701	17.07
543.045	17.32
543.389	17.56
543.732	17.81
544.075	18.05
544.419	18.31
544.762	18.58
545.105	18.88
545.449	19.16
545.792	19.44
546.135	19.75
546.478	20.07
546.821	20.43
547.165	20.81
547.508	21.16
547.851	21.52
548.194	21.87
548.536	22.24
548.879	22.66
549.222	23.02
549.565	23.41
549.908	23.79
550.25	24.17
550.593	24.5
550.936	24.9
551.278	25.29
551.621	25.65
551.963	26.04
552.306	26.35
552.648	26.73
552.991	27.13
553.333	27.5
553.675	27.86
554.017	28.21
554.36	28.51
554.702	28.83
555.044	29.13
555.386	29.46
555.728	29.77
556.07	30.09
556.412	30.35
556.754	30.68
557.096	31.01
557.438	31.33
557.78	31.7
558.121	32.03
558.463	32.38
558.805	32.73
559.147	33.02
559.488	33.36
559.83	33.67
560.171	34
560.513	34.28
560.854	34.59
561.196	34.85
561.537	35.13
561.878	35.46
562.22	35.77
562.561	36.04
562.902	36.32
563.243	36.61
563.584	36.9
563.925	37.13
564.266	37.34
564.607	37.61
564.948	37.83
565.289	38.06
565.63	38.3
565.971	38.54
566.312	38.79
566.653	39
566.993	39.22
567.334	39.44
567.675	39.66
568.015	39.9
568.356	40.12
568.696	40.36
569.037	40.6
569.377	40.88
569.718	41.13
570.058	41.36
570.398	41.53
570.739	41.83
571.079	42.05
571.419	42.26
571.759	42.49
572.099	42.71
572.439	42.85
572.779	43.02
573.119	43.21
573.459	43.42
573.799	43.64
574.139	43.85
574.479	44.04
574.819	44.22
575.158	44.41
575.498	44.64
575.838	44.86
576.177	45.04
576.517	45.2
576.856	45.43
577.196	45.61
577.535	45.8
577.875	45.92
578.214	46.1
578.553	46.31
578.893	46.43
579.232	46.59
579.571	46.85
579.91	47.02
580.25	47.23
580.589	47.38
580.928	47.53
581.267	47.66
581.606	47.73
581.945	47.93
582.283	48.07
582.622	48.16
582.961	48.25
583.3	48.28
583.639	48.43
583.977	48.53
584.316	48.67
584.654	48.85
584.993	48.91
585.332	49.01
585.67	49.22
586.008	49.36
586.347	49.51
586.685	49.57
587.024	49.7
587.362	49.76
587.7	49.9
588.038	50.09
588.376	50.22
588.715	50.36
589.053	50.46
589.391	50.51
589.729	50.68
590.067	50.74
590.404	50.84
590.742	50.9
591.08	51.04
591.418	51.16
591.756	51.22
592.093	51.43
592.431	51.54
592.769	51.58
593.106	51.63
593.444	51.76
593.781	51.93
594.119	52.07
594.456	52.13
594.793	52.16
595.131	52.12
595.468	52.19
595.805	52.23
596.143	52.28
596.48	52.42
596.817	52.47
597.154	52.57
597.491	52.71
597.828	52.79
598.165	52.78
598.502	52.83
598.839	52.93
599.176	52.96
599.512	53.02
599.849	53.13
600.186	53.2
600.523	53.22
600.859	53.3
601.196	53.31
601.532	53.4
601.869	53.55
602.205	53.65
602.542	53.71
602.878	53.79
603.215	53.84
603.551	53.88
603.887	53.93
604.223	54
604.56	54.05
604.896	54.09
605.232	54.23
605.568	54.25
605.904	54.27
606.24	54.28
606.576	54.4
606.912	54.4
607.248	54.45
607.583	54.55
607.919	54.61
608.255	54.71
608.591	54.76
608.926	54.74
609.262	54.8
609.597	54.82
609.933	54.96
610.268	55.06
610.604	55.14
610.939	55.1
611.275	55.09
611.61	55.12
611.945	55.23
612.281	55.25
612.616	55.36
612.951	55.37
613.286	55.45
613.621	55.5
613.956	55.54
614.291	55.69
614.626	55.75
614.961	55.67
615.296	55.61
615.631	55.72
615.966	55.76
616.3	55.84
616.635	55.9
616.97	55.81
617.304	55.85
617.639	55.79
617.973	55.9
618.308	55.9
618.642	55.96
618.977	55.92
619.311	55.94
619.646	55.97
619.98	56.16
620.314	56.26
620.648	56.22
620.983	56.23
621.317	56.26
621.651	56.25
621.985	56.42
622.319	56.49
622.653	56.45
622.987	56.5
623.321	56.45
623.655	56.47
623.988	56.59
624.322	56.52
624.656	56.54
624.99	56.54
625.323	56.66
625.657	56.63
625.99	56.76
626.324	56.8
626.657	56.85
626.991	56.82
627.324	56.71
627.658	56.77
627.991	56.81
628.324	56.79
628.657	56.77
628.991	56.8
629.324	56.8
629.657	56.93
629.99	57
630.323	57.09
630.656	57.27
630.989	57.26
631.322	57.34
631.655	57.38
631.987	57.54
632.32	57.54
632.653	57.51
632.986	57.49
633.318	57.5
633.651	57.54
633.984	57.54
634.316	57.67
634.649	57.68
634.981	57.69
635.313	57.74
635.646	57.79
635.978	57.71
636.31	57.8
636.643	57.74
636.975	57.67
637.307	57.66
637.639	57.58
637.971	57.64
638.303	57.58
638.635	57.61
638.967	57.54
639.299	57.64
639.631	57.78
639.963	57.71
640.295	57.64
640.626	57.51
640.958	57.54
641.29	57.51
641.621	57.53
641.953	57.6
642.285	57.59
642.616	57.64
642.948	57.8
643.279	57.8
643.61	57.84
643.942	58
644.273	58.15
644.604	58.07
644.936	58.04
645.267	58.19
645.598	58.25
645.929	58.29
646.26	58.22
646.591	58.14
646.922	58.26
647.253	58.39
647.584	58.42
647.915	58.46
648.245	58.53
648.576	58.44
648.907	58.47
649.238	58.47
649.568	58.43
649.899	58.37
650.229	58.37
650.56	58.37
650.89	58.45
651.221	58.36
651.551	58.42
651.882	58.44
652.212	58.38
652.542	58.49
652.872	58.38
653.203	58.49
653.533	58.56
653.863	58.46
654.193	58.43
654.523	58.45
654.853	58.38
655.183	58.21
655.513	58.33
655.843	58.28
656.172	58.28
656.502	58.36
656.832	58.33
657.162	58.36
657.491	58.38
657.821	58.28
658.15	58.33
658.48	58.37
658.809	58.36
659.139	58.44
659.468	58.33
659.798	58.46
660.127	58.45
660.456	58.47
660.785	58.52
661.115	58.58
661.444	58.62
661.773	58.75
662.102	58.97
662.431	58.96
662.76	59.07
663.089	59.15
663.418	59.06
663.747	59.1
664.076	59.15
664.404	59.23
664.733	59.25
665.062	59.18
665.39	59.04
665.719	59.12
666.048	59.24
666.376	59.28
666.705	59.23
667.033	59.17
667.362	59.13
667.69	59.15
668.018	59.11
668.347	59.11
668.675	59.08
669.003	58.96
669.331	59.03
669.659	58.95
669.987	58.92
670.315	58.98
670.643	59.04
670.971	59.02
671.299	58.93
671.627	58.89
671.955	58.86
672.283	58.98
672.61	58.87
672.938	58.65
673.266	58.61
673.593	58.63
673.921	58.55
674.249	58.52
674.576	58.46
674.904	58.52
675.231	58.52
675.558	58.6
675.886	58.72
676.213	58.66
676.54	58.75
676.867	58.75
677.195	58.83
677.522	58.74
677.849	58.82
678.176	58.73
678.503	58.75
678.83	58.92
679.157	58.87
679.484	58.97
679.81	59
680.137	59.04
680.464	59.04
680.791	59.15
681.117	59.22
681.444	59.35
681.771	59.32
682.097	59.32
682.424	59.15
682.75	59.15
683.077	59.26
683.403	59.21
683.729	59.2
684.056	59.18
684.382	59.26
684.708	59.14
685.034	59.25
685.36	59.13
685.686	59.1
686.012	59.2
686.339	59.19
686.664	59.32
686.99	59.29
687.316	59.22
687.642	59.2
687.968	59.17
688.294	59.24
688.619	59.29
688.945	59.29
689.271	59.45
689.596	59.37
689.922	59.36
690.247	59.36
690.573	59.48
690.898	59.61
691.224	59.55
691.549	59.52
691.874	59.51
692.2	59.66
692.525	59.55
692.85	59.58
693.175	59.53
693.5	59.42
693.825	59.4
694.15	59.5
694.475	59.59
694.8	59.56
695.125	59.4
695.45	59.33
695.775	59.3
696.099	59.11
696.424	59.12
696.749	58.99
697.073	58.99
697.398	59.02
697.723	58.93
698.047	59.03
698.372	59.05
698.696	59
699.02	58.99
699.345	58.99
699.669	59.02
699.993	59.08
700.318	59.09
700.642	59.17
700.966	59.15
701.29	59.13
701.614	59.13
701.938	59.13
702.262	59.06
702.586	59.24
702.91	59.35
703.234	59.27
703.557	59.37
703.881	59.43
704.205	59.43
704.529	59.3
704.852	59.21
705.176	59.2
705.499	59.43
705.823	59.51
706.146	59.6
706.47	59.45
706.793	59.44
707.117	59.55
707.44	59.49
707.763	59.59
708.086	59.58
708.409	59.64
708.733	59.49
709.056	59.61
709.379	59.56
709.702	59.45
710.025	59.5
710.348	59.48
710.671	59.36
710.993	59.17
711.316	59.21
711.639	59.2
711.962	59.15
712.284	58.9
712.607	58.74
712.93	58.61
713.252	58.59
713.575	58.56
713.897	58.55
714.22	58.61
714.542	58.42
714.864	58.25
715.187	58.22
715.509	58.29
715.831	58.34
716.153	58.26
716.475	58.41
716.798	58.52
717.12	58.42
717.442	58.45
717.764	58.61
718.085	58.54
718.407	58.45
718.729	58.74
719.051	58.82
719.373	58.81
719.695	58.83
720.016	58.9
720.338	58.97
720.659	59.02
720.981	58.9
721.302	59.13
721.624	59.59
721.945	59.66
722.267	59.6
722.588	59.41
722.909	59.45
723.231	59.41
723.552	59.39
723.873	59.39
724.194	59.42
724.515	59.52
724.836	59.67
725.157	59.66
725.478	59.66
725.799	59.6
726.12	59.42
726.441	59.43
726.762	59.36
727.083	59.47
727.403	59.1
727.724	59.08
728.045	59.06
728.365	58.58
728.686	58.61
729.006	58.73
729.327	58.76
729.647	58.57
729.967	58.53
730.288	58.5
730.608	58.65
730.928	58.55
731.249	58.17
731.569	58.14
731.889	58.18
732.209	58.02
732.529	57.95
732.849	58.2
733.169	58.36
733.489	58.39
733.809	57.86
734.129	58.29
734.448	58.25
734.768	58.14
735.088	58.33
735.408	58.47
735.727	58.45
736.047	58.49
736.366	58.51
736.686	58.64
737.005	58.59
737.325	58.33
737.644	58.53
737.963	58.6
738.283	58.5
738.602	58.59
738.921	58.42
739.24	58.55
739.56	58.59
739.879	58.54
740.198	58.63
740.517	58.87
740.836	58.58
741.155	58.8
741.473	58.85
741.792	58.8
742.111	58.73
742.43	58.75
742.748	58.84
743.067	58.77
743.386	58.67
743.704	58.78
744.023	59.05
744.341	59.01
744.66	59.2
744.978	59.4
745.297	59.49
745.615	59.61
745.933	59.57
746.252	59.63
746.57	59.31
746.888	59.16
747.206	59.35
747.524	59.16
747.842	59.36
748.16	59.46
748.478	59.38
748.796	59.21
749.114	59.32
749.432	59.36
749.749	59.43
750.067	59.43
750.385	59.29
750.703	58.8
751.02	58.67
751.338	58.66
751.655	58.8
751.973	58.58
752.29	58.84
752.608	59.08
752.925	58.9
753.242	59.05
753.56	58.95
753.877	58.96
754.194	59.16
754.511	58.72
754.828	58.75
755.145	58.93
755.462	58.73
755.779	58.64
756.096	58.54
756.413	58.61
756.73	58.57
757.047	58.65
757.364	58.91
757.68	58.95
757.997	59.01
758.314	58.96
758.63	59.34
758.947	59.38
759.264	59.05
759.58	59.51
759.896	59.72
760.213	59.87
760.529	59.87
760.846	59.76
761.162	59.79
761.478	59.77
761.794	59.81
762.11	59.76
762.426	59.82
762.743	59.8
763.059	59.66
763.375	59.89
763.69	60
764.006	60.15
764.322	60.15
764.638	60.13
764.954	59.91
765.27	59.76
765.585	59.4
765.901	59.53
766.216	59.17
766.532	59.08
766.848	59.2
767.163	59.27
767.478	59.33
767.794	59.38
768.109	59.51
768.424	59.4
768.74	59.78
769.055	59.91
769.37	59.99
769.685	60.84
770	60.84
770.315	60.75
770.63	60.75
770.945	60.98
771.26	60.95
771.575	61
771.89	60.79
772.205	61.28
772.52	61.43
772.834	61.43
773.149	61.46
773.464	61.16
773.778	61.38
774.093	61.09
774.407	61.07
774.722	60.46
775.036	60.6
775.351	60.26
775.665	59.97
775.979	60.03
776.293	59.43
776.608	59.16
776.922	59.26
777.236	59.24
777.55	58.87
777.864	58.77
778.178	59.11
778.492	59.41
778.806	59.05
779.12	59.09
779.434	58.91
779.747	58.91
780.061	58.82
780.375	58.61
780.689	58.89
781.002	58.96
781.316	59.04
781.629	59.23
781.943	59.48
782.256	59.87
782.57	59.16
782.883	58.67
783.196	58.39
783.51	58.33
783.823	58.13
784.136	58.88
784.449	58.77
784.762	58.85
785.075	58.58
785.388	58.72
785.701	58.58
786.014	59.03
786.327	59.1
786.64	59.36
786.953	59.71
787.266	59.87
787.578	59.73
787.891	59.71
788.204	59.19
788.516	59.17
788.829	58.85
789.141	59.49
789.454	60.04
789.766	59.88
790.079	59.89
790.391	60.06
790.703	59.66
791.016	60.04
791.328	59.47
791.64	59.37
791.952	59.54
792.264	59.56
792.576	59.69
792.888	59.36
793.2	59.82
793.512	59.21
793.824	59.46
794.136	59.45
794.448	59.77
794.76	60.11
795.071	60.74
795.383	60.83
795.695	60.32
796.006	60.51
796.318	61.14
796.629	60.89
796.941	61.27
797.252	60.8
797.564	60.84
797.875	61.4
798.186	61.47
798.497	60.83
798.809	61.07
799.12	60.99
799.431	61.3
799.742	61.11
800.053	61.06
800.364	61.08
800.675	61.29
800.986	61.23
801.297	60.68
801.608	59.77
801.918	59.32
802.229	59.69
802.54	58.61
802.851	58.35
803.161	58.07
803.472	58.05
803.782	57.97
804.093	58.07
804.403	57.65
804.714	58.22
805.024	57.99
805.334	58.02
805.645	57.28
805.955	57.86
806.265	56.99
806.575	57.1
806.885	56.74
807.195	56.64
807.505	57.09
807.815	57.34
808.125	56.94
808.435	57.14
808.745	57.15
809.055	57.5
809.365	57.33
809.674	58.13
809.984	57.7
810.294	58.14
810.603	57.94
810.913	58.09
811.222	57.36
811.532	58.01
811.841	57.78
812.151	58.6
812.46	57.74
812.769	58.22
813.079	58.38
813.388	58.39
813.697	59.07
814.006	58.24
814.315	58.43
814.624	59.2
814.933	58.85
815.242	59.15
815.551	59.86
815.86	60
816.169	59.15
816.478	59.44
816.786	59.27
817.095	59.19
817.404	59.39
817.712	59.21
818.021	59.45
818.33	59.23
818.638	59.98
818.947	60.42
819.255	59.81
819.563	59.43
819.872	59.64
820.18	59.48
820.488	59.54
820.796	59.74
821.105	59.44
821.413	59.6
821.721	59.43
822.029	59.37
822.337	59.43
822.645	59.41
822.953	59.23
823.26	59.4
823.568	59.45
823.876	59.56
824.184	59.69
824.491	59.69
824.799	59.7
825.107	59.49
825.414	59.27
825.722	59.56
826.029	59.69
826.337	59.71
826.644	59.51
826.951	59.66
827.259	59.37
827.566	59.74
827.873	59.81
828.18	60.13
828.488	60.11
828.795	60.22
829.102	60.76
829.409	61
829.716	60.98
830.023	61.04
830.329	60.88
830.636	61.23
830.943	61.5
831.25	61.6
831.557	61.69
831.863	61.97
832.17	62.12
832.476	62.09
832.783	61.62
833.089	62.12
833.396	61.43
833.702	61.89
834.009	61.53
834.315	61.5
834.621	61.34
834.928	61.51
835.234	61.18
835.54	60.62
835.846	60.98
836.152	60.79
836.458	60.85
836.764	61
837.07	60.34
837.376	60.1
837.682	60.27
837.988	60.2
838.293	60
838.599	59.95
838.905	60.39
839.211	61.19
839.516	61.32
839.822	62.32
840.127	62.42
840.433	62.5
840.738	62.31
841.044	61.54
841.349	61.47
841.654	61.98
841.959	62.42
842.265	62.65
842.57	63.04
842.875	61.36
843.18	59.9
843.485	60.67
843.79	61.22
844.095	61.12
844.4	61.37
844.705	62.56
845.01	61.3
845.315	60.49
845.619	59.51
845.924	58.66
846.229	58.09
846.533	58.82
846.838	60.17
847.142	60.17
847.447	61.31
847.751	60.66
848.056	62
848.36	62.01
848.664	60.55
848.969	59.58
849.273	63.27
849.577	65.74
849.881	64.09
850.185	62.85
850.489	62.54
850.794	63.24
851.097	62.12
851.401	63.9
851.705	62.67
852.009	63.9
852.313	64.98
852.617	64.32
852.92	63.85
853.224	61.59
853.528	60.39
853.831	58.36
854.135	57.43
854.438	56.2
854.742	55.51
855.045	54.67
855.349	56.54
855.652	54.17
855.955	53.6
856.259	54.25
856.562	53.51
856.865	52.87
857.168	50.6
857.471	51.95
857.774	51.77
858.077	54.86
858.38	54.95
858.683	54.59
858.986	56.46
859.289	55.1
859.592	56.25
859.894	58.85
860.197	60.13
860.5	62.31
860.802	61.36
861.105	63.36
861.407	63
861.71	63.58
862.012	63.94
862.315	62.9
862.617	63.67
862.919	64.34
863.222	65.47
863.524	67.15
863.826	66.2
864.128	66.93
864.43	64.34
864.732	65.47
865.034	64.01
865.336	62.17
865.638	62.41
865.94	61.34
866.242	60.55
866.544	63.15
866.846	60.14
867.147	62.7
867.449	60.78
867.751	63.98
868.052	64.22
868.354	66.47
868.655	67.35
868.957	66.06
869.258	66.44
869.56	65.85
869.861	66.44
870.162	65.92
870.463	64.05
870.765	65.09
871.066	61.36
871.367	62.6
871.668	66.05
871.969	65.46
872.27	66.82
872.571	66.11
872.872	63.15
873.173	64.97
873.473	61.82
873.774	61.97
874.075	58.65
874.376	56.68
874.676	56.81
874.977	55.22
875.277	56.18
875.578	56.45
875.878	55.8
876.179	54.35
876.479	54.55
876.78	55.07
877.08	54.9
877.38	55.99
877.68	56.34
877.981	52.74
878.281	55.07
878.581	53.81
