Data from BU58138_Reflection_00014.txt Node
Date: Mon Nov 18 16:42:30 EST 2019
User: vgr7
Spectrometer: USB2G7710
Scans to average: 3
Trigger mode: 4
Integration Time (sec): 2.000000E-2
Electric dark correction enabled: true
Boxcar width: 10
XAxis mode: Wavelengths
Number of Pixels in Spectrum: 2048
>>>>>Begin Spectral Data<<<<<
177.721	-41233.33
178.105	496.83
178.488	255.46
178.871	1641.67
179.254	-128.71
179.636	3.72
180.019	-23.29
180.402	74.07
180.785	23.12
181.168	59.48
181.55	39.98
181.933	54.08
182.316	81.77
182.698	77.57
183.081	53.87
183.463	60.51
183.846	83.01
184.228	101.53
184.611	113.91
184.993	148.44
185.376	202.68
185.758	175.82
186.14	204.2
186.522	210.25
186.904	266.28
187.287	1679.91
187.669	-1097.13
188.051	1125.64
188.433	263.23
188.815	6356.41
189.197	-822.56
189.579	-360.82
189.961	-358.46
190.342	-327.89
190.724	-151.61
191.106	-111.89
191.488	-87.77
191.869	-77.74
192.251	-100.79
192.633	-100.82
193.014	-126.43
193.396	-137.66
193.777	-104.54
194.159	-79.83
194.54	-75.01
194.922	-78.91
195.303	-106.58
195.684	-124.01
196.065	-85.97
196.447	-97.95
196.828	-88.5
197.209	-88.33
197.59	-88.25
197.971	-91.98
198.352	-76.65
198.733	-86.37
199.114	-70.49
199.495	-49.27
199.876	-45.72
200.257	-50.22
200.638	-41.38
201.018	-41.78
201.399	-19.89
201.78	-18.42
202.16	-26.92
202.541	-36.15
202.922	-96.87
203.302	-132.28
203.683	-100.83
204.063	-123.33
204.444	-84.45
204.824	-101.69
205.204	-109.27
205.585	-112.54
205.965	-92.65
206.345	-119.47
206.725	-143.07
207.106	-152.5
207.486	-177.36
207.866	-167.55
208.246	-150.06
208.626	-137.87
209.006	-123.88
209.386	-133.67
209.766	-120.21
210.145	-102.12
210.525	-90.22
210.905	-66.59
211.285	-39.45
211.664	-40.35
212.044	-38.72
212.424	-43.23
212.803	-49.95
213.183	-41.29
213.562	-35.62
213.942	-36.96
214.321	-30.73
214.701	-28.74
215.08	-29.26
215.459	-30.74
215.838	-28.97
216.218	-45.79
216.597	-37.19
216.976	-38.36
217.355	-37.68
217.734	-44.65
218.113	-41.44
218.492	-53.74
218.871	-72.87
219.25	-96.08
219.629	-100.23
220.008	-109.72
220.387	-95.02
220.766	-111.88
221.144	-158.37
221.523	-170.81
221.902	-192.4
222.28	-206.5
222.659	-162.28
223.037	-133
223.416	-82.26
223.794	-86.07
224.173	-41.54
224.551	-38.09
224.929	-40.98
225.308	-41.85
225.686	-31.36
226.064	-22.59
226.442	-13.57
226.821	-6.41
227.199	-2.84
227.577	-2.09
227.955	-1.73
228.333	-4.78
228.711	-1.85
229.089	0.94
229.467	0.64
229.845	1.57
230.222	2.32
230.6	2.63
230.978	1.85
231.356	0.91
231.733	0.73
232.111	0.83
232.488	1.68
232.866	2.33
233.243	4.22
233.621	3.71
233.998	2.69
234.376	-0.43
234.753	-0.99
235.13	-1.75
235.508	-0.13
235.885	-0
236.262	0.08
236.639	2.13
237.016	0.56
237.393	1.95
237.77	1.29
238.147	1.56
238.524	1.63
238.901	1.46
239.278	1.91
239.655	3.37
240.032	4.28
240.409	3.5
240.785	3.98
241.162	3.29
241.539	3.29
241.915	2.98
242.292	3
242.668	3.47
243.045	3.28
243.421	2.92
243.798	2.98
244.174	2.87
244.551	2.94
244.927	3.19
245.303	3.04
245.679	3.11
246.056	3.04
246.432	3.18
246.808	3.23
247.184	2.87
247.56	2.53
247.936	2.14
248.312	2.34
248.688	2.3
249.064	2.59
249.44	2.69
249.815	2.8
250.191	2.92
250.567	2.87
250.943	2.9
251.318	3.12
251.694	3.19
252.069	3.36
252.445	3.2
252.82	2.97
253.196	3.16
253.571	3.26
253.947	3.17
254.322	3.44
254.697	3.45
255.073	3.39
255.448	3.24
255.823	3.67
256.198	3.58
256.573	3.3
256.948	3.22
257.323	3.44
257.698	3.27
258.073	3.35
258.448	3.25
258.823	3.41
259.198	3.4
259.573	3.3
259.948	3.13
260.322	3.12
260.697	3.08
261.072	3.11
261.446	3.04
261.821	2.9
262.195	2.88
262.57	2.89
262.944	2.95
263.319	2.96
263.693	2.75
264.067	2.74
264.442	2.84
264.816	2.66
265.19	2.56
265.564	2.64
265.938	2.52
266.313	2.48
266.687	2.54
267.061	2.47
267.435	2.62
267.809	2.86
268.183	2.81
268.556	3.08
268.93	3.03
269.304	3.19
269.678	3.58
270.051	3.5
270.425	3.58
270.799	3.74
271.172	3.8
271.546	3.75
271.919	3.71
272.293	3.62
272.666	3.84
273.04	3.79
273.413	3.84
273.787	3.96
274.16	3.99
274.533	3.94
274.906	3.8
275.279	3.57
275.653	3.55
276.026	3.51
276.399	3.27
276.772	3.38
277.145	3.21
277.518	3.09
277.891	3.01
278.263	2.91
278.636	2.89
279.009	2.91
279.382	3.15
279.755	3.2
280.127	3.4
280.5	3.19
280.872	3.26
281.245	3.32
281.617	3.41
281.99	3.38
282.362	3.28
282.735	3.21
283.107	3.33
283.479	3.4
283.852	3.47
284.224	3.53
284.596	3.33
284.968	3.51
285.34	3.53
285.713	3.55
286.085	3.52
286.457	3.61
286.829	3.62
287.201	3.53
287.572	3.51
287.944	3.37
288.316	3.41
288.688	3.31
289.06	3.26
289.431	3.16
289.803	3.05
290.175	3.13
290.546	3.34
290.918	3.32
291.289	3.27
291.661	3.25
292.032	3.37
292.403	3.5
292.775	3.4
293.146	3.39
293.517	3.34
293.889	3.49
294.26	3.48
294.631	3.53
295.002	3.5
295.373	3.56
295.744	3.64
296.115	3.68
296.486	3.61
296.857	3.64
297.228	3.68
297.599	3.84
297.97	3.81
298.34	3.84
298.711	3.88
299.082	3.85
299.452	3.93
299.823	4.01
300.194	4.09
300.564	4.08
300.935	4.02
301.305	3.98
301.676	3.99
302.046	4.03
302.416	4.12
302.787	4.25
303.157	4.18
303.527	4.22
303.897	4.18
304.267	4.39
304.637	4.55
305.008	4.63
305.378	4.79
305.748	4.74
306.117	4.68
306.487	4.85
306.857	4.83
307.227	4.84
307.597	4.71
307.967	4.72
308.336	4.77
308.706	4.89
309.076	5.01
309.445	4.93
309.815	4.83
310.184	4.7
310.554	4.63
310.923	4.74
311.293	4.69
311.662	4.84
312.031	4.84
312.401	4.63
312.77	4.74
313.139	4.68
313.508	4.87
313.877	4.76
314.246	4.59
314.616	4.6
314.985	4.53
315.353	4.65
315.722	4.65
316.091	4.59
316.46	4.48
316.829	4.42
317.198	4.51
317.567	4.64
317.935	4.78
318.304	5.02
318.672	4.96
319.041	5.11
319.41	4.96
319.778	4.94
320.147	5.08
320.515	4.86
320.883	4.87
321.252	4.88
321.62	5.12
321.988	5.1
322.357	5.27
322.725	5.28
323.093	5.23
323.461	5.24
323.829	5.35
324.197	5.44
324.565	5.46
324.933	5.43
325.301	5.3
325.669	5.32
326.037	5.18
326.405	5.21
326.772	5.35
327.14	5.48
327.508	5.44
327.875	5.42
328.243	5.52
328.61	5.47
328.978	5.38
329.346	5.52
329.713	5.54
330.08	5.48
330.448	5.38
330.815	5.32
331.182	5.27
331.55	5.23
331.917	5.2
332.284	5.38
332.651	5.25
333.018	5.41
333.385	5.35
333.752	5.38
334.119	5.35
334.486	5.16
334.853	5.14
335.22	5.23
335.587	5.23
335.954	5.16
336.32	5.18
336.687	5.28
337.054	5.21
337.42	5.29
337.787	5.25
338.153	5.46
338.52	5.61
338.886	5.61
339.253	5.68
339.619	5.67
339.986	5.59
340.352	5.78
340.718	5.7
341.084	5.68
341.451	5.71
341.817	5.8
342.183	5.83
342.549	5.9
342.915	5.96
343.281	5.96
343.647	5.93
344.013	5.94
344.379	5.92
344.745	5.84
345.11	5.87
345.476	5.89
345.842	5.76
346.208	5.66
346.573	5.66
346.939	5.67
347.304	5.66
347.67	5.63
348.035	5.51
348.401	5.54
348.766	5.54
349.132	5.52
349.497	5.49
349.862	5.58
350.228	5.57
350.593	5.54
350.958	5.51
351.323	5.5
351.688	5.5
352.053	5.51
352.418	5.56
352.783	5.57
353.148	5.59
353.513	5.62
353.878	5.59
354.243	5.62
354.608	5.56
354.972	5.6
355.337	5.62
355.702	5.62
356.066	5.66
356.431	5.62
356.795	5.59
357.16	5.52
357.524	5.45
357.889	5.33
358.253	5.33
358.618	5.41
358.982	5.42
359.346	5.44
359.71	5.3
360.075	5.27
360.439	5.25
360.803	5.24
361.167	5.27
361.531	5.25
361.895	5.2
362.259	5.15
362.623	5.08
362.987	5.13
363.351	5.16
363.714	5.15
364.078	5.12
364.442	5.06
364.806	5.1
365.169	5.06
365.533	5.1
365.896	5.06
366.26	4.97
366.623	4.93
366.987	4.85
367.35	4.94
367.714	4.91
368.077	4.84
368.44	4.76
368.803	4.7
369.167	4.64
369.53	4.56
369.893	4.58
370.256	4.56
370.619	4.39
370.982	4.34
371.345	4.24
371.708	4.27
372.071	4.24
372.434	4.21
372.797	4.19
373.159	4.14
373.522	4.08
373.885	4.04
374.247	4.07
374.61	4.12
374.973	4.08
375.335	4.04
375.698	4.01
376.06	3.93
376.423	3.95
376.785	3.96
377.147	4
377.51	4.01
377.872	4.06
378.234	4.07
378.596	4.06
378.958	4.02
379.321	3.96
379.683	4.03
380.045	4.04
380.407	4.03
380.769	3.96
381.13	3.96
381.492	3.96
381.854	3.94
382.216	3.89
382.578	3.89
382.939	3.93
383.301	3.94
383.663	3.94
384.024	3.9
384.386	3.9
384.747	3.9
385.109	3.85
385.47	3.78
385.832	3.76
386.193	3.73
386.554	3.74
386.916	3.74
387.277	3.7
387.638	3.69
387.999	3.66
388.36	3.66
388.721	3.67
389.082	3.63
389.443	3.62
389.804	3.6
390.165	3.56
390.526	3.55
390.887	3.55
391.248	3.62
391.609	3.62
391.969	3.58
392.33	3.57
392.691	3.58
393.051	3.58
393.412	3.62
393.772	3.59
394.133	3.59
394.493	3.58
394.854	3.55
395.214	3.51
395.574	3.49
395.935	3.51
396.295	3.49
396.655	3.5
397.015	3.46
397.376	3.46
397.736	3.41
398.096	3.37
398.456	3.36
398.816	3.3
399.176	3.27
399.535	3.27
399.895	3.23
400.255	3.21
400.615	3.19
400.975	3.19
401.334	3.18
401.694	3.13
402.054	3.13
402.413	3.14
402.773	3.11
403.132	3.12
403.492	3.12
403.851	3.07
404.211	3.04
404.57	3.05
404.929	3.05
405.288	3.08
405.648	3.08
406.007	3.06
406.366	3.06
406.725	3.05
407.084	3.06
407.443	3.06
407.802	3.07
408.161	3.07
408.52	3.04
408.879	3.03
409.238	3.09
409.596	3.09
409.955	3.07
410.314	3.12
410.673	3.13
411.031	3.11
411.39	3.12
411.748	3.13
412.107	3.15
412.465	3.13
412.824	3.14
413.182	3.13
413.54	3.14
413.899	3.14
414.257	3.17
414.615	3.14
414.974	3.13
415.332	3.1
415.69	3.09
416.048	3.06
416.406	3.06
416.764	3.01
417.122	3.02
417.48	3.01
417.838	3.02
418.195	3
418.553	2.99
418.911	2.97
419.269	2.99
419.626	2.98
419.984	2.99
420.342	3
420.699	2.99
421.057	2.99
421.414	2.98
421.772	2.96
422.129	2.98
422.486	2.97
422.844	3
423.201	2.99
423.558	2.99
423.915	3.01
424.273	3.02
424.63	3
424.987	3.01
425.344	2.99
425.701	3
426.058	3.02
426.415	3.03
426.772	3.03
427.128	3.02
427.485	3.01
427.842	2.99
428.199	2.98
428.555	2.98
428.912	3
429.269	3.02
429.625	3
429.982	3.02
430.338	2.98
430.695	2.98
431.051	2.98
431.407	2.98
431.764	2.96
432.12	2.95
432.476	2.93
432.832	2.93
433.189	2.91
433.545	2.91
433.901	2.93
434.257	2.93
434.613	2.93
434.969	2.94
435.325	2.94
435.681	2.96
436.036	2.96
436.392	2.95
436.748	2.94
437.104	2.93
437.459	2.93
437.815	2.95
438.171	2.97
438.526	2.98
438.882	2.97
439.237	2.99
439.593	3.01
439.948	3.01
440.304	3.02
440.659	3.03
441.014	3.02
441.369	3
441.725	2.98
442.08	2.99
442.435	2.98
442.79	2.98
443.145	2.97
443.5	2.97
443.855	2.96
444.21	2.96
444.565	2.96
444.92	2.97
445.275	2.95
445.629	2.94
445.984	2.94
446.339	2.92
446.693	2.91
447.048	2.9
447.403	2.89
447.757	2.88
448.112	2.87
448.466	2.86
448.82	2.88
449.175	2.88
449.529	2.88
449.883	2.87
450.238	2.85
450.592	2.87
450.946	2.85
451.3	2.86
451.654	2.84
452.008	2.86
452.362	2.84
452.716	2.86
453.07	2.85
453.424	2.86
453.778	2.88
454.132	2.87
454.486	2.88
454.839	2.88
455.193	2.85
455.547	2.87
455.9	2.87
456.254	2.85
456.607	2.85
456.961	2.85
457.314	2.86
457.668	2.86
458.021	2.85
458.375	2.85
458.728	2.85
459.081	2.87
459.434	2.84
459.787	2.84
460.141	2.82
460.494	2.81
460.847	2.81
461.2	2.81
461.553	2.82
461.906	2.83
462.259	2.84
462.611	2.86
462.964	2.87
463.317	2.89
463.67	2.93
464.022	2.93
464.375	2.92
464.728	2.93
465.08	2.95
465.433	2.94
465.785	2.95
466.138	2.95
466.49	2.96
466.843	2.96
467.195	2.99
467.547	3.01
467.899	3.02
468.252	3.01
468.604	3.02
468.956	3.02
469.308	3.03
469.66	3.02
470.012	3.03
470.364	3.02
470.716	3.02
471.068	2.99
471.42	2.98
471.772	3.01
472.123	3.02
472.475	3.03
472.827	3.04
473.178	3.05
473.53	3.06
473.882	3.05
474.233	3.05
474.585	3.01
474.936	3.01
475.288	3.02
475.639	3.02
475.99	3.02
476.342	3.03
476.693	3.02
477.044	3.02
477.395	3
477.746	2.99
478.097	2.97
478.448	2.97
478.8	2.97
479.15	2.96
479.501	2.95
479.852	2.93
480.203	2.94
480.554	2.94
480.905	2.93
481.255	2.96
481.606	2.97
481.957	2.98
482.307	2.98
482.658	2.98
483.009	2.97
483.359	2.97
483.709	2.97
484.06	2.97
484.41	2.97
484.761	2.98
485.111	2.98
485.461	2.99
485.811	3
486.162	2.99
486.512	3.01
486.862	3.01
487.212	3.01
487.562	3.01
487.912	3.01
488.262	3.01
488.612	3
488.961	2.99
489.311	2.98
489.661	2.98
490.011	2.97
490.36	2.98
490.71	2.98
491.06	2.98
491.409	2.98
491.759	2.99
492.108	2.98
492.458	2.99
492.807	2.97
493.157	2.97
493.506	2.98
493.855	2.97
494.204	2.98
494.554	2.98
494.903	2.97
495.252	2.96
495.601	2.99
495.95	2.99
496.299	2.99
496.648	3
496.997	3.01
497.346	3.03
497.695	3.04
498.043	3.06
498.392	3.06
498.741	3.08
499.09	3.06
499.438	3.08
499.787	3.08
500.135	3.11
500.484	3.13
500.832	3.14
501.181	3.15
501.529	3.16
501.878	3.16
502.226	3.18
502.574	3.22
502.923	3.21
503.271	3.23
503.619	3.24
503.967	3.28
504.315	3.28
504.663	3.29
505.011	3.32
505.359	3.33
505.707	3.37
506.055	3.39
506.403	3.44
506.751	3.48
507.098	3.52
507.446	3.55
507.794	3.58
508.141	3.6
508.489	3.63
508.837	3.67
509.184	3.71
509.531	3.76
509.879	3.79
510.226	3.86
510.574	3.9
510.921	3.94
511.268	3.94
511.616	3.99
511.963	4.04
512.31	4.07
512.657	4.12
513.004	4.15
513.351	4.21
513.698	4.26
514.045	4.29
514.392	4.34
514.739	4.39
515.086	4.43
515.432	4.49
515.779	4.54
516.126	4.6
516.473	4.65
516.819	4.72
517.166	4.77
517.512	4.79
517.859	4.86
518.205	4.92
518.552	4.99
518.898	5.04
519.245	5.09
519.591	5.15
519.937	5.18
520.283	5.25
520.629	5.31
520.976	5.38
521.322	5.46
521.668	5.53
522.014	5.6
522.36	5.68
522.706	5.77
523.052	5.88
523.398	5.99
523.743	6.09
524.089	6.18
524.435	6.28
524.781	6.41
525.126	6.49
525.472	6.57
525.817	6.65
526.163	6.72
526.509	6.8
526.854	6.86
527.199	6.94
527.545	6.99
527.89	7.05
528.235	7.11
528.581	7.19
528.926	7.26
529.271	7.34
529.616	7.41
529.961	7.47
530.306	7.55
530.651	7.61
530.996	7.69
531.341	7.76
531.686	7.85
532.031	7.94
532.376	8.02
532.721	8.13
533.065	8.23
533.41	8.34
533.755	8.45
534.099	8.55
534.444	8.68
534.788	8.8
535.133	8.91
535.477	9.05
535.822	9.16
536.166	9.27
536.51	9.41
536.855	9.54
537.199	9.71
537.543	9.87
537.887	10.05
538.231	10.21
538.576	10.4
538.92	10.58
539.264	10.73
539.608	10.9
539.951	11.03
540.295	11.17
540.639	11.32
540.983	11.45
541.327	11.62
541.671	11.75
542.014	11.9
542.358	12.05
542.701	12.2
543.045	12.34
543.389	12.5
543.732	12.65
544.075	12.83
544.419	12.97
544.762	13.14
545.105	13.31
545.449	13.51
545.792	13.66
546.135	13.87
546.478	14.07
546.821	14.3
547.165	14.55
547.508	14.8
547.851	15.01
548.194	15.25
548.536	15.48
548.879	15.73
549.222	15.98
549.565	16.21
549.908	16.43
550.25	16.65
550.593	16.92
550.936	17.17
551.278	17.43
551.621	17.73
551.963	18.01
552.306	18.23
552.648	18.47
552.991	18.77
553.333	19.03
553.675	19.25
554.017	19.49
554.36	19.75
554.702	20
555.044	20.25
555.386	20.48
555.728	20.71
556.07	20.98
556.412	21.21
556.754	21.49
557.096	21.74
557.438	22.06
557.78	22.37
558.121	22.67
558.463	22.9
558.805	23.17
559.147	23.46
559.488	23.75
559.83	24.03
560.171	24.31
560.513	24.59
560.854	24.89
561.196	25.14
561.537	25.43
561.878	25.77
562.22	26.02
562.561	26.3
562.902	26.6
563.243	26.82
563.584	27.15
563.925	27.45
564.266	27.7
564.607	27.96
564.948	28.17
565.289	28.42
565.63	28.71
565.971	28.95
566.312	29.16
566.653	29.4
566.993	29.64
567.334	29.85
567.675	30.08
568.015	30.28
568.356	30.56
568.696	30.78
569.037	30.96
569.377	31.21
569.718	31.44
570.058	31.66
570.398	31.93
570.739	32.13
571.079	32.37
571.419	32.58
571.759	32.73
572.099	32.96
572.439	33.2
572.779	33.35
573.119	33.58
573.459	33.83
573.799	34.07
574.139	34.24
574.479	34.4
574.819	34.59
575.158	34.84
575.498	35.03
575.838	35.22
576.177	35.39
576.517	35.6
576.856	35.85
577.196	36.05
577.535	36.23
577.875	36.47
578.214	36.56
578.553	36.82
578.893	37.11
579.232	37.32
579.571	37.5
579.91	37.79
580.25	37.94
580.589	38.06
580.928	38.24
581.267	38.5
581.606	38.71
581.945	38.93
582.283	39.12
582.622	39.34
582.961	39.58
583.3	39.77
583.639	39.96
583.977	40.08
584.316	40.3
584.654	40.43
584.993	40.55
585.332	40.83
585.67	41
586.008	41.18
586.347	41.32
586.685	41.48
587.024	41.58
587.362	41.72
587.7	41.92
588.038	42.07
588.376	42.19
588.715	42.38
589.053	42.53
589.391	42.63
589.729	42.68
590.067	42.74
590.404	42.84
590.742	42.94
591.08	43.21
591.418	43.36
591.756	43.57
592.093	43.72
592.431	43.84
592.769	43.96
593.106	44.1
593.444	44.3
593.781	44.41
594.119	44.52
594.456	44.69
594.793	44.78
595.131	44.89
595.468	45.01
595.805	45.07
596.143	45.14
596.48	45.23
596.817	45.37
597.154	45.55
597.491	45.71
597.828	45.77
598.165	45.75
598.502	45.78
598.839	45.81
599.176	45.93
599.512	46.05
599.849	46.16
600.186	46.24
600.523	46.34
600.859	46.47
601.196	46.6
601.532	46.69
601.869	46.82
602.205	46.89
602.542	46.99
602.878	47.13
603.215	47.24
603.551	47.36
603.887	47.46
604.223	47.51
604.56	47.63
604.896	47.8
605.232	47.96
605.568	48.1
605.904	48.25
606.24	48.31
606.576	48.33
606.912	48.44
607.248	48.51
607.583	48.6
607.919	48.66
608.255	48.72
608.591	48.8
608.926	48.89
609.262	48.99
609.597	49.06
609.933	49.12
610.268	49.23
610.604	49.3
610.939	49.33
611.275	49.42
611.61	49.46
611.945	49.51
612.281	49.53
612.616	49.53
612.951	49.57
613.286	49.68
613.621	49.76
613.956	49.85
614.291	49.91
614.626	49.87
614.961	49.98
615.296	50.09
615.631	50.25
615.966	50.29
616.3	50.47
616.635	50.51
616.97	50.66
617.304	50.68
617.639	50.76
617.973	50.85
618.308	50.86
618.642	50.88
618.977	50.9
619.311	50.93
619.646	51.03
619.98	51.03
620.314	51.08
620.648	51.17
620.983	51.18
621.317	51.29
621.651	51.39
621.985	51.42
622.319	51.49
622.653	51.41
622.987	51.57
623.321	51.44
623.655	51.55
623.988	51.53
624.322	51.5
624.656	51.57
624.99	51.67
625.323	51.75
625.657	51.75
625.99	51.84
626.324	51.85
626.657	51.88
626.991	51.96
627.324	52.06
627.658	52.14
627.991	52.15
628.324	52.21
628.657	52.27
628.991	52.24
629.324	52.29
629.657	52.45
629.99	52.41
630.323	52.5
630.656	52.53
630.989	52.51
631.322	52.57
631.655	52.55
631.987	52.56
632.32	52.54
632.653	52.6
632.986	52.62
633.318	52.66
633.651	52.69
633.984	52.75
634.316	52.72
634.649	52.72
634.981	52.94
635.313	52.89
635.646	52.86
635.978	53.02
636.31	53.06
636.643	52.97
636.975	53.03
637.307	53.12
637.639	53.14
637.971	53.27
638.303	53.39
638.635	53.47
638.967	53.46
639.299	53.69
639.631	53.76
639.963	53.73
640.295	53.82
640.626	53.98
640.958	53.92
641.29	53.96
641.621	54.02
641.953	53.85
642.285	53.89
642.616	54.04
642.948	53.95
643.279	53.9
643.61	53.94
643.942	53.96
644.273	53.85
644.604	53.88
644.936	53.77
645.267	53.74
645.598	53.67
645.929	53.77
646.26	53.63
646.591	53.66
646.922	53.76
647.253	53.73
647.584	53.61
647.915	53.74
648.245	53.71
648.576	53.73
648.907	53.78
649.238	53.82
649.568	53.81
649.899	53.86
650.229	53.93
650.56	53.98
650.89	53.87
651.221	54.04
651.551	53.99
651.882	54.07
652.212	54.19
652.542	54.26
652.872	54.2
653.203	54.2
653.533	54.18
653.863	54.09
654.193	54.22
654.523	54.39
654.853	54.37
655.183	54.49
655.513	54.49
655.843	54.54
656.172	54.6
656.502	54.62
656.832	54.67
657.162	54.74
657.491	54.77
657.821	54.92
658.15	54.95
658.48	55
658.809	55.06
659.139	54.99
659.468	54.98
659.798	54.96
660.127	54.99
660.456	54.99
660.785	55.11
661.115	55.11
661.444	55
661.773	55
662.102	54.89
662.431	54.95
662.76	54.93
663.089	54.73
663.418	54.76
663.747	54.67
664.076	54.62
664.404	54.64
664.733	54.67
665.062	54.79
665.39	54.82
665.719	54.81
666.048	54.84
666.376	54.89
666.705	54.98
667.033	54.98
667.362	54.98
667.69	54.93
668.018	54.88
668.347	54.96
668.675	55.02
669.003	55.12
669.331	55.11
669.659	55.09
669.987	55.29
670.315	55.17
670.643	55.25
670.971	55.19
671.299	55.37
671.627	55.38
671.955	55.27
672.283	55.35
672.61	55.35
672.938	55.42
673.266	55.39
673.593	55.47
673.921	55.46
674.249	55.46
674.576	55.58
674.904	55.52
675.231	55.52
675.558	55.46
675.886	55.44
676.213	55.57
676.54	55.61
676.867	55.56
677.195	55.75
677.522	55.74
677.849	55.94
678.176	55.84
678.503	55.78
678.83	55.8
679.157	55.75
679.484	55.7
679.81	55.76
680.137	55.92
680.464	55.95
680.791	55.97
681.117	56.09
681.444	56.14
681.771	56.16
682.097	56.12
682.424	56.13
682.75	56.15
683.077	56.09
683.403	56.27
683.729	56.37
684.056	56.33
684.382	56.49
684.708	56.32
685.034	56.34
685.36	56.46
685.686	56.54
686.012	56.61
686.339	56.72
686.664	56.62
686.99	56.67
687.316	56.55
687.642	56.59
687.968	56.57
688.294	56.56
688.619	56.74
688.945	56.84
689.271	57.09
689.596	56.96
689.922	56.93
690.247	56.8
690.573	56.9
690.898	56.97
691.224	56.89
691.549	56.99
691.874	56.97
692.2	56.96
692.525	56.88
692.85	56.95
693.175	56.9
693.5	57.01
693.825	56.78
694.15	56.95
694.475	57.08
694.8	57.1
695.125	56.9
695.45	57
695.775	57.04
696.099	56.75
696.424	56.96
696.749	56.98
697.073	57.13
697.398	57.2
697.723	57.04
698.047	57
698.372	56.94
698.696	56.84
699.02	56.75
699.345	56.76
699.669	56.73
699.993	56.82
700.318	56.72
700.642	56.91
700.966	56.86
701.29	56.79
701.614	56.7
701.938	56.76
702.262	56.64
702.586	56.55
702.91	56.64
703.234	56.62
703.557	56.52
703.881	56.3
704.205	56.02
704.529	56.11
704.852	56.16
705.176	56.2
705.499	56.47
705.823	56.45
706.146	56.46
706.47	56.44
706.793	56.37
707.117	56.5
707.44	56.33
707.763	56.33
708.086	56.48
708.409	56.43
708.733	56.44
709.056	56.52
709.379	56.69
709.702	56.73
710.025	56.78
710.348	56.81
710.671	56.81
710.993	57
711.316	57
711.639	57.07
711.962	57.05
712.284	56.7
712.607	56.94
712.93	56.89
713.252	56.92
713.575	57.03
713.897	57.08
714.22	57.15
714.542	57.06
714.864	56.93
715.187	57.13
715.509	57.24
715.831	57.27
716.153	57.29
716.475	57.34
716.798	57.24
717.12	57.47
717.442	57.65
717.764	57.56
718.085	57.64
718.407	57.65
718.729	57.75
719.051	58.19
719.373	58.2
719.695	58.17
720.016	58.11
720.338	58.09
720.659	58.13
720.981	58.15
721.302	58.26
721.624	58.25
721.945	58.28
722.267	58.26
722.588	58.11
722.909	58.08
723.231	57.99
723.552	58.04
723.873	57.9
724.194	57.94
724.515	57.99
724.836	58.03
725.157	58.06
725.478	58.16
725.799	57.93
726.12	57.76
726.441	57.94
726.762	58.25
727.083	58.15
727.403	57.86
727.724	57.96
728.045	57.96
728.365	58.06
728.686	58.12
729.006	58.23
729.327	58.2
729.647	58.09
729.967	58.04
730.288	58.09
730.608	58.16
730.928	58.09
731.249	58.06
731.569	58.12
731.889	58.23
732.209	58.11
732.529	58.27
732.849	58.28
733.169	58.37
733.489	58.25
733.809	58.26
734.129	58.56
734.448	58.69
734.768	58.76
735.088	58.75
735.408	58.8
735.727	58.83
736.047	58.93
736.366	58.89
736.686	59.09
737.005	59
737.325	58.88
737.644	58.75
737.963	58.92
738.283	59.04
738.602	59.07
738.921	59.09
739.24	58.93
739.56	59.13
739.879	58.79
740.198	58.69
740.517	58.73
740.836	58.85
741.155	58.56
741.473	58.45
741.792	58.58
742.111	58.47
742.43	58.48
742.748	58.23
743.067	58.59
743.386	58.71
743.704	58.88
744.023	58.75
744.341	58.9
744.66	58.88
744.978	58.75
745.297	58.52
745.615	58.82
745.933	58.91
746.252	58.88
746.57	59.24
746.888	59.4
747.206	59.43
747.524	59.1
747.842	58.99
748.16	59.16
748.478	59.02
748.796	59.26
749.114	59.24
749.432	59.79
749.749	59.55
750.067	59.18
750.385	59.11
750.703	59.44
751.02	59.22
751.338	59.04
751.655	59.13
751.973	59.14
752.29	59.02
752.608	58.87
752.925	58.79
753.242	58.75
753.56	58.66
753.877	58.67
754.194	58.71
754.511	59.14
754.828	59.05
755.145	58.96
755.462	58.73
755.779	58.46
756.096	58.23
756.413	58.1
756.73	58.42
757.047	58.5
757.364	58.62
757.68	58.87
757.997	58.9
758.314	58.66
758.63	58.72
758.947	58.48
759.264	58.76
759.58	58.73
759.896	58.7
760.213	58.81
760.529	58.65
760.846	58.92
761.162	58.85
761.478	58.78
761.794	58.97
762.11	59
762.426	59.39
762.743	59.11
763.059	59.29
763.375	59.34
763.69	59.45
764.006	59.33
764.322	59.25
764.638	59.28
764.954	59.52
765.27	59.34
765.585	59.36
765.901	59.2
766.216	58.95
766.532	58.88
766.848	58.69
767.163	58.91
767.478	58.59
767.794	58.58
768.109	58.6
768.424	58.56
768.74	58.53
769.055	58.03
769.37	58.25
769.685	58.03
770	58.03
770.315	57.81
770.63	57.74
770.945	57.71
771.26	57.48
771.575	56.99
771.89	57.13
772.205	57.11
772.52	57.07
772.834	57.28
773.149	57.27
773.464	57.49
773.778	57.35
774.093	57.37
774.407	57
774.722	57.22
775.036	57.17
775.351	57.62
775.665	58.2
775.979	58.27
776.293	58.37
776.608	58.23
776.922	57.9
777.236	58.24
777.55	58.09
777.864	58.62
778.178	58.9
778.492	58.78
778.806	58.74
779.12	59.06
779.434	58.91
779.747	58.57
780.061	58.21
780.375	58.46
780.689	59.04
781.002	58.98
781.316	58.9
781.629	58.73
781.943	58.74
782.256	58.49
782.57	58.67
782.883	58.51
783.196	58.49
783.51	58.76
783.823	57.99
784.136	58.33
784.449	58.49
784.762	58.23
785.075	58.14
785.388	57.79
785.701	57.5
786.014	57.84
786.327	58.19
786.64	58.29
786.953	58.26
787.266	57.29
787.578	57.17
787.891	56.69
788.204	56.62
788.516	55.49
788.829	55.49
789.141	55.59
789.454	55.84
789.766	55.79
790.079	55.71
790.391	55.87
790.703	55.73
791.016	55.39
791.328	56.01
791.64	56.44
791.952	56.93
792.264	56.71
792.576	56.68
792.888	56.28
793.2	56.48
793.512	55.93
793.824	56.5
794.136	57.15
794.448	57.86
794.76	57.62
795.071	58.09
795.383	57.6
795.695	57.04
796.006	57.13
796.318	57.25
796.629	57.64
796.941	57.82
797.252	57.57
797.564	56.99
797.875	56.53
798.186	56.26
798.497	56.61
798.809	56.97
799.12	56.94
799.431	57.31
799.742	57.09
800.053	57.76
800.364	57.69
800.675	57.38
800.986	56.82
801.297	57.57
801.608	58.28
801.918	58.6
802.229	58.94
802.54	59.13
802.851	59.52
803.161	59.06
803.472	58.82
803.782	59.33
804.093	59.66
804.403	59.29
804.714	59.1
805.024	58.45
805.334	58.66
805.645	58.71
805.955	58.56
806.265	58.78
806.575	58.37
806.885	58.33
807.195	59.17
807.505	59.23
807.815	59.01
808.125	58.71
808.435	58.6
808.745	58.8
809.055	58.81
809.365	58.07
809.674	58.47
809.984	58.46
810.294	58.33
810.603	58.67
810.913	58.97
811.222	59.4
811.532	59.96
811.841	59.96
812.151	59.89
812.46	60.26
812.769	59.61
813.079	59.59
813.388	59.32
813.697	58.66
814.006	58.91
814.315	59.12
814.624	59.11
814.933	59.43
815.242	59.2
815.551	58.85
815.86	59.58
816.169	59.11
816.478	59.53
816.786	59.8
817.095	59.68
817.404	60.1
817.712	60.03
818.021	60.15
818.33	60.01
818.638	59.72
818.947	59.61
819.255	59.39
819.563	59.6
819.872	59.54
820.18	59.38
820.488	59.41
820.796	59.19
821.105	59.31
821.413	59.05
821.721	59.22
822.029	59.34
822.337	59.23
822.645	59.61
822.953	59.63
823.26	59.5
823.568	59.42
823.876	59.43
824.184	59.48
824.491	59.22
824.799	59.2
825.107	59.44
825.414	59.34
825.722	59.54
826.029	59.41
826.337	59.34
826.644	59.47
826.951	59.44
827.259	59.26
827.566	59.09
827.873	59.36
828.18	59.17
828.488	59.22
828.795	59.04
829.102	58.82
829.409	58.58
829.716	58.8
830.023	58.87
830.329	58.45
830.636	58.33
830.943	58.64
831.25	58.72
831.557	58.65
831.863	58.49
832.17	58.39
832.476	58.61
832.783	58.76
833.089	58.39
833.396	58.36
833.702	59.18
834.009	59.28
834.315	59.29
834.621	59.1
834.928	58.68
835.234	58.67
835.54	58.06
835.846	57.76
836.152	57.33
836.458	57.35
836.764	57.49
837.07	57.54
837.376	57.09
837.682	56.89
837.988	56.23
838.293	56.35
838.599	56.27
838.905	55.2
839.211	55.2
839.516	54.48
839.822	54.64
840.127	53.93
840.433	54
840.738	53.56
841.044	53.94
841.349	54.44
841.654	54.98
841.959	55
842.265	55.9
842.57	56.85
842.875	57.39
843.18	57.1
843.485	56.53
843.79	56.39
844.095	57.13
844.4	58.82
844.705	59.26
845.01	59.09
845.315	60.81
845.619	61.1
845.924	62.88
846.229	62.97
846.533	61.9
846.838	59.67
847.142	59.22
847.447	58.1
847.751	57.76
848.056	58.46
848.36	59.14
848.664	59.07
848.969	58.58
849.273	55.73
849.577	56.84
849.881	57.18
850.185	60.19
850.489	58.5
850.794	55.96
851.097	59.27
851.401	60.56
851.705	60.12
852.009	60.02
852.313	59.93
852.617	59.39
852.92	61.55
853.224	62.53
853.528	63.67
853.831	64.36
854.135	63.11
854.438	61.62
854.742	60
855.045	60.75
855.349	59.59
855.652	61.7
855.955	61.53
856.259	59.31
856.562	55.93
856.865	57.23
857.168	56.87
857.471	53.99
857.774	51.37
858.077	50.79
858.38	50.39
858.683	49.82
858.986	49.66
859.289	47.67
859.592	49.57
859.894	48.44
860.197	47.57
860.5	49.5
860.802	49.54
861.105	52.72
861.407	50.53
861.71	52.76
862.012	52.86
862.315	52.48
862.617	54.08
862.919	55.2
863.222	54.87
863.524	54.21
863.826	53.71
864.128	53.62
864.43	54.67
864.732	56.15
865.034	56.41
865.336	56.75
865.638	58.87
865.94	56.35
866.242	57.64
866.544	58.97
866.846	57.36
867.147	55.54
867.449	53.13
867.751	55.16
868.052	52.57
868.354	51.47
868.655	53.52
868.957	55.31
869.258	54.92
869.56	54.34
869.861	55.72
870.162	55.17
870.463	59.67
870.765	57
871.066	58.27
871.367	59.06
871.668	56.47
871.969	56.6
872.27	58.14
872.571	56.45
872.872	57.54
873.173	56.97
873.473	59.77
873.774	61.02
874.075	60.99
874.376	61.96
874.676	64.12
874.977	60.2
875.277	57.03
875.578	57.8
875.878	57.32
876.179	57.5
876.479	58.36
876.78	55.84
877.08	59.29
877.38	55.87
877.68	54.34
877.981	56.82
878.281	54.36
878.581	54.06
