Data from BU58141_Reflection_00007.txt Node
Date: Mon Nov 18 16:46:47 EST 2019
User: vgr7
Spectrometer: USB2G7710
Scans to average: 3
Trigger mode: 4
Integration Time (sec): 2.000000E-2
Electric dark correction enabled: true
Boxcar width: 10
XAxis mode: Wavelengths
Number of Pixels in Spectrum: 2048
>>>>>Begin Spectral Data<<<<<
177.721	-139.87
178.105	-31.44
178.488	-47.59
178.871	-89.68
179.254	-58.6
179.636	7350
180.019	-318.06
180.402	25.93
180.785	-24.82
181.168	-194.12
181.55	-264.06
181.933	122.42
182.316	196.93
182.698	104.32
183.081	55.21
183.463	43.46
183.846	29.82
184.228	12.42
184.611	24.19
184.993	8.29
185.376	12.32
185.758	48.29
186.14	49.02
186.522	35.71
186.904	12.85
187.287	172.69
187.669	-48.79
188.051	-401.81
188.433	-138.74
188.815	-144.57
189.197	413.3
189.579	-1380
189.961	-203.87
190.342	-135.67
190.724	14.87
191.106	-2.63
191.488	-2.83
191.869	-6.76
192.251	-9.71
192.633	-6.47
193.014	-35.02
193.396	-40.78
193.777	-14.75
194.159	-51.13
194.54	-23.74
194.922	-31.69
195.303	-32.73
195.684	-41.39
196.065	-17.09
196.447	-33.09
196.828	-32.49
197.209	-20.47
197.59	-18.57
197.971	-23.12
198.352	-16.7
198.733	-31.98
199.114	-21.12
199.495	-17.69
199.876	-14.91
200.257	-20.17
200.638	-7.33
201.018	1.16
201.399	10.69
201.78	6.69
202.16	0.6
202.541	-5.57
202.922	-24.06
203.302	-27.59
203.683	-36.23
204.063	-49.43
204.444	-46.29
204.824	-25.04
205.204	-20.12
205.585	-48.07
205.965	-36.87
206.345	-42.59
206.725	-34.49
207.106	-49.88
207.486	-66.99
207.866	-89.12
208.246	-69.34
208.626	-100.3
209.006	-65.14
209.386	-98.52
209.766	-122.84
210.145	-91.78
210.525	-89.09
210.905	-64.28
211.285	-50.93
211.664	-51.82
212.044	-36.79
212.424	-35.02
212.803	-51.77
213.183	-58.11
213.562	-32.23
213.942	-30.39
214.321	-26.19
214.701	-30.57
215.08	-34.8
215.459	-30.63
215.838	-20.82
216.218	-22.48
216.597	-17.44
216.976	-11.83
217.355	-9.43
217.734	-7.01
218.113	-1.59
218.492	-1.95
218.871	-1.03
219.25	-7.25
219.629	-6.17
220.008	-12.49
220.387	-11.44
220.766	-12.3
221.144	-24.5
221.523	-35.23
221.902	-40.94
222.28	-50.64
222.659	-41.18
223.037	-34.65
223.416	-40.66
223.794	-45.14
224.173	-42.16
224.551	-39.14
224.929	-40.56
225.308	-38.04
225.686	-31.68
226.064	-28.95
226.442	-25.49
226.821	-20.34
227.199	-15.16
227.577	-12.35
227.955	-9.52
228.333	-7.08
228.711	-3
229.089	3.07
229.467	3.34
229.845	3.86
230.222	6.24
230.6	6.85
230.978	7.27
231.356	8.18
231.733	7.97
232.111	9.59
232.488	11.41
232.866	11.05
233.243	11.14
233.621	9.27
233.998	10.34
234.376	8.4
234.753	6.8
235.13	6.01
235.508	6.42
235.885	6.59
236.262	4.72
236.639	2.24
237.016	0.98
237.393	2.52
237.77	4.54
238.147	4.57
238.524	3.89
238.901	4.61
239.278	5.06
239.655	4.98
240.032	4.95
240.409	4.09
240.785	3.94
241.162	3.71
241.539	4.14
241.915	3.65
242.292	3.7
242.668	3.67
243.045	3.82
243.421	3.34
243.798	3.3
244.174	3.34
244.551	3.36
244.927	3.14
245.303	2.94
245.679	2.73
246.056	2.59
246.432	2.51
246.808	2.35
247.184	2.26
247.56	2.32
247.936	2.13
248.312	2.45
248.688	2.64
249.064	2.6
249.44	2.47
249.815	2.73
250.191	2.78
250.567	3.02
250.943	3.04
251.318	3.38
251.694	3.33
252.069	3.4
252.445	3.67
252.82	4.03
253.196	3.97
253.571	3.68
253.947	3.84
254.322	4.3
254.697	4.34
255.073	4.46
255.448	4.2
255.823	4.04
256.198	3.81
256.573	3.52
256.948	3.65
257.323	3.8
257.698	3.63
258.073	3.55
258.448	3.43
258.823	3.14
259.198	2.94
259.573	2.85
259.948	2.83
260.322	2.79
260.697	2.7
261.072	2.75
261.446	2.89
261.821	2.75
262.195	2.69
262.57	2.56
262.944	2.37
263.319	2.29
263.693	2.39
264.067	2.68
264.442	2.65
264.816	2.67
265.19	2.47
265.564	2.43
265.938	2.44
266.313	2.51
266.687	2.75
267.061	2.91
267.435	2.99
267.809	3.02
268.183	2.86
268.556	2.96
268.93	2.9
269.304	2.95
269.678	3.02
270.051	2.78
270.425	2.87
270.799	2.87
271.172	2.94
271.546	2.84
271.919	2.52
272.293	2.43
272.666	2.35
273.04	2.38
273.413	2.47
273.787	2.52
274.16	2.45
274.533	2.44
274.906	2.42
275.279	2.5
275.653	2.42
276.026	2.61
276.399	2.5
276.772	2.65
277.145	2.51
277.518	2.73
277.891	2.87
278.263	2.8
278.636	2.74
279.009	2.7
279.382	2.8
279.755	2.79
280.127	3.11
280.5	3.22
280.872	3.31
281.245	3.23
281.617	3.41
281.99	3.34
282.362	3.27
282.735	3
283.107	2.83
283.479	2.84
283.852	2.81
284.224	2.82
284.596	2.75
284.968	2.78
285.34	2.75
285.713	2.72
286.085	2.75
286.457	2.87
286.829	2.94
287.201	2.99
287.572	3.06
287.944	2.88
288.316	2.81
288.688	2.72
289.06	2.67
289.431	2.61
289.803	2.73
290.175	2.84
290.546	3.15
290.918	3.12
291.289	3.25
291.661	3.27
292.032	3.34
292.403	3.31
292.775	3.29
293.146	3.18
293.517	3.18
293.889	3.23
294.26	3.26
294.631	3.29
295.002	3.33
295.373	3.42
295.744	3.56
296.115	3.62
296.486	3.7
296.857	3.74
297.228	3.73
297.599	3.69
297.97	3.64
298.34	3.53
298.711	3.66
299.082	3.64
299.452	3.67
299.823	3.76
300.194	3.84
300.564	3.86
300.935	3.86
301.305	4.01
301.676	4.13
302.046	4.1
302.416	4.16
302.787	4.04
303.157	3.98
303.527	3.91
303.897	3.9
304.267	4.04
304.637	4.17
305.008	4.3
305.378	4.56
305.748	4.63
306.117	4.75
306.487	4.81
306.857	4.91
307.227	5.07
307.597	4.91
307.967	4.99
308.336	5.24
308.706	5.42
309.076	5.55
309.445	5.5
309.815	5.54
310.184	5.66
310.554	5.86
310.923	5.9
311.293	6.03
311.662	6.03
312.031	5.91
312.401	5.96
312.77	6.07
313.139	6.12
313.508	6.27
313.877	6.24
314.246	6.39
314.616	6.34
314.985	6.33
315.353	6.47
315.722	6.6
316.091	6.67
316.46	6.65
316.829	6.72
317.198	6.88
317.567	6.94
317.935	7.04
318.304	7.07
318.672	7.17
319.041	7.29
319.41	7.52
319.778	7.71
320.147	7.71
320.515	7.77
320.883	7.58
321.252	7.57
321.62	7.7
321.988	7.63
322.357	7.81
322.725	7.82
323.093	7.96
323.461	8.02
323.829	7.95
324.197	8.11
324.565	8.12
324.933	8.24
325.301	8.32
325.669	8.25
326.037	8.26
326.405	8.39
326.772	8.5
327.14	8.53
327.508	8.61
327.875	8.74
328.243	8.62
328.61	8.66
328.978	8.8
329.346	8.85
329.713	8.9
330.08	8.9
330.448	8.92
330.815	8.88
331.182	8.94
331.55	9.08
331.917	9.08
332.284	9.14
332.651	9.04
333.018	9.18
333.385	9.22
333.752	9.45
334.119	9.42
334.486	9.41
334.853	9.42
335.22	9.33
335.587	9.34
335.954	9.49
336.32	9.61
336.687	9.61
337.054	9.72
337.42	9.88
337.787	9.96
338.153	10.09
338.52	10.29
338.886	10.3
339.253	10.22
339.619	10.27
339.986	10.15
340.352	10.24
340.718	10.11
341.084	10.07
341.451	10.15
341.817	10.26
342.183	10.28
342.549	10.24
342.915	10.23
343.281	10.25
343.647	10.18
344.013	10.25
344.379	10.24
344.745	10.27
345.11	10.22
345.476	10.25
345.842	10.27
346.208	10.21
346.573	10.15
346.939	10.29
347.304	10.28
347.67	10.35
348.035	10.28
348.401	10.33
348.766	10.45
349.132	10.41
349.497	10.37
349.862	10.42
350.228	10.5
350.593	10.63
350.958	10.66
351.323	10.78
351.688	10.73
352.053	10.8
352.418	10.71
352.783	10.78
353.148	10.77
353.513	10.77
353.878	10.7
354.243	10.82
354.608	10.71
354.972	10.64
355.337	10.69
355.702	10.67
356.066	10.73
356.431	10.67
356.795	10.66
357.16	10.67
357.524	10.57
357.889	10.49
358.253	10.47
358.618	10.45
358.982	10.35
359.346	10.28
359.71	10.18
360.075	10.17
360.439	10.09
360.803	10.02
361.167	9.99
361.531	9.95
361.895	9.86
362.259	9.9
362.623	9.88
362.987	9.81
363.351	9.86
363.714	9.87
364.078	9.85
364.442	9.73
364.806	9.66
365.169	9.65
365.533	9.7
365.896	9.63
366.26	9.56
366.623	9.49
366.987	9.56
367.35	9.53
367.714	9.5
368.077	9.5
368.44	9.45
368.803	9.44
369.167	9.34
369.53	9.3
369.893	9.24
370.256	9.27
370.619	9.19
370.982	9.04
371.345	8.95
371.708	8.91
372.071	8.8
372.434	8.77
372.797	8.69
373.159	8.56
373.522	8.47
373.885	8.43
374.247	8.42
374.61	8.3
374.973	8.2
375.335	8.13
375.698	8.06
376.06	8.02
376.423	7.91
376.785	7.91
377.147	7.86
377.51	7.76
377.872	7.66
378.234	7.62
378.596	7.52
378.958	7.42
379.321	7.33
379.683	7.33
380.045	7.21
380.407	7.12
380.769	7.07
381.13	6.95
381.492	6.85
381.854	6.74
382.216	6.69
382.578	6.67
382.939	6.59
383.301	6.47
383.663	6.37
384.024	6.28
384.386	6.26
384.747	6.21
385.109	6.14
385.47	6.08
385.832	5.99
386.193	6.01
386.554	5.93
386.916	5.9
387.277	5.82
387.638	5.81
387.999	5.75
388.36	5.74
388.721	5.73
389.082	5.64
389.443	5.58
389.804	5.51
390.165	5.45
390.526	5.38
390.887	5.37
391.248	5.4
391.609	5.38
391.969	5.35
392.33	5.29
392.691	5.27
393.051	5.21
393.412	5.19
393.772	5.14
394.133	5.12
394.493	5.04
394.854	5
395.214	4.95
395.574	4.94
395.935	4.86
396.295	4.86
396.655	4.86
397.015	4.84
397.376	4.79
397.736	4.75
398.096	4.75
398.456	4.67
398.816	4.58
399.176	4.52
399.535	4.43
399.895	4.36
400.255	4.32
400.615	4.31
400.975	4.28
401.334	4.24
401.694	4.21
402.054	4.22
402.413	4.23
402.773	4.13
403.132	4.09
403.492	4.07
403.851	4.03
404.211	3.99
404.57	3.97
404.929	3.96
405.288	3.91
405.648	3.87
406.007	3.85
406.366	3.83
406.725	3.82
407.084	3.82
407.443	3.8
407.802	3.8
408.161	3.75
408.52	3.73
408.879	3.71
409.238	3.67
409.596	3.62
409.955	3.62
410.314	3.65
410.673	3.6
411.031	3.57
411.39	3.56
411.748	3.56
412.107	3.56
412.465	3.53
412.824	3.54
413.182	3.52
413.54	3.52
413.899	3.51
414.257	3.51
414.615	3.48
414.974	3.48
415.332	3.45
415.69	3.43
416.048	3.42
416.406	3.4
416.764	3.38
417.122	3.4
417.48	3.36
417.838	3.35
418.195	3.34
418.553	3.32
418.911	3.3
419.269	3.28
419.626	3.25
419.984	3.25
420.342	3.25
420.699	3.24
421.057	3.22
421.414	3.2
421.772	3.17
422.129	3.17
422.486	3.15
422.844	3.15
423.201	3.13
423.558	3.11
423.915	3.1
424.273	3.09
424.63	3.04
424.987	3.04
425.344	3.02
425.701	3.01
426.058	3
426.415	2.98
426.772	2.96
427.128	2.95
427.485	2.93
427.842	2.91
428.199	2.9
428.555	2.88
428.912	2.89
429.269	2.87
429.625	2.83
429.982	2.82
430.338	2.81
430.695	2.81
431.051	2.79
431.407	2.78
431.764	2.8
432.12	2.8
432.476	2.79
432.832	2.8
433.189	2.8
433.545	2.79
433.901	2.79
434.257	2.78
434.613	2.8
434.969	2.8
435.325	2.8
435.681	2.8
436.036	2.81
436.392	2.81
436.748	2.81
437.104	2.81
437.459	2.83
437.815	2.81
438.171	2.82
438.526	2.8
438.882	2.81
439.237	2.79
439.593	2.78
439.948	2.76
440.304	2.76
440.659	2.76
441.014	2.77
441.369	2.75
441.725	2.75
442.08	2.74
442.435	2.71
442.79	2.71
443.145	2.71
443.5	2.7
443.855	2.68
444.21	2.68
444.565	2.69
444.92	2.68
445.275	2.67
445.629	2.66
445.984	2.66
446.339	2.65
446.693	2.64
447.048	2.64
447.403	2.64
447.757	2.62
448.112	2.62
448.466	2.59
448.82	2.61
449.175	2.6
449.529	2.6
449.883	2.59
450.238	2.57
450.592	2.58
450.946	2.58
451.3	2.58
451.654	2.59
452.008	2.57
452.362	2.57
452.716	2.58
453.07	2.58
453.424	2.59
453.778	2.58
454.132	2.59
454.486	2.58
454.839	2.57
455.193	2.56
455.547	2.56
455.9	2.58
456.254	2.59
456.607	2.62
456.961	2.61
457.314	2.61
457.668	2.59
458.021	2.57
458.375	2.57
458.728	2.57
459.081	2.55
459.434	2.56
459.787	2.55
460.141	2.53
460.494	2.54
460.847	2.54
461.2	2.53
461.553	2.54
461.906	2.54
462.259	2.56
462.611	2.58
462.964	2.59
463.317	2.59
463.67	2.57
464.022	2.53
464.375	2.54
464.728	2.55
465.08	2.58
465.433	2.58
465.785	2.58
466.138	2.57
466.49	2.57
466.843	2.56
467.195	2.57
467.547	2.6
467.899	2.6
468.252	2.63
468.604	2.65
468.956	2.65
469.308	2.66
469.66	2.65
470.012	2.65
470.364	2.66
470.716	2.65
471.068	2.68
471.42	2.71
471.772	2.71
472.123	2.72
472.475	2.74
472.827	2.75
473.178	2.77
473.53	2.78
473.882	2.81
474.233	2.83
474.585	2.84
474.936	2.83
475.288	2.83
475.639	2.83
475.99	2.85
476.342	2.87
476.693	2.88
477.044	2.9
477.395	2.91
477.746	2.91
478.097	2.92
478.448	2.93
478.8	2.93
479.15	2.92
479.501	2.92
479.852	2.9
480.203	2.92
480.554	2.92
480.905	2.91
481.255	2.9
481.606	2.9
481.957	2.9
482.307	2.9
482.658	2.9
483.009	2.89
483.359	2.88
483.709	2.88
484.06	2.88
484.41	2.87
484.761	2.87
485.111	2.87
485.461	2.87
485.811	2.86
486.162	2.86
486.512	2.87
486.862	2.86
487.212	2.86
487.562	2.85
487.912	2.85
488.262	2.86
488.612	2.85
488.961	2.85
489.311	2.85
489.661	2.86
490.011	2.85
490.36	2.84
490.71	2.84
491.06	2.85
491.409	2.85
491.759	2.85
492.108	2.84
492.458	2.84
492.807	2.83
493.157	2.84
493.506	2.84
493.855	2.85
494.204	2.84
494.554	2.84
494.903	2.83
495.252	2.84
495.601	2.84
495.95	2.85
496.299	2.87
496.648	2.87
496.997	2.87
497.346	2.89
497.695	2.93
498.043	2.93
498.392	2.93
498.741	2.97
499.09	2.97
499.438	3
499.787	3.02
500.135	3.05
500.484	3.05
500.832	3.07
501.181	3.08
501.529	3.1
501.878	3.14
502.226	3.17
502.574	3.18
502.923	3.2
503.271	3.23
503.619	3.29
503.967	3.32
504.315	3.34
504.663	3.38
505.011	3.43
505.359	3.47
505.707	3.52
506.055	3.54
506.403	3.61
506.751	3.66
507.098	3.71
507.446	3.75
507.794	3.83
508.141	3.9
508.489	3.98
508.837	4.06
509.184	4.14
509.531	4.23
509.879	4.32
510.226	4.4
510.574	4.48
510.921	4.55
511.268	4.64
511.616	4.74
511.963	4.85
512.31	4.94
512.657	5.06
513.004	5.17
513.351	5.3
513.698	5.45
514.045	5.58
514.392	5.73
514.739	5.89
515.086	6.05
515.432	6.2
515.779	6.36
516.126	6.52
516.473	6.68
516.819	6.83
517.166	6.98
517.512	7.15
517.859	7.31
518.205	7.47
518.552	7.63
518.898	7.8
519.245	7.94
519.591	8.12
519.937	8.3
520.283	8.5
520.629	8.72
520.976	8.96
521.322	9.2
521.668	9.45
522.014	9.72
522.36	10
522.706	10.29
523.052	10.58
523.398	10.94
523.743	11.28
524.089	11.61
524.435	11.93
524.781	12.23
525.126	12.53
525.472	12.79
525.817	13.03
526.163	13.26
526.509	13.47
526.854	13.69
527.199	13.89
527.545	14.07
527.89	14.28
528.235	14.45
528.581	14.64
528.926	14.81
529.271	15.01
529.616	15.18
529.961	15.37
530.306	15.55
530.651	15.73
530.996	15.94
531.341	16.14
531.686	16.35
532.031	16.56
532.376	16.78
532.721	17.01
533.065	17.24
533.41	17.47
533.755	17.72
534.099	17.94
534.444	18.18
534.788	18.42
535.133	18.62
535.477	18.84
535.822	19.08
536.166	19.35
536.51	19.59
536.855	19.89
537.199	20.19
537.543	20.48
537.887	20.79
538.231	21.06
538.576	21.37
538.92	21.67
539.264	21.96
539.608	22.21
539.951	22.46
540.295	22.7
540.639	22.93
540.983	23.15
541.327	23.38
541.671	23.57
542.014	23.77
542.358	23.99
542.701	24.19
543.045	24.39
543.389	24.58
543.732	24.8
544.075	24.99
544.419	25.2
544.762	25.41
545.105	25.62
545.449	25.84
545.792	26.09
546.135	26.3
546.478	26.57
546.821	26.86
547.165	27.11
547.508	27.39
547.851	27.69
548.194	27.93
548.536	28.21
548.879	28.52
549.222	28.8
549.565	29.08
549.908	29.38
550.25	29.67
550.593	29.98
550.936	30.27
551.278	30.59
551.621	30.9
551.963	31.22
552.306	31.47
552.648	31.79
552.991	32.04
553.333	32.33
553.675	32.5
554.017	32.7
554.36	32.92
554.702	33.16
555.044	33.38
555.386	33.68
555.728	33.9
556.07	34.1
556.412	34.34
556.754	34.57
557.096	34.84
557.438	35.05
557.78	35.29
558.121	35.5
558.463	35.65
558.805	35.8
559.147	36
559.488	36.24
559.83	36.4
560.171	36.66
560.513	36.85
560.854	37.12
561.196	37.38
561.537	37.6
561.878	37.79
562.22	37.97
562.561	38.14
562.902	38.32
563.243	38.57
563.584	38.77
563.925	38.98
564.266	39.13
564.607	39.3
564.948	39.5
565.289	39.7
565.63	39.91
565.971	40.15
566.312	40.32
566.653	40.53
566.993	40.76
567.334	40.89
567.675	41.02
568.015	41.21
568.356	41.33
568.696	41.53
569.037	41.67
569.377	41.85
569.718	42
570.058	42.2
570.398	42.31
570.739	42.43
571.079	42.55
571.419	42.67
571.759	42.82
572.099	42.97
572.439	43.06
572.779	43.12
573.119	43.21
573.459	43.31
573.799	43.37
574.139	43.46
574.479	43.53
574.819	43.71
575.158	43.81
575.498	43.91
575.838	43.98
576.177	44.07
576.517	44.16
576.856	44.32
577.196	44.4
577.535	44.48
577.875	44.62
578.214	44.76
578.553	44.9
578.893	44.93
579.232	45.05
579.571	45.18
579.91	45.39
580.25	45.52
580.589	45.69
580.928	45.82
581.267	45.83
581.606	46.02
581.945	46.14
582.283	46.25
582.622	46.37
582.961	46.53
583.3	46.71
583.639	46.85
583.977	46.93
584.316	47.06
584.654	47.14
584.993	47.22
585.332	47.34
585.67	47.41
586.008	47.51
586.347	47.56
586.685	47.59
587.024	47.68
587.362	47.73
587.7	47.79
588.038	47.85
588.376	48
588.715	48.03
589.053	48.01
589.391	48.08
589.729	48.1
590.067	48.15
590.404	48.11
590.742	48.16
591.08	48.18
591.418	48.24
591.756	48.31
592.093	48.37
592.431	48.37
592.769	48.47
593.106	48.66
593.444	48.68
593.781	48.73
594.119	48.73
594.456	48.84
594.793	48.86
595.131	48.92
595.468	48.96
595.805	49.01
596.143	49.11
596.48	49.16
596.817	49.19
597.154	49.22
597.491	49.31
597.828	49.32
598.165	49.36
598.502	49.43
598.839	49.5
599.176	49.56
599.512	49.63
599.849	49.63
600.186	49.63
600.523	49.69
600.859	49.79
601.196	49.87
601.532	49.83
601.869	49.86
602.205	49.94
602.542	49.89
602.878	50
603.215	50.02
603.551	50.02
603.887	50.08
604.223	50.1
604.56	50.28
604.896	50.37
605.232	50.42
605.568	50.43
605.904	50.47
606.24	50.47
606.576	50.53
606.912	50.56
607.248	50.62
607.583	50.61
607.919	50.64
608.255	50.66
608.591	50.78
608.926	50.83
609.262	50.85
609.597	50.94
609.933	51
610.268	51.07
610.604	51.17
610.939	51.21
611.275	51.27
611.61	51.15
611.945	51.09
612.281	51.03
612.616	51.06
612.951	51.09
613.286	51.18
613.621	51.16
613.956	51.17
614.291	51.06
614.626	51.17
614.961	51.07
615.296	51.14
615.631	51.14
615.966	51.14
616.3	51.15
616.635	51.18
616.97	51.13
617.304	51.14
617.639	51.13
617.973	51.18
618.308	51.2
618.642	51.13
618.977	51.24
619.311	51.33
619.646	51.39
619.98	51.42
620.314	51.49
620.648	51.54
620.983	51.63
621.317	51.77
621.651	51.76
621.985	51.94
622.319	51.9
622.653	51.86
622.987	51.85
623.321	51.85
623.655	51.85
623.988	51.96
624.322	51.94
624.656	51.93
624.99	51.88
625.323	51.92
625.657	52.06
625.99	52.11
626.324	52.18
626.657	52.17
626.991	52.19
627.324	52.2
627.658	52.16
627.991	52.18
628.324	52.18
628.657	52.19
628.991	52.17
629.324	52.18
629.657	52.24
629.99	52.37
630.323	52.45
630.656	52.6
630.989	52.45
631.322	52.43
631.655	52.41
631.987	52.54
632.32	52.55
632.653	52.54
632.986	52.58
633.318	52.51
633.651	52.52
633.984	52.54
634.316	52.44
634.649	52.42
634.981	52.38
635.313	52.43
635.646	52.41
635.978	52.42
636.31	52.39
636.643	52.46
636.975	52.4
637.307	52.44
637.639	52.38
637.971	52.43
638.303	52.53
638.635	52.52
638.967	52.47
639.299	52.59
639.631	52.57
639.963	52.45
640.295	52.57
640.626	52.59
640.958	52.62
641.29	52.73
641.621	52.85
641.953	52.92
642.285	52.91
642.616	52.98
642.948	52.98
643.279	53.19
643.61	53.21
643.942	53.16
644.273	53.01
644.604	52.9
644.936	52.88
645.267	52.93
645.598	53.03
645.929	53.05
646.26	53.02
646.591	53.01
646.922	53.03
647.253	53
647.584	53.03
647.915	52.95
648.245	52.9
648.576	52.86
648.907	52.81
649.238	52.76
649.568	52.78
649.899	52.81
650.229	52.68
650.56	52.61
650.89	52.62
651.221	52.74
651.551	52.81
651.882	52.82
652.212	52.8
652.542	52.83
652.872	52.89
653.203	52.93
653.533	53.01
653.863	52.91
654.193	52.9
654.523	52.79
654.853	52.84
655.183	53.01
655.513	53.05
655.843	53.04
656.172	53.11
656.502	53.24
656.832	53.18
657.162	53.26
657.491	53.28
657.821	53.32
658.15	53.29
658.48	53.26
658.809	53.26
659.139	53.05
659.468	52.94
659.798	52.85
660.127	52.82
660.456	52.82
660.785	53.04
661.115	53.05
661.444	53.09
661.773	53.2
662.102	53.1
662.431	53.08
662.76	53.2
663.089	53.17
663.418	52.94
663.747	53.03
664.076	53.06
664.404	53
664.733	53.11
665.062	53.12
665.39	53.12
665.719	53.14
666.048	53.36
666.376	53.4
666.705	53.43
667.033	53.36
667.362	53.39
667.69	53.25
668.018	53.36
668.347	53.4
668.675	53.32
669.003	53.26
669.331	53.16
669.659	53.02
669.987	52.99
670.315	53.17
670.643	53.09
670.971	53.05
671.299	53.23
671.627	53.26
671.955	53.17
672.283	53.18
672.61	53.26
672.938	53.33
673.266	53.33
673.593	53.39
673.921	53.31
674.249	53.34
674.576	53.41
674.904	53.26
675.231	53.15
675.558	53.25
675.886	53.18
676.213	53.38
676.54	53.47
676.867	53.41
677.195	53.35
677.522	53.41
677.849	53.29
678.176	53.17
678.503	52.91
678.83	53
679.157	52.97
679.484	52.95
679.81	52.96
680.137	52.92
680.464	52.9
680.791	52.98
681.117	52.85
681.444	52.81
681.771	52.87
682.097	52.98
682.424	52.91
682.75	53.03
683.077	52.91
683.403	52.85
683.729	52.9
684.056	52.92
684.382	52.94
684.708	52.99
685.034	52.96
685.36	53.16
685.686	53.12
686.012	53.26
686.339	53.27
686.664	53.13
686.99	53.21
687.316	53.14
687.642	53.07
687.968	53.04
688.294	53.06
688.619	52.96
688.945	53.03
689.271	53.01
689.596	52.9
689.922	52.96
690.247	53.08
690.573	53.08
690.898	53.07
691.224	53.14
691.549	53.04
691.874	53.05
692.2	52.91
692.525	52.81
692.85	52.67
693.175	52.64
693.5	52.79
693.825	52.82
694.15	52.92
694.475	53.04
694.8	53.11
695.125	53.1
695.45	53.2
695.775	53.07
696.099	53.11
696.424	53.04
696.749	53.05
697.073	53.03
697.398	52.97
697.723	52.92
698.047	52.83
698.372	52.92
698.696	52.96
699.02	53
699.345	53.07
699.669	53.14
699.993	53.16
700.318	53.06
700.642	53.01
700.966	52.87
701.29	52.82
701.614	52.9
701.938	52.89
702.262	52.97
702.586	53.11
702.91	52.95
703.234	53.09
703.557	53.12
703.881	53.25
704.205	53.27
704.529	53.21
704.852	53.38
705.176	53.34
705.499	53.26
705.823	53.26
706.146	53.14
706.47	53.24
706.793	53.27
707.117	53.29
707.44	53.39
707.763	53.63
708.086	53.45
708.409	53.24
708.733	53.26
709.056	53.09
709.379	53.02
709.702	53.04
710.025	53.11
710.348	53.01
710.671	52.72
710.993	52.81
711.316	52.89
711.639	52.86
711.962	52.82
712.284	52.94
712.607	53.01
712.93	53.3
713.252	53.02
713.575	53.02
713.897	52.95
714.22	52.92
714.542	52.97
714.864	53.15
715.187	53.28
715.509	53.16
715.831	53.11
716.153	53.1
716.475	53.14
716.798	53
717.12	53.09
717.442	53.33
717.764	53.4
718.085	53.5
718.407	53.41
718.729	53.48
719.051	53.43
719.373	53.37
719.695	53.14
720.016	53.36
720.338	53.35
720.659	53.46
720.981	53.47
721.302	53.38
721.624	53.26
721.945	53.3
722.267	53.5
722.588	53.59
722.909	53.56
723.231	53.55
723.552	53.55
723.873	53.46
724.194	53.34
724.515	53.33
724.836	53.2
725.157	53.17
725.478	53.39
725.799	53.45
726.12	53.43
726.441	53.51
726.762	53.56
727.083	53.75
727.403	53.8
727.724	53.89
728.045	53.86
728.365	53.9
728.686	53.94
729.006	53.77
729.327	53.88
729.647	53.96
729.967	54.18
730.288	54.17
730.608	54.17
730.928	54.25
731.249	54.14
731.569	54.34
731.889	54.34
732.209	54.14
732.529	54.12
732.849	54.13
733.169	54.14
733.489	54.07
733.809	53.7
734.129	53.72
734.448	53.69
734.768	53.66
735.088	53.62
735.408	53.49
735.727	53.75
736.047	53.64
736.366	53.64
736.686	53.58
737.005	53.59
737.325	53.59
737.644	53.27
737.963	53.34
738.283	52.93
738.602	52.84
738.921	53.15
739.24	53.23
739.56	53.33
739.879	53.68
740.198	53.52
740.517	53.78
740.836	53.74
741.155	53.77
741.473	53.76
741.792	54.03
742.111	54.2
742.43	53.87
742.748	53.99
743.067	53.85
743.386	53.61
743.704	53.89
744.023	54.03
744.341	54.16
744.66	54.06
744.978	54.14
745.297	53.94
745.615	53.62
745.933	53.73
746.252	53.5
746.57	52.74
746.888	52.84
747.206	52.92
747.524	52.88
747.842	52.57
748.16	52.75
748.478	52.63
748.796	52.62
749.114	52.75
749.432	52.59
749.749	52.86
750.067	53
750.385	52.78
750.703	52.82
751.02	52.98
751.338	53.06
751.655	53.05
751.973	53.53
752.29	53.82
752.608	53.55
752.925	53.8
753.242	54.24
753.56	54.13
753.877	54.06
754.194	54.2
754.511	54.35
754.828	54.08
755.145	53.83
755.462	53.52
755.779	54.03
756.096	54
756.413	53.63
756.73	53.41
757.047	53.51
757.364	53.34
757.68	53.25
757.997	53.34
758.314	53.49
758.63	53.6
758.947	53.33
759.264	53.37
759.58	53.25
759.896	53.09
760.213	53.31
760.529	53.37
760.846	53.4
761.162	53.39
761.478	53.26
761.794	53.27
762.11	53.53
762.426	53.38
762.743	53.19
763.059	53.23
763.375	53.69
763.69	53.94
764.006	53.9
764.322	54.01
764.638	54.08
764.954	54.09
765.27	53.92
765.585	53.9
765.901	53.87
766.216	53.83
766.532	53.7
766.848	53.37
767.163	53.5
767.478	53.43
767.794	53.31
768.109	53.44
768.424	53.88
768.74	53.7
769.055	53.52
769.37	53.92
769.685	53.99
770	53.81
770.315	53.38
770.63	53.69
770.945	53.76
771.26	53.7
771.575	53.9
771.89	54.09
772.205	54.25
772.52	53.89
772.834	53.93
773.149	54.44
773.464	54.76
773.778	54.43
774.093	54.54
774.407	54.52
774.722	54.78
775.036	54.33
775.351	54.36
775.665	54.18
775.979	54.28
776.293	54.44
776.608	54.4
776.922	54.49
777.236	53.86
777.55	53.27
777.864	53.42
778.178	53.48
778.492	53.23
778.806	52.98
779.12	53.9
779.434	53.72
779.747	53.64
780.061	53.8
780.375	53.93
780.689	53.8
781.002	53.98
781.316	53.9
781.629	54.2
781.943	54.59
782.256	54.81
782.57	54.45
782.883	54.32
783.196	54.18
783.51	53.85
783.823	53.98
784.136	54.25
784.449	54.03
784.762	53.74
785.075	53.91
785.388	54.35
785.701	53.83
786.014	54.12
786.327	53.73
786.64	53.56
786.953	53.4
787.266	53.3
787.578	53.62
787.891	53.43
788.204	53.22
788.516	53.13
788.829	53.09
789.141	53.1
789.454	52.99
789.766	52.67
790.079	52.77
790.391	52.7
790.703	52.55
791.016	52.71
791.328	52.67
791.64	52.97
791.952	53.07
792.264	52.81
792.576	52.62
792.888	53.28
793.2	53.28
793.512	53.04
793.824	52.95
794.136	53.15
794.448	53.27
794.76	52.93
795.071	53.03
795.383	52.58
795.695	52.3
796.006	52.53
796.318	53.46
796.629	53.5
796.941	53.92
797.252	54.66
797.564	54.58
797.875	53.59
798.186	53.08
798.497	53.1
798.809	53.55
799.12	54.06
799.431	53.46
799.742	53.54
800.053	54.26
800.364	54.21
800.675	53.7
800.986	53.47
801.297	53.82
801.608	53.23
801.918	53.2
802.229	54.03
802.54	53.84
802.851	52.97
803.161	53.13
803.472	53.03
803.782	52.85
804.093	52.84
804.403	53.48
804.714	53.39
805.024	52.42
805.334	52.78
805.645	52.49
805.955	52.56
806.265	52.5
806.575	51.94
806.885	51.91
807.195	52.28
807.505	51.85
807.815	51.74
808.125	51.55
808.435	51.7
808.745	51.62
809.055	51.57
809.365	51.85
809.674	51.74
809.984	52.09
810.294	51.91
810.603	51.88
810.913	52.69
811.222	52.72
811.532	53.47
811.841	52.96
812.151	53.13
812.46	53.42
812.769	53.74
813.079	53.79
813.388	53.54
813.697	53.34
814.006	53.84
814.315	53.62
814.624	54
814.933	54.51
815.242	53.51
815.551	53.62
815.86	53.96
816.169	53.81
816.478	53.18
816.786	52.94
817.095	52.85
817.404	52.59
817.712	52.72
818.021	52.6
818.33	52.42
818.638	51.85
818.947	51.56
819.255	51.26
819.563	51.4
819.872	51.49
820.18	51.57
820.488	52.25
820.796	52.44
821.105	52.68
821.413	52.74
821.721	53.13
822.029	53.16
822.337	53.38
822.645	53.64
822.953	53.82
823.26	54.07
823.568	53.93
823.876	53.8
824.184	53.71
824.491	53.61
824.799	53.77
825.107	53.9
825.414	54.06
825.722	54.39
826.029	54.58
826.337	54.88
826.644	55.03
826.951	54.9
827.259	54.98
827.566	54.83
827.873	54.76
828.18	54.76
828.488	54.86
828.795	54.31
829.102	54.2
829.409	54.09
829.716	53.86
830.023	54.17
830.329	54.18
830.636	54.34
830.943	54.53
831.25	54.31
831.557	54.71
831.863	54.7
832.17	54.1
832.476	53.86
832.783	53.67
833.089	53.45
833.396	53.29
833.702	53.22
834.009	53.58
834.315	53.57
834.621	53.74
834.928	53.41
835.234	53.58
835.54	53.33
835.846	52.86
836.152	52.89
836.458	53.2
836.764	53.62
837.07	53.85
837.376	53.61
837.682	53.5
837.988	52.83
838.293	53.11
838.599	53.17
838.905	52.75
839.211	52.86
839.516	52.93
839.822	53.33
840.127	53.22
840.433	53.08
840.738	54.09
841.044	53.15
841.349	53.94
841.654	53.89
841.959	54.22
842.265	54.03
842.57	53.12
842.875	51.56
843.18	52.63
843.485	52.98
843.79	53.68
844.095	54.38
844.4	55.02
844.705	54.52
845.01	55.5
845.315	54.74
845.619	53.32
845.924	53.64
846.229	53.15
846.533	52.9
846.838	52.06
847.142	49.73
847.447	49.83
847.751	48.19
848.056	47.93
848.36	47.54
848.664	50.18
848.969	51.16
849.273	53.3
849.577	50.7
849.881	48.33
850.185	49.79
850.489	48.96
850.794	48.93
851.097	48.52
851.401	48.09
851.705	50.24
852.009	51.11
852.313	49.12
852.617	48.78
852.92	51.03
853.224	52.07
853.528	52.21
853.831	52.33
854.135	53.74
854.438	53.66
854.742	53.8
855.045	52.66
855.349	52.53
855.652	51.08
855.955	50.65
856.259	49.29
856.562	47.65
856.865	48.2
857.168	48.65
857.471	48.24
857.774	48.2
858.077	48.38
858.38	48.19
858.683	50.38
858.986	50.93
859.289	49.58
859.592	50.13
859.894	51.63
860.197	50.67
860.5	50.15
860.802	49.83
861.105	51
861.407	51.01
861.71	50.55
862.012	50.56
862.315	51.22
862.617	53.25
862.919	55.61
863.222	56.63
863.524	58.05
863.826	59.15
864.128	59.75
864.43	58.22
864.732	60.34
865.034	59.44
865.336	60.29
865.638	60.62
865.94	59.41
866.242	58.71
866.544	60.43
866.846	63.08
867.147	63.06
867.449	62.57
867.751	61.89
868.052	63.67
868.354	64.13
868.655	65.79
868.957	65.77
869.258	63.37
869.56	63.71
869.861	59
870.162	57.28
870.463	56.77
870.765	58.13
871.066	57.89
871.367	56.71
871.668	55.33
871.969	55.65
872.27	55.39
872.571	57.69
872.872	56.71
873.173	54.68
873.473	55.76
873.774	55.78
874.075	55.92
874.376	53.34
874.676	53.55
874.977	52.03
875.277	51.28
875.578	51.01
875.878	48.8
876.179	50.58
876.479	51.68
876.78	51.27
877.08	50.56
877.38	49.61
877.68	51.38
877.981	51.48
878.281	50.69
878.581	51.28
