Data from BU58002_Reflection_00013.txt Node
Date: Tue Nov 19 10:57:59 EST 2019
User: vgr7
Spectrometer: USB2G7710
Scans to average: 3
Trigger mode: 4
Integration Time (sec): 2.000000E-2
Electric dark correction enabled: true
Boxcar width: 10
XAxis mode: Wavelengths
Number of Pixels in Spectrum: 2048
>>>>>Begin Spectral Data<<<<<
177.721	-127.5
178.105	-59.93
178.488	-104.09
178.871	-193.18
179.254	-9.62
179.636	-5.12
180.019	-9.3
180.402	100
180.785	-415.62
181.168	-1002.94
181.55	-65.87
181.933	2.62
182.316	-10.72
182.698	-3.39
183.081	-27.36
183.463	-56.5
183.846	-57.73
184.228	-53.69
184.611	-161.24
184.993	-234.09
185.376	-93.44
185.758	-805.17
186.14	209.62
186.522	271.61
186.904	-1085
187.287	-1932.89
187.669	902.94
188.051	352.3
188.433	-1555.66
188.815	2644.64
189.197	515.47
189.579	379.71
189.961	184.53
190.342	133.35
190.724	112.65
191.106	118.32
191.488	154.88
191.869	149.51
192.251	187.92
192.633	136.84
193.014	134.53
193.396	109.52
193.777	132.36
194.159	116.7
194.54	99.25
194.922	79.69
195.303	87.44
195.684	89.56
196.065	114.4
196.447	81.11
196.828	71.51
197.209	82.65
197.59	67.54
197.971	59.48
198.352	73.38
198.733	74.59
199.114	72.94
199.495	60.86
199.876	59.21
200.257	36.82
200.638	39.58
201.018	25.98
201.399	52.8
201.78	43.58
202.16	54.83
202.541	59.11
202.922	43.38
203.302	23.31
203.683	21.57
204.063	10.25
204.444	13.14
204.824	9.11
205.204	4.51
205.585	-0.04
205.965	1.52
206.345	-9.36
206.725	-2.77
207.106	-2.89
207.486	-7.71
207.866	9.78
208.246	13.46
208.626	9.63
209.006	20.75
209.386	21.21
209.766	14.76
210.145	18.28
210.525	16.35
210.905	28.72
211.285	37.86
211.664	48.26
212.044	62.59
212.424	61
212.803	82.11
213.183	80.3
213.562	80.7
213.942	76.9
214.321	69.03
214.701	57.4
215.08	71.33
215.459	73.9
215.838	68.12
216.218	61.24
216.597	79.75
216.976	75.34
217.355	75.85
217.734	76.41
218.113	77.3
218.492	112.3
218.871	102.25
219.25	85.23
219.629	88.49
220.008	76.51
220.387	77.13
220.766	66.99
221.144	64.1
221.523	57.95
221.902	44.09
222.28	38.64
222.659	55.73
223.037	55.49
223.416	49.84
223.794	47.94
224.173	46.45
224.551	33.01
224.929	29.09
225.308	24.65
225.686	24.01
226.064	23.81
226.442	21.58
226.821	15.75
227.199	16.13
227.577	17.74
227.955	17.12
228.333	13.63
228.711	12.51
229.089	12.48
229.467	11.98
229.845	13.88
230.222	14.99
230.6	11.67
230.978	9.68
231.356	9.59
231.733	8.67
232.111	7.6
232.488	7.29
232.866	9.2
233.243	8.67
233.621	9.33
233.998	9.22
234.376	8.68
234.753	9.2
235.13	9.82
235.508	6.32
235.885	5.17
236.262	5.92
236.639	4.54
237.016	4.42
237.393	3.65
237.77	3.44
238.147	2.78
238.524	3.07
238.901	3.23
239.278	3.34
239.655	3.44
240.032	3.91
240.409	4.06
240.785	3.46
241.162	3.81
241.539	4.17
241.915	3.61
242.292	3.49
242.668	3.95
243.045	3.7
243.421	4.35
243.798	5
244.174	5.22
244.551	5.41
244.927	5.35
245.303	5.4
245.679	5.17
246.056	5.19
246.432	5.05
246.808	4.95
247.184	5.19
247.56	5.3
247.936	5.47
248.312	5.5
248.688	5.52
249.064	5.38
249.44	5.32
249.815	5.61
250.191	5.62
250.567	5.61
250.943	5.51
251.318	5.43
251.694	5.25
252.069	5.39
252.445	5.45
252.82	5.57
253.196	5.66
253.571	5.9
253.947	6.16
254.322	6.29
254.697	6.12
255.073	5.83
255.448	5.7
255.823	5.48
256.198	5.41
256.573	5.54
256.948	5.61
257.323	5.72
257.698	5.62
258.073	5.52
258.448	5.34
258.823	5.36
259.198	5.35
259.573	5.22
259.948	4.94
260.322	4.93
260.697	5.19
261.072	5.19
261.446	5.07
261.821	5.05
262.195	5.04
262.57	5.06
262.944	5.11
263.319	5.08
263.693	4.96
264.067	5.03
264.442	5.03
264.816	4.96
265.19	4.61
265.564	4.51
265.938	4.38
266.313	4.46
266.687	4.48
267.061	4.68
267.435	4.74
267.809	4.95
268.183	4.89
268.556	4.49
268.93	4.57
269.304	4.41
269.678	4.27
270.051	4.26
270.425	4.36
270.799	4.1
271.172	3.92
271.546	3.99
271.919	4
272.293	4.12
272.666	4.17
273.04	4.5
273.413	4.46
273.787	4.79
274.16	4.58
274.533	4.63
274.906	4.38
275.279	4.28
275.653	4.36
276.026	4.25
276.399	4.45
276.772	4.44
277.145	4.61
277.518	4.58
277.891	4.55
278.263	4.53
278.636	4.74
279.009	4.91
279.382	4.88
279.755	4.8
280.127	4.62
280.5	4.54
280.872	4.37
281.245	4.36
281.617	4.16
281.99	4.48
282.362	4.42
282.735	4.51
283.107	4.49
283.479	4.47
283.852	4.63
284.224	4.42
284.596	4.34
284.968	4.36
285.34	4.33
285.713	4.38
286.085	4.35
286.457	4.34
286.829	4.42
287.201	4.5
287.572	4.57
287.944	4.67
288.316	4.78
288.688	4.84
289.06	4.88
289.431	4.99
289.803	4.98
290.175	5.11
290.546	5.25
290.918	5.44
291.289	5.26
291.661	5.35
292.032	5.48
292.403	5.57
292.775	5.8
293.146	5.98
293.517	6.01
293.889	6.22
294.26	6.32
294.631	6.25
295.002	6.25
295.373	6.3
295.744	6.28
296.115	6.27
296.486	6.43
296.857	6.56
297.228	6.52
297.599	6.51
297.97	6.54
298.34	6.51
298.711	6.62
299.082	6.81
299.452	6.8
299.823	6.94
300.194	7.07
300.564	7.02
300.935	7.15
301.305	7.19
301.676	7.01
302.046	7.08
302.416	7.21
302.787	7.34
303.157	7.55
303.527	7.85
303.897	8.09
304.267	8.11
304.637	8.15
305.008	8.3
305.378	8.43
305.748	8.48
306.117	8.54
306.487	8.46
306.857	8.53
307.227	8.7
307.597	8.75
307.967	8.77
308.336	8.85
308.706	9.06
309.076	9.31
309.445	9.64
309.815	9.68
310.184	9.73
310.554	9.8
310.923	9.61
311.293	9.51
311.662	9.47
312.031	9.67
312.401	9.73
312.77	9.71
313.139	9.92
313.508	10.07
313.877	10.14
314.246	10.29
314.616	10.53
314.985	10.7
315.353	10.91
315.722	11.15
316.091	11.37
316.46	11.28
316.829	11.38
317.198	11.43
317.567	11.67
317.935	11.87
318.304	12.16
318.672	12.59
319.041	12.66
319.41	12.98
319.778	12.96
320.147	13.18
320.515	13.44
320.883	13.3
321.252	13.42
321.62	13.72
321.988	13.83
322.357	13.77
322.725	13.75
323.093	13.7
323.461	13.65
323.829	13.67
324.197	13.81
324.565	13.96
324.933	13.96
325.301	13.92
325.669	13.89
326.037	13.83
326.405	13.7
326.772	13.88
327.14	13.85
327.508	13.85
327.875	13.89
328.243	14.03
328.61	14.04
328.978	14.04
329.346	13.97
329.713	14.16
330.08	14.29
330.448	14.39
330.815	14.61
331.182	14.69
331.55	14.65
331.917	14.66
332.284	14.52
332.651	14.58
333.018	14.67
333.385	14.77
333.752	14.81
334.119	14.96
334.486	14.98
334.853	15.17
335.22	15.14
335.587	15.18
335.954	15.09
336.32	15.15
336.687	15.26
337.054	15.3
337.42	15.25
337.787	15.25
338.153	15.23
338.52	15.24
338.886	15.23
339.253	15.2
339.619	15.22
339.986	15.33
340.352	15.49
340.718	15.53
341.084	15.65
341.451	15.77
341.817	15.89
342.183	15.95
342.549	15.86
342.915	15.99
343.281	16.1
343.647	16.18
344.013	16.31
344.379	16.3
344.745	16.33
345.11	16.31
345.476	16.32
345.842	16.24
346.208	16.23
346.573	16.28
346.939	16.35
347.304	16.41
347.67	16.3
348.035	16.27
348.401	16.17
348.766	16.07
349.132	16.01
349.497	15.96
349.862	15.95
350.228	15.93
350.593	15.81
350.958	15.77
351.323	15.66
351.688	15.61
352.053	15.53
352.418	15.55
352.783	15.5
353.148	15.46
353.513	15.45
353.878	15.27
354.243	15.19
354.608	15.31
354.972	15.25
355.337	15.29
355.702	15.14
356.066	15.23
356.431	15.24
356.795	15.15
357.16	15.05
357.524	14.93
357.889	14.9
358.253	14.86
358.618	14.74
358.982	14.69
359.346	14.7
359.71	14.76
360.075	14.69
360.439	14.72
360.803	14.71
361.167	14.72
361.531	14.78
361.895	14.81
362.259	14.7
362.623	14.56
362.987	14.54
363.351	14.54
363.714	14.45
364.078	14.45
364.442	14.39
364.806	14.37
365.169	14.33
365.533	14.26
365.896	14.23
366.26	14.18
366.623	14.21
366.987	14.05
367.35	13.99
367.714	13.89
368.077	13.78
368.44	13.73
368.803	13.59
369.167	13.49
369.53	13.36
369.893	13.29
370.256	13.27
370.619	13.13
370.982	12.99
371.345	12.88
371.708	12.76
372.071	12.68
372.434	12.54
372.797	12.47
373.159	12.32
373.522	12.21
373.885	12.17
374.247	11.99
374.61	11.9
374.973	11.68
375.335	11.64
375.698	11.5
376.06	11.36
376.423	11.31
376.785	11.18
377.147	11.1
377.51	10.94
377.872	10.84
378.234	10.76
378.596	10.7
378.958	10.61
379.321	10.51
379.683	10.43
380.045	10.36
380.407	10.23
380.769	10.17
381.13	10.08
381.492	9.95
381.854	9.85
382.216	9.79
382.578	9.76
382.939	9.63
383.301	9.5
383.663	9.41
384.024	9.31
384.386	9.23
384.747	9.12
385.109	9.06
385.47	9.01
385.832	8.91
386.193	8.84
386.554	8.73
386.916	8.63
387.277	8.51
387.638	8.4
387.999	8.34
388.36	8.29
388.721	8.19
389.082	8.12
389.443	8.05
389.804	8
390.165	7.91
390.526	7.82
390.887	7.75
391.248	7.68
391.609	7.61
391.969	7.56
392.33	7.51
392.691	7.45
393.051	7.37
393.412	7.31
393.772	7.25
394.133	7.23
394.493	7.15
394.854	7.14
395.214	7.13
395.574	7.06
395.935	6.98
396.295	6.92
396.655	6.88
397.015	6.83
397.376	6.75
397.736	6.7
398.096	6.65
398.456	6.63
398.816	6.58
399.176	6.49
399.535	6.43
399.895	6.4
400.255	6.35
400.615	6.28
400.975	6.23
401.334	6.17
401.694	6.13
402.054	6.12
402.413	6.07
402.773	5.99
403.132	5.94
403.492	5.9
403.851	5.88
404.211	5.83
404.57	5.8
404.929	5.76
405.288	5.74
405.648	5.71
406.007	5.68
406.366	5.63
406.725	5.63
407.084	5.57
407.443	5.55
407.802	5.52
408.161	5.5
408.52	5.48
408.879	5.47
409.238	5.45
409.596	5.4
409.955	5.37
410.314	5.34
410.673	5.34
411.031	5.29
411.39	5.25
411.748	5.23
412.107	5.21
412.465	5.17
412.824	5.14
413.182	5.11
413.54	5.06
413.899	5.03
414.257	4.99
414.615	4.99
414.974	4.95
415.332	4.95
415.69	4.91
416.048	4.87
416.406	4.82
416.764	4.79
417.122	4.78
417.48	4.77
417.838	4.74
418.195	4.7
418.553	4.68
418.911	4.66
419.269	4.63
419.626	4.58
419.984	4.56
420.342	4.53
420.699	4.5
421.057	4.5
421.414	4.49
421.772	4.46
422.129	4.42
422.486	4.39
422.844	4.34
423.201	4.32
423.558	4.3
423.915	4.31
424.273	4.28
424.63	4.27
424.987	4.24
425.344	4.22
425.701	4.2
426.058	4.19
426.415	4.18
426.772	4.15
427.128	4.14
427.485	4.15
427.842	4.14
428.199	4.13
428.555	4.1
428.912	4.08
429.269	4.09
429.625	4.09
429.982	4.09
430.338	4.09
430.695	4.06
431.051	4.05
431.407	4.03
431.764	4.01
432.12	3.98
432.476	3.96
432.832	3.98
433.189	3.99
433.545	3.99
433.901	4
434.257	3.98
434.613	3.97
434.969	3.94
435.325	3.94
435.681	3.92
436.036	3.92
436.392	3.92
436.748	3.91
437.104	3.89
437.459	3.88
437.815	3.91
438.171	3.93
438.526	3.95
438.882	3.97
439.237	3.98
439.593	3.99
439.948	4
440.304	3.98
440.659	3.98
441.014	3.97
441.369	3.97
441.725	3.99
442.08	3.99
442.435	3.99
442.79	3.97
443.145	3.97
443.5	3.97
443.855	3.95
444.21	3.96
444.565	3.96
444.92	3.96
445.275	3.94
445.629	3.93
445.984	3.91
446.339	3.87
446.693	3.86
447.048	3.84
447.403	3.83
447.757	3.8
448.112	3.79
448.466	3.8
448.82	3.78
449.175	3.76
449.529	3.75
449.883	3.76
450.238	3.76
450.592	3.75
450.946	3.75
451.3	3.74
451.654	3.72
452.008	3.7
452.362	3.67
452.716	3.67
453.07	3.67
453.424	3.67
453.778	3.67
454.132	3.66
454.486	3.66
454.839	3.68
455.193	3.71
455.547	3.72
455.9	3.71
456.254	3.71
456.607	3.71
456.961	3.7
457.314	3.69
457.668	3.69
458.021	3.68
458.375	3.68
458.728	3.68
459.081	3.7
459.434	3.7
459.787	3.73
460.141	3.72
460.494	3.72
460.847	3.7
461.2	3.7
461.553	3.7
461.906	3.71
462.259	3.69
462.611	3.68
462.964	3.67
463.317	3.67
463.67	3.69
464.022	3.69
464.375	3.68
464.728	3.68
465.08	3.68
465.433	3.7
465.785	3.69
466.138	3.72
466.49	3.72
466.843	3.76
467.195	3.75
467.547	3.76
467.899	3.78
468.252	3.82
468.604	3.84
468.956	3.88
469.308	3.88
469.66	3.9
470.012	3.92
470.364	3.91
470.716	3.93
471.068	3.94
471.42	3.95
471.772	3.98
472.123	4.02
472.475	4.04
472.827	4.03
473.178	4.06
473.53	4.07
473.882	4.08
474.233	4.06
474.585	4.08
474.936	4.1
475.288	4.08
475.639	4.08
475.99	4.06
476.342	4.05
476.693	4.06
477.044	4.07
477.395	4.08
477.746	4.07
478.097	4.08
478.448	4.06
478.8	4.06
479.15	4.04
479.501	4.02
479.852	4.01
480.203	4.01
480.554	4.01
480.905	4
481.255	4
481.606	3.98
481.957	3.98
482.307	3.98
482.658	4
483.009	4
483.359	4
483.709	4.01
484.06	4.01
484.41	3.99
484.761	3.99
485.111	4
485.461	3.99
485.811	3.99
486.162	3.99
486.512	4
486.862	4
487.212	4.01
487.562	4.01
487.912	4.02
488.262	4.02
488.612	4.02
488.961	4.04
489.311	4.04
489.661	4.03
490.011	4.02
490.36	4.01
490.71	4.01
491.06	4.01
491.409	4.01
491.759	4.02
492.108	4.04
492.458	4.04
492.807	4.05
493.157	4.07
493.506	4.08
493.855	4.09
494.204	4.1
494.554	4.11
494.903	4.13
495.252	4.13
495.601	4.16
495.95	4.19
496.299	4.23
496.648	4.25
496.997	4.3
497.346	4.36
497.695	4.42
498.043	4.47
498.392	4.5
498.741	4.54
499.09	4.59
499.438	4.65
499.787	4.69
500.135	4.72
500.484	4.77
500.832	4.8
501.181	4.85
501.529	4.89
501.878	4.96
502.226	5.02
502.574	5.06
502.923	5.1
503.271	5.15
503.619	5.18
503.967	5.22
504.315	5.25
504.663	5.3
505.011	5.36
505.359	5.41
505.707	5.46
506.055	5.53
506.403	5.6
506.751	5.64
507.098	5.71
507.446	5.81
507.794	5.89
508.141	5.98
508.489	6.04
508.837	6.13
509.184	6.19
509.531	6.27
509.879	6.37
510.226	6.46
510.574	6.56
510.921	6.63
511.268	6.76
511.616	6.86
511.963	6.96
512.31	7.05
512.657	7.17
513.004	7.3
513.351	7.41
513.698	7.52
514.045	7.66
514.392	7.8
514.739	7.92
515.086	8.05
515.432	8.21
515.779	8.37
516.126	8.53
516.473	8.68
516.819	8.82
517.166	8.97
517.512	9.11
517.859	9.22
518.205	9.36
518.552	9.49
518.898	9.63
519.245	9.78
519.591	9.93
519.937	10.06
520.283	10.21
520.629	10.36
520.976	10.54
521.322	10.71
521.668	10.88
522.014	11.07
522.36	11.27
522.706	11.46
523.052	11.68
523.398	11.89
523.743	12.12
524.089	12.34
524.435	12.54
524.781	12.76
525.126	12.95
525.472	13.13
525.817	13.3
526.163	13.46
526.509	13.6
526.854	13.74
527.199	13.87
527.545	14
527.89	14.13
528.235	14.23
528.581	14.36
528.926	14.49
529.271	14.61
529.616	14.74
529.961	14.85
530.306	14.99
530.651	15.12
530.996	15.27
531.341	15.42
531.686	15.58
532.031	15.72
532.376	15.89
532.721	16.05
533.065	16.22
533.41	16.37
533.755	16.55
534.099	16.71
534.444	16.88
534.788	17.04
535.133	17.21
535.477	17.42
535.822	17.6
536.166	17.83
536.51	18.07
536.855	18.29
537.199	18.55
537.543	18.78
537.887	19.06
538.231	19.3
538.576	19.53
538.92	19.74
539.264	19.97
539.608	20.18
539.951	20.39
540.295	20.59
540.639	20.77
540.983	20.96
541.327	21.13
541.671	21.31
542.014	21.52
542.358	21.69
542.701	21.87
543.045	22.06
543.389	22.21
543.732	22.37
544.075	22.56
544.419	22.74
544.762	22.91
545.105	23.09
545.449	23.29
545.792	23.54
546.135	23.82
546.478	24.08
546.821	24.35
547.165	24.65
547.508	24.91
547.851	25.24
548.194	25.49
548.536	25.86
548.879	26.17
549.222	26.44
549.565	26.75
549.908	27.04
550.25	27.34
550.593	27.64
550.936	27.9
551.278	28.21
551.621	28.51
551.963	28.84
552.306	29.17
552.648	29.5
552.991	29.8
553.333	30.04
553.675	30.29
554.017	30.57
554.36	30.78
554.702	31.07
555.044	31.35
555.386	31.66
555.728	31.9
556.07	32.2
556.412	32.51
556.754	32.82
557.096	33.15
557.438	33.45
557.78	33.8
558.121	34.18
558.463	34.48
558.805	34.77
559.147	35.07
559.488	35.38
559.83	35.68
560.171	35.93
560.513	36.27
560.854	36.56
561.196	36.88
561.537	37.24
561.878	37.54
562.22	37.79
562.561	38.15
562.902	38.43
563.243	38.73
563.584	39.01
563.925	39.26
564.266	39.47
564.607	39.75
564.948	39.99
565.289	40.23
565.63	40.49
565.971	40.75
566.312	40.97
566.653	41.25
566.993	41.49
567.334	41.77
567.675	42
568.015	42.27
568.356	42.47
568.696	42.75
569.037	42.99
569.377	43.24
569.718	43.39
570.058	43.63
570.398	43.86
570.739	44.12
571.079	44.36
571.419	44.61
571.759	44.87
572.099	45.11
572.439	45.36
572.779	45.58
573.119	45.78
573.459	46.02
573.799	46.24
574.139	46.45
574.479	46.64
574.819	46.88
575.158	47.1
575.498	47.35
575.838	47.53
576.177	47.74
576.517	48
576.856	48.23
577.196	48.48
577.535	48.71
577.875	48.96
578.214	49.17
578.553	49.44
578.893	49.62
579.232	49.82
579.571	50.01
579.91	50.27
580.25	50.52
580.589	50.74
580.928	50.86
581.267	50.99
581.606	51.28
581.945	51.43
582.283	51.6
582.622	51.81
582.961	52.03
583.3	52.19
583.639	52.37
583.977	52.53
584.316	52.62
584.654	52.7
584.993	52.8
585.332	52.93
585.67	52.99
586.008	53.2
586.347	53.36
586.685	53.53
587.024	53.65
587.362	53.78
587.7	53.93
588.038	54.12
588.376	54.29
588.715	54.36
589.053	54.57
589.391	54.71
589.729	54.78
590.067	54.85
590.404	54.99
590.742	55.06
591.08	55.3
591.418	55.43
591.756	55.69
592.093	55.81
592.431	56.01
592.769	56.14
593.106	56.19
593.444	56.28
593.781	56.39
594.119	56.47
594.456	56.58
594.793	56.7
595.131	56.81
595.468	56.9
595.805	57.07
596.143	57.09
596.48	57.14
596.817	57.26
597.154	57.32
597.491	57.43
597.828	57.62
598.165	57.63
598.502	57.71
598.839	57.69
599.176	57.79
599.512	57.86
599.849	58
600.186	58.14
600.523	58.29
600.859	58.37
601.196	58.45
601.532	58.49
601.869	58.5
602.205	58.59
602.542	58.64
602.878	58.64
603.215	58.72
603.551	58.8
603.887	58.76
604.223	58.85
604.56	58.83
604.896	58.83
605.232	58.96
605.568	59.09
605.904	59.16
606.24	59.24
606.576	59.34
606.912	59.39
607.248	59.5
607.583	59.57
607.919	59.59
608.255	59.75
608.591	59.98
608.926	60.12
609.262	60.18
609.597	60.28
609.933	60.39
610.268	60.52
610.604	60.61
610.939	60.81
611.275	60.9
611.61	61.05
611.945	61.1
612.281	61.15
612.616	61.2
612.951	61.26
613.286	61.37
613.621	61.4
613.956	61.45
614.291	61.42
614.626	61.46
614.961	61.62
615.296	61.65
615.631	61.64
615.966	61.68
616.3	61.81
616.635	61.85
616.97	61.9
617.304	61.89
617.639	61.95
617.973	61.92
618.308	61.97
618.642	61.96
618.977	62.01
619.311	62.06
619.646	62.06
619.98	62.21
620.314	62.17
620.648	62.29
620.983	62.35
621.317	62.4
621.651	62.46
621.985	62.39
622.319	62.3
622.653	62.25
622.987	62.27
623.321	62.1
623.655	62.21
623.988	62.21
624.322	62.2
624.656	62.2
624.99	62.24
625.323	62.31
625.657	62.36
625.99	62.4
626.324	62.33
626.657	62.32
626.991	62.3
627.324	62.33
627.658	62.23
627.991	62.25
628.324	62.27
628.657	62.17
628.991	62.2
629.324	62.3
629.657	62.44
629.99	62.52
630.323	62.65
630.656	62.72
630.989	62.79
631.322	62.79
631.655	62.81
631.987	62.91
632.32	62.94
632.653	63.05
632.986	63.1
633.318	63.15
633.651	63.28
633.984	63.35
634.316	63.39
634.649	63.57
634.981	63.66
635.313	63.64
635.646	63.86
635.978	64.06
636.31	64.09
636.643	63.97
636.975	63.97
637.307	63.92
637.639	63.84
637.971	63.79
638.303	63.95
638.635	64.02
638.967	63.99
639.299	63.88
639.631	63.84
639.963	63.95
640.295	63.98
640.626	64
640.958	64.11
641.29	64.24
641.621	64.13
641.953	64.09
642.285	64.15
642.616	64.14
642.948	64.09
643.279	64.16
643.61	64.33
643.942	64.42
644.273	64.55
644.604	64.66
644.936	64.71
645.267	64.75
645.598	64.73
645.929	64.79
646.26	64.91
646.591	64.99
646.922	64.9
647.253	65.07
647.584	65.07
647.915	65.06
648.245	64.99
648.576	65.13
648.907	65.21
649.238	65.24
649.568	65.29
649.899	65.33
650.229	65.36
650.56	65.3
650.89	65.24
651.221	65.18
651.551	65.2
651.882	65.23
652.212	65.18
652.542	65.27
652.872	65.25
653.203	65.29
653.533	65.26
653.863	65.2
654.193	65.13
654.523	65.22
654.853	65.13
655.183	65.09
655.513	65.08
655.843	64.98
656.172	65.12
656.502	65.12
656.832	65.05
657.162	65.01
657.491	65.04
657.821	64.99
658.15	65.04
658.48	64.91
658.809	64.85
659.139	64.91
659.468	64.75
659.798	64.76
660.127	64.62
660.456	64.59
660.785	64.67
661.115	64.7
661.444	64.54
661.773	64.55
662.102	64.55
662.431	64.55
662.76	64.62
663.089	64.43
663.418	64.36
663.747	64.31
664.076	64.24
664.404	64.17
664.733	64.19
665.062	64.18
665.39	64.27
665.719	64.31
666.048	64.18
666.376	64.38
666.705	64.35
667.033	64.51
667.362	64.47
667.69	64.54
668.018	64.4
668.347	64.49
668.675	64.47
669.003	64.55
669.331	64.59
669.659	64.49
669.987	64.59
670.315	64.54
670.643	64.59
670.971	64.62
671.299	64.57
671.627	64.66
671.955	64.63
672.283	64.55
672.61	64.62
672.938	64.68
673.266	64.74
673.593	64.8
673.921	64.8
674.249	64.96
674.576	64.87
674.904	64.95
675.231	64.93
675.558	64.87
675.886	64.89
676.213	64.83
676.54	64.93
676.867	64.83
677.195	64.92
677.522	65.03
677.849	65.13
678.176	65.18
678.503	65.13
678.83	65.17
679.157	65.33
679.484	65.16
679.81	65.18
680.137	65.17
680.464	65.2
680.791	65.15
681.117	64.99
681.444	65.09
681.771	65.17
682.097	65.13
682.424	65.2
682.75	65.21
683.077	65.17
683.403	65.21
683.729	65.14
684.056	65.12
684.382	65.06
684.708	64.89
685.034	64.9
685.36	64.83
685.686	64.79
686.012	64.63
686.339	64.8
686.664	64.71
686.99	64.66
687.316	64.4
687.642	64.28
687.968	64.37
688.294	64.27
688.619	64.21
688.945	64.13
689.271	64.22
689.596	64.15
689.922	64.32
690.247	64.32
690.573	64.46
690.898	64.46
691.224	64.34
691.549	64.48
691.874	64.58
692.2	64.74
692.525	64.75
692.85	64.8
693.175	64.8
693.5	64.89
693.825	64.82
694.15	65.11
694.475	65.25
694.8	65.1
695.125	65.16
695.45	65.14
695.775	65.14
696.099	65.1
696.424	65.04
696.749	64.84
697.073	64.58
697.398	64.63
697.723	64.49
698.047	64.6
698.372	64.47
698.696	64.41
699.02	64.35
699.345	64.34
699.669	64.44
699.993	64.45
700.318	64.5
700.642	64.5
700.966	64.41
701.29	64.48
701.614	64.55
701.938	64.6
702.262	64.59
702.586	64.66
702.91	64.71
703.234	64.82
703.557	64.83
703.881	65.16
704.205	65.26
704.529	65.48
704.852	65.6
705.176	65.81
705.499	65.83
705.823	65.81
706.146	65.88
706.47	65.8
706.793	65.68
707.117	65.6
707.44	65.77
707.763	65.8
708.086	65.56
708.409	65.68
708.733	65.49
709.056	65.47
709.379	65.49
709.702	65.34
710.025	65.42
710.348	65.35
710.671	65.39
710.993	65.37
711.316	65.44
711.639	65.08
711.962	64.96
712.284	64.91
712.607	65
712.93	65.02
713.252	64.88
713.575	64.91
713.897	64.97
714.22	64.71
714.542	64.7
714.864	64.82
715.187	64.69
715.509	64.7
715.831	64.74
716.153	64.88
716.475	65.07
716.798	64.9
717.12	65.02
717.442	65
717.764	64.97
718.085	64.95
718.407	65.31
718.729	65.46
719.051	65.54
719.373	65.59
719.695	65.5
720.016	65.71
720.338	65.71
720.659	65.67
720.981	65.62
721.302	65.8
721.624	65.95
721.945	66.08
722.267	66.36
722.588	66.32
722.909	66.11
723.231	65.9
723.552	65.86
723.873	65.88
724.194	65.73
724.515	65.66
724.836	65.48
725.157	65.27
725.478	65.32
725.799	65.23
726.12	65.3
726.441	65.48
726.762	65.5
727.083	65.78
727.403	65.81
727.724	66.05
728.045	66.07
728.365	66.03
728.686	66.24
729.006	66.24
729.327	66.21
729.647	66.16
729.967	66.17
730.288	66.33
730.608	66.41
730.928	66.51
731.249	66.5
731.569	66.33
731.889	66.35
732.209	66.31
732.529	66.4
732.849	66.22
733.169	66.19
733.489	66.08
733.809	65.81
734.129	65.64
734.448	65.48
734.768	65.24
735.088	65.08
735.408	64.61
735.727	64.33
736.047	64.5
736.366	64.58
736.686	64.56
737.005	64.66
737.325	64.57
737.644	64.3
737.963	64.37
738.283	64.73
738.602	64.75
738.921	64.76
739.24	64.75
739.56	64.89
739.879	64.72
740.198	64.68
740.517	64.68
740.836	64.93
741.155	65.07
741.473	65.01
741.792	65.27
742.111	65.63
742.43	65.88
742.748	65.93
743.067	66.18
743.386	66.14
743.704	65.98
744.023	66.03
744.341	66.29
744.66	66.2
744.978	65.95
745.297	66.15
745.615	65.99
745.933	65.95
746.252	65.71
746.57	65.95
746.888	66.16
747.206	66.07
747.524	66.07
747.842	65.96
748.16	66.05
748.478	66.31
748.796	66.19
749.114	66.23
749.432	66.13
749.749	65.91
750.067	66.38
750.385	66.48
750.703	66.43
751.02	66.33
751.338	66.44
751.655	66.44
751.973	66.34
752.29	66.48
752.608	66.28
752.925	66.22
753.242	66.18
753.56	66.23
753.877	66.47
754.194	66.39
754.511	66.48
754.828	66.65
755.145	66.37
755.462	66.39
755.779	66.05
756.096	66.03
756.413	66.08
756.73	65.7
757.047	65.54
757.364	65.56
757.68	65.52
757.997	65.11
758.314	65
758.63	64.97
758.947	64.83
759.264	64.87
759.58	65.31
759.896	65.38
760.213	64.79
760.529	64.73
760.846	64.63
761.162	64.98
761.478	64.88
761.794	64.86
762.11	65.06
762.426	65.15
762.743	65.18
763.059	65.4
763.375	65.37
763.69	65.18
764.006	65.29
764.322	65.06
764.638	65.14
764.954	65.49
765.27	65.44
765.585	65.46
765.901	65.68
766.216	65.67
766.532	65.59
766.848	66.02
767.163	66.12
767.478	66.16
767.794	66
768.109	66.09
768.424	66.19
768.74	66.02
769.055	66.12
769.37	66.13
769.685	65.73
770	65.63
770.315	66.27
770.63	66.12
770.945	66.86
771.26	67.06
771.575	66.61
771.89	66.66
772.205	66.89
772.52	66.41
772.834	66.02
773.149	66.05
773.464	65.62
773.778	65.48
774.093	65.74
774.407	65.53
774.722	65.63
775.036	65.59
775.351	65.72
775.665	65.84
775.979	65.69
776.293	65.89
776.608	65.48
776.922	65.66
777.236	65.72
777.55	65.55
777.864	65.49
778.178	65.73
778.492	65.76
778.806	65.57
779.12	66.3
779.434	66.27
779.747	66.31
780.061	66.48
780.375	66.73
780.689	66.52
781.002	67.11
781.316	66.95
781.629	66.8
781.943	66.51
782.256	66.61
782.57	66.91
782.883	67.13
783.196	67.33
783.51	66.4
783.823	66.6
784.136	66.33
784.449	66.75
784.762	66.8
785.075	66.82
785.388	66.76
785.701	66.55
786.014	66.94
786.327	67.29
786.64	67.61
786.953	67.45
787.266	67.95
787.578	67.77
787.891	67.55
788.204	67.79
788.516	68.14
788.829	67.72
789.141	67.83
789.454	67.86
789.766	68.46
790.079	69.01
790.391	68.43
790.703	68.81
791.016	68.45
791.328	69.21
791.64	69.31
791.952	70.04
792.264	70.12
792.576	69.79
792.888	69.62
793.2	69.67
793.512	69.68
793.824	69.22
794.136	68.73
794.448	68.55
794.76	67.69
795.071	68.16
795.383	68.61
795.695	67.68
796.006	67.13
796.318	67.34
796.629	67.51
796.941	67.93
797.252	67.53
797.564	66.9
797.875	66.34
798.186	66.14
798.497	65.51
798.809	65.63
799.12	66.02
799.431	66.16
799.742	66.42
800.053	66.12
800.364	66.47
800.675	66.67
800.986	66.66
801.297	66.9
801.608	66.08
801.918	66.13
802.229	66.8
802.54	66.97
802.851	66.7
803.161	66.41
803.472	66.38
803.782	66.25
804.093	67.07
804.403	67
804.714	67.12
805.024	67.33
805.334	66.6
805.645	65.92
805.955	66.04
806.265	65.66
806.575	65.78
806.885	65.01
807.195	65.32
807.505	65.72
807.815	66.02
808.125	66.17
808.435	66.11
808.745	66.03
809.055	65.94
809.365	65.94
809.674	65.83
809.984	65.72
810.294	66.38
810.603	65.75
810.913	65.38
811.222	64.67
811.532	64.63
811.841	65.76
812.151	65.9
812.46	65.25
812.769	64.89
813.079	65.47
813.388	66.02
813.697	66.06
814.006	66.06
814.315	66.1
814.624	66.09
814.933	65.33
815.242	65.34
815.551	65.24
815.86	64.86
816.169	64.36
816.478	64.54
816.786	64.16
817.095	64.43
817.404	64.26
817.712	64.99
818.021	64.67
818.33	63.85
818.638	64.16
818.947	64
819.255	64.14
819.563	64.42
819.872	64.51
820.18	64.48
820.488	64.42
820.796	64.65
821.105	64.84
821.413	64.86
821.721	64.89
822.029	64.96
822.337	64.97
822.645	65.16
822.953	65.17
823.26	65.19
823.568	65.36
823.876	65.47
824.184	65.4
824.491	65.5
824.799	65.56
825.107	65.62
825.414	65.68
825.722	65.79
826.029	65.8
826.337	65.88
826.644	65.91
826.951	65.97
827.259	65.99
827.566	65.85
827.873	66.06
828.18	66.21
828.488	66.21
828.795	66.31
829.102	66.55
829.409	66.63
829.716	66.7
830.023	66.68
830.329	66.61
830.636	66.89
830.943	66.97
831.25	67.22
831.557	67.08
831.863	67.03
832.17	66.91
832.476	66.66
832.783	66.6
833.089	66.63
833.396	66.83
833.702	66.61
834.009	66.53
834.315	66.25
834.621	66.05
834.928	66.17
835.234	66.28
835.54	66.28
835.846	66.35
836.152	66.64
836.458	66.66
836.764	66.51
837.07	66.01
837.376	66.1
837.682	66.01
837.988	66.6
838.293	67.12
838.599	67.87
838.905	68.38
839.211	68.35
839.516	68.07
839.822	68.01
840.127	68.13
840.433	68.64
840.738	69.2
841.044	69.48
841.349	69.63
841.654	70.21
841.959	69.38
842.265	68.69
842.57	68.99
842.875	69.07
843.18	69.8
843.485	69.68
843.79	70.23
844.095	70.48
844.4	69.02
844.705	69.24
845.01	69.25
845.315	69.1
845.619	69.88
845.924	71.09
846.229	71.13
846.533	70.39
846.838	71.17
847.142	70.48
847.447	69.1
847.751	68.82
848.056	67.38
848.36	68.18
848.664	69.15
848.969	68.07
849.273	68.93
849.577	70.16
849.881	71.56
850.185	70.54
850.489	69.86
850.794	70.84
851.097	69.11
851.401	69.07
851.705	68.18
852.009	67.06
852.313	64.87
852.617	65.44
852.92	67.55
853.224	66.72
853.528	66.3
853.831	67.27
854.135	67.83
854.438	68.4
854.742	69.93
855.045	70.94
855.349	71.91
855.652	71.28
855.955	69.18
856.259	70.52
856.562	70.86
856.865	70.59
857.168	72.05
857.471	71.23
857.774	69.05
858.077	68.87
858.38	68.46
858.683	69.97
858.986	70.21
859.289	66.92
859.592	67.17
859.894	68.46
860.197	69.96
860.5	70.29
860.802	71.54
861.105	69.94
861.407	69.29
861.71	68.81
862.012	66.56
862.315	66.45
862.617	65.73
862.919	63.38
863.222	64.15
863.524	62.47
863.826	63.83
864.128	66.03
864.43	66.76
864.732	66.53
865.034	66.19
865.336	64.55
865.638	67.54
865.94	65.55
866.242	66.88
866.544	64.88
866.846	66.12
867.147	66.43
867.449	68.12
867.751	67.39
868.052	68.46
868.354	70.9
868.655	72.57
868.957	72.58
869.258	74.43
869.56	72.47
869.861	72.78
870.162	75
870.463	74.52
870.765	74.39
871.066	74.19
871.367	75.71
871.668	75.47
871.969	75.76
872.27	76.1
872.571	74.4
872.872	74.55
873.173	73.49
873.473	71.91
873.774	70.14
874.075	71.38
874.376	67.17
874.676	66.56
874.977	65.77
875.277	64.08
875.578	63.68
875.878	64.89
876.179	64.55
876.479	62.59
876.78	60.86
877.08	59.5
877.38	59.81
877.68	57.23
877.981	58.95
878.281	58.78
878.581	61.07
