Data from BU58141_Reflection_00011.txt Node
Date: Mon Nov 18 16:46:56 EST 2019
User: vgr7
Spectrometer: USB2G7710
Scans to average: 3
Trigger mode: 4
Integration Time (sec): 2.000000E-2
Electric dark correction enabled: true
Boxcar width: 10
XAxis mode: Wavelengths
Number of Pixels in Spectrum: 2048
>>>>>Begin Spectral Data<<<<<
177.721	-32.28
178.105	11.19
178.488	-2.49
178.871	42.34
179.254	136.73
179.636	1350
180.019	33.11
180.402	74.07
180.785	-29.03
181.168	-105.88
181.55	81.57
181.933	98.21
182.316	178.53
182.698	46.88
183.081	0.67
183.463	-2.35
183.846	0.96
184.228	0.33
184.611	14.92
184.993	-0.92
185.376	-22.66
185.758	-16.21
186.14	-3.86
186.522	-4.39
186.904	17.28
187.287	178.59
187.669	127.68
188.051	-87.73
188.433	37.24
188.815	137.63
189.197	-269.1
189.579	2820
189.961	475.69
190.342	609.55
190.724	85.03
191.106	20.58
191.488	41.63
191.869	32.03
192.251	33.8
192.633	35.03
193.014	28.54
193.396	-0.85
193.777	5.87
194.159	-18.33
194.54	16.92
194.922	19.96
195.303	41.71
195.684	31.65
196.065	66.75
196.447	61.6
196.828	27.98
197.209	57.22
197.59	48.76
197.971	45.37
198.352	52.65
198.733	50.84
199.114	79.14
199.495	49.53
199.876	58.14
200.257	59.25
200.638	78.75
201.018	71.18
201.399	68.14
201.78	68.95
202.16	67.85
202.541	94.28
202.922	119.09
203.302	111.53
203.683	125.42
204.063	109.82
204.444	104.31
204.824	116.5
205.204	73.77
205.585	77.61
205.965	66.01
206.345	53.21
206.725	45.83
207.106	40.9
207.486	67.93
207.866	42.2
208.246	35.08
208.626	-6.02
209.006	26.14
209.386	2.78
209.766	8.82
210.145	13.51
210.525	-3.69
210.905	-7.26
211.285	-0.43
211.664	-3.6
212.044	7.96
212.424	12.77
212.803	6.91
213.183	10.76
213.562	16.22
213.942	16.19
214.321	22.21
214.701	26.54
215.08	16.4
215.459	16.77
215.838	17.26
216.218	10.93
216.597	26.78
216.976	18.39
217.355	24.9
217.734	23.87
218.113	27.61
218.492	33.48
218.871	26.88
219.25	19.76
219.629	18.96
220.008	15.6
220.387	11.79
220.766	17.39
221.144	13.31
221.523	11.05
221.902	24.41
222.28	23.92
222.659	35.77
223.037	36.38
223.416	47.28
223.794	59.88
224.173	59.2
224.551	58.15
224.929	46.5
225.308	53.03
225.686	44.14
226.064	36.64
226.442	29.78
226.821	28.29
227.199	27.07
227.577	22.48
227.955	23.68
228.333	23.58
228.711	21.19
229.089	24.3
229.467	22.69
229.845	20.26
230.222	20.19
230.6	15.47
230.978	13.19
231.356	12.99
231.733	11.61
232.111	9.91
232.488	8.21
232.866	8.94
233.243	7.49
233.621	7.05
233.998	7.81
234.376	7.95
234.753	7.42
235.13	7.81
235.508	9.81
235.885	9.68
236.262	9.63
236.639	9.6
237.016	8.23
237.393	9.14
237.77	8.97
238.147	9.28
238.524	8.87
238.901	8.82
239.278	8.08
239.655	8.05
240.032	7.54
240.409	6.7
240.785	6.65
241.162	6.82
241.539	6.62
241.915	6.84
242.292	6.12
242.668	6.39
243.045	6.64
243.421	6.1
243.798	5.58
244.174	5.05
244.551	4.96
244.927	5.01
245.303	5.05
245.679	5.12
246.056	4.81
246.432	5
246.808	5.04
247.184	4.8
247.56	4.77
247.936	4.9
248.312	4.92
248.688	4.91
249.064	4.82
249.44	4.92
249.815	4.82
250.191	4.94
250.567	4.71
250.943	4.21
251.318	4.38
251.694	4.56
252.069	4.78
252.445	4.99
252.82	5.02
253.196	4.82
253.571	4.67
253.947	4.66
254.322	4.62
254.697	4.77
255.073	4.68
255.448	4.05
255.823	4.08
256.198	4.49
256.573	4.32
256.948	4.18
257.323	4.27
257.698	3.98
258.073	3.97
258.448	4.06
258.823	4.04
259.198	3.91
259.573	3.93
259.948	3.92
260.322	3.85
260.697	3.69
261.072	3.63
261.446	3.55
261.821	3.61
262.195	3.69
262.57	3.67
262.944	3.75
263.319	3.98
263.693	3.71
264.067	3.61
264.442	3.8
264.816	3.76
265.19	3.65
265.564	3.78
265.938	3.58
266.313	3.51
266.687	3.67
267.061	3.84
267.435	3.81
267.809	3.76
268.183	3.8
268.556	3.61
268.93	3.57
269.304	3.58
269.678	3.61
270.051	3.58
270.425	3.47
270.799	3.48
271.172	3.44
271.546	3.44
271.919	3.27
272.293	3.04
272.666	3.05
273.04	2.93
273.413	2.9
273.787	3.11
274.16	3.19
274.533	3.1
274.906	3
275.279	2.85
275.653	2.93
276.026	2.77
276.399	2.88
276.772	3.02
277.145	3.02
277.518	2.94
277.891	2.91
278.263	2.89
278.636	2.96
279.009	2.97
279.382	3.34
279.755	3.38
280.127	3.56
280.5	3.54
280.872	3.73
281.245	3.72
281.617	3.76
281.99	3.63
282.362	3.82
282.735	3.64
283.107	3.8
283.479	3.74
283.852	3.74
284.224	3.74
284.596	3.69
284.968	3.75
285.34	3.82
285.713	3.76
286.085	3.82
286.457	3.76
286.829	3.75
287.201	3.58
287.572	3.62
287.944	3.52
288.316	3.54
288.688	3.43
289.06	3.41
289.431	3.28
289.803	3.46
290.175	3.4
290.546	3.63
290.918	3.65
291.289	3.59
291.661	3.65
292.032	3.78
292.403	3.82
292.775	3.83
293.146	3.75
293.517	3.79
293.889	3.76
294.26	3.83
294.631	3.91
295.002	3.85
295.373	3.87
295.744	3.92
296.115	3.94
296.486	3.89
296.857	3.9
297.228	4.06
297.599	3.9
297.97	3.93
298.34	3.98
298.711	3.98
299.082	3.87
299.452	3.82
299.823	3.83
300.194	3.8
300.564	3.82
300.935	3.94
301.305	3.78
301.676	3.86
302.046	3.84
302.416	3.83
302.787	3.85
303.157	3.91
303.527	3.89
303.897	3.98
304.267	4.29
304.637	4.43
305.008	4.4
305.378	4.51
305.748	4.43
306.117	4.39
306.487	4.43
306.857	4.68
307.227	4.9
307.597	4.8
307.967	4.81
308.336	4.79
308.706	4.72
309.076	4.91
309.445	4.88
309.815	4.91
310.184	4.99
310.554	5.11
310.923	5.09
311.293	5.15
311.662	5.07
312.031	4.93
312.401	4.94
312.77	5.02
313.139	5.03
313.508	5.19
313.877	5.03
314.246	4.95
314.616	5.05
314.985	5.1
315.353	5.12
315.722	5.19
316.091	5.4
316.46	5.43
316.829	5.43
317.198	5.67
317.567	5.69
317.935	5.78
318.304	5.88
318.672	5.92
319.041	6.01
319.41	6.11
319.778	6.13
320.147	6.1
320.515	6.11
320.883	6.18
321.252	6.27
321.62	6.5
321.988	6.67
322.357	6.67
322.725	6.52
323.093	6.69
323.461	6.73
323.829	6.59
324.197	6.8
324.565	6.8
324.933	6.74
325.301	6.83
325.669	6.69
326.037	6.68
326.405	6.61
326.772	6.75
327.14	6.92
327.508	7.09
327.875	7.15
328.243	7.18
328.61	7.3
328.978	7.27
329.346	7.23
329.713	7.22
330.08	7.25
330.448	7.18
330.815	7.09
331.182	7.13
331.55	7.19
331.917	7.22
332.284	7.29
332.651	7.2
333.018	7.13
333.385	7.17
333.752	7.23
334.119	7.27
334.486	7.09
334.853	7.07
335.22	6.95
335.587	6.96
335.954	7.04
336.32	6.86
336.687	6.84
337.054	6.93
337.42	6.98
337.787	7.01
338.153	7.05
338.52	7.13
338.886	7.15
339.253	7.13
339.619	7.07
339.986	7.11
340.352	7.3
340.718	7.31
341.084	7.45
341.451	7.44
341.817	7.54
342.183	7.69
342.549	7.65
342.915	7.66
343.281	7.66
343.647	7.59
344.013	7.66
344.379	7.59
344.745	7.61
345.11	7.62
345.476	7.67
345.842	7.84
346.208	7.9
346.573	7.91
346.939	7.96
347.304	8
347.67	7.89
348.035	7.91
348.401	7.9
348.766	7.8
349.132	7.74
349.497	7.87
349.862	7.86
350.228	7.75
350.593	7.77
350.958	7.81
351.323	7.9
351.688	7.92
352.053	8
352.418	7.98
352.783	7.96
353.148	7.83
353.513	7.87
353.878	7.86
354.243	7.85
354.608	7.9
354.972	7.93
355.337	7.96
355.702	7.93
356.066	8.05
356.431	8.07
356.795	8.11
357.16	7.93
357.524	7.87
357.889	7.88
358.253	7.89
358.618	7.89
358.982	7.8
359.346	7.75
359.71	7.75
360.075	7.78
360.439	7.81
360.803	7.81
361.167	7.7
361.531	7.65
361.895	7.59
362.259	7.47
362.623	7.4
362.987	7.4
363.351	7.41
363.714	7.39
364.078	7.39
364.442	7.35
364.806	7.39
365.169	7.43
365.533	7.5
365.896	7.48
366.26	7.38
366.623	7.33
366.987	7.35
367.35	7.37
367.714	7.27
368.077	7.13
368.44	7.1
368.803	7.09
369.167	7.06
369.53	7.04
369.893	7.09
370.256	7.09
370.619	7.08
370.982	6.91
371.345	6.73
371.708	6.67
372.071	6.63
372.434	6.56
372.797	6.5
373.159	6.35
373.522	6.33
373.885	6.38
374.247	6.37
374.61	6.29
374.973	6.14
375.335	6.17
375.698	6.18
376.06	6.14
376.423	6.12
376.785	6.13
377.147	6.18
377.51	6.1
377.872	6.05
378.234	5.98
378.596	6
378.958	6
379.321	5.96
379.683	5.91
380.045	5.84
380.407	5.73
380.769	5.7
381.13	5.62
381.492	5.47
381.854	5.4
382.216	5.4
382.578	5.41
382.939	5.32
383.301	5.3
383.663	5.27
384.024	5.24
384.386	5.19
384.747	5.14
385.109	5.1
385.47	4.98
385.832	4.93
386.193	4.89
386.554	4.82
386.916	4.74
387.277	4.71
387.638	4.76
387.999	4.75
388.36	4.72
388.721	4.76
389.082	4.75
389.443	4.68
389.804	4.64
390.165	4.58
390.526	4.54
390.887	4.47
391.248	4.41
391.609	4.35
391.969	4.32
392.33	4.27
392.691	4.29
393.051	4.28
393.412	4.3
393.772	4.27
394.133	4.28
394.493	4.26
394.854	4.23
395.214	4.18
395.574	4.18
395.935	4.18
396.295	4.13
396.655	4.15
397.015	4.19
397.376	4.17
397.736	4.13
398.096	4.14
398.456	4.11
398.816	4.14
399.176	4.13
399.535	4.04
399.895	4.01
400.255	3.97
400.615	4
400.975	3.94
401.334	3.95
401.694	3.9
402.054	3.9
402.413	3.87
402.773	3.81
403.132	3.77
403.492	3.73
403.851	3.7
404.211	3.64
404.57	3.58
404.929	3.57
405.288	3.57
405.648	3.53
406.007	3.53
406.366	3.48
406.725	3.45
407.084	3.47
407.443	3.47
407.802	3.42
408.161	3.36
408.52	3.32
408.879	3.29
409.238	3.3
409.596	3.3
409.955	3.3
410.314	3.31
410.673	3.29
411.031	3.3
411.39	3.26
411.748	3.29
412.107	3.29
412.465	3.28
412.824	3.29
413.182	3.25
413.54	3.25
413.899	3.26
414.257	3.25
414.615	3.22
414.974	3.2
415.332	3.18
415.69	3.19
416.048	3.17
416.406	3.15
416.764	3.14
417.122	3.12
417.48	3.09
417.838	3.09
418.195	3.08
418.553	3.08
418.911	3.08
419.269	3.06
419.626	3.06
419.984	3.05
420.342	3.03
420.699	3.03
421.057	3.02
421.414	2.99
421.772	2.98
422.129	2.97
422.486	2.96
422.844	2.96
423.201	2.94
423.558	2.95
423.915	2.96
424.273	2.95
424.63	2.95
424.987	2.95
425.344	2.94
425.701	2.95
426.058	2.94
426.415	2.93
426.772	2.93
427.128	2.92
427.485	2.91
427.842	2.9
428.199	2.91
428.555	2.92
428.912	2.93
429.269	2.93
429.625	2.91
429.982	2.9
430.338	2.91
430.695	2.91
431.051	2.89
431.407	2.88
431.764	2.87
432.12	2.85
432.476	2.86
432.832	2.84
433.189	2.83
433.545	2.82
433.901	2.81
434.257	2.8
434.613	2.82
434.969	2.81
435.325	2.79
435.681	2.78
436.036	2.78
436.392	2.77
436.748	2.76
437.104	2.77
437.459	2.77
437.815	2.77
438.171	2.77
438.526	2.78
438.882	2.78
439.237	2.77
439.593	2.78
439.948	2.77
440.304	2.77
440.659	2.78
441.014	2.78
441.369	2.77
441.725	2.76
442.08	2.76
442.435	2.75
442.79	2.76
443.145	2.77
443.5	2.75
443.855	2.75
444.21	2.74
444.565	2.75
444.92	2.76
445.275	2.75
445.629	2.75
445.984	2.74
446.339	2.72
446.693	2.71
447.048	2.71
447.403	2.71
447.757	2.69
448.112	2.68
448.466	2.66
448.82	2.68
449.175	2.67
449.529	2.65
449.883	2.65
450.238	2.64
450.592	2.65
450.946	2.66
451.3	2.65
451.654	2.66
452.008	2.66
452.362	2.64
452.716	2.65
453.07	2.66
453.424	2.67
453.778	2.68
454.132	2.7
454.486	2.68
454.839	2.67
455.193	2.68
455.547	2.67
455.9	2.67
456.254	2.68
456.607	2.68
456.961	2.69
457.314	2.67
457.668	2.67
458.021	2.65
458.375	2.65
458.728	2.65
459.081	2.66
459.434	2.64
459.787	2.66
460.141	2.64
460.494	2.63
460.847	2.64
461.2	2.62
461.553	2.64
461.906	2.66
462.259	2.67
462.611	2.69
462.964	2.7
463.317	2.7
463.67	2.7
464.022	2.68
464.375	2.67
464.728	2.7
465.08	2.69
465.433	2.71
465.785	2.71
466.138	2.72
466.49	2.72
466.843	2.73
467.195	2.71
467.547	2.73
467.899	2.71
468.252	2.69
468.604	2.73
468.956	2.72
469.308	2.71
469.66	2.69
470.012	2.69
470.364	2.68
470.716	2.7
471.068	2.72
471.42	2.74
471.772	2.78
472.123	2.77
472.475	2.81
472.827	2.8
473.178	2.81
473.53	2.82
473.882	2.82
474.233	2.82
474.585	2.83
474.936	2.83
475.288	2.84
475.639	2.85
475.99	2.85
476.342	2.85
476.693	2.86
477.044	2.88
477.395	2.88
477.746	2.9
478.097	2.9
478.448	2.88
478.8	2.87
479.15	2.84
479.501	2.84
479.852	2.84
480.203	2.85
480.554	2.86
480.905	2.85
481.255	2.85
481.606	2.85
481.957	2.86
482.307	2.86
482.658	2.86
483.009	2.85
483.359	2.86
483.709	2.87
484.06	2.86
484.41	2.86
484.761	2.87
485.111	2.86
485.461	2.85
485.811	2.85
486.162	2.84
486.512	2.85
486.862	2.85
487.212	2.85
487.562	2.85
487.912	2.84
488.262	2.84
488.612	2.85
488.961	2.85
489.311	2.85
489.661	2.85
490.011	2.85
490.36	2.85
490.71	2.84
491.06	2.83
491.409	2.82
491.759	2.82
492.108	2.82
492.458	2.82
492.807	2.83
493.157	2.85
493.506	2.86
493.855	2.87
494.204	2.87
494.554	2.87
494.903	2.86
495.252	2.86
495.601	2.87
495.95	2.87
496.299	2.87
496.648	2.87
496.997	2.87
497.346	2.9
497.695	2.91
498.043	2.92
498.392	2.93
498.741	2.96
499.09	2.94
499.438	2.96
499.787	2.96
500.135	2.97
500.484	2.97
500.832	3
501.181	3
501.529	3.01
501.878	3.03
502.226	3.08
502.574	3.12
502.923	3.13
503.271	3.14
503.619	3.18
503.967	3.2
504.315	3.22
504.663	3.24
505.011	3.24
505.359	3.26
505.707	3.31
506.055	3.36
506.403	3.41
506.751	3.44
507.098	3.49
507.446	3.54
507.794	3.56
508.141	3.59
508.489	3.65
508.837	3.7
509.184	3.74
509.531	3.76
509.879	3.81
510.226	3.87
510.574	3.93
510.921	3.97
511.268	4.04
511.616	4.11
511.963	4.18
512.31	4.25
512.657	4.35
513.004	4.42
513.351	4.51
513.698	4.61
514.045	4.68
514.392	4.77
514.739	4.85
515.086	4.95
515.432	5.05
515.779	5.15
516.126	5.27
516.473	5.39
516.819	5.49
517.166	5.58
517.512	5.69
517.859	5.78
518.205	5.87
518.552	5.98
518.898	6.09
519.245	6.18
519.591	6.31
519.937	6.4
520.283	6.53
520.629	6.68
520.976	6.8
521.322	6.96
521.668	7.11
522.014	7.29
522.36	7.46
522.706	7.65
523.052	7.86
523.398	8.06
523.743	8.28
524.089	8.49
524.435	8.68
524.781	8.89
525.126	9.1
525.472	9.29
525.817	9.44
526.163	9.58
526.509	9.73
526.854	9.86
527.199	9.99
527.545	10.11
527.89	10.24
528.235	10.36
528.581	10.5
528.926	10.64
529.271	10.78
529.616	10.91
529.961	11.03
530.306	11.16
530.651	11.3
530.996	11.45
531.341	11.62
531.686	11.78
532.031	11.95
532.376	12.11
532.721	12.29
533.065	12.48
533.41	12.69
533.755	12.89
534.099	13.07
534.444	13.28
534.788	13.48
535.133	13.66
535.477	13.86
535.822	14.05
536.166	14.28
536.51	14.48
536.855	14.73
537.199	15.01
537.543	15.27
537.887	15.51
538.231	15.75
538.576	15.99
538.92	16.23
539.264	16.46
539.608	16.69
539.951	16.91
540.295	17.12
540.639	17.3
540.983	17.48
541.327	17.68
541.671	17.88
542.014	18.06
542.358	18.25
542.701	18.44
543.045	18.62
543.389	18.81
543.732	19.04
544.075	19.23
544.419	19.44
544.762	19.65
545.105	19.87
545.449	20.1
545.792	20.33
546.135	20.6
546.478	20.85
546.821	21.11
547.165	21.38
547.508	21.67
547.851	21.97
548.194	22.26
548.536	22.56
548.879	22.86
549.222	23.15
549.565	23.48
549.908	23.81
550.25	24.14
550.593	24.42
550.936	24.72
551.278	25.01
551.621	25.33
551.963	25.65
552.306	25.96
552.648	26.26
552.991	26.61
553.333	26.91
553.675	27.19
554.017	27.48
554.36	27.77
554.702	28.03
555.044	28.32
555.386	28.61
555.728	28.87
556.07	29.17
556.412	29.5
556.754	29.8
557.096	30.02
557.438	30.26
557.78	30.55
558.121	30.87
558.463	31.2
558.805	31.42
559.147	31.73
559.488	32
559.83	32.24
560.171	32.52
560.513	32.77
560.854	33.04
561.196	33.33
561.537	33.57
561.878	33.84
562.22	34.08
562.561	34.36
562.902	34.61
563.243	34.86
563.584	35.06
563.925	35.29
564.266	35.59
564.607	35.91
564.948	36.18
565.289	36.42
565.63	36.6
565.971	36.86
566.312	37.09
566.653	37.36
566.993	37.67
567.334	37.87
567.675	38.09
568.015	38.3
568.356	38.51
568.696	38.78
569.037	38.98
569.377	39.23
569.718	39.44
570.058	39.72
570.398	39.95
570.739	40.2
571.079	40.39
571.419	40.59
571.759	40.77
572.099	40.95
572.439	41.08
572.779	41.23
573.119	41.4
573.459	41.53
573.799	41.75
574.139	41.91
574.479	42.05
574.819	42.26
575.158	42.46
575.498	42.63
575.838	42.79
576.177	43.02
576.517	43.23
576.856	43.42
577.196	43.55
577.535	43.74
577.875	43.93
578.214	44.13
578.553	44.32
578.893	44.42
579.232	44.58
579.571	44.85
579.91	45.1
580.25	45.32
580.589	45.59
580.928	45.72
581.267	45.78
581.606	46.05
581.945	46.21
582.283	46.35
582.622	46.47
582.961	46.66
583.3	46.78
583.639	46.89
583.977	47.06
584.316	47.2
584.654	47.29
584.993	47.38
585.332	47.51
585.67	47.66
586.008	47.86
586.347	48.04
586.685	48.09
587.024	48.22
587.362	48.41
587.7	48.5
588.038	48.63
588.376	48.78
588.715	48.87
589.053	48.99
589.391	49.11
589.729	49.33
590.067	49.45
590.404	49.59
590.742	49.73
591.08	49.85
591.418	50
591.756	50.15
592.093	50.3
592.431	50.4
592.769	50.58
593.106	50.8
593.444	50.89
593.781	51
594.119	51.11
594.456	51.24
594.793	51.28
595.131	51.35
595.468	51.46
595.805	51.57
596.143	51.68
596.48	51.8
596.817	51.84
597.154	51.9
597.491	51.92
597.828	52.04
598.165	52.12
598.502	52.26
598.839	52.32
599.176	52.42
599.512	52.58
599.849	52.57
600.186	52.56
600.523	52.65
600.859	52.81
601.196	53
601.532	52.97
601.869	53.07
602.205	53.18
602.542	53.19
602.878	53.25
603.215	53.32
603.551	53.43
603.887	53.54
604.223	53.57
604.56	53.69
604.896	53.78
605.232	53.82
605.568	53.88
605.904	53.96
606.24	54.04
606.576	54.07
606.912	54.13
607.248	54.27
607.583	54.33
607.919	54.38
608.255	54.35
608.591	54.47
608.926	54.54
609.262	54.65
609.597	54.76
609.933	54.86
610.268	54.91
610.604	55
610.939	55
611.275	55.09
611.61	55.16
611.945	55.15
612.281	55.21
612.616	55.17
612.951	55.23
613.286	55.2
613.621	55.21
613.956	55.28
614.291	55.24
614.626	55.33
614.961	55.39
615.296	55.55
615.631	55.67
615.966	55.74
616.3	55.76
616.635	55.85
616.97	55.8
617.304	55.83
617.639	55.78
617.973	55.83
618.308	55.9
618.642	55.88
618.977	55.94
619.311	56.04
619.646	56.1
619.98	56.17
620.314	56.41
620.648	56.44
620.983	56.49
621.317	56.59
621.651	56.67
621.985	56.73
622.319	56.67
622.653	56.65
622.987	56.63
623.321	56.73
623.655	56.79
623.988	56.87
624.322	56.92
624.656	57.04
624.99	57.08
625.323	57.14
625.657	57.2
625.99	57.25
626.324	57.28
626.657	57.32
626.991	57.34
627.324	57.27
627.658	57.33
627.991	57.43
628.324	57.41
628.657	57.37
628.991	57.39
629.324	57.38
629.657	57.45
629.99	57.62
630.323	57.63
630.656	57.83
630.989	57.85
631.322	57.8
631.655	57.74
631.987	57.78
632.32	57.78
632.653	57.83
632.986	57.76
633.318	57.78
633.651	57.77
633.984	57.85
634.316	57.88
634.649	57.88
634.981	57.88
635.313	57.96
635.646	58
635.978	58.08
636.31	58.1
636.643	58.15
636.975	58.14
637.307	58.23
637.639	58.12
637.971	58.22
638.303	58.33
638.635	58.44
638.967	58.53
639.299	58.68
639.631	58.67
639.963	58.79
640.295	58.8
640.626	58.96
640.958	58.97
641.29	58.99
641.621	59.17
641.953	59.19
642.285	59.22
642.616	59.37
642.948	59.37
643.279	59.44
643.61	59.44
643.942	59.37
644.273	59.25
644.604	59.26
644.936	59.26
645.267	59.21
645.598	59.25
645.929	59.23
646.26	59.07
646.591	59
646.922	58.93
647.253	58.95
647.584	58.95
647.915	58.94
648.245	59.01
648.576	58.92
648.907	58.99
649.238	58.97
649.568	58.88
649.899	58.9
650.229	58.89
650.56	58.87
650.89	58.93
651.221	59.07
651.551	59.07
651.882	58.94
652.212	59.03
652.542	59.05
652.872	59.05
653.203	59.17
653.533	59.36
653.863	59.47
654.193	59.57
654.523	59.53
654.853	59.54
655.183	59.53
655.513	59.55
655.843	59.54
656.172	59.54
656.502	59.64
656.832	59.57
657.162	59.67
657.491	59.62
657.821	59.64
658.15	59.52
658.48	59.53
658.809	59.62
659.139	59.57
659.468	59.47
659.798	59.48
660.127	59.46
660.456	59.48
660.785	59.51
661.115	59.48
661.444	59.61
661.773	59.63
662.102	59.66
662.431	59.72
662.76	59.72
663.089	59.83
663.418	59.72
663.747	59.73
664.076	59.77
664.404	59.97
664.733	60.06
665.062	60.24
665.39	60.21
665.719	60.18
666.048	60.29
666.376	60.36
666.705	60.45
667.033	60.42
667.362	60.47
667.69	60.4
668.018	60.49
668.347	60.39
668.675	60.5
669.003	60.55
669.331	60.54
669.659	60.52
669.987	60.51
670.315	60.54
670.643	60.57
670.971	60.57
671.299	60.56
671.627	60.6
671.955	60.6
672.283	60.66
672.61	60.82
672.938	60.78
673.266	60.7
673.593	60.65
673.921	60.72
674.249	60.79
674.576	60.79
674.904	60.77
675.231	60.64
675.558	60.59
675.886	60.59
676.213	60.55
676.54	60.57
676.867	60.52
677.195	60.61
677.522	60.71
677.849	60.67
678.176	60.4
678.503	60.4
678.83	60.41
679.157	60.48
679.484	60.34
679.81	60.38
680.137	60.54
680.464	60.58
680.791	60.48
681.117	60.31
681.444	60.51
681.771	60.47
682.097	60.51
682.424	60.53
682.75	60.48
683.077	60.44
683.403	60.4
683.729	60.41
684.056	60.31
684.382	60.29
684.708	60.29
685.034	60.58
685.36	60.54
685.686	60.43
686.012	60.21
686.339	60.24
686.664	60.22
686.99	60.15
687.316	60.09
687.642	60.25
687.968	60.25
688.294	60.14
688.619	60.14
688.945	60.36
689.271	60.42
689.596	60.46
689.922	60.56
690.247	60.64
690.573	60.72
690.898	60.91
691.224	60.85
691.549	60.82
691.874	60.72
692.2	60.78
692.525	60.73
692.85	60.8
693.175	61.04
693.5	61.07
693.825	61.27
694.15	61.29
694.475	61.3
694.8	61.48
695.125	61.34
695.45	61.42
695.775	61.23
696.099	61.21
696.424	61.09
696.749	61.05
697.073	61.02
697.398	60.88
697.723	60.93
698.047	60.9
698.372	60.83
698.696	60.9
699.02	60.88
699.345	61
699.669	61.18
699.993	61.05
700.318	61.24
700.642	61.04
700.966	60.9
701.29	60.84
701.614	60.76
701.938	60.82
702.262	60.81
702.586	60.91
702.91	60.94
703.234	61.03
703.557	61.07
703.881	61.18
704.205	61.32
704.529	61.26
704.852	61.49
705.176	61.77
705.499	61.73
705.823	61.75
706.146	61.76
706.47	61.64
706.793	61.76
707.117	61.58
707.44	61.78
707.763	62.12
708.086	62.07
708.409	61.99
708.733	62.26
709.056	62.19
709.379	62.26
709.702	62.27
710.025	62.4
710.348	62.17
710.671	62.04
710.993	61.91
711.316	61.79
711.639	61.73
711.962	61.72
712.284	61.75
712.607	61.78
712.93	61.69
713.252	61.65
713.575	61.59
713.897	61.62
714.22	61.44
714.542	61.54
714.864	61.56
715.187	61.52
715.509	61.26
715.831	61.24
716.153	61.01
716.475	60.95
716.798	60.86
717.12	61.21
717.442	61.32
717.764	61.53
718.085	61.5
718.407	61.49
718.729	61.47
719.051	61.38
719.373	61.31
719.695	61.41
720.016	61.4
720.338	61.44
720.659	61.38
720.981	61.65
721.302	61.47
721.624	61.71
721.945	61.99
722.267	62.12
722.588	62.06
722.909	62.21
723.231	62.17
723.552	62.39
723.873	62.3
724.194	62.15
724.515	62.09
724.836	62.14
725.157	62.1
725.478	62.05
725.799	62.02
726.12	62.16
726.441	62.22
726.762	62.41
727.083	62.39
727.403	62.45
727.724	62.42
728.045	62.47
728.365	62.42
728.686	62.39
729.006	62.45
729.327	62.64
729.647	62.71
729.967	62.64
730.288	62.33
730.608	62.38
730.928	62.49
731.249	62.58
731.569	62.72
731.889	62.64
732.209	62.74
732.529	62.86
732.849	62.87
733.169	62.9
733.489	62.79
733.809	62.76
734.129	62.67
734.448	62.5
734.768	62.49
735.088	62.48
735.408	62.38
735.727	62.17
736.047	62.12
736.366	62.11
736.686	62.39
737.005	62.53
737.325	62.67
737.644	62.41
737.963	62.42
738.283	62.14
738.602	62.28
738.921	62.29
739.24	62.3
739.56	62.36
739.879	62.44
740.198	62.37
740.517	62.52
740.836	62.75
741.155	62.81
741.473	62.78
741.792	62.69
742.111	62.84
742.43	62.86
742.748	62.9
743.067	62.99
743.386	62.55
743.704	62.59
744.023	62.73
744.341	62.82
744.66	62.64
744.978	62.67
745.297	62.54
745.615	62.24
745.933	62.19
746.252	62.18
746.57	62
746.888	61.86
747.206	61.96
747.524	61.82
747.842	61.81
748.16	62.11
748.478	62
748.796	61.88
749.114	61.89
749.432	61.67
749.749	61.34
750.067	61.54
750.385	61.58
750.703	61.14
751.02	61.52
751.338	61.8
751.655	62.28
751.973	62.28
752.29	62.65
752.608	62.51
752.925	62.18
753.242	62.37
753.56	62.46
753.877	62.23
754.194	62.25
754.511	62.21
754.828	61.7
755.145	61.73
755.462	61.41
755.779	61.91
756.096	61.86
756.413	61.96
756.73	62.03
757.047	61.74
757.364	62.12
757.68	62.25
757.997	62.29
758.314	62.09
758.63	61.94
758.947	61.86
759.264	62.04
759.58	62.07
759.896	61.69
760.213	61.88
760.529	61.93
760.846	62.01
761.162	62.34
761.478	62.48
761.794	62.66
762.11	63.03
762.426	62.8
762.743	62.97
763.059	63.1
763.375	63.28
763.69	63.49
764.006	63.16
764.322	63.01
764.638	62.95
764.954	63.03
765.27	63.18
765.585	62.96
765.901	63.02
766.216	63.12
766.532	63.42
766.848	63.36
767.163	63.7
767.478	63.39
767.794	63.03
768.109	63.08
768.424	63.33
768.74	62.92
769.055	63.04
769.37	63.04
769.685	62.95
770	62.67
770.315	62.91
770.63	63.47
770.945	63.5
771.26	63.29
771.575	63.53
771.89	63.84
772.205	64.18
772.52	64.24
772.834	64.12
773.149	63.46
773.464	63.33
773.778	62.67
774.093	62.95
774.407	63.04
774.722	63.2
775.036	62.8
775.351	63.57
775.665	63.18
775.979	63.63
776.293	63.76
776.608	63.54
776.922	63.5
777.236	62.28
777.55	62.24
777.864	62.4
778.178	62.49
778.492	62.4
778.806	62.27
779.12	62.11
779.434	62.54
779.747	63.53
780.061	63.6
780.375	63.91
780.689	64.36
781.002	64.57
781.316	64.38
781.629	64.41
781.943	63.86
782.256	63.59
782.57	62.99
782.883	62.78
783.196	63.22
783.51	62.48
783.823	63.61
784.136	63.9
784.449	63.69
784.762	62.79
785.075	62.93
785.388	62.99
785.701	63.41
786.014	62.77
786.327	62.39
786.64	62.4
786.953	62.26
787.266	61.72
787.578	61.69
787.891	61.87
788.204	62.02
788.516	62.83
788.829	63.48
789.141	63.43
789.454	63.92
789.766	63.81
790.079	63.94
790.391	63.53
790.703	63.2
791.016	63.27
791.328	63.79
791.64	63.57
791.952	63.89
792.264	63.41
792.576	63.48
792.888	63.57
793.2	63.65
793.512	63.93
793.824	64.53
794.136	64.73
794.448	65.14
794.76	65.28
795.071	65.06
795.383	64.74
795.695	65.15
796.006	65.23
796.318	65.73
796.629	65.96
796.941	65.74
797.252	66.33
797.564	66.84
797.875	66.22
798.186	66.21
798.497	66.53
798.809	66.64
799.12	67.25
799.431	67.25
799.742	67.08
800.053	66.73
800.364	66.89
800.675	66.78
800.986	66.19
801.297	65.55
801.608	65.36
801.918	64.71
802.229	64.99
802.54	64.63
802.851	64.48
803.161	64.97
803.472	65.43
803.782	64.7
804.093	64.38
804.403	64.85
804.714	64.98
805.024	64.34
805.334	64.23
805.645	63.71
805.955	64.09
806.265	64.76
806.575	64.68
806.885	64.49
807.195	64.97
807.505	64.77
807.815	65.07
808.125	65
808.435	65.55
808.745	65.35
809.055	65.64
809.365	65.65
809.674	65.21
809.984	66.12
810.294	66.14
810.603	65.92
810.913	66.63
811.222	66.8
811.532	67.09
811.841	67.19
812.151	67.59
812.46	66.84
812.769	67
813.079	67.13
813.388	66.93
813.697	66.37
814.006	66.72
814.315	66.98
814.624	66.9
814.933	67.65
815.242	67.5
815.551	67.75
815.86	67.68
816.169	68.33
816.478	67.48
816.786	67.88
817.095	68.23
817.404	67.98
817.712	68
818.021	67.93
818.33	67.46
818.638	66.92
818.947	66.8
819.255	66.28
819.563	65.84
819.872	65.37
820.18	65.17
820.488	65.12
820.796	64.63
821.105	64.52
821.413	64.2
821.721	64.07
822.029	63.8
822.337	63.74
822.645	63.73
822.953	63.72
823.26	63.5
823.568	63.29
823.876	62.97
824.184	62.95
824.491	62.98
824.799	63.21
825.107	63.18
825.414	63.14
825.722	63.29
826.029	63.21
826.337	63.31
826.644	63.21
826.951	63.16
827.259	63.6
827.566	63.74
827.873	63.9
828.18	63.96
828.488	64.14
828.795	63.88
829.102	63.76
829.409	63.77
829.716	64.25
830.023	64.95
830.329	65.25
830.636	65.34
830.943	65.27
831.25	64.92
831.557	65.08
831.863	65.2
832.17	64.58
832.476	65.15
832.783	65.32
833.089	65.22
833.396	65.24
833.702	64.36
834.009	64.51
834.315	63.95
834.621	63.89
834.928	63.67
835.234	63.96
835.54	64.35
835.846	63.86
836.152	63.9
836.458	64.04
836.764	64.44
837.07	64.44
837.376	63.71
837.682	63.7
837.988	63.8
838.293	64.33
838.599	64.61
838.905	64.34
839.211	63.65
839.516	64.3
839.822	64.69
840.127	65.07
840.433	64.4
840.738	65.86
841.044	66.34
841.349	66.38
841.654	66.12
841.959	66.07
842.265	67.53
842.57	67.26
842.875	65.21
843.18	65.85
843.485	65.25
843.79	66.98
844.095	67.26
844.4	68.06
844.705	67.6
845.01	68.87
845.315	68.24
845.619	69.98
845.924	70.4
846.229	70.86
846.533	70.9
846.838	70.73
847.142	68.11
847.447	66.92
847.751	66.42
848.056	68.59
848.36	68.39
848.664	67
848.969	66.9
849.273	68.42
849.577	66.31
849.881	67.45
850.185	69.03
850.489	71.42
850.794	72.19
851.097	71.7
851.401	70.03
851.705	72.43
852.009	71.87
852.313	69.78
852.617	69.37
852.92	69.7
853.224	70.18
853.528	72.39
853.831	71.96
854.135	72.14
854.438	69.77
854.742	67.86
855.045	67.76
855.349	67.16
855.652	66.2
855.955	67.46
856.259	67.01
856.562	65
856.865	64.47
857.168	62.25
857.471	61.62
857.774	62.73
858.077	62.57
858.38	61.58
858.683	63.55
858.986	63.42
859.289	65.8
859.592	65.21
859.894	65.53
860.197	65.75
860.5	69.81
860.802	69.55
861.105	70.96
861.407	72.14
861.71	72.32
862.012	71.93
862.315	71.59
862.617	70.2
862.919	71.24
863.222	69.97
863.524	70.8
863.826	71.41
864.128	71.23
864.43	72.54
864.732	75.47
865.034	76.29
865.336	75
865.638	75.57
865.94	76.51
866.242	77.47
866.544	78.31
866.846	75.76
867.147	78.14
867.449	75.91
867.751	75.24
868.052	76.28
868.354	77.82
868.655	80.22
868.957	79.64
869.258	76.89
869.56	76.57
869.861	75.37
870.162	73.86
870.463	74.19
870.765	71.66
871.066	67.08
871.367	65.53
871.668	66.4
871.969	66.49
872.27	66.3
872.571	65.33
872.872	66.36
873.173	66
873.473	66.34
873.774	67.95
874.075	68.6
874.376	68.45
874.676	68.79
874.977	65.83
875.277	65.82
875.578	67.16
875.878	67.05
876.179	68.26
876.479	69.68
876.78	68.58
877.08	69.15
877.38	73.18
877.68	73.76
877.981	73.79
878.281	70.39
878.581	71.38
