Data from BU58129_Reflection_00010.txt Node
Date: Mon Nov 18 16:35:11 EST 2019
User: vgr7
Spectrometer: USB2G7710
Scans to average: 3
Trigger mode: 4
Integration Time (sec): 2.000000E-2
Electric dark correction enabled: true
Boxcar width: 10
XAxis mode: Wavelengths
Number of Pixels in Spectrum: 2048
>>>>>Begin Spectral Data<<<<<
177.721	-121.73
178.105	-464.1
178.488	-280.47
178.871	-1233.33
179.254	1013.04
179.636	11.35
180.019	187.72
180.402	185
180.785	164.68
181.168	-161.9
181.55	-262.64
181.933	-3.45
182.316	38.32
182.698	97.25
183.081	58.56
183.463	6.75
183.846	94.97
184.228	179.65
184.611	1766.67
184.993	-110.68
185.376	-66.23
185.758	-88.12
186.14	-115.19
186.522	-115.02
186.904	-507.84
187.287	458.49
187.669	1.55
188.051	-64.84
188.433	-132.32
188.815	-718.18
189.197	90.1
189.579	700
189.961	1332.56
190.342	199.48
190.724	180.46
191.106	268.83
191.488	149.87
191.869	136.88
192.251	95.76
192.633	56.71
193.014	42.78
193.396	62.39
193.777	71.06
194.159	80.71
194.54	58
194.922	76.82
195.303	97.99
195.684	97.84
196.065	143.19
196.447	134.75
196.828	203.83
197.209	103.8
197.59	29.58
197.971	23.08
198.352	15.25
198.733	43.82
199.114	-62.79
199.495	-39.16
199.876	-50.21
200.257	-29.68
200.638	-33.94
201.018	-56.07
201.399	-55.64
201.78	-50.41
202.16	-48.07
202.541	-336.24
202.922	-1063.27
203.302	790.14
203.683	322.93
204.063	814.29
204.444	2026.83
204.824	1100
205.204	14700
205.585	1657.38
205.965	1029.41
206.345	2202.04
206.725	1264.71
207.106	431.01
207.486	406.27
207.866	608.38
208.246	1381.69
208.626	572.39
209.006	4300
209.386	817.65
209.766	270.12
210.145	414.69
210.525	-695.92
210.905	-1723.53
211.285	-210.34
211.664	-101.1
212.044	-115.69
212.424	-76.47
212.803	-295.35
213.183	20.63
213.562	41.18
213.942	38.51
214.321	56.1
214.701	93.94
215.08	49.33
215.459	102.64
215.838	123.97
216.218	123.1
216.597	108.79
216.976	116.32
217.355	122.22
217.734	115.6
218.113	101.59
218.492	86.92
218.871	61.92
219.25	70.01
219.629	71.81
220.008	75.89
220.387	60.16
220.766	56.08
221.144	43.48
221.523	48.38
221.902	45.11
222.28	28.65
222.659	26.13
223.037	37.77
223.416	1.96
223.794	6.33
224.173	12.61
224.551	5.68
224.929	-0.06
225.308	14.03
225.686	9.79
226.064	7.22
226.442	5.77
226.821	10.61
227.199	5.76
227.577	7.5
227.955	5.46
228.333	4.25
228.711	8.24
229.089	9.69
229.467	7.69
229.845	4.17
230.222	5.03
230.6	3.37
230.978	3.7
231.356	10.14
231.733	6.33
232.111	6.95
232.488	5.22
232.866	5.55
233.243	2.01
233.621	2.65
233.998	2.94
234.376	-0.06
234.753	0.06
235.13	1.7
235.508	3.68
235.885	2.17
236.262	2.3
236.639	1.43
237.016	1.22
237.393	3.42
237.77	4.55
238.147	6.43
238.524	7.02
238.901	6.91
239.278	5.62
239.655	6.48
240.032	6.73
240.409	6.54
240.785	6.49
241.162	7.31
241.539	7.3
241.915	7.02
242.292	7.46
242.668	7.17
243.045	6.55
243.421	6.3
243.798	6.1
244.174	6.08
244.551	5.76
244.927	5.65
245.303	5.86
245.679	6.04
246.056	5.62
246.432	5.4
246.808	5.29
247.184	5.14
247.56	4.99
247.936	4.81
248.312	5.09
248.688	5.09
249.064	5.07
249.44	4.98
249.815	5.16
250.191	5.07
250.567	4.91
250.943	5.01
251.318	4.88
251.694	5.06
252.069	4.83
252.445	5.02
252.82	5.2
253.196	4.83
253.571	4.63
253.947	4.84
254.322	4.81
254.697	4.58
255.073	4.69
255.448	4.6
255.823	4.53
256.198	4.33
256.573	4.44
256.948	4.45
257.323	4.4
257.698	4.27
258.073	4.19
258.448	4.29
258.823	4.4
259.198	4.22
259.573	4.24
259.948	4.29
260.322	4.31
260.697	4.18
261.072	4.06
261.446	4.04
261.821	3.99
262.195	4.07
262.57	4.15
262.944	4.09
263.319	4.19
263.693	4.35
264.067	4.34
264.442	4.23
264.816	4.01
265.19	4.03
265.564	4.07
265.938	4.14
266.313	4.15
266.687	4.1
267.061	4.4
267.435	4.58
267.809	4.53
268.183	4.4
268.556	4.45
268.93	4.63
269.304	4.74
269.678	4.73
270.051	4.62
270.425	4.59
270.799	4.79
271.172	4.66
271.546	4.42
271.919	4.38
272.293	4.38
272.666	4.54
273.04	4.68
273.413	4.67
273.787	4.53
274.16	4.67
274.533	4.67
274.906	4.47
275.279	4.42
275.653	4.43
276.026	4.5
276.399	4.32
276.772	4.29
277.145	4.21
277.518	4.18
277.891	4.15
278.263	4.22
278.636	4.04
279.009	4.26
279.382	4.38
279.755	4.36
280.127	4.59
280.5	4.47
280.872	4.36
281.245	4.31
281.617	4.5
281.99	4.41
282.362	4.45
282.735	4.39
283.107	4.32
283.479	4.34
283.852	4.23
284.224	4.42
284.596	4.39
284.968	4.4
285.34	4.47
285.713	4.61
286.085	4.73
286.457	4.82
286.829	4.74
287.201	4.86
287.572	4.79
287.944	4.71
288.316	4.81
288.688	4.73
289.06	4.63
289.431	4.58
289.803	4.68
290.175	4.65
290.546	4.94
290.918	5
291.289	5.01
291.661	5.17
292.032	5.2
292.403	5.28
292.775	5.33
293.146	5.29
293.517	5.33
293.889	5.31
294.26	5.25
294.631	5.4
295.002	5.32
295.373	5.43
295.744	5.45
296.115	5.38
296.486	5.34
296.857	5.58
297.228	5.61
297.599	5.49
297.97	5.58
298.34	5.62
298.711	5.71
299.082	5.83
299.452	5.86
299.823	5.91
300.194	5.92
300.564	5.94
300.935	6.13
301.305	6.18
301.676	6.16
302.046	6.46
302.416	6.42
302.787	6.53
303.157	6.64
303.527	6.64
303.897	6.72
304.267	7.05
304.637	7.1
305.008	7.27
305.378	7.51
305.748	7.6
306.117	7.58
306.487	7.53
306.857	7.73
307.227	7.93
307.597	7.98
307.967	8.14
308.336	8.21
308.706	8.14
309.076	8.24
309.445	8.33
309.815	8.34
310.184	8.34
310.554	8.54
310.923	8.65
311.293	8.74
311.662	8.91
312.031	8.98
312.401	9.05
312.77	9.09
313.139	9.19
313.508	9.21
313.877	9.19
314.246	9.27
314.616	9.17
314.985	9.27
315.353	9.45
315.722	9.51
316.091	9.65
316.46	9.78
316.829	9.68
317.198	9.83
317.567	9.9
317.935	10.16
318.304	10.23
318.672	10.38
319.041	10.69
319.41	10.88
319.778	10.85
320.147	10.9
320.515	11.12
320.883	10.97
321.252	11.12
321.62	11.29
321.988	11.49
322.357	11.56
322.725	11.56
323.093	11.47
323.461	11.63
323.829	11.77
324.197	12.02
324.565	12.32
324.933	12.39
325.301	12.41
325.669	12.51
326.037	12.38
326.405	12.29
326.772	12.2
327.14	12.21
327.508	12.33
327.875	12.39
328.243	12.37
328.61	12.51
328.978	12.68
329.346	12.74
329.713	12.71
330.08	12.84
330.448	12.87
330.815	12.94
331.182	12.89
331.55	12.87
331.917	12.86
332.284	12.77
332.651	12.76
333.018	12.81
333.385	12.73
333.752	12.89
334.119	13.06
334.486	12.95
334.853	12.91
335.22	12.94
335.587	13
335.954	12.98
336.32	13.02
336.687	12.88
337.054	12.95
337.42	13.07
337.787	13.16
338.153	13.14
338.52	13.18
338.886	13.1
339.253	13.19
339.619	13.27
339.986	13.34
340.352	13.39
340.718	13.34
341.084	13.3
341.451	13.3
341.817	13.27
342.183	13.41
342.549	13.46
342.915	13.52
343.281	13.55
343.647	13.59
344.013	13.59
344.379	13.59
344.745	13.61
345.11	13.56
345.476	13.5
345.842	13.42
346.208	13.54
346.573	13.74
346.939	13.77
347.304	13.67
347.67	13.63
348.035	13.58
348.401	13.75
348.766	13.87
349.132	13.91
349.497	13.91
349.862	13.96
350.228	14.02
350.593	13.96
350.958	13.94
351.323	14
351.688	14.07
352.053	14.12
352.418	14.09
352.783	14.09
353.148	14.1
353.513	14.18
353.878	14.12
354.243	14.13
354.608	14.04
354.972	14.05
355.337	14.09
355.702	14.16
356.066	14.1
356.431	14.04
356.795	13.99
357.16	13.96
357.524	13.94
357.889	13.85
358.253	13.89
358.618	13.83
358.982	13.78
359.346	13.69
359.71	13.67
360.075	13.68
360.439	13.61
360.803	13.57
361.167	13.5
361.531	13.46
361.895	13.23
362.259	13.19
362.623	13.2
362.987	13.13
363.351	13.05
363.714	12.97
364.078	12.93
364.442	12.84
364.806	12.81
365.169	12.67
365.533	12.7
365.896	12.63
366.26	12.52
366.623	12.39
366.987	12.3
367.35	12.2
367.714	12.1
368.077	12.05
368.44	11.91
368.803	11.85
369.167	11.75
369.53	11.75
369.893	11.71
370.256	11.56
370.619	11.51
370.982	11.44
371.345	11.35
371.708	11.26
372.071	11.21
372.434	11.05
372.797	10.97
373.159	10.77
373.522	10.7
373.885	10.66
374.247	10.61
374.61	10.55
374.973	10.48
375.335	10.36
375.698	10.33
376.06	10.28
376.423	10.14
376.785	10.09
377.147	10.03
377.51	9.9
377.872	9.83
378.234	9.71
378.596	9.66
378.958	9.55
379.321	9.48
379.683	9.52
380.045	9.5
380.407	9.45
380.769	9.36
381.13	9.2
381.492	9.11
381.854	9.1
382.216	9.04
382.578	8.94
382.939	8.87
383.301	8.75
383.663	8.71
384.024	8.67
384.386	8.63
384.747	8.58
385.109	8.53
385.47	8.45
385.832	8.38
386.193	8.26
386.554	8.23
386.916	8.08
387.277	7.93
387.638	7.89
387.999	7.75
388.36	7.75
388.721	7.72
389.082	7.66
389.443	7.52
389.804	7.41
390.165	7.37
390.526	7.3
390.887	7.26
391.248	7.24
391.609	7.19
391.969	7.1
392.33	7.01
392.691	6.96
393.051	6.9
393.412	6.84
393.772	6.79
394.133	6.73
394.493	6.7
394.854	6.62
395.214	6.53
395.574	6.49
395.935	6.37
396.295	6.3
396.655	6.28
397.015	6.24
397.376	6.23
397.736	6.13
398.096	6.08
398.456	6.01
398.816	5.92
399.176	5.84
399.535	5.78
399.895	5.72
400.255	5.69
400.615	5.62
400.975	5.6
401.334	5.57
401.694	5.53
402.054	5.5
402.413	5.49
402.773	5.44
403.132	5.44
403.492	5.42
403.851	5.36
404.211	5.34
404.57	5.31
404.929	5.28
405.288	5.26
405.648	5.23
406.007	5.22
406.366	5.2
406.725	5.2
407.084	5.2
407.443	5.19
407.802	5.15
408.161	5.13
408.52	5.09
408.879	5.06
409.238	5.04
409.596	5.06
409.955	5.03
410.314	5.04
410.673	5.02
411.031	5.03
411.39	5.01
411.748	4.99
412.107	4.99
412.465	4.96
412.824	4.93
413.182	4.9
413.54	4.87
413.899	4.83
414.257	4.84
414.615	4.83
414.974	4.79
415.332	4.77
415.69	4.76
416.048	4.72
416.406	4.69
416.764	4.65
417.122	4.64
417.48	4.62
417.838	4.6
418.195	4.56
418.553	4.52
418.911	4.51
419.269	4.47
419.626	4.44
419.984	4.42
420.342	4.42
420.699	4.39
421.057	4.38
421.414	4.35
421.772	4.31
422.129	4.27
422.486	4.25
422.844	4.25
423.201	4.21
423.558	4.2
423.915	4.2
424.273	4.19
424.63	4.15
424.987	4.13
425.344	4.11
425.701	4.11
426.058	4.11
426.415	4.07
426.772	4.07
427.128	4.04
427.485	4.02
427.842	3.99
428.199	3.99
428.555	3.97
428.912	3.98
429.269	3.97
429.625	3.94
429.982	3.95
430.338	3.93
430.695	3.95
431.051	3.96
431.407	3.94
431.764	3.93
432.12	3.92
432.476	3.91
432.832	3.9
433.189	3.88
433.545	3.85
433.901	3.86
434.257	3.85
434.613	3.88
434.969	3.9
435.325	3.9
435.681	3.88
436.036	3.89
436.392	3.88
436.748	3.89
437.104	3.89
437.459	3.91
437.815	3.9
438.171	3.9
438.526	3.89
438.882	3.9
439.237	3.91
439.593	3.9
439.948	3.89
440.304	3.9
440.659	3.91
441.014	3.92
441.369	3.92
441.725	3.91
442.08	3.89
442.435	3.87
442.79	3.85
443.145	3.85
443.5	3.85
443.855	3.84
444.21	3.81
444.565	3.82
444.92	3.81
445.275	3.8
445.629	3.8
445.984	3.77
446.339	3.76
446.693	3.75
447.048	3.75
447.403	3.74
447.757	3.72
448.112	3.71
448.466	3.69
448.82	3.7
449.175	3.69
449.529	3.67
449.883	3.64
450.238	3.63
450.592	3.65
450.946	3.63
451.3	3.62
451.654	3.62
452.008	3.61
452.362	3.57
452.716	3.56
453.07	3.55
453.424	3.56
453.778	3.56
454.132	3.53
454.486	3.53
454.839	3.53
455.193	3.53
455.547	3.54
455.9	3.55
456.254	3.54
456.607	3.55
456.961	3.56
457.314	3.59
457.668	3.59
458.021	3.55
458.375	3.55
458.728	3.56
459.081	3.56
459.434	3.55
459.787	3.57
460.141	3.57
460.494	3.57
460.847	3.58
461.2	3.57
461.553	3.59
461.906	3.59
462.259	3.61
462.611	3.64
462.964	3.65
463.317	3.64
463.67	3.65
464.022	3.67
464.375	3.69
464.728	3.7
465.08	3.72
465.433	3.75
465.785	3.76
466.138	3.77
466.49	3.81
466.843	3.85
467.195	3.87
467.547	3.89
467.899	3.91
468.252	3.92
468.604	3.94
468.956	3.95
469.308	3.97
469.66	3.99
470.012	3.99
470.364	3.98
470.716	4
471.068	4
471.42	3.99
471.772	4.01
472.123	4.02
472.475	4.05
472.827	4.05
473.178	4.05
473.53	4.06
473.882	4.04
474.233	4.02
474.585	4.01
474.936	4.01
475.288	4.01
475.639	4.02
475.99	4.03
476.342	4.01
476.693	3.99
477.044	3.99
477.395	3.98
477.746	3.98
478.097	3.95
478.448	3.96
478.8	3.96
479.15	3.93
479.501	3.93
479.852	3.92
480.203	3.92
480.554	3.93
480.905	3.93
481.255	3.93
481.606	3.94
481.957	3.94
482.307	3.94
482.658	3.94
483.009	3.92
483.359	3.91
483.709	3.91
484.06	3.91
484.41	3.91
484.761	3.91
485.111	3.91
485.461	3.91
485.811	3.91
486.162	3.9
486.512	3.91
486.862	3.91
487.212	3.91
487.562	3.91
487.912	3.9
488.262	3.9
488.612	3.89
488.961	3.89
489.311	3.89
489.661	3.9
490.011	3.9
490.36	3.9
490.71	3.92
491.06	3.92
491.409	3.93
491.759	3.92
492.108	3.92
492.458	3.94
492.807	3.94
493.157	3.96
493.506	3.99
493.855	3.99
494.204	4
494.554	4.03
494.903	4.04
495.252	4.08
495.601	4.1
495.95	4.14
496.299	4.18
496.648	4.2
496.997	4.23
497.346	4.27
497.695	4.32
498.043	4.33
498.392	4.37
498.741	4.41
499.09	4.47
499.438	4.52
499.787	4.56
500.135	4.64
500.484	4.69
500.832	4.75
501.181	4.82
501.529	4.89
501.878	4.94
502.226	5.01
502.574	5.09
502.923	5.15
503.271	5.23
503.619	5.31
503.967	5.38
504.315	5.45
504.663	5.54
505.011	5.65
505.359	5.73
505.707	5.84
506.055	5.95
506.403	6.03
506.751	6.14
507.098	6.24
507.446	6.35
507.794	6.46
508.141	6.57
508.489	6.69
508.837	6.81
509.184	6.95
509.531	7.1
509.879	7.23
510.226	7.39
510.574	7.5
510.921	7.62
511.268	7.74
511.616	7.88
511.963	8.03
512.31	8.15
512.657	8.33
513.004	8.48
513.351	8.65
513.698	8.84
514.045	9
514.392	9.18
514.739	9.36
515.086	9.55
515.432	9.72
515.779	9.88
516.126	10.06
516.473	10.22
516.819	10.36
517.166	10.49
517.512	10.64
517.859	10.81
518.205	10.96
518.552	11.11
518.898	11.29
519.245	11.45
519.591	11.6
519.937	11.75
520.283	11.95
520.629	12.12
520.976	12.32
521.322	12.53
521.668	12.73
522.014	12.95
522.36	13.16
522.706	13.38
523.052	13.63
523.398	13.89
523.743	14.15
524.089	14.44
524.435	14.7
524.781	14.93
525.126	15.16
525.472	15.38
525.817	15.58
526.163	15.74
526.509	15.9
526.854	16.09
527.199	16.26
527.545	16.38
527.89	16.54
528.235	16.68
528.581	16.83
528.926	16.99
529.271	17.13
529.616	17.3
529.961	17.46
530.306	17.63
530.651	17.8
530.996	17.99
531.341	18.17
531.686	18.35
532.031	18.52
532.376	18.73
532.721	18.92
533.065	19.15
533.41	19.38
533.755	19.62
534.099	19.83
534.444	20.04
534.788	20.29
535.133	20.52
535.477	20.76
535.822	20.99
536.166	21.24
536.51	21.53
536.855	21.79
537.199	22.1
537.543	22.39
537.887	22.71
538.231	22.99
538.576	23.32
538.92	23.67
539.264	24
539.608	24.28
539.951	24.56
540.295	24.79
540.639	25.03
540.983	25.28
541.327	25.51
541.671	25.74
542.014	25.96
542.358	26.19
542.701	26.42
543.045	26.67
543.389	26.91
543.732	27.16
544.075	27.4
544.419	27.65
544.762	27.91
545.105	28.16
545.449	28.45
545.792	28.71
546.135	28.97
546.478	29.28
546.821	29.6
547.165	29.93
547.508	30.28
547.851	30.64
548.194	30.97
548.536	31.37
548.879	31.75
549.222	32.1
549.565	32.47
549.908	32.86
550.25	33.19
550.593	33.56
550.936	33.88
551.278	34.2
551.621	34.6
551.963	34.98
552.306	35.37
552.648	35.69
552.991	36.03
553.333	36.33
553.675	36.64
554.017	36.95
554.36	37.23
554.702	37.56
555.044	37.81
555.386	38.15
555.728	38.44
556.07	38.77
556.412	39.07
556.754	39.32
557.096	39.63
557.438	40
557.78	40.36
558.121	40.73
558.463	41.1
558.805	41.37
559.147	41.62
559.488	41.91
559.83	42.29
560.171	42.57
560.513	42.92
560.854	43.21
561.196	43.57
561.537	43.88
561.878	44.16
562.22	44.48
562.561	44.72
562.902	45.01
563.243	45.23
563.584	45.51
563.925	45.79
564.266	46.09
564.607	46.29
564.948	46.48
565.289	46.73
565.63	47.01
565.971	47.21
566.312	47.43
566.653	47.65
566.993	47.83
567.334	48.07
567.675	48.33
568.015	48.54
568.356	48.68
568.696	48.95
569.037	49.16
569.377	49.4
569.718	49.58
570.058	49.78
570.398	50.02
570.739	50.29
571.079	50.54
571.419	50.76
571.759	50.99
572.099	51.19
572.439	51.34
572.779	51.49
573.119	51.75
573.459	51.96
573.799	52.21
574.139	52.34
574.479	52.52
574.819	52.67
575.158	52.89
575.498	53.14
575.838	53.26
576.177	53.44
576.517	53.6
576.856	53.88
577.196	54.03
577.535	54.2
577.875	54.27
578.214	54.43
578.553	54.53
578.893	54.71
579.232	54.9
579.571	55.11
579.91	55.27
580.25	55.41
580.589	55.6
580.928	55.64
581.267	55.88
581.606	56.1
581.945	56.21
582.283	56.34
582.622	56.4
582.961	56.54
583.3	56.63
583.639	56.75
583.977	56.78
584.316	57
584.654	57.18
584.993	57.38
585.332	57.51
585.67	57.68
586.008	57.82
586.347	57.89
586.685	57.95
587.024	58.11
587.362	58.16
587.7	58.25
588.038	58.36
588.376	58.46
588.715	58.56
589.053	58.69
589.391	58.79
589.729	58.94
590.067	59.03
590.404	59.21
590.742	59.33
591.08	59.39
591.418	59.4
591.756	59.44
592.093	59.61
592.431	59.74
592.769	59.68
593.106	59.74
593.444	59.85
593.781	59.98
594.119	60.06
594.456	60.2
594.793	60.24
595.131	60.35
595.468	60.42
595.805	60.52
596.143	60.57
596.48	60.71
596.817	60.8
597.154	60.92
597.491	60.98
597.828	61.08
598.165	61.16
598.502	61.26
598.839	61.34
599.176	61.29
599.512	61.38
599.849	61.56
600.186	61.7
600.523	61.81
600.859	61.89
601.196	61.97
601.532	61.96
601.869	62.05
602.205	62.13
602.542	62.25
602.878	62.22
603.215	62.32
603.551	62.26
603.887	62.19
604.223	62.19
604.56	62.26
604.896	62.26
605.232	62.4
605.568	62.39
605.904	62.43
606.24	62.54
606.576	62.44
606.912	62.52
607.248	62.52
607.583	62.52
607.919	62.56
608.255	62.62
608.591	62.76
608.926	62.83
609.262	62.87
609.597	62.94
609.933	63.05
610.268	63.13
610.604	63.2
610.939	63.32
611.275	63.43
611.61	63.48
611.945	63.55
612.281	63.54
612.616	63.63
612.951	63.64
613.286	63.72
613.621	63.85
613.956	63.87
614.291	63.9
614.626	64
614.961	64.07
615.296	64.03
615.631	64.02
615.966	64.08
616.3	64.17
616.635	64.19
616.97	64.15
617.304	64.06
617.639	64.1
617.973	64.2
618.308	64.23
618.642	64.25
618.977	64.23
619.311	64.36
619.646	64.44
619.98	64.5
620.314	64.49
620.648	64.62
620.983	64.66
621.317	64.69
621.651	64.83
621.985	64.84
622.319	64.95
622.653	64.9
622.987	64.81
623.321	64.77
623.655	64.73
623.988	64.77
624.322	64.8
624.656	64.78
624.99	64.71
625.323	64.74
625.657	64.69
625.99	64.74
626.324	64.76
626.657	64.77
626.991	64.75
627.324	64.7
627.658	64.71
627.991	64.77
628.324	64.75
628.657	64.69
628.991	64.74
629.324	64.72
629.657	64.88
629.99	64.98
630.323	65.04
630.656	65.1
630.989	65.23
631.322	65.28
631.655	65.35
631.987	65.45
632.32	65.38
632.653	65.51
632.986	65.54
633.318	65.5
633.651	65.56
633.984	65.64
634.316	65.69
634.649	65.65
634.981	65.59
635.313	65.68
635.646	65.64
635.978	65.68
636.31	65.71
636.643	65.68
636.975	65.69
637.307	65.74
637.639	65.76
637.971	65.64
638.303	65.62
638.635	65.68
638.967	65.78
639.299	65.82
639.631	65.86
639.963	65.85
640.295	65.91
640.626	65.88
640.958	65.94
641.29	65.98
641.621	65.95
641.953	66.13
642.285	66.15
642.616	66.15
642.948	66.16
643.279	66.04
643.61	66.15
643.942	66.27
644.273	66.21
644.604	66.17
644.936	66.3
645.267	66.37
645.598	66.47
645.929	66.47
646.26	66.63
646.591	66.63
646.922	66.64
647.253	66.58
647.584	66.55
647.915	66.59
648.245	66.58
648.576	66.66
648.907	66.57
649.238	66.51
649.568	66.51
649.899	66.5
650.229	66.62
650.56	66.65
650.89	66.63
651.221	66.57
651.551	66.55
651.882	66.52
652.212	66.56
652.542	66.49
652.872	66.52
653.203	66.43
653.533	66.32
653.863	66.49
654.193	66.56
654.523	66.69
654.853	66.56
655.183	66.47
655.513	66.47
655.843	66.56
656.172	66.52
656.502	66.63
656.832	66.77
657.162	66.77
657.491	66.68
657.821	66.69
658.15	66.8
658.48	66.9
658.809	66.85
659.139	66.8
659.468	66.83
659.798	66.81
660.127	66.82
660.456	66.82
660.785	66.68
661.115	66.58
661.444	66.46
661.773	66.56
662.102	66.65
662.431	66.59
662.76	66.44
663.089	66.63
663.418	66.62
663.747	66.44
664.076	66.43
664.404	66.37
664.733	66.31
665.062	66.34
665.39	66.24
665.719	66.22
666.048	66.28
666.376	66.22
666.705	66.14
667.033	66.09
667.362	66.32
667.69	66.34
668.018	66.42
668.347	66.46
668.675	66.45
669.003	66.49
669.331	66.63
669.659	66.72
669.987	66.61
670.315	66.59
670.643	66.73
670.971	66.78
671.299	66.88
671.627	66.92
671.955	66.95
672.283	67.07
672.61	67.21
672.938	67.32
673.266	67.2
673.593	67.32
673.921	67.27
674.249	67.09
674.576	67.09
674.904	67.21
675.231	67.29
675.558	67.26
675.886	67.33
676.213	67.44
676.54	67.46
676.867	67.55
677.195	67.67
677.522	67.58
677.849	67.63
678.176	67.68
678.503	67.56
678.83	67.44
679.157	67.38
679.484	67.37
679.81	67.29
680.137	67.43
680.464	67.4
680.791	67.47
681.117	67.49
681.444	67.48
681.771	67.53
682.097	67.64
682.424	67.66
682.75	67.49
683.077	67.26
683.403	67.26
683.729	67.16
684.056	67.1
684.382	67.14
684.708	67.17
685.034	67.21
685.36	67.22
685.686	67.38
686.012	67.36
686.339	67.43
686.664	67.37
686.99	67.42
687.316	67.32
687.642	67.41
687.968	67.42
688.294	67.5
688.619	67.32
688.945	67.17
689.271	67.24
689.596	67.43
689.922	67.64
690.247	67.69
690.573	67.7
690.898	67.71
691.224	67.69
691.549	67.67
691.874	67.51
692.2	67.58
692.525	67.46
692.85	67.5
693.175	67.3
693.5	67.35
693.825	67.2
694.15	67.23
694.475	67.28
694.8	67.37
695.125	67.36
695.45	67.42
695.775	67.52
696.099	67.56
696.424	67.38
696.749	67.24
697.073	67.18
697.398	67.18
697.723	66.99
698.047	67.01
698.372	66.99
698.696	66.97
699.02	67.13
699.345	67.13
699.669	67.18
699.993	67.4
700.318	67.44
700.642	67.52
700.966	67.44
701.29	67.37
701.614	67.31
701.938	67.2
702.262	67.19
702.586	67.1
702.91	67.09
703.234	67.08
703.557	67.15
703.881	67.26
704.205	67.33
704.529	67.57
704.852	67.49
705.176	67.42
705.499	67.46
705.823	67.28
706.146	67.21
706.47	67.23
706.793	67.01
707.117	66.88
707.44	67
707.763	67.14
708.086	67.36
708.409	67.5
708.733	67.52
709.056	67.63
709.379	67.72
709.702	67.63
710.025	67.61
710.348	67.8
710.671	67.68
710.993	67.74
711.316	67.59
711.639	67.77
711.962	67.98
712.284	67.87
712.607	68.03
712.93	68.15
713.252	68.25
713.575	68.15
713.897	68.23
714.22	68.19
714.542	68.17
714.864	68
715.187	67.84
715.509	68.06
715.831	67.91
716.153	67.94
716.475	67.95
716.798	68.33
717.12	68.15
717.442	68.1
717.764	68.02
718.085	68.15
718.407	68.18
718.729	68.08
719.051	68.23
719.373	68.08
719.695	68.04
720.016	67.65
720.338	67.68
720.659	67.63
720.981	67.56
721.302	67.99
721.624	68.05
721.945	68.26
722.267	68.18
722.588	68.32
722.909	68.34
723.231	68.23
723.552	68.02
723.873	68.23
724.194	68.08
724.515	68.1
724.836	68.16
725.157	68.43
725.478	68.43
725.799	68.46
726.12	68.62
726.441	68.54
726.762	68.89
727.083	69.05
727.403	69.13
727.724	69.27
728.045	68.87
728.365	68.74
728.686	68.62
729.006	68.5
729.327	68.36
729.647	68.36
729.967	68.49
730.288	68.35
730.608	68.14
730.928	68.6
731.249	68.52
731.569	68.46
731.889	68.04
732.209	67.86
732.529	67.81
732.849	67.77
733.169	67.91
733.489	67.91
733.809	67.83
734.129	67.8
734.448	67.58
734.768	67.89
735.088	68.08
735.408	68.01
735.727	68.06
736.047	68.01
736.366	67.88
736.686	67.76
737.005	67.95
737.325	68.13
737.644	67.97
737.963	68.12
738.283	68.34
738.602	68.42
738.921	68.6
739.24	68.78
739.56	68.7
739.879	68.64
740.198	68.51
740.517	68.53
740.836	68.37
741.155	68.56
741.473	68.34
741.792	68.22
742.111	68.09
742.43	68.24
742.748	68.4
743.067	68.44
743.386	68.63
743.704	68.67
744.023	68.63
744.341	68.81
744.66	68.83
744.978	68.68
745.297	68.96
745.615	68.94
745.933	68.94
746.252	69.17
746.57	69.17
746.888	69.26
747.206	69.42
747.524	69.75
747.842	69.67
748.16	69.81
748.478	69.58
748.796	70.29
749.114	70.16
749.432	70.16
749.749	69.92
750.067	69.95
750.385	69.84
750.703	69.68
751.02	69.4
751.338	69.5
751.655	69.51
751.973	69.3
752.29	69.47
752.608	69.51
752.925	69.26
753.242	69.32
753.56	69.22
753.877	69.15
754.194	69.24
754.511	69.37
754.828	69.05
755.145	69.32
755.462	68.94
755.779	69.18
756.096	69.41
756.413	69.81
756.73	69.41
757.047	69.73
757.364	70.02
757.68	69.9
757.997	70.1
758.314	70.02
758.63	69.9
758.947	70
759.264	69.97
759.58	69.98
759.896	70
760.213	70.17
760.529	70.45
760.846	70.14
761.162	70.11
761.478	70.17
761.794	69.77
762.11	69.49
762.426	69.22
762.743	68.89
763.059	68.7
763.375	69.01
763.69	68.75
764.006	68.47
764.322	68.55
764.638	68.55
764.954	68.6
765.27	68.61
765.585	68.38
765.901	68.45
766.216	68.34
766.532	68.49
766.848	68.41
767.163	68.13
767.478	68.06
767.794	68.06
768.109	67.95
768.424	68.38
768.74	68.82
769.055	68.98
769.37	69.05
769.685	69.34
770	69.25
770.315	69.26
770.63	69.45
770.945	69.56
771.26	69.16
771.575	68.71
771.89	68.5
772.205	68.7
772.52	68.57
772.834	68.49
773.149	68.03
773.464	68.2
773.778	68.47
774.093	68.46
774.407	68.41
774.722	68.63
775.036	68.28
775.351	68.18
775.665	68.75
775.979	69.11
776.293	68.93
776.608	68.68
776.922	68.97
777.236	68.96
777.55	68.7
777.864	69.14
778.178	69.48
778.492	69.95
778.806	70
779.12	70.24
779.434	70.34
779.747	70.8
780.061	70.72
780.375	69.86
780.689	69.81
781.002	69.87
781.316	69.98
781.629	70.63
781.943	70.53
782.256	70.08
782.57	69.78
782.883	70.23
783.196	70.1
783.51	70.44
783.823	70.12
784.136	70.64
784.449	70.04
784.762	69.99
785.075	69.53
785.388	69.25
785.701	68.75
786.014	69.21
786.327	69.01
786.64	68.49
786.953	69.4
787.266	69.94
787.578	69.94
787.891	69.85
788.204	69.44
788.516	69.41
788.829	68.92
789.141	69.18
789.454	69.04
789.766	69.5
790.079	68.73
790.391	69.17
790.703	68.71
791.016	68.56
791.328	69.15
791.64	69.29
791.952	69.5
792.264	69.83
792.576	69.44
792.888	69.51
793.2	69.98
793.512	69.87
793.824	69.73
794.136	69.2
794.448	69.41
794.76	69.4
795.071	69.38
795.383	69.45
795.695	69.04
796.006	68.78
796.318	68.69
796.629	69.18
796.941	68.9
797.252	68.7
797.564	69.33
797.875	69.09
798.186	69.04
798.497	68.95
798.809	69.33
799.12	69.43
799.431	69.33
799.742	69.37
800.053	69.62
800.364	70.03
800.675	71.03
800.986	70.65
801.297	70.78
801.608	70.79
801.918	71.12
802.229	71.4
802.54	71.94
802.851	72.52
803.161	72.42
803.472	73.24
803.782	74.09
804.093	74.63
804.403	74.61
804.714	75.45
805.024	75.17
805.334	75.04
805.645	74.07
805.955	73.91
806.265	73.36
806.575	73.1
806.885	72.84
807.195	71.97
807.505	72.18
807.815	71.94
808.125	71.63
808.435	71.18
808.745	70.87
809.055	70.11
809.365	69.62
809.674	69.25
809.984	68.97
810.294	68.6
810.603	67.87
810.913	67.62
811.222	67.37
811.532	68.29
811.841	67.24
812.151	68.56
812.46	68.43
812.769	69.28
813.079	69.26
813.388	69.31
813.697	69.77
814.006	69.4
814.315	69.71
814.624	69.76
814.933	69.74
815.242	70.43
815.551	70.42
815.86	70.64
816.169	70.12
816.478	69.6
816.786	69.82
817.095	69.84
817.404	70
817.712	69.89
818.021	69.07
818.33	69.35
818.638	69.21
818.947	69.37
819.255	69.34
819.563	69.38
819.872	68.98
820.18	68.55
820.488	68.42
820.796	68.62
821.105	68.87
821.413	69.05
821.721	69
822.029	68.99
822.337	69.02
822.645	69.38
822.953	69.35
823.26	69.22
823.568	69.01
823.876	68.88
824.184	68.9
824.491	69.24
824.799	69.21
825.107	69.13
825.414	69.16
825.722	69.12
826.029	69.09
826.337	69.16
826.644	69.27
826.951	69.47
827.259	69.53
827.566	69.43
827.873	69.21
828.18	69.09
828.488	69.29
828.795	69.36
829.102	69.04
829.409	69.36
829.716	69.55
830.023	70.19
830.329	70.21
830.636	70.52
830.943	70.07
831.25	70.26
831.557	70.5
831.863	70.15
832.17	69.69
832.476	69.35
832.783	69.23
833.089	69.65
833.396	69.64
833.702	69.71
834.009	69.92
834.315	70.47
834.621	70.84
834.928	70.56
835.234	70.72
835.54	71.18
835.846	70.52
836.152	70.29
836.458	69.94
836.764	69.82
837.07	68.94
837.376	69.04
837.682	69.37
837.988	69.23
838.293	69.5
838.599	70.15
838.905	69.93
839.211	70.18
839.516	69.4
839.822	69.8
840.127	69.4
840.433	68.9
840.738	68.83
841.044	68.6
841.349	69.56
841.654	68.39
841.959	67.7
842.265	68.73
842.57	69.57
842.875	69.81
843.18	70.3
843.485	71.61
843.79	71.39
844.095	70.66
844.4	71.71
844.705	71.61
845.01	71.53
845.315	74.17
845.619	74.08
845.924	75.42
846.229	75.75
846.533	74.44
846.838	75.62
847.142	74.64
847.447	73.48
847.751	72.04
848.056	72.77
848.36	73.06
848.664	72.98
848.969	73.02
849.273	72.76
849.577	72.3
849.881	69.89
850.185	69.25
850.489	69.92
850.794	68.32
851.097	69.73
851.401	69.74
851.705	69.05
852.009	69.16
852.313	70.62
852.617	70.82
852.92	71.24
853.224	72.05
853.528	73.99
853.831	76.18
854.135	76.18
854.438	75.03
854.742	75.45
855.045	75.33
855.349	74.25
855.652	74.44
855.955	75.72
856.259	76.33
856.562	77.27
856.865	79.9
857.168	80.82
857.471	81.42
857.774	82.18
858.077	77.97
858.38	80.69
858.683	78.95
858.986	76.96
859.289	78.24
859.592	77.16
859.894	77.75
860.197	78.41
860.5	81.02
860.802	81.98
861.105	81.15
861.407	80.15
861.71	81.98
862.012	82.81
862.315	83.07
862.617	85.54
862.919	86.41
863.222	85.13
863.524	83.25
863.826	83.98
864.128	82.88
864.43	85.69
864.732	82.8
865.034	81.42
865.336	82.1
865.638	83.26
865.94	83.15
866.242	81.17
866.544	79.44
866.846	75.7
867.147	76.15
867.449	78.5
867.751	75.64
868.052	74.87
868.354	73.06
868.655	74.02
868.957	73.91
869.258	75.63
869.56	73.6
869.861	75.7
870.162	73.53
870.463	75.63
870.765	77.41
871.066	78.28
871.367	78.69
871.668	79.72
871.969	79.62
872.27	81.22
872.571	81.62
872.872	82.79
873.173	85.7
873.473	85.52
873.774	82.72
874.075	87.21
874.376	85.93
874.676	85.09
874.977	82.72
875.277	81.98
875.578	79.53
875.878	80.46
876.179	79.24
876.479	80.83
876.78	78.72
877.08	77.4
877.38	76.73
877.68	78.25
877.981	76.73
878.281	74.56
878.581	71.44
