Data from BU58130_Reflection_00010.txt Node
Date: Mon Nov 18 16:37:31 EST 2019
User: vgr7
Spectrometer: USB2G7710
Scans to average: 3
Trigger mode: 4
Integration Time (sec): 2.000000E-2
Electric dark correction enabled: true
Boxcar width: 10
XAxis mode: Wavelengths
Number of Pixels in Spectrum: 2048
>>>>>Begin Spectral Data<<<<<
177.721	-271.5
178.105	433.33
178.488	205.76
178.871	169.58
179.254	103.45
179.636	197.7
180.019	136.53
180.402	189.66
180.785	-0.34
181.168	28.49
181.55	12.51
181.933	64.27
182.316	80.47
182.698	95.45
183.081	109.2
183.463	144.83
183.846	139.8
184.228	116.57
184.611	298.37
184.993	404.43
185.376	224.1
185.758	237.33
186.14	317.45
186.522	455.23
186.904	716.03
187.287	967.72
187.669	-703.21
188.051	-3303.51
188.433	-2179.57
188.815	-170.77
189.197	-125.28
189.579	-151.85
189.961	-131.57
190.342	-121.78
190.724	-92.76
191.106	-109.39
191.488	-165.28
191.869	-187.97
192.251	-208.7
192.633	-1021.69
193.014	-7529.63
193.396	2791.36
193.777	2042.03
194.159	261.24
194.54	174.07
194.922	-186.3
195.303	-320.09
195.684	-155.49
196.065	5.46
196.447	7.5
196.828	-8.15
197.209	15.84
197.59	25.21
197.971	27.73
198.352	49.7
198.733	36.28
199.114	37.72
199.495	38.69
199.876	22.04
200.257	36.74
200.638	60.65
201.018	79.92
201.399	71.11
201.78	51.47
202.16	33.02
202.541	18.17
202.922	18.51
203.302	10.35
203.683	5.05
204.063	-4.35
204.444	1.94
204.824	-5.72
205.204	-3.29
205.585	-1.54
205.965	-7.26
206.345	-31.59
206.725	-56.26
207.106	-48.07
207.486	-45.62
207.866	-24.33
208.246	3.25
208.626	-17.82
209.006	-25.67
209.386	-70.98
209.766	-43.44
210.145	-12.78
210.525	-40.02
210.905	-54.94
211.285	42.03
211.664	234.87
212.044	421.57
212.424	-3625.49
212.803	-453.29
213.183	-1069.4
213.562	252.96
213.942	147.21
214.321	115.85
214.701	126.07
215.08	148.8
215.459	105.74
215.838	84.97
216.218	74.7
216.597	71.09
216.976	75.6
217.355	106.35
217.734	114.11
218.113	134.76
218.492	140.08
218.871	123.49
219.25	113.16
219.629	97.69
220.008	84.96
220.387	52.61
220.766	53.99
221.144	53.94
221.523	56.91
221.902	40.88
222.28	39.1
222.659	28.28
223.037	18.22
223.416	5.02
223.794	0.54
224.173	-2.26
224.551	10.59
224.929	-7.69
225.308	-3.76
225.686	-3.17
226.064	-4.24
226.442	-9.51
226.821	-3.32
227.199	-6.01
227.577	-0.04
227.955	4.26
228.333	4.22
228.711	3.67
229.089	7.78
229.467	7.91
229.845	5.94
230.222	3.54
230.6	3.03
230.978	5.05
231.356	7.73
231.733	9.69
232.111	11.7
232.488	10.47
232.866	11.03
233.243	9.45
233.621	8.67
233.998	10.25
234.376	10.98
234.753	10.52
235.13	9.75
235.508	9.85
235.885	9.09
236.262	8.59
236.639	8.83
237.016	7.27
237.393	10.33
237.77	12.04
238.147	12.72
238.524	11.82
238.901	10.98
239.278	10.14
239.655	9.27
240.032	8.27
240.409	7.44
240.785	7.08
241.162	7.42
241.539	7.34
241.915	6.89
242.292	6.45
242.668	6.17
243.045	6.34
243.421	6.22
243.798	5.84
244.174	6.03
244.551	6.07
244.927	6.04
245.303	5.55
245.679	5.51
246.056	5.27
246.432	5.46
246.808	5.45
247.184	5.15
247.56	5.24
247.936	5.16
248.312	5.24
248.688	5.46
249.064	5.18
249.44	5.46
249.815	5.42
250.191	5.64
250.567	5.51
250.943	5.46
251.318	5.58
251.694	5.81
252.069	5.83
252.445	5.74
252.82	6.05
253.196	5.85
253.571	5.66
253.947	5.96
254.322	5.88
254.697	5.69
255.073	5.64
255.448	4.82
255.823	4.69
256.198	4.92
256.573	4.77
256.948	4.84
257.323	4.72
257.698	4.74
258.073	4.58
258.448	4.58
258.823	4.62
259.198	4.36
259.573	4.17
259.948	4.07
260.322	4.15
260.697	3.97
261.072	3.97
261.446	4.21
261.821	4.05
262.195	4.14
262.57	4.26
262.944	4.41
263.319	4.66
263.693	4.7
264.067	4.67
264.442	4.79
264.816	4.8
265.19	4.6
265.564	4.6
265.938	4.7
266.313	4.69
266.687	4.64
267.061	4.81
267.435	4.86
267.809	4.75
268.183	4.6
268.556	4.51
268.93	4.64
269.304	4.34
269.678	4.33
270.051	4.1
270.425	3.99
270.799	3.89
271.172	4.06
271.546	4.04
271.919	3.95
272.293	3.86
272.666	3.81
273.04	3.93
273.413	3.76
273.787	3.75
274.16	3.87
274.533	3.96
274.906	3.85
275.279	3.87
275.653	3.93
276.026	3.89
276.399	3.98
276.772	3.88
277.145	3.87
277.518	4.05
277.891	3.97
278.263	4.07
278.636	4.01
279.009	3.8
279.382	4.04
279.755	3.89
280.127	4.05
280.5	4.07
280.872	4.1
281.245	4.23
281.617	4.25
281.99	4.26
282.362	4.11
282.735	4.11
283.107	4.21
283.479	4.24
283.852	4.38
284.224	4.56
284.596	4.74
284.968	4.89
285.34	4.9
285.713	5.06
286.085	5.19
286.457	5.35
286.829	5.47
287.201	5.37
287.572	5.5
287.944	5.42
288.316	5.46
288.688	5.36
289.06	5.43
289.431	5.45
289.803	5.45
290.175	5.51
290.546	5.63
290.918	5.68
291.289	5.76
291.661	5.91
292.032	5.89
292.403	5.74
292.775	5.79
293.146	5.66
293.517	5.65
293.889	5.66
294.26	5.72
294.631	5.66
295.002	5.77
295.373	5.77
295.744	5.86
296.115	5.89
296.486	5.94
296.857	6.06
297.228	6.1
297.599	6.08
297.97	6.1
298.34	6.16
298.711	6.18
299.082	6.2
299.452	6.19
299.823	6.26
300.194	6.29
300.564	6.24
300.935	6.36
301.305	6.45
301.676	6.34
302.046	6.36
302.416	6.53
302.787	6.51
303.157	6.56
303.527	6.55
303.897	6.57
304.267	6.73
304.637	6.61
305.008	6.59
305.378	6.82
305.748	6.91
306.117	6.9
306.487	7
306.857	6.9
307.227	7
307.597	6.84
307.967	6.92
308.336	6.95
308.706	7.04
309.076	7.12
309.445	7.16
309.815	7.07
310.184	6.92
310.554	6.95
310.923	7.07
311.293	7.16
311.662	7.09
312.031	7
312.401	7.07
312.77	7.3
313.139	7.4
313.508	7.4
313.877	7.44
314.246	7.43
314.616	7.51
314.985	7.37
315.353	7.44
315.722	7.63
316.091	7.67
316.46	7.66
316.829	7.67
317.198	7.78
317.567	7.89
317.935	8.01
318.304	8.09
318.672	8.07
319.041	8.03
319.41	8.3
319.778	8.45
320.147	8.43
320.515	8.28
320.883	8
321.252	8.04
321.62	8.15
321.988	8.13
322.357	8.4
322.725	8.46
323.093	8.62
323.461	8.57
323.829	8.75
324.197	8.71
324.565	8.76
324.933	8.91
325.301	9.01
325.669	9.12
326.037	9.21
326.405	9.24
326.772	9.31
327.14	9.47
327.508	9.61
327.875	9.55
328.243	9.56
328.61	9.74
328.978	9.79
329.346	9.82
329.713	9.92
330.08	9.93
330.448	9.9
330.815	9.85
331.182	9.91
331.55	9.8
331.917	10.06
332.284	10.16
332.651	10.05
333.018	10.14
333.385	10.17
333.752	10.13
334.119	10.19
334.486	10.24
334.853	10.15
335.22	10.06
335.587	10.32
335.954	10.45
336.32	10.46
336.687	10.61
337.054	10.68
337.42	10.63
337.787	10.73
338.153	10.84
338.52	11
338.886	10.86
339.253	10.87
339.619	10.79
339.986	10.86
340.352	11.01
340.718	11
341.084	10.96
341.451	11.09
341.817	11.15
342.183	11.17
342.549	11.09
342.915	11.21
343.281	11.27
343.647	11.21
344.013	11.22
344.379	11.2
344.745	11.3
345.11	11.39
345.476	11.24
345.842	11.34
346.208	11.3
346.573	11.55
346.939	11.69
347.304	11.74
347.67	11.53
348.035	11.55
348.401	11.61
348.766	11.69
349.132	11.65
349.497	11.56
349.862	11.55
350.228	11.58
350.593	11.44
350.958	11.3
351.323	11.38
351.688	11.46
352.053	11.58
352.418	11.46
352.783	11.47
353.148	11.6
353.513	11.51
353.878	11.44
354.243	11.41
354.608	11.34
354.972	11.31
355.337	11.44
355.702	11.29
356.066	11.22
356.431	11.14
356.795	11.22
357.16	11.18
357.524	11.09
357.889	11.09
358.253	11.2
358.618	11.21
358.982	11.12
359.346	11
359.71	10.83
360.075	10.82
360.439	10.78
360.803	10.71
361.167	10.62
361.531	10.59
361.895	10.47
362.259	10.42
362.623	10.31
362.987	10.28
363.351	10.33
363.714	10.28
364.078	10.25
364.442	10.14
364.806	10.12
365.169	10.14
365.533	10.1
365.896	9.98
366.26	9.97
366.623	9.91
366.987	9.9
367.35	9.91
367.714	9.86
368.077	9.79
368.44	9.63
368.803	9.66
369.167	9.55
369.53	9.5
369.893	9.42
370.256	9.36
370.619	9.27
370.982	9.14
371.345	8.99
371.708	8.93
372.071	8.79
372.434	8.71
372.797	8.65
373.159	8.56
373.522	8.47
373.885	8.39
374.247	8.32
374.61	8.21
374.973	8.11
375.335	8.02
375.698	7.93
376.06	7.96
376.423	7.86
376.785	7.88
377.147	7.86
377.51	7.85
377.872	7.87
378.234	7.79
378.596	7.79
378.958	7.73
379.321	7.71
379.683	7.69
380.045	7.6
380.407	7.47
380.769	7.39
381.13	7.3
381.492	7.2
381.854	7.14
382.216	7.09
382.578	7.07
382.939	6.96
383.301	6.86
383.663	6.71
384.024	6.68
384.386	6.6
384.747	6.53
385.109	6.47
385.47	6.31
385.832	6.24
386.193	6.16
386.554	6.15
386.916	6.07
387.277	6.05
387.638	6
387.999	5.96
388.36	5.93
388.721	5.93
389.082	5.93
389.443	5.9
389.804	5.83
390.165	5.73
390.526	5.69
390.887	5.69
391.248	5.73
391.609	5.7
391.969	5.65
392.33	5.63
392.691	5.6
393.051	5.61
393.412	5.59
393.772	5.53
394.133	5.47
394.493	5.41
394.854	5.34
395.214	5.34
395.574	5.32
395.935	5.28
396.295	5.29
396.655	5.21
397.015	5.14
397.376	5.12
397.736	5.09
398.096	5.09
398.456	5.05
398.816	4.99
399.176	4.9
399.535	4.85
399.895	4.8
400.255	4.75
400.615	4.73
400.975	4.7
401.334	4.7
401.694	4.66
402.054	4.64
402.413	4.59
402.773	4.55
403.132	4.52
403.492	4.44
403.851	4.38
404.211	4.38
404.57	4.33
404.929	4.32
405.288	4.29
405.648	4.26
406.007	4.25
406.366	4.21
406.725	4.24
407.084	4.25
407.443	4.22
407.802	4.2
408.161	4.17
408.52	4.13
408.879	4.12
409.238	4.13
409.596	4.12
409.955	4.12
410.314	4.11
410.673	4.09
411.031	4.1
411.39	4.06
411.748	4.03
412.107	4.06
412.465	4.04
412.824	4.02
413.182	3.99
413.54	3.97
413.899	3.96
414.257	3.91
414.615	3.88
414.974	3.87
415.332	3.86
415.69	3.82
416.048	3.8
416.406	3.77
416.764	3.75
417.122	3.76
417.48	3.74
417.838	3.73
418.195	3.73
418.553	3.72
418.911	3.71
419.269	3.7
419.626	3.68
419.984	3.67
420.342	3.66
420.699	3.65
421.057	3.63
421.414	3.61
421.772	3.61
422.129	3.6
422.486	3.58
422.844	3.57
423.201	3.57
423.558	3.55
423.915	3.55
424.273	3.55
424.63	3.53
424.987	3.51
425.344	3.49
425.701	3.47
426.058	3.44
426.415	3.43
426.772	3.41
427.128	3.41
427.485	3.4
427.842	3.39
428.199	3.39
428.555	3.36
428.912	3.36
429.269	3.36
429.625	3.33
429.982	3.31
430.338	3.31
430.695	3.31
431.051	3.3
431.407	3.29
431.764	3.26
432.12	3.23
432.476	3.25
432.832	3.24
433.189	3.26
433.545	3.27
433.901	3.27
434.257	3.25
434.613	3.26
434.969	3.26
435.325	3.24
435.681	3.24
436.036	3.26
436.392	3.27
436.748	3.26
437.104	3.28
437.459	3.26
437.815	3.26
438.171	3.26
438.526	3.27
438.882	3.27
439.237	3.27
439.593	3.28
439.948	3.28
440.304	3.27
440.659	3.25
441.014	3.26
441.369	3.25
441.725	3.26
442.08	3.24
442.435	3.24
442.79	3.24
443.145	3.24
443.5	3.24
443.855	3.23
444.21	3.21
444.565	3.21
444.92	3.22
445.275	3.2
445.629	3.19
445.984	3.19
446.339	3.17
446.693	3.17
447.048	3.16
447.403	3.16
447.757	3.16
448.112	3.17
448.466	3.15
448.82	3.16
449.175	3.17
449.529	3.17
449.883	3.15
450.238	3.15
450.592	3.16
450.946	3.13
451.3	3.12
451.654	3.15
452.008	3.13
452.362	3.12
452.716	3.14
453.07	3.14
453.424	3.13
453.778	3.16
454.132	3.16
454.486	3.14
454.839	3.14
455.193	3.13
455.547	3.11
455.9	3.11
456.254	3.1
456.607	3.08
456.961	3.07
457.314	3.07
457.668	3.07
458.021	3.06
458.375	3.07
458.728	3.07
459.081	3.05
459.434	3.03
459.787	3.04
460.141	3.03
460.494	3.03
460.847	3.05
461.2	3.04
461.553	3.04
461.906	3.05
462.259	3.07
462.611	3.09
462.964	3.09
463.317	3.09
463.67	3.1
464.022	3.12
464.375	3.12
464.728	3.15
465.08	3.15
465.433	3.17
465.785	3.17
466.138	3.18
466.49	3.19
466.843	3.22
467.195	3.26
467.547	3.29
467.899	3.29
468.252	3.28
468.604	3.3
468.956	3.31
469.308	3.31
469.66	3.3
470.012	3.31
470.364	3.34
470.716	3.35
471.068	3.35
471.42	3.35
471.772	3.39
472.123	3.37
472.475	3.38
472.827	3.39
473.178	3.39
473.53	3.4
473.882	3.39
474.233	3.39
474.585	3.38
474.936	3.37
475.288	3.38
475.639	3.39
475.99	3.38
476.342	3.39
476.693	3.39
477.044	3.42
477.395	3.42
477.746	3.39
478.097	3.39
478.448	3.38
478.8	3.37
479.15	3.35
479.501	3.35
479.852	3.33
480.203	3.32
480.554	3.33
480.905	3.33
481.255	3.34
481.606	3.33
481.957	3.33
482.307	3.32
482.658	3.32
483.009	3.31
483.359	3.31
483.709	3.3
484.06	3.3
484.41	3.29
484.761	3.29
485.111	3.29
485.461	3.29
485.811	3.29
486.162	3.28
486.512	3.29
486.862	3.29
487.212	3.29
487.562	3.29
487.912	3.29
488.262	3.29
488.612	3.28
488.961	3.29
489.311	3.29
489.661	3.29
490.011	3.29
490.36	3.29
490.71	3.3
491.06	3.31
491.409	3.31
491.759	3.32
492.108	3.32
492.458	3.32
492.807	3.31
493.157	3.32
493.506	3.35
493.855	3.36
494.204	3.37
494.554	3.38
494.903	3.39
495.252	3.39
495.601	3.4
495.95	3.4
496.299	3.41
496.648	3.42
496.997	3.45
497.346	3.48
497.695	3.49
498.043	3.51
498.392	3.51
498.741	3.56
499.09	3.56
499.438	3.6
499.787	3.64
500.135	3.69
500.484	3.71
500.832	3.73
501.181	3.77
501.529	3.81
501.878	3.86
502.226	3.89
502.574	3.94
502.923	3.99
503.271	4.05
503.619	4.1
503.967	4.16
504.315	4.2
504.663	4.23
505.011	4.29
505.359	4.33
505.707	4.37
506.055	4.41
506.403	4.47
506.751	4.51
507.098	4.57
507.446	4.61
507.794	4.68
508.141	4.74
508.489	4.79
508.837	4.86
509.184	4.9
509.531	4.95
509.879	5
510.226	5.09
510.574	5.13
510.921	5.17
511.268	5.22
511.616	5.29
511.963	5.37
512.31	5.44
512.657	5.52
513.004	5.61
513.351	5.67
513.698	5.75
514.045	5.84
514.392	5.92
514.739	6
515.086	6.08
515.432	6.15
515.779	6.21
516.126	6.28
516.473	6.37
516.819	6.46
517.166	6.53
517.512	6.59
517.859	6.67
518.205	6.76
518.552	6.83
518.898	6.91
519.245	6.97
519.591	7.04
519.937	7.09
520.283	7.14
520.629	7.23
520.976	7.31
521.322	7.39
521.668	7.45
522.014	7.57
522.36	7.64
522.706	7.75
523.052	7.88
523.398	7.99
523.743	8.09
524.089	8.2
524.435	8.3
524.781	8.4
525.126	8.49
525.472	8.56
525.817	8.63
526.163	8.71
526.509	8.78
526.854	8.86
527.199	8.95
527.545	9.03
527.89	9.09
528.235	9.17
528.581	9.23
528.926	9.31
529.271	9.38
529.616	9.46
529.961	9.54
530.306	9.61
530.651	9.69
530.996	9.78
531.341	9.88
531.686	9.97
532.031	10.08
532.376	10.2
532.721	10.33
533.065	10.45
533.41	10.57
533.755	10.69
534.099	10.81
534.444	10.92
534.788	11.05
535.133	11.18
535.477	11.31
535.822	11.46
536.166	11.61
536.51	11.78
536.855	11.96
537.199	12.13
537.543	12.33
537.887	12.52
538.231	12.71
538.576	12.91
538.92	13.09
539.264	13.28
539.608	13.45
539.951	13.6
540.295	13.78
540.639	13.96
540.983	14.13
541.327	14.27
541.671	14.46
542.014	14.61
542.358	14.8
542.701	14.96
543.045	15.12
543.389	15.3
543.732	15.47
544.075	15.67
544.419	15.85
544.762	16.04
545.105	16.25
545.449	16.45
545.792	16.68
546.135	16.93
546.478	17.21
546.821	17.47
547.165	17.77
547.508	18.04
547.851	18.31
548.194	18.59
548.536	18.91
548.879	19.19
549.222	19.49
549.565	19.8
549.908	20.13
550.25	20.45
550.593	20.77
550.936	21.09
551.278	21.44
551.621	21.78
551.963	22.14
552.306	22.49
552.648	22.86
552.991	23.18
553.333	23.52
553.675	23.87
554.017	24.21
554.36	24.55
554.702	24.83
555.044	25.18
555.386	25.52
555.728	25.86
556.07	26.25
556.412	26.6
556.754	26.92
557.096	27.26
557.438	27.63
557.78	27.97
558.121	28.35
558.463	28.67
558.805	29.04
559.147	29.35
559.488	29.69
559.83	30.04
560.171	30.34
560.513	30.72
560.854	30.96
561.196	31.35
561.537	31.73
561.878	32.1
562.22	32.39
562.561	32.67
562.902	33.03
563.243	33.34
563.584	33.67
563.925	34.02
564.266	34.29
564.607	34.61
564.948	34.94
565.289	35.22
565.63	35.51
565.971	35.8
566.312	36.12
566.653	36.41
566.993	36.66
567.334	36.98
567.675	37.23
568.015	37.53
568.356	37.74
568.696	38.02
569.037	38.29
569.377	38.6
569.718	38.97
570.058	39.23
570.398	39.48
570.739	39.76
571.079	39.99
571.419	40.27
571.759	40.55
572.099	40.79
572.439	41.02
572.779	41.24
573.119	41.49
573.459	41.71
573.799	41.98
574.139	42.19
574.479	42.45
574.819	42.72
575.158	42.98
575.498	43.23
575.838	43.41
576.177	43.64
576.517	43.87
576.856	44.07
577.196	44.29
577.535	44.49
577.875	44.7
578.214	44.98
578.553	45.3
578.893	45.49
579.232	45.7
579.571	45.94
579.91	46.23
580.25	46.45
580.589	46.67
580.928	46.87
581.267	47.11
581.606	47.28
581.945	47.41
582.283	47.58
582.622	47.78
582.961	47.99
583.3	48.22
583.639	48.32
583.977	48.48
584.316	48.68
584.654	48.88
584.993	49.07
585.332	49.14
585.67	49.22
586.008	49.4
586.347	49.57
586.685	49.73
587.024	49.83
587.362	49.89
587.7	50.05
588.038	50.14
588.376	50.26
588.715	50.43
589.053	50.59
589.391	50.73
589.729	50.8
590.067	50.94
590.404	51.02
590.742	51.18
591.08	51.25
591.418	51.38
591.756	51.5
592.093	51.59
592.431	51.82
592.769	51.98
593.106	52.07
593.444	52.19
593.781	52.3
594.119	52.43
594.456	52.68
594.793	52.78
595.131	52.89
595.468	53.05
595.805	53.1
596.143	53.25
596.48	53.32
596.817	53.46
597.154	53.54
597.491	53.57
597.828	53.67
598.165	53.8
598.502	53.88
598.839	53.94
599.176	54.04
599.512	54.11
599.849	54.22
600.186	54.37
600.523	54.45
600.859	54.64
601.196	54.84
601.532	54.88
601.869	54.87
602.205	54.91
602.542	55
602.878	55.08
603.215	55.11
603.551	55.11
603.887	55.16
604.223	55.25
604.56	55.42
604.896	55.46
605.232	55.49
605.568	55.52
605.904	55.64
606.24	55.77
606.576	55.79
606.912	55.83
607.248	55.84
607.583	55.96
607.919	55.93
608.255	55.81
608.591	55.86
608.926	55.88
609.262	56.02
609.597	56.07
609.933	56.08
610.268	56.14
610.604	56.26
610.939	56.29
611.275	56.26
611.61	56.23
611.945	56.33
612.281	56.41
612.616	56.52
612.951	56.47
613.286	56.45
613.621	56.57
613.956	56.62
614.291	56.73
614.626	56.65
614.961	56.74
615.296	56.79
615.631	56.81
615.966	57.02
616.3	57.06
616.635	57.04
616.97	57.13
617.304	57.18
617.639	57.3
617.973	57.34
618.308	57.53
618.642	57.61
618.977	57.6
619.311	57.61
619.646	57.66
619.98	57.76
620.314	57.78
620.648	57.81
620.983	57.77
621.317	57.71
621.651	57.82
621.985	57.82
622.319	57.97
622.653	58.12
622.987	58.21
623.321	58.29
623.655	58.37
623.988	58.44
624.322	58.5
624.656	58.55
624.99	58.53
625.323	58.37
625.657	58.42
625.99	58.44
626.324	58.45
626.657	58.48
626.991	58.61
627.324	58.72
627.658	58.6
627.991	58.7
628.324	58.81
628.657	58.82
628.991	58.91
629.324	58.89
629.657	58.82
629.99	58.77
630.323	58.72
630.656	58.78
630.989	58.76
631.322	58.68
631.655	58.76
631.987	58.8
632.32	58.93
632.653	58.84
632.986	58.83
633.318	59
633.651	59.06
633.984	59.01
634.316	59
634.649	59.21
634.981	59.18
635.313	59.12
635.646	59.19
635.978	59.22
636.31	59.26
636.643	59.32
636.975	59.41
637.307	59.45
637.639	59.41
637.971	59.42
638.303	59.5
638.635	59.41
638.967	59.55
639.299	59.65
639.631	59.67
639.963	59.73
640.295	59.7
640.626	59.64
640.958	59.73
641.29	59.69
641.621	59.71
641.953	59.75
642.285	59.83
642.616	59.8
642.948	59.8
643.279	59.87
643.61	59.9
643.942	59.86
644.273	59.94
644.604	60.01
644.936	60.13
645.267	60.19
645.598	60.21
645.929	60.24
646.26	60.12
646.591	60.3
646.922	60.39
647.253	60.33
647.584	60.36
647.915	60.32
648.245	60.36
648.576	60.46
648.907	60.51
649.238	60.52
649.568	60.57
649.899	60.52
650.229	60.64
650.56	60.66
650.89	60.66
651.221	60.56
651.551	60.56
651.882	60.53
652.212	60.53
652.542	60.59
652.872	60.62
653.203	60.75
653.533	60.77
653.863	60.78
654.193	60.74
654.523	60.76
654.853	60.81
655.183	60.94
655.513	60.9
655.843	60.97
656.172	61
656.502	61.12
656.832	61.18
657.162	61.17
657.491	61.14
657.821	61.14
658.15	61.15
658.48	61.07
658.809	61.1
659.139	61.11
659.468	61.16
659.798	61.2
660.127	61.17
660.456	61.14
660.785	61.1
661.115	61.13
661.444	61.18
661.773	61.15
662.102	61.09
662.431	61.17
662.76	61.11
663.089	61.21
663.418	61.14
663.747	61.04
664.076	61.04
664.404	60.93
664.733	60.96
665.062	61.07
665.39	61.18
665.719	61.11
666.048	61.03
666.376	60.89
666.705	60.79
667.033	60.86
667.362	60.84
667.69	60.86
668.018	60.9
668.347	60.91
668.675	61.03
669.003	61.1
669.331	61.02
669.659	60.99
669.987	60.83
670.315	60.73
670.643	60.88
670.971	60.89
671.299	61.04
671.627	60.96
671.955	60.98
672.283	60.84
672.61	60.95
672.938	60.94
673.266	61.07
673.593	61.12
673.921	61.11
674.249	60.97
674.576	60.98
674.904	60.91
675.231	60.77
675.558	60.61
675.886	60.6
676.213	60.61
676.54	60.67
676.867	60.72
677.195	60.8
677.522	60.78
677.849	60.81
678.176	60.79
678.503	60.85
678.83	60.9
679.157	61.03
679.484	60.92
679.81	61.09
680.137	61.07
680.464	61.02
680.791	60.97
681.117	61.16
681.444	61.07
681.771	61.17
682.097	61.32
682.424	61.38
682.75	61.4
683.077	61.3
683.403	61.3
683.729	61.27
684.056	61.3
684.382	61.35
684.708	61.28
685.034	61.23
685.36	61.17
685.686	61.03
686.012	60.94
686.339	61.15
686.664	61.07
686.99	61.06
687.316	61.04
687.642	61.22
687.968	61.29
688.294	61.35
688.619	61.35
688.945	61.2
689.271	61.22
689.596	61.03
689.922	61.11
690.247	61.14
690.573	61.26
690.898	61.24
691.224	61.06
691.549	61.04
691.874	61.23
692.2	61.36
692.525	61.42
692.85	61.46
693.175	61.32
693.5	61.22
693.825	61.18
694.15	61.13
694.475	60.84
694.8	60.65
695.125	60.73
695.45	60.73
695.775	60.85
696.099	60.75
696.424	60.87
696.749	60.9
697.073	61
697.398	60.98
697.723	60.95
698.047	61.19
698.372	61.09
698.696	61.01
699.02	60.96
699.345	61.05
699.669	61.15
699.993	61.16
700.318	61.19
700.642	61.02
700.966	61.1
701.29	61.18
701.614	61.27
701.938	61.24
702.262	61.41
702.586	61.38
702.91	61.53
703.234	61.69
703.557	61.69
703.881	61.63
704.205	61.63
704.529	61.74
704.852	61.49
705.176	61.6
705.499	61.65
705.823	61.74
706.146	61.52
706.47	61.29
706.793	61.21
707.117	61.08
707.44	61.5
707.763	61.45
708.086	61.58
708.409	61.57
708.733	61.62
709.056	61.43
709.379	61.58
709.702	61.56
710.025	61.47
710.348	61.35
710.671	61.25
710.993	61.15
711.316	61.12
711.639	61.37
711.962	61.47
712.284	61.42
712.607	61.36
712.93	61.39
713.252	61.52
713.575	61.6
713.897	61.7
714.22	61.49
714.542	61.59
714.864	61.33
715.187	61.37
715.509	61.34
715.831	61.42
716.153	61.39
716.475	61.26
716.798	61.29
717.12	61.55
717.442	61.56
717.764	61.74
718.085	61.49
718.407	61.21
718.729	61.27
719.051	61.35
719.373	61.41
719.695	61.27
720.016	61.34
720.338	61.37
720.659	61.57
720.981	61.56
721.302	61.55
721.624	61.76
721.945	61.56
722.267	61.52
722.588	61.61
722.909	61.61
723.231	61.73
723.552	61.62
723.873	61.39
724.194	61.59
724.515	61.52
724.836	61.79
725.157	62.03
725.478	62.04
725.799	62.1
726.12	61.93
726.441	62.21
726.762	61.84
727.083	61.99
727.403	61.81
727.724	62.01
728.045	62.09
728.365	62.19
728.686	62.4
729.006	62.58
729.327	62.32
729.647	62.2
729.967	62.15
730.288	62.18
730.608	62.19
730.928	62.02
731.249	61.93
731.569	61.97
731.889	61.92
732.209	61.77
732.529	61.67
732.849	61.83
733.169	61.96
733.489	62.13
733.809	62.01
734.129	62.03
734.448	62.01
734.768	62.13
735.088	62.19
735.408	62.16
735.727	62.18
736.047	62.17
736.366	62.42
736.686	62.44
737.005	62.3
737.325	62.61
737.644	62.47
737.963	62.68
738.283	62.42
738.602	62.49
738.921	62.47
739.24	62.42
739.56	62.36
739.879	62.26
740.198	62.42
740.517	62.24
740.836	62.46
741.155	62.54
741.473	62.54
741.792	62.44
742.111	62.6
742.43	62.48
742.748	62.55
743.067	62.22
743.386	62.22
743.704	62.3
744.023	62.07
744.341	62.36
744.66	62.44
744.978	62.63
745.297	62.49
745.615	62.81
745.933	62.9
746.252	63.25
746.57	63.23
746.888	63.46
747.206	63.78
747.524	63.85
747.842	63.87
748.16	63.68
748.478	63.69
748.796	63.17
749.114	63.2
749.432	63.35
749.749	63.35
750.067	63.1
750.385	63.3
750.703	63.33
751.02	63.2
751.338	63.04
751.655	63.24
751.973	63.35
752.29	63.22
752.608	62.95
752.925	62.79
753.242	62.75
753.56	62.53
753.877	62.27
754.194	62.06
754.511	61.88
754.828	61.75
755.145	61.61
755.462	62
755.779	62.07
756.096	62.3
756.413	62.58
756.73	63.26
757.047	63.19
757.364	63.16
757.68	63.66
757.997	63.58
758.314	63.5
758.63	63.43
758.947	63.21
759.264	63.29
759.58	63.16
759.896	63.36
760.213	63.34
760.529	63.43
760.846	63.22
761.162	63.04
761.478	63
761.794	63.21
762.11	63.07
762.426	62.92
762.743	62.93
763.059	62.84
763.375	62.59
763.69	62.55
764.006	62.43
764.322	61.98
764.638	62.06
764.954	62.03
765.27	61.74
765.585	61.96
765.901	62.26
766.216	62.45
766.532	62.29
766.848	62.4
767.163	62.4
767.478	62.44
767.794	62.82
768.109	62.77
768.424	62.97
768.74	63.11
769.055	63.44
769.37	62.98
769.685	62.77
770	62.73
770.315	62.68
770.63	62.76
770.945	63.03
771.26	63.11
771.575	63.14
771.89	63.74
772.205	63.73
772.52	63.8
772.834	63.72
773.149	63.89
773.464	63.55
773.778	63.38
774.093	63.5
774.407	62.99
774.722	63.3
775.036	63.2
775.351	63.11
775.665	63.11
775.979	63.23
776.293	63.69
776.608	63.74
776.922	63.87
777.236	64.3
777.55	64.2
777.864	64.25
778.178	64.49
778.492	64.73
778.806	64.21
779.12	64.04
779.434	64.02
779.747	63.96
780.061	64.37
780.375	64.52
780.689	64.73
781.002	65.28
781.316	65.44
781.629	65.18
781.943	65.58
782.256	65.3
782.57	65.45
782.883	64.93
783.196	65.4
783.51	64.89
783.823	64.9
784.136	65.21
784.449	65.34
784.762	65.14
785.075	64.77
785.388	65.2
785.701	65.58
786.014	65.22
786.327	65.42
786.64	65.19
786.953	65.23
787.266	65
787.578	64.08
787.891	64.09
788.204	63.84
788.516	63.42
788.829	63.7
789.141	64.13
789.454	64.31
789.766	63.95
790.079	64.47
790.391	64.09
790.703	63.99
791.016	63.73
791.328	63.43
791.64	63.91
791.952	63.61
792.264	62.65
792.576	62.75
792.888	62.08
793.2	62.27
793.512	62.22
793.824	62.89
794.136	63.56
794.448	63.33
794.76	63.86
795.071	64.02
795.383	63.9
795.695	63.82
796.006	64.14
796.318	63.84
796.629	63.9
796.941	63.99
797.252	63.59
797.564	63.47
797.875	64.1
798.186	63.74
798.497	63.95
798.809	64.68
799.12	64.66
799.431	65.25
799.742	64.92
800.053	64.96
800.364	64.5
800.675	64.95
800.986	65.11
801.297	64.97
801.608	65.2
801.918	65.13
802.229	64.94
802.54	64.23
802.851	64.48
803.161	64.81
803.472	65.09
803.782	65.23
804.093	65.17
804.403	65.1
804.714	64.47
805.024	64.58
805.334	64.08
805.645	64.26
805.955	64.04
806.265	64.14
806.575	64.04
806.885	64.4
807.195	64.03
807.505	63.79
807.815	63.16
808.125	62.47
808.435	62.18
808.745	61.92
809.055	62.95
809.365	63.23
809.674	62.92
809.984	62.44
810.294	62.3
810.603	63.24
810.913	63.01
811.222	63.43
811.532	63.95
811.841	64.58
812.151	64.8
812.46	64.69
812.769	64.49
813.079	64.78
813.388	63.77
813.697	63.29
814.006	63.06
814.315	63.75
814.624	63.91
814.933	64.33
815.242	64.6
815.551	64.53
815.86	64.16
816.169	64.09
816.478	63.67
816.786	64.04
817.095	63.41
817.404	63.35
817.712	63.07
818.021	62.55
818.33	62.7
818.638	62.12
818.947	62.1
819.255	62.23
819.563	62.22
819.872	62.49
820.18	63.07
820.488	63.01
820.796	62.72
821.105	62.55
821.413	62.55
821.721	62.81
822.029	62.97
822.337	63.04
822.645	63.03
822.953	63.27
823.26	63.39
823.568	63.3
823.876	63.46
824.184	63.2
824.491	63.16
824.799	63.18
825.107	63.19
825.414	63.24
825.722	63.49
826.029	63.75
826.337	63.91
826.644	63.87
826.951	64.15
827.259	64.27
827.566	64.67
827.873	64.71
828.18	64.62
828.488	64.29
828.795	64.41
829.102	64.45
829.409	64.62
829.716	64.5
830.023	64.54
830.329	64.35
830.636	65.52
830.943	65.76
831.25	65.09
831.557	65.35
831.863	65.62
832.17	65.19
832.476	64.73
832.783	64.59
833.089	64.41
833.396	64.38
833.702	64.53
834.009	63.89
834.315	63.85
834.621	63.81
834.928	63.99
835.234	63.42
835.54	63.4
835.846	63.26
836.152	63.66
836.458	64.09
836.764	63.71
837.07	62.72
837.376	62.65
837.682	63.23
837.988	63.59
838.293	63.33
838.599	63.52
838.905	63.31
839.211	62.97
839.516	62.96
839.822	62.89
840.127	63.18
840.433	64.51
840.738	64.84
841.044	64.21
841.349	64.2
841.654	64.87
841.959	65.91
842.265	65.95
842.57	65.08
842.875	65.3
843.18	65.82
843.485	66.61
843.79	67.02
844.095	68.13
844.4	68.15
844.705	68.89
845.01	68.94
845.315	69.65
845.619	70.48
845.924	69.94
846.229	69.86
846.533	69.68
846.838	67.06
847.142	67.64
847.447	68.92
847.751	69.34
848.056	69.13
848.36	67.63
848.664	68.41
848.969	68.95
849.273	67.52
849.577	69.11
849.881	70.59
850.185	68.48
850.489	68.31
850.794	68.51
851.097	69.17
851.401	69.63
851.705	69.37
852.009	68.93
852.313	68.99
852.617	68.87
852.92	69.93
853.224	70.77
853.528	69.76
853.831	70.14
854.135	70.95
854.438	71.94
854.742	71.58
855.045	69.83
855.349	70.06
855.652	73.07
855.955	71.34
856.259	70.53
856.562	73.36
856.865	72.91
857.168	72.16
857.471	70.89
857.774	71.09
858.077	70.74
858.38	70.88
858.683	71.71
858.986	71.21
859.289	72
859.592	72.86
859.894	73.11
860.197	71.06
860.5	68.54
860.802	70.06
861.105	69.47
861.407	69.35
861.71	69.51
862.012	67.23
862.315	69.86
862.617	70.16
862.919	70.58
863.222	68.48
863.524	67.43
863.826	69.56
864.128	69.13
864.43	68.71
864.732	68.22
865.034	68.14
865.336	70.98
865.638	69.54
865.94	70.03
866.242	71
866.544	72.53
866.846	74.3
867.147	73.46
867.449	73.62
867.751	73.79
868.052	72.5
868.354	73.86
868.655	70.01
868.957	69.28
869.258	66.49
869.56	68.32
869.861	69.33
870.162	69.69
870.463	69.7
870.765	71.99
871.066	72.38
871.367	72.13
871.668	69.88
871.969	70.64
872.27	70.69
872.571	71.43
872.872	72.09
873.173	71.64
873.473	73.06
873.774	72.76
874.075	74.65
874.376	75.15
874.676	74.37
874.977	74.97
875.277	74.96
875.578	79.42
875.878	79.59
876.179	79.88
876.479	77.03
876.78	77.92
877.08	77.09
877.38	78.1
877.68	79.48
877.981	80.29
878.281	78.64
878.581	80.44
