Data from BU58127_Reflection_00003.txt Node
Date: Mon Nov 18 16:44:05 EST 2019
User: vgr7
Spectrometer: USB2G7710
Scans to average: 3
Trigger mode: 4
Integration Time (sec): 2.000000E-2
Electric dark correction enabled: true
Boxcar width: 10
XAxis mode: Wavelengths
Number of Pixels in Spectrum: 2048
>>>>>Begin Spectral Data<<<<<
177.721	-1991.79
178.105	-214.55
178.488	-62
178.871	-105.31
179.254	7.27
179.636	-490.28
180.019	12.64
180.402	205
180.785	-358.94
181.168	-1492.59
181.55	1798.41
181.933	181.28
182.316	156.05
182.698	303.64
183.081	308.74
183.463	360.94
183.846	542.68
184.228	907.77
184.611	605.19
184.993	3726.26
185.376	1261.17
185.758	-8335.9
186.14	829.85
186.522	523.12
186.904	378.8
187.287	699.49
187.669	-3845.74
188.051	1253.21
188.433	22507.41
188.815	-921.51
189.197	-1676.76
189.579	-440.93
189.961	-312.11
190.342	-356.25
190.724	-350.66
191.106	-314.78
191.488	-357.4
191.869	-268.31
192.251	-245.61
192.633	-181.93
193.014	-188.55
193.396	-247.2
193.777	-335.13
194.159	-337.46
194.54	-219.46
194.922	-181.72
195.303	-182.97
195.684	-211.03
196.065	-128.73
196.447	-114.19
196.828	-147.11
197.209	-129.03
197.59	-137.6
197.971	-154.87
198.352	-115.52
198.733	-134.95
199.114	-102
199.495	-74.91
199.876	-69.37
200.257	-63.82
200.638	-53.83
201.018	-64.74
201.399	-59.52
201.78	-55.02
202.16	-63.84
202.541	-79.13
202.922	-95.76
203.302	-98.74
203.683	-100.62
204.063	-113.31
204.444	-107.19
204.824	-106.27
205.204	-114.45
205.585	-120.51
205.965	-118.79
206.345	-133.39
206.725	-122.28
207.106	-145.98
207.486	-175.6
207.866	-180.13
208.246	-179.45
208.626	-205.62
209.006	-192
209.386	-188.73
209.766	-216.52
210.145	-195
210.525	-139.45
210.905	-118.6
211.285	-111.91
211.664	-120.81
212.044	-121.14
212.424	-136.12
212.803	-135.4
213.183	-132.73
213.562	-136.34
213.942	-118.23
214.321	-112.83
214.701	-111.95
215.08	-123.93
215.459	-125.46
215.838	-115.3
216.218	-152.13
216.597	-112.77
216.976	-101.23
217.355	-103.25
217.734	-66.57
218.113	-81.39
218.492	-90.12
218.871	-109.7
219.25	-107.98
219.629	-100.37
220.008	-99.7
220.387	-77.92
220.766	-64.05
221.144	-59.88
221.523	-66.91
221.902	-66.76
222.28	-76.52
222.659	-77.31
223.037	-55.41
223.416	-63.46
223.794	-67.9
224.173	-45.87
224.551	-42.89
224.929	-45.65
225.308	-38.9
225.686	-47.82
226.064	-34.36
226.442	-37.8
226.821	-31.66
227.199	-25.89
227.577	-25.67
227.955	-23.16
228.333	-28.17
228.711	-26.91
229.089	-22.94
229.467	-18.89
229.845	-18.15
230.222	-15.1
230.6	-12.69
230.978	-13.59
231.356	-8.45
231.733	-5.75
232.111	-5.1
232.488	-6.11
232.866	-4.77
233.243	-4.94
233.621	-2.65
233.998	-3.31
234.376	-1.81
234.753	0.27
235.13	0.12
235.508	3.32
235.885	4.09
236.262	4.79
236.639	4.6
237.016	3.89
237.393	2.72
237.77	2.34
238.147	2.18
238.524	0.81
238.901	1.25
239.278	1.42
239.655	1.05
240.032	1.26
240.409	1.42
240.785	1.91
241.162	2.36
241.539	2
241.915	1.98
242.292	1.54
242.668	1.17
243.045	1.47
243.421	1.24
243.798	1.16
244.174	1.24
244.551	1.51
244.927	1.51
245.303	2.13
245.679	2.31
246.056	2.2
246.432	2.4
246.808	2.15
247.184	1.67
247.56	1.55
247.936	1.33
248.312	1.33
248.688	1.02
249.064	0.84
249.44	0.94
249.815	1.02
250.191	1.25
250.567	1.29
250.943	1.11
251.318	1.02
251.694	1.2
252.069	1.25
252.445	1.23
252.82	1.21
253.196	0.52
253.571	0.29
253.947	0.43
254.322	0.63
254.697	1.05
255.073	1.2
255.448	1.34
255.823	1.7
256.198	1.79
256.573	2.31
256.948	2.61
257.323	2.67
257.698	2.51
258.073	2.68
258.448	2.66
258.823	2.76
259.198	2.57
259.573	2.48
259.948	2.4
260.322	2.26
260.697	2.26
261.072	2.36
261.446	2.39
261.821	2.32
262.195	2.34
262.57	2.24
262.944	2.26
263.319	2.21
263.693	2.07
264.067	2.08
264.442	2.19
264.816	1.85
265.19	1.8
265.564	1.97
265.938	1.71
266.313	1.72
266.687	1.58
267.061	1.81
267.435	1.84
267.809	2.03
268.183	2.06
268.556	2.03
268.93	2.24
269.304	2.42
269.678	2.54
270.051	2.53
270.425	2.5
270.799	2.45
271.172	2.56
271.546	2.47
271.919	2.46
272.293	2.21
272.666	2.51
273.04	2.66
273.413	2.39
273.787	2.24
274.16	2.18
274.533	2.25
274.906	2.16
275.279	2.18
275.653	2.05
276.026	2.08
276.399	2.02
276.772	2.02
277.145	1.82
277.518	1.86
277.891	1.78
278.263	1.83
278.636	2.08
279.009	1.97
279.382	2.22
279.755	2.26
280.127	2.42
280.5	2.35
280.872	2.23
281.245	2.34
281.617	2.69
281.99	2.77
282.362	2.75
282.735	2.66
283.107	2.55
283.479	2.52
283.852	2.53
284.224	2.54
284.596	2.42
284.968	2.44
285.34	2.44
285.713	2.47
286.085	2.41
286.457	2.34
286.829	2.45
287.201	2.37
287.572	2.24
287.944	2.19
288.316	2.06
288.688	2.01
289.06	2.01
289.431	1.97
289.803	1.87
290.175	1.98
290.546	2.2
290.918	2.26
291.289	2.35
291.661	2.35
292.032	2.41
292.403	2.44
292.775	2.48
293.146	2.38
293.517	2.26
293.889	2.45
294.26	2.46
294.631	2.38
295.002	2.38
295.373	2.47
295.744	2.44
296.115	2.45
296.486	2.48
296.857	2.61
297.228	2.64
297.599	2.65
297.97	2.54
298.34	2.51
298.711	2.51
299.082	2.35
299.452	2.38
299.823	2.45
300.194	2.4
300.564	2.33
300.935	2.34
301.305	2.36
301.676	2.28
302.046	2.26
302.416	2.45
302.787	2.46
303.157	2.35
303.527	2.28
303.897	2.34
304.267	2.44
304.637	2.35
305.008	2.25
305.378	2.43
305.748	2.54
306.117	2.41
306.487	2.42
306.857	2.51
307.227	2.47
307.597	2.47
307.967	2.55
308.336	2.68
308.706	2.6
309.076	2.69
309.445	2.66
309.815	2.56
310.184	2.43
310.554	2.47
310.923	2.57
311.293	2.56
311.662	2.61
312.031	2.46
312.401	2.54
312.77	2.59
313.139	2.49
313.508	2.38
313.877	2.37
314.246	2.29
314.616	2.38
314.985	2.4
315.353	2.18
315.722	2.11
316.091	2.1
316.46	2.06
316.829	2.04
317.198	1.97
317.567	2.03
317.935	1.92
318.304	1.87
318.672	1.79
319.041	1.78
319.41	1.9
319.778	1.95
320.147	1.88
320.515	1.79
320.883	1.68
321.252	1.78
321.62	1.85
321.988	2.04
322.357	1.95
322.725	1.95
323.093	2.2
323.461	2.23
323.829	2.08
324.197	2.24
324.565	2.25
324.933	2.15
325.301	2.13
325.669	2.17
326.037	2.11
326.405	2.19
326.772	2.32
327.14	2.2
327.508	2.26
327.875	2.2
328.243	2.25
328.61	2.27
328.978	2.22
329.346	2.3
329.713	2.24
330.08	2.3
330.448	2.21
330.815	2.1
331.182	2.1
331.55	2.1
331.917	2.11
332.284	2.16
332.651	2.32
333.018	2.39
333.385	2.39
333.752	2.46
334.119	2.44
334.486	2.35
334.853	2.29
335.22	2.23
335.587	2.32
335.954	2.22
336.32	2.26
336.687	2.33
337.054	2.25
337.42	2.14
337.787	2.2
338.153	2.27
338.52	2.29
338.886	2.2
339.253	2.22
339.619	2.19
339.986	2.25
340.352	2.35
340.718	2.31
341.084	2.41
341.451	2.44
341.817	2.52
342.183	2.56
342.549	2.64
342.915	2.68
343.281	2.59
343.647	2.68
344.013	2.61
344.379	2.43
344.745	2.5
345.11	2.58
345.476	2.53
345.842	2.54
346.208	2.54
346.573	2.57
346.939	2.69
347.304	2.67
347.67	2.56
348.035	2.4
348.401	2.34
348.766	2.32
349.132	2.3
349.497	2.2
349.862	2.27
350.228	2.31
350.593	2.26
350.958	2.31
351.323	2.38
351.688	2.48
352.053	2.69
352.418	2.63
352.783	2.64
353.148	2.65
353.513	2.69
353.878	2.68
354.243	2.81
354.608	2.71
354.972	2.83
355.337	2.88
355.702	2.99
356.066	3.12
356.431	3.09
356.795	3.08
357.16	3.03
357.524	2.98
357.889	2.97
358.253	3.02
358.618	3
358.982	2.89
359.346	2.79
359.71	2.74
360.075	2.79
360.439	2.82
360.803	2.77
361.167	2.7
361.531	2.72
361.895	2.66
362.259	2.65
362.623	2.6
362.987	2.64
363.351	2.56
363.714	2.56
364.078	2.5
364.442	2.48
364.806	2.58
365.169	2.58
365.533	2.54
365.896	2.53
366.26	2.55
366.623	2.55
366.987	2.63
367.35	2.62
367.714	2.59
368.077	2.49
368.44	2.46
368.803	2.47
369.167	2.46
369.53	2.4
369.893	2.48
370.256	2.47
370.619	2.43
370.982	2.43
371.345	2.37
371.708	2.43
372.071	2.43
372.434	2.37
372.797	2.31
373.159	2.29
373.522	2.31
373.885	2.3
374.247	2.28
374.61	2.29
374.973	2.29
375.335	2.28
375.698	2.35
376.06	2.37
376.423	2.42
376.785	2.45
377.147	2.51
377.51	2.51
377.872	2.56
378.234	2.56
378.596	2.64
378.958	2.64
379.321	2.68
379.683	2.7
380.045	2.72
380.407	2.79
380.769	2.74
381.13	2.72
381.492	2.7
381.854	2.78
382.216	2.77
382.578	2.8
382.939	2.81
383.301	2.81
383.663	2.78
384.024	2.72
384.386	2.75
384.747	2.76
385.109	2.72
385.47	2.72
385.832	2.68
386.193	2.65
386.554	2.65
386.916	2.6
387.277	2.62
387.638	2.59
387.999	2.56
388.36	2.6
388.721	2.62
389.082	2.61
389.443	2.57
389.804	2.53
390.165	2.51
390.526	2.53
390.887	2.49
391.248	2.54
391.609	2.57
391.969	2.54
392.33	2.53
392.691	2.54
393.051	2.5
393.412	2.55
393.772	2.57
394.133	2.58
394.493	2.6
394.854	2.59
395.214	2.61
395.574	2.62
395.935	2.58
396.295	2.61
396.655	2.62
397.015	2.62
397.376	2.66
397.736	2.62
398.096	2.61
398.456	2.65
398.816	2.66
399.176	2.63
399.535	2.62
399.895	2.61
400.255	2.62
400.615	2.62
400.975	2.62
401.334	2.59
401.694	2.57
402.054	2.57
402.413	2.59
402.773	2.55
403.132	2.55
403.492	2.55
403.851	2.51
404.211	2.54
404.57	2.55
404.929	2.57
405.288	2.63
405.648	2.64
406.007	2.61
406.366	2.6
406.725	2.64
407.084	2.65
407.443	2.63
407.802	2.62
408.161	2.62
408.52	2.58
408.879	2.58
409.238	2.59
409.596	2.58
409.955	2.58
410.314	2.62
410.673	2.6
411.031	2.61
411.39	2.61
411.748	2.6
412.107	2.59
412.465	2.6
412.824	2.56
413.182	2.53
413.54	2.58
413.899	2.58
414.257	2.6
414.615	2.58
414.974	2.62
415.332	2.63
415.69	2.65
416.048	2.66
416.406	2.68
416.764	2.69
417.122	2.72
417.48	2.7
417.838	2.71
418.195	2.75
418.553	2.76
418.911	2.76
419.269	2.77
419.626	2.77
419.984	2.75
420.342	2.76
420.699	2.77
421.057	2.77
421.414	2.76
421.772	2.76
422.129	2.79
422.486	2.77
422.844	2.76
423.201	2.75
423.558	2.76
423.915	2.75
424.273	2.75
424.63	2.73
424.987	2.75
425.344	2.73
425.701	2.72
426.058	2.72
426.415	2.72
426.772	2.71
427.128	2.72
427.485	2.72
427.842	2.72
428.199	2.73
428.555	2.71
428.912	2.71
429.269	2.71
429.625	2.69
429.982	2.69
430.338	2.68
430.695	2.67
431.051	2.65
431.407	2.66
431.764	2.66
432.12	2.66
432.476	2.64
432.832	2.64
433.189	2.65
433.545	2.63
433.901	2.62
434.257	2.62
434.613	2.63
434.969	2.64
435.325	2.65
435.681	2.64
436.036	2.64
436.392	2.63
436.748	2.63
437.104	2.64
437.459	2.65
437.815	2.65
438.171	2.66
438.526	2.69
438.882	2.71
439.237	2.72
439.593	2.73
439.948	2.74
440.304	2.75
440.659	2.76
441.014	2.78
441.369	2.78
441.725	2.79
442.08	2.77
442.435	2.77
442.79	2.77
443.145	2.76
443.5	2.76
443.855	2.77
444.21	2.76
444.565	2.77
444.92	2.78
445.275	2.79
445.629	2.8
445.984	2.8
446.339	2.77
446.693	2.76
447.048	2.75
447.403	2.74
447.757	2.73
448.112	2.72
448.466	2.72
448.82	2.72
449.175	2.71
449.529	2.72
449.883	2.71
450.238	2.72
450.592	2.75
450.946	2.76
451.3	2.75
451.654	2.75
452.008	2.74
452.362	2.72
452.716	2.71
453.07	2.71
453.424	2.7
453.778	2.71
454.132	2.68
454.486	2.68
454.839	2.69
455.193	2.69
455.547	2.7
455.9	2.7
456.254	2.72
456.607	2.71
456.961	2.71
457.314	2.72
457.668	2.72
458.021	2.71
458.375	2.71
458.728	2.69
459.081	2.71
459.434	2.69
459.787	2.72
460.141	2.73
460.494	2.72
460.847	2.73
461.2	2.74
461.553	2.78
461.906	2.79
462.259	2.8
462.611	2.8
462.964	2.81
463.317	2.82
463.67	2.82
464.022	2.82
464.375	2.82
464.728	2.81
465.08	2.81
465.433	2.8
465.785	2.8
466.138	2.83
466.49	2.82
466.843	2.83
467.195	2.82
467.547	2.83
467.899	2.82
468.252	2.82
468.604	2.8
468.956	2.79
469.308	2.79
469.66	2.77
470.012	2.79
470.364	2.77
470.716	2.74
471.068	2.74
471.42	2.75
471.772	2.76
472.123	2.77
472.475	2.78
472.827	2.79
473.178	2.79
473.53	2.79
473.882	2.79
474.233	2.79
474.585	2.78
474.936	2.75
475.288	2.77
475.639	2.78
475.99	2.79
476.342	2.76
476.693	2.78
477.044	2.8
477.395	2.8
477.746	2.81
478.097	2.82
478.448	2.83
478.8	2.83
479.15	2.83
479.501	2.82
479.852	2.82
480.203	2.82
480.554	2.82
480.905	2.82
481.255	2.82
481.606	2.84
481.957	2.86
482.307	2.87
482.658	2.87
483.009	2.86
483.359	2.87
483.709	2.87
484.06	2.87
484.41	2.87
484.761	2.87
485.111	2.87
485.461	2.88
485.811	2.87
486.162	2.87
486.512	2.88
486.862	2.89
487.212	2.88
487.562	2.88
487.912	2.88
488.262	2.89
488.612	2.89
488.961	2.88
489.311	2.88
489.661	2.87
490.011	2.86
490.36	2.87
490.71	2.87
491.06	2.88
491.409	2.88
491.759	2.87
492.108	2.88
492.458	2.88
492.807	2.89
493.157	2.89
493.506	2.9
493.855	2.89
494.204	2.89
494.554	2.89
494.903	2.89
495.252	2.89
495.601	2.89
495.95	2.9
496.299	2.89
496.648	2.88
496.997	2.88
497.346	2.9
497.695	2.91
498.043	2.9
498.392	2.89
498.741	2.9
499.09	2.9
499.438	2.9
499.787	2.89
500.135	2.88
500.484	2.87
500.832	2.88
501.181	2.89
501.529	2.89
501.878	2.92
502.226	2.95
502.574	2.96
502.923	2.95
503.271	2.96
503.619	3
503.967	2.99
504.315	2.99
504.663	2.99
505.011	2.99
505.359	3
505.707	3.02
506.055	3.02
506.403	3.02
506.751	3.02
507.098	3.01
507.446	3.02
507.794	3.03
508.141	3.02
508.489	3.01
508.837	3.01
509.184	3.02
509.531	3.01
509.879	3.03
510.226	3.03
510.574	3.01
510.921	3
511.268	3
511.616	3
511.963	2.99
512.31	2.98
512.657	2.98
513.004	2.96
513.351	2.96
513.698	2.96
514.045	2.95
514.392	2.96
514.739	2.96
515.086	2.97
515.432	2.97
515.779	2.95
516.126	2.97
516.473	2.96
516.819	2.97
517.166	2.95
517.512	2.96
517.859	2.97
518.205	2.96
518.552	2.97
518.898	2.98
519.245	2.99
519.591	2.98
519.937	2.97
520.283	2.97
520.629	2.99
520.976	2.99
521.322	3
521.668	3.01
522.014	3
522.36	2.99
522.706	3
523.052	3
523.398	2.98
523.743	2.99
524.089	2.98
524.435	2.99
524.781	2.99
525.126	3
525.472	3.02
525.817	3.02
526.163	3.02
526.509	3.02
526.854	3.02
527.199	3.04
527.545	3.05
527.89	3.05
528.235	3.05
528.581	3.04
528.926	3.04
529.271	3.05
529.616	3.05
529.961	3.06
530.306	3.07
530.651	3.08
530.996	3.08
531.341	3.08
531.686	3.08
532.031	3.07
532.376	3.07
532.721	3.07
533.065	3.07
533.41	3.07
533.755	3.07
534.099	3.08
534.444	3.07
534.788	3.06
535.133	3.07
535.477	3.08
535.822	3.08
536.166	3.07
536.51	3.06
536.855	3.07
537.199	3.06
537.543	3.06
537.887	3.07
538.231	3.06
538.576	3.05
538.92	3.05
539.264	3.06
539.608	3.07
539.951	3.06
540.295	3.06
540.639	3.06
540.983	3.05
541.327	3.06
541.671	3.05
542.014	3.04
542.358	3.02
542.701	3.02
543.045	3.02
543.389	3.04
543.732	3.05
544.075	3.04
544.419	3.05
544.762	3.03
545.105	3.02
545.449	3.05
545.792	3.05
546.135	3.07
546.478	3.08
546.821	3.06
547.165	3.06
547.508	3.06
547.851	3.05
548.194	3.05
548.536	3.04
548.879	3.05
549.222	3.06
549.565	3.1
549.908	3.11
550.25	3.11
550.593	3.07
550.936	3.05
551.278	3.06
551.621	3.03
551.963	3.06
552.306	3.06
552.648	3.03
552.991	3.05
553.333	3.04
553.675	3.04
554.017	3.07
554.36	3.09
554.702	3.1
555.044	3.1
555.386	3.11
555.728	3.11
556.07	3.13
556.412	3.1
556.754	3.08
557.096	3.09
557.438	3.07
557.78	3.13
558.121	3.15
558.463	3.15
558.805	3.18
559.147	3.17
559.488	3.15
559.83	3.15
560.171	3.11
560.513	3.12
560.854	3.1
561.196	3.08
561.537	3.06
561.878	3.05
562.22	3.08
562.561	3.06
562.902	3.09
563.243	3.07
563.584	3.1
563.925	3.11
564.266	3.09
564.607	3.07
564.948	3.05
565.289	3.03
565.63	3.03
565.971	3.02
566.312	3.04
566.653	3.06
566.993	3.06
567.334	3.08
567.675	3.07
568.015	3.07
568.356	3.09
568.696	3.1
569.037	3.09
569.377	3.09
569.718	3.08
570.058	3.08
570.398	3.08
570.739	3.07
571.079	3.09
571.419	3.09
571.759	3.11
572.099	3.1
572.439	3.12
572.779	3.14
573.119	3.15
573.459	3.15
573.799	3.18
574.139	3.15
574.479	3.16
574.819	3.15
575.158	3.13
575.498	3.11
575.838	3.12
576.177	3.11
576.517	3.09
576.856	3.11
577.196	3.08
577.535	3.08
577.875	3.1
578.214	3.08
578.553	3.12
578.893	3.09
579.232	3.11
579.571	3.12
579.91	3.1
580.25	3.09
580.589	3.09
580.928	3.07
581.267	3.12
581.606	3.1
581.945	3.11
582.283	3.14
582.622	3.17
582.961	3.17
583.3	3.19
583.639	3.23
583.977	3.24
584.316	3.27
584.654	3.26
584.993	3.23
585.332	3.25
585.67	3.22
586.008	3.26
586.347	3.22
586.685	3.21
587.024	3.18
587.362	3.16
587.7	3.16
588.038	3.16
588.376	3.14
588.715	3.14
589.053	3.18
589.391	3.16
589.729	3.15
590.067	3.12
590.404	3.13
590.742	3.12
591.08	3.09
591.418	3.08
591.756	3.08
592.093	3.1
592.431	3.09
592.769	3.11
593.106	3.09
593.444	3.09
593.781	3.08
594.119	3.1
594.456	3.11
594.793	3.12
595.131	3.1
595.468	3.11
595.805	3.1
596.143	3.05
596.48	3.03
596.817	3.02
597.154	3
597.491	2.98
597.828	3.02
598.165	3.02
598.502	3.01
598.839	3.01
599.176	2.98
599.512	2.95
599.849	2.95
600.186	2.96
600.523	3
600.859	3.01
601.196	3
601.532	3
601.869	2.99
602.205	2.99
602.542	3.02
602.878	3.03
603.215	3.06
603.551	3.1
603.887	3.12
604.223	3.17
604.56	3.19
604.896	3.16
605.232	3.2
605.568	3.2
605.904	3.17
606.24	3.19
606.576	3.21
606.912	3.22
607.248	3.24
607.583	3.23
607.919	3.22
608.255	3.23
608.591	3.24
608.926	3.27
609.262	3.28
609.597	3.24
609.933	3.25
610.268	3.21
610.604	3.2
610.939	3.2
611.275	3.16
611.61	3.16
611.945	3.13
612.281	3.11
612.616	3.12
612.951	3.21
613.286	3.22
613.621	3.21
613.956	3.18
614.291	3.12
614.626	3.11
614.961	3.14
615.296	3.13
615.631	3.16
615.966	3.16
616.3	3.14
616.635	3.13
616.97	3.09
617.304	3.1
617.639	3.08
617.973	3.08
618.308	3.12
618.642	3.13
618.977	3.16
619.311	3.16
619.646	3.17
619.98	3.09
620.314	3.08
620.648	3.12
620.983	3.18
621.317	3.21
621.651	3.21
621.985	3.24
622.319	3.22
622.653	3.23
622.987	3.21
623.321	3.21
623.655	3.23
623.988	3.26
624.322	3.24
624.656	3.25
624.99	3.25
625.323	3.24
625.657	3.25
625.99	3.31
626.324	3.29
626.657	3.29
626.991	3.34
627.324	3.38
627.658	3.37
627.991	3.37
628.324	3.36
628.657	3.36
628.991	3.33
629.324	3.36
629.657	3.29
629.99	3.34
630.323	3.37
630.656	3.33
630.989	3.36
631.322	3.41
631.655	3.43
631.987	3.43
632.32	3.44
632.653	3.43
632.986	3.38
633.318	3.36
633.651	3.39
633.984	3.34
634.316	3.27
634.649	3.23
634.981	3.22
635.313	3.21
635.646	3.23
635.978	3.19
636.31	3.18
636.643	3.22
636.975	3.24
637.307	3.22
637.639	3.29
637.971	3.26
638.303	3.2
638.635	3.19
638.967	3.19
639.299	3.18
639.631	3.12
639.963	3.13
640.295	3.17
640.626	3.18
640.958	3.23
641.29	3.27
641.621	3.25
641.953	3.26
642.285	3.31
642.616	3.29
642.948	3.29
643.279	3.25
643.61	3.22
643.942	3.16
644.273	3.16
644.604	3.11
644.936	3.11
645.267	3.14
645.598	3.09
645.929	3.08
646.26	3.11
646.591	3.09
646.922	3.02
647.253	3
647.584	2.85
647.915	2.82
648.245	2.8
648.576	2.82
648.907	2.81
649.238	2.78
649.568	2.77
649.899	2.78
650.229	2.78
650.56	2.78
650.89	2.82
651.221	2.8
651.551	2.72
651.882	2.72
652.212	2.76
652.542	2.78
652.872	2.82
653.203	2.79
653.533	2.89
653.863	2.91
654.193	2.89
654.523	2.98
654.853	2.98
655.183	2.98
655.513	2.99
655.843	2.93
656.172	2.92
656.502	2.95
656.832	2.98
657.162	3.03
657.491	3.09
657.821	3.06
658.15	3.1
658.48	3.15
658.809	3.15
659.139	3.14
659.468	3.09
659.798	3.03
660.127	3.05
660.456	3.01
660.785	3.04
661.115	3.07
661.444	3.03
661.773	2.99
662.102	3.03
662.431	3.11
662.76	3.17
663.089	3.21
663.418	3.2
663.747	3.16
664.076	3.12
664.404	3.06
664.733	3.04
665.062	2.98
665.39	2.99
665.719	2.98
666.048	2.96
666.376	3.01
666.705	3.03
667.033	3.07
667.362	3.08
667.69	3
668.018	3.01
668.347	3.05
668.675	3.12
669.003	3.12
669.331	3.04
669.659	2.96
669.987	2.93
670.315	2.84
670.643	2.82
670.971	2.8
671.299	2.85
671.627	2.82
671.955	2.91
672.283	2.91
672.61	2.94
672.938	2.93
673.266	3.01
673.593	3.15
673.921	2.94
674.249	2.95
674.576	2.98
674.904	3.02
675.231	2.93
675.558	2.85
675.886	2.89
676.213	2.97
676.54	3.05
676.867	3.06
677.195	3.11
677.522	3.14
677.849	3.23
678.176	3.2
678.503	3.25
678.83	3.24
679.157	3.27
679.484	3.27
679.81	3.29
680.137	3.25
680.464	3.13
680.791	3.33
681.117	3.29
681.444	3.35
681.771	3.38
682.097	3.48
682.424	3.53
682.75	3.52
683.077	3.46
683.403	3.39
683.729	3.34
684.056	3.4
684.382	3.49
684.708	3.37
685.034	3.35
685.36	3.37
685.686	3.31
686.012	3.18
686.339	3.26
686.664	3.24
686.99	3.23
687.316	3.28
687.642	3.26
687.968	3.32
688.294	3.28
688.619	3.27
688.945	3.2
689.271	3.15
689.596	3.05
689.922	3.1
690.247	3.16
690.573	3.32
690.898	3.28
691.224	3.15
691.549	3.21
691.874	3.25
692.2	3.25
692.525	3.29
692.85	3.41
693.175	3.33
693.5	3.29
693.825	3.37
694.15	3.41
694.475	3.38
694.8	3.41
695.125	3.32
695.45	3.33
695.775	3.43
696.099	3.48
696.424	3.62
696.749	3.49
697.073	3.54
697.398	3.53
697.723	3.51
698.047	3.55
698.372	3.53
698.696	3.52
699.02	3.5
699.345	3.52
699.669	3.51
699.993	3.44
700.318	3.52
700.642	3.47
700.966	3.37
701.29	3.35
701.614	3.29
701.938	3.35
702.262	3.39
702.586	3.34
702.91	3.39
703.234	3.35
703.557	3.38
703.881	3.38
704.205	3.32
704.529	3.26
704.852	3.24
705.176	3.27
705.499	3.27
705.823	3.24
706.146	3.12
706.47	3.08
706.793	3.12
707.117	3.18
707.44	3.14
707.763	3.21
708.086	3.08
708.409	3.01
708.733	3.03
709.056	3
709.379	3.06
709.702	3.01
710.025	3.02
710.348	3.06
710.671	3
710.993	3.02
711.316	3.01
711.639	2.95
711.962	2.99
712.284	2.98
712.607	2.85
712.93	2.92
713.252	2.91
713.575	2.97
713.897	2.85
714.22	2.82
714.542	2.76
714.864	2.88
715.187	3
715.509	3.01
715.831	3.01
716.153	2.98
716.475	2.99
716.798	3.13
717.12	3.11
717.442	3.15
717.764	3.1
718.085	3.17
718.407	3.42
718.729	3.44
719.051	3.45
719.373	3.6
719.695	3.5
720.016	3.64
720.338	3.64
720.659	3.73
720.981	3.82
721.302	3.94
721.624	3.94
721.945	3.99
722.267	3.9
722.588	3.76
722.909	3.61
723.231	3.66
723.552	3.43
723.873	3.35
724.194	3.23
724.515	3.17
724.836	3.19
725.157	3.09
725.478	2.94
725.799	2.86
726.12	2.83
726.441	3
726.762	3.06
727.083	3.04
727.403	3.01
727.724	3.09
728.045	3.16
728.365	3.01
728.686	2.92
729.006	2.95
729.327	3
729.647	3.11
729.967	3.13
730.288	3.2
730.608	3.2
730.928	3.23
731.249	3.22
731.569	3.3
731.889	3.15
732.209	3.32
732.529	3.43
732.849	3.54
733.169	3.51
733.489	3.37
733.809	3.28
734.129	3.36
734.448	3.18
734.768	3.16
735.088	3.31
735.408	3.3
735.727	3.47
736.047	3.52
736.366	3.4
736.686	3.36
737.005	3.28
737.325	3.38
737.644	3.39
737.963	3.57
738.283	3.5
738.602	3.74
738.921	3.71
739.24	3.76
739.56	3.57
739.879	3.45
740.198	3.42
740.517	3.47
740.836	3.33
741.155	3.45
741.473	3.55
741.792	3.53
742.111	3.51
742.43	3.52
742.748	3.35
743.067	3.33
743.386	3.39
743.704	3.54
744.023	3.45
744.341	3.67
744.66	3.61
744.978	3.51
745.297	3.39
745.615	3.25
745.933	3.34
746.252	3.45
746.57	3.45
746.888	3.59
747.206	3.61
747.524	3.53
747.842	3.61
748.16	3.47
748.478	3.68
748.796	3.79
749.114	3.77
749.432	3.97
749.749	4.27
750.067	4.18
750.385	4.2
750.703	4.22
751.02	4.16
751.338	4.07
751.655	4.03
751.973	4.14
752.29	4.23
752.608	4.07
752.925	4.08
753.242	3.96
753.56	3.92
753.877	4.06
754.194	4.19
754.511	4.07
754.828	3.87
755.145	3.52
755.462	3.28
755.779	3.13
756.096	2.98
756.413	2.68
756.73	2.92
757.047	2.96
757.364	2.98
757.68	2.94
757.997	2.91
758.314	3.17
758.63	3.11
758.947	3.06
759.264	2.97
759.58	2.99
759.896	3.37
760.213	3.69
760.529	3.77
760.846	3.73
761.162	3.81
761.478	4.01
761.794	3.84
762.11	4.02
762.426	4.16
762.743	4.22
763.059	4.15
763.375	3.99
763.69	4.02
764.006	3.99
764.322	4
764.638	4.28
764.954	4.23
765.27	4.25
765.585	4.34
765.901	4.42
766.216	4.49
766.532	4.41
766.848	4.17
767.163	4.02
767.478	3.89
767.794	3.94
768.109	4.03
768.424	4.44
768.74	4.51
769.055	4.42
769.37	4.57
769.685	4.82
770	4.75
770.315	4.44
770.63	4.56
770.945	4.6
771.26	4.12
771.575	4.31
771.89	4.19
772.205	3.94
772.52	3.96
772.834	3.8
773.149	3.55
773.464	3.62
773.778	3.91
774.093	4.04
774.407	4
774.722	3.6
775.036	3.46
775.351	3.49
775.665	3.24
775.979	3.07
776.293	3.17
776.608	3.1
776.922	3.19
777.236	3.43
777.55	3.1
777.864	3.28
778.178	3.27
778.492	3.7
778.806	3.71
779.12	4
779.434	3.77
779.747	3.95
780.061	3.8
780.375	3.84
780.689	3.65
781.002	3.73
781.316	4.02
781.629	4.22
781.943	4.48
782.256	4.46
782.57	4.97
782.883	4.94
783.196	4.79
783.51	4.9
783.823	4.44
784.136	4.64
784.449	4.83
784.762	4.59
785.075	4.34
785.388	4.66
785.701	3.82
786.014	4.28
786.327	4.14
786.64	4.67
786.953	4.36
787.266	4.51
787.578	4.05
787.891	4.1
788.204	4.14
788.516	4.01
788.829	4.31
789.141	3.88
789.454	3.89
789.766	4.11
790.079	3.94
790.391	3.8
790.703	3.8
791.016	3.51
791.328	3.46
791.64	3.37
791.952	3.57
792.264	3.82
792.576	3.69
792.888	3.66
793.2	3.18
793.512	3.07
793.824	3.25
794.136	3.41
794.448	3.03
794.76	2.78
795.071	2.51
795.383	2.17
795.695	1.7
796.006	1.66
796.318	1.92
796.629	2.35
796.941	2.72
797.252	3.11
797.564	3.4
797.875	3.37
798.186	3.09
798.497	2.42
798.809	2.2
799.12	2.41
799.431	2.65
799.742	2.65
800.053	3.2
800.364	3.23
800.675	2.99
800.986	3.3
801.297	2.89
801.608	2.19
801.918	2.05
802.229	1.91
802.54	1.6
802.851	1.26
803.161	1.36
803.472	1.08
803.782	0.77
804.093	0.68
804.403	0.32
804.714	0.19
805.024	0.1
805.334	0.17
805.645	0.33
805.955	0.41
806.265	0.76
806.575	0.46
806.885	0.52
807.195	0.95
807.505	0.6
807.815	0.87
808.125	1.8
808.435	2.33
808.745	3.39
809.055	4.18
809.365	4.13
809.674	3.58
809.984	3.88
810.294	3.52
810.603	3.16
810.913	3.97
811.222	4.5
811.532	5.27
811.841	6.06
812.151	5.86
812.46	6.11
812.769	5.63
813.079	5.39
813.388	5.25
813.697	5.68
814.006	5.76
814.315	6.13
814.624	5.57
814.933	5.15
815.242	4.49
815.551	4.33
815.86	4.8
816.169	4.79
816.478	4.87
816.786	5.06
817.095	6.1
817.404	6.3
817.712	6.17
818.021	6.19
818.33	5.74
818.638	5.29
818.947	5.08
819.255	5.66
819.563	5.53
819.872	5.56
820.18	5.31
820.488	5.2
820.796	5.29
821.105	5.26
821.413	5.38
821.721	5.36
822.029	5.49
822.337	5.54
822.645	5.59
822.953	5.42
823.26	5.35
823.568	5.12
823.876	4.9
824.184	4.92
824.491	4.85
824.799	4.79
825.107	4.88
825.414	4.83
825.722	4.64
826.029	4.86
826.337	4.82
826.644	4.82
826.951	4.85
827.259	4.69
827.566	4.74
827.873	4.7
828.18	4.77
828.488	4.61
828.795	4.46
829.102	4.45
829.409	4.93
829.716	5.09
830.023	5.17
830.329	5.17
830.636	5.17
830.943	4.85
831.25	4.85
831.557	5.01
831.863	5.02
832.17	5.17
832.476	5.01
832.783	5.22
833.089	5.21
833.396	5.44
833.702	5.77
834.009	6
834.315	5.84
834.621	5.78
834.928	5.96
835.234	5.77
835.54	5.72
835.846	5.44
836.152	5.03
836.458	5.06
836.764	5.25
837.07	5.08
837.376	4.82
837.682	5.07
837.988	5.17
838.293	5.08
838.599	4.47
838.905	3.82
839.211	3.18
839.516	3.31
839.822	3.2
840.127	2.73
840.433	3.04
840.738	3.23
841.044	3.17
841.349	2.7
841.654	2.87
841.959	3.09
842.265	3.04
842.57	3.86
842.875	3.5
843.18	3.62
843.485	3.48
843.79	4.82
844.095	4.23
844.4	3.41
844.705	3.44
845.01	3.46
845.315	3.96
845.619	2.92
845.924	2.36
846.229	1.18
846.533	1.41
846.838	-0.78
847.142	-1.58
847.447	-3.37
847.751	-3.23
848.056	-4.65
848.36	-4.63
848.664	-5.75
848.969	-8.29
849.273	-9.32
849.577	-10.97
849.881	-11.56
850.185	-10.66
850.489	-9.65
850.794	-11.64
851.097	-12.2
851.401	-12.12
851.705	-11.22
852.009	-7.31
852.313	-8.17
852.617	-8.74
852.92	-8.69
853.224	-9.53
853.528	-7.14
853.831	-5.86
854.135	-6.51
854.438	-7.01
854.742	-10.05
855.045	-11.07
855.349	-7.73
855.652	-7.44
855.955	-5.42
856.259	-5.77
856.562	-6.33
856.865	-6.8
857.168	-5.59
857.471	-4.92
857.774	-4.18
858.077	-5.26
858.38	-5.86
858.683	-3.2
858.986	-1.03
859.289	-1.03
859.592	0.77
859.894	-0.21
860.197	0.22
860.5	-0.27
860.802	0.53
861.105	3.79
861.407	4.09
861.71	1.81
862.012	3.37
862.315	1.66
862.617	3.8
862.919	3.78
863.222	5.42
863.524	8
863.826	8.64
864.128	8.14
864.43	7.21
864.732	6.29
865.034	4.49
865.336	2.78
865.638	1.86
865.94	1.04
866.242	-1.17
866.544	-0.54
866.846	-1.8
867.147	1.23
867.449	-1.18
867.751	-0.27
868.052	3.27
868.354	2.36
868.655	2.63
868.957	2.42
869.258	2.28
869.56	2.25
869.861	0.98
870.162	0.7
870.463	2.62
870.765	1.99
871.066	1.46
871.367	1.14
871.668	2.88
871.969	3.41
872.27	3.02
872.571	3.28
872.872	1.88
873.173	0.75
873.473	1.46
873.774	1.83
874.075	1.78
874.376	-0.16
874.676	-0.29
874.977	-2.31
875.277	-2.36
875.578	-2.66
875.878	-3.82
876.179	-4.73
876.479	-5.24
876.78	-7.06
877.08	-5.18
877.38	-5.75
877.68	-5.43
877.981	-7.02
878.281	-7.25
878.581	-5.32
