Data from BU58140_Reflection_00010.txt Node
Date: Tue Nov 19 10:53:40 EST 2019
User: vgr7
Spectrometer: USB2G7710
Scans to average: 3
Trigger mode: 4
Integration Time (sec): 2.000000E-2
Electric dark correction enabled: true
Boxcar width: 10
XAxis mode: Wavelengths
Number of Pixels in Spectrum: 2048
>>>>>Begin Spectral Data<<<<<
177.721	-1.35
178.105	61.54
178.488	-28.98
178.871	-371.43
179.254	-416.67
179.636	291.49
180.019	734.62
180.402	133.33
180.785	81.25
181.168	-228.13
181.55	506.25
181.933	193.75
182.316	32.69
182.698	10.49
183.081	-25
183.463	0.39
183.846	79.51
184.228	57.03
184.611	234.62
184.993	-95
185.376	-89.76
185.758	-119.26
186.14	-381.25
186.522	-135.92
186.904	-44.23
187.287	-74.46
187.669	-56.58
188.051	-74.62
188.433	-107.11
188.815	-98.01
189.197	-94.08
189.579	-96.35
189.961	-78.43
190.342	-69.89
190.724	-110.08
191.106	-128.38
191.488	-117.74
191.869	-104.69
192.251	-89.48
192.633	-82.36
193.014	-95.47
193.396	-105.45
193.777	-80.76
194.159	-72.29
194.54	-74.57
194.922	-87.15
195.303	-73.48
195.684	-82.69
196.065	-63.44
196.447	-54.08
196.828	-59.03
197.209	-48.13
197.59	-50.37
197.971	-64.89
198.352	-61.53
198.733	-44.19
199.114	-42.93
199.495	-43.51
199.876	-45.83
200.257	-52.2
200.638	-57.99
201.018	-57.98
201.399	-51.66
201.78	-57.66
202.16	-53.65
202.541	-69.72
202.922	-65.45
203.302	-75.55
203.683	-75
204.063	-86.78
204.444	-81.39
204.824	-78.65
205.204	-80.82
205.585	-63.56
205.965	-76.85
206.345	-93.11
206.725	-100.11
207.106	-89.41
207.486	-94.55
207.866	-87.26
208.246	-74.87
208.626	-70.59
209.006	-69.24
209.386	-64.01
209.766	-62.5
210.145	-70.85
210.525	-60.25
210.905	-50.48
211.285	-41.79
211.664	-36.9
212.044	-26.14
212.424	-27
212.803	-25.89
213.183	-25
213.562	-19.91
213.942	-10.67
214.321	-4.68
214.701	-6.14
215.08	-2.68
215.459	7.68
215.838	-0.96
216.218	-6.66
216.597	-12.47
216.976	-16.36
217.355	-17.68
217.734	-20.59
218.113	-13.72
218.492	-13.99
218.871	-23.94
219.25	-18.51
219.629	-25
220.008	-40.78
220.387	-29.89
220.766	-24.45
221.144	-19.02
221.523	-35.92
221.902	-31.44
222.28	-19.91
222.659	-4.06
223.037	-4.84
223.416	-3.54
223.794	5
224.173	-0.22
224.551	6.51
224.929	9.97
225.308	9.28
225.686	10.48
226.064	7.88
226.442	7.95
226.821	6.65
227.199	2.41
227.577	4.42
227.955	6.52
228.333	1.21
228.711	-1.55
229.089	-5.02
229.467	-4.5
229.845	-4.96
230.222	-4.41
230.6	-7.8
230.978	-5.41
231.356	-5.53
231.733	-4.93
232.111	-3.68
232.488	-6.78
232.866	-7.69
233.243	-7.23
233.621	-6.99
233.998	-5.19
234.376	-4.24
234.753	-3.92
235.13	-3.23
235.508	-2.06
235.885	-2.77
236.262	-0.49
236.639	-0.65
237.016	0.86
237.393	1.79
237.77	2.18
238.147	2.06
238.524	2.97
238.901	1.87
239.278	1.16
239.655	1.89
240.032	2.59
240.409	3.26
240.785	3.6
241.162	3.45
241.539	3.48
241.915	2.98
242.292	2.95
242.668	3.04
243.045	3.41
243.421	3.4
243.798	4
244.174	4.12
244.551	4.31
244.927	4.15
245.303	4.01
245.679	4.02
246.056	4
246.432	4.01
246.808	4.35
247.184	4.6
247.56	4.1
247.936	4.07
248.312	4.11
248.688	4.1
249.064	4.04
249.44	3.92
249.815	4.13
250.191	4.07
250.567	4.22
250.943	4.54
251.318	4.41
251.694	4.35
252.069	4.19
252.445	3.91
252.82	4.23
253.196	4.54
253.571	4.62
253.947	4.65
254.322	4.8
254.697	4.43
255.073	4.5
255.448	4.92
255.823	4.88
256.198	4.85
256.573	4.82
256.948	5
257.323	5.21
257.698	5.09
258.073	5.07
258.448	5.07
258.823	4.41
259.198	4.4
259.573	4.14
259.948	4.1
260.322	4.16
260.697	4.19
261.072	4.18
261.446	4.01
261.821	4.02
262.195	3.83
262.57	3.94
262.944	4.01
263.319	3.97
263.693	4
264.067	3.97
264.442	3.92
264.816	3.92
265.19	3.61
265.564	3.57
265.938	3.66
266.313	3.47
266.687	3.77
267.061	3.73
267.435	3.86
267.809	3.9
268.183	3.89
268.556	3.63
268.93	3.66
269.304	3.73
269.678	3.78
270.051	3.94
270.425	3.95
270.799	3.7
271.172	3.77
271.546	3.91
271.919	3.86
272.293	3.92
272.666	3.74
273.04	3.96
273.413	3.87
273.787	3.85
274.16	3.95
274.533	4.03
274.906	4.09
275.279	3.86
275.653	3.79
276.026	3.93
276.399	3.84
276.772	3.77
277.145	3.78
277.518	3.64
277.891	3.58
278.263	3.67
278.636	3.7
279.009	3.52
279.382	3.49
279.755	3.53
280.127	3.5
280.5	3.64
280.872	3.49
281.245	3.73
281.617	3.67
281.99	3.67
282.362	3.68
282.735	3.53
283.107	3.71
283.479	3.66
283.852	3.65
284.224	3.71
284.596	3.76
284.968	3.7
285.34	3.77
285.713	3.87
286.085	3.72
286.457	3.72
286.829	3.82
287.201	3.65
287.572	3.71
287.944	3.82
288.316	3.92
288.688	4.04
289.06	3.94
289.431	4.05
289.803	4.15
290.175	4.09
290.546	4.29
290.918	4.31
291.289	4.43
291.661	4.44
292.032	4.46
292.403	4.49
292.775	4.74
293.146	4.73
293.517	4.65
293.889	4.75
294.26	4.92
294.631	4.94
295.002	5.07
295.373	5.11
295.744	5.14
296.115	5.08
296.486	5.02
296.857	5.09
297.228	4.95
297.599	4.92
297.97	4.97
298.34	4.89
298.711	4.95
299.082	4.82
299.452	4.88
299.823	5.03
300.194	5
300.564	4.97
300.935	5.11
301.305	5.09
301.676	5.05
302.046	4.99
302.416	5.01
302.787	4.97
303.157	5.07
303.527	5.1
303.897	5.13
304.267	5.25
304.637	5.25
305.008	5.37
305.378	5.58
305.748	5.62
306.117	5.83
306.487	5.88
306.857	6.13
307.227	6.24
307.597	6.29
307.967	6.43
308.336	6.49
308.706	6.45
309.076	6.61
309.445	6.74
309.815	6.78
310.184	6.67
310.554	6.71
310.923	6.71
311.293	6.68
311.662	6.85
312.031	6.86
312.401	6.9
312.77	7.13
313.139	7.04
313.508	7.23
313.877	7.25
314.246	7.29
314.616	7.43
314.985	7.38
315.353	7.49
315.722	7.63
316.091	7.79
316.46	8.01
316.829	8.29
317.198	8.39
317.567	8.57
317.935	8.82
318.304	9.15
318.672	9.31
319.041	9.62
319.41	9.61
319.778	9.69
320.147	9.85
320.515	9.96
320.883	9.98
321.252	9.91
321.62	9.99
321.988	10.15
322.357	10.2
322.725	10.24
323.093	10.26
323.461	10.21
323.829	10.11
324.197	10.03
324.565	9.91
324.933	9.96
325.301	9.95
325.669	9.9
326.037	9.92
326.405	9.87
326.772	9.8
327.14	9.8
327.508	9.85
327.875	9.91
328.243	9.85
328.61	9.84
328.978	9.91
329.346	9.96
329.713	10.07
330.08	10.15
330.448	10.24
330.815	10.33
331.182	10.25
331.55	10.32
331.917	10.31
332.284	10.23
332.651	10.18
333.018	10.25
333.385	10.48
333.752	10.5
334.119	10.42
334.486	10.39
334.853	10.41
335.22	10.44
335.587	10.34
335.954	10.35
336.32	10.44
336.687	10.43
337.054	10.31
337.42	10.27
337.787	10.23
338.153	10.2
338.52	10.2
338.886	10.34
339.253	10.34
339.619	10.48
339.986	10.61
340.352	10.6
340.718	10.59
341.084	10.48
341.451	10.5
341.817	10.59
342.183	10.53
342.549	10.56
342.915	10.63
343.281	10.73
343.647	10.68
344.013	10.72
344.379	10.72
344.745	10.82
345.11	10.82
345.476	10.79
345.842	10.83
346.208	10.83
346.573	10.87
346.939	10.97
347.304	10.97
347.67	10.91
348.035	10.87
348.401	10.96
348.766	11.03
349.132	10.98
349.497	11.1
349.862	11.21
350.228	11.22
350.593	11.13
350.958	11.22
351.323	11.19
351.688	11.15
352.053	11.16
352.418	11.2
352.783	11.24
353.148	11.17
353.513	11.18
353.878	11.16
354.243	11.07
354.608	11.07
354.972	10.96
355.337	10.93
355.702	10.97
356.066	10.86
356.431	10.88
356.795	10.89
357.16	10.78
357.524	10.67
357.889	10.68
358.253	10.65
358.618	10.6
358.982	10.58
359.346	10.52
359.71	10.5
360.075	10.41
360.439	10.31
360.803	10.36
361.167	10.24
361.531	10.13
361.895	10.04
362.259	9.96
362.623	9.96
362.987	9.92
363.351	9.88
363.714	9.87
364.078	9.75
364.442	9.73
364.806	9.68
365.169	9.63
365.533	9.54
365.896	9.54
366.26	9.4
366.623	9.43
366.987	9.39
367.35	9.3
367.714	9.26
368.077	9.23
368.44	9.13
368.803	9.08
369.167	9.05
369.53	9.09
369.893	9
370.256	8.81
370.619	8.74
370.982	8.61
371.345	8.55
371.708	8.42
372.071	8.19
372.434	8.08
372.797	8.05
373.159	7.99
373.522	7.86
373.885	7.86
374.247	7.71
374.61	7.62
374.973	7.54
375.335	7.43
375.698	7.31
376.06	7.24
376.423	7.22
376.785	7.15
377.147	7.06
377.51	7.03
377.872	7.08
378.234	7.05
378.596	7.07
378.958	7.02
379.321	7.11
379.683	7.14
380.045	7.09
380.407	7
380.769	6.9
381.13	6.86
381.492	6.81
381.854	6.73
382.216	6.74
382.578	6.73
382.939	6.67
383.301	6.64
383.663	6.58
384.024	6.53
384.386	6.49
384.747	6.46
385.109	6.4
385.47	6.31
385.832	6.27
386.193	6.19
386.554	6.1
386.916	6.02
387.277	5.96
387.638	5.95
387.999	5.94
388.36	5.94
388.721	5.91
389.082	5.88
389.443	5.87
389.804	5.82
390.165	5.77
390.526	5.73
390.887	5.65
391.248	5.63
391.609	5.57
391.969	5.55
392.33	5.49
392.691	5.45
393.051	5.42
393.412	5.4
393.772	5.35
394.133	5.29
394.493	5.2
394.854	5.19
395.214	5.13
395.574	5.1
395.935	5.08
396.295	5.04
396.655	4.99
397.015	4.94
397.376	4.85
397.736	4.82
398.096	4.8
398.456	4.79
398.816	4.74
399.176	4.69
399.535	4.64
399.895	4.62
400.255	4.56
400.615	4.54
400.975	4.48
401.334	4.47
401.694	4.45
402.054	4.46
402.413	4.45
402.773	4.41
403.132	4.39
403.492	4.33
403.851	4.28
404.211	4.25
404.57	4.23
404.929	4.25
405.288	4.21
405.648	4.17
406.007	4.17
406.366	4.14
406.725	4.13
407.084	4.13
407.443	4.1
407.802	4.09
408.161	4.09
408.52	4.08
408.879	4.05
409.238	4.04
409.596	4
409.955	3.95
410.314	3.94
410.673	3.9
411.031	3.89
411.39	3.89
411.748	3.88
412.107	3.84
412.465	3.82
412.824	3.83
413.182	3.83
413.54	3.82
413.899	3.86
414.257	3.87
414.615	3.85
414.974	3.83
415.332	3.82
415.69	3.78
416.048	3.78
416.406	3.78
416.764	3.8
417.122	3.8
417.48	3.81
417.838	3.77
418.195	3.77
418.553	3.76
418.911	3.74
419.269	3.71
419.626	3.7
419.984	3.68
420.342	3.65
420.699	3.62
421.057	3.6
421.414	3.57
421.772	3.54
422.129	3.53
422.486	3.52
422.844	3.5
423.201	3.49
423.558	3.48
423.915	3.47
424.273	3.45
424.63	3.44
424.987	3.42
425.344	3.43
425.701	3.4
426.058	3.39
426.415	3.38
426.772	3.38
427.128	3.39
427.485	3.39
427.842	3.38
428.199	3.41
428.555	3.4
428.912	3.39
429.269	3.39
429.625	3.38
429.982	3.38
430.338	3.38
430.695	3.36
431.051	3.35
431.407	3.33
431.764	3.32
432.12	3.32
432.476	3.31
432.832	3.29
433.189	3.3
433.545	3.3
433.901	3.3
434.257	3.3
434.613	3.27
434.969	3.27
435.325	3.29
435.681	3.27
436.036	3.27
436.392	3.28
436.748	3.28
437.104	3.27
437.459	3.25
437.815	3.26
438.171	3.26
438.526	3.27
438.882	3.27
439.237	3.28
439.593	3.27
439.948	3.27
440.304	3.28
440.659	3.27
441.014	3.26
441.369	3.27
441.725	3.28
442.08	3.31
442.435	3.3
442.79	3.27
443.145	3.27
443.5	3.26
443.855	3.24
444.21	3.24
444.565	3.24
444.92	3.26
445.275	3.25
445.629	3.26
445.984	3.25
446.339	3.25
446.693	3.22
447.048	3.2
447.403	3.2
447.757	3.21
448.112	3.22
448.466	3.22
448.82	3.22
449.175	3.2
449.529	3.17
449.883	3.16
450.238	3.18
450.592	3.19
450.946	3.18
451.3	3.19
451.654	3.19
452.008	3.18
452.362	3.19
452.716	3.19
453.07	3.16
453.424	3.16
453.778	3.15
454.132	3.17
454.486	3.19
454.839	3.17
455.193	3.17
455.547	3.14
455.9	3.13
456.254	3.11
456.607	3.1
456.961	3.11
457.314	3.11
457.668	3.1
458.021	3.08
458.375	3.11
458.728	3.11
459.081	3.12
459.434	3.13
459.787	3.14
460.141	3.14
460.494	3.14
460.847	3.15
461.2	3.16
461.553	3.18
461.906	3.19
462.259	3.2
462.611	3.2
462.964	3.23
463.317	3.24
463.67	3.24
464.022	3.25
464.375	3.28
464.728	3.27
465.08	3.29
465.433	3.31
465.785	3.32
466.138	3.33
466.49	3.33
466.843	3.33
467.195	3.3
467.547	3.3
467.899	3.32
468.252	3.31
468.604	3.34
468.956	3.33
469.308	3.33
469.66	3.36
470.012	3.37
470.364	3.37
470.716	3.39
471.068	3.4
471.42	3.4
471.772	3.41
472.123	3.43
472.475	3.43
472.827	3.43
473.178	3.4
473.53	3.42
473.882	3.43
474.233	3.42
474.585	3.44
474.936	3.46
475.288	3.47
475.639	3.49
475.99	3.46
476.342	3.46
476.693	3.46
477.044	3.45
477.395	3.43
477.746	3.42
478.097	3.42
478.448	3.42
478.8	3.42
479.15	3.41
479.501	3.41
479.852	3.39
480.203	3.38
480.554	3.39
480.905	3.39
481.255	3.39
481.606	3.39
481.957	3.39
482.307	3.39
482.658	3.37
483.009	3.36
483.359	3.35
483.709	3.36
484.06	3.36
484.41	3.35
484.761	3.35
485.111	3.36
485.461	3.35
485.811	3.35
486.162	3.34
486.512	3.34
486.862	3.33
487.212	3.34
487.562	3.34
487.912	3.33
488.262	3.34
488.612	3.33
488.961	3.32
489.311	3.32
489.661	3.32
490.011	3.32
490.36	3.32
490.71	3.33
491.06	3.32
491.409	3.32
491.759	3.34
492.108	3.35
492.458	3.36
492.807	3.38
493.157	3.39
493.506	3.41
493.855	3.42
494.204	3.44
494.554	3.46
494.903	3.49
495.252	3.51
495.601	3.52
495.95	3.53
496.299	3.56
496.648	3.6
496.997	3.63
497.346	3.66
497.695	3.7
498.043	3.72
498.392	3.76
498.741	3.78
499.09	3.8
499.438	3.84
499.787	3.86
500.135	3.89
500.484	3.92
500.832	3.97
501.181	4.02
501.529	4.08
501.878	4.13
502.226	4.17
502.574	4.23
502.923	4.3
503.271	4.36
503.619	4.43
503.967	4.48
504.315	4.54
504.663	4.61
505.011	4.68
505.359	4.72
505.707	4.81
506.055	4.93
506.403	5
506.751	5.09
507.098	5.18
507.446	5.26
507.794	5.34
508.141	5.43
508.489	5.52
508.837	5.59
509.184	5.7
509.531	5.78
509.879	5.87
510.226	5.97
510.574	6.11
510.921	6.21
511.268	6.32
511.616	6.44
511.963	6.57
512.31	6.72
512.657	6.88
513.004	6.99
513.351	7.08
513.698	7.25
514.045	7.39
514.392	7.54
514.739	7.72
515.086	7.91
515.432	8.07
515.779	8.24
516.126	8.42
516.473	8.58
516.819	8.76
517.166	8.91
517.512	9.07
517.859	9.2
518.205	9.31
518.552	9.48
518.898	9.62
519.245	9.76
519.591	9.89
519.937	10.04
520.283	10.2
520.629	10.37
520.976	10.55
521.322	10.75
521.668	10.96
522.014	11.16
522.36	11.35
522.706	11.56
523.052	11.79
523.398	12.04
523.743	12.29
524.089	12.54
524.435	12.78
524.781	13.01
525.126	13.23
525.472	13.44
525.817	13.63
526.163	13.8
526.509	13.95
526.854	14.13
527.199	14.28
527.545	14.44
527.89	14.59
528.235	14.74
528.581	14.88
528.926	15.06
529.271	15.2
529.616	15.37
529.961	15.53
530.306	15.69
530.651	15.86
530.996	16.03
531.341	16.23
531.686	16.42
532.031	16.61
532.376	16.81
532.721	17.02
533.065	17.21
533.41	17.44
533.755	17.71
534.099	17.91
534.444	18.15
534.788	18.36
535.133	18.6
535.477	18.82
535.822	19.1
536.166	19.33
536.51	19.61
536.855	19.91
537.199	20.22
537.543	20.55
537.887	20.86
538.231	21.16
538.576	21.48
538.92	21.77
539.264	22.11
539.608	22.39
539.951	22.66
540.295	22.98
540.639	23.23
540.983	23.47
541.327	23.75
541.671	23.98
542.014	24.21
542.358	24.44
542.701	24.69
543.045	24.91
543.389	25.13
543.732	25.36
544.075	25.59
544.419	25.81
544.762	26.07
545.105	26.32
545.449	26.6
545.792	26.88
546.135	27.18
546.478	27.48
546.821	27.82
547.165	28.14
547.508	28.43
547.851	28.79
548.194	29.09
548.536	29.39
548.879	29.76
549.222	30.08
549.565	30.41
549.908	30.7
550.25	31
550.593	31.35
550.936	31.71
551.278	32.01
551.621	32.36
551.963	32.67
552.306	32.99
552.648	33.28
552.991	33.57
553.333	33.87
553.675	34.12
554.017	34.39
554.36	34.61
554.702	34.85
555.044	35.09
555.386	35.37
555.728	35.62
556.07	35.87
556.412	36.21
556.754	36.49
557.096	36.77
557.438	37.05
557.78	37.33
558.121	37.6
558.463	37.9
558.805	38.17
559.147	38.48
559.488	38.75
559.83	38.99
560.171	39.22
560.513	39.46
560.854	39.66
561.196	39.94
561.537	40.21
561.878	40.49
562.22	40.67
562.561	40.93
562.902	41.13
563.243	41.34
563.584	41.54
563.925	41.78
564.266	41.95
564.607	42.14
564.948	42.31
565.289	42.5
565.63	42.67
565.971	42.81
566.312	42.95
566.653	43.14
566.993	43.32
567.334	43.55
567.675	43.78
568.015	43.98
568.356	44.11
568.696	44.34
569.037	44.49
569.377	44.69
569.718	44.86
570.058	45.03
570.398	45.2
570.739	45.38
571.079	45.58
571.419	45.82
571.759	46.01
572.099	46.19
572.439	46.36
572.779	46.5
573.119	46.7
573.459	46.85
573.799	46.95
574.139	47.1
574.479	47.19
574.819	47.3
575.158	47.43
575.498	47.58
575.838	47.72
576.177	47.87
576.517	47.99
576.856	48.1
577.196	48.24
577.535	48.39
577.875	48.48
578.214	48.62
578.553	48.73
578.893	48.86
579.232	48.92
579.571	48.97
579.91	49.16
580.25	49.26
580.589	49.36
580.928	49.57
581.267	49.71
581.606	49.8
581.945	49.91
582.283	50.08
582.622	50.18
582.961	50.27
583.3	50.31
583.639	50.46
583.977	50.65
584.316	50.86
584.654	51
584.993	51.11
585.332	51.19
585.67	51.3
586.008	51.41
586.347	51.58
586.685	51.7
587.024	51.76
587.362	51.91
587.7	52.03
588.038	52.08
588.376	52.23
588.715	52.41
589.053	52.57
589.391	52.64
589.729	52.79
590.067	52.91
590.404	53.04
590.742	53.13
591.08	53.16
591.418	53.12
591.756	53.12
592.093	53.24
592.431	53.35
592.769	53.46
593.106	53.53
593.444	53.62
593.781	53.73
594.119	53.84
594.456	53.82
594.793	53.94
595.131	53.96
595.468	53.92
595.805	53.98
596.143	53.96
596.48	54.01
596.817	54.08
597.154	54.13
597.491	54.2
597.828	54.29
598.165	54.37
598.502	54.47
598.839	54.6
599.176	54.63
599.512	54.64
599.849	54.68
600.186	54.79
600.523	54.85
600.859	54.85
601.196	54.93
601.532	55.11
601.869	55.14
602.205	55.24
602.542	55.38
602.878	55.4
603.215	55.47
603.551	55.52
603.887	55.54
604.223	55.55
604.56	55.53
604.896	55.55
605.232	55.55
605.568	55.6
605.904	55.7
606.24	55.78
606.576	55.8
606.912	55.86
607.248	55.87
607.583	56.02
607.919	56.1
608.255	56.08
608.591	56.05
608.926	56.12
609.262	56.15
609.597	56.16
609.933	56.16
610.268	56.19
610.604	56.24
610.939	56.29
611.275	56.39
611.61	56.51
611.945	56.51
612.281	56.61
612.616	56.6
612.951	56.56
613.286	56.57
613.621	56.63
613.956	56.65
614.291	56.62
614.626	56.51
614.961	56.57
615.296	56.68
615.631	56.68
615.966	56.74
616.3	56.84
616.635	56.91
616.97	56.96
617.304	57.02
617.639	57
617.973	57.03
618.308	56.97
618.642	56.95
618.977	56.92
619.311	56.89
619.646	57.06
619.98	57.11
620.314	57.16
620.648	57.22
620.983	57.25
621.317	57.35
621.651	57.38
621.985	57.41
622.319	57.4
622.653	57.48
622.987	57.46
623.321	57.51
623.655	57.63
623.988	57.75
624.322	57.78
624.656	57.78
624.99	57.8
625.323	57.86
625.657	57.87
625.99	57.93
626.324	57.97
626.657	57.95
626.991	58.04
627.324	58.1
627.658	58.03
627.991	58.03
628.324	58.01
628.657	58.04
628.991	58.08
629.324	58.13
629.657	58.09
629.99	58.06
630.323	58.06
630.656	58.02
630.989	57.98
631.322	57.95
631.655	58.01
631.987	58.01
632.32	58.01
632.653	58.02
632.986	58.06
633.318	58.15
633.651	58.09
633.984	57.98
634.316	57.95
634.649	58.05
634.981	58.09
635.313	58.09
635.646	58.13
635.978	58.21
636.31	58.15
636.643	58.2
636.975	58.19
637.307	58.2
637.639	58.14
637.971	58.19
638.303	58.25
638.635	58.2
638.967	58.25
639.299	58.27
639.631	58.34
639.963	58.35
640.295	58.31
640.626	58.44
640.958	58.53
641.29	58.61
641.621	58.59
641.953	58.59
642.285	58.69
642.616	58.65
642.948	58.58
643.279	58.7
643.61	58.76
643.942	58.88
644.273	58.85
644.604	58.81
644.936	58.86
645.267	58.86
645.598	59.01
645.929	59
646.26	58.99
646.591	59.09
646.922	59.06
647.253	59.07
647.584	58.94
647.915	58.9
648.245	58.89
648.576	58.94
648.907	58.92
649.238	58.96
649.568	59.03
649.899	59.05
650.229	59.01
650.56	59.01
650.89	58.98
651.221	59
651.551	59.11
651.882	59.04
652.212	59.05
652.542	58.97
652.872	58.98
653.203	58.98
653.533	58.89
653.863	59.02
654.193	59.01
654.523	59.05
654.853	59.17
655.183	59.15
655.513	59.23
655.843	59.41
656.172	59.45
656.502	59.44
656.832	59.43
657.162	59.52
657.491	59.56
657.821	59.69
658.15	59.82
658.48	59.78
658.809	59.83
659.139	60
659.468	59.98
659.798	60.07
660.127	60.13
660.456	60.17
660.785	60.17
661.115	60.27
661.444	60.34
661.773	60.33
662.102	60.32
662.431	60.31
662.76	60.32
663.089	60.32
663.418	60.3
663.747	60.29
664.076	60.25
664.404	60.23
664.733	60.14
665.062	59.97
665.39	59.97
665.719	59.93
666.048	59.79
666.376	59.87
666.705	59.83
667.033	59.73
667.362	59.71
667.69	59.67
668.018	59.57
668.347	59.57
668.675	59.48
669.003	59.48
669.331	59.48
669.659	59.43
669.987	59.36
670.315	59.31
670.643	59.37
670.971	59.37
671.299	59.33
671.627	59.38
671.955	59.37
672.283	59.32
672.61	59.39
672.938	59.44
673.266	59.5
673.593	59.54
673.921	59.69
674.249	59.67
674.576	59.58
674.904	59.55
675.231	59.55
675.558	59.62
675.886	59.65
676.213	59.62
676.54	59.68
676.867	59.77
677.195	59.87
677.522	59.85
677.849	59.89
678.176	60
678.503	59.94
678.83	60.03
679.157	60.1
679.484	60.15
679.81	60.1
680.137	60.09
680.464	60.11
680.791	60.05
681.117	60.06
681.444	60.11
681.771	60.19
682.097	60.18
682.424	60.07
682.75	60.11
683.077	60.03
683.403	59.85
683.729	59.77
684.056	59.78
684.382	59.9
684.708	59.88
685.034	59.79
685.36	59.82
685.686	59.79
686.012	59.85
686.339	59.91
686.664	59.94
686.99	59.86
687.316	59.81
687.642	59.86
687.968	59.84
688.294	59.89
688.619	59.9
688.945	59.83
689.271	59.95
689.596	59.98
689.922	60.08
690.247	60.2
690.573	60.2
690.898	60.19
691.224	60.18
691.549	60.15
691.874	60.09
692.2	60.06
692.525	60.12
692.85	60.01
693.175	59.76
693.5	59.93
693.825	59.97
694.15	60.06
694.475	60.04
694.8	60.11
695.125	60.09
695.45	59.99
695.775	60.25
696.099	60.36
696.424	60.46
696.749	60.51
697.073	60.55
697.398	60.65
697.723	60.59
698.047	60.59
698.372	60.58
698.696	60.64
699.02	60.62
699.345	60.56
699.669	60.71
699.993	60.82
700.318	60.73
700.642	60.71
700.966	60.62
701.29	60.64
701.614	60.73
701.938	60.83
702.262	60.86
702.586	60.79
702.91	60.72
703.234	60.63
703.557	60.65
703.881	60.59
704.205	60.5
704.529	60.51
704.852	60.47
705.176	60.56
705.499	60.77
705.823	60.72
706.146	60.92
706.47	60.73
706.793	60.69
707.117	60.53
707.44	60.58
707.763	60.7
708.086	60.73
708.409	60.62
708.733	60.51
709.056	60.59
709.379	60.43
709.702	60.45
710.025	60.51
710.348	60.61
710.671	60.55
710.993	60.71
711.316	60.78
711.639	60.86
711.962	60.92
712.284	60.65
712.607	60.79
712.93	60.65
713.252	60.62
713.575	60.55
713.897	60.7
714.22	60.61
714.542	60.55
714.864	60.51
715.187	60.72
715.509	60.74
715.831	60.63
716.153	60.76
716.475	60.67
716.798	60.76
717.12	60.51
717.442	60.67
717.764	60.42
718.085	60.36
718.407	60.17
718.729	60.11
719.051	60.25
719.373	60.24
719.695	60.35
720.016	60.44
720.338	60.52
720.659	60.43
720.981	60.6
721.302	60.6
721.624	60.71
721.945	60.3
722.267	60.6
722.588	60.72
722.909	60.74
723.231	60.88
723.552	60.7
723.873	60.66
724.194	60.53
724.515	60.52
724.836	60.34
725.157	60.32
725.478	60.42
725.799	60.33
726.12	60.26
726.441	60.2
726.762	60.16
727.083	60.24
727.403	60.42
727.724	60.45
728.045	60.25
728.365	60.12
728.686	60.28
729.006	60.12
729.327	60.11
729.647	60.02
729.967	60.02
730.288	60.08
730.608	60.26
730.928	60.27
731.249	60.33
731.569	60.52
731.889	60.55
732.209	60.56
732.529	60.56
732.849	60.48
733.169	60.28
733.489	60.35
733.809	60.25
734.129	59.99
734.448	59.77
734.768	59.93
735.088	59.89
735.408	59.99
735.727	59.94
736.047	59.95
736.366	59.7
736.686	59.71
737.005	59.7
737.325	59.71
737.644	59.81
737.963	60.03
738.283	60.13
738.602	60.18
738.921	60.23
739.24	60.42
739.56	60.52
739.879	60.98
740.198	61.03
740.517	61.16
740.836	61.47
741.155	61.66
741.473	61.59
741.792	61.61
742.111	61.54
742.43	61.45
742.748	61.59
743.067	61.93
743.386	62.12
743.704	62.12
744.023	62.23
744.341	61.98
744.66	61.8
744.978	61.66
745.297	61.8
745.615	61.66
745.933	61.5
746.252	61.53
746.57	61.02
746.888	61.28
747.206	61.19
747.524	60.74
747.842	60.55
748.16	60.34
748.478	60.49
748.796	60.54
749.114	60.58
749.432	60.62
749.749	60.37
750.067	60.38
750.385	60.33
750.703	59.95
751.02	60.29
751.338	60.26
751.655	60.54
751.973	60.24
752.29	60.27
752.608	60.47
752.925	60.31
753.242	60.41
753.56	59.99
753.877	60.3
754.194	60.71
754.511	60.99
754.828	61.27
755.145	61.27
755.462	61.34
755.779	61.46
756.096	61.37
756.413	61.61
756.73	61.2
757.047	61.33
757.364	61.37
757.68	61.31
757.997	61.57
758.314	61.73
758.63	61.86
758.947	61.99
759.264	62.28
759.58	62.29
759.896	62.55
760.213	62.91
760.529	62.69
760.846	62.58
761.162	62.56
761.478	62.44
761.794	62.67
762.11	62.62
762.426	62.3
762.743	62.19
763.059	62.45
763.375	62.57
763.69	62.45
764.006	62.72
764.322	62.6
764.638	62.47
764.954	62.35
765.27	62.48
765.585	62.36
765.901	61.98
766.216	62.21
766.532	62.04
766.848	61.76
767.163	61.48
767.478	61.51
767.794	61.36
768.109	61.57
768.424	61.07
768.74	61.11
769.055	61.21
769.37	61.25
769.685	61.23
770	61.1
770.315	61.4
770.63	61.52
770.945	61.47
771.26	61.29
771.575	61.04
771.89	60.89
772.205	60.73
772.52	60.89
772.834	60.82
773.149	61.18
773.464	61.08
773.778	61.32
774.093	61.08
774.407	61.23
774.722	61.11
775.036	61.72
775.351	61.76
775.665	61.85
775.979	61.71
776.293	61.78
776.608	61.62
776.922	61.24
777.236	60.93
777.55	61.05
777.864	60.98
778.178	61.21
778.492	61.13
778.806	61.57
779.12	61.3
779.434	60.83
779.747	60.71
780.061	60.72
780.375	60.71
780.689	61.04
781.002	61.19
781.316	61.4
781.629	61.05
781.943	60.14
782.256	60
782.57	60.41
782.883	59.79
783.196	59.75
783.51	60.37
783.823	60.55
784.136	60.56
784.449	60.63
784.762	60.55
785.075	60.59
785.388	60.14
785.701	60.32
786.014	60.35
786.327	60
786.64	60.22
786.953	60.49
787.266	59.88
787.578	59.57
787.891	59.27
788.204	59.68
788.516	60.25
788.829	60.68
789.141	60.51
789.454	60.73
789.766	61.16
790.079	60.57
790.391	60.28
790.703	60.59
791.016	61.02
791.328	61.26
791.64	61.55
791.952	61.63
792.264	61.71
792.576	62.17
792.888	62.59
793.2	62.63
793.512	62.51
793.824	63.22
794.136	63.11
794.448	63.24
794.76	62.53
795.071	62.94
795.383	62.63
795.695	62.34
796.006	62.36
796.318	62.27
796.629	61.68
796.941	61.66
797.252	61.25
797.564	61.12
797.875	60.54
798.186	60.2
798.497	60.04
798.809	59.42
799.12	59.18
799.431	58.62
799.742	58.49
800.053	58.61
800.364	59.08
800.675	59.76
800.986	59.52
801.297	59.39
801.608	58.92
801.918	58.77
802.229	58.91
802.54	58.49
802.851	58.42
803.161	59.18
803.472	59.18
803.782	59.54
804.093	59.26
804.403	59.89
804.714	59.69
805.024	59.78
805.334	60.53
805.645	60.52
805.955	60.53
806.265	60.98
806.575	61
806.885	59.73
807.195	59.78
807.505	59.41
807.815	60.36
808.125	60.23
808.435	60.68
808.745	60.62
809.055	60.15
809.365	60.17
809.674	59.87
809.984	59.72
810.294	59.75
810.603	59.77
810.913	59.05
811.222	59.68
811.532	59.77
811.841	58.98
812.151	59.53
812.46	59.98
812.769	59.61
813.079	59.23
813.388	59.6
813.697	58.72
814.006	59.45
814.315	59.06
814.624	59.35
814.933	59.28
815.242	59.27
815.551	60.3
815.86	61.09
816.169	60.3
816.478	60.99
816.786	60.42
817.095	60.54
817.404	60.93
817.712	60.27
818.021	60.18
818.33	61.11
818.638	61.26
818.947	61.18
819.255	61.23
819.563	62.08
819.872	61.94
820.18	62.16
820.488	61.93
820.796	62.1
821.105	62.31
821.413	62.44
821.721	62.62
822.029	62.48
822.337	62.2
822.645	62.4
822.953	62.23
823.26	62.38
823.568	62.21
823.876	61.99
824.184	62.11
824.491	62.28
824.799	62.18
825.107	61.98
825.414	62
825.722	62.16
826.029	62.02
826.337	62.19
826.644	62.26
826.951	62.48
827.259	62.41
827.566	62.5
827.873	62.28
828.18	62.13
828.488	62.16
828.795	62.31
829.102	62.52
829.409	62.68
829.716	62.51
830.023	62.49
830.329	62.99
830.636	63.12
830.943	62.94
831.25	62.74
831.557	62.75
831.863	62.9
832.17	62.61
832.476	62.37
832.783	61.83
833.089	61.93
833.396	62.08
833.702	62.29
834.009	61.67
834.315	61.64
834.621	61.6
834.928	62.06
835.234	61.78
835.54	61.32
835.846	61.24
836.152	61.24
836.458	61.39
836.764	61.22
837.07	61.15
837.376	60.79
837.682	61.71
837.988	62.16
838.293	62.39
838.599	63.11
838.905	63.28
839.211	64.09
839.516	63.6
839.822	62.6
840.127	62.53
840.433	62.64
840.738	63.83
841.044	64.1
841.349	62.05
841.654	61.44
841.959	62.16
842.265	62.66
842.57	63.3
842.875	64.4
843.18	65.05
843.485	64.81
843.79	65.98
844.095	64.9
844.4	63.71
844.705	62.59
845.01	61.34
845.315	61.62
845.619	61.31
845.924	60.71
846.229	62.04
846.533	61.88
846.838	59.95
847.142	58.02
847.447	57.35
847.751	59.55
848.056	60.6
848.36	59.62
848.664	59.19
848.969	58.54
849.273	57.88
849.577	57.41
849.881	57.51
850.185	56.83
850.489	57.64
850.794	59.81
851.097	60.79
851.401	59.47
851.705	57.34
852.009	57.17
852.313	57.15
852.617	55.59
852.92	54.15
853.224	56.13
853.528	57.78
853.831	60.41
854.135	60.8
854.438	60.09
854.742	60.49
855.045	60.04
855.349	58.66
855.652	58.61
855.955	57.3
856.259	58.5
856.562	55.9
856.865	54.15
857.168	52.01
857.471	49.31
857.774	49.52
858.077	50.41
858.38	49.98
858.683	50.45
858.986	50.22
859.289	50.9
859.592	51.65
859.894	50.38
860.197	47.74
860.5	47.14
860.802	49.73
861.105	49.98
861.407	49.36
861.71	48.65
862.012	48.68
862.315	47.96
862.617	44.63
862.919	47.77
863.222	48.21
863.524	49.56
863.826	52.25
864.128	55.08
864.43	55.99
864.732	57.29
865.034	58.5
865.336	60.29
865.638	61.44
865.94	62.08
866.242	63.53
866.544	62.73
866.846	64.26
867.147	63.37
867.449	61.68
867.751	59.64
868.052	59.75
868.354	57.58
868.655	58.54
868.957	59
869.258	59.22
869.56	59.68
869.861	59.55
870.162	58.04
870.463	55.87
870.765	58.54
871.066	58.32
871.367	57.61
871.668	58.82
871.969	57.99
872.27	56.57
872.571	54.92
872.872	54.85
873.173	54.24
873.473	55.41
873.774	56.58
874.075	57.57
874.376	59.11
874.676	59.72
874.977	60.19
875.277	61.04
875.578	62.56
875.878	62.28
876.179	62.57
876.479	64.17
876.78	64.7
877.08	60.52
877.38	59.65
877.68	60.32
877.981	56.44
878.281	56.21
878.581	56.91
