Data from BU58119_Reflection_00006.txt Node
Date: Tue Nov 19 10:50:49 EST 2019
User: vgr7
Spectrometer: USB2G7710
Scans to average: 3
Trigger mode: 4
Integration Time (sec): 2.000000E-2
Electric dark correction enabled: true
Boxcar width: 10
XAxis mode: Wavelengths
Number of Pixels in Spectrum: 2048
>>>>>Begin Spectral Data<<<<<
177.721	-243.45
178.105	-99.03
178.488	-65.71
178.871	-68.18
179.254	360
179.636	-33.62
180.019	-159.66
180.402	103.7
180.785	709.09
181.168	492.86
181.55	207.77
181.933	114.81
182.316	344.39
182.698	62.76
183.081	89.95
183.463	48.98
183.846	61.2
184.228	211.51
184.611	78.26
184.993	-33.8
185.376	-201.44
185.758	740.19
186.14	188.06
186.522	137.96
186.904	121.52
187.287	18.71
187.669	37.24
188.051	-4
188.433	-3.64
188.815	39.56
189.197	52.98
189.579	42.83
189.961	24.83
190.342	24.17
190.724	9.53
191.106	-1.3
191.488	-14.38
191.869	3.69
192.251	4.69
192.633	17.97
193.014	11.46
193.396	-2.87
193.777	-8.24
194.159	-6.45
194.54	-6.86
194.922	2.28
195.303	16.22
195.684	10.3
196.065	23.33
196.447	19.11
196.828	2.61
197.209	22.72
197.59	32.94
197.971	32.14
198.352	42.03
198.733	38.89
199.114	57.6
199.495	92.47
199.876	79.66
200.257	348.25
200.638	249.35
201.018	-754.84
201.399	108.53
201.78	153.9
202.16	107.46
202.541	498.31
202.922	-4.03
203.302	138.46
203.683	960
204.063	-252.63
204.444	184.16
204.824	4800
205.204	73.83
205.585	72.4
205.965	70.07
206.345	60.67
206.725	63.2
207.106	54.55
207.486	37.22
207.866	44.34
208.246	34.3
208.626	35.85
209.006	42.92
209.386	45.37
209.766	52.48
210.145	53.22
210.525	65.19
210.905	83.49
211.285	65.69
211.664	70.08
212.044	71.51
212.424	62.09
212.803	61.31
213.183	45.12
213.562	45.77
213.942	45.42
214.321	40.88
214.701	30.23
215.08	29.62
215.459	27.52
215.838	23.71
216.218	33
216.597	25.29
216.976	24.54
217.355	30.3
217.734	23.63
218.113	18.05
218.492	0.17
218.871	-0.81
219.25	4.8
219.629	2.83
220.008	7.96
220.387	10.73
220.766	11.61
221.144	10.77
221.523	2.2
221.902	1.78
222.28	13.55
222.659	31.38
223.037	27.38
223.416	35.54
223.794	43.12
224.173	35.94
224.551	43.42
224.929	31.05
225.308	23.57
225.686	17.79
226.064	18.16
226.442	21.14
226.821	15.37
227.199	9.08
227.577	12.47
227.955	11.27
228.333	10.58
228.711	6.01
229.089	7.14
229.467	4.37
229.845	3.35
230.222	5.68
230.6	-0.45
230.978	1.93
231.356	0.72
231.733	2.72
232.111	4.36
232.488	4.8
232.866	6.73
233.243	5.38
233.621	8.4
233.998	8.61
234.376	10.48
234.753	9.27
235.13	10.24
235.508	9.09
235.885	7.66
236.262	5.3
236.639	6.42
237.016	6.69
237.393	8.88
237.77	9.71
238.147	10.28
238.524	10.9
238.901	9.87
239.278	8.93
239.655	7.79
240.032	7.05
240.409	6.41
240.785	5.57
241.162	5.42
241.539	4.69
241.915	5.08
242.292	4.87
242.668	5.99
243.045	6.14
243.421	6.09
243.798	6.24
244.174	6.52
244.551	6.34
244.927	6.14
245.303	5.59
245.679	5.5
246.056	5.13
246.432	5.07
246.808	5.1
247.184	5.39
247.56	5.25
247.936	5.46
248.312	5.37
248.688	5.55
249.064	5.4
249.44	5.56
249.815	5.5
250.191	5.57
250.567	4.93
250.943	4.93
251.318	4.79
251.694	4.74
252.069	4.75
252.445	4.96
252.82	5.36
253.196	5.46
253.571	5.39
253.947	5.75
254.322	5.83
254.697	5.98
255.073	5.68
255.448	5.42
255.823	5.27
256.198	5.68
256.573	5.56
256.948	5.77
257.323	5.88
257.698	5.93
258.073	5.77
258.448	5.91
258.823	5.55
259.198	5.56
259.573	5.33
259.948	5.26
260.322	5.04
260.697	5.09
261.072	5.15
261.446	5.03
261.821	4.77
262.195	4.68
262.57	4.7
262.944	4.79
263.319	4.88
263.693	4.75
264.067	4.54
264.442	4.49
264.816	4.52
265.19	4.31
265.564	4.08
265.938	4.03
266.313	3.91
266.687	4.04
267.061	4.04
267.435	4.3
267.809	4.17
268.183	4.13
268.556	3.88
268.93	3.98
269.304	4.01
269.678	4.23
270.051	4.32
270.425	4.28
270.799	4.05
271.172	4.12
271.546	4.39
271.919	4.36
272.293	4.31
272.666	4.33
273.04	4.34
273.413	4.41
273.787	4.38
274.16	4.47
274.533	4.57
274.906	4.47
275.279	4.48
275.653	4.7
276.026	4.86
276.399	4.87
276.772	4.73
277.145	4.79
277.518	4.44
277.891	4.41
278.263	4.27
278.636	4.46
279.009	4.52
279.382	4.34
279.755	4.5
280.127	4.51
280.5	4.45
280.872	4.43
281.245	4.29
281.617	4.32
281.99	4.31
282.362	4.2
282.735	4.33
283.107	4.09
283.479	4.03
283.852	4.1
284.224	3.94
284.596	3.97
284.968	3.89
285.34	4.09
285.713	4.12
286.085	4.11
286.457	4.05
286.829	4
287.201	3.85
287.572	3.8
287.944	4.02
288.316	3.94
288.688	4.11
289.06	4.14
289.431	4.23
289.803	4.29
290.175	4.33
290.546	4.31
290.918	4.55
291.289	4.45
291.661	4.43
292.032	4.68
292.403	4.62
292.775	4.81
293.146	4.85
293.517	4.75
293.889	4.87
294.26	5.01
294.631	4.98
295.002	5.1
295.373	5.25
295.744	5.17
296.115	5.27
296.486	5.18
296.857	5.31
297.228	5.21
297.599	5.18
297.97	5.24
298.34	5.3
298.711	5.28
299.082	5.35
299.452	5.3
299.823	5.35
300.194	5.3
300.564	5.3
300.935	5.34
301.305	5.46
301.676	5.42
302.046	5.34
302.416	5.42
302.787	5.43
303.157	5.2
303.527	5.33
303.897	5.27
304.267	5.27
304.637	5.2
305.008	5.19
305.378	5.28
305.748	5.24
306.117	5.24
306.487	5.28
306.857	5.24
307.227	5.35
307.597	5.22
307.967	5.34
308.336	5.19
308.706	5.1
309.076	5.2
309.445	5.38
309.815	5.55
310.184	5.45
310.554	5.43
310.923	5.57
311.293	5.45
311.662	5.61
312.031	5.56
312.401	5.51
312.77	5.63
313.139	5.5
313.508	5.47
313.877	5.33
314.246	5.25
314.616	5.37
314.985	5.18
315.353	5.24
315.722	5.19
316.091	5.3
316.46	5.34
316.829	5.3
317.198	5.12
317.567	5.01
317.935	5.15
318.304	5.23
318.672	5.13
319.041	5.07
319.41	4.89
319.778	5.09
320.147	5.12
320.515	5.08
320.883	5.08
321.252	5.06
321.62	5.02
321.988	5.04
322.357	4.86
322.725	4.94
323.093	4.81
323.461	4.86
323.829	4.83
324.197	4.79
324.565	4.72
324.933	4.81
325.301	4.62
325.669	4.65
326.037	4.67
326.405	4.71
326.772	4.82
327.14	4.79
327.508	4.76
327.875	4.8
328.243	4.86
328.61	4.81
328.978	4.8
329.346	4.96
329.713	4.99
330.08	4.95
330.448	5.02
330.815	5.12
331.182	5.11
331.55	5.15
331.917	5.18
332.284	5.17
332.651	5.18
333.018	5.25
333.385	5.22
333.752	5.14
334.119	5.15
334.486	5.12
334.853	5.23
335.22	4.97
335.587	4.87
335.954	4.72
336.32	4.68
336.687	4.81
337.054	4.77
337.42	4.76
337.787	4.76
338.153	4.8
338.52	4.81
338.886	4.87
339.253	4.83
339.619	4.99
339.986	4.83
340.352	4.71
340.718	4.77
341.084	4.79
341.451	4.8
341.817	4.74
342.183	4.56
342.549	4.58
342.915	4.67
343.281	4.66
343.647	4.72
344.013	4.76
344.379	4.71
344.745	4.71
345.11	4.69
345.476	4.85
345.842	4.81
346.208	4.76
346.573	4.82
346.939	4.81
347.304	4.62
347.67	4.71
348.035	4.72
348.401	4.68
348.766	4.68
349.132	4.81
349.497	4.84
349.862	4.87
350.228	4.89
350.593	4.91
350.958	5.01
351.323	5.04
351.688	5.13
352.053	5.19
352.418	5.15
352.783	5.21
353.148	5.2
353.513	5.16
353.878	5.21
354.243	5.19
354.608	5.23
354.972	5.3
355.337	5.31
355.702	5.29
356.066	5.31
356.431	5.27
356.795	5.21
357.16	5.2
357.524	5.2
357.889	5.08
358.253	5.05
358.618	5.04
358.982	4.96
359.346	4.93
359.71	4.81
360.075	4.88
360.439	4.83
360.803	4.78
361.167	4.69
361.531	4.65
361.895	4.55
362.259	4.55
362.623	4.49
362.987	4.47
363.351	4.46
363.714	4.49
364.078	4.47
364.442	4.42
364.806	4.49
365.169	4.55
365.533	4.63
365.896	4.71
366.26	4.65
366.623	4.59
366.987	4.57
367.35	4.64
367.714	4.6
368.077	4.57
368.44	4.58
368.803	4.66
369.167	4.68
369.53	4.74
369.893	4.76
370.256	4.77
370.619	4.77
370.982	4.76
371.345	4.7
371.708	4.69
372.071	4.62
372.434	4.5
372.797	4.56
373.159	4.48
373.522	4.39
373.885	4.44
374.247	4.49
374.61	4.53
374.973	4.53
375.335	4.48
375.698	4.47
376.06	4.45
376.423	4.4
376.785	4.45
377.147	4.43
377.51	4.37
377.872	4.39
378.234	4.44
378.596	4.44
378.958	4.42
379.321	4.38
379.683	4.46
380.045	4.52
380.407	4.47
380.769	4.46
381.13	4.49
381.492	4.45
381.854	4.49
382.216	4.51
382.578	4.54
382.939	4.56
383.301	4.59
383.663	4.67
384.024	4.7
384.386	4.67
384.747	4.58
385.109	4.6
385.47	4.57
385.832	4.56
386.193	4.56
386.554	4.55
386.916	4.58
387.277	4.55
387.638	4.53
387.999	4.54
388.36	4.59
388.721	4.59
389.082	4.68
389.443	4.67
389.804	4.6
390.165	4.58
390.526	4.61
390.887	4.63
391.248	4.61
391.609	4.62
391.969	4.62
392.33	4.68
392.691	4.7
393.051	4.73
393.412	4.73
393.772	4.75
394.133	4.8
394.493	4.77
394.854	4.75
395.214	4.77
395.574	4.73
395.935	4.72
396.295	4.7
396.655	4.64
397.015	4.62
397.376	4.67
397.736	4.64
398.096	4.6
398.456	4.61
398.816	4.6
399.176	4.55
399.535	4.57
399.895	4.55
400.255	4.51
400.615	4.52
400.975	4.48
401.334	4.51
401.694	4.45
402.054	4.46
402.413	4.46
402.773	4.46
403.132	4.47
403.492	4.47
403.851	4.49
404.211	4.52
404.57	4.5
404.929	4.49
405.288	4.49
405.648	4.47
406.007	4.44
406.366	4.41
406.725	4.43
407.084	4.41
407.443	4.41
407.802	4.43
408.161	4.41
408.52	4.41
408.879	4.4
409.238	4.38
409.596	4.39
409.955	4.4
410.314	4.37
410.673	4.36
411.031	4.32
411.39	4.33
411.748	4.28
412.107	4.29
412.465	4.28
412.824	4.29
413.182	4.33
413.54	4.33
413.899	4.33
414.257	4.36
414.615	4.33
414.974	4.33
415.332	4.33
415.69	4.34
416.048	4.35
416.406	4.3
416.764	4.35
417.122	4.33
417.48	4.33
417.838	4.31
418.195	4.31
418.553	4.34
418.911	4.34
419.269	4.35
419.626	4.34
419.984	4.35
420.342	4.35
420.699	4.33
421.057	4.33
421.414	4.31
421.772	4.31
422.129	4.3
422.486	4.29
422.844	4.3
423.201	4.3
423.558	4.29
423.915	4.31
424.273	4.31
424.63	4.31
424.987	4.32
425.344	4.33
425.701	4.34
426.058	4.34
426.415	4.33
426.772	4.34
427.128	4.35
427.485	4.34
427.842	4.34
428.199	4.35
428.555	4.38
428.912	4.38
429.269	4.37
429.625	4.39
429.982	4.41
430.338	4.39
430.695	4.38
431.051	4.38
431.407	4.39
431.764	4.37
432.12	4.39
432.476	4.39
432.832	4.39
433.189	4.4
433.545	4.4
433.901	4.4
434.257	4.39
434.613	4.37
434.969	4.37
435.325	4.36
435.681	4.35
436.036	4.31
436.392	4.34
436.748	4.35
437.104	4.34
437.459	4.34
437.815	4.34
438.171	4.36
438.526	4.37
438.882	4.36
439.237	4.35
439.593	4.34
439.948	4.33
440.304	4.33
440.659	4.32
441.014	4.29
441.369	4.29
441.725	4.29
442.08	4.28
442.435	4.27
442.79	4.28
443.145	4.27
443.5	4.28
443.855	4.25
444.21	4.25
444.565	4.25
444.92	4.26
445.275	4.26
445.629	4.25
445.984	4.25
446.339	4.26
446.693	4.25
447.048	4.25
447.403	4.25
447.757	4.24
448.112	4.24
448.466	4.26
448.82	4.25
449.175	4.24
449.529	4.26
449.883	4.27
450.238	4.27
450.592	4.27
450.946	4.26
451.3	4.27
451.654	4.26
452.008	4.28
452.362	4.28
452.716	4.26
453.07	4.26
453.424	4.23
453.778	4.23
454.132	4.23
454.486	4.22
454.839	4.24
455.193	4.24
455.547	4.25
455.9	4.25
456.254	4.26
456.607	4.28
456.961	4.28
457.314	4.27
457.668	4.27
458.021	4.28
458.375	4.29
458.728	4.29
459.081	4.29
459.434	4.29
459.787	4.29
460.141	4.3
460.494	4.3
460.847	4.3
461.2	4.31
461.553	4.33
461.906	4.34
462.259	4.32
462.611	4.32
462.964	4.33
463.317	4.33
463.67	4.31
464.022	4.29
464.375	4.29
464.728	4.3
465.08	4.3
465.433	4.31
465.785	4.32
466.138	4.32
466.49	4.34
466.843	4.34
467.195	4.32
467.547	4.32
467.899	4.34
468.252	4.37
468.604	4.35
468.956	4.36
469.308	4.35
469.66	4.36
470.012	4.38
470.364	4.35
470.716	4.35
471.068	4.37
471.42	4.4
471.772	4.39
472.123	4.4
472.475	4.41
472.827	4.4
473.178	4.37
473.53	4.39
473.882	4.39
474.233	4.38
474.585	4.39
474.936	4.38
475.288	4.36
475.639	4.34
475.99	4.34
476.342	4.35
476.693	4.37
477.044	4.36
477.395	4.38
477.746	4.39
478.097	4.39
478.448	4.36
478.8	4.34
479.15	4.34
479.501	4.34
479.852	4.33
480.203	4.36
480.554	4.39
480.905	4.39
481.255	4.4
481.606	4.42
481.957	4.43
482.307	4.44
482.658	4.45
483.009	4.44
483.359	4.44
483.709	4.44
484.06	4.43
484.41	4.44
484.761	4.43
485.111	4.42
485.461	4.43
485.811	4.44
486.162	4.44
486.512	4.46
486.862	4.46
487.212	4.47
487.562	4.46
487.912	4.45
488.262	4.45
488.612	4.44
488.961	4.43
489.311	4.44
489.661	4.42
490.011	4.42
490.36	4.43
490.71	4.44
491.06	4.44
491.409	4.43
491.759	4.44
492.108	4.45
492.458	4.46
492.807	4.45
493.157	4.44
493.506	4.47
493.855	4.45
494.204	4.46
494.554	4.45
494.903	4.45
495.252	4.47
495.601	4.47
495.95	4.5
496.299	4.52
496.648	4.53
496.997	4.55
497.346	4.56
497.695	4.56
498.043	4.56
498.392	4.57
498.741	4.59
499.09	4.62
499.438	4.61
499.787	4.61
500.135	4.64
500.484	4.66
500.832	4.64
501.181	4.66
501.529	4.69
501.878	4.7
502.226	4.7
502.574	4.71
502.923	4.71
503.271	4.67
503.619	4.67
503.967	4.65
504.315	4.65
504.663	4.65
505.011	4.67
505.359	4.67
505.707	4.65
506.055	4.67
506.403	4.65
506.751	4.66
507.098	4.69
507.446	4.69
507.794	4.7
508.141	4.71
508.489	4.72
508.837	4.7
509.184	4.73
509.531	4.75
509.879	4.73
510.226	4.74
510.574	4.78
510.921	4.78
511.268	4.8
511.616	4.82
511.963	4.81
512.31	4.82
512.657	4.85
513.004	4.87
513.351	4.86
513.698	4.87
514.045	4.87
514.392	4.85
514.739	4.85
515.086	4.86
515.432	4.9
515.779	4.93
516.126	4.92
516.473	4.91
516.819	4.92
517.166	4.93
517.512	4.93
517.859	4.92
518.205	4.92
518.552	4.93
518.898	4.92
519.245	4.94
519.591	4.95
519.937	4.95
520.283	4.93
520.629	4.93
520.976	4.94
521.322	4.96
521.668	4.99
522.014	5.01
522.36	5.01
522.706	5
523.052	5
523.398	5.02
523.743	5.03
524.089	5.03
524.435	5.04
524.781	5.04
525.126	5.05
525.472	5.07
525.817	5.07
526.163	5.07
526.509	5.07
526.854	5.07
527.199	5.07
527.545	5.08
527.89	5.09
528.235	5.09
528.581	5.08
528.926	5.07
529.271	5.06
529.616	5.06
529.961	5.05
530.306	5.05
530.651	5.03
530.996	5.04
531.341	5.04
531.686	5.04
532.031	5.03
532.376	5.03
532.721	5.03
533.065	5.03
533.41	5.04
533.755	5.03
534.099	5.03
534.444	5.03
534.788	5.04
535.133	5.05
535.477	5.09
535.822	5.1
536.166	5.11
536.51	5.12
536.855	5.13
537.199	5.14
537.543	5.15
537.887	5.18
538.231	5.17
538.576	5.18
538.92	5.18
539.264	5.19
539.608	5.19
539.951	5.18
540.295	5.18
540.639	5.18
540.983	5.18
541.327	5.18
541.671	5.19
542.014	5.18
542.358	5.17
542.701	5.16
543.045	5.14
543.389	5.13
543.732	5.14
544.075	5.13
544.419	5.12
544.762	5.11
545.105	5.12
545.449	5.12
545.792	5.12
546.135	5.13
546.478	5.12
546.821	5.17
547.165	5.19
547.508	5.19
547.851	5.18
548.194	5.18
548.536	5.18
548.879	5.19
549.222	5.21
549.565	5.19
549.908	5.17
550.25	5.16
550.593	5.18
550.936	5.14
551.278	5.17
551.621	5.18
551.963	5.22
552.306	5.22
552.648	5.23
552.991	5.21
553.333	5.19
553.675	5.19
554.017	5.13
554.36	5.14
554.702	5.16
555.044	5.17
555.386	5.21
555.728	5.21
556.07	5.21
556.412	5.21
556.754	5.23
557.096	5.25
557.438	5.28
557.78	5.27
558.121	5.31
558.463	5.31
558.805	5.31
559.147	5.28
559.488	5.27
559.83	5.28
560.171	5.28
560.513	5.31
560.854	5.3
561.196	5.32
561.537	5.31
561.878	5.32
562.22	5.32
562.561	5.29
562.902	5.3
563.243	5.31
563.584	5.29
563.925	5.31
564.266	5.31
564.607	5.34
564.948	5.38
565.289	5.37
565.63	5.35
565.971	5.36
566.312	5.34
566.653	5.36
566.993	5.34
567.334	5.37
567.675	5.36
568.015	5.35
568.356	5.33
568.696	5.34
569.037	5.33
569.377	5.34
569.718	5.33
570.058	5.32
570.398	5.31
570.739	5.33
571.079	5.31
571.419	5.32
571.759	5.3
572.099	5.27
572.439	5.24
572.779	5.25
573.119	5.25
573.459	5.25
573.799	5.24
574.139	5.24
574.479	5.2
574.819	5.19
575.158	5.2
575.498	5.2
575.838	5.18
576.177	5.15
576.517	5.16
576.856	5.2
577.196	5.21
577.535	5.23
577.875	5.21
578.214	5.21
578.553	5.19
578.893	5.21
579.232	5.23
579.571	5.28
579.91	5.31
580.25	5.29
580.589	5.3
580.928	5.29
581.267	5.29
581.606	5.32
581.945	5.32
582.283	5.32
582.622	5.36
582.961	5.34
583.3	5.36
583.639	5.36
583.977	5.34
584.316	5.35
584.654	5.36
584.993	5.35
585.332	5.34
585.67	5.37
586.008	5.36
586.347	5.32
586.685	5.28
587.024	5.26
587.362	5.28
587.7	5.3
588.038	5.31
588.376	5.38
588.715	5.37
589.053	5.42
589.391	5.41
589.729	5.39
590.067	5.44
590.404	5.47
590.742	5.46
591.08	5.48
591.418	5.49
591.756	5.52
592.093	5.54
592.431	5.58
592.769	5.58
593.106	5.56
593.444	5.59
593.781	5.65
594.119	5.64
594.456	5.65
594.793	5.65
595.131	5.66
595.468	5.64
595.805	5.68
596.143	5.67
596.48	5.7
596.817	5.71
597.154	5.7
597.491	5.7
597.828	5.67
598.165	5.64
598.502	5.65
598.839	5.63
599.176	5.65
599.512	5.61
599.849	5.64
600.186	5.66
600.523	5.7
600.859	5.69
601.196	5.73
601.532	5.73
601.869	5.7
602.205	5.7
602.542	5.65
602.878	5.63
603.215	5.62
603.551	5.59
603.887	5.62
604.223	5.61
604.56	5.63
604.896	5.66
605.232	5.68
605.568	5.68
605.904	5.66
606.24	5.67
606.576	5.69
606.912	5.65
607.248	5.69
607.583	5.65
607.919	5.63
608.255	5.6
608.591	5.66
608.926	5.69
609.262	5.72
609.597	5.75
609.933	5.73
610.268	5.75
610.604	5.76
610.939	5.76
611.275	5.77
611.61	5.75
611.945	5.75
612.281	5.77
612.616	5.75
612.951	5.77
613.286	5.7
613.621	5.7
613.956	5.7
614.291	5.63
614.626	5.68
614.961	5.75
615.296	5.76
615.631	5.68
615.966	5.66
616.3	5.65
616.635	5.68
616.97	5.74
617.304	5.67
617.639	5.7
617.973	5.67
618.308	5.66
618.642	5.7
618.977	5.65
619.311	5.65
619.646	5.65
619.98	5.66
620.314	5.68
620.648	5.67
620.983	5.66
621.317	5.75
621.651	5.73
621.985	5.7
622.319	5.7
622.653	5.7
622.987	5.7
623.321	5.74
623.655	5.73
623.988	5.71
624.322	5.77
624.656	5.78
624.99	5.71
625.323	5.76
625.657	5.79
625.99	5.85
626.324	5.87
626.657	5.89
626.991	5.88
627.324	5.93
627.658	5.94
627.991	5.98
628.324	5.93
628.657	5.88
628.991	5.87
629.324	5.92
629.657	5.9
629.99	5.91
630.323	5.9
630.656	5.89
630.989	5.91
631.322	5.89
631.655	5.84
631.987	5.93
632.32	5.88
632.653	5.86
632.986	5.89
633.318	5.93
633.651	5.95
633.984	5.94
634.316	5.98
634.649	5.98
634.981	5.98
635.313	6.05
635.646	6.1
635.978	6.1
636.31	6.08
636.643	6.16
636.975	6.14
637.307	6.16
637.639	6.15
637.971	6.13
638.303	6.15
638.635	6.23
638.967	6.19
639.299	6.24
639.631	6.21
639.963	6.17
640.295	6.11
640.626	6.09
640.958	6.06
641.29	6
641.621	5.99
641.953	5.96
642.285	5.95
642.616	5.98
642.948	5.97
643.279	5.95
643.61	5.94
643.942	5.94
644.273	5.98
644.604	6.03
644.936	6.02
645.267	6.01
645.598	6.09
645.929	6.11
646.26	6.08
646.591	6.14
646.922	6.18
647.253	6.15
647.584	6.18
647.915	6.18
648.245	6.22
648.576	6.17
648.907	6.21
649.238	6.17
649.568	6.16
649.899	6.2
650.229	6.26
650.56	6.28
650.89	6.34
651.221	6.23
651.551	6.25
651.882	6.24
652.212	6.26
652.542	6.24
652.872	6.21
653.203	6.25
653.533	6.23
653.863	6.25
654.193	6.25
654.523	6.23
654.853	6.3
655.183	6.24
655.513	6.27
655.843	6.28
656.172	6.31
656.502	6.28
656.832	6.25
657.162	6.18
657.491	6.16
657.821	6.17
658.15	6.24
658.48	6.21
658.809	6.23
659.139	6.28
659.468	6.25
659.798	6.28
660.127	6.22
660.456	6.24
660.785	6.17
661.115	6.21
661.444	6.18
661.773	6.16
662.102	6.2
662.431	6.21
662.76	6.19
663.089	6.15
663.418	6.18
663.747	6.15
664.076	6.17
664.404	6.17
664.733	6.12
665.062	6.07
665.39	6.06
665.719	6.09
666.048	5.99
666.376	6.01
666.705	5.97
667.033	6.03
667.362	5.99
667.69	6.13
668.018	6.1
668.347	6.13
668.675	6.17
669.003	6.09
669.331	6.21
669.659	6.27
669.987	6.35
670.315	6.29
670.643	6.32
670.971	6.25
671.299	6.23
671.627	6.2
671.955	6.16
672.283	6.23
672.61	6.17
672.938	6.21
673.266	6.24
673.593	6.21
673.921	6.14
674.249	6.1
674.576	6
674.904	5.96
675.231	6.02
675.558	6
675.886	6.13
676.213	6.07
676.54	6.02
676.867	5.96
677.195	5.99
677.522	5.99
677.849	6.04
678.176	6.04
678.503	6.1
678.83	6.1
679.157	6.1
679.484	6.2
679.81	6.29
680.137	6.28
680.464	6.35
680.791	6.4
681.117	6.39
681.444	6.39
681.771	6.39
682.097	6.31
682.424	6.29
682.75	6.33
683.077	6.33
683.403	6.36
683.729	6.33
684.056	6.34
684.382	6.35
684.708	6.41
685.034	6.51
685.36	6.46
685.686	6.52
686.012	6.45
686.339	6.37
686.664	6.23
686.99	6.11
687.316	6.13
687.642	6.14
687.968	6.25
688.294	6.26
688.619	6.29
688.945	6.44
689.271	6.49
689.596	6.36
689.922	6.33
690.247	6.38
690.573	6.44
690.898	6.59
691.224	6.72
691.549	6.79
691.874	6.74
692.2	6.76
692.525	6.68
692.85	6.84
693.175	6.96
693.5	6.97
693.825	7.07
694.15	7.01
694.475	7.07
694.8	7.01
695.125	6.99
695.45	6.99
695.775	6.84
696.099	6.93
696.424	6.92
696.749	6.9
697.073	6.9
697.398	6.96
697.723	6.89
698.047	6.85
698.372	6.79
698.696	6.73
699.02	6.82
699.345	6.9
699.669	6.86
699.993	6.69
700.318	6.75
700.642	6.86
700.966	6.91
701.29	6.87
701.614	6.89
701.938	6.96
702.262	7.03
702.586	7.19
702.91	7.13
703.234	7.14
703.557	7.26
703.881	7.22
704.205	7.26
704.529	7.17
704.852	7.16
705.176	7.14
705.499	7.21
705.823	7.11
706.146	7.12
706.47	7.09
706.793	7.23
707.117	7.24
707.44	7.1
707.763	7.13
708.086	7.02
708.409	7.04
708.733	6.94
709.056	6.88
709.379	6.81
709.702	6.78
710.025	6.87
710.348	6.79
710.671	6.86
710.993	6.82
711.316	6.86
711.639	6.84
711.962	6.91
712.284	6.94
712.607	6.92
712.93	6.85
713.252	6.82
713.575	6.84
713.897	6.86
714.22	6.78
714.542	6.81
714.864	6.92
715.187	6.89
715.509	6.99
715.831	6.95
716.153	7.04
716.475	7.16
716.798	7.18
717.12	7.23
717.442	7.15
717.764	6.95
718.085	7.07
718.407	7.09
718.729	6.91
719.051	6.81
719.373	6.86
719.695	6.91
720.016	6.82
720.338	6.86
720.659	6.91
720.981	6.98
721.302	6.96
721.624	6.9
721.945	6.74
722.267	6.72
722.588	7
722.909	6.91
723.231	6.71
723.552	6.65
723.873	6.47
724.194	6.41
724.515	6.58
724.836	6.26
725.157	6.36
725.478	6.53
725.799	6.63
726.12	6.68
726.441	6.77
726.762	7.18
727.083	7.16
727.403	6.98
727.724	7.14
728.045	7.16
728.365	7.14
728.686	7.48
729.006	7.59
729.327	7.49
729.647	7.45
729.967	7.38
730.288	7.38
730.608	7.59
730.928	7.67
731.249	7.65
731.569	8.04
731.889	7.9
732.209	7.86
732.529	7.91
732.849	7.98
733.169	7.98
733.489	7.76
733.809	7.81
734.129	7.75
734.448	7.61
734.768	7.52
735.088	7.42
735.408	7.26
735.727	7.28
736.047	7.2
736.366	7.31
736.686	7.35
737.005	7.47
737.325	7.48
737.644	7.57
737.963	7.55
738.283	7.42
738.602	7.44
738.921	7.51
739.24	7.59
739.56	7.6
739.879	7.49
740.198	7.55
740.517	7.53
740.836	7.72
741.155	8.09
741.473	8.23
741.792	8.53
742.111	8.66
742.43	8.75
742.748	8.94
743.067	8.78
743.386	8.8
743.704	8.89
744.023	8.71
744.341	8.71
744.66	8.66
744.978	8.32
745.297	8.41
745.615	8.24
745.933	8.31
746.252	8.46
746.57	8.58
746.888	8.8
747.206	8.74
747.524	8.87
747.842	8.38
748.16	8.29
748.478	8.25
748.796	8.08
749.114	7.62
749.432	7.55
749.749	7.49
750.067	7.47
750.385	7.37
750.703	7.62
751.02	7.64
751.338	7.8
751.655	8.18
751.973	8.16
752.29	8.3
752.608	8.26
752.925	8.15
753.242	8.3
753.56	7.77
753.877	7.85
754.194	7.79
754.511	8.03
754.828	8.09
755.145	8
755.462	8.13
755.779	8.33
756.096	8.27
756.413	8.42
756.73	8.79
757.047	8.88
757.364	8.61
757.68	8.41
757.997	8.44
758.314	8.56
758.63	8.74
758.947	8.91
759.264	8.81
759.58	8.87
759.896	8.9
760.213	9.16
760.529	9.28
760.846	9.31
761.162	9.31
761.478	9.27
761.794	9.37
762.11	9.26
762.426	9.14
762.743	9.08
763.059	9.15
763.375	8.98
763.69	8.71
764.006	8.78
764.322	8.85
764.638	8.96
764.954	8.95
765.27	9.11
765.585	9.03
765.901	8.92
766.216	8.68
766.532	8.57
766.848	8.71
767.163	8.69
767.478	8.71
767.794	8.73
768.109	8.8
768.424	8.73
768.74	8.86
769.055	9.28
769.37	9.26
769.685	9.48
770	9.46
770.315	9.84
770.63	10.28
770.945	10.58
771.26	10.35
771.575	10.39
771.89	10.1
772.205	10
772.52	9.97
772.834	10.07
773.149	10.24
773.464	9.86
773.778	9.81
774.093	9.41
774.407	9.46
774.722	9.39
775.036	9.69
775.351	9.72
775.665	9.15
775.979	9.15
776.293	9.05
776.608	8.98
776.922	8.98
777.236	8.31
777.55	8.07
777.864	8.32
778.178	8.4
778.492	8.6
778.806	8.89
779.12	9.3
779.434	9.15
779.747	9.05
780.061	9.46
780.375	9.89
780.689	10.35
781.002	10.33
781.316	10.5
781.629	9.97
781.943	9.77
782.256	9.63
782.57	9.66
782.883	9.71
783.196	9.63
783.51	9.63
783.823	9.78
784.136	9.77
784.449	10.07
784.762	9.91
785.075	9.77
785.388	9.86
785.701	9.57
786.014	10.02
786.327	9.79
786.64	9.52
786.953	8.94
787.266	8.84
787.578	9.03
787.891	8.93
788.204	8.99
788.516	9.05
788.829	9.64
789.141	10.06
789.454	9.89
789.766	10.61
790.079	10.46
790.391	10.74
790.703	10.87
791.016	10.42
791.328	10.38
791.64	10.35
791.952	10.02
792.264	9.97
792.576	9.8
792.888	10.21
793.2	10.4
793.512	11.12
793.824	11.07
794.136	10.57
794.448	10.72
794.76	11.56
795.071	11.58
795.383	11.86
795.695	11.87
796.006	11.68
796.318	11.6
796.629	11.62
796.941	11.3
797.252	10.89
797.564	10.79
797.875	10.79
798.186	10.74
798.497	11.2
798.809	11.18
799.12	10.92
799.431	10.45
799.742	11.31
800.053	10.34
800.364	10.6
800.675	10.83
800.986	10.91
801.297	10.27
801.608	10.77
801.918	11.05
802.229	10.7
802.54	10.91
802.851	10.76
803.161	10.69
803.472	11.13
803.782	11.38
804.093	10.79
804.403	10.91
804.714	11.12
805.024	10.67
805.334	10.69
805.645	11.72
805.955	12.25
806.265	11.2
806.575	11.13
806.885	11.16
807.195	10.87
807.505	10.81
807.815	10.7
808.125	10.64
808.435	9.92
808.745	10.1
809.055	10.63
809.365	10.6
809.674	10.64
809.984	10.68
810.294	10.22
810.603	10.57
810.913	10.68
811.222	10.06
811.532	10.44
811.841	10.96
812.151	10.49
812.46	10.42
812.769	10.81
813.079	11.1
813.388	11.04
813.697	11.41
814.006	11.19
814.315	11.55
814.624	11.6
814.933	11.86
815.242	12.23
815.551	11.13
815.86	11.3
816.169	11.05
816.478	10.68
816.786	10.44
817.095	10.91
817.404	10.54
817.712	11.18
818.021	10.9
818.33	10.53
818.638	10.34
818.947	10.66
819.255	10.35
819.563	9.99
819.872	9.52
820.18	9.47
820.488	9.62
820.796	9.72
821.105	9.59
821.413	9.53
821.721	9.31
822.029	9.53
822.337	9.42
822.645	9.66
822.953	9.73
823.26	9.97
823.568	9.85
823.876	9.83
824.184	9.74
824.491	9.8
824.799	9.81
825.107	9.68
825.414	9.59
825.722	9.64
826.029	9.75
826.337	9.97
826.644	10
826.951	9.83
827.259	10.02
827.566	9.95
827.873	9.93
828.18	10.18
828.488	10.17
828.795	10.15
829.102	10.15
829.409	10
829.716	9.89
830.023	10.38
830.329	10.6
830.636	10.53
830.943	10.25
831.25	10.42
831.557	10.65
831.863	10.37
832.17	10.36
832.476	10.8
832.783	10.89
833.089	11.2
833.396	11.49
833.702	10.87
834.009	10.83
834.315	11.06
834.621	11.03
834.928	10.9
835.234	11.48
835.54	10.93
835.846	10.87
836.152	11.06
836.458	10.6
836.764	10.76
837.07	10.75
837.376	11.1
837.682	10.73
837.988	11.04
838.293	11.26
838.599	11.26
838.905	11.22
839.211	10.94
839.516	10.68
839.822	11.58
840.127	11.53
840.433	11.74
840.738	11.44
841.044	11.07
841.349	11.17
841.654	9.61
841.959	11.08
842.265	11.61
842.57	12
842.875	11.33
843.18	11.03
843.485	11.99
843.79	12.28
844.095	12.73
844.4	12.66
844.705	14.21
845.01	14.93
845.315	13.83
845.619	14.95
845.924	13.69
846.229	11.53
846.533	11.4
846.838	13.14
847.142	13.57
847.447	13.38
847.751	14.47
848.056	16.06
848.36	15.86
848.664	16.05
848.969	16.46
849.273	18.7
849.577	18.27
849.881	18.73
850.185	17.53
850.489	19.26
850.794	18.44
851.097	17.18
851.401	17.52
851.705	18.14
852.009	16.99
852.313	17.69
852.617	18.65
852.92	19.37
853.224	19.52
853.528	18.45
853.831	19.91
854.135	19.07
854.438	21.98
854.742	20.92
855.045	20.91
855.349	20.17
855.652	20.24
855.955	21.68
856.259	21.03
856.562	21.76
856.865	21.6
857.168	22.43
857.471	20.43
857.774	19.74
858.077	24.07
858.38	22.48
858.683	24.75
858.986	26.59
859.289	25.74
859.592	24.1
859.894	25.35
860.197	23.61
860.5	24.48
860.802	22.14
861.105	22.23
861.407	21.33
861.71	21.12
862.012	22.99
862.315	22.84
862.617	22.38
862.919	23.88
863.222	21.38
863.524	21.45
863.826	21.48
864.128	21.82
864.43	19.42
864.732	20.35
865.034	20.29
865.336	18.81
865.638	18.26
865.94	17.72
866.242	15.29
866.544	16.54
866.846	15.82
867.147	18.97
867.449	19.61
867.751	20.82
868.052	22.93
868.354	21.62
868.655	19.83
868.957	17.61
869.258	13.83
869.56	16.28
869.861	15.83
870.162	18.34
870.463	18.52
870.765	16.54
871.066	16.34
871.367	15.88
871.668	14.22
871.969	14.7
872.27	14.27
872.571	18.62
872.872	19.8
873.173	19.65
873.473	14.53
873.774	13.9
874.075	15.2
874.376	12.82
874.676	11.98
874.977	14.95
875.277	16.62
875.578	18.88
875.878	18.17
876.179	18.56
876.479	17.62
876.78	15.73
877.08	16.16
877.38	18.59
877.68	18.25
877.981	20.74
878.281	23.79
878.581	27.01
