Data from BU58130_Reflection_00014.txt Node
Date: Mon Nov 18 16:37:41 EST 2019
User: vgr7
Spectrometer: USB2G7710
Scans to average: 3
Trigger mode: 4
Integration Time (sec): 2.000000E-2
Electric dark correction enabled: true
Boxcar width: 10
XAxis mode: Wavelengths
Number of Pixels in Spectrum: 2048
>>>>>Begin Spectral Data<<<<<
177.721	1018.58
178.105	-322.76
178.488	-148.35
178.871	-87.7
179.254	46.46
179.636	-233.33
180.019	122.83
180.402	-0
180.785	41.63
181.168	1.46
181.55	30.88
181.933	55.12
182.316	71.55
182.698	64.07
183.081	60.92
183.463	64.57
183.846	26.79
184.228	22.88
184.611	49.59
184.993	-98.46
185.376	-83.26
185.758	-36.08
186.14	89.99
186.522	199.76
186.904	450.21
187.287	951.85
187.669	-474.3
188.051	-2829.82
188.433	-1308.6
188.815	-33.52
189.197	-84.02
189.579	-40.74
189.961	-34.67
190.342	-51.64
190.724	-46.72
191.106	-37.8
191.488	-127.22
191.869	-193.89
192.251	-184.07
192.633	-497.88
193.014	-5196.3
193.396	1346.91
193.777	1737.68
194.159	61.24
194.54	16.18
194.922	65.24
195.303	241.55
195.684	42.12
196.065	76.37
196.447	15.96
196.828	-59.48
197.209	-5.85
197.59	-38.62
197.971	-41.43
198.352	-25.74
198.733	-25.06
199.114	-6.69
199.495	42.18
199.876	34.94
200.257	37.63
200.638	49.19
201.018	43.61
201.399	24.61
201.78	33.8
202.16	11.07
202.541	-4.51
202.922	-24.8
203.302	-43.6
203.683	-44.45
204.063	-68.42
204.444	-63.33
204.824	-47.63
205.204	-46.77
205.585	-47.66
205.965	-45.48
206.345	-68.45
206.725	-128.87
207.106	-114.16
207.486	-268.07
207.866	-394.11
208.246	-300.18
208.626	-288.52
209.006	-216.48
209.386	-247.45
209.766	-226.81
210.145	-173.38
210.525	-147.41
210.905	-168.09
211.285	-227.54
211.664	-83.04
212.044	-225.49
212.424	1021.57
212.803	192.97
213.183	389.62
213.562	-106.35
213.942	-30.69
214.321	-3.03
214.701	26.63
215.08	19.39
215.459	53
215.838	37.18
216.218	29.69
216.597	31.89
216.976	27.06
217.355	51.8
217.734	59.83
218.113	87.83
218.492	87.92
218.871	85.86
219.25	82.03
219.629	93.36
220.008	95.43
220.387	87.81
220.766	105.75
221.144	101.77
221.523	107.69
221.902	102.72
222.28	67.28
222.659	51.67
223.037	46.66
223.416	32.7
223.794	33.77
224.173	39.09
224.551	34.52
224.929	26.18
225.308	24.57
225.686	15.83
226.064	13.75
226.442	3.71
226.821	4.35
227.199	0.01
227.577	0.18
227.955	1.22
228.333	0.61
228.711	0.32
229.089	5.67
229.467	8.38
229.845	9.1
230.222	11.2
230.6	10.73
230.978	11.83
231.356	9.66
231.733	7.1
232.111	5.03
232.488	2.41
232.866	3.95
233.243	2.58
233.621	0.78
233.998	-0.25
234.376	-1.23
234.753	-1.07
235.13	1.66
235.508	1.01
235.885	0.93
236.262	1.01
236.639	1.07
237.016	0.24
237.393	1.27
237.77	2.6
238.147	3.35
238.524	3.76
238.901	3.54
239.278	3.5
239.655	5.11
240.032	5.92
240.409	6.48
240.785	5.56
241.162	5.36
241.539	5.68
241.915	5.53
242.292	5.13
242.668	4.77
243.045	4.39
243.421	4.8
243.798	4.52
244.174	4.07
244.551	3.99
244.927	3.83
245.303	3.97
245.679	4.11
246.056	3.97
246.432	4.15
246.808	4.2
247.184	4.03
247.56	3.96
247.936	3.83
248.312	3.86
248.688	4.06
249.064	4.26
249.44	4.26
249.815	4.31
250.191	4.69
250.567	4.67
250.943	4.7
251.318	4.66
251.694	4.69
252.069	5.03
252.445	5.06
252.82	5.03
253.196	4.75
253.571	4.5
253.947	4.82
254.322	5.06
254.697	5.02
255.073	5.37
255.448	5.11
255.823	5.23
256.198	5.38
256.573	5.2
256.948	4.94
257.323	4.94
257.698	5
258.073	5.03
258.448	4.99
258.823	5.06
259.198	4.95
259.573	5.1
259.948	5.14
260.322	5.17
260.697	5.24
261.072	5.18
261.446	5.07
261.821	4.75
262.195	4.67
262.57	4.53
262.944	4.35
263.319	4.39
263.693	4.27
264.067	4.2
264.442	4.37
264.816	4.38
265.19	4.32
265.564	4.26
265.938	4.19
266.313	4.28
266.687	4.09
267.061	4.05
267.435	3.9
267.809	3.74
268.183	3.7
268.556	3.61
268.93	3.74
269.304	4
269.678	4.31
270.051	4.31
270.425	4.41
270.799	4.39
271.172	4.33
271.546	4.34
271.919	4.13
272.293	4.03
272.666	4.06
273.04	4.16
273.413	4.09
273.787	3.99
274.16	3.91
274.533	3.97
274.906	3.87
275.279	3.85
275.653	3.9
276.026	3.79
276.399	3.88
276.772	3.88
277.145	3.78
277.518	3.58
277.891	3.49
278.263	3.37
278.636	3.38
279.009	3.33
279.382	3.38
279.755	3.55
280.127	3.64
280.5	3.58
280.872	3.63
281.245	3.69
281.617	3.7
281.99	3.88
282.362	3.97
282.735	3.96
283.107	3.96
283.479	4.01
283.852	4.17
284.224	4.13
284.596	4.16
284.968	4.15
285.34	4.25
285.713	4.28
286.085	4.44
286.457	4.57
286.829	4.57
287.201	4.57
287.572	4.51
287.944	4.38
288.316	4.38
288.688	4.29
289.06	4.33
289.431	4.39
289.803	4.37
290.175	4.31
290.546	4.51
290.918	4.65
291.289	4.66
291.661	4.69
292.032	4.9
292.403	4.86
292.775	5.06
293.146	5.13
293.517	5.21
293.889	5.18
294.26	5.17
294.631	5.29
295.002	5.25
295.373	5.48
295.744	5.45
296.115	5.56
296.486	5.47
296.857	5.5
297.228	5.58
297.599	5.59
297.97	5.64
298.34	5.7
298.711	5.76
299.082	5.76
299.452	5.82
299.823	5.9
300.194	5.98
300.564	6
300.935	6.04
301.305	5.94
301.676	6.04
302.046	6.09
302.416	6.18
302.787	6.4
303.157	6.28
303.527	6.43
303.897	6.47
304.267	6.81
304.637	6.9
305.008	7.09
305.378	7.11
305.748	7.14
306.117	7.04
306.487	7.08
306.857	7.23
307.227	7.2
307.597	7.13
307.967	7.18
308.336	7.12
308.706	7.06
309.076	7.24
309.445	7.22
309.815	7.25
310.184	7.27
310.554	7.18
310.923	7.35
311.293	7.48
311.662	7.54
312.031	7.47
312.401	7.5
312.77	7.42
313.139	7.56
313.508	7.82
313.877	7.85
314.246	7.97
314.616	7.87
314.985	7.92
315.353	7.83
315.722	8.04
316.091	8.06
316.46	8.19
316.829	8.31
317.198	8.47
317.567	8.52
317.935	8.72
318.304	8.9
318.672	8.92
319.041	9.01
319.41	9.11
319.778	9.15
320.147	9.27
320.515	9.3
320.883	9.23
321.252	9.19
321.62	9.39
321.988	9.31
322.357	9.6
322.725	9.65
323.093	10.03
323.461	9.95
323.829	10.01
324.197	10.1
324.565	10.12
324.933	10.14
325.301	10.27
325.669	10.27
326.037	10.31
326.405	10.32
326.772	10.38
327.14	10.34
327.508	10.37
327.875	10.28
328.243	10.38
328.61	10.55
328.978	10.41
329.346	10.48
329.713	10.34
330.08	10.31
330.448	10.34
330.815	10.1
331.182	10.12
331.55	10.31
331.917	10.35
332.284	10.36
332.651	10.4
333.018	10.39
333.385	10.4
333.752	10.44
334.119	10.62
334.486	10.49
334.853	10.62
335.22	10.68
335.587	10.81
335.954	10.75
336.32	10.75
336.687	10.9
337.054	10.86
337.42	11.08
337.787	11.12
338.153	11.24
338.52	11.4
338.886	11.34
339.253	11.21
339.619	11.2
339.986	11.27
340.352	11.31
340.718	11.33
341.084	11.27
341.451	11.23
341.817	11.18
342.183	11.24
342.549	11.16
342.915	11.21
343.281	11.24
343.647	11.27
344.013	11.26
344.379	11.2
344.745	11.26
345.11	11.3
345.476	11.37
345.842	11.35
346.208	11.31
346.573	11.44
346.939	11.53
347.304	11.57
347.67	11.47
348.035	11.33
348.401	11.38
348.766	11.46
349.132	11.51
349.497	11.5
349.862	11.57
350.228	11.63
350.593	11.61
350.958	11.53
351.323	11.53
351.688	11.55
352.053	11.58
352.418	11.52
352.783	11.47
353.148	11.46
353.513	11.4
353.878	11.27
354.243	11.22
354.608	11.19
354.972	11.1
355.337	11.23
355.702	11.37
356.066	11.3
356.431	11.16
356.795	11.26
357.16	11.2
357.524	11.11
357.889	11.12
358.253	11.04
358.618	11.04
358.982	11.02
359.346	10.9
359.71	10.9
360.075	10.87
360.439	10.83
360.803	10.69
361.167	10.67
361.531	10.64
361.895	10.61
362.259	10.55
362.623	10.55
362.987	10.42
363.351	10.37
363.714	10.35
364.078	10.36
364.442	10.16
364.806	10.05
365.169	10.02
365.533	9.84
365.896	9.83
366.26	9.79
366.623	9.73
366.987	9.72
367.35	9.6
367.714	9.54
368.077	9.49
368.44	9.5
368.803	9.38
369.167	9.33
369.53	9.2
369.893	9.14
370.256	9.08
370.619	9.09
370.982	8.93
371.345	8.85
371.708	8.78
372.071	8.73
372.434	8.68
372.797	8.53
373.159	8.49
373.522	8.4
373.885	8.27
374.247	8.18
374.61	8.13
374.973	8.03
375.335	7.95
375.698	7.86
376.06	7.83
376.423	7.78
376.785	7.77
377.147	7.77
377.51	7.75
377.872	7.64
378.234	7.56
378.596	7.48
378.958	7.38
379.321	7.32
379.683	7.25
380.045	7.19
380.407	7.17
380.769	7.16
381.13	7.1
381.492	7.04
381.854	6.98
382.216	6.86
382.578	6.85
382.939	6.77
383.301	6.64
383.663	6.53
384.024	6.48
384.386	6.43
384.747	6.35
385.109	6.26
385.47	6.26
385.832	6.17
386.193	6.14
386.554	6.14
386.916	6.06
387.277	6.02
387.638	6.04
387.999	6.04
388.36	5.95
388.721	5.93
389.082	5.91
389.443	5.86
389.804	5.87
390.165	5.81
390.526	5.83
390.887	5.87
391.248	5.85
391.609	5.81
391.969	5.7
392.33	5.63
392.691	5.64
393.051	5.52
393.412	5.48
393.772	5.44
394.133	5.38
394.493	5.33
394.854	5.28
395.214	5.21
395.574	5.13
395.935	5.11
396.295	5.11
396.655	5.05
397.015	5.01
397.376	4.94
397.736	4.88
398.096	4.81
398.456	4.77
398.816	4.73
399.176	4.69
399.535	4.72
399.895	4.7
400.255	4.64
400.615	4.67
400.975	4.62
401.334	4.57
401.694	4.55
402.054	4.5
402.413	4.5
402.773	4.42
403.132	4.4
403.492	4.33
403.851	4.23
404.211	4.22
404.57	4.2
404.929	4.21
405.288	4.21
405.648	4.16
406.007	4.15
406.366	4.11
406.725	4.11
407.084	4.09
407.443	4.07
407.802	4.06
408.161	4
408.52	4
408.879	4
409.238	4.01
409.596	4.02
409.955	3.99
410.314	4.02
410.673	4
411.031	4.02
411.39	4.05
411.748	4.07
412.107	4.08
412.465	4.05
412.824	4.03
413.182	4.03
413.54	3.99
413.899	3.99
414.257	3.96
414.615	3.94
414.974	3.94
415.332	3.9
415.69	3.9
416.048	3.87
416.406	3.84
416.764	3.79
417.122	3.79
417.48	3.78
417.838	3.76
418.195	3.75
418.553	3.72
418.911	3.7
419.269	3.66
419.626	3.65
419.984	3.63
420.342	3.63
420.699	3.61
421.057	3.61
421.414	3.59
421.772	3.59
422.129	3.57
422.486	3.55
422.844	3.56
423.201	3.53
423.558	3.52
423.915	3.52
424.273	3.51
424.63	3.48
424.987	3.46
425.344	3.45
425.701	3.45
426.058	3.44
426.415	3.43
426.772	3.41
427.128	3.41
427.485	3.42
427.842	3.38
428.199	3.36
428.555	3.34
428.912	3.34
429.269	3.34
429.625	3.33
429.982	3.33
430.338	3.3
430.695	3.32
431.051	3.32
431.407	3.32
431.764	3.32
432.12	3.31
432.476	3.3
432.832	3.3
433.189	3.29
433.545	3.28
433.901	3.28
434.257	3.28
434.613	3.29
434.969	3.29
435.325	3.31
435.681	3.31
436.036	3.32
436.392	3.31
436.748	3.28
437.104	3.28
437.459	3.26
437.815	3.28
438.171	3.27
438.526	3.29
438.882	3.3
439.237	3.3
439.593	3.32
439.948	3.32
440.304	3.31
440.659	3.3
441.014	3.32
441.369	3.32
441.725	3.29
442.08	3.29
442.435	3.28
442.79	3.28
443.145	3.27
443.5	3.27
443.855	3.26
444.21	3.27
444.565	3.27
444.92	3.27
445.275	3.25
445.629	3.26
445.984	3.23
446.339	3.21
446.693	3.21
447.048	3.2
447.403	3.2
447.757	3.21
448.112	3.19
448.466	3.18
448.82	3.18
449.175	3.21
449.529	3.2
449.883	3.19
450.238	3.17
450.592	3.18
450.946	3.15
451.3	3.16
451.654	3.15
452.008	3.16
452.362	3.16
452.716	3.14
453.07	3.14
453.424	3.16
453.778	3.17
454.132	3.16
454.486	3.17
454.839	3.19
455.193	3.17
455.547	3.18
455.9	3.2
456.254	3.2
456.607	3.19
456.961	3.18
457.314	3.19
457.668	3.19
458.021	3.16
458.375	3.18
458.728	3.17
459.081	3.18
459.434	3.17
459.787	3.17
460.141	3.18
460.494	3.17
460.847	3.17
461.2	3.16
461.553	3.18
461.906	3.18
462.259	3.18
462.611	3.19
462.964	3.21
463.317	3.21
463.67	3.21
464.022	3.23
464.375	3.21
464.728	3.21
465.08	3.24
465.433	3.27
465.785	3.25
466.138	3.28
466.49	3.28
466.843	3.28
467.195	3.29
467.547	3.3
467.899	3.3
468.252	3.29
468.604	3.33
468.956	3.33
469.308	3.32
469.66	3.3
470.012	3.3
470.364	3.3
470.716	3.3
471.068	3.3
471.42	3.3
471.772	3.34
472.123	3.38
472.475	3.35
472.827	3.36
473.178	3.38
473.53	3.35
473.882	3.35
474.233	3.36
474.585	3.35
474.936	3.36
475.288	3.37
475.639	3.37
475.99	3.35
476.342	3.36
476.693	3.37
477.044	3.37
477.395	3.35
477.746	3.32
478.097	3.31
478.448	3.3
478.8	3.29
479.15	3.26
479.501	3.24
479.852	3.25
480.203	3.25
480.554	3.26
480.905	3.28
481.255	3.28
481.606	3.29
481.957	3.29
482.307	3.3
482.658	3.3
483.009	3.3
483.359	3.31
483.709	3.31
484.06	3.32
484.41	3.33
484.761	3.34
485.111	3.35
485.461	3.35
485.811	3.35
486.162	3.36
486.512	3.36
486.862	3.37
487.212	3.37
487.562	3.37
487.912	3.37
488.262	3.37
488.612	3.37
488.961	3.37
489.311	3.38
489.661	3.39
490.011	3.39
490.36	3.4
490.71	3.39
491.06	3.39
491.409	3.39
491.759	3.38
492.108	3.38
492.458	3.38
492.807	3.39
493.157	3.41
493.506	3.43
493.855	3.44
494.204	3.46
494.554	3.47
494.903	3.48
495.252	3.48
495.601	3.49
495.95	3.52
496.299	3.53
496.648	3.53
496.997	3.55
497.346	3.59
497.695	3.6
498.043	3.63
498.392	3.66
498.741	3.68
499.09	3.71
499.438	3.74
499.787	3.79
500.135	3.82
500.484	3.83
500.832	3.87
501.181	3.9
501.529	3.93
501.878	3.99
502.226	4.02
502.574	4.06
502.923	4.1
503.271	4.12
503.619	4.17
503.967	4.21
504.315	4.24
504.663	4.28
505.011	4.34
505.359	4.39
505.707	4.43
506.055	4.47
506.403	4.54
506.751	4.59
507.098	4.61
507.446	4.68
507.794	4.73
508.141	4.78
508.489	4.83
508.837	4.89
509.184	4.93
509.531	5
509.879	5.07
510.226	5.16
510.574	5.25
510.921	5.31
511.268	5.36
511.616	5.44
511.963	5.5
512.31	5.57
512.657	5.68
513.004	5.76
513.351	5.85
513.698	5.93
514.045	6
514.392	6.09
514.739	6.16
515.086	6.26
515.432	6.34
515.779	6.41
516.126	6.49
516.473	6.59
516.819	6.66
517.166	6.72
517.512	6.79
517.859	6.87
518.205	6.94
518.552	7.03
518.898	7.11
519.245	7.16
519.591	7.23
519.937	7.25
520.283	7.32
520.629	7.39
520.976	7.5
521.322	7.61
521.668	7.7
522.014	7.81
522.36	7.9
522.706	8.01
523.052	8.15
523.398	8.27
523.743	8.4
524.089	8.53
524.435	8.66
524.781	8.76
525.126	8.86
525.472	8.96
525.817	9.04
526.163	9.11
526.509	9.19
526.854	9.28
527.199	9.37
527.545	9.46
527.89	9.51
528.235	9.58
528.581	9.65
528.926	9.74
529.271	9.81
529.616	9.88
529.961	9.96
530.306	10.03
530.651	10.09
530.996	10.18
531.341	10.28
531.686	10.37
532.031	10.46
532.376	10.57
532.721	10.68
533.065	10.8
533.41	10.92
533.755	11.06
534.099	11.18
534.444	11.3
534.788	11.41
535.133	11.55
535.477	11.69
535.822	11.82
536.166	11.95
536.51	12.11
536.855	12.28
537.199	12.45
537.543	12.65
537.887	12.84
538.231	13.01
538.576	13.21
538.92	13.38
539.264	13.58
539.608	13.76
539.951	13.9
540.295	14.07
540.639	14.23
540.983	14.37
541.327	14.51
541.671	14.67
542.014	14.82
542.358	15
542.701	15.13
543.045	15.29
543.389	15.44
543.732	15.63
544.075	15.81
544.419	15.99
544.762	16.15
545.105	16.36
545.449	16.56
545.792	16.78
546.135	17.01
546.478	17.25
546.821	17.51
547.165	17.79
547.508	18.07
547.851	18.31
548.194	18.59
548.536	18.9
548.879	19.19
549.222	19.51
549.565	19.77
549.908	20.1
550.25	20.44
550.593	20.76
550.936	21.04
551.278	21.36
551.621	21.65
551.963	21.99
552.306	22.33
552.648	22.67
552.991	22.98
553.333	23.31
553.675	23.62
554.017	23.91
554.36	24.19
554.702	24.51
555.044	24.82
555.386	25.17
555.728	25.48
556.07	25.82
556.412	26.1
556.754	26.41
557.096	26.71
557.438	27.06
557.78	27.4
558.121	27.75
558.463	28.05
558.805	28.37
559.147	28.68
559.488	28.95
559.83	29.3
560.171	29.56
560.513	29.85
560.854	30.11
561.196	30.43
561.537	30.77
561.878	31.04
562.22	31.33
562.561	31.58
562.902	31.84
563.243	32.1
563.584	32.38
563.925	32.65
564.266	32.91
564.607	33.16
564.948	33.46
565.289	33.76
565.63	34.02
565.971	34.29
566.312	34.55
566.653	34.82
566.993	34.98
567.334	35.25
567.675	35.52
568.015	35.8
568.356	36.03
568.696	36.21
569.037	36.41
569.377	36.66
569.718	36.9
570.058	37.14
570.398	37.37
570.739	37.6
571.079	37.84
571.419	38.08
571.759	38.28
572.099	38.44
572.439	38.63
572.779	38.79
573.119	39.02
573.459	39.23
573.799	39.44
574.139	39.66
574.479	39.86
574.819	40.08
575.158	40.32
575.498	40.51
575.838	40.73
576.177	40.96
576.517	41.19
576.856	41.38
577.196	41.57
577.535	41.72
577.875	41.92
578.214	42.15
578.553	42.43
578.893	42.64
579.232	42.81
579.571	42.99
579.91	43.21
580.25	43.41
580.589	43.56
580.928	43.73
581.267	43.9
581.606	44.03
581.945	44.14
582.283	44.31
582.622	44.44
582.961	44.6
583.3	44.74
583.639	44.85
583.977	44.97
584.316	45.13
584.654	45.36
584.993	45.56
585.332	45.61
585.67	45.71
586.008	45.84
586.347	45.98
586.685	46.07
587.024	46.26
587.362	46.33
587.7	46.48
588.038	46.52
588.376	46.69
588.715	46.79
589.053	46.93
589.391	47.02
589.729	47.13
590.067	47.27
590.404	47.38
590.742	47.49
591.08	47.59
591.418	47.76
591.756	47.87
592.093	47.96
592.431	48.09
592.769	48.16
593.106	48.24
593.444	48.32
593.781	48.52
594.119	48.52
594.456	48.64
594.793	48.72
595.131	48.82
595.468	48.9
595.805	49.04
596.143	49.14
596.48	49.17
596.817	49.22
597.154	49.24
597.491	49.27
597.828	49.33
598.165	49.42
598.502	49.41
598.839	49.45
599.176	49.54
599.512	49.63
599.849	49.75
600.186	49.8
600.523	49.9
600.859	50.01
601.196	50.22
601.532	50.33
601.869	50.38
602.205	50.5
602.542	50.52
602.878	50.57
603.215	50.66
603.551	50.7
603.887	50.81
604.223	50.82
604.56	50.96
604.896	51.01
605.232	51.06
605.568	51.15
605.904	51.24
606.24	51.24
606.576	51.3
606.912	51.31
607.248	51.38
607.583	51.47
607.919	51.43
608.255	51.32
608.591	51.33
608.926	51.31
609.262	51.35
609.597	51.38
609.933	51.39
610.268	51.37
610.604	51.43
610.939	51.42
611.275	51.52
611.61	51.53
611.945	51.62
612.281	51.65
612.616	51.65
612.951	51.59
613.286	51.68
613.621	51.71
613.956	51.75
614.291	51.84
614.626	51.87
614.961	51.9
615.296	51.93
615.631	51.97
615.966	52.09
616.3	52.11
616.635	52.23
616.97	52.23
617.304	52.28
617.639	52.42
617.973	52.45
618.308	52.57
618.642	52.58
618.977	52.54
619.311	52.55
619.646	52.56
619.98	52.68
620.314	52.66
620.648	52.75
620.983	52.79
621.317	52.77
621.651	52.8
621.985	52.9
622.319	53.01
622.653	53.13
622.987	53.18
623.321	53.24
623.655	53.24
623.988	53.34
624.322	53.32
624.656	53.37
624.99	53.39
625.323	53.34
625.657	53.34
625.99	53.45
626.324	53.51
626.657	53.58
626.991	53.59
627.324	53.63
627.658	53.51
627.991	53.51
628.324	53.54
628.657	53.55
628.991	53.53
629.324	53.6
629.657	53.56
629.99	53.59
630.323	53.52
630.656	53.58
630.989	53.6
631.322	53.59
631.655	53.5
631.987	53.59
632.32	53.58
632.653	53.63
632.986	53.59
633.318	53.67
633.651	53.69
633.984	53.65
634.316	53.66
634.649	53.82
634.981	53.89
635.313	53.87
635.646	53.9
635.978	53.91
636.31	53.96
636.643	53.95
636.975	53.97
637.307	54.09
637.639	54.11
637.971	54.01
638.303	54.07
638.635	54.01
638.967	53.92
639.299	53.93
639.631	53.87
639.963	53.83
640.295	53.9
640.626	53.91
640.958	54.08
641.29	54.1
641.621	54.14
641.953	54.15
642.285	54.22
642.616	54.32
642.948	54.33
643.279	54.31
643.61	54.38
643.942	54.34
644.273	54.39
644.604	54.37
644.936	54.53
645.267	54.55
645.598	54.69
645.929	54.78
646.26	54.87
646.591	55.01
646.922	55.15
647.253	55.06
647.584	55.1
647.915	55
648.245	54.94
648.576	54.89
648.907	54.84
649.238	54.84
649.568	54.84
649.899	54.83
650.229	54.84
650.56	54.75
650.89	54.8
651.221	54.73
651.551	54.65
651.882	54.57
652.212	54.59
652.542	54.55
652.872	54.51
653.203	54.55
653.533	54.45
653.863	54.42
654.193	54.48
654.523	54.4
654.853	54.49
655.183	54.54
655.513	54.61
655.843	54.64
656.172	54.65
656.502	54.62
656.832	54.63
657.162	54.62
657.491	54.66
657.821	54.68
658.15	54.67
658.48	54.69
658.809	54.7
659.139	54.71
659.468	54.76
659.798	54.77
660.127	54.73
660.456	54.75
660.785	54.62
661.115	54.56
661.444	54.61
661.773	54.56
662.102	54.57
662.431	54.51
662.76	54.54
663.089	54.62
663.418	54.68
663.747	54.71
664.076	54.66
664.404	54.62
664.733	54.62
665.062	54.81
665.39	55
665.719	55.14
666.048	55.12
666.376	55.1
666.705	55.13
667.033	55.1
667.362	55.16
667.69	55.25
668.018	55.33
668.347	55.37
668.675	55.39
669.003	55.47
669.331	55.63
669.659	55.61
669.987	55.47
670.315	55.32
670.643	55.34
670.971	55.47
671.299	55.52
671.627	55.47
671.955	55.35
672.283	55.17
672.61	55.14
672.938	55.13
673.266	55.22
673.593	55.23
673.921	55.18
674.249	55.17
674.576	55.18
674.904	55.1
675.231	54.98
675.558	55.11
675.886	55.15
676.213	55.06
676.54	55.1
676.867	55.09
677.195	55.21
677.522	55.18
677.849	55.12
678.176	55.29
678.503	55.25
678.83	55.25
679.157	55.26
679.484	55.16
679.81	55.24
680.137	55.08
680.464	55.12
680.791	55.22
681.117	55.22
681.444	55.25
681.771	55.29
682.097	55.38
682.424	55.2
682.75	55.17
683.077	55.16
683.403	55.24
683.729	55.18
684.056	55.15
684.382	55.21
684.708	55.28
685.034	55.12
685.36	55.19
685.686	55.15
686.012	55.2
686.339	55.28
686.664	55.19
686.99	55.4
687.316	55.26
687.642	55.33
687.968	55.33
688.294	55.25
688.619	55.25
688.945	55.19
689.271	55.33
689.596	55.21
689.922	55.34
690.247	55.25
690.573	55.36
690.898	55.39
691.224	55.35
691.549	55.35
691.874	55.31
692.2	55.35
692.525	55.37
692.85	55.3
693.175	55.22
693.5	55.19
693.825	55.05
694.15	55.1
694.475	54.94
694.8	54.97
695.125	54.91
695.45	54.85
695.775	54.88
696.099	54.9
696.424	54.96
696.749	54.74
697.073	54.73
697.398	54.78
697.723	54.59
698.047	54.73
698.372	54.63
698.696	54.62
699.02	54.58
699.345	54.58
699.669	54.67
699.993	54.73
700.318	54.85
700.642	54.75
700.966	54.89
701.29	54.83
701.614	54.71
701.938	54.86
702.262	54.92
702.586	54.84
702.91	54.9
703.234	54.84
703.557	54.88
703.881	54.98
704.205	54.88
704.529	55.06
704.852	54.82
705.176	54.88
705.499	54.92
705.823	55.04
706.146	55.06
706.47	54.85
706.793	54.79
707.117	54.68
707.44	54.89
707.763	54.59
708.086	54.75
708.409	54.93
708.733	54.91
709.056	55.03
709.379	55.26
709.702	55.17
710.025	55.27
710.348	55.24
710.671	55.1
710.993	55.01
711.316	55.18
711.639	55.2
711.962	55.21
712.284	55.04
712.607	54.9
712.93	54.99
713.252	55.08
713.575	54.94
713.897	54.81
714.22	54.75
714.542	54.86
714.864	54.9
715.187	54.88
715.509	54.95
715.831	54.77
716.153	54.53
716.475	54.48
716.798	54.5
717.12	54.61
717.442	54.6
717.764	54.79
718.085	54.58
718.407	54.61
718.729	54.48
719.051	54.62
719.373	54.74
719.695	54.43
720.016	54.42
720.338	54.88
720.659	55.18
720.981	55.2
721.302	55.29
721.624	55.17
721.945	55.12
722.267	55.17
722.588	55.25
722.909	55.4
723.231	55.41
723.552	55.46
723.873	55.32
724.194	55.4
724.515	55.38
724.836	55.49
725.157	55.67
725.478	55.78
725.799	55.96
726.12	55.64
726.441	55.71
726.762	55.73
727.083	55.44
727.403	55.46
727.724	55.73
728.045	55.56
728.365	55.7
728.686	55.83
729.006	55.72
729.327	55.78
729.647	55.81
729.967	55.76
730.288	55.77
730.608	55.63
730.928	55.51
731.249	55.31
731.569	55.27
731.889	55.25
732.209	55.35
732.529	55.37
732.849	55.69
733.169	55.54
733.489	55.63
733.809	55.62
734.129	55.41
734.448	55.24
734.768	55.37
735.088	55.17
735.408	54.94
735.727	55.17
736.047	55.1
736.366	55.15
736.686	55.34
737.005	55.33
737.325	55.48
737.644	55.68
737.963	55.93
738.283	56.02
738.602	55.98
738.921	55.77
739.24	55.64
739.56	55.33
739.879	55.61
740.198	55.71
740.517	55.78
740.836	55.91
741.155	55.83
741.473	55.93
741.792	55.96
742.111	56.2
742.43	55.95
742.748	56.12
743.067	55.86
743.386	55.53
743.704	55.52
744.023	55.7
744.341	55.76
744.66	55.89
744.978	55.83
745.297	55.77
745.615	56.04
745.933	56.03
746.252	56.38
746.57	56.51
746.888	56.2
747.206	56.2
747.524	56.24
747.842	56.39
748.16	56.31
748.478	56.38
748.796	56.18
749.114	56.05
749.432	55.85
749.749	55.9
750.067	56.02
750.385	55.99
750.703	55.77
751.02	55.62
751.338	55.54
751.655	55.52
751.973	55.54
752.29	55.48
752.608	55.49
752.925	55.67
753.242	55.46
753.56	55.3
753.877	55.4
754.194	55.37
754.511	55.19
754.828	54.85
755.145	55
755.462	55.22
755.779	55.27
756.096	55.62
756.413	55.66
756.73	55.82
757.047	55.73
757.364	55.88
757.68	56.24
757.997	56.3
758.314	56.1
758.63	56.08
758.947	55.89
759.264	55.39
759.58	54.79
759.896	54.98
760.213	55.35
760.529	55.28
760.846	55.38
761.162	55.27
761.478	55.56
761.794	55.43
762.11	55.38
762.426	55.31
762.743	54.71
763.059	54.83
763.375	54.85
763.69	54.89
764.006	54.76
764.322	54.55
764.638	54.41
764.954	54.51
765.27	54.5
765.585	54.49
765.901	54.85
766.216	55.1
766.532	55.41
766.848	55.43
767.163	55.37
767.478	55.19
767.794	55.1
768.109	54.95
768.424	55
768.74	54.86
769.055	55.32
769.37	55.59
769.685	55.69
770	55.14
770.315	54.99
770.63	55.1
770.945	55.25
771.26	55.36
771.575	55.62
771.89	55.76
772.205	55.94
772.52	55.86
772.834	55.65
773.149	55.08
773.464	54.61
773.778	54.48
774.093	54.46
774.407	54.84
774.722	54.84
775.036	54.52
775.351	54.65
775.665	54.47
775.979	54.64
776.293	54.6
776.608	54.99
776.922	55.06
777.236	55.13
777.55	54.69
777.864	54.67
778.178	54.64
778.492	54.66
778.806	54.73
779.12	54.75
779.434	55.07
779.747	54.81
780.061	55.2
780.375	55.87
780.689	56.08
781.002	56.38
781.316	56.74
781.629	57.07
781.943	57.18
782.256	56.53
782.57	56.53
782.883	55.77
783.196	55.95
783.51	55.73
783.823	55.75
784.136	56.04
784.449	55.68
784.762	55.54
785.075	55.74
785.388	55.68
785.701	55.88
786.014	55.88
786.327	56.27
786.64	55.76
786.953	55.26
787.266	54.78
787.578	53.94
787.891	53.77
788.204	53.65
788.516	53.48
788.829	53.96
789.141	53.87
789.454	54.71
789.766	54.26
790.079	54.83
790.391	55.27
790.703	55.5
791.016	55.32
791.328	54.73
791.64	54.48
791.952	54.46
792.264	54.26
792.576	53.93
792.888	54.12
793.2	54.91
793.512	55.09
793.824	55.83
794.136	56.63
794.448	56.61
794.76	57.19
795.071	57.12
795.383	56.84
795.695	56.85
796.006	56.4
796.318	57.62
796.629	57.64
796.941	57.1
797.252	57.06
797.564	57.87
797.875	58.92
798.186	58.63
798.497	58.65
798.809	58.63
799.12	58.88
799.431	58.49
799.742	58.05
800.053	58.07
800.364	58.09
800.675	57.95
800.986	57.53
801.297	56.79
801.608	57.13
801.918	57.78
802.229	57.47
802.54	57.57
802.851	56.32
803.161	56.67
803.472	56.77
803.782	56.55
804.093	56.09
804.403	55.56
804.714	55.55
805.024	55.81
805.334	56.41
805.645	56.38
805.955	56.93
806.265	56.85
806.575	56.81
806.885	56.69
807.195	56.42
807.505	57.06
807.815	57.36
808.125	57.13
808.435	56.88
808.745	57.26
809.055	57.44
809.365	57.92
809.674	57.12
809.984	57.65
810.294	57.2
810.603	57.14
810.913	56.91
811.222	56.55
811.532	56.95
811.841	56.71
812.151	57.04
812.46	55.86
812.769	56.16
813.079	56.61
813.388	56.14
813.697	56.29
814.006	55.9
814.315	56.74
814.624	56.48
814.933	57.07
815.242	56.76
815.551	56.78
815.86	56.41
816.169	56.94
816.478	56.41
816.786	56.78
817.095	57.33
817.404	58.08
817.712	58.39
818.021	57.34
818.33	57.45
818.638	56.92
818.947	57.19
819.255	56.63
819.563	56.14
819.872	56.22
820.18	56.41
820.488	56.09
820.796	55.61
821.105	55.64
821.413	55.3
821.721	55.34
822.029	55.26
822.337	55.53
822.645	55.45
822.953	55.5
823.26	55.65
823.568	55.52
823.876	55.47
824.184	55.44
824.491	55.61
824.799	55.5
825.107	55.48
825.414	55.42
825.722	55.55
826.029	55.71
826.337	55.82
826.644	55.71
826.951	55.69
827.259	55.72
827.566	55.76
827.873	55.72
828.18	55.92
828.488	56.06
828.795	55.93
829.102	55.98
829.409	55.89
829.716	55.79
830.023	55.77
830.329	55.54
830.636	56.07
830.943	56.09
831.25	56.13
831.557	56.38
831.863	56.67
832.17	56.52
832.476	56.19
832.783	56.1
833.089	56.01
833.396	56.45
833.702	56.87
834.009	57.01
834.315	57
834.621	56.96
834.928	57.01
835.234	57.21
835.54	57.16
835.846	57.31
836.152	57.02
836.458	57.23
836.764	57.05
837.07	56.35
837.376	55.88
837.682	55.79
837.988	56.07
838.293	56.29
838.599	57.34
838.905	57.02
839.211	56.89
839.516	57.22
839.822	57.67
840.127	58.16
840.433	57.45
840.738	58.5
841.044	57.96
841.349	57.76
841.654	56.9
841.959	56.5
842.265	56.58
842.57	57.37
842.875	58.69
843.18	59.87
843.485	61.35
843.79	62.29
844.095	62.49
844.4	61.66
844.705	61.32
845.01	60.03
845.315	61.99
845.619	62.91
845.924	61.96
846.229	62.27
846.533	61.53
846.838	61.7
847.142	61.43
847.447	61.54
847.751	61.22
848.056	61.78
848.36	61.57
848.664	61.46
848.969	60.97
849.273	57.7
849.577	58.33
849.881	57.28
850.185	56.74
850.489	56.15
850.794	57.03
851.097	56.03
851.401	55.92
851.705	54.08
852.009	53.82
852.313	54.39
852.617	55.14
852.92	56.89
853.224	58.34
853.528	57.81
853.831	60.18
854.135	62.49
854.438	62.86
854.742	63.41
855.045	64.03
855.349	63.23
855.652	64.44
855.955	61.71
856.259	61.67
856.562	62.19
856.865	63.33
857.168	64.27
857.471	65.65
857.774	64.39
858.077	63.49
858.38	60.79
858.683	61.01
858.986	59.74
859.289	58.8
859.592	58.26
859.894	57.34
860.197	57.98
860.5	56.38
860.802	56.47
861.105	54.82
861.407	53.49
861.71	55.26
862.012	54.39
862.315	55.22
862.617	53.3
862.919	52.56
863.222	51.88
863.524	51.57
863.826	51.31
864.128	51.13
864.43	55.46
864.732	57.42
865.034	56.86
865.336	57.92
865.638	55.94
865.94	54.37
866.242	55.02
866.544	52.29
866.846	51.01
867.147	51.89
867.449	53.94
867.751	55.3
868.052	54.1
868.354	54.36
868.655	53.97
868.957	56.22
869.258	55.11
869.56	57.74
869.861	58.28
870.162	58.68
870.463	60.96
870.765	56.61
871.066	57.78
871.367	57.12
871.668	54.75
871.969	56.09
872.27	57.2
872.571	59.8
872.872	60.15
873.173	63.09
873.473	62.63
873.774	62.46
874.075	62.12
874.376	59.52
874.676	58.42
874.977	58.81
875.277	58.35
875.578	59.7
875.878	57.38
876.179	55.33
876.479	55.07
876.78	53.24
877.08	54.99
877.38	52.85
877.68	55.06
877.981	56.53
878.281	55.45
878.581	57.43
