Data from BU58131_Reflection_00012.txt Node
Date: Mon Nov 18 16:32:33 EST 2019
User: vgr7
Spectrometer: USB2G7710
Scans to average: 3
Trigger mode: 4
Integration Time (sec): 2.000000E-2
Electric dark correction enabled: true
Boxcar width: 10
XAxis mode: Wavelengths
Number of Pixels in Spectrum: 2048
>>>>>Begin Spectral Data<<<<<
177.721	-187.54
178.105	-347.76
178.488	-752.87
178.871	240.63
179.254	38.38
179.636	-60.71
180.019	-596.13
180.402	19.05
180.785	-84.8
181.168	-16.58
181.55	43.25
181.933	53.77
182.316	33.98
182.698	39.27
183.081	41.68
183.463	47.65
183.846	52.97
184.228	51.88
184.611	48.06
184.993	44.95
185.376	48.07
185.758	41.15
186.14	71.41
186.522	170.81
186.904	143.98
187.287	94.36
187.669	149.55
188.051	208.79
188.433	294.74
188.815	386.17
189.197	1001.29
189.579	-170.52
189.961	-89.17
190.342	-130.32
190.724	-97.72
191.106	-128.53
191.488	-63.61
191.869	-35.21
192.251	-62.3
192.633	-58.42
193.014	-85.94
193.396	-64.42
193.777	-69.83
194.159	-79.89
194.54	-87.22
194.922	-56.73
195.303	-36.15
195.684	-56.41
196.065	-10.19
196.447	-4.67
196.828	5.76
197.209	-21.57
197.59	-47.99
197.971	-53.78
198.352	8.93
198.733	-2.58
199.114	-13.28
199.495	-31.09
199.876	-14.93
200.257	-2.82
200.638	10.28
201.018	-3.24
201.399	-34.26
201.78	-23.12
202.16	-48.18
202.541	-71.64
202.922	-81.74
203.302	-125.29
203.683	-107.12
204.063	-163.33
204.444	-220.09
204.824	-244.44
205.204	-200.93
205.585	-313.98
205.965	-207.78
206.345	-376.75
206.725	-998.95
207.106	-1361.32
207.486	-5652.58
207.866	1282.01
208.246	26708.7
208.626	2610.46
209.006	-1801.54
209.386	1316.44
209.766	1574.4
210.145	-1163.16
210.525	-208.08
210.905	-195.96
211.285	-190.78
211.664	-178.77
212.044	-159.37
212.424	-108.9
212.803	-103.16
213.183	-97.04
213.562	-77.23
213.942	-83.79
214.321	-56.75
214.701	-58.98
215.08	-71.91
215.459	-47.91
215.838	-35.69
216.218	-36.99
216.597	-31.14
216.976	-47.34
217.355	-43.04
217.734	-49.26
218.113	-43.4
218.492	-52.61
218.871	-44.52
219.25	-43.67
219.629	-49.06
220.008	-23.99
220.387	-25.18
220.766	-10.26
221.144	-13.45
221.523	-7.22
221.902	-15.41
222.28	-24.39
222.659	-4.36
223.037	18.56
223.416	3.5
223.794	1.85
224.173	-1.21
224.551	-6.06
224.929	-17.99
225.308	-8.23
225.686	1.07
226.064	-7.46
226.442	-7.72
226.821	-8.42
227.199	-4.36
227.577	-0.5
227.955	-6.82
228.333	-9.4
228.711	-10.28
229.089	-6.26
229.467	-8.83
229.845	-5.85
230.222	-6.46
230.6	-8.91
230.978	-8.51
231.356	-5.23
231.733	-5.16
232.111	-4.41
232.488	-4.58
232.866	-1.17
233.243	-1.64
233.621	-4.11
233.998	1
234.376	-0.13
234.753	-1.64
235.13	-0.14
235.508	-0.7
235.885	-0.55
236.262	-0.43
236.639	-0.44
237.016	-1.9
237.393	-0.56
237.77	0.07
238.147	1.38
238.524	3.06
238.901	3.07
239.278	3.52
239.655	4.05
240.032	4.22
240.409	3.32
240.785	3.25
241.162	2.82
241.539	2.95
241.915	2.27
242.292	2.01
242.668	2.16
243.045	1.58
243.421	1.89
243.798	2.07
244.174	2.02
244.551	2.25
244.927	2.28
245.303	2.68
245.679	3
246.056	2.95
246.432	2.74
246.808	2.68
247.184	2.27
247.56	1.97
247.936	2.09
248.312	2.3
248.688	2.44
249.064	2.53
249.44	2.7
249.815	2.81
250.191	3.28
250.567	3.41
250.943	3.64
251.318	3.65
251.694	3.61
252.069	3.92
252.445	3.84
252.82	4.04
253.196	3.76
253.571	3.47
253.947	3.63
254.322	3.75
254.697	3.59
255.073	3.69
255.448	3.78
255.823	3.68
256.198	3.82
256.573	3.64
256.948	3.75
257.323	3.64
257.698	3.62
258.073	3.31
258.448	3.23
258.823	3.32
259.198	3.22
259.573	3.29
259.948	3.43
260.322	3.62
260.697	3.56
261.072	3.52
261.446	3.54
261.821	3.4
262.195	3.3
262.57	3.3
262.944	3.25
263.319	3.27
263.693	3.1
264.067	3.18
264.442	3.25
264.816	3.19
265.19	3.14
265.564	3.2
265.938	3.22
266.313	3.26
266.687	3.12
267.061	3.09
267.435	3.02
267.809	2.69
268.183	2.56
268.556	2.45
268.93	2.73
269.304	2.74
269.678	2.91
270.051	2.98
270.425	2.89
270.799	3
271.172	3.01
271.546	3.2
271.919	2.93
272.293	2.95
272.666	2.86
273.04	2.86
273.413	2.59
273.787	2.57
274.16	2.48
274.533	2.49
274.906	2.54
275.279	2.53
275.653	2.62
276.026	2.62
276.399	2.73
276.772	2.55
277.145	2.38
277.518	2.24
277.891	2.25
278.263	2.34
278.636	2.2
279.009	2.24
279.382	2.18
279.755	2.25
280.127	2.36
280.5	2.46
280.872	2.59
281.245	2.8
281.617	2.98
281.99	3.18
282.362	3.14
282.735	2.92
283.107	2.86
283.479	2.86
283.852	2.85
284.224	2.84
284.596	2.94
284.968	3.1
285.34	3.13
285.713	2.96
286.085	3
286.457	3.11
286.829	3.16
287.201	3.14
287.572	3.14
287.944	3.07
288.316	3.01
288.688	2.88
289.06	2.77
289.431	2.7
289.803	2.64
290.175	2.66
290.546	2.88
290.918	2.97
291.289	3.11
291.661	3.14
292.032	3.15
292.403	3.15
292.775	3.16
293.146	3.16
293.517	3.38
293.889	3.3
294.26	3.36
294.631	3.32
295.002	3.2
295.373	3.34
295.744	3.41
296.115	3.48
296.486	3.45
296.857	3.61
297.228	3.58
297.599	3.58
297.97	3.57
298.34	3.67
298.711	3.83
299.082	3.65
299.452	3.7
299.823	3.8
300.194	3.77
300.564	3.74
300.935	3.86
301.305	3.95
301.676	4.09
302.046	4.15
302.416	4.23
302.787	4.38
303.157	4.4
303.527	4.46
303.897	4.45
304.267	4.69
304.637	4.72
305.008	4.79
305.378	4.92
305.748	5.03
306.117	4.81
306.487	4.8
306.857	4.94
307.227	4.92
307.597	4.95
307.967	5.07
308.336	5.24
308.706	5.27
309.076	5.34
309.445	5.32
309.815	5.4
310.184	5.39
310.554	5.56
310.923	5.64
311.293	5.56
311.662	5.61
312.031	5.67
312.401	5.76
312.77	5.78
313.139	5.84
313.508	6.03
313.877	6.15
314.246	6.22
314.616	6.26
314.985	6.38
315.353	6.41
315.722	6.38
316.091	6.49
316.46	6.51
316.829	6.42
317.198	6.64
317.567	6.69
317.935	6.76
318.304	6.8
318.672	6.83
319.041	7.01
319.41	6.97
319.778	7.02
320.147	6.93
320.515	7.03
320.883	7.02
321.252	6.86
321.62	7.06
321.988	7.06
322.357	7.09
322.725	7.22
323.093	7.27
323.461	7.41
323.829	7.34
324.197	7.3
324.565	7.41
324.933	7.43
325.301	7.38
325.669	7.34
326.037	7.39
326.405	7.37
326.772	7.49
327.14	7.66
327.508	7.73
327.875	7.79
328.243	7.88
328.61	7.97
328.978	8.14
329.346	8.27
329.713	8.3
330.08	8.35
330.448	8.32
330.815	8.33
331.182	8.46
331.55	8.54
331.917	8.65
332.284	8.67
332.651	8.6
333.018	8.72
333.385	8.98
333.752	9.02
334.119	9.21
334.486	9.09
334.853	9.12
335.22	9.24
335.587	9.24
335.954	9.38
336.32	9.41
336.687	9.36
337.054	9.31
337.42	9.31
337.787	9.37
338.153	9.41
338.52	9.49
338.886	9.36
339.253	9.39
339.619	9.47
339.986	9.53
340.352	9.62
340.718	9.67
341.084	9.55
341.451	9.63
341.817	9.56
342.183	9.7
342.549	9.73
342.915	9.73
343.281	9.85
343.647	9.75
344.013	9.75
344.379	9.76
344.745	9.77
345.11	9.86
345.476	9.9
345.842	9.92
346.208	9.89
346.573	9.96
346.939	10.02
347.304	9.99
347.67	9.89
348.035	9.93
348.401	9.9
348.766	10.02
349.132	9.98
349.497	9.96
349.862	10.09
350.228	10.1
350.593	10.05
350.958	10.04
351.323	10.1
351.688	10.17
352.053	10.25
352.418	10.21
352.783	10.2
353.148	10.2
353.513	10.2
353.878	10.24
354.243	10.27
354.608	10.23
354.972	10.27
355.337	10.33
355.702	10.27
356.066	10.26
356.431	10.23
356.795	10.2
357.16	10.14
357.524	9.93
357.889	9.97
358.253	10.01
358.618	9.98
358.982	9.92
359.346	9.8
359.71	9.73
360.075	9.77
360.439	9.75
360.803	9.67
361.167	9.63
361.531	9.54
361.895	9.49
362.259	9.44
362.623	9.35
362.987	9.3
363.351	9.32
363.714	9.33
364.078	9.25
364.442	9.17
364.806	9.15
365.169	9.17
365.533	9.07
365.896	8.95
366.26	8.92
366.623	8.88
366.987	8.82
367.35	8.86
367.714	8.75
368.077	8.67
368.44	8.73
368.803	8.64
369.167	8.65
369.53	8.53
369.893	8.52
370.256	8.47
370.619	8.49
370.982	8.42
371.345	8.33
371.708	8.35
372.071	8.32
372.434	8.29
372.797	8.23
373.159	8.17
373.522	8.14
373.885	8.12
374.247	8.06
374.61	8
374.973	7.83
375.335	7.76
375.698	7.71
376.06	7.58
376.423	7.61
376.785	7.58
377.147	7.55
377.51	7.48
377.872	7.49
378.234	7.38
378.596	7.24
378.958	7.16
379.321	7.05
379.683	6.99
380.045	6.89
380.407	6.85
380.769	6.82
381.13	6.78
381.492	6.67
381.854	6.61
382.216	6.53
382.578	6.55
382.939	6.53
383.301	6.43
383.663	6.36
384.024	6.25
384.386	6.17
384.747	6.13
385.109	6.09
385.47	5.96
385.832	5.9
386.193	5.92
386.554	5.88
386.916	5.83
387.277	5.81
387.638	5.83
387.999	5.74
388.36	5.69
388.721	5.63
389.082	5.63
389.443	5.6
389.804	5.6
390.165	5.5
390.526	5.46
390.887	5.42
391.248	5.39
391.609	5.35
391.969	5.33
392.33	5.26
392.691	5.21
393.051	5.21
393.412	5.21
393.772	5.14
394.133	5.11
394.493	5.07
394.854	5
395.214	4.94
395.574	4.95
395.935	4.89
396.295	4.87
396.655	4.78
397.015	4.75
397.376	4.69
397.736	4.69
398.096	4.61
398.456	4.57
398.816	4.52
399.176	4.44
399.535	4.35
399.895	4.31
400.255	4.28
400.615	4.26
400.975	4.21
401.334	4.19
401.694	4.16
402.054	4.11
402.413	4.08
402.773	4.01
403.132	3.93
403.492	3.91
403.851	3.84
404.211	3.84
404.57	3.78
404.929	3.79
405.288	3.75
405.648	3.74
406.007	3.73
406.366	3.74
406.725	3.76
407.084	3.8
407.443	3.79
407.802	3.76
408.161	3.73
408.52	3.68
408.879	3.64
409.238	3.61
409.596	3.59
409.955	3.58
410.314	3.57
410.673	3.57
411.031	3.52
411.39	3.53
411.748	3.52
412.107	3.52
412.465	3.49
412.824	3.5
413.182	3.5
413.54	3.5
413.899	3.49
414.257	3.48
414.615	3.45
414.974	3.44
415.332	3.43
415.69	3.43
416.048	3.4
416.406	3.4
416.764	3.39
417.122	3.39
417.48	3.38
417.838	3.36
418.195	3.36
418.553	3.36
418.911	3.34
419.269	3.33
419.626	3.29
419.984	3.27
420.342	3.24
420.699	3.22
421.057	3.2
421.414	3.17
421.772	3.15
422.129	3.14
422.486	3.12
422.844	3.1
423.201	3.07
423.558	3.06
423.915	3.05
424.273	3.04
424.63	3.01
424.987	3.01
425.344	3
425.701	2.98
426.058	2.98
426.415	2.95
426.772	2.93
427.128	2.93
427.485	2.92
427.842	2.9
428.199	2.91
428.555	2.9
428.912	2.89
429.269	2.89
429.625	2.87
429.982	2.87
430.338	2.87
430.695	2.87
431.051	2.87
431.407	2.88
431.764	2.87
432.12	2.88
432.476	2.87
432.832	2.85
433.189	2.87
433.545	2.84
433.901	2.84
434.257	2.83
434.613	2.84
434.969	2.86
435.325	2.88
435.681	2.87
436.036	2.88
436.392	2.87
436.748	2.87
437.104	2.86
437.459	2.85
437.815	2.84
438.171	2.85
438.526	2.86
438.882	2.85
439.237	2.86
439.593	2.86
439.948	2.85
440.304	2.86
440.659	2.85
441.014	2.88
441.369	2.86
441.725	2.85
442.08	2.85
442.435	2.83
442.79	2.81
443.145	2.79
443.5	2.78
443.855	2.78
444.21	2.78
444.565	2.79
444.92	2.8
445.275	2.78
445.629	2.77
445.984	2.76
446.339	2.75
446.693	2.73
447.048	2.72
447.403	2.71
447.757	2.7
448.112	2.7
448.466	2.68
448.82	2.68
449.175	2.68
449.529	2.66
449.883	2.67
450.238	2.67
450.592	2.69
450.946	2.67
451.3	2.65
451.654	2.66
452.008	2.65
452.362	2.62
452.716	2.63
453.07	2.64
453.424	2.64
453.778	2.62
454.132	2.62
454.486	2.61
454.839	2.6
455.193	2.6
455.547	2.59
455.9	2.59
456.254	2.6
456.607	2.6
456.961	2.59
457.314	2.59
457.668	2.59
458.021	2.58
458.375	2.58
458.728	2.59
459.081	2.57
459.434	2.57
459.787	2.59
460.141	2.6
460.494	2.57
460.847	2.56
461.2	2.57
461.553	2.57
461.906	2.59
462.259	2.61
462.611	2.62
462.964	2.63
463.317	2.64
463.67	2.66
464.022	2.66
464.375	2.68
464.728	2.68
465.08	2.68
465.433	2.71
465.785	2.71
466.138	2.7
466.49	2.71
466.843	2.7
467.195	2.71
467.547	2.73
467.899	2.74
468.252	2.75
468.604	2.74
468.956	2.76
469.308	2.73
469.66	2.74
470.012	2.74
470.364	2.74
470.716	2.75
471.068	2.75
471.42	2.76
471.772	2.76
472.123	2.78
472.475	2.79
472.827	2.78
473.178	2.79
473.53	2.79
473.882	2.81
474.233	2.83
474.585	2.82
474.936	2.81
475.288	2.82
475.639	2.83
475.99	2.86
476.342	2.83
476.693	2.86
477.044	2.9
477.395	2.89
477.746	2.88
478.097	2.88
478.448	2.85
478.8	2.86
479.15	2.85
479.501	2.84
479.852	2.85
480.203	2.84
480.554	2.85
480.905	2.87
481.255	2.87
481.606	2.87
481.957	2.87
482.307	2.87
482.658	2.87
483.009	2.88
483.359	2.87
483.709	2.88
484.06	2.87
484.41	2.85
484.761	2.86
485.111	2.85
485.461	2.86
485.811	2.86
486.162	2.85
486.512	2.86
486.862	2.86
487.212	2.85
487.562	2.85
487.912	2.85
488.262	2.84
488.612	2.83
488.961	2.83
489.311	2.83
489.661	2.82
490.011	2.82
490.36	2.82
490.71	2.83
491.06	2.83
491.409	2.83
491.759	2.83
492.108	2.84
492.458	2.84
492.807	2.83
493.157	2.84
493.506	2.86
493.855	2.86
494.204	2.86
494.554	2.87
494.903	2.88
495.252	2.89
495.601	2.91
495.95	2.92
496.299	2.93
496.648	2.93
496.997	2.96
497.346	2.99
497.695	3.02
498.043	3.03
498.392	3.05
498.741	3.08
499.09	3.1
499.438	3.12
499.787	3.16
500.135	3.21
500.484	3.23
500.832	3.25
501.181	3.28
501.529	3.32
501.878	3.36
502.226	3.39
502.574	3.42
502.923	3.46
503.271	3.5
503.619	3.54
503.967	3.6
504.315	3.63
504.663	3.66
505.011	3.69
505.359	3.72
505.707	3.77
506.055	3.8
506.403	3.84
506.751	3.87
507.098	3.91
507.446	3.96
507.794	4.01
508.141	4.05
508.489	4.11
508.837	4.17
509.184	4.22
509.531	4.27
509.879	4.35
510.226	4.41
510.574	4.46
510.921	4.51
511.268	4.55
511.616	4.62
511.963	4.68
512.31	4.73
512.657	4.82
513.004	4.9
513.351	4.99
513.698	5.05
514.045	5.13
514.392	5.22
514.739	5.29
515.086	5.37
515.432	5.44
515.779	5.5
516.126	5.59
516.473	5.66
516.819	5.73
517.166	5.78
517.512	5.85
517.859	5.93
518.205	6
518.552	6.07
518.898	6.14
519.245	6.24
519.591	6.31
519.937	6.38
520.283	6.43
520.629	6.52
520.976	6.65
521.322	6.76
521.668	6.83
522.014	6.93
522.36	7.05
522.706	7.16
523.052	7.27
523.398	7.37
523.743	7.51
524.089	7.64
524.435	7.74
524.781	7.88
525.126	8
525.472	8.11
525.817	8.22
526.163	8.29
526.509	8.37
526.854	8.46
527.199	8.54
527.545	8.62
527.89	8.7
528.235	8.77
528.581	8.84
528.926	8.94
529.271	9.02
529.616	9.1
529.961	9.19
530.306	9.28
530.651	9.38
530.996	9.48
531.341	9.57
531.686	9.69
532.031	9.79
532.376	9.9
532.721	10.01
533.065	10.13
533.41	10.27
533.755	10.38
534.099	10.49
534.444	10.65
534.788	10.78
535.133	10.9
535.477	11.03
535.822	11.19
536.166	11.36
536.51	11.55
536.855	11.73
537.199	11.91
537.543	12.12
537.887	12.31
538.231	12.52
538.576	12.75
538.92	12.95
539.264	13.11
539.608	13.3
539.951	13.49
540.295	13.67
540.639	13.87
540.983	14.06
541.327	14.24
541.671	14.42
542.014	14.6
542.358	14.78
542.701	14.95
543.045	15.11
543.389	15.28
543.732	15.46
544.075	15.65
544.419	15.87
544.762	16.08
545.105	16.32
545.449	16.55
545.792	16.78
546.135	17.04
546.478	17.35
546.821	17.66
547.165	17.92
547.508	18.22
547.851	18.51
548.194	18.77
548.536	19.09
548.879	19.39
549.222	19.68
549.565	20.04
549.908	20.36
550.25	20.73
550.593	21.1
550.936	21.43
551.278	21.79
551.621	22.15
551.963	22.51
552.306	22.83
552.648	23.14
552.991	23.46
553.333	23.81
553.675	24.14
554.017	24.46
554.36	24.83
554.702	25.14
555.044	25.47
555.386	25.84
555.728	26.15
556.07	26.49
556.412	26.89
556.754	27.24
557.096	27.59
557.438	27.94
557.78	28.27
558.121	28.66
558.463	28.98
558.805	29.29
559.147	29.61
559.488	29.94
559.83	30.31
560.171	30.63
560.513	30.96
560.854	31.26
561.196	31.63
561.537	31.95
561.878	32.27
562.22	32.6
562.561	32.91
562.902	33.3
563.243	33.62
563.584	33.93
563.925	34.24
564.266	34.53
564.607	34.79
564.948	35.11
565.289	35.39
565.63	35.66
565.971	35.97
566.312	36.23
566.653	36.54
566.993	36.8
567.334	37.15
567.675	37.48
568.015	37.75
568.356	37.98
568.696	38.25
569.037	38.57
569.377	38.85
569.718	39.13
570.058	39.31
570.398	39.56
570.739	39.82
571.079	40.08
571.419	40.32
571.759	40.64
572.099	40.87
572.439	41.1
572.779	41.39
573.119	41.58
573.459	41.85
573.799	42.09
574.139	42.32
574.479	42.5
574.819	42.73
575.158	42.98
575.498	43.2
575.838	43.44
576.177	43.62
576.517	43.8
576.856	44.01
577.196	44.26
577.535	44.52
577.875	44.71
578.214	44.94
578.553	45.24
578.893	45.42
579.232	45.66
579.571	45.84
579.91	45.98
580.25	46.23
580.589	46.45
580.928	46.7
581.267	46.85
581.606	47.04
581.945	47.15
582.283	47.27
582.622	47.51
582.961	47.69
583.3	47.87
583.639	48.02
583.977	48.23
584.316	48.48
584.654	48.54
584.993	48.73
585.332	48.98
585.67	49.1
586.008	49.21
586.347	49.34
586.685	49.51
587.024	49.73
587.362	49.86
587.7	49.95
588.038	49.98
588.376	50.12
588.715	50.26
589.053	50.44
589.391	50.61
589.729	50.72
590.067	50.77
590.404	50.92
590.742	51.11
591.08	51.19
591.418	51.2
591.756	51.34
592.093	51.46
592.431	51.54
592.769	51.66
593.106	51.81
593.444	51.86
593.781	51.96
594.119	52.03
594.456	52.07
594.793	52.2
595.131	52.35
595.468	52.39
595.805	52.47
596.143	52.51
596.48	52.56
596.817	52.62
597.154	52.71
597.491	52.73
597.828	52.8
598.165	52.91
598.502	53
598.839	53.15
599.176	53.28
599.512	53.31
599.849	53.37
600.186	53.38
600.523	53.54
600.859	53.72
601.196	53.86
601.532	54.03
601.869	54.06
602.205	54.07
602.542	54.21
602.878	54.33
603.215	54.42
603.551	54.52
603.887	54.54
604.223	54.64
604.56	54.75
604.896	54.83
605.232	54.92
605.568	55.04
605.904	55.1
606.24	55.13
606.576	55.19
606.912	55.29
607.248	55.4
607.583	55.44
607.919	55.43
608.255	55.45
608.591	55.47
608.926	55.56
609.262	55.74
609.597	55.83
609.933	55.83
610.268	55.88
610.604	55.94
610.939	56.07
611.275	56.11
611.61	56.16
611.945	56.21
612.281	56.23
612.616	56.25
612.951	56.22
613.286	56.25
613.621	56.31
613.956	56.29
614.291	56.3
614.626	56.4
614.961	56.45
615.296	56.48
615.631	56.57
615.966	56.59
616.3	56.48
616.635	56.47
616.97	56.49
617.304	56.59
617.639	56.62
617.973	56.63
618.308	56.67
618.642	56.7
618.977	56.61
619.311	56.69
619.646	56.68
619.98	56.78
620.314	56.8
620.648	56.85
620.983	56.95
621.317	57.07
621.651	57.14
621.985	57.17
622.319	57.28
622.653	57.29
622.987	57.35
623.321	57.46
623.655	57.54
623.988	57.62
624.322	57.62
624.656	57.57
624.99	57.6
625.323	57.64
625.657	57.63
625.99	57.8
626.324	57.77
626.657	57.88
626.991	57.9
627.324	57.9
627.658	57.96
627.991	57.95
628.324	57.86
628.657	57.77
628.991	57.72
629.324	57.69
629.657	57.73
629.99	57.81
630.323	57.9
630.656	57.9
630.989	57.95
631.322	57.93
631.655	58.08
631.987	58.09
632.32	58.16
632.653	58.2
632.986	58.14
633.318	58.21
633.651	58.23
633.984	58.24
634.316	58.31
634.649	58.25
634.981	58.27
635.313	58.42
635.646	58.59
635.978	58.66
636.31	58.74
636.643	58.82
636.975	58.81
637.307	58.68
637.639	58.66
637.971	58.66
638.303	58.77
638.635	58.77
638.967	58.74
639.299	58.8
639.631	58.78
639.963	58.85
640.295	58.76
640.626	58.78
640.958	58.87
641.29	58.96
641.621	59.05
641.953	59.07
642.285	59.13
642.616	59.14
642.948	59.3
643.279	59.22
643.61	59.25
643.942	59.16
644.273	59.26
644.604	59.26
644.936	59.26
645.267	59.17
645.598	59.18
645.929	59.34
646.26	59.2
646.591	59.26
646.922	59.25
647.253	59.36
647.584	59.33
647.915	59.33
648.245	59.28
648.576	59.16
648.907	59.2
649.238	59.11
649.568	59.11
649.899	59.1
650.229	59.14
650.56	59
650.89	59.15
651.221	59.24
651.551	59.3
651.882	59.23
652.212	59.3
652.542	59.41
652.872	59.39
653.203	59.55
653.533	59.63
653.863	59.64
654.193	59.74
654.523	59.75
654.853	59.64
655.183	59.7
655.513	59.91
655.843	59.91
656.172	59.97
656.502	60.02
656.832	60.09
657.162	60.02
657.491	60.09
657.821	60.03
658.15	60.03
658.48	60.04
658.809	60.08
659.139	60.14
659.468	60.09
659.798	60.1
660.127	60.06
660.456	60.14
660.785	60.13
661.115	60.08
661.444	60.17
661.773	60.3
662.102	60.33
662.431	60.23
662.76	60.3
663.089	60.35
663.418	60.31
663.747	60.16
664.076	60.4
664.404	60.46
664.733	60.34
665.062	60.33
665.39	60.33
665.719	60.33
666.048	60.29
666.376	60.21
666.705	60.14
667.033	60.07
667.362	59.92
667.69	59.91
668.018	59.92
668.347	59.86
668.675	59.76
669.003	59.83
669.331	59.85
669.659	59.9
669.987	59.76
670.315	59.75
670.643	59.82
670.971	59.6
671.299	59.77
671.627	59.99
671.955	60.02
672.283	60.08
672.61	60.21
672.938	60.17
673.266	60.27
673.593	60.41
673.921	60.44
674.249	60.43
674.576	60.5
674.904	60.42
675.231	60.32
675.558	60.54
675.886	60.49
676.213	60.46
676.54	60.41
676.867	60.45
677.195	60.51
677.522	60.47
677.849	60.64
678.176	60.44
678.503	60.32
678.83	60.29
679.157	60.11
679.484	59.99
679.81	59.99
680.137	59.97
680.464	59.99
680.791	60.02
681.117	60.08
681.444	60
681.771	60.07
682.097	60.17
682.424	60.16
682.75	60.14
683.077	60.21
683.403	60.22
683.729	60.3
684.056	60.25
684.382	60.25
684.708	60.25
685.034	60.3
685.36	60.47
685.686	60.45
686.012	60.71
686.339	60.72
686.664	60.82
686.99	60.93
687.316	60.8
687.642	60.8
687.968	60.94
688.294	61.13
688.619	61.2
688.945	61.13
689.271	61.05
689.596	61.11
689.922	61.07
690.247	60.97
690.573	60.95
690.898	61.02
691.224	61.17
691.549	61.05
691.874	61.07
692.2	61.02
692.525	61.06
692.85	60.99
693.175	61.13
693.5	61.04
693.825	61.07
694.15	61.16
694.475	61.17
694.8	61.13
695.125	61.01
695.45	60.96
695.775	61.01
696.099	60.95
696.424	60.8
696.749	60.72
697.073	60.76
697.398	60.72
697.723	60.77
698.047	60.69
698.372	60.77
698.696	60.64
699.02	60.53
699.345	60.6
699.669	60.63
699.993	60.56
700.318	60.64
700.642	60.54
700.966	60.59
701.29	60.59
701.614	60.43
701.938	60.49
702.262	60.55
702.586	60.66
702.91	60.74
703.234	60.89
703.557	61.02
703.881	61.07
704.205	61.39
704.529	61.36
704.852	61.41
705.176	61.26
705.499	61.42
705.823	61.39
706.146	61.28
706.47	61.27
706.793	61.48
707.117	61.61
707.44	61.55
707.763	61.4
708.086	61.43
708.409	61.57
708.733	61.44
709.056	61.42
709.379	61.32
709.702	61.17
710.025	61.03
710.348	61.1
710.671	61.06
710.993	60.91
711.316	61
711.639	60.96
711.962	61.03
712.284	60.94
712.607	60.93
712.93	61
713.252	60.96
713.575	60.88
713.897	60.88
714.22	60.93
714.542	60.97
714.864	60.97
715.187	60.96
715.509	60.94
715.831	60.85
716.153	60.72
716.475	60.73
716.798	60.97
717.12	60.94
717.442	61.21
717.764	61.12
718.085	60.98
718.407	60.98
718.729	61.06
719.051	61.04
719.373	61.21
719.695	61.15
720.016	61.03
720.338	61.1
720.659	60.87
720.981	60.91
721.302	60.93
721.624	60.65
721.945	60.71
722.267	60.86
722.588	60.97
722.909	61.07
723.231	61.25
723.552	60.87
723.873	60.9
724.194	60.48
724.515	60.33
724.836	60.16
725.157	60.27
725.478	60.1
725.799	60.43
726.12	60.51
726.441	60.37
726.762	60.62
727.083	60.53
727.403	60.5
727.724	60.62
728.045	60.92
728.365	61.08
728.686	60.96
729.006	60.74
729.327	60.78
729.647	60.77
729.967	60.64
730.288	60.9
730.608	61.03
730.928	60.97
731.249	60.96
731.569	61.19
731.889	61.1
732.209	61.24
732.529	61.13
732.849	60.97
733.169	61.11
733.489	61.11
733.809	61.02
734.129	61.2
734.448	60.93
734.768	60.62
735.088	60.96
735.408	61.16
735.727	61.22
736.047	61.2
736.366	61.45
736.686	61.48
737.005	61.34
737.325	61.11
737.644	61.32
737.963	61.33
738.283	61.27
738.602	61.29
738.921	61.16
739.24	61.19
739.56	61.24
739.879	61.36
740.198	61.26
740.517	61.58
740.836	61.52
741.155	61.58
741.473	61.76
741.792	61.26
742.111	61.17
742.43	60.95
742.748	60.94
743.067	60.61
743.386	60.67
743.704	60.61
744.023	60.78
744.341	60.69
744.66	61.08
744.978	60.78
745.297	61.04
745.615	61.39
745.933	61.09
746.252	60.91
746.57	60.66
746.888	60.92
747.206	60.65
747.524	60.76
747.842	60.74
748.16	60.68
748.478	60.74
748.796	60.94
749.114	61.32
749.432	61.39
749.749	61.25
750.067	61.11
750.385	61.21
750.703	61.04
751.02	60.97
751.338	60.7
751.655	61.25
751.973	61.09
752.29	60.81
752.608	61.06
752.925	61.11
753.242	60.83
753.56	60.64
753.877	60.6
754.194	60.56
754.511	60.52
754.828	60.3
755.145	60
755.462	59.65
755.779	59.54
756.096	59.59
756.413	59.78
756.73	60.17
757.047	60.4
757.364	60.31
757.68	60.62
757.997	60.57
758.314	60.21
758.63	60.27
758.947	60.11
759.264	60.13
759.58	60.62
759.896	61.34
760.213	61.09
760.529	61.53
760.846	61.46
761.162	61.24
761.478	61.44
761.794	62.02
762.11	62.21
762.426	62.34
762.743	62.08
763.059	62.24
763.375	62.11
763.69	62.05
764.006	62.32
764.322	62.25
764.638	62.21
764.954	62.26
765.27	62.32
765.585	62.64
765.901	62.62
766.216	62.45
766.532	62.2
766.848	62.63
767.163	62.3
767.478	62.15
767.794	62.47
768.109	62.63
768.424	62.52
768.74	62.36
769.055	62.2
769.37	62.6
769.685	62.38
770	62.72
770.315	62.62
770.63	62.45
770.945	62.48
771.26	62.65
771.575	62.68
771.89	62.43
772.205	62.22
772.52	62.29
772.834	62.23
773.149	62.11
773.464	61.83
773.778	61.82
774.093	62.3
774.407	62.23
774.722	61.84
775.036	61.91
775.351	62.11
775.665	62.35
775.979	62.55
776.293	62.67
776.608	62.76
776.922	62.67
777.236	62.51
777.55	62.45
777.864	62.58
778.178	62.87
778.492	63.14
778.806	63.03
779.12	62.95
779.434	63.05
779.747	63.44
780.061	63.77
780.375	63.87
780.689	63.61
781.002	63.95
781.316	64.05
781.629	63.72
781.943	63.66
782.256	63.55
782.57	62.78
782.883	62.69
783.196	62
783.51	62.25
783.823	62.49
784.136	62.55
784.449	62.08
784.762	62.08
785.075	61.5
785.388	61.73
785.701	61.79
786.014	61.33
786.327	61.39
786.64	61.23
786.953	60.76
787.266	60.42
787.578	60.22
787.891	59.99
788.204	60.12
788.516	60.18
788.829	60.36
789.141	60.71
789.454	60.81
789.766	61.39
790.079	61.13
790.391	61.22
790.703	61.1
791.016	61.49
791.328	61.25
791.64	61.29
791.952	61.13
792.264	61.25
792.576	61.69
792.888	61.25
793.2	61.55
793.512	61.94
793.824	62.04
794.136	62.4
794.448	62.71
794.76	62.71
795.071	63.19
795.383	62.68
795.695	62.56
796.006	62.54
796.318	61.79
796.629	62.06
796.941	61.48
797.252	61.47
797.564	61.37
797.875	61.47
798.186	61.56
798.497	61.7
798.809	61.61
799.12	61.6
799.431	61.39
799.742	61.07
800.053	61.23
800.364	61.84
800.675	61.56
800.986	61.45
801.297	61.59
801.608	60.88
801.918	61.24
802.229	60.94
802.54	60.6
802.851	60.86
803.161	60.9
803.472	60.95
803.782	61.11
804.093	61.63
804.403	61.19
804.714	62.31
805.024	62.53
805.334	62.37
805.645	62.27
805.955	62.62
806.265	62.39
806.575	62.02
806.885	61.36
807.195	61.07
807.505	61.52
807.815	61.01
808.125	60.6
808.435	60.58
808.745	61.35
809.055	62.07
809.365	61.84
809.674	62.15
809.984	63.15
810.294	63.58
810.603	63.56
810.913	64.42
811.222	62.87
811.532	62.48
811.841	63.19
812.151	63
812.46	62.97
812.769	63.62
813.079	63.42
813.388	63.68
813.697	64.24
814.006	63.93
814.315	64.34
814.624	64.64
814.933	65.05
815.242	64.7
815.551	64.03
815.86	64.5
816.169	63.11
816.478	62.4
816.786	61.71
817.095	60.32
817.404	60.39
817.712	60.73
818.021	60.61
818.33	60.3
818.638	60.05
818.947	60.63
819.255	60.69
819.563	61.61
819.872	61.33
820.18	61.13
820.488	61.22
820.796	61.76
821.105	61.82
821.413	61.84
821.721	61.92
822.029	62.07
822.337	62.16
822.645	62.47
822.953	62.54
823.26	62.59
823.568	62.82
823.876	62.63
824.184	62.68
824.491	62.85
824.799	62.8
825.107	62.79
825.414	62.74
825.722	62.62
826.029	62.53
826.337	62.51
826.644	62.66
826.951	62.73
827.259	62.31
827.566	62.35
827.873	62.2
828.18	62.26
828.488	62.22
828.795	62.36
829.102	62.3
829.409	62.26
829.716	62.39
830.023	62.37
830.329	62.79
830.636	63.23
830.943	63.37
831.25	63.2
831.557	63.43
831.863	63.16
832.17	63.35
832.476	63.52
832.783	64.31
833.089	64.57
833.396	64.65
833.702	64.99
834.009	64.99
834.315	65.37
834.621	65.1
834.928	65.28
835.234	64.77
835.54	64.92
835.846	64.97
836.152	65.19
836.458	65.25
836.764	64.89
837.07	64.48
837.376	63.93
837.682	64.3
837.988	64.61
838.293	64.73
838.599	64.87
838.905	64.48
839.211	64.03
839.516	63.31
839.822	62.38
840.127	62.61
840.433	62.79
840.738	62.08
841.044	61.94
841.349	62.29
841.654	62.14
841.959	62.05
842.265	62.34
842.57	60.98
842.875	61.52
843.18	61.57
843.485	61.07
843.79	61.36
844.095	61.58
844.4	62.16
844.705	62.65
845.01	63.21
845.315	64
845.619	63.86
845.924	64.47
846.229	65.95
846.533	65.57
846.838	66.94
847.142	68.44
847.447	70.64
847.751	70.33
848.056	67.9
848.36	65.91
848.664	64.9
848.969	65.19
849.273	65.98
849.577	64.75
849.881	65.14
850.185	65.29
850.489	65.86
850.794	64.43
851.097	64.79
851.401	63.3
851.705	62.45
852.009	62.73
852.313	62.25
852.617	61.07
852.92	61.78
853.224	59.61
853.528	60.21
853.831	61.39
854.135	62.66
854.438	63.89
854.742	65.88
855.045	65.52
855.349	67.26
855.652	66.72
855.955	67.91
856.259	67.42
856.562	67.41
856.865	69.14
857.168	71.6
857.471	71.66
857.774	72.61
858.077	72.61
858.38	72.98
858.683	73.07
858.986	73.81
859.289	74.1
859.592	74.22
859.894	72.35
860.197	68.94
860.5	67.64
860.802	68.81
861.105	68.97
861.407	68.74
861.71	66.82
862.012	68.18
862.315	68.12
862.617	66.99
862.919	64.15
863.222	62.9
863.524	63.86
863.826	64.05
864.128	62.34
864.43	59.73
864.732	60.21
865.034	61.98
865.336	61.49
865.638	60.9
865.94	61.07
866.242	61.91
866.544	61.02
866.846	61.66
867.147	64.8
867.449	63.78
867.751	65.4
868.052	67.18
868.354	64.07
868.655	64.11
868.957	64.45
869.258	66.66
869.56	66.07
869.861	61.14
870.162	61.31
870.463	63.04
870.765	66.36
871.066	65.27
871.367	63.26
871.668	66.41
871.969	66.99
872.27	68.04
872.571	65.48
872.872	67.45
873.173	67.79
873.473	65.34
873.774	64.25
874.075	64.45
874.376	61.87
874.676	60.23
874.977	59
875.277	62.63
875.578	63.79
875.878	63.56
876.179	65.51
876.479	65.11
876.78	64.36
877.08	63.86
877.38	64.41
877.68	65.91
877.981	62.94
878.281	61.33
878.581	60.11
