Data from BU58140_Reflection_00011.txt Node
Date: Tue Nov 19 10:53:43 EST 2019
User: vgr7
Spectrometer: USB2G7710
Scans to average: 3
Trigger mode: 4
Integration Time (sec): 2.000000E-2
Electric dark correction enabled: true
Boxcar width: 10
XAxis mode: Wavelengths
Number of Pixels in Spectrum: 2048
>>>>>Begin Spectral Data<<<<<
177.721	187.84
178.105	-246.15
178.488	-108.6
178.871	-657.14
179.254	-516.67
179.636	461.7
180.019	580.77
180.402	600
180.785	218.75
181.168	21.87
181.55	381.25
181.933	235.42
182.316	116.03
182.698	140.12
183.081	102.05
183.463	86.33
183.846	112.3
184.228	72.66
184.611	119.23
184.993	-35
185.376	-89.76
185.758	-57.79
186.14	-31.25
186.522	75.35
186.904	40.38
187.287	44.24
187.669	11.84
188.051	-9.3
188.433	-43.38
188.815	-60.4
189.197	-63.38
189.579	-49.14
189.961	-54.23
190.342	-41.73
190.724	-47.34
191.106	-60.71
191.488	-65.77
191.869	-67.48
192.251	-70.75
192.633	-59.81
193.014	-66.95
193.396	-72.44
193.777	-62.77
194.159	-48.83
194.54	-58.76
194.922	-51.84
195.303	-56.82
195.684	-54.59
196.065	-50.52
196.447	-30.57
196.828	-26.86
197.209	-17.68
197.59	-31.81
197.971	-24.7
198.352	-29.57
198.733	-31.03
199.114	-25.8
199.495	-19.17
199.876	-13.31
200.257	-19.77
200.638	-30.21
201.018	-34.46
201.399	-27.85
201.78	-32.12
202.16	-44.27
202.541	-53.56
202.922	-44.57
203.302	-38.33
203.683	-30.1
204.063	-28.16
204.444	-29.42
204.824	-26.56
205.204	-28.41
205.585	-11.26
205.965	-10.72
206.345	-1.2
206.725	12.29
207.106	25.1
207.486	26.24
207.866	22.67
208.246	23.52
208.626	26.27
209.006	32.4
209.386	23.24
209.766	21.98
210.145	27.77
210.525	29.1
210.905	19.34
211.285	17.46
211.664	14.68
212.044	9.68
212.424	7.45
212.803	0.8
213.183	6.58
213.562	7.87
213.942	7.85
214.321	1.05
214.701	-10.16
215.08	-14.58
215.459	-4.29
215.838	-8.44
216.218	-3.27
216.597	-1.81
216.976	-7.22
217.355	-5.29
217.734	-4.07
218.113	-8.93
218.492	-20.84
218.871	-21.81
219.25	-33.66
219.629	-37.66
220.008	-32.77
220.387	-44.02
220.766	-45.46
221.144	-53.19
221.523	-54.48
221.902	-59.33
222.28	-41.15
222.659	-28.11
223.037	-32.85
223.416	-33.46
223.794	-29.62
224.173	-30.32
224.551	-22.2
224.929	-22.82
225.308	-14.38
225.686	-11.7
226.064	-7.88
226.442	0.77
226.821	1.15
227.199	3.68
227.577	6.45
227.955	9.29
228.333	12.16
228.711	13.97
229.089	12.14
229.467	9.32
229.845	10.29
230.222	7.62
230.6	4.02
230.978	5.46
231.356	3.96
231.733	7.12
232.111	7.03
232.488	5.26
232.866	8.46
233.243	7.99
233.621	7.34
233.998	5.19
234.376	4.1
234.753	4.11
235.13	4.81
235.508	4.3
235.885	2.15
236.262	1.25
236.639	1.17
237.016	3.11
237.393	4.8
237.77	3.95
238.147	4.65
238.524	6.02
238.901	5.75
239.278	5.89
239.655	4.26
240.032	4.5
240.409	4.72
240.785	4.16
241.162	4.14
241.539	4.09
241.915	4.69
242.292	4.54
242.668	4.41
243.045	4.44
243.421	4.68
243.798	4.94
244.174	5.24
244.551	5.18
244.927	4.83
245.303	4.7
245.679	4.71
246.056	4.76
246.432	4.54
246.808	4.68
247.184	4.58
247.56	4.68
247.936	4.5
248.312	4.4
248.688	4.35
249.064	4.4
249.44	4.52
249.815	4.44
250.191	4.62
250.567	4.71
250.943	4.47
251.318	4.36
251.694	4.35
252.069	4.49
252.445	4.68
252.82	5
253.196	4.82
253.571	5.14
253.947	4.79
254.322	4.89
254.697	4.43
255.073	4.41
255.448	4.41
255.823	4.77
256.198	4.83
256.573	4.89
256.948	4.71
257.323	4.74
257.698	4.67
258.073	4.45
258.448	4.64
258.823	4.67
259.198	4.73
259.573	4.47
259.948	4.21
260.322	4.17
260.697	4.2
261.072	4.28
261.446	4.13
261.821	4.18
262.195	4.14
262.57	4.25
262.944	4.32
263.319	4.39
263.693	4.28
264.067	4.14
264.442	4.11
264.816	4.08
265.19	3.83
265.564	3.83
265.938	3.99
266.313	3.79
266.687	3.9
267.061	3.97
267.435	4.24
267.809	4.58
268.183	4.38
268.556	4.18
268.93	4.09
269.304	4.03
269.678	4.12
270.051	4.13
270.425	4.1
270.799	3.98
271.172	4
271.546	4.1
271.919	4.21
272.293	4.11
272.666	4.11
273.04	4.24
273.413	4.33
273.787	4.3
274.16	4.29
274.533	4.26
274.906	4.18
275.279	4.19
275.653	4.08
276.026	4.14
276.399	4.07
276.772	4.23
277.145	4.24
277.518	4.12
277.891	3.96
278.263	3.97
278.636	4.25
279.009	4.12
279.382	3.98
279.755	3.97
280.127	3.95
280.5	3.79
280.872	3.85
281.245	3.81
281.617	3.78
281.99	3.82
282.362	3.8
282.735	3.8
283.107	3.75
283.479	3.56
283.852	3.58
284.224	3.69
284.596	3.65
284.968	3.71
285.34	3.77
285.713	3.84
286.085	3.86
286.457	3.76
286.829	3.73
287.201	3.7
287.572	3.69
287.944	3.87
288.316	4
288.688	4
289.06	3.97
289.431	3.98
289.803	4.13
290.175	4.19
290.546	4.21
290.918	4.28
291.289	4.36
291.661	4.37
292.032	4.41
292.403	4.4
292.775	4.57
293.146	4.56
293.517	4.63
293.889	4.68
294.26	4.6
294.631	4.82
295.002	4.9
295.373	4.95
295.744	4.95
296.115	5.14
296.486	5.2
296.857	5.42
297.228	5.45
297.599	5.39
297.97	5.36
298.34	5.32
298.711	5.28
299.082	5.3
299.452	5.33
299.823	5.35
300.194	5.63
300.564	5.56
300.935	5.67
301.305	5.76
301.676	5.7
302.046	5.77
302.416	5.86
302.787	6.01
303.157	6.04
303.527	6.11
303.897	5.97
304.267	5.96
304.637	5.88
305.008	5.86
305.378	5.88
305.748	5.91
306.117	6.04
306.487	6.32
306.857	6.47
307.227	6.61
307.597	6.67
307.967	6.57
308.336	6.65
308.706	6.7
309.076	6.64
309.445	6.74
309.815	6.97
310.184	6.84
310.554	6.79
310.923	6.89
311.293	6.92
311.662	7.11
312.031	7.11
312.401	7.12
312.77	7.21
313.139	7.34
313.508	7.43
313.877	7.48
314.246	7.29
314.616	7.35
314.985	7.36
315.353	7.41
315.722	7.4
316.091	7.59
316.46	7.71
316.829	7.9
317.198	8.22
317.567	8.27
317.935	8.37
318.304	8.6
318.672	8.67
319.041	8.66
319.41	8.7
319.778	8.84
320.147	8.94
320.515	8.95
320.883	8.89
321.252	9
321.62	9.1
321.988	9.42
322.357	9.58
322.725	9.72
323.093	9.8
323.461	9.98
323.829	9.83
324.197	9.95
324.565	9.92
324.933	9.77
325.301	9.63
325.669	9.68
326.037	9.72
326.405	9.81
326.772	9.99
327.14	9.88
327.508	10.06
327.875	10.1
328.243	10.25
328.61	10.32
328.978	10.16
329.346	10.23
329.713	10.2
330.08	10.26
330.448	10.26
330.815	10.25
331.182	10.31
331.55	10.47
331.917	10.38
332.284	10.52
332.651	10.66
333.018	10.73
333.385	10.82
333.752	10.69
334.119	10.71
334.486	10.73
334.853	10.9
335.22	10.79
335.587	10.81
335.954	10.74
336.32	10.88
336.687	11.19
337.054	11.26
337.42	11.3
337.787	11.14
338.153	11.21
338.52	11.35
338.886	11.2
339.253	11.16
339.619	11.23
339.986	11.15
340.352	11.11
340.718	11.23
341.084	11.1
341.451	11.22
341.817	11.18
342.183	11.15
342.549	11.24
342.915	11.28
343.281	11.33
343.647	11.49
344.013	11.44
344.379	11.35
344.745	11.25
345.11	11.25
345.476	11.34
345.842	11.26
346.208	11.25
346.573	11.29
346.939	11.39
347.304	11.32
347.67	11.33
348.035	11.36
348.401	11.34
348.766	11.45
349.132	11.6
349.497	11.7
349.862	11.74
350.228	11.61
350.593	11.64
350.958	11.57
351.323	11.5
351.688	11.45
352.053	11.46
352.418	11.45
352.783	11.4
353.148	11.35
353.513	11.35
353.878	11.24
354.243	11.15
354.608	11.06
354.972	11.07
355.337	11.14
355.702	11.08
356.066	10.99
356.431	10.9
356.795	10.75
357.16	10.62
357.524	10.6
357.889	10.54
358.253	10.49
358.618	10.47
358.982	10.43
359.346	10.4
359.71	10.35
360.075	10.36
360.439	10.38
360.803	10.37
361.167	10.3
361.531	10.35
361.895	10.38
362.259	10.34
362.623	10.29
362.987	10.16
363.351	10.08
363.714	10.04
364.078	10
364.442	9.9
364.806	9.91
365.169	9.86
365.533	9.86
365.896	9.73
366.26	9.64
366.623	9.57
366.987	9.54
367.35	9.55
367.714	9.42
368.077	9.3
368.44	9.25
368.803	9.21
369.167	9.05
369.53	8.99
369.893	8.92
370.256	8.81
370.619	8.76
370.982	8.75
371.345	8.7
371.708	8.69
372.071	8.63
372.434	8.56
372.797	8.45
373.159	8.31
373.522	8.27
373.885	8.25
374.247	8.14
374.61	8.04
374.973	7.9
375.335	7.87
375.698	7.75
376.06	7.65
376.423	7.6
376.785	7.6
377.147	7.52
377.51	7.44
377.872	7.35
378.234	7.34
378.596	7.27
378.958	7.23
379.321	7.11
379.683	7.04
380.045	6.93
380.407	6.87
380.769	6.85
381.13	6.78
381.492	6.7
381.854	6.7
382.216	6.7
382.578	6.64
382.939	6.56
383.301	6.54
383.663	6.54
384.024	6.45
384.386	6.35
384.747	6.29
385.109	6.27
385.47	6.27
385.832	6.18
386.193	6.17
386.554	6.09
386.916	6.12
387.277	6.07
387.638	5.99
387.999	5.97
388.36	5.9
388.721	5.91
389.082	5.88
389.443	5.8
389.804	5.7
390.165	5.67
390.526	5.63
390.887	5.55
391.248	5.48
391.609	5.48
391.969	5.46
392.33	5.44
392.691	5.39
393.051	5.36
393.412	5.32
393.772	5.26
394.133	5.25
394.493	5.19
394.854	5.19
395.214	5.18
395.574	5.08
395.935	5.02
396.295	4.94
396.655	4.88
397.015	4.86
397.376	4.84
397.736	4.79
398.096	4.75
398.456	4.74
398.816	4.7
399.176	4.62
399.535	4.54
399.895	4.48
400.255	4.45
400.615	4.4
400.975	4.38
401.334	4.33
401.694	4.32
402.054	4.28
402.413	4.24
402.773	4.21
403.132	4.21
403.492	4.21
403.851	4.19
404.211	4.2
404.57	4.21
404.929	4.18
405.288	4.18
405.648	4.16
406.007	4.16
406.366	4.14
406.725	4.14
407.084	4.2
407.443	4.21
407.802	4.17
408.161	4.16
408.52	4.16
408.879	4.16
409.238	4.13
409.596	4.13
409.955	4.12
410.314	4.11
410.673	4.1
411.031	4.09
411.39	4.1
411.748	4.09
412.107	4.06
412.465	4.05
412.824	4.01
413.182	4.01
413.54	4.01
413.899	3.98
414.257	3.96
414.615	3.91
414.974	3.91
415.332	3.92
415.69	3.89
416.048	3.86
416.406	3.8
416.764	3.77
417.122	3.73
417.48	3.72
417.838	3.72
418.195	3.7
418.553	3.68
418.911	3.65
419.269	3.61
419.626	3.59
419.984	3.57
420.342	3.57
420.699	3.56
421.057	3.55
421.414	3.55
421.772	3.53
422.129	3.5
422.486	3.48
422.844	3.46
423.201	3.46
423.558	3.45
423.915	3.45
424.273	3.45
424.63	3.44
424.987	3.43
425.344	3.42
425.701	3.4
426.058	3.39
426.415	3.38
426.772	3.36
427.128	3.36
427.485	3.35
427.842	3.32
428.199	3.31
428.555	3.28
428.912	3.26
429.269	3.25
429.625	3.26
429.982	3.25
430.338	3.25
430.695	3.21
431.051	3.21
431.407	3.22
431.764	3.18
432.12	3.21
432.476	3.21
432.832	3.19
433.189	3.19
433.545	3.18
433.901	3.18
434.257	3.22
434.613	3.23
434.969	3.22
435.325	3.22
435.681	3.2
436.036	3.2
436.392	3.21
436.748	3.2
437.104	3.2
437.459	3.2
437.815	3.2
438.171	3.22
438.526	3.23
438.882	3.24
439.237	3.27
439.593	3.25
439.948	3.24
440.304	3.26
440.659	3.25
441.014	3.25
441.369	3.25
441.725	3.23
442.08	3.22
442.435	3.24
442.79	3.23
443.145	3.25
443.5	3.25
443.855	3.24
444.21	3.25
444.565	3.27
444.92	3.26
445.275	3.25
445.629	3.25
445.984	3.22
446.339	3.22
446.693	3.22
447.048	3.21
447.403	3.22
447.757	3.2
448.112	3.2
448.466	3.19
448.82	3.21
449.175	3.21
449.529	3.21
449.883	3.2
450.238	3.2
450.592	3.2
450.946	3.18
451.3	3.2
451.654	3.18
452.008	3.16
452.362	3.14
452.716	3.15
453.07	3.12
453.424	3.13
453.778	3.11
454.132	3.09
454.486	3.07
454.839	3.06
455.193	3.06
455.547	3.07
455.9	3.07
456.254	3.07
456.607	3.07
456.961	3.06
457.314	3.03
457.668	3.03
458.021	3.03
458.375	3.02
458.728	3.02
459.081	3.02
459.434	3.03
459.787	3.04
460.141	3.04
460.494	3.06
460.847	3.05
461.2	3.05
461.553	3.05
461.906	3.07
462.259	3.07
462.611	3.08
462.964	3.08
463.317	3.07
463.67	3.06
464.022	3.07
464.375	3.09
464.728	3.11
465.08	3.12
465.433	3.14
465.785	3.16
466.138	3.17
466.49	3.16
466.843	3.18
467.195	3.2
467.547	3.22
467.899	3.22
468.252	3.25
468.604	3.28
468.956	3.3
469.308	3.31
469.66	3.33
470.012	3.34
470.364	3.36
470.716	3.38
471.068	3.41
471.42	3.43
471.772	3.45
472.123	3.44
472.475	3.45
472.827	3.45
473.178	3.46
473.53	3.46
473.882	3.48
474.233	3.47
474.585	3.47
474.936	3.47
475.288	3.46
475.639	3.47
475.99	3.46
476.342	3.45
476.693	3.42
477.044	3.42
477.395	3.41
477.746	3.4
478.097	3.4
478.448	3.39
478.8	3.36
479.15	3.35
479.501	3.35
479.852	3.34
480.203	3.33
480.554	3.33
480.905	3.33
481.255	3.32
481.606	3.33
481.957	3.33
482.307	3.32
482.658	3.33
483.009	3.32
483.359	3.32
483.709	3.32
484.06	3.32
484.41	3.32
484.761	3.32
485.111	3.31
485.461	3.3
485.811	3.31
486.162	3.31
486.512	3.3
486.862	3.3
487.212	3.3
487.562	3.31
487.912	3.3
488.262	3.3
488.612	3.3
488.961	3.3
489.311	3.29
489.661	3.3
490.011	3.29
490.36	3.29
490.71	3.3
491.06	3.3
491.409	3.3
491.759	3.3
492.108	3.31
492.458	3.31
492.807	3.32
493.157	3.32
493.506	3.34
493.855	3.35
494.204	3.37
494.554	3.39
494.903	3.39
495.252	3.41
495.601	3.43
495.95	3.44
496.299	3.45
496.648	3.48
496.997	3.49
497.346	3.51
497.695	3.55
498.043	3.57
498.392	3.61
498.741	3.66
499.09	3.7
499.438	3.75
499.787	3.78
500.135	3.81
500.484	3.86
500.832	3.9
501.181	3.96
501.529	4.01
501.878	4.06
502.226	4.12
502.574	4.17
502.923	4.24
503.271	4.31
503.619	4.39
503.967	4.46
504.315	4.55
504.663	4.64
505.011	4.71
505.359	4.78
505.707	4.86
506.055	4.94
506.403	5.01
506.751	5.1
507.098	5.2
507.446	5.31
507.794	5.39
508.141	5.49
508.489	5.58
508.837	5.69
509.184	5.77
509.531	5.87
509.879	5.96
510.226	6.05
510.574	6.19
510.921	6.28
511.268	6.38
511.616	6.5
511.963	6.6
512.31	6.75
512.657	6.88
513.004	7.01
513.351	7.16
513.698	7.31
514.045	7.46
514.392	7.63
514.739	7.8
515.086	7.98
515.432	8.14
515.779	8.31
516.126	8.47
516.473	8.64
516.819	8.8
517.166	9
517.512	9.15
517.859	9.3
518.205	9.46
518.552	9.61
518.898	9.77
519.245	9.92
519.591	10.05
519.937	10.21
520.283	10.39
520.629	10.55
520.976	10.71
521.322	10.89
521.668	11.11
522.014	11.31
522.36	11.47
522.706	11.69
523.052	11.93
523.398	12.17
523.743	12.45
524.089	12.73
524.435	12.94
524.781	13.19
525.126	13.39
525.472	13.63
525.817	13.84
526.163	14.01
526.509	14.17
526.854	14.35
527.199	14.5
527.545	14.66
527.89	14.82
528.235	14.99
528.581	15.15
528.926	15.3
529.271	15.49
529.616	15.65
529.961	15.82
530.306	15.98
530.651	16.14
530.996	16.31
531.341	16.49
531.686	16.71
532.031	16.91
532.376	17.14
532.721	17.33
533.065	17.53
533.41	17.78
533.755	18.03
534.099	18.28
534.444	18.52
534.788	18.73
535.133	18.99
535.477	19.21
535.822	19.47
536.166	19.73
536.51	19.98
536.855	20.29
537.199	20.58
537.543	20.92
537.887	21.27
538.231	21.57
538.576	21.91
538.92	22.23
539.264	22.53
539.608	22.81
539.951	23.08
540.295	23.36
540.639	23.61
540.983	23.86
541.327	24.09
541.671	24.35
542.014	24.6
542.358	24.8
542.701	25.05
543.045	25.29
543.389	25.51
543.732	25.76
544.075	26.02
544.419	26.26
544.762	26.5
545.105	26.78
545.449	27.08
545.792	27.35
546.135	27.62
546.478	27.89
546.821	28.2
547.165	28.54
547.508	28.82
547.851	29.14
548.194	29.44
548.536	29.75
548.879	30.05
549.222	30.38
549.565	30.72
549.908	31.02
550.25	31.33
550.593	31.7
550.936	32.06
551.278	32.34
551.621	32.67
551.963	33
552.306	33.28
552.648	33.56
552.991	33.81
553.333	34.11
553.675	34.41
554.017	34.68
554.36	34.88
554.702	35.19
555.044	35.45
555.386	35.73
555.728	36.01
556.07	36.27
556.412	36.53
556.754	36.75
557.096	37
557.438	37.31
557.78	37.62
558.121	37.84
558.463	38.17
558.805	38.44
559.147	38.72
559.488	38.95
559.83	39.2
560.171	39.43
560.513	39.69
560.854	39.93
561.196	40.22
561.537	40.46
561.878	40.71
562.22	40.94
562.561	41.13
562.902	41.31
563.243	41.6
563.584	41.79
563.925	42.04
564.266	42.25
564.607	42.42
564.948	42.57
565.289	42.76
565.63	42.91
565.971	43.1
566.312	43.25
566.653	43.42
566.993	43.59
567.334	43.78
567.675	43.92
568.015	44.08
568.356	44.23
568.696	44.44
569.037	44.59
569.377	44.74
569.718	44.96
570.058	45.12
570.398	45.19
570.739	45.38
571.079	45.53
571.419	45.72
571.759	45.86
572.099	46.02
572.439	46.17
572.779	46.29
573.119	46.42
573.459	46.58
573.799	46.66
574.139	46.76
574.479	46.87
574.819	47.01
575.158	47.16
575.498	47.29
575.838	47.48
576.177	47.54
576.517	47.65
576.856	47.74
577.196	47.88
577.535	48.03
577.875	48.16
578.214	48.33
578.553	48.41
578.893	48.55
579.232	48.58
579.571	48.7
579.91	48.84
580.25	48.97
580.589	49.01
580.928	49.23
581.267	49.43
581.606	49.52
581.945	49.69
582.283	49.79
582.622	49.92
582.961	50.01
583.3	50.17
583.639	50.32
583.977	50.46
584.316	50.61
584.654	50.77
584.993	50.9
585.332	51.02
585.67	51.12
586.008	51.24
586.347	51.39
586.685	51.5
587.024	51.63
587.362	51.8
587.7	51.91
588.038	52.01
588.376	52.09
588.715	52.27
589.053	52.37
589.391	52.48
589.729	52.54
590.067	52.61
590.404	52.69
590.742	52.81
591.08	52.85
591.418	52.91
591.756	52.9
592.093	52.9
592.431	52.98
592.769	53.11
593.106	53.17
593.444	53.34
593.781	53.42
594.119	53.48
594.456	53.44
594.793	53.56
595.131	53.6
595.468	53.66
595.805	53.68
596.143	53.71
596.48	53.75
596.817	53.79
597.154	53.82
597.491	53.92
597.828	53.91
598.165	54
598.502	54.11
598.839	54.16
599.176	54.27
599.512	54.23
599.849	54.31
600.186	54.4
600.523	54.34
600.859	54.39
601.196	54.48
601.532	54.6
601.869	54.64
602.205	54.67
602.542	54.77
602.878	54.83
603.215	54.83
603.551	54.85
603.887	54.91
604.223	54.87
604.56	54.87
604.896	55
605.232	55.04
605.568	55.06
605.904	55.24
606.24	55.25
606.576	55.31
606.912	55.36
607.248	55.41
607.583	55.53
607.919	55.6
608.255	55.58
608.591	55.61
608.926	55.71
609.262	55.79
609.597	55.81
609.933	55.8
610.268	55.91
610.604	55.96
610.939	56.1
611.275	56.2
611.61	56.23
611.945	56.22
612.281	56.27
612.616	56.35
612.951	56.27
613.286	56.34
613.621	56.33
613.956	56.3
614.291	56.28
614.626	56.27
614.961	56.3
615.296	56.36
615.631	56.35
615.966	56.3
616.3	56.33
616.635	56.35
616.97	56.45
617.304	56.47
617.639	56.51
617.973	56.48
618.308	56.5
618.642	56.55
618.977	56.53
619.311	56.53
619.646	56.57
619.98	56.66
620.314	56.69
620.648	56.78
620.983	56.82
621.317	56.85
621.651	56.86
621.985	56.9
622.319	56.9
622.653	56.97
622.987	56.96
623.321	56.99
623.655	57.02
623.988	57.17
624.322	57.11
624.656	57.13
624.99	57.12
625.323	57.15
625.657	57.16
625.99	57.26
626.324	57.3
626.657	57.26
626.991	57.27
627.324	57.29
627.658	57.3
627.991	57.31
628.324	57.31
628.657	57.34
628.991	57.42
629.324	57.44
629.657	57.42
629.99	57.45
630.323	57.53
630.656	57.52
630.989	57.43
631.322	57.46
631.655	57.5
631.987	57.49
632.32	57.56
632.653	57.59
632.986	57.63
633.318	57.62
633.651	57.62
633.984	57.63
634.316	57.68
634.649	57.76
634.981	57.84
635.313	57.84
635.646	57.87
635.978	57.82
636.31	57.84
636.643	57.89
636.975	57.89
637.307	57.85
637.639	57.83
637.971	57.88
638.303	57.91
638.635	57.82
638.967	57.86
639.299	57.82
639.631	57.82
639.963	57.84
640.295	57.83
640.626	57.93
640.958	57.91
641.29	57.94
641.621	58.02
641.953	58
642.285	58.1
642.616	58.14
642.948	58.08
643.279	58.18
643.61	58.22
643.942	58.32
644.273	58.38
644.604	58.42
644.936	58.44
645.267	58.49
645.598	58.66
645.929	58.7
646.26	58.75
646.591	58.87
646.922	58.81
647.253	58.88
647.584	58.85
647.915	58.85
648.245	58.88
648.576	58.84
648.907	58.87
649.238	58.93
649.568	58.91
649.899	58.97
650.229	58.98
650.56	59
650.89	59.04
651.221	59.04
651.551	59.1
651.882	59.09
652.212	59.02
652.542	59.04
652.872	59.05
653.203	59.06
653.533	59.03
653.863	59
654.193	58.98
654.523	59.08
654.853	59.04
655.183	58.9
655.513	58.92
655.843	58.87
656.172	58.85
656.502	58.94
656.832	58.95
657.162	58.87
657.491	58.95
657.821	58.9
658.15	58.93
658.48	58.95
658.809	58.86
659.139	58.92
659.468	58.77
659.798	58.89
660.127	58.9
660.456	58.89
660.785	58.92
661.115	59.03
661.444	58.98
661.773	59.05
662.102	59.17
662.431	59.25
662.76	59.36
663.089	59.3
663.418	59.18
663.747	59.21
664.076	59.21
664.404	59.21
664.733	59.08
665.062	59.05
665.39	59.03
665.719	59.07
666.048	59.05
666.376	59.13
666.705	59.08
667.033	59.01
667.362	58.91
667.69	58.91
668.018	58.79
668.347	58.73
668.675	58.79
669.003	58.73
669.331	58.54
669.659	58.52
669.987	58.55
670.315	58.47
670.643	58.4
670.971	58.5
671.299	58.38
671.627	58.54
671.955	58.36
672.283	58.39
672.61	58.44
672.938	58.48
673.266	58.39
673.593	58.38
673.921	58.43
674.249	58.43
674.576	58.49
674.904	58.47
675.231	58.53
675.558	58.55
675.886	58.6
676.213	58.65
676.54	58.63
676.867	58.56
677.195	58.78
677.522	58.81
677.849	58.84
678.176	58.75
678.503	58.76
678.83	58.83
679.157	58.69
679.484	58.83
679.81	58.88
680.137	58.97
680.464	58.96
680.791	58.96
681.117	59.06
681.444	59.01
681.771	59.04
682.097	58.92
682.424	58.82
682.75	58.78
683.077	58.74
683.403	58.63
683.729	58.69
684.056	58.55
684.382	58.57
684.708	58.36
685.034	58.47
685.36	58.37
685.686	58.65
686.012	58.78
686.339	58.61
686.664	58.55
686.99	58.57
687.316	58.54
687.642	58.75
687.968	58.7
688.294	58.77
688.619	58.82
688.945	58.84
689.271	58.9
689.596	58.93
689.922	59.02
690.247	59.2
690.573	59.25
690.898	59.24
691.224	59.38
691.549	59.56
691.874	59.57
692.2	59.59
692.525	59.27
692.85	59.23
693.175	59.31
693.5	59.38
693.825	59.33
694.15	59.39
694.475	59.26
694.8	59.44
695.125	59.32
695.45	59.3
695.775	59.29
696.099	59.41
696.424	59.49
696.749	59.68
697.073	59.74
697.398	59.81
697.723	59.85
698.047	59.79
698.372	59.79
698.696	59.79
699.02	59.92
699.345	59.92
699.669	59.95
699.993	59.87
700.318	59.85
700.642	59.77
700.966	59.65
701.29	59.74
701.614	59.59
701.938	59.65
702.262	59.74
702.586	59.87
702.91	59.66
703.234	59.42
703.557	59.16
703.881	59.09
704.205	59.01
704.529	59.07
704.852	59
705.176	58.97
705.499	58.93
705.823	58.88
706.146	59.09
706.47	58.94
706.793	59.09
707.117	59.01
707.44	59.21
707.763	59.32
708.086	59.26
708.409	59.37
708.733	59.27
709.056	59.34
709.379	59.32
709.702	59.41
710.025	59.54
710.348	59.56
710.671	59.46
710.993	59.51
711.316	59.6
711.639	59.62
711.962	59.81
712.284	59.82
712.607	59.9
712.93	59.82
713.252	59.95
713.575	59.78
713.897	59.83
714.22	59.83
714.542	59.8
714.864	59.73
715.187	59.75
715.509	59.85
715.831	59.67
716.153	59.67
716.475	59.7
716.798	59.8
717.12	59.94
717.442	60.06
717.764	60.04
718.085	59.9
718.407	59.87
718.729	59.77
719.051	59.89
719.373	59.78
719.695	59.73
720.016	59.74
720.338	59.84
720.659	59.93
720.981	59.79
721.302	59.74
721.624	59.81
721.945	59.58
722.267	59.74
722.588	59.73
722.909	59.75
723.231	59.75
723.552	59.56
723.873	59.42
724.194	59.35
724.515	59.02
724.836	58.96
725.157	58.84
725.478	58.77
725.799	58.67
726.12	58.56
726.441	58.8
726.762	58.87
727.083	59.2
727.403	59.27
727.724	59.47
728.045	59.46
728.365	59.49
728.686	59.77
729.006	59.69
729.327	59.69
729.647	59.66
729.967	59.48
730.288	59.54
730.608	59.49
730.928	59.39
731.249	59.46
731.569	59.67
731.889	59.75
732.209	59.69
732.529	59.66
732.849	59.64
733.169	59.42
733.489	59.34
733.809	58.81
734.129	58.69
734.448	58.71
734.768	58.63
735.088	58.38
735.408	58.37
735.727	58.28
736.047	58.45
736.366	58.41
736.686	58.63
737.005	58.65
737.325	58.86
737.644	59.08
737.963	59.34
738.283	59.27
738.602	59.41
738.921	59.39
739.24	59.38
739.56	59.7
739.879	59.7
740.198	59.66
740.517	59.91
740.836	59.99
741.155	59.68
741.473	59.94
741.792	60.21
742.111	60.13
742.43	60.26
742.748	60.34
743.067	60.52
743.386	60.76
743.704	60.69
744.023	60.42
744.341	60.34
744.66	60.26
744.978	59.96
745.297	60.01
745.615	60.18
745.933	60.29
746.252	60.11
746.57	59.86
746.888	59.87
747.206	59.77
747.524	59.64
747.842	59.77
748.16	59.62
748.478	59.56
748.796	59.64
749.114	59.7
749.432	59.27
749.749	58.85
750.067	58.64
750.385	58.93
750.703	58.94
751.02	58.88
751.338	58.78
751.655	59.09
751.973	58.88
752.29	59.07
752.608	58.95
752.925	58.73
753.242	58.98
753.56	59.1
753.877	59.33
754.194	59.7
754.511	59.85
754.828	60.05
755.145	59.96
755.462	59.92
755.779	59.55
756.096	59.73
756.413	60.04
756.73	59.96
757.047	59.78
757.364	59.78
757.68	59.76
757.997	59.75
758.314	59.84
758.63	59.98
758.947	59.82
759.264	60.24
759.58	60.31
759.896	60.5
760.213	60.8
760.529	60.6
760.846	60.55
761.162	60.56
761.478	60.36
761.794	60.47
762.11	60.5
762.426	60.56
762.743	60.56
763.059	60.57
763.375	60.72
763.69	60.7
764.006	61.05
764.322	61.03
764.638	61.09
764.954	61.13
765.27	61.27
765.585	61.32
765.901	61.15
766.216	61.54
766.532	61.48
766.848	61.21
767.163	61.2
767.478	61.05
767.794	61.05
768.109	61.24
768.424	61.19
768.74	61.11
769.055	61.17
769.37	61.18
769.685	61.57
770	61.28
770.315	61.54
770.63	61.44
770.945	61.6
771.26	61.55
771.575	61.33
771.89	61.24
772.205	60.86
772.52	60.7
772.834	60.19
773.149	60.48
773.464	60.12
773.778	59.8
774.093	59.85
774.407	59.67
774.722	59.48
775.036	59.47
775.351	59.38
775.665	59.71
775.979	59.45
776.293	58.99
776.608	59.37
776.922	58.92
777.236	58.7
777.55	58.63
777.864	58.89
778.178	59.06
778.492	59.11
778.806	59.63
779.12	59.58
779.434	59.52
779.747	59.23
780.061	59.49
780.375	59.82
780.689	60.23
781.002	59.96
781.316	60.45
781.629	60.78
781.943	60.41
782.256	59.9
782.57	60.47
782.883	60.43
783.196	60.05
783.51	60.26
783.823	60.38
784.136	60.52
784.449	60.32
784.762	60.13
785.075	60.17
785.388	60
785.701	60.07
786.014	60.2
786.327	60.14
786.64	60.11
786.953	60.24
787.266	59.99
787.578	60.27
787.891	59.58
788.204	59.61
788.516	60.15
788.829	60.64
789.141	60.44
789.454	60.21
789.766	60.59
790.079	60.74
790.391	60.63
790.703	60.62
791.016	60.74
791.328	60.47
791.64	60.21
791.952	60.13
792.264	60.16
792.576	60.13
792.888	60.67
793.2	60.43
793.512	60.63
793.824	60.4
794.136	60.62
794.448	60.72
794.76	60.02
795.071	59.75
795.383	59.2
795.695	59.23
796.006	59.69
796.318	59.36
796.629	58.9
796.941	58.77
797.252	58.43
797.564	58.47
797.875	58.66
798.186	58.36
798.497	58.28
798.809	58.38
799.12	58.78
799.431	58.5
799.742	59.34
800.053	58.74
800.364	59.12
800.675	58.63
800.986	58.26
801.297	58.24
801.608	58.1
801.918	58.42
802.229	57.99
802.54	57.74
802.851	57.18
803.161	57.17
803.472	57.2
803.782	57.24
804.093	56.8
804.403	57.16
804.714	57.8
805.024	57.79
805.334	57.78
805.645	57.12
805.955	56.74
806.265	56.59
806.575	57.88
806.885	57.33
807.195	57.79
807.505	58.65
807.815	59.26
808.125	59.46
808.435	59.91
808.745	59.79
809.055	60.06
809.365	61.06
809.674	61.46
809.984	61.32
810.294	61.77
810.603	61.72
810.913	61.58
811.222	60.98
811.532	60.4
811.841	60.33
812.151	60.96
812.46	61.21
812.769	60.26
813.079	59.12
813.388	59.33
813.697	59.32
814.006	59.11
814.315	59.11
814.624	58.9
814.933	58.66
815.242	58.82
815.551	59.35
815.86	59.18
816.169	58.64
816.478	58.72
816.786	58.03
817.095	58.19
817.404	58.21
817.712	58.28
818.021	58.36
818.33	58.49
818.638	58.13
818.947	58.41
819.255	59
819.563	59.38
819.872	59.19
820.18	59.62
820.488	59.67
820.796	59.93
821.105	59.91
821.413	60.2
821.721	60.65
822.029	60.63
822.337	60.58
822.645	60.93
822.953	60.84
823.26	60.91
823.568	61.03
823.876	60.86
824.184	60.87
824.491	61.18
824.799	61.22
825.107	61.38
825.414	61.47
825.722	61.37
826.029	61.39
826.337	61.64
826.644	61.64
826.951	61.81
827.259	61.8
827.566	62.03
827.873	61.76
828.18	61.7
828.488	61.7
828.795	62.02
829.102	61.92
829.409	62.43
829.716	62.17
830.023	62.06
830.329	62.03
830.636	62.16
830.943	62.06
831.25	62.1
831.557	61.91
831.863	61.85
832.17	62.07
832.476	61.91
832.783	61.44
833.089	61.57
833.396	61.53
833.702	61.11
834.009	61.32
834.315	61.28
834.621	61.17
834.928	60.98
835.234	60.3
835.54	60.15
835.846	59.67
836.152	59.76
836.458	60.22
836.764	60.99
837.07	61.23
837.376	60.54
837.682	60.07
837.988	59.98
838.293	60.25
838.599	60.64
838.905	60.64
839.211	61.3
839.516	60.94
839.822	60.29
840.127	60.53
840.433	60.79
840.738	61.28
841.044	60.57
841.349	60.77
841.654	61.07
841.959	61.24
842.265	61.79
842.57	62.49
842.875	61.65
843.18	61.27
843.485	60.94
843.79	61.97
844.095	62.51
844.4	62.12
844.705	60.78
845.01	60.29
845.315	59.87
845.619	60.22
845.924	59.59
846.229	60.77
846.533	60.45
846.838	58.48
847.142	58.49
847.447	59.16
847.751	58.19
848.056	57.8
848.36	57.31
848.664	56.71
848.969	56.16
849.273	55.21
849.577	54.32
849.881	54.23
850.185	53.7
850.489	54.27
850.794	55.52
851.097	55.68
851.401	55.27
851.705	55.97
852.009	53.68
852.313	52.7
852.617	52.5
852.92	53.09
853.224	54.13
853.528	52.95
853.831	53.43
854.135	53.1
854.438	53.16
854.742	53.02
855.045	52.26
855.349	53.3
855.652	54.51
855.955	54.85
856.259	55.7
856.562	53.95
856.865	52.69
857.168	51.36
857.471	50.62
857.774	50.18
858.077	50.58
858.38	52.01
858.683	52.63
858.986	51.57
859.289	51.77
859.592	51.82
859.894	51.23
860.197	49.26
860.5	49.37
860.802	49.39
861.105	47.56
861.407	47.64
861.71	47.79
862.012	48.33
862.315	48.49
862.617	46.57
862.919	48.86
863.222	48.21
863.524	49.74
863.826	51.69
864.128	52.08
864.43	53.57
864.732	53.72
865.034	54.03
865.336	53.72
865.638	53.68
865.94	54.55
866.242	55.98
866.544	57.22
866.846	56.29
867.147	56.99
867.449	57.2
867.751	57.09
868.052	56.78
868.354	55.48
868.655	56.63
868.957	55.28
869.258	53.62
869.56	55.59
869.861	54.49
870.162	54.13
870.463	56.06
870.765	56.23
871.066	55.65
871.367	53.73
871.668	54.13
871.969	55.07
872.27	53.32
872.571	53.4
872.872	53.69
873.173	54.82
873.473	54.01
873.774	56.17
874.075	58.38
874.376	58.91
874.676	58.72
874.977	57.41
875.277	57.57
875.578	61.12
875.878	61.06
876.179	61.81
876.479	61.04
876.78	58.92
877.08	57.23
877.38	57.39
877.68	60.72
877.981	60.83
878.281	58.25
878.581	58.54
