Data from BU58127_Reflection_00013.txt Node
Date: Mon Nov 18 16:44:27 EST 2019
User: vgr7
Spectrometer: USB2G7710
Scans to average: 3
Trigger mode: 4
Integration Time (sec): 2.000000E-2
Electric dark correction enabled: true
Boxcar width: 10
XAxis mode: Wavelengths
Number of Pixels in Spectrum: 2048
>>>>>Begin Spectral Data<<<<<
177.721	-1581.16
178.105	-223.94
178.488	-184.99
178.871	-131.88
179.254	-5.26
179.636	-629.17
180.019	3.31
180.402	185
180.785	128.99
181.168	-955.56
181.55	-185.71
181.933	78.08
182.316	46.9
182.698	45.39
183.081	47.54
183.463	63.8
183.846	57.67
184.228	-10.43
184.611	-86.67
184.993	-1233.33
185.376	-493.41
185.758	5638.46
186.14	-383.66
186.522	-223.23
186.904	-216.62
187.287	-265.02
187.669	2006.98
188.051	-483.85
188.433	-9455.56
188.815	339.63
189.197	705.5
189.579	170.89
189.961	117.64
190.342	112.02
190.724	108.28
191.106	124.43
191.488	120.45
191.869	100
192.251	100
192.633	47.81
193.014	51.84
193.396	10.85
193.777	-15.46
194.159	-10.48
194.54	-14.43
194.922	-18.77
195.303	-30.12
195.684	-43.02
196.065	-22.63
196.447	-16.98
196.828	-1.22
197.209	13.48
197.59	13.24
197.971	17.7
198.352	30.45
198.733	30.82
199.114	26.94
199.495	26.09
199.876	36.26
200.257	31.76
200.638	32.82
201.018	28.61
201.399	39.87
201.78	49.88
202.16	46.86
202.541	47.5
202.922	39.55
203.302	39.96
203.683	42.79
204.063	33.06
204.444	24.31
204.824	15.18
205.204	8.94
205.585	8.52
205.965	15.45
206.345	0.05
206.725	-5.74
207.106	-15.71
207.486	-15.46
207.866	-27.43
208.246	-25.72
208.626	-30.66
209.006	-31.37
209.386	-43.77
209.766	-49.72
210.145	-50.74
210.525	-39.59
210.905	-32.76
211.285	-33.72
211.664	-58.07
212.044	-52.75
212.424	-61.17
212.803	-68.11
213.183	-45.43
213.562	-37.49
213.942	-33.9
214.321	-29.21
214.701	-29.03
215.08	-23.08
215.459	-26.33
215.838	-10.57
216.218	-16.5
216.597	-1.5
216.976	-2.7
217.355	-5.92
217.734	-15.18
218.113	-8.71
218.492	-8.77
218.871	-14.77
219.25	7.61
219.629	28.69
220.008	32.26
220.387	27.24
220.766	23.73
221.144	11.09
221.523	5.09
221.902	-5.93
222.28	-25.22
222.659	-16.45
223.037	-25.34
223.416	-28.5
223.794	-31.7
224.173	-20.51
224.551	-21.19
224.929	-20.76
225.308	-11.68
225.686	-9.93
226.064	-7.66
226.442	-10.02
226.821	-4.7
227.199	-7.91
227.577	-11.3
227.955	-10.94
228.333	-9.08
228.711	-3.64
229.089	0.96
229.467	-0.73
229.845	0.28
230.222	6.25
230.6	3.48
230.978	5.43
231.356	8.42
231.733	9.45
232.111	9.65
232.488	10.3
232.866	11.29
233.243	11.31
233.621	12.33
233.998	13.49
234.376	13.78
234.753	13.56
235.13	13
235.508	15.19
235.885	12.96
236.262	10.68
236.639	10.29
237.016	9.56
237.393	10.19
237.77	11.12
238.147	9.71
238.524	10.43
238.901	9.67
239.278	8.81
239.655	8.59
240.032	8.33
240.409	7.22
240.785	6.73
241.162	6.44
241.539	6.33
241.915	5.97
242.292	5.31
242.668	5.19
243.045	5.15
243.421	4.81
243.798	4.63
244.174	4.84
244.551	4.54
244.927	4.32
245.303	4.39
245.679	4.17
246.056	4.19
246.432	3.98
246.808	3.74
247.184	3.45
247.56	3.32
247.936	3.23
248.312	3.26
248.688	3.37
249.064	3.4
249.44	3.3
249.815	3.48
250.191	3.71
250.567	3.54
250.943	3.33
251.318	3.31
251.694	3.54
252.069	3.64
252.445	3.75
252.82	3.75
253.196	3.56
253.571	3.52
253.947	3.64
254.322	4.04
254.697	4.22
255.073	4.15
255.448	3.8
255.823	3.77
256.198	4.01
256.573	4
256.948	3.98
257.323	3.98
257.698	3.63
258.073	3.72
258.448	3.72
258.823	3.7
259.198	3.49
259.573	3.4
259.948	3.28
260.322	3.17
260.697	3.22
261.072	3.1
261.446	3.1
261.821	3.06
262.195	2.97
262.57	2.96
262.944	2.97
263.319	3.16
263.693	3.02
264.067	3.04
264.442	3.04
264.816	2.97
265.19	2.79
265.564	2.84
265.938	2.74
266.313	2.79
266.687	2.83
267.061	3.07
267.435	3.13
267.809	3.07
268.183	3.13
268.556	2.97
268.93	3.13
269.304	3.01
269.678	2.95
270.051	2.95
270.425	2.98
270.799	3.02
271.172	2.94
271.546	3.05
271.919	2.89
272.293	2.72
272.666	2.76
273.04	2.93
273.413	3
273.787	3.04
274.16	2.99
274.533	3.07
274.906	3.02
275.279	3.01
275.653	3.01
276.026	3.03
276.399	3.05
276.772	3.09
277.145	2.94
277.518	3
277.891	2.87
278.263	2.79
278.636	2.85
279.009	2.78
279.382	2.91
279.755	2.85
280.127	2.99
280.5	3.04
280.872	3
281.245	2.89
281.617	2.93
281.99	2.86
282.362	2.98
282.735	3.02
283.107	2.94
283.479	3
283.852	3.01
284.224	3.01
284.596	2.91
284.968	3.06
285.34	3.12
285.713	3.19
286.085	3.22
286.457	3.38
286.829	3.36
287.201	3.32
287.572	3.4
287.944	3.37
288.316	3.31
288.688	3.34
289.06	3.35
289.431	3.3
289.803	3.44
290.175	3.32
290.546	3.43
290.918	3.5
291.289	3.59
291.661	3.62
292.032	3.71
292.403	3.83
292.775	3.96
293.146	3.96
293.517	3.98
293.889	4.04
294.26	3.9
294.631	3.98
295.002	4.05
295.373	4.08
295.744	4.11
296.115	4.15
296.486	4.07
296.857	4.12
297.228	4.24
297.599	4.2
297.97	4.29
298.34	4.17
298.711	4.26
299.082	4.1
299.452	4.11
299.823	4.18
300.194	4.25
300.564	4.15
300.935	4.16
301.305	4.22
301.676	4.27
302.046	4.34
302.416	4.43
302.787	4.33
303.157	4.32
303.527	4.46
303.897	4.44
304.267	4.63
304.637	4.62
305.008	4.66
305.378	4.78
305.748	4.79
306.117	4.87
306.487	4.95
306.857	5.13
307.227	5.16
307.597	5.1
307.967	5.04
308.336	5.19
308.706	5.13
309.076	5.15
309.445	5.16
309.815	5.07
310.184	5.15
310.554	5.24
310.923	5.33
311.293	5.33
311.662	5.33
312.031	5.37
312.401	5.49
312.77	5.54
313.139	5.65
313.508	5.73
313.877	5.69
314.246	5.75
314.616	5.84
314.985	6.06
315.353	6.19
315.722	6.28
316.091	6.4
316.46	6.46
316.829	6.58
317.198	6.68
317.567	6.89
317.935	6.93
318.304	7.02
318.672	7.09
319.041	7.09
319.41	7.15
319.778	7.2
320.147	7.26
320.515	7.45
320.883	7.47
321.252	7.58
321.62	7.73
321.988	7.63
322.357	7.7
322.725	7.6
323.093	7.71
323.461	7.87
323.829	7.91
324.197	8.11
324.565	8.06
324.933	8.19
325.301	8.36
325.669	8.42
326.037	8.46
326.405	8.48
326.772	8.7
327.14	8.91
327.508	8.9
327.875	8.89
328.243	8.85
328.61	8.95
328.978	8.99
329.346	9.13
329.713	9.23
330.08	9.34
330.448	9.24
330.815	9.12
331.182	9.1
331.55	9.12
331.917	9.22
332.284	9.31
332.651	9.24
333.018	9.14
333.385	9.09
333.752	9.24
334.119	9.31
334.486	9.25
334.853	9.23
335.22	9.25
335.587	9.36
335.954	9.32
336.32	9.27
336.687	9.39
337.054	9.36
337.42	9.37
337.787	9.34
338.153	9.45
338.52	9.59
338.886	9.54
339.253	9.56
339.619	9.53
339.986	9.6
340.352	9.56
340.718	9.61
341.084	9.67
341.451	9.7
341.817	9.78
342.183	9.62
342.549	9.62
342.915	9.73
343.281	9.67
343.647	9.62
344.013	9.54
344.379	9.45
344.745	9.5
345.11	9.51
345.476	9.5
345.842	9.57
346.208	9.61
346.573	9.69
346.939	9.64
347.304	9.66
347.67	9.61
348.035	9.64
348.401	9.74
348.766	9.75
349.132	9.65
349.497	9.59
349.862	9.79
350.228	9.81
350.593	9.74
350.958	9.81
351.323	9.91
351.688	9.93
352.053	9.94
352.418	9.93
352.783	9.92
353.148	9.89
353.513	9.8
353.878	9.65
354.243	9.69
354.608	9.72
354.972	9.71
355.337	9.71
355.702	9.85
356.066	9.8
356.431	9.76
356.795	9.76
357.16	9.73
357.524	9.61
357.889	9.54
358.253	9.56
358.618	9.53
358.982	9.42
359.346	9.39
359.71	9.38
360.075	9.37
360.439	9.39
360.803	9.42
361.167	9.44
361.531	9.42
361.895	9.33
362.259	9.22
362.623	9.16
362.987	9.08
363.351	8.94
363.714	8.88
364.078	8.83
364.442	8.7
364.806	8.65
365.169	8.6
365.533	8.59
365.896	8.55
366.26	8.46
366.623	8.39
366.987	8.38
367.35	8.24
367.714	8.15
368.077	8.03
368.44	7.94
368.803	7.87
369.167	7.88
369.53	7.74
369.893	7.78
370.256	7.75
370.619	7.7
370.982	7.64
371.345	7.56
371.708	7.52
372.071	7.54
372.434	7.45
372.797	7.42
373.159	7.41
373.522	7.3
373.885	7.21
374.247	7.17
374.61	7.06
374.973	6.99
375.335	6.89
375.698	6.9
376.06	6.81
376.423	6.77
376.785	6.73
377.147	6.78
377.51	6.68
377.872	6.62
378.234	6.56
378.596	6.54
378.958	6.44
379.321	6.39
379.683	6.33
380.045	6.32
380.407	6.24
380.769	6.12
381.13	6.07
381.492	6.07
381.854	5.99
382.216	5.94
382.578	5.92
382.939	5.88
383.301	5.77
383.663	5.72
384.024	5.66
384.386	5.62
384.747	5.56
385.109	5.53
385.47	5.46
385.832	5.49
386.193	5.48
386.554	5.45
386.916	5.39
387.277	5.36
387.638	5.36
387.999	5.31
388.36	5.28
388.721	5.27
389.082	5.19
389.443	5.12
389.804	5.09
390.165	5.03
390.526	4.98
390.887	4.93
391.248	4.9
391.609	4.85
391.969	4.75
392.33	4.7
392.691	4.68
393.051	4.63
393.412	4.55
393.772	4.47
394.133	4.46
394.493	4.4
394.854	4.38
395.214	4.26
395.574	4.25
395.935	4.22
396.295	4.16
396.655	4.12
397.015	4.13
397.376	4.07
397.736	4.05
398.096	4
398.456	3.99
398.816	3.92
399.176	3.89
399.535	3.87
399.895	3.82
400.255	3.75
400.615	3.74
400.975	3.71
401.334	3.7
401.694	3.66
402.054	3.65
402.413	3.59
402.773	3.57
403.132	3.57
403.492	3.55
403.851	3.54
404.211	3.51
404.57	3.48
404.929	3.48
405.288	3.45
405.648	3.45
406.007	3.42
406.366	3.44
406.725	3.46
407.084	3.44
407.443	3.45
407.802	3.45
408.161	3.42
408.52	3.37
408.879	3.34
409.238	3.34
409.596	3.33
409.955	3.32
410.314	3.35
410.673	3.32
411.031	3.28
411.39	3.25
411.748	3.28
412.107	3.27
412.465	3.28
412.824	3.27
413.182	3.24
413.54	3.22
413.899	3.2
414.257	3.15
414.615	3.17
414.974	3.14
415.332	3.1
415.69	3.07
416.048	3.09
416.406	3.06
416.764	3.03
417.122	3.03
417.48	2.99
417.838	2.97
418.195	2.97
418.553	2.96
418.911	2.93
419.269	2.9
419.626	2.89
419.984	2.86
420.342	2.86
420.699	2.86
421.057	2.86
421.414	2.86
421.772	2.85
422.129	2.83
422.486	2.83
422.844	2.84
423.201	2.82
423.558	2.8
423.915	2.81
424.273	2.81
424.63	2.81
424.987	2.81
425.344	2.79
425.701	2.78
426.058	2.78
426.415	2.79
426.772	2.78
427.128	2.78
427.485	2.77
427.842	2.76
428.199	2.74
428.555	2.74
428.912	2.73
429.269	2.73
429.625	2.72
429.982	2.72
430.338	2.71
430.695	2.74
431.051	2.74
431.407	2.73
431.764	2.69
432.12	2.68
432.476	2.66
432.832	2.65
433.189	2.65
433.545	2.65
433.901	2.62
434.257	2.62
434.613	2.63
434.969	2.63
435.325	2.62
435.681	2.64
436.036	2.63
436.392	2.63
436.748	2.62
437.104	2.6
437.459	2.59
437.815	2.6
438.171	2.6
438.526	2.6
438.882	2.61
439.237	2.63
439.593	2.64
439.948	2.64
440.304	2.64
440.659	2.63
441.014	2.62
441.369	2.63
441.725	2.63
442.08	2.62
442.435	2.63
442.79	2.63
443.145	2.62
443.5	2.61
443.855	2.61
444.21	2.59
444.565	2.6
444.92	2.59
445.275	2.57
445.629	2.58
445.984	2.57
446.339	2.56
446.693	2.54
447.048	2.52
447.403	2.52
447.757	2.52
448.112	2.52
448.466	2.51
448.82	2.51
449.175	2.51
449.529	2.52
449.883	2.49
450.238	2.48
450.592	2.48
450.946	2.47
451.3	2.46
451.654	2.46
452.008	2.45
452.362	2.44
452.716	2.43
453.07	2.42
453.424	2.41
453.778	2.42
454.132	2.42
454.486	2.42
454.839	2.4
455.193	2.39
455.547	2.41
455.9	2.42
456.254	2.43
456.607	2.42
456.961	2.41
457.314	2.43
457.668	2.44
458.021	2.44
458.375	2.44
458.728	2.42
459.081	2.43
459.434	2.43
459.787	2.43
460.141	2.45
460.494	2.45
460.847	2.45
461.2	2.43
461.553	2.45
461.906	2.44
462.259	2.45
462.611	2.47
462.964	2.46
463.317	2.45
463.67	2.44
464.022	2.44
464.375	2.46
464.728	2.44
465.08	2.45
465.433	2.44
465.785	2.46
466.138	2.47
466.49	2.47
466.843	2.47
467.195	2.48
467.547	2.48
467.899	2.49
468.252	2.49
468.604	2.52
468.956	2.51
469.308	2.54
469.66	2.56
470.012	2.54
470.364	2.56
470.716	2.58
471.068	2.61
471.42	2.61
471.772	2.61
472.123	2.63
472.475	2.63
472.827	2.65
473.178	2.66
473.53	2.66
473.882	2.67
474.233	2.7
474.585	2.69
474.936	2.68
475.288	2.67
475.639	2.68
475.99	2.66
476.342	2.66
476.693	2.66
477.044	2.66
477.395	2.66
477.746	2.66
478.097	2.64
478.448	2.64
478.8	2.64
479.15	2.64
479.501	2.63
479.852	2.62
480.203	2.61
480.554	2.62
480.905	2.62
481.255	2.61
481.606	2.6
481.957	2.61
482.307	2.6
482.658	2.6
483.009	2.59
483.359	2.57
483.709	2.58
484.06	2.57
484.41	2.57
484.761	2.57
485.111	2.57
485.461	2.57
485.811	2.57
486.162	2.56
486.512	2.57
486.862	2.58
487.212	2.57
487.562	2.57
487.912	2.57
488.262	2.57
488.612	2.58
488.961	2.57
489.311	2.57
489.661	2.58
490.011	2.59
490.36	2.58
490.71	2.6
491.06	2.6
491.409	2.61
491.759	2.61
492.108	2.61
492.458	2.62
492.807	2.61
493.157	2.62
493.506	2.62
493.855	2.62
494.204	2.62
494.554	2.63
494.903	2.63
495.252	2.65
495.601	2.66
495.95	2.68
496.299	2.7
496.648	2.7
496.997	2.72
497.346	2.73
497.695	2.78
498.043	2.8
498.392	2.82
498.741	2.85
499.09	2.88
499.438	2.9
499.787	2.91
500.135	2.96
500.484	2.98
500.832	3.02
501.181	3.06
501.529	3.09
501.878	3.15
502.226	3.18
502.574	3.23
502.923	3.25
503.271	3.28
503.619	3.33
503.967	3.38
504.315	3.42
504.663	3.47
505.011	3.51
505.359	3.55
505.707	3.61
506.055	3.65
506.403	3.7
506.751	3.76
507.098	3.82
507.446	3.88
507.794	3.93
508.141	4
508.489	4.05
508.837	4.09
509.184	4.13
509.531	4.2
509.879	4.28
510.226	4.38
510.574	4.43
510.921	4.5
511.268	4.59
511.616	4.64
511.963	4.69
512.31	4.77
512.657	4.85
513.004	4.91
513.351	5.01
513.698	5.09
514.045	5.19
514.392	5.26
514.739	5.36
515.086	5.48
515.432	5.53
515.779	5.62
516.126	5.74
516.473	5.82
516.819	5.9
517.166	5.96
517.512	6.01
517.859	6.07
518.205	6.13
518.552	6.22
518.898	6.3
519.245	6.39
519.591	6.47
519.937	6.54
520.283	6.63
520.629	6.72
520.976	6.82
521.322	6.92
521.668	7.02
522.014	7.14
522.36	7.25
522.706	7.38
523.052	7.51
523.398	7.66
523.743	7.79
524.089	7.95
524.435	8.08
524.781	8.21
525.126	8.34
525.472	8.46
525.817	8.55
526.163	8.65
526.509	8.75
526.854	8.84
527.199	8.93
527.545	9.01
527.89	9.09
528.235	9.17
528.581	9.25
528.926	9.35
529.271	9.43
529.616	9.51
529.961	9.59
530.306	9.69
530.651	9.78
530.996	9.88
531.341	9.97
531.686	10.09
532.031	10.23
532.376	10.36
532.721	10.47
533.065	10.61
533.41	10.75
533.755	10.87
534.099	11
534.444	11.15
534.788	11.29
535.133	11.43
535.477	11.57
535.822	11.71
536.166	11.87
536.51	12.05
536.855	12.23
537.199	12.41
537.543	12.63
537.887	12.83
538.231	13.03
538.576	13.26
538.92	13.45
539.264	13.63
539.608	13.79
539.951	13.97
540.295	14.14
540.639	14.29
540.983	14.48
541.327	14.63
541.671	14.78
542.014	14.95
542.358	15.12
542.701	15.29
543.045	15.47
543.389	15.64
543.732	15.81
544.075	16
544.419	16.2
544.762	16.37
545.105	16.57
545.449	16.78
545.792	16.99
546.135	17.21
546.478	17.45
546.821	17.74
547.165	18.01
547.508	18.28
547.851	18.54
548.194	18.81
548.536	19.13
548.879	19.42
549.222	19.7
549.565	19.96
549.908	20.26
550.25	20.52
550.593	20.84
550.936	21.14
551.278	21.45
551.621	21.74
551.963	22.03
552.306	22.34
552.648	22.63
552.991	22.9
553.333	23.19
553.675	23.42
554.017	23.7
554.36	23.95
554.702	24.23
555.044	24.53
555.386	24.79
555.728	25.05
556.07	25.36
556.412	25.61
556.754	25.92
557.096	26.19
557.438	26.53
557.78	26.82
558.121	27.11
558.463	27.42
558.805	27.73
559.147	27.99
559.488	28.29
559.83	28.59
560.171	28.85
560.513	29.14
560.854	29.52
561.196	29.79
561.537	30.09
561.878	30.32
562.22	30.61
562.561	30.89
562.902	31.19
563.243	31.47
563.584	31.82
563.925	32.14
564.266	32.41
564.607	32.66
564.948	32.91
565.289	33.21
565.63	33.47
565.971	33.73
566.312	34.05
566.653	34.26
566.993	34.54
567.334	34.81
567.675	35.08
568.015	35.34
568.356	35.61
568.696	35.93
569.037	36.26
569.377	36.51
569.718	36.78
570.058	37.01
570.398	37.21
570.739	37.44
571.079	37.69
571.419	37.96
571.759	38.2
572.099	38.47
572.439	38.63
572.779	38.81
573.119	39.02
573.459	39.18
573.799	39.46
574.139	39.65
574.479	39.92
574.819	40.06
575.158	40.22
575.498	40.4
575.838	40.54
576.177	40.7
576.517	40.9
576.856	41.1
577.196	41.33
577.535	41.59
577.875	41.78
578.214	41.92
578.553	42.1
578.893	42.28
579.232	42.44
579.571	42.71
579.91	42.92
580.25	43.09
580.589	43.37
580.928	43.53
581.267	43.7
581.606	43.75
581.945	43.97
582.283	44.17
582.622	44.36
582.961	44.59
583.3	44.76
583.639	44.96
583.977	45.07
584.316	45.19
584.654	45.29
584.993	45.43
585.332	45.56
585.67	45.71
586.008	45.95
586.347	46.09
586.685	46.19
587.024	46.3
587.362	46.41
587.7	46.48
588.038	46.66
588.376	46.79
588.715	46.99
589.053	47.2
589.391	47.3
589.729	47.46
590.067	47.47
590.404	47.56
590.742	47.65
591.08	47.83
591.418	47.95
591.756	48.11
592.093	48.21
592.431	48.31
592.769	48.35
593.106	48.43
593.444	48.51
593.781	48.58
594.119	48.64
594.456	48.77
594.793	48.88
595.131	48.93
595.468	49
595.805	49.04
596.143	49.1
596.48	49.22
596.817	49.24
597.154	49.34
597.491	49.4
597.828	49.43
598.165	49.44
598.502	49.53
598.839	49.58
599.176	49.71
599.512	49.82
599.849	49.97
600.186	50.02
600.523	50.12
600.859	50.25
601.196	50.38
601.532	50.44
601.869	50.48
602.205	50.58
602.542	50.7
602.878	50.85
603.215	50.9
603.551	50.91
603.887	51.01
604.223	51.04
604.56	51.15
604.896	51.22
605.232	51.34
605.568	51.38
605.904	51.46
606.24	51.48
606.576	51.57
606.912	51.62
607.248	51.71
607.583	51.76
607.919	51.84
608.255	51.89
608.591	52
608.926	52.06
609.262	52.09
609.597	52.18
609.933	52.19
610.268	52.26
610.604	52.37
610.939	52.42
611.275	52.54
611.61	52.53
611.945	52.58
612.281	52.6
612.616	52.65
612.951	52.69
613.286	52.74
613.621	52.76
613.956	52.78
614.291	52.88
614.626	52.98
614.961	53
615.296	53.06
615.631	53.05
615.966	53.12
616.3	53.23
616.635	53.23
616.97	53.2
617.304	53.21
617.639	53.2
617.973	53.16
618.308	53.21
618.642	53.34
618.977	53.4
619.311	53.51
619.646	53.58
619.98	53.61
620.314	53.67
620.648	53.66
620.983	53.63
621.317	53.65
621.651	53.71
621.985	53.71
622.319	53.69
622.653	53.73
622.987	53.75
623.321	53.77
623.655	53.73
623.988	53.83
624.322	53.9
624.656	53.82
624.99	53.88
625.323	53.9
625.657	53.91
625.99	53.95
626.324	53.95
626.657	53.99
626.991	54.1
627.324	54.05
627.658	54.04
627.991	54.11
628.324	54.15
628.657	54.13
628.991	54.22
629.324	54.35
629.657	54.44
629.99	54.45
630.323	54.47
630.656	54.57
630.989	54.65
631.322	54.57
631.655	54.67
631.987	54.73
632.32	54.68
632.653	54.69
632.986	54.66
633.318	54.65
633.651	54.64
633.984	54.52
634.316	54.54
634.649	54.68
634.981	54.67
635.313	54.59
635.646	54.52
635.978	54.47
636.31	54.38
636.643	54.34
636.975	54.42
637.307	54.51
637.639	54.42
637.971	54.36
638.303	54.43
638.635	54.47
638.967	54.49
639.299	54.53
639.631	54.48
639.963	54.52
640.295	54.51
640.626	54.55
640.958	54.75
641.29	54.79
641.621	54.74
641.953	54.88
642.285	54.82
642.616	54.91
642.948	54.95
643.279	55.02
643.61	55.13
643.942	55.18
644.273	54.98
644.604	54.97
644.936	54.95
645.267	55.02
645.598	54.97
645.929	54.97
646.26	55.01
646.591	54.99
646.922	54.93
647.253	54.92
647.584	54.95
647.915	54.78
648.245	54.83
648.576	54.92
648.907	54.86
649.238	54.92
649.568	54.98
649.899	54.95
650.229	55.05
650.56	54.95
650.89	55
651.221	55.08
651.551	55.13
651.882	55.15
652.212	55.17
652.542	55.3
652.872	55.21
653.203	55.3
653.533	55.37
653.863	55.5
654.193	55.54
654.523	55.45
654.853	55.58
655.183	55.59
655.513	55.53
655.843	55.58
656.172	55.6
656.502	55.56
656.832	55.61
657.162	55.55
657.491	55.48
657.821	55.4
658.15	55.34
658.48	55.37
658.809	55.39
659.139	55.34
659.468	55.25
659.798	55.31
660.127	55.26
660.456	55.27
660.785	55.24
661.115	55.27
661.444	55.33
661.773	55.24
662.102	55.23
662.431	55.32
662.76	55.3
663.089	55.31
663.418	55.34
663.747	55.3
664.076	55.31
664.404	55.4
664.733	55.36
665.062	55.28
665.39	55.29
665.719	55.3
666.048	55.43
666.376	55.57
666.705	55.62
667.033	55.68
667.362	55.71
667.69	55.64
668.018	55.61
668.347	55.54
668.675	55.57
669.003	55.69
669.331	55.6
669.659	55.55
669.987	55.61
670.315	55.65
670.643	55.79
670.971	55.76
671.299	55.68
671.627	55.66
671.955	55.92
672.283	55.94
672.61	55.89
672.938	55.74
673.266	55.67
673.593	55.71
673.921	55.6
674.249	55.62
674.576	55.76
674.904	55.77
675.231	55.9
675.558	55.9
675.886	55.82
676.213	55.9
676.54	55.86
676.867	55.81
677.195	55.72
677.522	55.55
677.849	55.52
678.176	55.56
678.503	55.53
678.83	55.45
679.157	55.38
679.484	55.33
679.81	55.32
680.137	55.32
680.464	55.25
680.791	55.43
681.117	55.41
681.444	55.38
681.771	55.36
682.097	55.29
682.424	55.4
682.75	55.3
683.077	55.09
683.403	55.21
683.729	55.17
684.056	55.15
684.382	55.17
684.708	55.16
685.034	55.22
685.36	55.24
685.686	55.12
686.012	55.2
686.339	55.28
686.664	55.25
686.99	55.27
687.316	55.31
687.642	55.16
687.968	55.15
688.294	55.29
688.619	55.33
688.945	55.35
689.271	55.15
689.596	55.41
689.922	55.6
690.247	55.46
690.573	55.55
690.898	55.48
691.224	55.59
691.549	55.63
691.874	55.58
692.2	55.46
692.525	55.43
692.85	55.33
693.175	55.25
693.5	55.22
693.825	55.12
694.15	55.16
694.475	55.22
694.8	55.31
695.125	55.15
695.45	55.16
695.775	55.1
696.099	55.34
696.424	55.27
696.749	55.19
697.073	55.29
697.398	55.25
697.723	55.4
698.047	55.27
698.372	55.29
698.696	55.29
699.02	55.46
699.345	55.53
699.669	55.67
699.993	55.78
700.318	55.94
700.642	55.96
700.966	55.91
701.29	55.83
701.614	55.92
701.938	56.11
702.262	56.13
702.586	56.29
702.91	56.09
703.234	56.09
703.557	56.3
703.881	56.21
704.205	56.32
704.529	56.1
704.852	56.37
705.176	56.4
705.499	56.56
705.823	56.6
706.146	56.69
706.47	56.54
706.793	56.54
707.117	56.47
707.44	56.57
707.763	56.62
708.086	56.54
708.409	56.34
708.733	56.06
709.056	55.97
709.379	55.86
709.702	56.07
710.025	56.08
710.348	55.93
710.671	55.97
710.993	56.12
711.316	56.28
711.639	56.05
711.962	55.84
712.284	55.89
712.607	55.97
712.93	56.05
713.252	56.3
713.575	56.29
713.897	56.26
714.22	56.26
714.542	56.37
714.864	56.45
715.187	56.52
715.509	56.62
715.831	56.92
716.153	56.95
716.475	56.83
716.798	56.95
717.12	56.87
717.442	56.99
717.764	56.8
718.085	56.96
718.407	57.13
718.729	57.24
719.051	57
719.373	56.89
719.695	56.77
720.016	56.69
720.338	56.78
720.659	56.77
720.981	56.77
721.302	56.66
721.624	56.73
721.945	56.78
722.267	56.86
722.588	56.54
722.909	56.48
723.231	56.4
723.552	56.17
723.873	56.39
724.194	56.47
724.515	56.55
724.836	56.35
725.157	56.55
725.478	56.85
725.799	56.91
726.12	56.45
726.441	56.56
726.762	56.49
727.083	56.25
727.403	56.2
727.724	56.27
728.045	56.09
728.365	55.99
728.686	55.96
729.006	55.99
729.327	56.22
729.647	56.18
729.967	56.24
730.288	56.12
730.608	56.07
730.928	55.95
731.249	55.96
731.569	56.15
731.889	56
732.209	55.84
732.529	56.05
732.849	56.35
733.169	56.35
733.489	56.19
733.809	56.05
734.129	56.12
734.448	56.22
734.768	56.55
735.088	56.61
735.408	56.44
735.727	56.41
736.047	56.2
736.366	56.12
736.686	56.25
737.005	56.66
737.325	56.64
737.644	56.72
737.963	56.58
738.283	56.48
738.602	56.43
738.921	56.43
739.24	56.23
739.56	56.34
739.879	56.25
740.198	56.29
740.517	56.73
740.836	56.56
741.155	56.34
741.473	56.24
741.792	56.48
742.111	56.65
742.43	56.6
742.748	56.77
743.067	56.93
743.386	56.93
743.704	56.67
744.023	56.89
744.341	56.67
744.66	56.72
744.978	56.52
745.297	56.69
745.615	56.74
745.933	56.95
746.252	56.7
746.57	57.12
746.888	56.97
747.206	56.55
747.524	56.85
747.842	56.61
748.16	56.46
748.478	56.58
748.796	56.55
749.114	56.57
749.432	56.17
749.749	56.07
750.067	55.96
750.385	55.8
750.703	55.51
751.02	55.54
751.338	55.47
751.655	55.92
751.973	55.7
752.29	55.96
752.608	55.89
752.925	56.25
753.242	55.79
753.56	55.87
753.877	56.1
754.194	56.41
754.511	56.85
754.828	56.73
755.145	56.46
755.462	56.56
755.779	56.69
756.096	56.98
756.413	56.98
756.73	57.37
757.047	57.66
757.364	57.97
757.68	58.26
757.997	58.45
758.314	58.59
758.63	58.52
758.947	58.39
759.264	58.18
759.58	57.87
759.896	57.95
760.213	58.16
760.529	58.25
760.846	58.3
761.162	57.99
761.478	58.06
761.794	58.06
762.11	58.09
762.426	57.83
762.743	57.64
763.059	57.82
763.375	57.71
763.69	57.56
764.006	57.34
764.322	57.25
764.638	57.26
764.954	56.96
765.27	56.96
765.585	56.77
765.901	57.06
766.216	57.11
766.532	57
766.848	56.81
767.163	56.54
767.478	56.19
767.794	56.58
768.109	56.75
768.424	56.74
768.74	56.75
769.055	56.96
769.37	57.1
769.685	57.2
770	56.82
770.315	57.18
770.63	57.64
770.945	57.7
771.26	57.52
771.575	57.46
771.89	57.84
772.205	57.85
772.52	57.63
772.834	57.79
773.149	58.22
773.464	58.22
773.778	58.36
774.093	58.11
774.407	58.05
774.722	57.91
775.036	58.16
775.351	57.94
775.665	57.88
775.979	57.7
776.293	57.72
776.608	57.97
776.922	57.94
777.236	57.07
777.55	56.52
777.864	56.51
778.178	56.49
778.492	56.2
778.806	56.38
779.12	56.11
779.434	56.29
779.747	56.13
780.061	56.2
780.375	56.82
780.689	56.54
781.002	56.19
781.316	56.53
781.629	56.61
781.943	56.52
782.256	56.66
782.57	56.9
782.883	56.7
783.196	56.75
783.51	56.19
783.823	56.26
784.136	56.64
784.449	56.81
784.762	57.04
785.075	56.92
785.388	56.61
785.701	56.81
786.014	56.71
786.327	56.2
786.64	56.19
786.953	56.36
787.266	56.87
787.578	56.81
787.891	56.77
788.204	56.08
788.516	56.17
788.829	56.19
789.141	56.45
789.454	56.65
789.766	56.86
790.079	57.35
790.391	57.71
790.703	57.78
791.016	57.97
791.328	57.63
791.64	58.07
791.952	58.67
792.264	58.68
792.576	58.1
792.888	58.83
793.2	59.36
793.512	58.77
793.824	58.84
794.136	58.99
794.448	58.99
794.76	59.42
795.071	59.22
795.383	59.08
795.695	59.16
796.006	58.74
796.318	58.25
796.629	57.9
796.941	58.29
797.252	58.31
797.564	58.38
797.875	58.81
798.186	58.19
798.497	57.64
798.809	57.52
799.12	57.85
799.431	56.84
799.742	56.63
800.053	56.8
800.364	56.87
800.675	56.74
800.986	56.55
801.297	56.41
801.608	56.37
801.918	56.19
802.229	56.14
802.54	56.77
802.851	56.83
803.161	56.61
803.472	56.24
803.782	56.02
804.093	56.02
804.403	55.8
804.714	55.41
805.024	55.66
805.334	55.84
805.645	56.3
805.955	57.14
806.265	57.02
806.575	57.25
806.885	56.66
807.195	55.91
807.505	55.62
807.815	55.71
808.125	56.09
808.435	56.34
808.745	55.81
809.055	55.77
809.365	55.86
809.674	56.62
809.984	56.64
810.294	56.72
810.603	56.35
810.913	56.38
811.222	57.73
811.532	57.56
811.841	57.98
812.151	57.54
812.46	57.41
812.769	57.76
813.079	57.78
813.388	58.67
813.697	60.15
814.006	60.67
814.315	61.17
814.624	60.81
814.933	60.95
815.242	61.45
815.551	60.99
815.86	61.26
816.169	60.57
816.478	60.57
816.786	61.26
817.095	61.33
817.404	61.88
817.712	60.77
818.021	61.23
818.33	60.77
818.638	60.52
818.947	60.05
819.255	59.61
819.563	58.58
819.872	58.12
820.18	57.49
820.488	57.35
820.796	57.07
821.105	57.15
821.413	57.14
821.721	57.26
822.029	57.27
822.337	57.25
822.645	57.42
822.953	57.26
823.26	57.03
823.568	56.99
823.876	56.76
824.184	56.95
824.491	56.78
824.799	56.64
825.107	56.9
825.414	56.98
825.722	56.99
826.029	57.17
826.337	57.29
826.644	57.17
826.951	57.12
827.259	57.17
827.566	57.13
827.873	56.96
828.18	56.99
828.488	56.9
828.795	56.63
829.102	56.57
829.409	56.68
829.716	56.81
830.023	56.75
830.329	57.15
830.636	56.71
830.943	56.81
831.25	57.13
831.557	56.57
831.863	56.51
832.17	56.35
832.476	56.59
832.783	56.74
833.089	57.54
833.396	57.68
833.702	58.22
834.009	58.04
834.315	58.5
834.621	58.19
834.928	58.26
835.234	58.47
835.54	57.95
835.846	57.72
836.152	57.79
836.458	58.24
836.764	57.85
837.07	58.16
837.376	58.41
837.682	58.04
837.988	57.98
838.293	58.09
838.599	58.16
838.905	57.76
839.211	57.02
839.516	57.2
839.822	56.82
840.127	55.54
840.433	56.66
840.738	56.18
841.044	57.26
841.349	56.71
841.654	56.66
841.959	57.42
842.265	58.23
842.57	58.47
842.875	57.88
843.18	58.06
843.485	58.17
843.79	57.84
844.095	58.52
844.4	59.38
844.705	58.96
845.01	60.03
845.315	60.76
845.619	61.31
845.924	60.94
846.229	62.28
846.533	63.58
846.838	61.66
847.142	63.51
847.447	60.92
847.751	61.33
848.056	62.21
848.36	62.94
848.664	63.26
848.969	63.21
849.273	62.7
849.577	61.05
849.881	60.09
850.185	61.64
850.489	63.13
850.794	62.99
851.097	62.91
851.401	62.88
851.705	63.08
852.009	63.84
852.313	62.43
852.617	61.52
852.92	63.32
853.224	63.92
853.528	64.39
853.831	65.31
854.135	66.38
854.438	66.46
854.742	64.83
855.045	64.42
855.349	63.91
855.652	65.6
855.955	68.28
856.259	69.16
856.562	67.54
856.865	65.54
857.168	66.08
857.471	66.25
857.774	67.21
858.077	66.47
858.38	67.38
858.683	67.66
858.986	69.15
859.289	66.73
859.592	66.85
859.894	65.34
860.197	66.12
860.5	66.26
860.802	67.25
861.105	67.14
861.407	68.45
861.71	66.4
862.012	66.53
862.315	65.35
862.617	63.75
862.919	64.48
863.222	66.78
863.524	66.34
863.826	67.21
864.128	65.39
864.43	66.21
864.732	65.61
865.034	66.29
865.336	65.89
865.638	68.93
865.94	68.84
866.242	68.74
866.544	67.05
866.846	67.21
867.147	64.91
867.449	65.54
867.751	64.71
868.052	69.91
868.354	68.51
868.655	68.11
868.957	68.84
869.258	68.22
869.56	66.16
869.861	64.37
870.162	63.18
870.463	60.27
870.765	61.11
871.066	61.27
871.367	61.52
871.668	60.86
871.969	58.53
872.27	60.13
872.571	57.36
872.872	56.66
873.173	54.6
873.473	53.4
873.774	53.18
874.075	52.75
874.376	51.1
874.676	49.74
874.977	49.99
875.277	51.01
875.578	52.34
875.878	52.08
876.179	53.22
876.479	53.76
876.78	55.42
877.08	53.88
877.38	51.98
877.68	51.87
877.981	51.1
878.281	50.06
878.581	47.74
