Data from BU58138_Reflection_00006.txt Node
Date: Mon Nov 18 16:42:09 EST 2019
User: vgr7
Spectrometer: USB2G7710
Scans to average: 3
Trigger mode: 4
Integration Time (sec): 2.000000E-2
Electric dark correction enabled: true
Boxcar width: 10
XAxis mode: Wavelengths
Number of Pixels in Spectrum: 2048
>>>>>Begin Spectral Data<<<<<
177.721	51766.67
178.105	-503.17
178.488	-242.3
178.871	-1545.83
179.254	9.98
179.636	39.58
180.019	-19.33
180.402	92.59
180.785	131.55
181.168	100.92
181.55	71.61
181.933	81.9
182.316	123.5
182.698	138.13
183.081	106
183.463	82.61
183.846	74.83
184.228	88.93
184.611	102.86
184.993	115.93
185.376	122.42
185.758	91.63
186.14	105.99
186.522	125.24
186.904	217.33
187.287	1666.21
187.669	-1193.91
188.051	1576.19
188.433	401.87
188.815	8433.33
189.197	-1297.31
189.579	-392.4
189.961	-336.38
190.342	-256.26
190.724	-114.46
191.106	-88.63
191.488	-73.05
191.869	-60.45
192.251	-82.57
192.633	-110.9
193.014	-152.14
193.396	-133.73
193.777	-117.22
194.159	-87.01
194.54	-68.86
194.922	-58.03
195.303	-60.64
195.684	-64.83
196.065	-29.08
196.447	-33
196.828	-40.54
197.209	-23.7
197.59	-43.62
197.971	-67.91
198.352	-65.98
198.733	-96.46
199.114	-61.78
199.495	-54.31
199.876	-72.38
200.257	-66.54
200.638	-49.69
201.018	-41
201.399	-45.27
201.78	-35.68
202.16	-48.86
202.541	-74.4
202.922	-108.28
203.302	-130.91
203.683	-113.29
204.063	-127.07
204.444	-96.73
204.824	-86.86
205.204	-95.81
205.585	-96.79
205.965	-56.91
206.345	-67.57
206.725	-73.11
207.106	-96.54
207.486	-107.06
207.866	-116.76
208.246	-106.52
208.626	-97.92
209.006	-92.11
209.386	-100.89
209.766	-91.88
210.145	-72.5
210.525	-67.46
210.905	-56.22
211.285	-47.84
211.664	-40.74
212.044	-40.74
212.424	-35.48
212.803	-39.09
213.183	-33.78
213.562	-28.99
213.942	-26.61
214.321	-28.01
214.701	-34.82
215.08	-36.18
215.459	-45.34
215.838	-36.49
216.218	-37
216.597	-33.87
216.976	-33.24
217.355	-33.49
217.734	-33.68
218.113	-40.94
218.492	-35.52
218.871	-44.19
219.25	-52.77
219.629	-62.68
220.008	-80.85
220.387	-105.03
220.766	-114.52
221.144	-174.88
221.523	-205.74
221.902	-292.88
222.28	-337.09
222.659	-235.24
223.037	-205.75
223.416	-135.89
223.794	-127.85
224.173	-99.01
224.551	-70.08
224.929	-65.17
225.308	-51.83
225.686	-45.04
226.064	-33.78
226.442	-30.37
226.821	-26.7
227.199	-22.85
227.577	-20.2
227.955	-17.57
228.333	-13.24
228.711	-8.84
229.089	-4.37
229.467	-3.15
229.845	-2.57
230.222	-1.02
230.6	-2.76
230.978	-4.36
231.356	-3.56
231.733	-1.89
232.111	0.33
232.488	0.8
232.866	0.92
233.243	0.99
233.621	0.52
233.998	0.15
234.376	-0.34
234.753	1.47
235.13	1.63
235.508	1.69
235.885	0.38
236.262	-0.71
236.639	-1.26
237.016	-2.52
237.393	-1.16
237.77	0.25
238.147	0.11
238.524	0.48
238.901	1.58
239.278	2.79
239.655	3.9
240.032	3.71
240.409	3.21
240.785	3.41
241.162	3.71
241.539	3.42
241.915	3.3
242.292	3.44
242.668	3.28
243.045	3.34
243.421	3.05
243.798	3.2
244.174	3.46
244.551	3.46
244.927	3.5
245.303	3.55
245.679	3.7
246.056	3.85
246.432	4.04
246.808	3.93
247.184	3.52
247.56	3.13
247.936	3.04
248.312	3.08
248.688	2.92
249.064	2.77
249.44	3.04
249.815	3.09
250.191	3.08
250.567	3.03
250.943	3.04
251.318	3.18
251.694	3.31
252.069	3.37
252.445	3.26
252.82	3.19
253.196	3.04
253.571	2.71
253.947	2.72
254.322	2.87
254.697	2.66
255.073	2.73
255.448	2.53
255.823	2.45
256.198	2.51
256.573	2.84
256.948	3.02
257.323	2.88
257.698	2.95
258.073	2.94
258.448	2.94
258.823	2.91
259.198	2.76
259.573	2.86
259.948	2.96
260.322	2.93
260.697	2.93
261.072	3.01
261.446	2.98
261.821	2.64
262.195	2.55
262.57	2.57
262.944	2.6
263.319	2.86
263.693	2.91
264.067	2.96
264.442	2.94
264.816	2.93
265.19	2.82
265.564	2.94
265.938	2.86
266.313	2.9
266.687	2.93
267.061	3.16
267.435	3.05
267.809	2.85
268.183	2.98
268.556	2.92
268.93	2.7
269.304	2.92
269.678	3.43
270.051	3.28
270.425	3.43
270.799	3.45
271.172	3.29
271.546	3.28
271.919	3.17
272.293	2.99
272.666	3.03
273.04	3.16
273.413	3
273.787	3.04
274.16	2.96
274.533	2.87
274.906	2.86
275.279	2.8
275.653	2.85
276.026	2.87
276.399	2.98
276.772	3.17
277.145	2.93
277.518	2.87
277.891	2.99
278.263	2.9
278.636	2.88
279.009	2.87
279.382	2.99
279.755	3.03
280.127	3.32
280.5	3.37
280.872	3.33
281.245	3.24
281.617	3.29
281.99	3.41
282.362	3.66
282.735	3.55
283.107	3.71
283.479	3.65
283.852	3.55
284.224	3.45
284.596	3.44
284.968	3.51
285.34	3.43
285.713	3.38
286.085	3.4
286.457	3.48
286.829	3.45
287.201	3.53
287.572	3.51
287.944	3.34
288.316	3.31
288.688	3.31
289.06	3.29
289.431	3.25
289.803	3.25
290.175	3.07
290.546	3.12
290.918	2.95
291.289	3.03
291.661	3.11
292.032	3.23
292.403	3.29
292.775	3.39
293.146	3.4
293.517	3.43
293.889	3.54
294.26	3.46
294.631	3.53
295.002	3.3
295.373	3.32
295.744	3.43
296.115	3.3
296.486	3.23
296.857	3.34
297.228	3.43
297.599	3.24
297.97	3.34
298.34	3.39
298.711	3.33
299.082	3.35
299.452	3.37
299.823	3.37
300.194	3.3
300.564	3.18
300.935	3.2
301.305	3.26
301.676	3.2
302.046	3.1
302.416	3.23
302.787	3.4
303.157	3.36
303.527	3.33
303.897	3.34
304.267	3.47
304.637	3.55
305.008	3.38
305.378	3.57
305.748	3.56
306.117	3.56
306.487	3.72
306.857	3.65
307.227	3.64
307.597	3.61
307.967	3.66
308.336	3.74
308.706	3.69
309.076	3.55
309.445	3.4
309.815	3.45
310.184	3.32
310.554	3.14
310.923	3.19
311.293	3.22
311.662	3.34
312.031	3.23
312.401	3.16
312.77	3.31
313.139	3.31
313.508	3.27
313.877	3.21
314.246	3.13
314.616	3.03
314.985	2.99
315.353	2.97
315.722	2.98
316.091	2.91
316.46	2.77
316.829	2.82
317.198	3.05
317.567	3.11
317.935	3.09
318.304	3.2
318.672	3.25
319.041	3.33
319.41	3.13
319.778	3.14
320.147	3.2
320.515	3.1
320.883	3.03
321.252	3.15
321.62	3.1
321.988	3.16
322.357	3.2
322.725	3.34
323.093	3.39
323.461	3.36
323.829	3.38
324.197	3.52
324.565	3.49
324.933	3.27
325.301	3.31
325.669	3.43
326.037	3.4
326.405	3.36
326.772	3.25
327.14	3.31
327.508	3.35
327.875	3.21
328.243	3.2
328.61	3.1
328.978	3.05
329.346	3.17
329.713	3.01
330.08	3.17
330.448	3.06
330.815	2.98
331.182	2.97
331.55	2.91
331.917	2.86
332.284	3.03
332.651	3.07
333.018	3.07
333.385	2.94
333.752	2.94
334.119	2.89
334.486	2.84
334.853	2.88
335.22	2.83
335.587	2.92
335.954	2.87
336.32	2.99
336.687	2.96
337.054	2.9
337.42	3.1
337.787	3.04
338.153	3.02
338.52	3.09
338.886	2.98
339.253	2.96
339.619	3.05
339.986	3.04
340.352	3.08
340.718	3.02
341.084	3.07
341.451	3.15
341.817	3.21
342.183	3.2
342.549	3.19
342.915	3.28
343.281	3.3
343.647	3.34
344.013	3.37
344.379	3.32
344.745	3.32
345.11	3.25
345.476	3.23
345.842	3.2
346.208	3.15
346.573	3.28
346.939	3.44
347.304	3.37
347.67	3.35
348.035	3.35
348.401	3.34
348.766	3.36
349.132	3.31
349.497	3.2
349.862	3.24
350.228	3.24
350.593	3.14
350.958	3.14
351.323	3.19
351.688	3.15
352.053	3.22
352.418	3.2
352.783	3.29
353.148	3.39
353.513	3.41
353.878	3.42
354.243	3.41
354.608	3.35
354.972	3.45
355.337	3.44
355.702	3.48
356.066	3.57
356.431	3.49
356.795	3.54
357.16	3.6
357.524	3.57
357.889	3.57
358.253	3.58
358.618	3.56
358.982	3.44
359.346	3.4
359.71	3.35
360.075	3.35
360.439	3.3
360.803	3.19
361.167	3.17
361.531	3.19
361.895	3.17
362.259	3.14
362.623	3.09
362.987	3.07
363.351	3.03
363.714	3.03
364.078	3.09
364.442	3.05
364.806	3.07
365.169	3.08
365.533	3.11
365.896	3.15
366.26	3.14
366.623	3.21
366.987	3.28
367.35	3.33
367.714	3.38
368.077	3.4
368.44	3.34
368.803	3.3
369.167	3.28
369.53	3.25
369.893	3.28
370.256	3.34
370.619	3.28
370.982	3.21
371.345	3.15
371.708	3.11
372.071	3.13
372.434	3.04
372.797	3.04
373.159	3.01
373.522	3.01
373.885	3.02
374.247	3.06
374.61	3.04
374.973	2.98
375.335	2.99
375.698	3.03
376.06	3.08
376.423	3.13
376.785	3.15
377.147	3.21
377.51	3.18
377.872	3.15
378.234	3.21
378.596	3.29
378.958	3.25
379.321	3.27
379.683	3.29
380.045	3.34
380.407	3.35
380.769	3.35
381.13	3.33
381.492	3.34
381.854	3.29
382.216	3.32
382.578	3.31
382.939	3.31
383.301	3.25
383.663	3.24
384.024	3.22
384.386	3.22
384.747	3.23
385.109	3.26
385.47	3.21
385.832	3.21
386.193	3.23
386.554	3.27
386.916	3.25
387.277	3.23
387.638	3.19
387.999	3.18
388.36	3.2
388.721	3.21
389.082	3.19
389.443	3.21
389.804	3.17
390.165	3.2
390.526	3.23
390.887	3.26
391.248	3.29
391.609	3.34
391.969	3.33
392.33	3.32
392.691	3.32
393.051	3.35
393.412	3.33
393.772	3.29
394.133	3.31
394.493	3.3
394.854	3.28
395.214	3.3
395.574	3.34
395.935	3.32
396.295	3.32
396.655	3.32
397.015	3.3
397.376	3.31
397.736	3.31
398.096	3.28
398.456	3.26
398.816	3.27
399.176	3.24
399.535	3.21
399.895	3.21
400.255	3.23
400.615	3.22
400.975	3.19
401.334	3.19
401.694	3.2
402.054	3.23
402.413	3.21
402.773	3.19
403.132	3.18
403.492	3.2
403.851	3.21
404.211	3.21
404.57	3.21
404.929	3.22
405.288	3.17
405.648	3.13
406.007	3.13
406.366	3.13
406.725	3.15
407.084	3.19
407.443	3.18
407.802	3.16
408.161	3.15
408.52	3.17
408.879	3.17
409.238	3.18
409.596	3.15
409.955	3.17
410.314	3.22
410.673	3.21
411.031	3.19
411.39	3.15
411.748	3.15
412.107	3.16
412.465	3.15
412.824	3.14
413.182	3.17
413.54	3.2
413.899	3.21
414.257	3.19
414.615	3.16
414.974	3.19
415.332	3.2
415.69	3.18
416.048	3.18
416.406	3.17
416.764	3.15
417.122	3.18
417.48	3.16
417.838	3.17
418.195	3.17
418.553	3.15
418.911	3.17
419.269	3.18
419.626	3.18
419.984	3.2
420.342	3.22
420.699	3.22
421.057	3.21
421.414	3.2
421.772	3.21
422.129	3.21
422.486	3.2
422.844	3.19
423.201	3.18
423.558	3.18
423.915	3.2
424.273	3.2
424.63	3.18
424.987	3.19
425.344	3.18
425.701	3.18
426.058	3.19
426.415	3.19
426.772	3.19
427.128	3.2
427.485	3.19
427.842	3.18
428.199	3.19
428.555	3.18
428.912	3.19
429.269	3.18
429.625	3.18
429.982	3.18
430.338	3.2
430.695	3.21
431.051	3.2
431.407	3.21
431.764	3.21
432.12	3.23
432.476	3.23
432.832	3.2
433.189	3.21
433.545	3.2
433.901	3.19
434.257	3.19
434.613	3.18
434.969	3.18
435.325	3.2
435.681	3.21
436.036	3.2
436.392	3.2
436.748	3.18
437.104	3.18
437.459	3.18
437.815	3.17
438.171	3.19
438.526	3.2
438.882	3.18
439.237	3.18
439.593	3.18
439.948	3.19
440.304	3.21
440.659	3.22
441.014	3.23
441.369	3.23
441.725	3.22
442.08	3.21
442.435	3.23
442.79	3.22
443.145	3.21
443.5	3.22
443.855	3.21
444.21	3.22
444.565	3.23
444.92	3.24
445.275	3.24
445.629	3.24
445.984	3.22
446.339	3.22
446.693	3.21
447.048	3.2
447.403	3.19
447.757	3.18
448.112	3.17
448.466	3.16
448.82	3.17
449.175	3.18
449.529	3.18
449.883	3.17
450.238	3.16
450.592	3.15
450.946	3.15
451.3	3.13
451.654	3.14
452.008	3.13
452.362	3.13
452.716	3.12
453.07	3.11
453.424	3.12
453.778	3.14
454.132	3.14
454.486	3.14
454.839	3.15
455.193	3.14
455.547	3.14
455.9	3.14
456.254	3.14
456.607	3.1
456.961	3.12
457.314	3.1
457.668	3.12
458.021	3.11
458.375	3.11
458.728	3.14
459.081	3.14
459.434	3.12
459.787	3.13
460.141	3.12
460.494	3.14
460.847	3.15
461.2	3.15
461.553	3.15
461.906	3.14
462.259	3.14
462.611	3.15
462.964	3.16
463.317	3.18
463.67	3.17
464.022	3.22
464.375	3.19
464.728	3.21
465.08	3.22
465.433	3.24
465.785	3.23
466.138	3.22
466.49	3.22
466.843	3.22
467.195	3.22
467.547	3.25
467.899	3.24
468.252	3.24
468.604	3.24
468.956	3.23
469.308	3.25
469.66	3.24
470.012	3.24
470.364	3.25
470.716	3.26
471.068	3.28
471.42	3.27
471.772	3.29
472.123	3.29
472.475	3.3
472.827	3.31
473.178	3.33
473.53	3.33
473.882	3.34
474.233	3.34
474.585	3.34
474.936	3.32
475.288	3.31
475.639	3.31
475.99	3.3
476.342	3.33
476.693	3.33
477.044	3.32
477.395	3.34
477.746	3.33
478.097	3.3
478.448	3.29
478.8	3.27
479.15	3.26
479.501	3.27
479.852	3.25
480.203	3.26
480.554	3.26
480.905	3.27
481.255	3.26
481.606	3.26
481.957	3.27
482.307	3.27
482.658	3.28
483.009	3.27
483.359	3.27
483.709	3.28
484.06	3.29
484.41	3.29
484.761	3.28
485.111	3.27
485.461	3.28
485.811	3.28
486.162	3.29
486.512	3.29
486.862	3.29
487.212	3.29
487.562	3.29
487.912	3.28
488.262	3.27
488.612	3.28
488.961	3.29
489.311	3.28
489.661	3.29
490.011	3.28
490.36	3.28
490.71	3.29
491.06	3.27
491.409	3.27
491.759	3.27
492.108	3.26
492.458	3.26
492.807	3.25
493.157	3.25
493.506	3.25
493.855	3.26
494.204	3.25
494.554	3.26
494.903	3.24
495.252	3.25
495.601	3.26
495.95	3.25
496.299	3.23
496.648	3.24
496.997	3.23
497.346	3.25
497.695	3.25
498.043	3.25
498.392	3.24
498.741	3.28
499.09	3.27
499.438	3.3
499.787	3.32
500.135	3.33
500.484	3.34
500.832	3.35
501.181	3.35
501.529	3.35
501.878	3.36
502.226	3.4
502.574	3.4
502.923	3.41
503.271	3.43
503.619	3.44
503.967	3.44
504.315	3.41
504.663	3.41
505.011	3.43
505.359	3.43
505.707	3.47
506.055	3.44
506.403	3.46
506.751	3.46
507.098	3.47
507.446	3.48
507.794	3.48
508.141	3.48
508.489	3.47
508.837	3.5
509.184	3.48
509.531	3.47
509.879	3.5
510.226	3.53
510.574	3.52
510.921	3.52
511.268	3.52
511.616	3.56
511.963	3.57
512.31	3.55
512.657	3.57
513.004	3.56
513.351	3.58
513.698	3.57
514.045	3.55
514.392	3.56
514.739	3.55
515.086	3.56
515.432	3.56
515.779	3.57
516.126	3.56
516.473	3.59
516.819	3.59
517.166	3.58
517.512	3.56
517.859	3.57
518.205	3.56
518.552	3.58
518.898	3.56
519.245	3.55
519.591	3.57
519.937	3.55
520.283	3.55
520.629	3.56
520.976	3.56
521.322	3.59
521.668	3.57
522.014	3.57
522.36	3.57
522.706	3.57
523.052	3.59
523.398	3.61
523.743	3.6
524.089	3.61
524.435	3.6
524.781	3.6
525.126	3.62
525.472	3.64
525.817	3.65
526.163	3.66
526.509	3.68
526.854	3.69
527.199	3.7
527.545	3.7
527.89	3.7
528.235	3.7
528.581	3.7
528.926	3.71
529.271	3.72
529.616	3.73
529.961	3.73
530.306	3.73
530.651	3.73
530.996	3.74
531.341	3.75
531.686	3.75
532.031	3.75
532.376	3.75
532.721	3.74
533.065	3.75
533.41	3.75
533.755	3.73
534.099	3.73
534.444	3.75
534.788	3.75
535.133	3.75
535.477	3.75
535.822	3.76
536.166	3.76
536.51	3.76
536.855	3.75
537.199	3.77
537.543	3.77
537.887	3.76
538.231	3.75
538.576	3.74
538.92	3.75
539.264	3.76
539.608	3.76
539.951	3.77
540.295	3.75
540.639	3.77
540.983	3.78
541.327	3.77
541.671	3.77
542.014	3.76
542.358	3.77
542.701	3.79
543.045	3.79
543.389	3.81
543.732	3.81
544.075	3.82
544.419	3.81
544.762	3.81
545.105	3.81
545.449	3.83
545.792	3.83
546.135	3.84
546.478	3.84
546.821	3.86
547.165	3.84
547.508	3.88
547.851	3.87
548.194	3.84
548.536	3.84
548.879	3.85
549.222	3.9
549.565	3.89
549.908	3.89
550.25	3.87
550.593	3.85
550.936	3.83
551.278	3.83
551.621	3.87
551.963	3.85
552.306	3.85
552.648	3.81
552.991	3.82
553.333	3.83
553.675	3.81
554.017	3.8
554.36	3.83
554.702	3.8
555.044	3.8
555.386	3.82
555.728	3.83
556.07	3.79
556.412	3.74
556.754	3.73
557.096	3.69
557.438	3.72
557.78	3.71
558.121	3.73
558.463	3.72
558.805	3.7
559.147	3.73
559.488	3.75
559.83	3.78
560.171	3.79
560.513	3.79
560.854	3.75
561.196	3.77
561.537	3.76
561.878	3.73
562.22	3.73
562.561	3.72
562.902	3.72
563.243	3.73
563.584	3.74
563.925	3.76
564.266	3.78
564.607	3.77
564.948	3.79
565.289	3.77
565.63	3.79
565.971	3.79
566.312	3.78
566.653	3.77
566.993	3.74
567.334	3.74
567.675	3.77
568.015	3.77
568.356	3.74
568.696	3.76
569.037	3.79
569.377	3.78
569.718	3.78
570.058	3.79
570.398	3.79
570.739	3.79
571.079	3.77
571.419	3.75
571.759	3.75
572.099	3.73
572.439	3.74
572.779	3.73
573.119	3.72
573.459	3.72
573.799	3.72
574.139	3.72
574.479	3.71
574.819	3.7
575.158	3.75
575.498	3.77
575.838	3.73
576.177	3.73
576.517	3.73
576.856	3.75
577.196	3.71
577.535	3.72
577.875	3.74
578.214	3.76
578.553	3.81
578.893	3.8
579.232	3.84
579.571	3.83
579.91	3.82
580.25	3.83
580.589	3.87
580.928	3.9
581.267	3.92
581.606	3.9
581.945	3.88
582.283	3.81
582.622	3.81
582.961	3.8
583.3	3.78
583.639	3.79
583.977	3.79
584.316	3.8
584.654	3.77
584.993	3.8
585.332	3.82
585.67	3.8
586.008	3.8
586.347	3.8
586.685	3.78
587.024	3.79
587.362	3.81
587.7	3.79
588.038	3.75
588.376	3.74
588.715	3.79
589.053	3.79
589.391	3.84
589.729	3.86
590.067	3.86
590.404	3.88
590.742	3.89
591.08	3.9
591.418	3.9
591.756	3.89
592.093	3.84
592.431	3.82
592.769	3.81
593.106	3.79
593.444	3.75
593.781	3.78
594.119	3.8
594.456	3.77
594.793	3.78
595.131	3.75
595.468	3.75
595.805	3.7
596.143	3.73
596.48	3.74
596.817	3.71
597.154	3.74
597.491	3.73
597.828	3.72
598.165	3.72
598.502	3.7
598.839	3.72
599.176	3.7
599.512	3.68
599.849	3.71
600.186	3.71
600.523	3.74
600.859	3.74
601.196	3.7
601.532	3.71
601.869	3.66
602.205	3.71
602.542	3.74
602.878	3.79
603.215	3.74
603.551	3.7
603.887	3.7
604.223	3.7
604.56	3.7
604.896	3.7
605.232	3.73
605.568	3.73
605.904	3.75
606.24	3.81
606.576	3.84
606.912	3.83
607.248	3.83
607.583	3.84
607.919	3.86
608.255	3.85
608.591	3.87
608.926	3.87
609.262	3.84
609.597	3.83
609.933	3.79
610.268	3.82
610.604	3.85
610.939	3.89
611.275	3.85
611.61	3.84
611.945	3.84
612.281	3.8
612.616	3.83
612.951	3.83
613.286	3.78
613.621	3.8
613.956	3.81
614.291	3.83
614.626	3.82
614.961	3.84
615.296	3.85
615.631	3.81
615.966	3.84
616.3	3.88
616.635	3.85
616.97	3.89
617.304	3.9
617.639	3.91
617.973	3.88
618.308	3.94
618.642	3.95
618.977	3.94
619.311	3.92
619.646	3.91
619.98	3.87
620.314	3.94
620.648	3.88
620.983	3.9
621.317	3.93
621.651	3.95
621.985	3.94
622.319	3.95
622.653	4
622.987	4.02
623.321	4
623.655	4.03
623.988	4.07
624.322	4.02
624.656	4.06
624.99	4.06
625.323	4.02
625.657	4.04
625.99	4.06
626.324	4.11
626.657	4.11
626.991	4.17
627.324	4.14
627.658	4.17
627.991	4.16
628.324	4.12
628.657	4.11
628.991	4.09
629.324	4.09
629.657	4.06
629.99	4.03
630.323	4.03
630.656	4
630.989	3.99
631.322	4.05
631.655	3.96
631.987	3.98
632.32	3.96
632.653	3.94
632.986	3.94
633.318	3.95
633.651	3.98
633.984	3.92
634.316	3.91
634.649	3.91
634.981	3.88
635.313	3.94
635.646	3.93
635.978	3.92
636.31	3.92
636.643	3.88
636.975	3.9
637.307	3.94
637.639	3.91
637.971	3.9
638.303	3.89
638.635	3.87
638.967	3.82
639.299	3.88
639.631	3.84
639.963	3.77
640.295	3.66
640.626	3.66
640.958	3.69
641.29	3.69
641.621	3.65
641.953	3.64
642.285	3.58
642.616	3.59
642.948	3.61
643.279	3.59
643.61	3.72
643.942	3.64
644.273	3.6
644.604	3.64
644.936	3.6
645.267	3.6
645.598	3.64
645.929	3.7
646.26	3.75
646.591	3.77
646.922	3.79
647.253	3.88
647.584	3.91
647.915	3.86
648.245	3.84
648.576	3.84
648.907	3.89
649.238	3.89
649.568	3.91
649.899	3.88
650.229	3.94
650.56	3.87
650.89	3.93
651.221	3.97
651.551	3.95
651.882	3.95
652.212	3.96
652.542	4.06
652.872	3.99
653.203	3.91
653.533	3.94
653.863	3.92
654.193	3.87
654.523	3.88
654.853	3.88
655.183	3.93
655.513	3.89
655.843	3.84
656.172	3.87
656.502	3.9
656.832	3.9
657.162	3.87
657.491	3.8
657.821	3.79
658.15	3.76
658.48	3.75
658.809	3.75
659.139	3.69
659.468	3.64
659.798	3.68
660.127	3.71
660.456	3.77
660.785	3.85
661.115	3.91
661.444	3.86
661.773	3.92
662.102	3.88
662.431	3.94
662.76	3.97
663.089	3.93
663.418	3.88
663.747	3.87
664.076	3.9
664.404	3.97
664.733	4.05
665.062	4.03
665.39	4.04
665.719	4
666.048	4.11
666.376	4.04
666.705	4.01
667.033	3.98
667.362	3.97
667.69	3.92
668.018	3.91
668.347	3.88
668.675	3.89
669.003	3.97
669.331	4.04
669.659	4.07
669.987	4.11
670.315	4.15
670.643	4.15
670.971	4.09
671.299	4.1
671.627	3.96
671.955	4.05
672.283	4.09
672.61	4.13
672.938	4.14
673.266	4.24
673.593	4.41
673.921	4.45
674.249	4.42
674.576	4.45
674.904	4.4
675.231	4.42
675.558	4.41
675.886	4.34
676.213	4.28
676.54	4.26
676.867	4.35
677.195	4.33
677.522	4.31
677.849	4.44
678.176	4.47
678.503	4.58
678.83	4.52
679.157	4.49
679.484	4.53
679.81	4.48
680.137	4.37
680.464	4.28
680.791	4.29
681.117	4.3
681.444	4.27
681.771	4.25
682.097	4.29
682.424	4.26
682.75	4.23
683.077	4.19
683.403	4.17
683.729	4.1
684.056	4.12
684.382	4.17
684.708	4
685.034	3.91
685.36	3.91
685.686	3.82
686.012	3.77
686.339	3.7
686.664	3.76
686.99	3.89
687.316	3.89
687.642	3.91
687.968	3.83
688.294	3.94
688.619	4.07
688.945	3.97
689.271	4.01
689.596	4.02
689.922	4.04
690.247	4.06
690.573	3.93
690.898	3.91
691.224	3.96
691.549	4.13
691.874	4.11
692.2	4.2
692.525	4.34
692.85	4.43
693.175	4.41
693.5	4.33
693.825	4.25
694.15	4.18
694.475	4.06
694.8	4.07
695.125	3.99
695.45	3.86
695.775	3.94
696.099	3.89
696.424	3.92
696.749	3.87
697.073	3.89
697.398	3.94
697.723	4.01
698.047	3.94
698.372	3.8
698.696	3.83
699.02	3.73
699.345	3.72
699.669	3.78
699.993	3.9
700.318	3.84
700.642	3.87
700.966	3.94
701.29	4.02
701.614	4.06
701.938	4.07
702.262	4.18
702.586	4.24
702.91	4.28
703.234	4.36
703.557	4.47
703.881	4.41
704.205	4.38
704.529	4.27
704.852	4.15
705.176	4.26
705.499	4.26
705.823	4.3
706.146	4.21
706.47	4.17
706.793	4.13
707.117	4.23
707.44	4.19
707.763	4.14
708.086	4.07
708.409	3.95
708.733	3.94
709.056	3.81
709.379	3.69
709.702	3.63
710.025	3.58
710.348	3.52
710.671	3.56
710.993	3.68
711.316	3.76
711.639	3.88
711.962	3.89
712.284	3.91
712.607	4.02
712.93	4.12
713.252	4.02
713.575	3.89
713.897	3.75
714.22	3.79
714.542	3.85
714.864	3.91
715.187	3.98
715.509	4.01
715.831	4.1
716.153	4.1
716.475	4.21
716.798	4.28
717.12	4.3
717.442	4.43
717.764	4.29
718.085	4.11
718.407	4.09
718.729	4.05
719.051	4.04
719.373	3.88
719.695	3.71
720.016	3.89
720.338	4.03
720.659	4.23
720.981	4.03
721.302	3.97
721.624	3.95
721.945	4.03
722.267	3.86
722.588	3.58
722.909	3.62
723.231	3.49
723.552	3.39
723.873	3.31
724.194	3.17
724.515	3.34
724.836	3.44
725.157	3.67
725.478	3.7
725.799	3.87
726.12	3.68
726.441	3.81
726.762	3.64
727.083	3.45
727.403	3.55
727.724	3.81
728.045	4
728.365	3.87
728.686	3.86
729.006	4.1
729.327	4.33
729.647	4.32
729.967	4.3
730.288	4.33
730.608	4.22
730.928	4.29
731.249	4.2
731.569	4.26
731.889	4.27
732.209	4.23
732.529	4.22
732.849	4.35
733.169	4.46
733.489	4.51
733.809	4.65
734.129	4.47
734.448	4.5
734.768	4.35
735.088	4.55
735.408	4.58
735.727	4.63
736.047	4.68
736.366	4.72
736.686	4.85
737.005	4.89
737.325	5.11
737.644	5.02
737.963	5.22
738.283	5.14
738.602	4.98
738.921	5.09
739.24	5
739.56	4.98
739.879	4.81
740.198	4.93
740.517	5.06
740.836	5.22
741.155	5.22
741.473	5.27
741.792	5.29
742.111	5.32
742.43	5.08
742.748	5.11
743.067	5.01
743.386	5.03
743.704	4.84
744.023	4.84
744.341	4.86
744.66	4.78
744.978	4.73
745.297	4.58
745.615	4.59
745.933	4.56
746.252	4.55
746.57	4.43
746.888	4.18
747.206	4.02
747.524	3.97
747.842	3.8
748.16	3.76
748.478	3.68
748.796	3.68
749.114	3.88
749.432	3.73
749.749	3.8
750.067	3.67
750.385	4
750.703	4.16
751.02	4.35
751.338	4.49
751.655	4.42
751.973	4.77
752.29	4.68
752.608	4.62
752.925	4.72
753.242	4.88
753.56	4.79
753.877	4.94
754.194	4.89
754.511	4.91
754.828	4.84
755.145	4.81
755.462	4.75
755.779	4.93
756.096	4.91
756.413	4.89
756.73	5.06
757.047	5
757.364	4.73
757.68	4.45
757.997	4.31
758.314	4.44
758.63	4.24
758.947	4.33
759.264	4.34
759.58	4.36
759.896	4.52
760.213	4.61
760.529	4.37
760.846	4.19
761.162	4.11
761.478	4.06
761.794	4.06
762.11	4.07
762.426	3.85
762.743	3.86
763.059	4.02
763.375	4.01
763.69	4.13
764.006	4.3
764.322	4.42
764.638	4.46
764.954	4.51
765.27	4.49
765.585	4.55
765.901	4.52
766.216	4.46
766.532	4.21
766.848	4.18
767.163	4.44
767.478	4.5
767.794	4.7
768.109	4.66
768.424	4.8
768.74	4.76
769.055	4.98
769.37	5.19
769.685	5.01
770	5.31
770.315	5.01
770.63	4.89
770.945	4.81
771.26	4.83
771.575	4.84
771.89	4.94
772.205	4.84
772.52	5.16
772.834	5.22
773.149	5.18
773.464	5.52
773.778	5.52
774.093	5.41
774.407	5.2
774.722	5.18
775.036	5.03
775.351	5.1
775.665	4.89
775.979	4.59
776.293	4.63
776.608	4.28
776.922	4.22
777.236	4.1
777.55	4.08
777.864	3.82
778.178	3.92
778.492	3.98
778.806	3.82
779.12	3.41
779.434	3.42
779.747	3.79
780.061	3.76
780.375	3.62
780.689	4.17
781.002	4.61
781.316	5
781.629	4.95
781.943	5.14
782.256	5.14
782.57	5.38
782.883	5.47
783.196	5.17
783.51	5.02
783.823	5.57
784.136	5.72
784.449	5.68
784.762	5.52
785.075	5.16
785.388	5.06
785.701	4.96
786.014	5.17
786.327	4.87
786.64	4.82
786.953	4.62
787.266	4.2
787.578	3.79
787.891	3.92
788.204	4.06
788.516	3.93
788.829	3.61
789.141	3.68
789.454	3.47
789.766	4.09
790.079	3.99
790.391	3.54
790.703	3.64
791.016	3.77
791.328	3.95
791.64	4.31
791.952	4.5
792.264	4.6
792.576	4.36
792.888	4.71
793.2	4.51
793.512	4.77
793.824	5.06
794.136	4.86
794.448	4.79
794.76	4.19
795.071	4.17
795.383	4.25
795.695	4.17
796.006	4.09
796.318	3.61
796.629	3.99
796.941	4.25
797.252	4.42
797.564	4.43
797.875	4.33
798.186	4.21
798.497	4.5
798.809	4.63
799.12	4.68
799.431	4.48
799.742	4.53
800.053	4.81
800.364	4.59
800.675	5.01
800.986	4.98
801.297	5.65
801.608	5.3
801.918	5.37
802.229	5.14
802.54	5.51
802.851	5.78
803.161	6.33
803.472	6.3
803.782	6.31
804.093	6.33
804.403	6.49
804.714	6.57
805.024	5.98
805.334	6.45
805.645	6.57
805.955	6.68
806.265	7.48
806.575	7.12
806.885	7.35
807.195	7.7
807.505	7.55
807.815	7.51
808.125	8.12
808.435	8.16
808.745	8.57
809.055	8.92
809.365	8.67
809.674	7.77
809.984	7.77
810.294	7.44
810.603	7.67
810.913	7.52
811.222	7.21
811.532	7.98
811.841	8.17
812.151	8.29
812.46	8.29
812.769	6.93
813.079	7.02
813.388	7.37
813.697	7.01
814.006	7.78
814.315	7.41
814.624	6.9
814.933	7.27
815.242	6.55
815.551	6
815.86	6.47
816.169	6.82
816.478	6.54
816.786	6.17
817.095	6.42
817.404	6.61
817.712	6.64
818.021	6.75
818.33	6.64
818.638	6.38
818.947	6.44
819.255	7.16
819.563	6.9
819.872	6.44
820.18	6.36
820.488	5.93
820.796	5.95
821.105	6.18
821.413	6.1
821.721	6.16
822.029	6.21
822.337	6.06
822.645	6.3
822.953	6.25
823.26	6.38
823.568	6.29
823.876	6.29
824.184	6.31
824.491	6.18
824.799	6.21
825.107	6.22
825.414	6.25
825.722	6.31
826.029	6.47
826.337	6.53
826.644	6.54
826.951	6.64
827.259	6.69
827.566	6.59
827.873	6.61
828.18	6.72
828.488	6.83
828.795	6.99
829.102	6.7
829.409	6.88
829.716	6.76
830.023	6.75
830.329	6.53
830.636	6.71
830.943	6.89
831.25	6.59
831.557	6.8
831.863	6.89
832.17	6.49
832.476	6.34
832.783	6.58
833.089	6.5
833.396	6.37
833.702	6.67
834.009	6.69
834.315	6.87
834.621	6.6
834.928	6.33
835.234	6.2
835.54	6.3
835.846	6.38
836.152	6.67
836.458	6.93
836.764	6.92
837.07	6.59
837.376	6.43
837.682	6.37
837.988	6.2
838.293	5.94
838.599	6.17
838.905	6.1
839.211	5.88
839.516	6.13
839.822	6.35
840.127	6.02
840.433	6.39
840.738	5.86
841.044	6.36
841.349	7.29
841.654	7.21
841.959	7.32
842.265	6.27
842.57	6.61
842.875	6.03
843.18	6.15
843.485	6.69
843.79	5.98
844.095	5.64
844.4	5.65
844.705	4.74
845.01	5.31
845.315	4.64
845.619	4.25
845.924	3.92
846.229	4.12
846.533	4.39
846.838	2.66
847.142	2.5
847.447	2.02
847.751	0.41
848.056	-1.25
848.36	-1.28
848.664	0.5
848.969	0.21
849.273	-0.74
849.577	0.14
849.881	0.04
850.185	1.68
850.489	3.71
850.794	3.91
851.097	5.53
851.401	4.44
851.705	4.2
852.009	5.01
852.313	3.64
852.617	3.67
852.92	5.15
853.224	8.49
853.528	9.09
853.831	9.26
854.135	8.99
854.438	11.25
854.742	10.88
855.045	11.31
855.349	9.71
855.652	9.1
855.955	10.53
856.259	10.96
856.562	11.72
856.865	10.32
857.168	7.08
857.471	6.02
857.774	5.81
858.077	7.22
858.38	7.05
858.683	8.73
858.986	9.47
859.289	8.38
859.592	7.38
859.894	8.18
860.197	7.7
860.5	7.35
860.802	6.64
861.105	6.56
861.407	5.54
861.71	6.63
862.012	8.79
862.315	7.21
862.617	6.12
862.919	3.86
863.222	4.89
863.524	9
863.826	9.1
864.128	8
864.43	8.63
864.732	9.57
865.034	9.31
865.336	6.7
865.638	5.32
865.94	2.88
866.242	2.35
866.544	1.54
866.846	1.97
867.147	2.56
867.449	3.52
867.751	3.97
868.052	5.57
868.354	4.92
868.655	6.87
868.957	8.1
869.258	9.49
869.56	9.69
869.861	6.21
870.162	8.11
870.463	11.03
870.765	9.89
871.066	9.92
871.367	9.04
871.668	10.39
871.969	10.41
872.27	12.66
872.571	12.51
872.872	14.68
873.173	13.76
873.473	14.83
873.774	15.12
874.075	14.92
874.376	12.49
874.676	13.3
874.977	9.32
875.277	7.6
875.578	7.83
875.878	7.48
876.179	10.3
876.479	9.42
876.78	6.74
877.08	6.65
877.38	4.81
877.68	6.32
877.981	6.05
878.281	7.09
878.581	6.31
