Data from BU58119_Reflection_00008.txt Node
Date: Tue Nov 19 10:50:54 EST 2019
User: vgr7
Spectrometer: USB2G7710
Scans to average: 3
Trigger mode: 4
Integration Time (sec): 2.000000E-2
Electric dark correction enabled: true
Boxcar width: 10
XAxis mode: Wavelengths
Number of Pixels in Spectrum: 2048
>>>>>Begin Spectral Data<<<<<
177.721	-551.76
178.105	-293.2
178.488	-479.25
178.871	-868.18
179.254	-1700
179.636	733.62
180.019	473.39
180.402	81.48
180.785	1136.36
181.168	207.14
181.55	174.2
181.933	106.83
182.316	194.17
182.698	57.21
183.081	56.12
183.463	178.72
183.846	179.82
184.228	445.32
184.611	147.43
184.993	-18.31
185.376	-8.3
185.758	43.93
186.14	10.45
186.522	-49.67
186.904	-89.87
187.287	-120.49
187.669	-36.55
188.051	-53.5
188.433	-100.2
188.815	-76.82
189.197	-49.63
189.579	-15.6
189.961	-16.86
190.342	-24.61
190.724	-19.12
191.106	-23.85
191.488	-28.19
191.869	-30.32
192.251	-36.43
192.633	-39.47
193.014	-46.84
193.396	-38.48
193.777	-29.22
194.159	-25.06
194.54	-9.18
194.922	-2.57
195.303	-8.52
195.684	-13.87
196.065	-13.99
196.447	-20.96
196.828	-11.65
197.209	-19.12
197.59	-29.26
197.971	-36.94
198.352	-33.91
198.733	-41.8
199.114	-51.37
199.495	-63.38
199.876	-131.26
200.257	-340.56
200.638	-289.61
201.018	293.55
201.399	-84.3
201.78	-89.59
202.16	-231.34
202.541	-1222.03
202.922	-584.56
203.302	6561.54
203.683	3700
204.063	-847.37
204.444	-731.68
204.824	-14900
205.204	-120.65
205.585	-104.11
205.965	-103.14
206.345	-65.95
206.725	-47.87
207.106	-43.23
207.486	-26.55
207.866	-6.8
208.246	5.92
208.626	-12.83
209.006	-17.95
209.386	-18.07
209.766	-29.45
210.145	-4.7
210.525	-9.09
210.905	-7.81
211.285	2.95
211.664	9.76
212.044	-1.71
212.424	2.8
212.803	-8.46
213.183	-10.4
213.562	-6.52
213.942	4.29
214.321	-5.14
214.701	-9.38
215.08	-12.54
215.459	-5.85
215.838	-7.93
216.218	-24.26
216.597	-14.19
216.976	-16.21
217.355	-10.51
217.734	-21.94
218.113	-20.34
218.492	-12.68
218.871	-11.23
219.25	-16.38
219.629	-29.34
220.008	-27.59
220.387	-25.58
220.766	-4.95
221.144	2.16
221.523	-3.07
221.902	-6.88
222.28	-1.03
222.659	7.98
223.037	9.17
223.416	1.59
223.794	-4.72
224.173	4.73
224.551	5.29
224.929	-5.05
225.308	-9.35
225.686	-0.33
226.064	-3.66
226.442	-4.25
226.821	8.5
227.199	7.91
227.577	11.99
227.955	16.99
228.333	14.55
228.711	8.91
229.089	8.61
229.467	7.87
229.845	8.09
230.222	13.69
230.6	11.27
230.978	12.69
231.356	9.29
231.733	13.61
232.111	14
232.488	13.12
232.866	19.22
233.243	19.76
233.621	21.62
233.998	21.56
234.376	17.56
234.753	14.51
235.13	12.67
235.508	11.79
235.885	9.12
236.262	8.43
236.639	8.46
237.016	8.58
237.393	8.44
237.77	8.57
238.147	5.2
238.524	5.93
238.901	5.67
239.278	6.75
239.655	5.61
240.032	5.17
240.409	4.91
240.785	3.74
241.162	3.48
241.539	2.87
241.915	2.52
242.292	2.72
242.668	3.19
243.045	3.76
243.421	3.85
243.798	3.69
244.174	3.62
244.551	3.6
244.927	3.1
245.303	3.05
245.679	3.06
246.056	3.22
246.432	3.35
246.808	3.46
247.184	3.31
247.56	3.11
247.936	3.06
248.312	3.18
248.688	3.01
249.064	3.13
249.44	3.17
249.815	3.52
250.191	3.61
250.567	3.35
250.943	3.28
251.318	3.05
251.694	3.22
252.069	3.55
252.445	3.37
252.82	3.89
253.196	4.13
253.571	4.1
253.947	4.13
254.322	3.89
254.697	3.75
255.073	3.68
255.448	3.82
255.823	3.83
256.198	3.64
256.573	3.81
256.948	3.66
257.323	3.76
257.698	3.59
258.073	3.53
258.448	3.63
258.823	3.36
259.198	3.41
259.573	3.25
259.948	3.26
260.322	3.23
260.697	3
261.072	2.92
261.446	2.98
261.821	2.93
262.195	2.87
262.57	2.88
262.944	2.9
263.319	3.03
263.693	2.99
264.067	3.08
264.442	3.06
264.816	3.04
265.19	2.72
265.564	2.44
265.938	2.66
266.313	2.44
266.687	2.64
267.061	2.74
267.435	2.94
267.809	2.8
268.183	2.85
268.556	2.94
268.93	2.88
269.304	2.66
269.678	2.63
270.051	2.57
270.425	2.61
270.799	2.64
271.172	2.47
271.546	2.45
271.919	2.2
272.293	2.2
272.666	2.25
273.04	2.36
273.413	2.61
273.787	2.59
274.16	2.54
274.533	2.53
274.906	2.47
275.279	2.33
275.653	2.27
276.026	2.23
276.399	2.19
276.772	2.24
277.145	2.29
277.518	2.29
277.891	2.29
278.263	2.17
278.636	2.33
279.009	2.31
279.382	2.27
279.755	2.47
280.127	2.52
280.5	2.26
280.872	2.33
281.245	2.12
281.617	1.99
281.99	2.1
282.362	1.93
282.735	1.92
283.107	1.93
283.479	1.99
283.852	2.07
284.224	2.1
284.596	2.02
284.968	1.93
285.34	2.02
285.713	2.09
286.085	2.26
286.457	2.12
286.829	2.04
287.201	1.95
287.572	1.89
287.944	1.96
288.316	2.19
288.688	2.4
289.06	2.51
289.431	2.67
289.803	2.74
290.175	2.85
290.546	2.85
290.918	2.91
291.289	2.75
291.661	2.75
292.032	2.93
292.403	3.04
292.775	3.26
293.146	3.36
293.517	3.25
293.889	3.07
294.26	3.11
294.631	3.23
295.002	3.39
295.373	3.46
295.744	3.38
296.115	3.43
296.486	3.32
296.857	3.36
297.228	3.2
297.599	3.18
297.97	3.28
298.34	3.34
298.711	3.37
299.082	3.47
299.452	3.44
299.823	3.3
300.194	3.4
300.564	3.31
300.935	3.27
301.305	3.39
301.676	3.48
302.046	3.36
302.416	3.4
302.787	3.41
303.157	3.49
303.527	3.75
303.897	3.66
304.267	3.58
304.637	3.64
305.008	3.85
305.378	4.05
305.748	4.06
306.117	4.05
306.487	4.17
306.857	4.29
307.227	4.52
307.597	4.6
307.967	4.59
308.336	4.52
308.706	4.4
309.076	4.57
309.445	4.62
309.815	4.82
310.184	4.89
310.554	4.94
310.923	4.9
311.293	4.83
311.662	5.02
312.031	5.18
312.401	5.07
312.77	5.06
313.139	5.03
313.508	5.04
313.877	5.24
314.246	5.38
314.616	5.5
314.985	5.53
315.353	5.62
315.722	5.7
316.091	5.98
316.46	6.18
316.829	6.21
317.198	6.4
317.567	6.52
317.935	6.52
318.304	6.61
318.672	6.66
319.041	6.72
319.41	6.62
319.778	6.75
320.147	7.15
320.515	7.23
320.883	7.2
321.252	7.4
321.62	7.4
321.988	7.4
322.357	7.47
322.725	7.4
323.093	7.31
323.461	7.33
323.829	7.39
324.197	7.48
324.565	7.57
324.933	7.51
325.301	7.39
325.669	7.56
326.037	7.72
326.405	7.77
326.772	7.78
327.14	7.88
327.508	7.77
327.875	7.63
328.243	7.57
328.61	7.69
328.978	7.62
329.346	7.53
329.713	7.6
330.08	7.69
330.448	7.79
330.815	7.93
331.182	8.03
331.55	7.94
331.917	7.95
332.284	7.87
332.651	8
333.018	8.15
333.385	8.23
333.752	8.11
334.119	8.19
334.486	8.22
334.853	8.14
335.22	7.99
335.587	8.03
335.954	8.12
336.32	8.18
336.687	8.25
337.054	8.34
337.42	8.36
337.787	8.4
338.153	8.44
338.52	8.54
338.886	8.57
339.253	8.57
339.619	8.64
339.986	8.69
340.352	8.6
340.718	8.59
341.084	8.48
341.451	8.64
341.817	8.86
342.183	8.91
342.549	8.93
342.915	9.11
343.281	9.11
343.647	9.12
344.013	9.02
344.379	8.93
344.745	9.09
345.11	9.07
345.476	8.97
345.842	8.94
346.208	8.87
346.573	8.78
346.939	8.81
347.304	8.78
347.67	8.72
348.035	8.71
348.401	8.73
348.766	8.71
349.132	8.7
349.497	8.5
349.862	8.41
350.228	8.43
350.593	8.42
350.958	8.39
351.323	8.4
351.688	8.44
352.053	8.48
352.418	8.35
352.783	8.28
353.148	8.25
353.513	8.19
353.878	8.17
354.243	8.12
354.608	8.2
354.972	8.19
355.337	8.22
355.702	8.21
356.066	8.18
356.431	8.2
356.795	8.06
357.16	8
357.524	7.99
357.889	7.96
358.253	7.87
358.618	7.92
358.982	7.89
359.346	7.88
359.71	7.88
360.075	7.83
360.439	7.82
360.803	7.88
361.167	7.86
361.531	7.81
361.895	7.85
362.259	7.84
362.623	7.79
362.987	7.74
363.351	7.69
363.714	7.64
364.078	7.58
364.442	7.57
364.806	7.58
365.169	7.6
365.533	7.58
365.896	7.62
366.26	7.52
366.623	7.43
366.987	7.44
367.35	7.38
367.714	7.32
368.077	7.29
368.44	7.19
368.803	7.18
369.167	7.14
369.53	7.06
369.893	6.95
370.256	6.9
370.619	6.86
370.982	6.82
371.345	6.84
371.708	6.83
372.071	6.8
372.434	6.76
372.797	6.71
373.159	6.64
373.522	6.54
373.885	6.51
374.247	6.46
374.61	6.34
374.973	6.35
375.335	6.34
375.698	6.28
376.06	6.22
376.423	6.14
376.785	6.16
377.147	6.13
377.51	6.08
377.872	6.03
378.234	5.95
378.596	5.89
378.958	5.78
379.321	5.69
379.683	5.66
380.045	5.53
380.407	5.47
380.769	5.4
381.13	5.32
381.492	5.31
381.854	5.29
382.216	5.25
382.578	5.16
382.939	5.06
383.301	5.02
383.663	5.01
384.024	4.92
384.386	4.84
384.747	4.75
385.109	4.69
385.47	4.67
385.832	4.63
386.193	4.59
386.554	4.53
386.916	4.49
387.277	4.4
387.638	4.43
387.999	4.4
388.36	4.4
388.721	4.41
389.082	4.4
389.443	4.36
389.804	4.34
390.165	4.27
390.526	4.21
390.887	4.17
391.248	4.1
391.609	4.12
391.969	4.07
392.33	4.06
392.691	4.05
393.051	4.03
393.412	4.02
393.772	4.03
394.133	4.01
394.493	4.01
394.854	4
395.214	4.01
395.574	3.98
395.935	3.91
396.295	3.87
396.655	3.8
397.015	3.76
397.376	3.72
397.736	3.7
398.096	3.68
398.456	3.63
398.816	3.61
399.176	3.57
399.535	3.55
399.895	3.53
400.255	3.5
400.615	3.44
400.975	3.39
401.334	3.35
401.694	3.32
402.054	3.29
402.413	3.26
402.773	3.19
403.132	3.11
403.492	3.12
403.851	3.1
404.211	3.07
404.57	3.05
404.929	3.01
405.288	3.02
405.648	3.03
406.007	3.02
406.366	3.05
406.725	3.01
407.084	3.02
407.443	2.99
407.802	2.96
408.161	2.94
408.52	2.97
408.879	2.95
409.238	2.98
409.596	3
409.955	3
410.314	3
410.673	3
411.031	2.98
411.39	2.95
411.748	2.96
412.107	2.95
412.465	2.97
412.824	2.95
413.182	2.95
413.54	2.96
413.899	2.9
414.257	2.93
414.615	2.9
414.974	2.91
415.332	2.91
415.69	2.9
416.048	2.85
416.406	2.81
416.764	2.8
417.122	2.75
417.48	2.73
417.838	2.7
418.195	2.7
418.553	2.67
418.911	2.67
419.269	2.68
419.626	2.66
419.984	2.65
420.342	2.64
420.699	2.62
421.057	2.6
421.414	2.6
421.772	2.58
422.129	2.57
422.486	2.56
422.844	2.54
423.201	2.54
423.558	2.53
423.915	2.55
424.273	2.54
424.63	2.54
424.987	2.54
425.344	2.55
425.701	2.55
426.058	2.58
426.415	2.58
426.772	2.55
427.128	2.54
427.485	2.53
427.842	2.53
428.199	2.53
428.555	2.52
428.912	2.5
429.269	2.49
429.625	2.5
429.982	2.51
430.338	2.53
430.695	2.52
431.051	2.52
431.407	2.51
431.764	2.49
432.12	2.51
432.476	2.51
432.832	2.5
433.189	2.5
433.545	2.48
433.901	2.47
434.257	2.47
434.613	2.47
434.969	2.47
435.325	2.45
435.681	2.44
436.036	2.47
436.392	2.48
436.748	2.48
437.104	2.47
437.459	2.46
437.815	2.45
438.171	2.46
438.526	2.47
438.882	2.48
439.237	2.49
439.593	2.49
439.948	2.46
440.304	2.46
440.659	2.45
441.014	2.45
441.369	2.45
441.725	2.45
442.08	2.45
442.435	2.45
442.79	2.46
443.145	2.46
443.5	2.45
443.855	2.44
444.21	2.44
444.565	2.43
444.92	2.42
445.275	2.42
445.629	2.41
445.984	2.4
446.339	2.4
446.693	2.4
447.048	2.38
447.403	2.38
447.757	2.38
448.112	2.39
448.466	2.4
448.82	2.39
449.175	2.4
449.529	2.39
449.883	2.38
450.238	2.36
450.592	2.36
450.946	2.35
451.3	2.35
451.654	2.33
452.008	2.37
452.362	2.36
452.716	2.37
453.07	2.35
453.424	2.34
453.778	2.32
454.132	2.3
454.486	2.31
454.839	2.3
455.193	2.33
455.547	2.31
455.9	2.3
456.254	2.28
456.607	2.29
456.961	2.29
457.314	2.29
457.668	2.3
458.021	2.3
458.375	2.31
458.728	2.28
459.081	2.29
459.434	2.26
459.787	2.26
460.141	2.25
460.494	2.26
460.847	2.27
461.2	2.28
461.553	2.29
461.906	2.3
462.259	2.31
462.611	2.3
462.964	2.32
463.317	2.33
463.67	2.37
464.022	2.36
464.375	2.36
464.728	2.37
465.08	2.38
465.433	2.4
465.785	2.42
466.138	2.46
466.49	2.47
466.843	2.5
467.195	2.51
467.547	2.54
467.899	2.52
468.252	2.53
468.604	2.53
468.956	2.54
469.308	2.51
469.66	2.53
470.012	2.54
470.364	2.53
470.716	2.52
471.068	2.52
471.42	2.52
471.772	2.55
472.123	2.55
472.475	2.58
472.827	2.57
473.178	2.56
473.53	2.56
473.882	2.56
474.233	2.55
474.585	2.54
474.936	2.53
475.288	2.56
475.639	2.55
475.99	2.56
476.342	2.57
476.693	2.59
477.044	2.58
477.395	2.56
477.746	2.56
478.097	2.54
478.448	2.52
478.8	2.5
479.15	2.48
479.501	2.49
479.852	2.46
480.203	2.46
480.554	2.47
480.905	2.49
481.255	2.49
481.606	2.5
481.957	2.5
482.307	2.5
482.658	2.49
483.009	2.5
483.359	2.49
483.709	2.49
484.06	2.49
484.41	2.49
484.761	2.49
485.111	2.49
485.461	2.5
485.811	2.5
486.162	2.5
486.512	2.51
486.862	2.5
487.212	2.5
487.562	2.49
487.912	2.49
488.262	2.48
488.612	2.47
488.961	2.47
489.311	2.47
489.661	2.47
490.011	2.46
490.36	2.46
490.71	2.45
491.06	2.45
491.409	2.45
491.759	2.44
492.108	2.44
492.458	2.45
492.807	2.45
493.157	2.45
493.506	2.46
493.855	2.46
494.204	2.45
494.554	2.48
494.903	2.51
495.252	2.52
495.601	2.54
495.95	2.54
496.299	2.54
496.648	2.57
496.997	2.6
497.346	2.63
497.695	2.66
498.043	2.7
498.392	2.73
498.741	2.75
499.09	2.79
499.438	2.84
499.787	2.88
500.135	2.91
500.484	2.94
500.832	2.97
501.181	3.02
501.529	3.08
501.878	3.11
502.226	3.14
502.574	3.19
502.923	3.22
503.271	3.29
503.619	3.33
503.967	3.37
504.315	3.44
504.663	3.46
505.011	3.52
505.359	3.57
505.707	3.62
506.055	3.69
506.403	3.74
506.751	3.79
507.098	3.86
507.446	3.94
507.794	4.01
508.141	4.09
508.489	4.18
508.837	4.24
509.184	4.31
509.531	4.38
509.879	4.45
510.226	4.51
510.574	4.58
510.921	4.66
511.268	4.74
511.616	4.81
511.963	4.92
512.31	5.01
512.657	5.09
513.004	5.17
513.351	5.26
513.698	5.36
514.045	5.46
514.392	5.55
514.739	5.66
515.086	5.75
515.432	5.86
515.779	5.95
516.126	6.08
516.473	6.2
516.819	6.32
517.166	6.42
517.512	6.51
517.859	6.61
518.205	6.69
518.552	6.79
518.898	6.88
519.245	6.97
519.591	7.06
519.937	7.14
520.283	7.25
520.629	7.36
520.976	7.46
521.322	7.59
521.668	7.69
522.014	7.81
522.36	7.94
522.706	8.06
523.052	8.18
523.398	8.29
523.743	8.42
524.089	8.55
524.435	8.67
524.781	8.82
525.126	8.97
525.472	9.1
525.817	9.2
526.163	9.3
526.509	9.42
526.854	9.54
527.199	9.64
527.545	9.74
527.89	9.82
528.235	9.92
528.581	10.02
528.926	10.13
529.271	10.22
529.616	10.32
529.961	10.42
530.306	10.54
530.651	10.66
530.996	10.8
531.341	10.94
531.686	11.08
532.031	11.21
532.376	11.34
532.721	11.48
533.065	11.61
533.41	11.78
533.755	11.92
534.099	12.05
534.444	12.21
534.788	12.35
535.133	12.54
535.477	12.7
535.822	12.85
536.166	13.02
536.51	13.22
536.855	13.41
537.199	13.63
537.543	13.82
537.887	14.03
538.231	14.21
538.576	14.41
538.92	14.61
539.264	14.82
539.608	15.01
539.951	15.19
540.295	15.4
540.639	15.58
540.983	15.74
541.327	15.93
541.671	16.09
542.014	16.29
542.358	16.42
542.701	16.59
543.045	16.77
543.389	16.94
543.732	17.12
544.075	17.31
544.419	17.5
544.762	17.68
545.105	17.88
545.449	18.11
545.792	18.35
546.135	18.57
546.478	18.82
546.821	19.09
547.165	19.36
547.508	19.61
547.851	19.86
548.194	20.13
548.536	20.39
548.879	20.66
549.222	20.94
549.565	21.23
549.908	21.51
550.25	21.81
550.593	22.09
550.936	22.35
551.278	22.59
551.621	22.86
551.963	23.2
552.306	23.49
552.648	23.76
552.991	23.97
553.333	24.21
553.675	24.43
554.017	24.66
554.36	24.89
554.702	25.12
555.044	25.34
555.386	25.55
555.728	25.75
556.07	25.98
556.412	26.2
556.754	26.45
557.096	26.65
557.438	26.89
557.78	27.07
558.121	27.32
558.463	27.57
558.805	27.77
559.147	27.93
559.488	28.09
559.83	28.28
560.171	28.47
560.513	28.69
560.854	28.89
561.196	29.02
561.537	29.21
561.878	29.4
562.22	29.6
562.561	29.76
562.902	29.91
563.243	30.03
563.584	30.17
563.925	30.3
564.266	30.42
564.607	30.53
564.948	30.64
565.289	30.82
565.63	30.96
565.971	31.07
566.312	31.22
566.653	31.35
566.993	31.47
567.334	31.61
567.675	31.71
568.015	31.79
568.356	31.94
568.696	32.04
569.037	32.15
569.377	32.2
569.718	32.28
570.058	32.38
570.398	32.49
570.739	32.56
571.079	32.67
571.419	32.79
571.759	32.9
572.099	33.08
572.439	33.14
572.779	33.23
573.119	33.33
573.459	33.4
573.799	33.51
574.139	33.57
574.479	33.67
574.819	33.82
575.158	33.99
575.498	34.11
575.838	34.26
576.177	34.35
576.517	34.55
576.856	34.77
577.196	34.93
577.535	35.12
577.875	35.25
578.214	35.47
578.553	35.61
578.893	35.75
579.232	35.86
579.571	35.99
579.91	36.14
580.25	36.29
580.589	36.45
580.928	36.58
581.267	36.76
581.606	36.91
581.945	37.05
582.283	37.15
582.622	37.28
582.961	37.4
583.3	37.5
583.639	37.55
583.977	37.6
584.316	37.71
584.654	37.84
584.993	37.93
585.332	37.91
585.67	38.01
586.008	38.13
586.347	38.16
586.685	38.24
587.024	38.26
587.362	38.32
587.7	38.33
588.038	38.38
588.376	38.41
588.715	38.42
589.053	38.41
589.391	38.44
589.729	38.42
590.067	38.4
590.404	38.44
590.742	38.46
591.08	38.5
591.418	38.5
591.756	38.41
592.093	38.41
592.431	38.43
592.769	38.41
593.106	38.31
593.444	38.35
593.781	38.34
594.119	38.36
594.456	38.31
594.793	38.35
595.131	38.36
595.468	38.39
595.805	38.43
596.143	38.49
596.48	38.5
596.817	38.56
597.154	38.63
597.491	38.74
597.828	38.85
598.165	38.86
598.502	38.89
598.839	38.98
599.176	39.08
599.512	39.14
599.849	39.25
600.186	39.3
600.523	39.25
600.859	39.25
601.196	39.3
601.532	39.29
601.869	39.36
602.205	39.39
602.542	39.39
602.878	39.38
603.215	39.33
603.551	39.37
603.887	39.34
604.223	39.35
604.56	39.27
604.896	39.31
605.232	39.36
605.568	39.45
605.904	39.41
606.24	39.44
606.576	39.42
606.912	39.38
607.248	39.51
607.583	39.59
607.919	39.62
608.255	39.68
608.591	39.84
608.926	39.89
609.262	39.96
609.597	40.04
609.933	40.13
610.268	40.19
610.604	40.24
610.939	40.31
611.275	40.37
611.61	40.45
611.945	40.46
612.281	40.47
612.616	40.5
612.951	40.6
613.286	40.59
613.621	40.75
613.956	40.89
614.291	40.9
614.626	41.11
614.961	41.2
615.296	41.28
615.631	41.3
615.966	41.27
616.3	41.35
616.635	41.39
616.97	41.41
617.304	41.52
617.639	41.58
617.973	41.69
618.308	41.71
618.642	41.75
618.977	41.8
619.311	41.89
619.646	41.91
619.98	41.94
620.314	42.01
620.648	41.91
620.983	41.84
621.317	41.88
621.651	41.81
621.985	41.84
622.319	41.82
622.653	41.79
622.987	41.76
623.321	41.69
623.655	41.66
623.988	41.68
624.322	41.58
624.656	41.48
624.99	41.4
625.323	41.36
625.657	41.29
625.99	41.24
626.324	41.11
626.657	41.1
626.991	41.1
627.324	41.06
627.658	41.12
627.991	41.15
628.324	41.18
628.657	41.21
628.991	41.26
629.324	41.3
629.657	41.27
629.99	41.37
630.323	41.35
630.656	41.38
630.989	41.35
631.322	41.43
631.655	41.52
631.987	41.63
632.32	41.68
632.653	41.78
632.986	41.83
633.318	41.97
633.651	41.99
633.984	42.06
634.316	42.15
634.649	42.14
634.981	42.21
635.313	42.25
635.646	42.23
635.978	42.3
636.31	42.27
636.643	42.33
636.975	42.35
637.307	42.5
637.639	42.57
637.971	42.71
638.303	42.7
638.635	42.74
638.967	42.71
639.299	42.65
639.631	42.64
639.963	42.6
640.295	42.65
640.626	42.75
640.958	42.73
641.29	42.71
641.621	42.73
641.953	42.69
642.285	42.72
642.616	42.88
642.948	42.85
643.279	42.9
643.61	43
643.942	42.94
644.273	42.97
644.604	42.89
644.936	42.77
645.267	42.79
645.598	42.8
645.929	42.9
646.26	42.94
646.591	43.03
646.922	43.15
647.253	43.11
647.584	43.05
647.915	43.13
648.245	43.12
648.576	43.18
648.907	43.27
649.238	43.21
649.568	43.1
649.899	42.95
650.229	43.05
650.56	43.1
650.89	43.23
651.221	43.14
651.551	43.24
651.882	43.27
652.212	43.27
652.542	43.2
652.872	43.09
653.203	43.19
653.533	43.09
653.863	42.98
654.193	42.93
654.523	42.79
654.853	42.65
655.183	42.64
655.513	42.59
655.843	42.49
656.172	42.48
656.502	42.46
656.832	42.56
657.162	42.32
657.491	42.27
657.821	42.15
658.15	42.2
658.48	42.18
658.809	42.29
659.139	42.37
659.468	42.45
659.798	42.47
660.127	42.48
660.456	42.61
660.785	42.74
661.115	42.89
661.444	43.12
661.773	43.17
662.102	43.24
662.431	43.34
662.76	43.44
663.089	43.54
663.418	43.62
663.747	43.74
664.076	44.03
664.404	44.11
664.733	44.15
665.062	44.1
665.39	44.15
665.719	44.02
666.048	43.97
666.376	44
666.705	44.07
667.033	43.98
667.362	43.93
667.69	43.89
668.018	43.77
668.347	43.65
668.675	43.69
669.003	43.67
669.331	43.74
669.659	43.79
669.987	43.79
670.315	43.68
670.643	43.64
670.971	43.54
671.299	43.57
671.627	43.7
671.955	43.75
672.283	43.8
672.61	43.89
672.938	43.99
673.266	43.92
673.593	43.85
673.921	43.82
674.249	43.9
674.576	43.86
674.904	43.85
675.231	43.9
675.558	43.98
675.886	43.97
676.213	43.95
676.54	43.71
676.867	43.6
677.195	43.48
677.522	43.47
677.849	43.48
678.176	43.33
678.503	43.28
678.83	43.24
679.157	43.12
679.484	42.98
679.81	42.82
680.137	42.82
680.464	42.72
680.791	42.76
681.117	42.59
681.444	42.65
681.771	42.63
682.097	42.52
682.424	42.54
682.75	42.56
683.077	42.5
683.403	42.53
683.729	42.53
684.056	42.67
684.382	42.63
684.708	42.58
685.034	42.62
685.36	42.38
685.686	42.36
686.012	42.33
686.339	42.46
686.664	42.52
686.99	42.42
687.316	42.71
687.642	42.74
687.968	42.85
688.294	42.82
688.619	42.84
688.945	42.81
689.271	42.76
689.596	42.75
689.922	42.77
690.247	42.81
690.573	42.86
690.898	42.93
691.224	43.03
691.549	43.15
691.874	43.27
692.2	43.51
692.525	43.55
692.85	43.72
693.175	43.66
693.5	43.58
693.825	43.69
694.15	43.32
694.475	43.24
694.8	43.13
695.125	43.1
695.45	42.9
695.775	42.96
696.099	42.93
696.424	42.84
696.749	42.75
697.073	42.78
697.398	42.78
697.723	42.62
698.047	42.45
698.372	42.29
698.696	42.13
699.02	42.13
699.345	42.19
699.669	42.22
699.993	42.28
700.318	42.41
700.642	42.54
700.966	42.83
701.29	42.95
701.614	43.05
701.938	43.06
702.262	43.29
702.586	43.51
702.91	43.74
703.234	43.69
703.557	43.9
703.881	44.1
704.205	44.21
704.529	44.32
704.852	44.46
705.176	44.79
705.499	44.93
705.823	44.87
706.146	45.09
706.47	44.94
706.793	44.88
707.117	44.85
707.44	44.72
707.763	44.65
708.086	44.7
708.409	44.63
708.733	44.63
709.056	44.56
709.379	44.45
709.702	44.29
710.025	44.44
710.348	44.44
710.671	44.44
710.993	44.31
711.316	44.6
711.639	44.6
711.962	44.51
712.284	44.59
712.607	44.57
712.93	44.47
713.252	44.41
713.575	44.45
713.897	44.31
714.22	44.32
714.542	44.24
714.864	44.11
715.187	44.05
715.509	44.02
715.831	43.99
716.153	44.02
716.475	43.94
716.798	43.86
717.12	43.56
717.442	43.39
717.764	43.55
718.085	43.32
718.407	43.45
718.729	43.39
719.051	43.24
719.373	43.4
719.695	43.22
720.016	43.37
720.338	43.24
720.659	43.45
720.981	43.55
721.302	43.58
721.624	43.73
721.945	43.78
722.267	43.95
722.588	43.89
722.909	43.85
723.231	43.92
723.552	44.11
723.873	44.4
724.194	44.39
724.515	44.15
724.836	44.22
725.157	44.07
725.478	44.23
725.799	44.12
726.12	44.15
726.441	44.11
726.762	43.98
727.083	44.13
727.403	44.08
727.724	43.89
728.045	43.83
728.365	43.66
728.686	43.82
729.006	43.65
729.327	43.8
729.647	43.75
729.967	43.83
730.288	43.81
730.608	43.85
730.928	43.94
731.249	44.05
731.569	44
731.889	44.01
732.209	43.69
732.529	44.02
732.849	43.99
733.169	44.13
733.489	44.32
733.809	44.28
734.129	44.32
734.448	44.29
734.768	44.32
735.088	44.38
735.408	44.58
735.727	44.69
736.047	44.7
736.366	44.81
736.686	44.93
737.005	45.05
737.325	45.15
737.644	45
737.963	45.04
738.283	44.88
738.602	45.07
738.921	45.37
739.24	45.04
739.56	45.19
739.879	45.06
740.198	44.93
740.517	45.08
740.836	45.02
741.155	45.17
741.473	45.54
741.792	45.84
742.111	45.92
742.43	45.85
742.748	46.13
743.067	46.21
743.386	46.02
743.704	46.07
744.023	46.02
744.341	46.26
744.66	46.25
744.978	46.44
745.297	46.38
745.615	46.25
745.933	46.23
746.252	45.97
746.57	46.14
746.888	46.13
747.206	45.87
747.524	45.88
747.842	45.81
748.16	45.42
748.478	45.2
748.796	44.78
749.114	44.9
749.432	44.7
749.749	44.61
750.067	44.84
750.385	44.47
750.703	44.36
751.02	44.46
751.338	44.55
751.655	44.81
751.973	45.14
752.29	45.22
752.608	45.51
752.925	45.46
753.242	45.98
753.56	46.08
753.877	46.41
754.194	46.69
754.511	46.92
754.828	47.07
755.145	47.06
755.462	47.08
755.779	47.08
756.096	46.76
756.413	46.61
756.73	46.06
757.047	45.91
757.364	45.48
757.68	45.13
757.997	44.54
758.314	44.02
758.63	43.24
758.947	43.04
759.264	42.49
759.58	42.28
759.896	41.49
760.213	41.33
760.529	40.87
760.846	40.55
761.162	40.18
761.478	40.05
761.794	39.92
762.11	39.68
762.426	39.37
762.743	39.36
763.059	39.29
763.375	39.25
763.69	39.31
764.006	39.61
764.322	39.58
764.638	40.16
764.954	40.42
765.27	40.63
765.585	40.9
765.901	41.11
766.216	41.41
766.532	41.51
766.848	41.67
767.163	42.2
767.478	42.3
767.794	42.21
768.109	42.19
768.424	42.26
768.74	42.44
769.055	42.81
769.37	42.99
769.685	43.15
770	43.15
770.315	43.27
770.63	43.69
770.945	43.71
771.26	43.43
771.575	43.88
771.89	43.7
772.205	43.51
772.52	43.65
772.834	43.3
773.149	43.26
773.464	43.03
773.778	42.54
774.093	42.52
774.407	43.05
774.722	43.37
775.036	43.42
775.351	43.99
775.665	44.15
775.979	44.15
776.293	44.23
776.608	44.7
776.922	44.73
777.236	44.04
777.55	44.33
777.864	44.3
778.178	43.67
778.492	44.12
778.806	44.04
779.12	44.05
779.434	44.08
779.747	44.38
780.061	45.05
780.375	45.43
780.689	45.59
781.002	45.21
781.316	45.18
781.629	45.02
781.943	44.41
782.256	44.06
782.57	44.52
782.883	44.69
783.196	44.34
783.51	44.4
783.823	44.46
784.136	44.21
784.449	44.14
784.762	44.17
785.075	43.87
785.388	43.9
785.701	43.86
786.014	43.79
786.327	43.76
786.64	43.21
786.953	42.79
787.266	42.86
787.578	42.98
787.891	43.01
788.204	43.05
788.516	43.08
788.829	43.12
789.141	43.33
789.454	42.94
789.766	43.52
790.079	43.19
790.391	43.23
790.703	43.38
791.016	43.22
791.328	43.19
791.64	43.2
791.952	42.86
792.264	42.81
792.576	43.17
792.888	42.9
793.2	42.67
793.512	42.51
793.824	42.04
794.136	42.27
794.448	41.91
794.76	42.06
795.071	42.5
795.383	42.24
795.695	41.61
796.006	41.17
796.318	40.83
796.629	41.35
796.941	41.4
797.252	41.43
797.564	41.59
797.875	41.31
798.186	41.33
798.497	41.53
798.809	41.63
799.12	41.17
799.431	41.13
799.742	41.76
800.053	41.71
800.364	41.83
800.675	41.79
800.986	41.78
801.297	41.37
801.608	41.63
801.918	42.29
802.229	42.44
802.54	43.13
802.851	43.05
803.161	42.84
803.472	43.24
803.782	43.39
804.093	43.06
804.403	43.12
804.714	42.83
805.024	43.01
805.334	43.07
805.645	43.17
805.955	43.38
806.265	42.75
806.575	43.3
806.885	43.49
807.195	43.4
807.505	43.01
807.815	42.98
808.125	42.38
808.435	42.44
808.745	42.22
809.055	42.49
809.365	42.76
809.674	42.58
809.984	42.44
810.294	42.28
810.603	41.5
810.913	41.7
811.222	41.93
811.532	41.51
811.841	41.9
812.151	41.81
812.46	41.96
812.769	41.85
813.079	41.95
813.388	41.79
813.697	41.01
814.006	41.75
814.315	42.17
814.624	41.68
814.933	41.57
815.242	41.45
815.551	41.51
815.86	41.68
816.169	42.24
816.478	42.61
816.786	41.83
817.095	42.47
817.404	42.45
817.712	42.03
818.021	42.97
818.33	41.94
818.638	42.2
818.947	41.15
819.255	40.93
819.563	39.83
819.872	39.42
820.18	39.49
820.488	39.03
820.796	38.98
821.105	38.95
821.413	38.81
821.721	38.84
822.029	38.53
822.337	38.27
822.645	37.93
822.953	37.75
823.26	37.91
823.568	37.87
823.876	37.83
824.184	37.77
824.491	37.46
824.799	37.54
825.107	37.36
825.414	37.26
825.722	37.15
826.029	37.34
826.337	37.65
826.644	37.4
826.951	37.59
827.259	37.4
827.566	37.35
827.873	37.4
828.18	37.18
828.488	37.33
828.795	37.52
829.102	37.89
829.409	37.68
829.716	37.66
830.023	37.75
830.329	37.83
830.636	38.14
830.943	38.4
831.25	38.51
831.557	38.62
831.863	38.87
832.17	39.02
832.476	38.61
832.783	37.99
833.089	38.42
833.396	38.58
833.702	38.36
834.009	38.21
834.315	38.56
834.621	38.64
834.928	38.48
835.234	38.18
835.54	37.89
835.846	38.04
836.152	38.21
836.458	38.18
836.764	38.01
837.07	37.9
837.376	37.93
837.682	37.38
837.988	37.78
838.293	38.53
838.599	38.25
838.905	38.64
839.211	38.62
839.516	39.24
839.822	38.91
840.127	39.73
840.433	40.16
840.738	38.54
841.044	39.49
841.349	38.83
841.654	40.04
841.959	41.61
842.265	42.83
842.57	42.51
842.875	42.61
843.18	42.78
843.485	42.74
843.79	43.53
844.095	45.43
844.4	46.03
844.705	46.46
845.01	47.03
845.315	47.75
845.619	48.02
845.924	47.74
846.229	48.28
846.533	49.15
846.838	50.28
847.142	50.6
847.447	51.11
847.751	53.16
848.056	50.67
848.36	48.67
848.664	45.89
848.969	45.75
849.273	46.69
849.577	46.99
849.881	47.78
850.185	45.34
850.489	46.56
850.794	45.22
851.097	42.67
851.401	43.06
851.705	43.9
852.009	42.83
852.313	43.1
852.617	42.49
852.92	41.66
853.224	43.34
853.528	43.83
853.831	41.81
854.135	40.86
854.438	41.76
854.742	40.46
855.045	41.97
855.349	41.67
855.652	41.34
855.955	40.61
856.259	40.75
856.562	41.98
856.865	40.09
857.168	38.3
857.471	37.84
857.774	37.65
858.077	36.03
858.38	37.19
858.683	39.05
858.986	39.05
859.289	39.4
859.592	37.77
859.894	37.03
860.197	36.74
860.5	38.4
860.802	35.84
861.105	36.78
861.407	37.57
861.71	38.59
862.012	39.22
862.315	39.5
862.617	39.57
862.919	38.15
863.222	40.11
863.524	40.66
863.826	40.93
864.128	43.63
864.43	45.81
864.732	47.07
865.034	45.79
865.336	45.75
865.638	45.99
865.94	48.63
866.242	50.17
866.544	49.95
866.846	50.04
867.147	52.09
867.449	54.54
867.751	52.27
868.052	52.45
868.354	49.92
868.655	51.78
868.957	52.48
869.258	54.75
869.56	53.15
869.861	53.84
870.162	54.14
870.463	53.7
870.765	51.98
871.066	48.97
871.367	49.21
871.668	48.21
871.969	47.08
872.27	42.72
872.571	42.16
872.872	42.05
873.173	38.13
873.473	41.09
873.774	39.53
874.075	44.5
874.376	42.32
874.676	46.07
874.977	45.08
875.277	43.7
875.578	44.88
875.878	42.89
876.179	42.95
876.479	44.58
876.78	42.07
877.08	42.35
877.38	45.56
877.68	44.76
877.981	46.44
878.281	47.62
878.581	50.33
