Data from BU58002_Reflection_00007.txt Node
Date: Tue Nov 19 10:57:45 EST 2019
User: vgr7
Spectrometer: USB2G7710
Scans to average: 3
Trigger mode: 4
Integration Time (sec): 2.000000E-2
Electric dark correction enabled: true
Boxcar width: 10
XAxis mode: Wavelengths
Number of Pixels in Spectrum: 2048
>>>>>Begin Spectral Data<<<<<
177.721	19.28
178.105	-32.35
178.488	-64.02
178.871	-118.18
179.254	-125
179.636	-49.6
180.019	-62.06
180.402	233.33
180.785	53.13
181.168	938.24
181.55	237.02
181.933	110.36
182.316	135.52
182.698	105.26
183.081	102.02
183.463	191.54
183.846	193.35
184.228	413.52
184.611	630.9
184.993	584.09
185.376	273.08
185.758	1987.93
186.14	-540.38
186.522	-630.93
186.904	1105
187.287	1896.05
187.669	-773.53
188.051	-297.47
188.433	1246.23
188.815	-2605.36
189.197	-520.5
189.579	-228.89
189.961	-105.28
190.342	-87.74
190.724	-96.57
191.106	-109.19
191.488	-103.37
191.869	-94.87
192.251	-96.45
192.633	-82.59
193.014	-82.28
193.396	-61.87
193.777	-61.78
194.159	-63.04
194.54	-56.19
194.922	-72.27
195.303	-69.21
195.684	-64.61
196.065	-68.05
196.447	-47.62
196.828	-45.1
197.209	-57.49
197.59	-70.27
197.971	-66.74
198.352	-49.45
198.733	-48.84
199.114	-61.66
199.495	-60.1
199.876	-73.97
200.257	-56.84
200.638	-57.09
201.018	-39.1
201.399	-41.59
201.78	-27.13
202.16	-33.81
202.541	-45.3
202.922	-51.24
203.302	-40.01
203.683	-48.48
204.063	-48.74
204.444	-42.65
204.824	-35.38
205.204	-10.67
205.585	-2.69
205.965	6.25
206.345	0.98
206.725	7.42
207.106	24.08
207.486	9.47
207.866	11.01
208.246	6.1
208.626	8.21
209.006	-9.68
209.386	-17.87
209.766	-31.5
210.145	-21.14
210.525	-14.81
210.905	-6.6
211.285	-3.98
211.664	0.17
212.044	0.42
212.424	-5.69
212.803	-7.94
213.183	-25.21
213.562	-11.95
213.942	-26.25
214.321	-41.18
214.701	-40.43
215.08	-51.52
215.459	-39.03
215.838	-40.84
216.218	-44.59
216.597	-41.78
216.976	-38.49
217.355	-46.96
217.734	-52.11
218.113	-52.66
218.492	-63.62
218.871	-47.75
219.25	-47.05
219.629	-67.36
220.008	-66.18
220.387	-76.52
220.766	-68.45
221.144	-38.24
221.523	-51.89
221.902	-32.87
222.28	-15.91
222.659	-9.4
223.037	-2.9
223.416	-5.47
223.794	-2.96
224.173	-2.54
224.551	-3.14
224.929	-7.77
225.308	-6.45
225.686	-7.37
226.064	-8.56
226.442	-4.24
226.821	-5.17
227.199	-6.93
227.577	-5.06
227.955	-3.56
228.333	-3.11
228.711	-2.1
229.089	-5.4
229.467	-4.04
229.845	-2.95
230.222	-0.97
230.6	-0.75
230.978	-1.95
231.356	1.44
231.733	2.88
232.111	3.06
232.488	3.39
232.866	4.46
233.243	4.97
233.621	7.76
233.998	8.83
234.376	7.35
234.753	6.58
235.13	8.37
235.508	8.05
235.885	8.02
236.262	8.02
236.639	6.7
237.016	7.43
237.393	6.33
237.77	5.88
238.147	5.93
238.524	4.92
238.901	4.54
239.278	3.08
239.655	1.14
240.032	1.12
240.409	1.5
240.785	1.84
241.162	2.42
241.539	2.19
241.915	2.23
242.292	2.36
242.668	2.59
243.045	2.7
243.421	2.7
243.798	3.31
244.174	3.46
244.551	3.36
244.927	3.25
245.303	3.6
245.679	3.59
246.056	3.48
246.432	3.65
246.808	3.78
247.184	3.93
247.56	4.08
247.936	4.11
248.312	4.4
248.688	4.28
249.064	3.99
249.44	3.66
249.815	3.43
250.191	3.33
250.567	3.34
250.943	3.19
251.318	3.29
251.694	2.9
252.069	3.27
252.445	3.4
252.82	3.69
253.196	3.81
253.571	3.96
253.947	4.15
254.322	3.92
254.697	3.78
255.073	3.52
255.448	3.62
255.823	3.91
256.198	3.34
256.573	3.75
256.948	3.93
257.323	4.2
257.698	4.2
258.073	4.39
258.448	4.38
258.823	4.23
259.198	4.13
259.573	4.34
259.948	3.99
260.322	3.93
260.697	3.77
261.072	3.59
261.446	3.52
261.821	3.33
262.195	3.35
262.57	3.48
262.944	3.6
263.319	3.66
263.693	3.53
264.067	3.65
264.442	3.51
264.816	3.25
265.19	3.2
265.564	3.34
265.938	3.31
266.313	3.18
266.687	3.26
267.061	3.35
267.435	3.05
267.809	3
268.183	3
268.556	3.04
268.93	3.14
269.304	3.15
269.678	3.39
270.051	3.31
270.425	3.17
270.799	3
271.172	3.12
271.546	3.23
271.919	3.23
272.293	3.24
272.666	3.46
273.04	3.42
273.413	3.43
273.787	3.25
274.16	3.32
274.533	3.44
274.906	3.34
275.279	3.3
275.653	3.43
276.026	3.32
276.399	3.37
276.772	3.27
277.145	3.15
277.518	3.11
277.891	3.31
278.263	3.48
278.636	3.83
279.009	3.72
279.382	3.58
279.755	3.54
280.127	3.6
280.5	3.54
280.872	3.49
281.245	3.52
281.617	3.6
281.99	3.69
282.362	3.61
282.735	3.65
283.107	3.64
283.479	3.62
283.852	3.82
284.224	3.75
284.596	3.66
284.968	3.72
285.34	3.6
285.713	3.69
286.085	3.48
286.457	3.25
286.829	3.31
287.201	3.32
287.572	3.52
287.944	3.5
288.316	3.55
288.688	3.65
289.06	3.69
289.431	3.72
289.803	3.81
290.175	3.76
290.546	3.76
290.918	3.78
291.289	3.76
291.661	3.84
292.032	3.91
292.403	4.02
292.775	4.21
293.146	4.16
293.517	3.97
293.889	4.1
294.26	4.28
294.631	4.36
295.002	4.4
295.373	4.35
295.744	4.36
296.115	4.37
296.486	4.44
296.857	4.4
297.228	4.37
297.599	4.25
297.97	4.43
298.34	4.45
298.711	4.65
299.082	4.76
299.452	4.8
299.823	4.81
300.194	4.95
300.564	4.89
300.935	5.1
301.305	5.33
301.676	5.44
302.046	5.51
302.416	5.46
302.787	5.56
303.157	5.64
303.527	5.72
303.897	5.7
304.267	5.82
304.637	5.79
305.008	5.81
305.378	5.85
305.748	5.93
306.117	6.03
306.487	6
306.857	6.13
307.227	6.14
307.597	6.27
307.967	6.22
308.336	6.26
308.706	6.23
309.076	6.24
309.445	6.41
309.815	6.33
310.184	6.48
310.554	6.53
310.923	6.44
311.293	6.44
311.662	6.54
312.031	6.59
312.401	6.74
312.77	6.78
313.139	6.85
313.508	6.85
313.877	6.85
314.246	6.98
314.616	7.03
314.985	6.98
315.353	7.01
315.722	7.13
316.091	7.14
316.46	7.28
316.829	7.37
317.198	7.28
317.567	7.53
317.935	7.63
318.304	7.74
318.672	8
319.041	8.16
319.41	8.23
319.778	8.3
320.147	8.24
320.515	8.41
320.883	8.49
321.252	8.56
321.62	8.56
321.988	8.49
322.357	8.49
322.725	8.73
323.093	8.92
323.461	9.05
323.829	9.12
324.197	9.11
324.565	9.1
324.933	9.14
325.301	9.08
325.669	8.99
326.037	9
326.405	8.93
326.772	8.99
327.14	9.17
327.508	9.19
327.875	9.38
328.243	9.36
328.61	9.33
328.978	9.34
329.346	9.46
329.713	9.66
330.08	9.76
330.448	9.7
330.815	9.53
331.182	9.45
331.55	9.63
331.917	9.56
332.284	9.63
332.651	9.66
333.018	9.73
333.385	9.73
333.752	9.77
334.119	9.79
334.486	9.77
334.853	9.75
335.22	9.61
335.587	9.55
335.954	9.66
336.32	9.76
336.687	9.82
337.054	9.99
337.42	9.9
337.787	9.89
338.153	9.92
338.52	10.06
338.886	10.11
339.253	10.1
339.619	10.28
339.986	10.28
340.352	10.37
340.718	10.38
341.084	10.43
341.451	10.46
341.817	10.48
342.183	10.52
342.549	10.55
342.915	10.77
343.281	10.78
343.647	10.68
344.013	10.77
344.379	10.7
344.745	10.7
345.11	10.64
345.476	10.64
345.842	10.62
346.208	10.63
346.573	10.65
346.939	10.72
347.304	10.71
347.67	10.77
348.035	10.72
348.401	10.7
348.766	10.75
349.132	10.82
349.497	10.9
349.862	10.98
350.228	10.91
350.593	10.87
350.958	10.93
351.323	11.03
351.688	10.99
352.053	11.11
352.418	10.96
352.783	11.04
353.148	11.05
353.513	11.05
353.878	10.98
354.243	10.94
354.608	10.88
354.972	10.83
355.337	10.76
355.702	10.79
356.066	10.84
356.431	10.82
356.795	10.75
357.16	10.69
357.524	10.58
357.889	10.56
358.253	10.47
358.618	10.43
358.982	10.39
359.346	10.33
359.71	10.28
360.075	10.31
360.439	10.27
360.803	10.3
361.167	10.31
361.531	10.31
361.895	10.32
362.259	10.28
362.623	10.26
362.987	10.24
363.351	10.1
363.714	10.04
364.078	10
364.442	9.94
364.806	9.83
365.169	9.78
365.533	9.74
365.896	9.64
366.26	9.56
366.623	9.48
366.987	9.45
367.35	9.42
367.714	9.29
368.077	9.26
368.44	9.13
368.803	9.04
369.167	8.95
369.53	8.87
369.893	8.85
370.256	8.74
370.619	8.64
370.982	8.6
371.345	8.52
371.708	8.4
372.071	8.24
372.434	8.23
372.797	8.21
373.159	8.12
373.522	8.11
373.885	8.09
374.247	8.04
374.61	7.92
374.973	7.77
375.335	7.79
375.698	7.68
376.06	7.66
376.423	7.59
376.785	7.54
377.147	7.45
377.51	7.3
377.872	7.28
378.234	7.22
378.596	7.16
378.958	7.03
379.321	7.01
379.683	7.06
380.045	6.98
380.407	6.86
380.769	6.86
381.13	6.87
381.492	6.8
381.854	6.75
382.216	6.76
382.578	6.73
382.939	6.63
383.301	6.57
383.663	6.46
384.024	6.39
384.386	6.38
384.747	6.33
385.109	6.31
385.47	6.25
385.832	6.22
386.193	6.21
386.554	6.19
386.916	6.15
387.277	6.07
387.638	6.02
387.999	5.97
388.36	5.9
388.721	5.81
389.082	5.75
389.443	5.69
389.804	5.64
390.165	5.58
390.526	5.53
390.887	5.47
391.248	5.46
391.609	5.46
391.969	5.4
392.33	5.39
392.691	5.35
393.051	5.31
393.412	5.27
393.772	5.25
394.133	5.22
394.493	5.16
394.854	5.13
395.214	5.09
395.574	5.09
395.935	5.07
396.295	5
396.655	4.99
397.015	4.98
397.376	4.93
397.736	4.9
398.096	4.9
398.456	4.89
398.816	4.82
399.176	4.75
399.535	4.69
399.895	4.65
400.255	4.64
400.615	4.62
400.975	4.6
401.334	4.58
401.694	4.56
402.054	4.55
402.413	4.5
402.773	4.49
403.132	4.42
403.492	4.38
403.851	4.34
404.211	4.29
404.57	4.27
404.929	4.25
405.288	4.24
405.648	4.21
406.007	4.18
406.366	4.18
406.725	4.2
407.084	4.21
407.443	4.17
407.802	4.11
408.161	4.1
408.52	4.05
408.879	3.99
409.238	3.99
409.596	3.95
409.955	3.95
410.314	3.94
410.673	3.93
411.031	3.93
411.39	3.94
411.748	3.96
412.107	3.91
412.465	3.88
412.824	3.84
413.182	3.79
413.54	3.79
413.899	3.77
414.257	3.73
414.615	3.71
414.974	3.7
415.332	3.71
415.69	3.69
416.048	3.7
416.406	3.68
416.764	3.67
417.122	3.67
417.48	3.67
417.838	3.66
418.195	3.66
418.553	3.63
418.911	3.63
419.269	3.61
419.626	3.6
419.984	3.61
420.342	3.61
420.699	3.63
421.057	3.61
421.414	3.61
421.772	3.59
422.129	3.56
422.486	3.56
422.844	3.54
423.201	3.53
423.558	3.53
423.915	3.54
424.273	3.52
424.63	3.53
424.987	3.53
425.344	3.52
425.701	3.52
426.058	3.51
426.415	3.5
426.772	3.5
427.128	3.5
427.485	3.5
427.842	3.49
428.199	3.47
428.555	3.47
428.912	3.44
429.269	3.43
429.625	3.46
429.982	3.42
430.338	3.44
430.695	3.42
431.051	3.42
431.407	3.4
431.764	3.37
432.12	3.36
432.476	3.33
432.832	3.33
433.189	3.32
433.545	3.35
433.901	3.35
434.257	3.34
434.613	3.32
434.969	3.31
435.325	3.31
435.681	3.3
436.036	3.28
436.392	3.29
436.748	3.31
437.104	3.29
437.459	3.29
437.815	3.29
438.171	3.3
438.526	3.29
438.882	3.3
439.237	3.29
439.593	3.28
439.948	3.29
440.304	3.28
440.659	3.26
441.014	3.23
441.369	3.23
441.725	3.24
442.08	3.25
442.435	3.26
442.79	3.26
443.145	3.27
443.5	3.28
443.855	3.26
444.21	3.26
444.565	3.26
444.92	3.25
445.275	3.25
445.629	3.24
445.984	3.24
446.339	3.22
446.693	3.23
447.048	3.22
447.403	3.21
447.757	3.2
448.112	3.2
448.466	3.2
448.82	3.19
449.175	3.17
449.529	3.15
449.883	3.15
450.238	3.13
450.592	3.12
450.946	3.12
451.3	3.14
451.654	3.12
452.008	3.11
452.362	3.12
452.716	3.12
453.07	3.11
453.424	3.09
453.778	3.1
454.132	3.11
454.486	3.12
454.839	3.12
455.193	3.14
455.547	3.15
455.9	3.14
456.254	3.14
456.607	3.14
456.961	3.14
457.314	3.13
457.668	3.13
458.021	3.12
458.375	3.11
458.728	3.11
459.081	3.11
459.434	3.11
459.787	3.11
460.141	3.11
460.494	3.12
460.847	3.13
461.2	3.14
461.553	3.14
461.906	3.12
462.259	3.11
462.611	3.1
462.964	3.12
463.317	3.14
463.67	3.16
464.022	3.17
464.375	3.17
464.728	3.2
465.08	3.2
465.433	3.23
465.785	3.24
466.138	3.25
466.49	3.26
466.843	3.27
467.195	3.27
467.547	3.26
467.899	3.27
468.252	3.27
468.604	3.27
468.956	3.27
469.308	3.28
469.66	3.29
470.012	3.31
470.364	3.31
470.716	3.3
471.068	3.3
471.42	3.3
471.772	3.31
472.123	3.3
472.475	3.32
472.827	3.32
473.178	3.33
473.53	3.31
473.882	3.32
474.233	3.31
474.585	3.33
474.936	3.31
475.288	3.29
475.639	3.3
475.99	3.31
476.342	3.3
476.693	3.33
477.044	3.33
477.395	3.3
477.746	3.3
478.097	3.29
478.448	3.29
478.8	3.3
479.15	3.29
479.501	3.28
479.852	3.28
480.203	3.29
480.554	3.28
480.905	3.28
481.255	3.29
481.606	3.29
481.957	3.29
482.307	3.3
482.658	3.31
483.009	3.31
483.359	3.31
483.709	3.32
484.06	3.32
484.41	3.32
484.761	3.33
485.111	3.33
485.461	3.34
485.811	3.34
486.162	3.34
486.512	3.35
486.862	3.35
487.212	3.35
487.562	3.35
487.912	3.36
488.262	3.37
488.612	3.37
488.961	3.37
489.311	3.38
489.661	3.38
490.011	3.38
490.36	3.38
490.71	3.39
491.06	3.39
491.409	3.38
491.759	3.38
492.108	3.38
492.458	3.38
492.807	3.4
493.157	3.41
493.506	3.41
493.855	3.41
494.204	3.42
494.554	3.43
494.903	3.43
495.252	3.44
495.601	3.47
495.95	3.49
496.299	3.5
496.648	3.52
496.997	3.53
497.346	3.57
497.695	3.59
498.043	3.62
498.392	3.65
498.741	3.66
499.09	3.69
499.438	3.74
499.787	3.76
500.135	3.76
500.484	3.78
500.832	3.81
501.181	3.83
501.529	3.86
501.878	3.89
502.226	3.94
502.574	3.95
502.923	3.97
503.271	4
503.619	4.05
503.967	4.08
504.315	4.12
504.663	4.13
505.011	4.17
505.359	4.18
505.707	4.2
506.055	4.26
506.403	4.28
506.751	4.31
507.098	4.39
507.446	4.44
507.794	4.49
508.141	4.55
508.489	4.61
508.837	4.66
509.184	4.7
509.531	4.75
509.879	4.8
510.226	4.84
510.574	4.91
510.921	4.96
511.268	5.02
511.616	5.09
511.963	5.17
512.31	5.24
512.657	5.31
513.004	5.36
513.351	5.43
513.698	5.52
514.045	5.59
514.392	5.66
514.739	5.75
515.086	5.86
515.432	5.94
515.779	6.02
516.126	6.11
516.473	6.22
516.819	6.32
517.166	6.44
517.512	6.51
517.859	6.61
518.205	6.68
518.552	6.77
518.898	6.84
519.245	6.93
519.591	7.04
519.937	7.17
520.283	7.31
520.629	7.41
520.976	7.53
521.322	7.67
521.668	7.81
522.014	7.93
522.36	8.04
522.706	8.17
523.052	8.33
523.398	8.5
523.743	8.63
524.089	8.78
524.435	8.94
524.781	9.13
525.126	9.26
525.472	9.4
525.817	9.5
526.163	9.62
526.509	9.72
526.854	9.82
527.199	9.91
527.545	10
527.89	10.09
528.235	10.2
528.581	10.28
528.926	10.36
529.271	10.47
529.616	10.57
529.961	10.67
530.306	10.77
530.651	10.87
530.996	10.99
531.341	11.12
531.686	11.22
532.031	11.31
532.376	11.45
532.721	11.56
533.065	11.7
533.41	11.83
533.755	11.98
534.099	12.1
534.444	12.22
534.788	12.34
535.133	12.49
535.477	12.6
535.822	12.76
536.166	12.94
536.51	13.09
536.855	13.25
537.199	13.45
537.543	13.63
537.887	13.83
538.231	14.01
538.576	14.19
538.92	14.4
539.264	14.59
539.608	14.74
539.951	14.92
540.295	15.07
540.639	15.22
540.983	15.37
541.327	15.56
541.671	15.7
542.014	15.87
542.358	16.02
542.701	16.19
543.045	16.35
543.389	16.49
543.732	16.65
544.075	16.81
544.419	16.97
544.762	17.15
545.105	17.31
545.449	17.5
545.792	17.7
546.135	17.89
546.478	18.11
546.821	18.35
547.165	18.59
547.508	18.85
547.851	19.13
548.194	19.35
548.536	19.6
548.879	19.87
549.222	20.14
549.565	20.44
549.908	20.68
550.25	20.93
550.593	21.23
550.936	21.51
551.278	21.82
551.621	22.07
551.963	22.36
552.306	22.65
552.648	22.94
552.991	23.21
553.333	23.47
553.675	23.76
554.017	24
554.36	24.25
554.702	24.49
555.044	24.7
555.386	24.98
555.728	25.21
556.07	25.47
556.412	25.76
556.754	25.98
557.096	26.31
557.438	26.64
557.78	26.92
558.121	27.25
558.463	27.54
558.805	27.85
559.147	28.14
559.488	28.42
559.83	28.74
560.171	28.99
560.513	29.31
560.854	29.57
561.196	29.93
561.537	30.26
561.878	30.56
562.22	30.91
562.561	31.22
562.902	31.56
563.243	31.83
563.584	32.07
563.925	32.37
564.266	32.66
564.607	32.88
564.948	33.14
565.289	33.39
565.63	33.65
565.971	33.91
566.312	34.17
566.653	34.5
566.993	34.8
567.334	35.14
567.675	35.43
568.015	35.74
568.356	36.01
568.696	36.28
569.037	36.58
569.377	36.83
569.718	37.07
570.058	37.34
570.398	37.67
570.739	37.96
571.079	38.25
571.419	38.47
571.759	38.72
572.099	39
572.439	39.25
572.779	39.54
573.119	39.76
573.459	39.98
573.799	40.17
574.139	40.38
574.479	40.6
574.819	40.8
575.158	40.97
575.498	41.15
575.838	41.35
576.177	41.56
576.517	41.82
576.856	42.08
577.196	42.32
577.535	42.55
577.875	42.76
578.214	42.97
578.553	43.21
578.893	43.44
579.232	43.65
579.571	43.86
579.91	44.02
580.25	44.23
580.589	44.47
580.928	44.68
581.267	44.86
581.606	45.08
581.945	45.3
582.283	45.55
582.622	45.8
582.961	45.99
583.3	46.2
583.639	46.29
583.977	46.44
584.316	46.6
584.654	46.74
584.993	47.01
585.332	47.18
585.67	47.35
586.008	47.53
586.347	47.69
586.685	47.87
587.024	48.02
587.362	48.21
587.7	48.36
588.038	48.47
588.376	48.63
588.715	48.75
589.053	48.91
589.391	49.04
589.729	49.17
590.067	49.26
590.404	49.4
590.742	49.6
591.08	49.81
591.418	49.92
591.756	50.17
592.093	50.25
592.431	50.34
592.769	50.47
593.106	50.6
593.444	50.75
593.781	50.91
594.119	51.07
594.456	51.2
594.793	51.37
595.131	51.55
595.468	51.58
595.805	51.71
596.143	51.74
596.48	51.83
596.817	51.95
597.154	52.12
597.491	52.22
597.828	52.31
598.165	52.36
598.502	52.53
598.839	52.54
599.176	52.66
599.512	52.84
599.849	52.99
600.186	53.14
600.523	53.22
600.859	53.32
601.196	53.42
601.532	53.57
601.869	53.58
602.205	53.69
602.542	53.85
602.878	53.88
603.215	54.01
603.551	54.06
603.887	54.09
604.223	54.14
604.56	54.24
604.896	54.38
605.232	54.5
605.568	54.53
605.904	54.57
606.24	54.68
606.576	54.77
606.912	54.8
607.248	54.86
607.583	54.95
607.919	54.99
608.255	55.07
608.591	55.2
608.926	55.37
609.262	55.37
609.597	55.45
609.933	55.59
610.268	55.67
610.604	55.8
610.939	55.88
611.275	55.93
611.61	56.03
611.945	56.06
612.281	56.02
612.616	56.18
612.951	56.27
613.286	56.33
613.621	56.38
613.956	56.44
614.291	56.54
614.626	56.63
614.961	56.67
615.296	56.79
615.631	56.72
615.966	56.75
616.3	56.9
616.635	56.96
616.97	56.97
617.304	56.99
617.639	56.98
617.973	56.99
618.308	57.09
618.642	57.02
618.977	56.98
619.311	57.11
619.646	57.07
619.98	57.21
620.314	57.22
620.648	57.35
620.983	57.4
621.317	57.46
621.651	57.48
621.985	57.53
622.319	57.49
622.653	57.54
622.987	57.52
623.321	57.52
623.655	57.62
623.988	57.65
624.322	57.69
624.656	57.71
624.99	57.81
625.323	57.87
625.657	57.93
625.99	57.99
626.324	57.98
626.657	57.97
626.991	57.93
627.324	57.84
627.658	57.77
627.991	57.82
628.324	57.8
628.657	57.8
628.991	57.81
629.324	57.91
629.657	58.01
629.99	58.14
630.323	58.16
630.656	58.15
630.989	58.18
631.322	58.24
631.655	58.3
631.987	58.37
632.32	58.32
632.653	58.35
632.986	58.36
633.318	58.44
633.651	58.56
633.984	58.61
634.316	58.72
634.649	58.84
634.981	58.87
635.313	58.95
635.646	59.02
635.978	59.16
636.31	59.15
636.643	59.16
636.975	59.02
637.307	59
637.639	59.02
637.971	59.01
638.303	59.02
638.635	58.96
638.967	58.93
639.299	58.97
639.631	58.91
639.963	58.99
640.295	59.03
640.626	59.04
640.958	59.05
641.29	59.17
641.621	59.12
641.953	59.13
642.285	59.11
642.616	59.14
642.948	59.28
643.279	59.23
643.61	59.26
643.942	59.36
644.273	59.38
644.604	59.35
644.936	59.33
645.267	59.35
645.598	59.46
645.929	59.46
646.26	59.37
646.591	59.66
646.922	59.61
647.253	59.62
647.584	59.62
647.915	59.63
648.245	59.48
648.576	59.49
648.907	59.51
649.238	59.53
649.568	59.48
649.899	59.32
650.229	59.33
650.56	59.22
650.89	59.31
651.221	59.35
651.551	59.44
651.882	59.49
652.212	59.55
652.542	59.53
652.872	59.54
653.203	59.68
653.533	59.51
653.863	59.56
654.193	59.51
654.523	59.44
654.853	59.43
655.183	59.52
655.513	59.54
655.843	59.52
656.172	59.64
656.502	59.77
656.832	59.89
657.162	59.96
657.491	60.07
657.821	60.02
658.15	60.05
658.48	60.02
658.809	60.08
659.139	60.09
659.468	60.05
659.798	60.15
660.127	60.12
660.456	60.24
660.785	60.3
661.115	60.28
661.444	60.36
661.773	60.33
662.102	60.35
662.431	60.31
662.76	60.34
663.089	60.28
663.418	60.16
663.747	60.01
664.076	59.96
664.404	59.85
664.733	59.81
665.062	59.77
665.39	59.79
665.719	59.76
666.048	59.61
666.376	59.74
666.705	59.71
667.033	59.66
667.362	59.54
667.69	59.54
668.018	59.63
668.347	59.74
668.675	59.79
669.003	59.73
669.331	59.84
669.659	59.82
669.987	59.76
670.315	59.88
670.643	59.92
670.971	59.88
671.299	59.85
671.627	59.94
671.955	59.92
672.283	59.95
672.61	59.96
672.938	59.89
673.266	60.02
673.593	60.14
673.921	60.21
674.249	60.26
674.576	60.18
674.904	60.23
675.231	60.05
675.558	60.17
675.886	60.19
676.213	60.1
676.54	60.25
676.867	60.18
677.195	60.22
677.522	60.23
677.849	60.4
678.176	60.55
678.503	60.53
678.83	60.66
679.157	60.73
679.484	60.75
679.81	60.92
680.137	60.9
680.464	60.95
680.791	60.97
681.117	60.88
681.444	60.92
681.771	60.92
682.097	60.95
682.424	60.88
682.75	60.92
683.077	61.02
683.403	60.99
683.729	61.06
684.056	60.84
684.382	60.78
684.708	60.76
685.034	60.74
685.36	60.86
685.686	60.73
686.012	60.61
686.339	60.55
686.664	60.59
686.99	60.39
687.316	60.24
687.642	60.18
687.968	60.34
688.294	60.29
688.619	60.27
688.945	60.29
689.271	60.36
689.596	60.21
689.922	60.29
690.247	60.21
690.573	60.36
690.898	60.47
691.224	60.55
691.549	60.58
691.874	60.63
692.2	60.61
692.525	60.82
692.85	60.86
693.175	60.99
693.5	61.09
693.825	61.16
694.15	61.02
694.475	60.99
694.8	60.96
695.125	61.07
695.45	61.11
695.775	61.17
696.099	61.21
696.424	61.32
696.749	61.13
697.073	61.06
697.398	61.09
697.723	61.12
698.047	61.08
698.372	61.03
698.696	60.98
699.02	60.82
699.345	60.68
699.669	60.73
699.993	60.74
700.318	60.61
700.642	60.67
700.966	60.82
701.29	60.89
701.614	60.83
701.938	60.74
702.262	60.69
702.586	60.71
702.91	60.71
703.234	60.64
703.557	60.7
703.881	60.8
704.205	60.81
704.529	60.89
704.852	61.07
705.176	60.95
705.499	60.89
705.823	61.12
706.146	61.21
706.47	61.17
706.793	61
707.117	61
707.44	61.02
707.763	61.03
708.086	61.04
708.409	61.14
708.733	61.04
709.056	60.92
709.379	60.64
709.702	60.52
710.025	60.5
710.348	60.59
710.671	60.45
710.993	60.28
711.316	60.25
711.639	60.09
711.962	60.09
712.284	60.1
712.607	60.08
712.93	60.07
713.252	60.02
713.575	60.1
713.897	60.15
714.22	60.11
714.542	60.11
714.864	60.15
715.187	60.15
715.509	60.37
715.831	60.58
716.153	60.93
716.475	61.13
716.798	61.2
717.12	61.04
717.442	61.26
717.764	61.39
718.085	61.47
718.407	61.6
718.729	61.72
719.051	61.71
719.373	61.67
719.695	61.65
720.016	61.64
720.338	61.88
720.659	62
720.981	62.02
721.302	61.96
721.624	62.05
721.945	62.05
722.267	61.98
722.588	61.82
722.909	61.7
723.231	61.18
723.552	61.2
723.873	61.28
724.194	61.29
724.515	61.29
724.836	61.06
725.157	61.08
725.478	61.12
725.799	61.23
726.12	61.35
726.441	61.33
726.762	61.28
727.083	61.01
727.403	61.03
727.724	61.08
728.045	61.07
728.365	60.95
728.686	60.97
729.006	61.17
729.327	61.17
729.647	61.06
729.967	61.36
730.288	61.47
730.608	61.55
730.928	61.32
731.249	61.32
731.569	61.23
731.889	61.11
732.209	61.07
732.529	60.93
732.849	60.87
733.169	60.99
733.489	60.97
733.809	61.15
734.129	61.07
734.448	60.95
734.768	60.93
735.088	61.1
735.408	60.88
735.727	60.57
736.047	60.54
736.366	60.57
736.686	60.52
737.005	60.39
737.325	60.2
737.644	60.17
737.963	60.15
738.283	60.17
738.602	60.27
738.921	60.6
739.24	60.67
739.56	60.41
739.879	60.4
740.198	60.47
740.517	60.43
740.836	60.35
741.155	60.36
741.473	60.41
741.792	60.25
742.111	60.68
742.43	61
742.748	61.08
743.067	61.25
743.386	61.03
743.704	61.1
744.023	61.23
744.341	61.64
744.66	61.56
744.978	61.68
745.297	61.67
745.615	61.38
745.933	61.41
746.252	61.7
746.57	61.55
746.888	61.9
747.206	61.84
747.524	62
747.842	61.76
748.16	61.67
748.478	61.69
748.796	61.38
749.114	61.05
749.432	60.84
749.749	60.93
750.067	61.17
750.385	61.2
750.703	61.06
751.02	60.74
751.338	60.78
751.655	60.78
751.973	60.79
752.29	60.59
752.608	60.43
752.925	60.34
753.242	60.6
753.56	59.92
753.877	59.85
754.194	59.53
754.511	59.77
754.828	59.97
755.145	60.2
755.462	60.59
755.779	60.5
756.096	60.89
756.413	60.69
756.73	60.83
757.047	60.68
757.364	60.85
757.68	60.59
757.997	60.31
758.314	60.54
758.63	60.56
758.947	60.7
759.264	60.92
759.58	60.93
759.896	60.7
760.213	60.81
760.529	60.93
760.846	61.14
761.162	61.42
761.478	61.27
761.794	61
762.11	60.92
762.426	61.01
762.743	60.86
763.059	61.24
763.375	61.1
763.69	61.04
764.006	61.05
764.322	61.16
764.638	61.29
764.954	61.23
765.27	61.13
765.585	61.08
765.901	61.13
766.216	61.16
766.532	61.2
766.848	61.37
767.163	61.53
767.478	61.52
767.794	61.34
768.109	61.47
768.424	61.41
768.74	61.35
769.055	61.42
769.37	61.5
769.685	61.17
770	61.29
770.315	61.38
770.63	61.3
770.945	61.42
771.26	61.43
771.575	61.29
771.89	61.41
772.205	61.42
772.52	60.97
772.834	60.75
773.149	60.82
773.464	60.65
773.778	60.46
774.093	60.64
774.407	60.37
774.722	60.22
775.036	60.72
775.351	60.6
775.665	60.19
775.979	59.98
776.293	59.62
776.608	59.07
776.922	59.18
777.236	59.68
777.55	60.03
777.864	59.98
778.178	59.73
778.492	59.76
778.806	60.01
779.12	60.14
779.434	60.01
779.747	59.7
780.061	59.71
780.375	59.64
780.689	59.1
781.002	59.47
781.316	60.12
781.629	59.77
781.943	59.65
782.256	60.09
782.57	60.25
782.883	60.54
783.196	60.64
783.51	60.57
783.823	59.98
784.136	59.72
784.449	60.07
784.762	60.43
785.075	60.61
785.388	60.64
785.701	60.88
786.014	61.64
786.327	61.31
786.64	61.39
786.953	61.75
787.266	62.36
787.578	62.38
787.891	61.81
788.204	61.77
788.516	62.16
788.829	62.02
789.141	62.16
789.454	62.47
789.766	63.48
790.079	63.49
790.391	63.52
790.703	63.56
791.016	63.51
791.328	64.06
791.64	63.31
791.952	63.53
792.264	63.52
792.576	62.99
792.888	63.64
793.2	63.66
793.512	63.42
793.824	62.97
794.136	63
794.448	62.48
794.76	62.26
795.071	61.98
795.383	62.04
795.695	61.69
796.006	61.09
796.318	61
796.629	61
796.941	61.28
797.252	61.69
797.564	61.16
797.875	60.61
798.186	60.86
798.497	60.13
798.809	60.11
799.12	60.48
799.431	60.82
799.742	61.32
800.053	60.89
800.364	61.35
800.675	61.26
800.986	61.92
801.297	61.67
801.608	61.31
801.918	60.93
802.229	61.52
802.54	62.05
802.851	61.58
803.161	61.9
803.472	61.81
803.782	61.22
804.093	61.34
804.403	61.39
804.714	61.78
805.024	62.58
805.334	62.12
805.645	61.84
805.955	62.12
806.265	61.82
806.575	61.73
806.885	61.25
807.195	60.97
807.505	60.43
807.815	61.16
808.125	61.53
808.435	62.07
808.745	61.75
809.055	61.07
809.365	60.83
809.674	61.04
809.984	61.15
810.294	60.89
810.603	60.98
810.913	60.34
811.222	60.02
811.532	58.79
811.841	60.11
812.151	60.05
812.46	59.02
812.769	58.75
813.079	59.22
813.388	59.68
813.697	60.2
814.006	60.35
814.315	59.05
814.624	59.18
814.933	59
815.242	59.26
815.551	59.44
815.86	60.17
816.169	58.93
816.478	58.66
816.786	59.08
817.095	58.94
817.404	59.7
817.712	60.75
818.021	61.23
818.33	60.14
818.638	60.53
818.947	60.76
819.255	61.22
819.563	60.9
819.872	60.71
820.18	60.46
820.488	61.01
820.796	61.71
821.105	61.53
821.413	61.55
821.721	61.41
822.029	61.61
822.337	61.48
822.645	61.78
822.953	61.88
823.26	61.83
823.568	62
823.876	62.18
824.184	62.07
824.491	62.29
824.799	62.36
825.107	62.2
825.414	62.21
825.722	62.11
826.029	62.34
826.337	62.37
826.644	62.57
826.951	62.51
827.259	62.55
827.566	62.86
827.873	63.1
828.18	63.23
828.488	63.05
828.795	63.18
829.102	63.49
829.409	63.64
829.716	63.67
830.023	63.63
830.329	63.24
830.636	63.22
830.943	62.91
831.25	63.15
831.557	63.49
831.863	63.76
832.17	63.84
832.476	63.38
832.783	63.95
833.089	63.48
833.396	63.39
833.702	63.13
834.009	62.7
834.315	62.37
834.621	62.55
834.928	63.07
835.234	62.72
835.54	62.3
835.846	62.05
836.152	61.88
836.458	62.05
836.764	62.22
837.07	61.96
837.376	61.99
837.682	62.06
837.988	62.29
838.293	62.06
838.599	62.35
838.905	62.5
839.211	61.85
839.516	62.31
839.822	62.14
840.127	62.02
840.433	62.71
840.738	62.68
841.044	61.98
841.349	60.89
841.654	60.88
841.959	60.56
842.265	61.23
842.57	62.21
842.875	62.62
843.18	62.69
843.485	62
843.79	62.85
844.095	62.58
844.4	61.8
844.705	61.89
845.01	62.04
845.315	63.07
845.619	64.57
845.924	64.27
846.229	63.21
846.533	62.65
846.838	61.7
847.142	60.41
847.447	61.33
847.751	61.76
848.056	62.2
848.36	60.68
848.664	58.71
848.969	58.89
849.273	56.53
849.577	56.34
849.881	59.07
850.185	57.08
850.489	57.63
850.794	57.91
851.097	58.55
851.401	57.57
851.705	57.55
852.009	55.14
852.313	54.9
852.617	54.89
852.92	54.6
853.224	54.7
853.528	54.34
853.831	52.94
854.135	53.47
854.438	54.09
854.742	57.18
855.045	58.39
855.349	57.15
855.652	59.18
855.955	59.72
856.259	57.73
856.562	58.37
856.865	58.72
857.168	60.04
857.471	60.28
857.774	60.45
858.077	59.25
858.38	59.54
858.683	58.52
858.986	60.2
859.289	60.92
859.592	59.73
859.894	61.51
860.197	63.36
860.5	63.3
860.802	64.23
861.105	64.68
861.407	63.1
861.71	63.48
862.012	61.51
862.315	61.62
862.617	63.77
862.919	61.81
863.222	58.77
863.524	58.48
863.826	59.03
864.128	59.54
864.43	61.54
864.732	60.11
865.034	62.44
865.336	60.85
865.638	60.99
865.94	61.76
866.242	62.66
866.544	63.19
866.846	62.49
867.147	62.1
867.449	60.92
867.751	60.73
868.052	61.28
868.354	63.8
868.655	61.67
868.957	60.09
869.258	61.69
869.56	62.4
869.861	60.49
870.162	60.5
870.463	60.06
870.765	58.81
871.066	58.87
871.367	56.81
871.668	55.58
871.969	56.49
872.27	58.92
872.571	58.48
872.872	55.58
873.173	56.52
873.473	56.25
873.774	55.75
874.075	58.99
874.376	56.95
874.676	55.58
874.977	56.53
875.277	57.95
875.578	57.95
875.878	59.42
876.179	60.09
876.479	58.24
876.78	57.49
877.08	56.71
877.38	58.46
877.68	60.83
877.981	64.85
878.281	64.06
878.581	60.47
