Data from BU58002_Reflection_00002.txt Node
Date: Tue Nov 19 10:57:35 EST 2019
User: vgr7
Spectrometer: USB2G7710
Scans to average: 3
Trigger mode: 4
Integration Time (sec): 2.000000E-2
Electric dark correction enabled: true
Boxcar width: 10
XAxis mode: Wavelengths
Number of Pixels in Spectrum: 2048
>>>>>Begin Spectral Data<<<<<
177.721	-28.18
178.105	9.93
178.488	-13.52
178.871	-122.73
179.254	-34.62
179.636	21.83
180.019	117.59
180.402	200
180.785	112.5
181.168	-105.88
181.55	8.65
181.933	28.18
182.316	61
182.698	35.75
183.081	38.01
183.463	92.13
183.846	104.29
184.228	194.26
184.611	212.36
184.993	68.18
185.376	-10.86
185.758	82.76
186.14	173.08
186.522	129.66
186.904	-300
187.287	-426.32
187.669	352.94
188.051	205.99
188.433	-616.98
188.815	1296.43
189.197	243.88
189.579	126.64
189.961	47.23
190.342	43.46
190.724	44.88
191.106	44.73
191.488	53.37
191.869	64.89
192.251	63.82
192.633	54.69
193.014	44.33
193.396	24.32
193.777	29.2
194.159	6.68
194.54	9.96
194.922	1.2
195.303	-0
195.684	-21.52
196.065	-41.49
196.447	-19.87
196.828	-10.87
197.209	-7.77
197.59	2.39
197.971	2.13
198.352	-3.28
198.733	-11.33
199.114	-2.22
199.495	-3.42
199.876	-12.65
200.257	-13.97
200.638	-21.91
201.018	-23.1
201.399	9.61
201.78	8.73
202.16	8.52
202.541	4.87
202.922	2.79
203.302	7.6
203.683	19.8
204.063	17.57
204.444	12.93
204.824	8.9
205.204	8.09
205.585	3.71
205.965	1.26
206.345	5.86
206.725	20.72
207.106	21
207.486	29.07
207.866	34.12
208.246	40.26
208.626	52.09
209.006	34.49
209.386	21.01
209.766	30.4
210.145	29.68
210.525	28.85
210.905	42.39
211.285	52.42
211.664	51.22
212.044	63.55
212.424	76.64
212.803	79.44
213.183	78.81
213.562	75
213.942	71.35
214.321	63.61
214.701	53.02
215.08	50.08
215.459	49.22
215.838	36.63
216.218	26.58
216.597	29.21
216.976	33.39
217.355	25.94
217.734	7.81
218.113	12.84
218.492	26.86
218.871	6
219.25	-9.29
219.629	-34
220.008	-28.19
220.387	-56.71
220.766	-56.88
221.144	-43.08
221.523	-67.62
221.902	-46.18
222.28	-30.99
222.659	-11.6
223.037	-11.68
223.416	-23.44
223.794	-6.17
224.173	-13.16
224.551	-10.72
224.929	-5.37
225.308	-2.79
225.686	1.52
226.064	0.86
226.442	-1.56
226.821	-2.24
227.199	-1.41
227.577	0.14
227.955	-0.98
228.333	-1.61
228.711	2.33
229.089	0.41
229.467	2.27
229.845	-0.11
230.222	-2.03
230.6	-2.53
230.978	-1.99
231.356	-1.31
231.733	-1.16
232.111	2.81
232.488	2.13
232.866	-0.32
233.243	0.66
233.621	-0.12
233.998	0.57
234.376	1.82
234.753	2.99
235.13	2.72
235.508	4.03
235.885	3.12
236.262	3.14
236.639	1.58
237.016	1.67
237.393	2.96
237.77	4.03
238.147	5.8
238.524	6.13
238.901	5.18
239.278	4.97
239.655	4.45
240.032	3.82
240.409	4.12
240.785	4.35
241.162	4.4
241.539	4.1
241.915	4.08
242.292	4.66
242.668	4.94
243.045	4.94
243.421	5.06
243.798	5.21
244.174	5.35
244.551	5.28
244.927	5.37
245.303	4.96
245.679	4.96
246.056	4.64
246.432	4.31
246.808	4.52
247.184	4.71
247.56	4.66
247.936	4.92
248.312	4.78
248.688	4.93
249.064	5.04
249.44	5.02
249.815	5.05
250.191	4.82
250.567	4.66
250.943	4.53
251.318	4.19
251.694	4
252.069	4.05
252.445	4.21
252.82	4.32
253.196	4.42
253.571	4.41
253.947	4.55
254.322	4.75
254.697	4.62
255.073	4.62
255.448	4.68
255.823	4.43
256.198	4.35
256.573	4.3
256.948	4.22
257.323	4.34
257.698	4.25
258.073	4.2
258.448	4.34
258.823	4.38
259.198	4.52
259.573	4.55
259.948	4.45
260.322	4.31
260.697	4.21
261.072	4.24
261.446	4.27
261.821	4.15
262.195	4.22
262.57	4.31
262.944	4.17
263.319	4.22
263.693	4.23
264.067	4.19
264.442	4.22
264.816	4.14
265.19	4.16
265.564	4.17
265.938	4.23
266.313	3.93
266.687	3.86
267.061	3.82
267.435	3.87
267.809	3.73
268.183	3.68
268.556	3.63
268.93	3.7
269.304	3.46
269.678	3.48
270.051	3.39
270.425	3.4
270.799	3.43
271.172	3.52
271.546	3.62
271.919	3.67
272.293	3.62
272.666	3.68
273.04	3.7
273.413	3.62
273.787	3.52
274.16	3.63
274.533	3.78
274.906	3.72
275.279	3.6
275.653	3.66
276.026	3.64
276.399	3.6
276.772	3.49
277.145	3.51
277.518	3.47
277.891	3.5
278.263	3.41
278.636	3.49
279.009	3.29
279.382	3.26
279.755	3.34
280.127	3.34
280.5	3.29
280.872	3.29
281.245	3.32
281.617	3.38
281.99	3.32
282.362	3.24
282.735	3.17
283.107	3.26
283.479	3.42
283.852	3.33
284.224	3.43
284.596	3.44
284.968	3.55
285.34	3.54
285.713	3.67
286.085	3.53
286.457	3.55
286.829	3.56
287.201	3.59
287.572	3.53
287.944	3.54
288.316	3.53
288.688	3.51
289.06	3.58
289.431	3.59
289.803	3.58
290.175	3.59
290.546	3.71
290.918	3.68
291.289	3.49
291.661	3.61
292.032	3.63
292.403	3.63
292.775	3.69
293.146	3.81
293.517	3.53
293.889	3.65
294.26	3.56
294.631	3.61
295.002	3.49
295.373	3.51
295.744	3.47
296.115	3.51
296.486	3.65
296.857	3.61
297.228	3.56
297.599	3.59
297.97	3.69
298.34	3.7
298.711	3.66
299.082	3.74
299.452	3.79
299.823	3.73
300.194	3.82
300.564	3.81
300.935	3.93
301.305	4.11
301.676	4.06
302.046	4.13
302.416	4.16
302.787	4.18
303.157	4.25
303.527	4.42
303.897	4.34
304.267	4.22
304.637	4.17
305.008	4.16
305.378	4.11
305.748	4
306.117	3.84
306.487	4.04
306.857	4.03
307.227	4.17
307.597	4.16
307.967	4.05
308.336	3.97
308.706	3.87
309.076	4
309.445	4.17
309.815	4.18
310.184	4.12
310.554	4.21
310.923	4.15
311.293	4.08
311.662	4.12
312.031	4.04
312.401	3.99
312.77	4.03
313.139	4.11
313.508	4.03
313.877	4.14
314.246	4.11
314.616	4.2
314.985	4.05
315.353	4.09
315.722	4.2
316.091	4.28
316.46	4.22
316.829	4.06
317.198	3.96
317.567	4.01
317.935	4.05
318.304	4.05
318.672	4.05
319.041	4.1
319.41	4.18
319.778	4.35
320.147	4.36
320.515	4.25
320.883	4.23
321.252	4.35
321.62	4.4
321.988	4.22
322.357	4.16
322.725	4.08
323.093	3.95
323.461	3.98
323.829	3.89
324.197	3.99
324.565	4.02
324.933	3.99
325.301	3.78
325.669	3.79
326.037	3.77
326.405	3.73
326.772	3.71
327.14	3.63
327.508	3.62
327.875	3.52
328.243	3.49
328.61	3.46
328.978	3.42
329.346	3.32
329.713	3.43
330.08	3.53
330.448	3.64
330.815	3.64
331.182	3.57
331.55	3.63
331.917	3.54
332.284	3.52
332.651	3.49
333.018	3.62
333.385	3.52
333.752	3.48
334.119	3.53
334.486	3.58
334.853	3.58
335.22	3.42
335.587	3.46
335.954	3.53
336.32	3.7
336.687	3.62
337.054	3.68
337.42	3.77
337.787	3.66
338.153	3.7
338.52	3.89
338.886	3.89
339.253	3.86
339.619	3.88
339.986	3.83
340.352	3.94
340.718	4.04
341.084	4.16
341.451	4.22
341.817	4.2
342.183	4.14
342.549	4.21
342.915	4.31
343.281	4.39
343.647	4.48
344.013	4.35
344.379	4.31
344.745	4.32
345.11	4.24
345.476	4.3
345.842	4.27
346.208	4.28
346.573	4.29
346.939	4.3
347.304	4.3
347.67	4.17
348.035	4.16
348.401	4.06
348.766	4.02
349.132	4.04
349.497	4.09
349.862	4.03
350.228	3.94
350.593	3.92
350.958	3.99
351.323	3.94
351.688	3.99
352.053	4.11
352.418	4.1
352.783	4.11
353.148	4.04
353.513	4.01
353.878	3.88
354.243	3.76
354.608	3.83
354.972	3.83
355.337	3.98
355.702	3.91
356.066	3.88
356.431	3.91
356.795	3.84
357.16	3.83
357.524	3.86
357.889	3.93
358.253	3.86
358.618	3.77
358.982	3.8
359.346	3.82
359.71	3.83
360.075	3.84
360.439	3.76
360.803	3.83
361.167	3.79
361.531	3.79
361.895	3.89
362.259	3.89
362.623	3.9
362.987	3.89
363.351	3.93
363.714	3.96
364.078	3.99
364.442	4.03
364.806	4.03
365.169	4.03
365.533	4.02
365.896	4.08
366.26	4.07
366.623	4.06
366.987	4.05
367.35	4.05
367.714	4.1
368.077	4.15
368.44	4.09
368.803	4.12
369.167	4.17
369.53	4.05
369.893	3.97
370.256	3.98
370.619	3.97
370.982	3.96
371.345	4
371.708	3.96
372.071	3.94
372.434	3.97
372.797	4
373.159	3.95
373.522	3.96
373.885	3.99
374.247	3.98
374.61	3.93
374.973	3.9
375.335	3.86
375.698	3.79
376.06	3.77
376.423	3.78
376.785	3.85
377.147	3.93
377.51	3.95
377.872	3.95
378.234	3.94
378.596	3.94
378.958	3.92
379.321	3.93
379.683	3.98
380.045	3.94
380.407	3.92
380.769	3.96
381.13	3.96
381.492	3.96
381.854	3.98
382.216	4
382.578	4.04
382.939	4.04
383.301	4.05
383.663	4.05
384.024	4.06
384.386	3.96
384.747	3.89
385.109	3.89
385.47	3.92
385.832	3.87
386.193	3.84
386.554	3.8
386.916	3.76
387.277	3.72
387.638	3.71
387.999	3.66
388.36	3.67
388.721	3.69
389.082	3.72
389.443	3.74
389.804	3.74
390.165	3.71
390.526	3.75
390.887	3.8
391.248	3.8
391.609	3.82
391.969	3.84
392.33	3.88
392.691	3.9
393.051	3.83
393.412	3.89
393.772	3.92
394.133	3.95
394.493	3.97
394.854	3.95
395.214	3.96
395.574	4.01
395.935	4
396.295	3.98
396.655	3.96
397.015	3.95
397.376	3.97
397.736	3.95
398.096	3.91
398.456	3.89
398.816	3.89
399.176	3.84
399.535	3.83
399.895	3.79
400.255	3.76
400.615	3.78
400.975	3.75
401.334	3.74
401.694	3.71
402.054	3.7
402.413	3.73
402.773	3.71
403.132	3.68
403.492	3.65
403.851	3.62
404.211	3.59
404.57	3.55
404.929	3.53
405.288	3.52
405.648	3.56
406.007	3.56
406.366	3.57
406.725	3.6
407.084	3.61
407.443	3.63
407.802	3.65
408.161	3.67
408.52	3.67
408.879	3.66
409.238	3.67
409.596	3.66
409.955	3.67
410.314	3.7
410.673	3.71
411.031	3.73
411.39	3.74
411.748	3.75
412.107	3.76
412.465	3.76
412.824	3.77
413.182	3.75
413.54	3.77
413.899	3.75
414.257	3.75
414.615	3.73
414.974	3.7
415.332	3.68
415.69	3.66
416.048	3.68
416.406	3.67
416.764	3.66
417.122	3.68
417.48	3.67
417.838	3.67
418.195	3.65
418.553	3.66
418.911	3.67
419.269	3.66
419.626	3.67
419.984	3.66
420.342	3.66
420.699	3.64
421.057	3.63
421.414	3.62
421.772	3.62
422.129	3.62
422.486	3.62
422.844	3.61
423.201	3.61
423.558	3.6
423.915	3.6
424.273	3.59
424.63	3.59
424.987	3.59
425.344	3.58
425.701	3.58
426.058	3.57
426.415	3.57
426.772	3.58
427.128	3.58
427.485	3.58
427.842	3.57
428.199	3.58
428.555	3.56
428.912	3.54
429.269	3.53
429.625	3.54
429.982	3.56
430.338	3.56
430.695	3.56
431.051	3.57
431.407	3.59
431.764	3.6
432.12	3.58
432.476	3.58
432.832	3.58
433.189	3.59
433.545	3.59
433.901	3.58
434.257	3.58
434.613	3.56
434.969	3.56
435.325	3.55
435.681	3.55
436.036	3.56
436.392	3.57
436.748	3.55
437.104	3.54
437.459	3.52
437.815	3.54
438.171	3.54
438.526	3.54
438.882	3.53
439.237	3.53
439.593	3.55
439.948	3.54
440.304	3.53
440.659	3.54
441.014	3.53
441.369	3.54
441.725	3.52
442.08	3.52
442.435	3.53
442.79	3.53
443.145	3.53
443.5	3.53
443.855	3.53
444.21	3.55
444.565	3.56
444.92	3.56
445.275	3.54
445.629	3.53
445.984	3.54
446.339	3.53
446.693	3.53
447.048	3.51
447.403	3.51
447.757	3.51
448.112	3.49
448.466	3.49
448.82	3.47
449.175	3.48
449.529	3.49
449.883	3.49
450.238	3.5
450.592	3.5
450.946	3.49
451.3	3.49
451.654	3.47
452.008	3.46
452.362	3.47
452.716	3.47
453.07	3.47
453.424	3.46
453.778	3.46
454.132	3.43
454.486	3.44
454.839	3.43
455.193	3.44
455.547	3.45
455.9	3.47
456.254	3.48
456.607	3.48
456.961	3.49
457.314	3.49
457.668	3.48
458.021	3.49
458.375	3.48
458.728	3.5
459.081	3.51
459.434	3.51
459.787	3.53
460.141	3.55
460.494	3.55
460.847	3.52
461.2	3.52
461.553	3.54
461.906	3.52
462.259	3.53
462.611	3.52
462.964	3.54
463.317	3.54
463.67	3.55
464.022	3.55
464.375	3.54
464.728	3.53
465.08	3.52
465.433	3.54
465.785	3.56
466.138	3.53
466.49	3.54
466.843	3.55
467.195	3.54
467.547	3.53
467.899	3.55
468.252	3.58
468.604	3.6
468.956	3.6
469.308	3.6
469.66	3.62
470.012	3.62
470.364	3.6
470.716	3.58
471.068	3.57
471.42	3.57
471.772	3.56
472.123	3.59
472.475	3.6
472.827	3.59
473.178	3.59
473.53	3.62
473.882	3.61
474.233	3.6
474.585	3.6
474.936	3.6
475.288	3.58
475.639	3.56
475.99	3.56
476.342	3.56
476.693	3.57
477.044	3.56
477.395	3.57
477.746	3.58
478.097	3.6
478.448	3.59
478.8	3.58
479.15	3.6
479.501	3.59
479.852	3.6
480.203	3.6
480.554	3.62
480.905	3.61
481.255	3.61
481.606	3.62
481.957	3.63
482.307	3.63
482.658	3.64
483.009	3.65
483.359	3.65
483.709	3.66
484.06	3.67
484.41	3.67
484.761	3.68
485.111	3.67
485.461	3.66
485.811	3.66
486.162	3.67
486.512	3.66
486.862	3.67
487.212	3.67
487.562	3.66
487.912	3.65
488.262	3.65
488.612	3.65
488.961	3.65
489.311	3.66
489.661	3.66
490.011	3.65
490.36	3.64
490.71	3.64
491.06	3.64
491.409	3.63
491.759	3.63
492.108	3.63
492.458	3.63
492.807	3.66
493.157	3.65
493.506	3.66
493.855	3.65
494.204	3.63
494.554	3.63
494.903	3.65
495.252	3.66
495.601	3.67
495.95	3.68
496.299	3.68
496.648	3.69
496.997	3.69
497.346	3.72
497.695	3.74
498.043	3.72
498.392	3.72
498.741	3.74
499.09	3.74
499.438	3.77
499.787	3.77
500.135	3.75
500.484	3.77
500.832	3.78
501.181	3.8
501.529	3.84
501.878	3.85
502.226	3.83
502.574	3.83
502.923	3.84
503.271	3.84
503.619	3.86
503.967	3.85
504.315	3.87
504.663	3.86
505.011	3.87
505.359	3.88
505.707	3.9
506.055	3.9
506.403	3.9
506.751	3.9
507.098	3.9
507.446	3.92
507.794	3.93
508.141	3.94
508.489	3.95
508.837	3.95
509.184	3.95
509.531	3.96
509.879	3.96
510.226	3.97
510.574	3.97
510.921	3.96
511.268	3.99
511.616	3.98
511.963	3.99
512.31	3.98
512.657	3.98
513.004	3.97
513.351	3.97
513.698	3.97
514.045	3.97
514.392	3.99
514.739	4
515.086	3.97
515.432	3.99
515.779	3.98
516.126	3.99
516.473	3.98
516.819	3.99
517.166	4.01
517.512	4
517.859	4.01
518.205	4.02
518.552	4.02
518.898	4.03
519.245	4.03
519.591	4.04
519.937	4.04
520.283	4.05
520.629	4.03
520.976	4.03
521.322	4.03
521.668	4.01
522.014	4.02
522.36	4.04
522.706	4.02
523.052	4.03
523.398	4.03
523.743	4.03
524.089	4.04
524.435	4.03
524.781	4.01
525.126	4
525.472	3.99
525.817	3.99
526.163	3.99
526.509	4
526.854	4.02
527.199	4.02
527.545	4.02
527.89	4.04
528.235	4.04
528.581	4.05
528.926	4.05
529.271	4.05
529.616	4.07
529.961	4.07
530.306	4.09
530.651	4.08
530.996	4.1
531.341	4.1
531.686	4.12
532.031	4.15
532.376	4.16
532.721	4.17
533.065	4.18
533.41	4.19
533.755	4.19
534.099	4.2
534.444	4.21
534.788	4.21
535.133	4.21
535.477	4.22
535.822	4.23
536.166	4.23
536.51	4.23
536.855	4.21
537.199	4.18
537.543	4.17
537.887	4.18
538.231	4.19
538.576	4.18
538.92	4.17
539.264	4.18
539.608	4.18
539.951	4.17
540.295	4.16
540.639	4.17
540.983	4.16
541.327	4.16
541.671	4.16
542.014	4.17
542.358	4.17
542.701	4.17
543.045	4.19
543.389	4.19
543.732	4.2
544.075	4.22
544.419	4.25
544.762	4.25
545.105	4.26
545.449	4.24
545.792	4.25
546.135	4.25
546.478	4.24
546.821	4.26
547.165	4.28
547.508	4.29
547.851	4.28
548.194	4.27
548.536	4.28
548.879	4.28
549.222	4.27
549.565	4.27
549.908	4.29
550.25	4.28
550.593	4.29
550.936	4.28
551.278	4.27
551.621	4.28
551.963	4.32
552.306	4.3
552.648	4.29
552.991	4.28
553.333	4.3
553.675	4.32
554.017	4.3
554.36	4.3
554.702	4.29
555.044	4.3
555.386	4.31
555.728	4.3
556.07	4.29
556.412	4.29
556.754	4.26
557.096	4.26
557.438	4.25
557.78	4.25
558.121	4.26
558.463	4.25
558.805	4.24
559.147	4.21
559.488	4.24
559.83	4.28
560.171	4.27
560.513	4.27
560.854	4.25
561.196	4.26
561.537	4.26
561.878	4.27
562.22	4.27
562.561	4.27
562.902	4.29
563.243	4.3
563.584	4.31
563.925	4.32
564.266	4.31
564.607	4.34
564.948	4.34
565.289	4.3
565.63	4.32
565.971	4.31
566.312	4.31
566.653	4.3
566.993	4.29
567.334	4.3
567.675	4.31
568.015	4.31
568.356	4.3
568.696	4.31
569.037	4.31
569.377	4.31
569.718	4.33
570.058	4.31
570.398	4.34
570.739	4.32
571.079	4.33
571.419	4.31
571.759	4.3
572.099	4.31
572.439	4.35
572.779	4.35
573.119	4.36
573.459	4.36
573.799	4.36
574.139	4.37
574.479	4.38
574.819	4.39
575.158	4.39
575.498	4.38
575.838	4.39
576.177	4.37
576.517	4.39
576.856	4.39
577.196	4.41
577.535	4.39
577.875	4.41
578.214	4.42
578.553	4.44
578.893	4.43
579.232	4.43
579.571	4.44
579.91	4.44
580.25	4.46
580.589	4.47
580.928	4.44
581.267	4.44
581.606	4.43
581.945	4.4
582.283	4.42
582.622	4.45
582.961	4.42
583.3	4.42
583.639	4.41
583.977	4.4
584.316	4.41
584.654	4.39
584.993	4.38
585.332	4.42
585.67	4.42
586.008	4.43
586.347	4.41
586.685	4.37
587.024	4.37
587.362	4.35
587.7	4.35
588.038	4.38
588.376	4.39
588.715	4.36
589.053	4.39
589.391	4.33
589.729	4.32
590.067	4.33
590.404	4.38
590.742	4.41
591.08	4.43
591.418	4.45
591.756	4.47
592.093	4.47
592.431	4.42
592.769	4.45
593.106	4.45
593.444	4.47
593.781	4.5
594.119	4.5
594.456	4.51
594.793	4.51
595.131	4.51
595.468	4.56
595.805	4.58
596.143	4.59
596.48	4.64
596.817	4.63
597.154	4.65
597.491	4.65
597.828	4.63
598.165	4.6
598.502	4.53
598.839	4.56
599.176	4.56
599.512	4.58
599.849	4.54
600.186	4.53
600.523	4.53
600.859	4.5
601.196	4.5
601.532	4.5
601.869	4.47
602.205	4.45
602.542	4.39
602.878	4.4
603.215	4.4
603.551	4.39
603.887	4.43
604.223	4.42
604.56	4.43
604.896	4.45
605.232	4.47
605.568	4.5
605.904	4.46
606.24	4.46
606.576	4.48
606.912	4.47
607.248	4.48
607.583	4.5
607.919	4.51
608.255	4.52
608.591	4.53
608.926	4.56
609.262	4.57
609.597	4.59
609.933	4.56
610.268	4.55
610.604	4.58
610.939	4.61
611.275	4.62
611.61	4.59
611.945	4.58
612.281	4.62
612.616	4.61
612.951	4.62
613.286	4.62
613.621	4.62
613.956	4.64
614.291	4.63
614.626	4.61
614.961	4.67
615.296	4.69
615.631	4.69
615.966	4.64
616.3	4.68
616.635	4.66
616.97	4.73
617.304	4.73
617.639	4.73
617.973	4.7
618.308	4.7
618.642	4.71
618.977	4.71
619.311	4.74
619.646	4.75
619.98	4.78
620.314	4.81
620.648	4.82
620.983	4.78
621.317	4.83
621.651	4.81
621.985	4.78
622.319	4.75
622.653	4.76
622.987	4.79
623.321	4.73
623.655	4.74
623.988	4.73
624.322	4.71
624.656	4.7
624.99	4.7
625.323	4.7
625.657	4.71
625.99	4.68
626.324	4.64
626.657	4.61
626.991	4.56
627.324	4.53
627.658	4.51
627.991	4.61
628.324	4.55
628.657	4.58
628.991	4.62
629.324	4.65
629.657	4.65
629.99	4.66
630.323	4.68
630.656	4.7
630.989	4.65
631.322	4.68
631.655	4.71
631.987	4.72
632.32	4.74
632.653	4.72
632.986	4.74
633.318	4.73
633.651	4.79
633.984	4.81
634.316	4.81
634.649	4.82
634.981	4.75
635.313	4.82
635.646	4.81
635.978	4.77
636.31	4.74
636.643	4.75
636.975	4.69
637.307	4.75
637.639	4.72
637.971	4.75
638.303	4.71
638.635	4.66
638.967	4.64
639.299	4.6
639.631	4.6
639.963	4.59
640.295	4.58
640.626	4.6
640.958	4.55
641.29	4.57
641.621	4.55
641.953	4.58
642.285	4.55
642.616	4.57
642.948	4.62
643.279	4.63
643.61	4.64
643.942	4.74
644.273	4.75
644.604	4.78
644.936	4.76
645.267	4.77
645.598	4.83
645.929	4.75
646.26	4.75
646.591	4.75
646.922	4.77
647.253	4.8
647.584	4.78
647.915	4.83
648.245	4.88
648.576	4.9
648.907	4.86
649.238	4.87
649.568	4.82
649.899	4.78
650.229	4.81
650.56	4.79
650.89	4.76
651.221	4.71
651.551	4.72
651.882	4.79
652.212	4.78
652.542	4.75
652.872	4.82
653.203	4.9
653.533	4.95
653.863	4.97
654.193	4.9
654.523	4.81
654.853	4.81
655.183	4.75
655.513	4.76
655.843	4.8
656.172	4.83
656.502	4.82
656.832	4.9
657.162	4.85
657.491	4.88
657.821	4.84
658.15	4.84
658.48	4.84
658.809	4.81
659.139	4.8
659.468	4.78
659.798	4.8
660.127	4.76
660.456	4.74
660.785	4.7
661.115	4.75
661.444	4.82
661.773	4.86
662.102	4.85
662.431	4.89
662.76	4.87
663.089	4.89
663.418	4.85
663.747	4.71
664.076	4.68
664.404	4.61
664.733	4.71
665.062	4.77
665.39	4.77
665.719	4.75
666.048	4.76
666.376	4.76
666.705	4.8
667.033	4.84
667.362	4.81
667.69	4.82
668.018	4.82
668.347	4.78
668.675	4.78
669.003	4.73
669.331	4.73
669.659	4.71
669.987	4.71
670.315	4.79
670.643	4.9
670.971	5.02
671.299	5.05
671.627	5.02
671.955	4.95
672.283	4.91
672.61	4.97
672.938	5.04
673.266	5.02
673.593	4.95
673.921	4.92
674.249	4.94
674.576	5.01
674.904	5.04
675.231	5.09
675.558	5.11
675.886	5.25
676.213	5.26
676.54	5.33
676.867	5.21
677.195	5.22
677.522	5.16
677.849	5.1
678.176	5.13
678.503	5.02
678.83	4.97
679.157	5.07
679.484	4.92
679.81	4.87
680.137	4.95
680.464	5.01
680.791	5
681.117	5.05
681.444	5.04
681.771	5.02
682.097	5.03
682.424	5.02
682.75	4.98
683.077	4.94
683.403	4.89
683.729	4.91
684.056	4.86
684.382	4.89
684.708	4.95
685.034	4.96
685.36	5.07
685.686	5.15
686.012	5.07
686.339	5.17
686.664	5.19
686.99	5.1
687.316	5.04
687.642	5.04
687.968	5.02
688.294	5.08
688.619	5.12
688.945	5.03
689.271	5.01
689.596	4.95
689.922	4.93
690.247	4.97
690.573	5.16
690.898	5.28
691.224	5.35
691.549	5.3
691.874	5.33
692.2	5.19
692.525	5.26
692.85	5.31
693.175	5.35
693.5	5.38
693.825	5.42
694.15	5.43
694.475	5.48
694.8	5.47
695.125	5.35
695.45	5.26
695.775	5.29
696.099	5.33
696.424	5.45
696.749	5.46
697.073	5.42
697.398	5.33
697.723	5.3
698.047	5.24
698.372	5.31
698.696	5.29
699.02	5.41
699.345	5.34
699.669	5.42
699.993	5.36
700.318	5.47
700.642	5.5
700.966	5.52
701.29	5.47
701.614	5.43
701.938	5.52
702.262	5.57
702.586	5.68
702.91	5.7
703.234	5.62
703.557	5.62
703.881	5.74
704.205	5.84
704.529	5.73
704.852	5.78
705.176	5.86
705.499	5.93
705.823	5.99
706.146	6.06
706.47	6.13
706.793	6.16
707.117	5.97
707.44	5.9
707.763	5.93
708.086	5.95
708.409	5.9
708.733	5.8
709.056	5.74
709.379	5.73
709.702	5.73
710.025	5.85
710.348	5.96
710.671	5.84
710.993	5.81
711.316	5.89
711.639	5.88
711.962	5.82
712.284	5.75
712.607	5.75
712.93	5.72
713.252	5.57
713.575	5.58
713.897	5.68
714.22	5.77
714.542	5.84
714.864	5.7
715.187	5.79
715.509	5.79
715.831	5.92
716.153	5.91
716.475	6.05
716.798	5.99
717.12	5.93
717.442	5.92
717.764	5.83
718.085	5.9
718.407	5.91
718.729	5.77
719.051	5.76
719.373	5.68
719.695	5.68
720.016	5.71
720.338	5.84
720.659	5.83
720.981	5.8
721.302	5.87
721.624	6.04
721.945	5.95
722.267	6.04
722.588	5.93
722.909	5.78
723.231	5.62
723.552	5.56
723.873	5.56
724.194	5.49
724.515	5.54
724.836	5.39
725.157	5.31
725.478	5.37
725.799	5.4
726.12	5.31
726.441	5.38
726.762	5.53
727.083	5.45
727.403	5.48
727.724	5.46
728.045	5.29
728.365	5.3
728.686	5.35
729.006	5.42
729.327	5.39
729.647	5.6
729.967	5.54
730.288	5.69
730.608	5.7
730.928	5.87
731.249	5.85
731.569	5.96
731.889	5.93
732.209	6.04
732.529	6.03
732.849	6.21
733.169	6.03
733.489	5.84
733.809	5.74
734.129	5.61
734.448	5.74
734.768	5.65
735.088	5.75
735.408	5.79
735.727	5.72
736.047	5.8
736.366	5.94
736.686	5.93
737.005	5.87
737.325	5.81
737.644	5.76
737.963	5.71
738.283	5.76
738.602	5.94
738.921	5.98
739.24	5.96
739.56	5.95
739.879	5.94
740.198	6.07
740.517	6.21
740.836	6.29
741.155	6.26
741.473	6.18
741.792	6.1
742.111	6.18
742.43	6.19
742.748	6.25
743.067	6.17
743.386	6.17
743.704	6.11
744.023	6.23
744.341	6.33
744.66	6.34
744.978	6.29
745.297	6.2
745.615	6.14
745.933	6.21
746.252	6.17
746.57	6.46
746.888	6.43
747.206	6.49
747.524	6.35
747.842	6.09
748.16	6.52
748.478	6.6
748.796	6.49
749.114	6.54
749.432	6.47
749.749	6.39
750.067	6.44
750.385	6.58
750.703	6.5
751.02	6.64
751.338	6.61
751.655	6.66
751.973	6.8
752.29	6.81
752.608	6.72
752.925	6.75
753.242	6.52
753.56	6.32
753.877	6.23
754.194	6.49
754.511	6.77
754.828	6.82
755.145	6.67
755.462	6.82
755.779	6.67
756.096	6.72
756.413	6.73
756.73	6.83
757.047	6.7
757.364	6.91
757.68	6.91
757.997	7.1
758.314	7.04
758.63	6.84
758.947	6.93
759.264	7.09
759.58	7.14
759.896	7.14
760.213	7.27
760.529	7.22
760.846	7.13
761.162	7.16
761.478	6.88
761.794	7.07
762.11	6.88
762.426	6.88
762.743	6.77
763.059	6.74
763.375	6.67
763.69	6.51
764.006	6.34
764.322	6.26
764.638	6.1
764.954	6.15
765.27	6.29
765.585	6.37
765.901	6.26
766.216	6.28
766.532	6.35
766.848	6.27
767.163	6.4
767.478	6.26
767.794	6.32
768.109	6.31
768.424	6.41
768.74	6.44
769.055	6.73
769.37	6.64
769.685	6.87
770	7.17
770.315	7.55
770.63	7.48
770.945	7.82
771.26	7.91
771.575	7.93
771.89	7.82
772.205	7.57
772.52	7.68
772.834	7.67
773.149	7.66
773.464	8.03
773.778	7.64
774.093	8.11
774.407	7.88
774.722	7.98
775.036	7.68
775.351	7.63
775.665	7.74
775.979	8.1
776.293	7.77
776.608	7.5
776.922	7.56
777.236	7.91
777.55	7.6
777.864	7.72
778.178	7.96
778.492	8.05
778.806	8.2
779.12	8.2
779.434	8.24
779.747	8.33
780.061	8.32
780.375	8.93
780.689	8.74
781.002	8.58
781.316	8.73
781.629	8.67
781.943	8.89
782.256	8.53
782.57	8.36
782.883	8.54
783.196	8.87
783.51	8.7
783.823	8.47
784.136	8.29
784.449	8.11
784.762	8.08
785.075	8.55
785.388	8.47
785.701	8.45
786.014	8.09
786.327	8.22
786.64	8.08
786.953	7.95
787.266	8.13
787.578	8.4
787.891	8.26
788.204	8.44
788.516	8.37
788.829	8.58
789.141	9.01
789.454	8.93
789.766	9.08
790.079	9.23
790.391	9.22
790.703	9.55
791.016	10.04
791.328	10.02
791.64	9.24
791.952	9.34
792.264	8.95
792.576	9.11
792.888	8.74
793.2	8.64
793.512	8.53
793.824	8.4
794.136	8.42
794.448	8.32
794.76	8.44
795.071	8.37
795.383	7.85
795.695	7.43
796.006	7.31
796.318	6.65
796.629	6.36
796.941	6.52
797.252	6.39
797.564	6.23
797.875	5.87
798.186	6.15
798.497	6.11
798.809	6.57
799.12	7.03
799.431	7.43
799.742	7.51
800.053	7.33
800.364	7.52
800.675	7.33
800.986	7.9
801.297	7.57
801.608	7.22
801.918	7.42
802.229	7.64
802.54	7.51
802.851	7.93
803.161	8.08
803.472	8.24
803.782	8.13
804.093	7.28
804.403	7.36
804.714	7.36
805.024	7.51
805.334	7.55
805.645	7.27
805.955	7.59
806.265	7.87
806.575	8.16
806.885	7.74
807.195	8.05
807.505	7.5
807.815	7.5
808.125	8.22
808.435	8.4
808.745	8.39
809.055	8.77
809.365	8.46
809.674	8.62
809.984	8.76
810.294	8.45
810.603	8.54
810.913	8.99
811.222	8.46
811.532	8.37
811.841	9.05
812.151	8.68
812.46	8.22
812.769	8.17
813.079	8.85
813.388	9.17
813.697	8.84
814.006	9.31
814.315	9.53
814.624	9.44
814.933	9.38
815.242	9.44
815.551	9.32
815.86	9.23
816.169	9.15
816.478	8.98
816.786	9.24
817.095	10.22
817.404	9.57
817.712	10.05
818.021	9.65
818.33	9.22
818.638	9.05
818.947	9.06
819.255	8.73
819.563	8.15
819.872	8.06
820.18	8.52
820.488	8.5
820.796	8.49
821.105	8.54
821.413	8.59
821.721	8.44
822.029	8.57
822.337	8.54
822.645	8.44
822.953	8.55
823.26	8.53
823.568	8.48
823.876	8.64
824.184	8.56
824.491	8.69
824.799	8.64
825.107	8.81
825.414	8.78
825.722	8.91
826.029	9
826.337	9.09
826.644	8.87
826.951	8.71
827.259	8.69
827.566	8.74
827.873	8.89
828.18	9.02
828.488	8.78
828.795	9.1
829.102	9.13
829.409	8.96
829.716	9.21
830.023	9.15
830.329	9.02
830.636	9.3
830.943	9.38
831.25	9.33
831.557	9.2
831.863	9.11
832.17	8.85
832.476	8.92
832.783	8.9
833.089	9.1
833.396	9.51
833.702	9.68
834.009	9.79
834.315	9.74
834.621	10.04
834.928	10.24
835.234	9.74
835.54	9.96
835.846	10.23
836.152	10.03
836.458	10.02
836.764	10.19
837.07	9.98
837.376	9.84
837.682	9.96
837.988	10.13
838.293	10.63
838.599	11.49
838.905	11.82
839.211	11.79
839.516	11.92
839.822	12.27
840.127	12.15
840.433	11.92
840.738	11.69
841.044	11.45
841.349	11.4
841.654	11.28
841.959	11.19
842.265	10.51
842.57	10.64
842.875	11.29
843.18	11.63
843.485	12.5
843.79	12.16
844.095	12.36
844.4	12.12
844.705	12.22
845.01	11.44
845.315	10.65
845.619	12.02
845.924	12.03
846.229	12.56
846.533	13.65
846.838	14.58
847.142	15.08
847.447	15.05
847.751	14.28
848.056	15.28
848.36	16.45
848.664	18.01
848.969	17.42
849.273	17.47
849.577	15.44
849.881	15.55
850.185	13.92
850.489	14.27
850.794	14.99
851.097	13.91
851.401	13.67
851.705	12.73
852.009	10.49
852.313	8.76
852.617	6.52
852.92	6.88
853.224	4.08
853.528	3.88
853.831	4.33
854.135	6.03
854.438	5.82
854.742	5.96
855.045	4.64
855.349	5.02
855.652	6.14
855.955	9.53
856.259	10.2
856.562	13.24
856.865	14.44
857.168	14.73
857.471	15.58
857.774	17.58
858.077	16.87
858.38	16.96
858.683	19.05
858.986	20.29
859.289	19.23
859.592	22.49
859.894	21.75
860.197	21.7
860.5	22.75
860.802	24.68
861.105	23.1
861.407	22.3
861.71	21.17
862.012	18.53
862.315	17.77
862.617	17.03
862.919	14.93
863.222	12.22
863.524	10.78
863.826	10.13
864.128	8.33
864.43	11.06
864.732	13.13
865.034	11.84
865.336	9.92
865.638	9.88
865.94	7.25
866.242	8.29
866.544	10.43
866.846	10.16
867.147	9.78
867.449	10.56
867.751	11.26
868.052	14.67
868.354	14.84
868.655	15.69
868.957	14.79
869.258	15.48
869.56	18.36
869.861	18.5
870.162	17.33
870.463	16.87
870.765	17.68
871.066	15.16
871.367	14.44
871.668	13.68
871.969	14.8
872.27	15.96
872.571	17.41
872.872	15.48
873.173	13.5
873.473	13.55
873.774	14.08
874.075	17.07
874.376	13.96
874.676	16.14
874.977	15.2
875.277	15.59
875.578	16.89
875.878	15.53
876.179	15.82
876.479	17.57
876.78	17.25
877.08	16.32
877.38	18.19
877.68	21.23
877.981	26.68
878.281	25.59
878.581	26.78
