Data from BU58141_Reflection_00015.txt Node
Date: Mon Nov 18 16:47:06 EST 2019
User: vgr7
Spectrometer: USB2G7710
Scans to average: 3
Trigger mode: 4
Integration Time (sec): 2.000000E-2
Electric dark correction enabled: true
Boxcar width: 10
XAxis mode: Wavelengths
Number of Pixels in Spectrum: 2048
>>>>>Begin Spectral Data<<<<<
177.721	2.65
178.105	0.53
178.488	57.35
178.871	60.55
179.254	141.74
179.636	-2775
180.019	344.15
180.402	107.41
180.785	151.89
181.168	-4429.41
181.55	-623.5
181.933	203.14
182.316	285.28
182.698	133.97
183.081	97.78
183.463	120.22
183.846	134.56
184.228	131.15
184.611	127.1
184.993	124.13
185.376	137
185.758	177.28
186.14	137.64
186.522	180.84
186.904	429.39
187.287	726.72
187.669	-1377.51
188.051	-1484.84
188.433	-515.28
188.815	-500.58
189.197	1391.85
189.579	-14580
189.961	-1927.62
190.342	-2428.66
190.724	-321.89
191.106	-191.39
191.488	-153.7
191.869	-104.29
192.251	-121.27
192.633	-99.1
193.014	-147.2
193.396	-152.12
193.777	-182.92
194.159	-247.91
194.54	-194.27
194.922	-193.62
195.303	-139.07
195.684	-125.97
196.065	-101.98
196.447	-103.38
196.828	-103.44
197.209	-82.62
197.59	-71.62
197.971	-68.78
198.352	-59.98
198.733	-82.75
199.114	-83.69
199.495	-64.67
199.876	-55.97
200.257	-40.74
200.638	-57.07
201.018	-49.99
201.399	-45.16
201.78	-38.51
202.16	-40.21
202.541	-55.81
202.922	-92.16
203.302	-115.61
203.683	-125.75
204.063	-139.64
204.444	-122.05
204.824	-122.04
205.204	-98.81
205.585	-94.12
205.965	-76.93
206.345	-84.32
206.725	-79.84
207.106	-103.28
207.486	-142.08
207.866	-175.82
208.246	-163.2
208.626	-152.56
209.006	-125.41
209.386	-171.99
209.766	-212.31
210.145	-202.38
210.525	-164.61
210.905	-125.2
211.285	-117.69
211.664	-99.29
212.044	-105.06
212.424	-107.1
212.803	-88.91
213.183	-102.99
213.562	-106.65
213.942	-105.82
214.321	-96.46
214.701	-96.42
215.08	-88.88
215.459	-74.45
215.838	-69.28
216.218	-85.88
216.597	-72.11
216.976	-71.25
217.355	-66.48
217.734	-73.66
218.113	-59.98
218.492	-62.81
218.871	-65.66
219.25	-70.75
219.629	-72.89
220.008	-67.79
220.387	-69.27
220.766	-89.57
221.144	-94.96
221.523	-97.31
221.902	-116.91
222.28	-132.33
222.659	-111.67
223.037	-98.63
223.416	-116.21
223.794	-122.52
224.173	-97
224.551	-86.67
224.929	-84.7
225.308	-73.27
225.686	-64.22
226.064	-56.35
226.442	-54.64
226.821	-43.82
227.199	-37.04
227.577	-36.41
227.955	-38.49
228.333	-34.58
228.711	-23.25
229.089	-19.9
229.467	-20.74
229.845	-15.81
230.222	-15.97
230.6	-15.26
230.978	-15.65
231.356	-12.01
231.733	-10.56
232.111	-9.86
232.488	-8.62
232.866	-7.62
233.243	-8.16
233.621	-8.48
233.998	-6
234.376	-5.43
234.753	-6.67
235.13	-6.68
235.508	-5.64
235.885	-3.54
236.262	-4.33
236.639	-5.35
237.016	-4.23
237.393	-2.23
237.77	-1.6
238.147	-0.08
238.524	-0.35
238.901	0.89
239.278	1.43
239.655	2.25
240.032	2.53
240.409	2.02
240.785	2.55
241.162	3.02
241.539	3.29
241.915	2.74
242.292	2.77
242.668	3.32
243.045	3.37
243.421	3.72
243.798	3.58
244.174	3.69
244.551	3.72
244.927	3.84
245.303	4.08
245.679	4.32
246.056	4.34
246.432	4.42
246.808	4.54
247.184	4.37
247.56	4.23
247.936	4.39
248.312	4.48
248.688	4.61
249.064	4.61
249.44	4.46
249.815	4.59
250.191	4.66
250.567	4.43
250.943	4.61
251.318	4.69
251.694	4.9
252.069	5.16
252.445	5.23
252.82	5.06
253.196	5.03
253.571	4.8
253.947	4.91
254.322	5.28
254.697	4.93
255.073	5.07
255.448	4.89
255.823	4.88
256.198	5.09
256.573	4.82
256.948	5.02
257.323	5.29
257.698	5.24
258.073	5.3
258.448	5.41
258.823	5.37
259.198	5.33
259.573	5.35
259.948	5.17
260.322	5.29
260.697	5.09
261.072	4.92
261.446	5.08
261.821	4.83
262.195	4.73
262.57	4.93
262.944	4.91
263.319	4.99
263.693	4.92
264.067	4.79
264.442	4.9
264.816	4.58
265.19	4.39
265.564	4.45
265.938	4.24
266.313	4.28
266.687	4.27
267.061	4.33
267.435	4.31
267.809	4.29
268.183	4.22
268.556	4.37
268.93	4.47
269.304	4.3
269.678	4.51
270.051	4.48
270.425	4.34
270.799	4.25
271.172	4.18
271.546	4.25
271.919	4.32
272.293	4.21
272.666	4.41
273.04	4.57
273.413	4.6
273.787	4.81
274.16	4.74
274.533	4.63
274.906	4.49
275.279	4.54
275.653	4.47
276.026	4.34
276.399	4.35
276.772	4.44
277.145	4.39
277.518	4.36
277.891	4.47
278.263	4.42
278.636	4.44
279.009	4.64
279.382	4.73
279.755	4.63
280.127	4.98
280.5	4.94
280.872	4.9
281.245	4.84
281.617	4.74
281.99	4.74
282.362	4.81
282.735	4.82
283.107	4.8
283.479	4.9
283.852	5.02
284.224	5.06
284.596	5
284.968	5.09
285.34	5.11
285.713	5
286.085	4.97
286.457	5.08
286.829	4.98
287.201	4.94
287.572	5.01
287.944	4.91
288.316	5.01
288.688	5.08
289.06	5.05
289.431	5.18
289.803	5.27
290.175	5.39
290.546	5.57
290.918	5.69
291.289	5.81
291.661	5.83
292.032	6.02
292.403	6.2
292.775	6.36
293.146	6.38
293.517	6.5
293.889	6.57
294.26	6.68
294.631	6.88
295.002	6.88
295.373	6.94
295.744	7.15
296.115	7.18
296.486	7.16
296.857	7.33
297.228	7.45
297.599	7.46
297.97	7.51
298.34	7.41
298.711	7.38
299.082	7.34
299.452	7.6
299.823	7.55
300.194	7.58
300.564	7.53
300.935	7.73
301.305	7.85
301.676	7.98
302.046	8.07
302.416	8.08
302.787	8.23
303.157	8.36
303.527	8.32
303.897	8.38
304.267	8.58
304.637	8.78
305.008	8.82
305.378	9.19
305.748	9.28
306.117	9.52
306.487	9.73
306.857	9.78
307.227	9.79
307.597	10.06
307.967	10.2
308.336	10.48
308.706	10.66
309.076	10.92
309.445	11.15
309.815	11.22
310.184	11.34
310.554	11.47
310.923	11.62
311.293	11.75
311.662	11.91
312.031	11.94
312.401	11.99
312.77	12.25
313.139	12.28
313.508	12.42
313.877	12.54
314.246	12.68
314.616	12.8
314.985	12.73
315.353	12.92
315.722	13.09
316.091	13.22
316.46	13.23
316.829	13.28
317.198	13.47
317.567	13.7
317.935	13.95
318.304	14.04
318.672	14.24
319.041	14.51
319.41	14.51
319.778	14.73
320.147	14.92
320.515	14.95
320.883	14.9
321.252	15.15
321.62	15.33
321.988	15.48
322.357	15.88
322.725	16.2
323.093	16.29
323.461	16.37
323.829	16.36
324.197	16.52
324.565	16.47
324.933	16.48
325.301	16.54
325.669	16.57
326.037	16.7
326.405	16.89
326.772	16.99
327.14	17.22
327.508	17.37
327.875	17.43
328.243	17.51
328.61	17.64
328.978	17.77
329.346	17.99
329.713	17.94
330.08	17.9
330.448	17.95
330.815	17.77
331.182	17.84
331.55	17.84
331.917	17.99
332.284	18.18
332.651	18.25
333.018	18.21
333.385	18.29
333.752	18.41
334.119	18.35
334.486	18.28
334.853	18.28
335.22	18.24
335.587	18.23
335.954	18.37
336.32	18.43
336.687	18.38
337.054	18.25
337.42	18.4
337.787	18.56
338.153	18.57
338.52	18.7
338.886	18.75
339.253	18.82
339.619	18.83
339.986	18.95
340.352	19.06
340.718	19.3
341.084	19.37
341.451	19.46
341.817	19.59
342.183	19.77
342.549	19.81
342.915	19.9
343.281	19.89
343.647	19.87
344.013	19.87
344.379	19.81
344.745	19.83
345.11	19.88
345.476	19.83
345.842	19.9
346.208	19.93
346.573	19.97
346.939	20
347.304	19.9
347.67	19.88
348.035	19.91
348.401	19.79
348.766	19.63
349.132	19.65
349.497	19.56
349.862	19.63
350.228	19.61
350.593	19.62
350.958	19.76
351.323	19.81
351.688	19.88
352.053	19.95
352.418	19.94
352.783	19.96
353.148	20.01
353.513	20.02
353.878	20.12
354.243	20.13
354.608	20.17
354.972	20.22
355.337	20.17
355.702	20.16
356.066	20.25
356.431	20.31
356.795	20.32
357.16	20.25
357.524	20.07
357.889	20.09
358.253	20.06
358.618	20.01
358.982	19.9
359.346	19.82
359.71	19.71
360.075	19.73
360.439	19.67
360.803	19.61
361.167	19.5
361.531	19.41
361.895	19.33
362.259	19.29
362.623	19.29
362.987	19.25
363.351	19.16
363.714	19.15
364.078	19.11
364.442	19.01
364.806	18.94
365.169	18.92
365.533	18.9
365.896	18.84
366.26	18.77
366.623	18.67
366.987	18.66
367.35	18.72
367.714	18.64
368.077	18.55
368.44	18.48
368.803	18.42
369.167	18.4
369.53	18.25
369.893	18.14
370.256	18
370.619	17.88
370.982	17.77
371.345	17.59
371.708	17.54
372.071	17.42
372.434	17.34
372.797	17.21
373.159	17.05
373.522	16.93
373.885	16.79
374.247	16.74
374.61	16.61
374.973	16.43
375.335	16.29
375.698	16.19
376.06	16.05
376.423	15.97
376.785	15.76
377.147	15.72
377.51	15.64
377.872	15.53
378.234	15.45
378.596	15.34
378.958	15.15
379.321	14.97
379.683	14.86
380.045	14.72
380.407	14.63
380.769	14.49
381.13	14.32
381.492	14.23
381.854	14.1
382.216	13.9
382.578	13.81
382.939	13.69
383.301	13.56
383.663	13.4
384.024	13.23
384.386	13.18
384.747	13.05
385.109	12.89
385.47	12.76
385.832	12.66
386.193	12.58
386.554	12.52
386.916	12.42
387.277	12.34
387.638	12.27
387.999	12.14
388.36	12.02
388.721	11.98
389.082	11.88
389.443	11.74
389.804	11.71
390.165	11.57
390.526	11.5
390.887	11.42
391.248	11.4
391.609	11.37
391.969	11.26
392.33	11.21
392.691	11.15
393.051	11.07
393.412	10.97
393.772	10.85
394.133	10.78
394.493	10.7
394.854	10.58
395.214	10.5
395.574	10.39
395.935	10.33
396.295	10.26
396.655	10.12
397.015	10.07
397.376	10
397.736	9.92
398.096	9.81
398.456	9.75
398.816	9.64
399.176	9.53
399.535	9.47
399.895	9.36
400.255	9.26
400.615	9.17
400.975	9.08
401.334	9.02
401.694	8.91
402.054	8.83
402.413	8.75
402.773	8.64
403.132	8.59
403.492	8.52
403.851	8.42
404.211	8.39
404.57	8.3
404.929	8.23
405.288	8.15
405.648	8.05
406.007	7.95
406.366	7.88
406.725	7.85
407.084	7.77
407.443	7.72
407.802	7.7
408.161	7.65
408.52	7.59
408.879	7.53
409.238	7.52
409.596	7.49
409.955	7.47
410.314	7.47
410.673	7.4
411.031	7.36
411.39	7.32
411.748	7.24
412.107	7.22
412.465	7.18
412.824	7.14
413.182	7.14
413.54	7.11
413.899	7.07
414.257	7.02
414.615	6.99
414.974	6.95
415.332	6.9
415.69	6.83
416.048	6.79
416.406	6.76
416.764	6.71
417.122	6.68
417.48	6.64
417.838	6.62
418.195	6.6
418.553	6.56
418.911	6.53
419.269	6.51
419.626	6.49
419.984	6.45
420.342	6.43
420.699	6.39
421.057	6.37
421.414	6.34
421.772	6.32
422.129	6.29
422.486	6.25
422.844	6.24
423.201	6.23
423.558	6.22
423.915	6.17
424.273	6.15
424.63	6.1
424.987	6.07
425.344	6.04
425.701	6
426.058	5.98
426.415	5.94
426.772	5.9
427.128	5.85
427.485	5.83
427.842	5.78
428.199	5.74
428.555	5.7
428.912	5.66
429.269	5.6
429.625	5.59
429.982	5.54
430.338	5.51
430.695	5.49
431.051	5.43
431.407	5.42
431.764	5.39
432.12	5.36
432.476	5.33
432.832	5.28
433.189	5.28
433.545	5.25
433.901	5.25
434.257	5.25
434.613	5.24
434.969	5.24
435.325	5.24
435.681	5.25
436.036	5.23
436.392	5.24
436.748	5.22
437.104	5.2
437.459	5.2
437.815	5.19
438.171	5.18
438.526	5.2
438.882	5.2
439.237	5.2
439.593	5.22
439.948	5.23
440.304	5.23
440.659	5.24
441.014	5.24
441.369	5.22
441.725	5.21
442.08	5.2
442.435	5.18
442.79	5.17
443.145	5.16
443.5	5.18
443.855	5.17
444.21	5.17
444.565	5.19
444.92	5.19
445.275	5.17
445.629	5.16
445.984	5.14
446.339	5.12
446.693	5.1
447.048	5.1
447.403	5.07
447.757	5.05
448.112	5.03
448.466	5.02
448.82	5.03
449.175	5.02
449.529	5.02
449.883	5.03
450.238	5.03
450.592	5.02
450.946	4.97
451.3	4.96
451.654	4.95
452.008	4.9
452.362	4.87
452.716	4.85
453.07	4.85
453.424	4.84
453.778	4.83
454.132	4.82
454.486	4.81
454.839	4.82
455.193	4.82
455.547	4.79
455.9	4.78
456.254	4.78
456.607	4.75
456.961	4.74
457.314	4.73
457.668	4.72
458.021	4.71
458.375	4.71
458.728	4.69
459.081	4.69
459.434	4.69
459.787	4.7
460.141	4.69
460.494	4.68
460.847	4.67
461.2	4.65
461.553	4.67
461.906	4.68
462.259	4.66
462.611	4.68
462.964	4.68
463.317	4.68
463.67	4.68
464.022	4.69
464.375	4.69
464.728	4.68
465.08	4.68
465.433	4.68
465.785	4.71
466.138	4.73
466.49	4.75
466.843	4.78
467.195	4.79
467.547	4.82
467.899	4.85
468.252	4.89
468.604	4.95
468.956	4.94
469.308	4.93
469.66	4.96
470.012	4.97
470.364	5.02
470.716	5.04
471.068	5.06
471.42	5.09
471.772	5.12
472.123	5.17
472.475	5.22
472.827	5.25
473.178	5.27
473.53	5.28
473.882	5.28
474.233	5.3
474.585	5.3
474.936	5.32
475.288	5.33
475.639	5.33
475.99	5.34
476.342	5.36
476.693	5.38
477.044	5.44
477.395	5.46
477.746	5.47
478.097	5.49
478.448	5.49
478.8	5.5
479.15	5.49
479.501	5.49
479.852	5.48
480.203	5.51
480.554	5.52
480.905	5.53
481.255	5.54
481.606	5.55
481.957	5.54
482.307	5.55
482.658	5.55
483.009	5.54
483.359	5.55
483.709	5.55
484.06	5.54
484.41	5.52
484.761	5.52
485.111	5.51
485.461	5.5
485.811	5.5
486.162	5.49
486.512	5.49
486.862	5.48
487.212	5.47
487.562	5.45
487.912	5.44
488.262	5.42
488.612	5.41
488.961	5.4
489.311	5.4
489.661	5.39
490.011	5.38
490.36	5.38
490.71	5.36
491.06	5.35
491.409	5.35
491.759	5.35
492.108	5.34
492.458	5.35
492.807	5.33
493.157	5.34
493.506	5.35
493.855	5.36
494.204	5.35
494.554	5.37
494.903	5.39
495.252	5.38
495.601	5.41
495.95	5.43
496.299	5.43
496.648	5.45
496.997	5.46
497.346	5.48
497.695	5.52
498.043	5.56
498.392	5.58
498.741	5.65
499.09	5.69
499.438	5.75
499.787	5.78
500.135	5.87
500.484	5.91
500.832	5.98
501.181	6.02
501.529	6.08
501.878	6.17
502.226	6.25
502.574	6.32
502.923	6.4
503.271	6.46
503.619	6.57
503.967	6.66
504.315	6.76
504.663	6.86
505.011	6.94
505.359	7.04
505.707	7.14
506.055	7.24
506.403	7.36
506.751	7.47
507.098	7.59
507.446	7.71
507.794	7.86
508.141	7.99
508.489	8.14
508.837	8.27
509.184	8.4
509.531	8.54
509.879	8.71
510.226	8.88
510.574	9.05
510.921	9.21
511.268	9.37
511.616	9.56
511.963	9.74
512.31	9.96
512.657	10.17
513.004	10.42
513.351	10.64
513.698	10.88
514.045	11.14
514.392	11.45
514.739	11.69
515.086	11.99
515.432	12.26
515.779	12.54
516.126	12.86
516.473	13.17
516.819	13.47
517.166	13.74
517.512	14
517.859	14.28
518.205	14.56
518.552	14.84
518.898	15.1
519.245	15.4
519.591	15.65
519.937	15.95
520.283	16.25
520.629	16.59
520.976	16.94
521.322	17.3
521.668	17.65
522.014	18.07
522.36	18.47
522.706	18.89
523.052	19.33
523.398	19.79
523.743	20.25
524.089	20.68
524.435	21.11
524.781	21.52
525.126	21.94
525.472	22.31
525.817	22.65
526.163	22.96
526.509	23.22
526.854	23.51
527.199	23.74
527.545	23.97
527.89	24.2
528.235	24.41
528.581	24.63
528.926	24.86
529.271	25.09
529.616	25.31
529.961	25.54
530.306	25.78
530.651	26.01
530.996	26.23
531.341	26.48
531.686	26.75
532.031	27
532.376	27.25
532.721	27.5
533.065	27.75
533.41	28.03
533.755	28.36
534.099	28.63
534.444	28.94
534.788	29.22
535.133	29.49
535.477	29.77
535.822	30.08
536.166	30.37
536.51	30.65
536.855	30.99
537.199	31.3
537.543	31.63
537.887	31.94
538.231	32.32
538.576	32.65
538.92	32.94
539.264	33.25
539.608	33.54
539.951	33.79
540.295	34.06
540.639	34.27
540.983	34.47
541.327	34.68
541.671	34.89
542.014	35.12
542.358	35.33
542.701	35.54
543.045	35.74
543.389	35.94
543.732	36.15
544.075	36.36
544.419	36.59
544.762	36.76
545.105	36.98
545.449	37.18
545.792	37.42
546.135	37.67
546.478	37.93
546.821	38.19
547.165	38.48
547.508	38.75
547.851	39.05
548.194	39.34
548.536	39.65
548.879	39.95
549.222	40.2
549.565	40.5
549.908	40.76
550.25	41
550.593	41.34
550.936	41.59
551.278	41.83
551.621	42.13
551.963	42.49
552.306	42.75
552.648	43.02
552.991	43.31
553.333	43.56
553.675	43.74
554.017	43.95
554.36	44.15
554.702	44.37
555.044	44.57
555.386	44.8
555.728	44.99
556.07	45.15
556.412	45.38
556.754	45.55
557.096	45.82
557.438	46.06
557.78	46.2
558.121	46.45
558.463	46.67
558.805	46.8
559.147	46.95
559.488	47.15
559.83	47.34
560.171	47.58
560.513	47.81
560.854	48.05
561.196	48.27
561.537	48.45
561.878	48.67
562.22	48.84
562.561	48.99
562.902	49.14
563.243	49.34
563.584	49.48
563.925	49.73
564.266	49.86
564.607	50.03
564.948	50.23
565.289	50.46
565.63	50.56
565.971	50.68
566.312	50.81
566.653	50.95
566.993	51.1
567.334	51.18
567.675	51.24
568.015	51.42
568.356	51.5
568.696	51.7
569.037	51.74
569.377	51.91
569.718	52.06
570.058	52.24
570.398	52.39
570.739	52.54
571.079	52.58
571.419	52.71
571.759	52.8
572.099	52.87
572.439	52.9
572.779	52.95
573.119	53.06
573.459	53.18
573.799	53.33
574.139	53.38
574.479	53.42
574.819	53.5
575.158	53.54
575.498	53.58
575.838	53.61
576.177	53.66
576.517	53.65
576.856	53.78
577.196	53.86
577.535	53.89
577.875	53.96
578.214	54.1
578.553	54.13
578.893	54.15
579.232	54.25
579.571	54.32
579.91	54.49
580.25	54.54
580.589	54.66
580.928	54.69
581.267	54.75
581.606	54.92
581.945	55.05
582.283	55.14
582.622	55.27
582.961	55.38
583.3	55.61
583.639	55.75
583.977	55.69
584.316	55.62
584.654	55.69
584.993	55.73
585.332	55.81
585.67	55.91
586.008	56.05
586.347	56.1
586.685	56.09
587.024	56.14
587.362	56.23
587.7	56.27
588.038	56.32
588.376	56.38
588.715	56.4
589.053	56.45
589.391	56.51
589.729	56.53
590.067	56.56
590.404	56.52
590.742	56.57
591.08	56.7
591.418	56.87
591.756	56.95
592.093	57
592.431	56.93
592.769	57
593.106	57.05
593.444	57
593.781	57.04
594.119	57.06
594.456	57.17
594.793	57.21
595.131	57.21
595.468	57.24
595.805	57.29
596.143	57.32
596.48	57.36
596.817	57.42
597.154	57.42
597.491	57.51
597.828	57.54
598.165	57.51
598.502	57.54
598.839	57.53
599.176	57.55
599.512	57.61
599.849	57.74
600.186	57.73
600.523	57.78
600.859	57.85
601.196	57.92
601.532	57.92
601.869	57.89
602.205	57.93
602.542	57.97
602.878	57.95
603.215	57.93
603.551	57.94
603.887	57.98
604.223	58.05
604.56	58.03
604.896	58.11
605.232	58.15
605.568	58.12
605.904	58.2
606.24	58.22
606.576	58.31
606.912	58.21
607.248	58.2
607.583	58.25
607.919	58.31
608.255	58.39
608.591	58.47
608.926	58.51
609.262	58.55
609.597	58.55
609.933	58.63
610.268	58.68
610.604	58.79
610.939	58.71
611.275	58.68
611.61	58.75
611.945	58.71
612.281	58.73
612.616	58.74
612.951	58.71
613.286	58.7
613.621	58.66
613.956	58.72
614.291	58.71
614.626	58.76
614.961	58.75
615.296	58.81
615.631	58.76
615.966	58.82
616.3	58.84
616.635	58.94
616.97	58.92
617.304	59.03
617.639	58.99
617.973	59.12
618.308	59.15
618.642	59.23
618.977	59.27
619.311	59.29
619.646	59.3
619.98	59.35
620.314	59.44
620.648	59.5
620.983	59.47
621.317	59.54
621.651	59.64
621.985	59.67
622.319	59.53
622.653	59.5
622.987	59.45
623.321	59.45
623.655	59.38
623.988	59.46
624.322	59.37
624.656	59.38
624.99	59.34
625.323	59.37
625.657	59.33
625.99	59.28
626.324	59.37
626.657	59.46
626.991	59.46
627.324	59.44
627.658	59.36
627.991	59.35
628.324	59.39
628.657	59.35
628.991	59.4
629.324	59.4
629.657	59.47
629.99	59.57
630.323	59.66
630.656	59.78
630.989	59.72
631.322	59.79
631.655	59.79
631.987	59.83
632.32	59.84
632.653	59.83
632.986	59.89
633.318	59.82
633.651	59.83
633.984	59.84
634.316	59.89
634.649	59.91
634.981	59.88
635.313	59.88
635.646	59.98
635.978	59.91
636.31	59.91
636.643	59.93
636.975	59.92
637.307	59.87
637.639	59.82
637.971	59.92
638.303	59.85
638.635	59.79
638.967	59.84
639.299	59.94
639.631	59.91
639.963	59.86
640.295	59.86
640.626	59.83
640.958	59.85
641.29	59.87
641.621	59.99
641.953	60.06
642.285	60.09
642.616	60.03
642.948	60.14
643.279	60.21
643.61	60.17
643.942	60.16
644.273	60.09
644.604	60.02
644.936	59.93
645.267	60
645.598	60.07
645.929	59.96
646.26	59.9
646.591	59.91
646.922	59.95
647.253	59.97
647.584	59.97
647.915	59.95
648.245	59.97
648.576	59.96
648.907	59.95
649.238	59.97
649.568	59.96
649.899	59.83
650.229	59.81
650.56	59.83
650.89	59.85
651.221	59.89
651.551	59.94
651.882	59.98
652.212	59.97
652.542	59.98
652.872	60.17
653.203	60.18
653.533	60.28
653.863	60.26
654.193	60.33
654.523	60.25
654.853	60.31
655.183	60.33
655.513	60.33
655.843	60.46
656.172	60.48
656.502	60.58
656.832	60.6
657.162	60.67
657.491	60.71
657.821	60.7
658.15	60.75
658.48	60.78
658.809	60.75
659.139	60.68
659.468	60.58
659.798	60.45
660.127	60.47
660.456	60.45
660.785	60.5
661.115	60.48
661.444	60.58
661.773	60.61
662.102	60.53
662.431	60.51
662.76	60.39
663.089	60.32
663.418	60.07
663.747	60.13
664.076	60.17
664.404	60.14
664.733	60.1
665.062	60.06
665.39	59.99
665.719	60.04
666.048	60.12
666.376	60.17
666.705	60.27
667.033	60.18
667.362	60.13
667.69	60.07
668.018	59.99
668.347	59.93
668.675	59.92
669.003	59.96
669.331	60
669.659	60.03
669.987	60.02
670.315	60.25
670.643	60.1
670.971	59.98
671.299	60.01
671.627	60.03
671.955	60.04
672.283	60.1
672.61	60.12
672.938	60.09
673.266	60.18
673.593	60.15
673.921	60.18
674.249	60.24
674.576	60.35
674.904	60.33
675.231	60.2
675.558	60.23
675.886	60.14
676.213	60.25
676.54	60.34
676.867	60.37
677.195	60.4
677.522	60.53
677.849	60.61
678.176	60.54
678.503	60.52
678.83	60.53
679.157	60.47
679.484	60.41
679.81	60.53
680.137	60.49
680.464	60.46
680.791	60.48
681.117	60.42
681.444	60.36
681.771	60.4
682.097	60.55
682.424	60.47
682.75	60.44
683.077	60.32
683.403	60.21
683.729	60.15
684.056	60.1
684.382	60.09
684.708	60.09
685.034	60.07
685.36	60.02
685.686	59.86
686.012	59.85
686.339	59.98
686.664	59.9
686.99	59.91
687.316	59.83
687.642	59.7
687.968	59.75
688.294	59.83
688.619	59.77
688.945	59.82
689.271	60.02
689.596	60.03
689.922	60.01
690.247	60.01
690.573	60.06
690.898	60.11
691.224	60.04
691.549	59.93
691.874	59.97
692.2	59.92
692.525	59.99
692.85	60.1
693.175	60.09
693.5	60.1
693.825	60.21
694.15	60.32
694.475	60.52
694.8	60.5
695.125	60.53
695.45	60.59
695.775	60.56
696.099	60.38
696.424	60.38
696.749	60.24
697.073	60.35
697.398	60.4
697.723	60.39
698.047	60.28
698.372	60.24
698.696	60.2
699.02	60.3
699.345	60.26
699.669	60.16
699.993	60.09
700.318	60.17
700.642	60.08
700.966	60.01
701.29	59.86
701.614	59.83
701.938	59.71
702.262	59.74
702.586	59.62
702.91	59.53
703.234	59.53
703.557	59.67
703.881	59.59
704.205	59.6
704.529	59.44
704.852	59.79
705.176	59.97
705.499	59.95
705.823	60.05
706.146	59.98
706.47	60.22
706.793	60.24
707.117	60.03
707.44	60.17
707.763	60.31
708.086	60.4
708.409	60.41
708.733	60.49
709.056	60.4
709.379	60.51
709.702	60.7
710.025	60.8
710.348	60.75
710.671	60.76
710.993	60.64
711.316	60.67
711.639	60.55
711.962	60.47
712.284	60.59
712.607	60.5
712.93	60.63
713.252	60.57
713.575	60.52
713.897	60.51
714.22	60.36
714.542	60.42
714.864	60.25
715.187	60.21
715.509	60.13
715.831	60.03
716.153	60.07
716.475	60.08
716.798	60.18
717.12	60.29
717.442	60.32
717.764	60.63
718.085	60.72
718.407	60.67
718.729	60.85
719.051	60.63
719.373	60.49
719.695	60.66
720.016	60.61
720.338	60.64
720.659	60.85
720.981	60.72
721.302	60.68
721.624	60.93
721.945	61.05
722.267	60.95
722.588	60.93
722.909	60.86
723.231	60.86
723.552	60.89
723.873	60.86
724.194	60.89
724.515	60.71
724.836	60.52
725.157	60.6
725.478	60.38
725.799	60.63
726.12	60.63
726.441	60.76
726.762	60.78
727.083	60.82
727.403	60.67
727.724	61.11
728.045	60.91
728.365	60.97
728.686	61.13
729.006	61.14
729.327	61.41
729.647	61.46
729.967	61.31
730.288	61.23
730.608	61.16
730.928	61.07
731.249	61.06
731.569	61.31
731.889	61.22
732.209	61.32
732.529	61.4
732.849	61.45
733.169	61.3
733.489	61.07
733.809	60.91
734.129	61.01
734.448	60.85
734.768	60.93
735.088	60.86
735.408	60.68
735.727	60.9
736.047	60.66
736.366	60.69
736.686	60.78
737.005	60.63
737.325	60.66
737.644	60.59
737.963	60.88
738.283	60.62
738.602	60.85
738.921	60.83
739.24	60.61
739.56	60.83
739.879	60.92
740.198	61.1
740.517	61.2
740.836	61.26
741.155	61.18
741.473	61.34
741.792	61.18
742.111	61.28
742.43	61.2
742.748	61.28
743.067	61.06
743.386	60.81
743.704	61.25
744.023	61.67
744.341	61.61
744.66	61.2
744.978	61.18
745.297	60.76
745.615	60.67
745.933	61.1
746.252	61
746.57	60.78
746.888	60.67
747.206	60.68
747.524	60.54
747.842	60.32
748.16	60.38
748.478	60.69
748.796	60.51
749.114	60.58
749.432	60.51
749.749	60.79
750.067	61.02
750.385	60.67
750.703	60.26
751.02	60.34
751.338	60.75
751.655	61.08
751.973	61.21
752.29	61.32
752.608	60.63
752.925	60.67
753.242	60.75
753.56	60.71
753.877	60.62
754.194	60.37
754.511	60.58
754.828	60.27
755.145	59.87
755.462	59.81
755.779	59.76
756.096	59.78
756.413	59.73
756.73	59.64
757.047	59.62
757.364	59.81
757.68	59.86
757.997	59.54
758.314	59.59
758.63	59.78
758.947	59.65
759.264	59.64
759.58	59.48
759.896	59.32
760.213	59.53
760.529	59.71
760.846	60.29
761.162	60.35
761.478	60.44
761.794	60.5
762.11	60.67
762.426	60.75
762.743	60.83
763.059	60.81
763.375	60.95
763.69	61
764.006	60.79
764.322	60.73
764.638	60.97
764.954	60.94
765.27	60.69
765.585	60.59
765.901	60.98
766.216	61.08
766.532	61.26
766.848	61.08
767.163	61.09
767.478	60.78
767.794	60.51
768.109	60.36
768.424	60.62
768.74	60.49
769.055	60.32
769.37	60.38
769.685	60.2
770	59.85
770.315	59.5
770.63	59.83
770.945	59.96
771.26	59.4
771.575	59.56
771.89	60.11
772.205	60.39
772.52	60.41
772.834	60.5
773.149	60.38
773.464	60.29
773.778	60.23
774.093	60.3
774.407	60.21
774.722	60.16
775.036	59.84
775.351	60.18
775.665	60.14
775.979	60.3
776.293	60.57
776.608	60.91
776.922	60.98
777.236	60.5
777.55	60.26
777.864	60.53
778.178	60.61
778.492	60.22
778.806	60.27
779.12	59.57
779.434	59.42
779.747	59.93
780.061	59.78
780.375	60.22
780.689	60.64
781.002	60.99
781.316	61.27
781.629	61.32
781.943	61.17
782.256	61.21
782.57	60.79
782.883	60.71
783.196	60.61
783.51	60.08
783.823	60.14
784.136	60.11
784.449	60.08
784.762	59.31
785.075	59.51
785.388	59.01
785.701	59.47
786.014	58.98
786.327	58.74
786.64	59.28
786.953	58.9
787.266	58.31
787.578	58.28
787.891	58.18
788.204	58.43
788.516	58.3
788.829	58.68
789.141	58.95
789.454	58.85
789.766	58.87
790.079	59.39
790.391	59.75
790.703	59.97
791.016	59.58
791.328	59.33
791.64	59.13
791.952	59.72
792.264	59.61
792.576	60.32
792.888	60
793.2	59.57
793.512	59.28
793.824	59.42
794.136	59.65
794.448	60.24
794.76	59.94
795.071	60.36
795.383	60.28
795.695	60.46
796.006	60.13
796.318	60.32
796.629	60.54
796.941	59.61
797.252	60.15
797.564	60.68
797.875	60.95
798.186	60.53
798.497	60.08
798.809	60.27
799.12	59.85
799.431	59.78
799.742	60.34
800.053	60.77
800.364	60.21
800.675	60.54
800.986	60.18
801.297	60.81
801.608	60.08
801.918	59.5
802.229	58.8
802.54	59.95
802.851	59.83
803.161	59.68
803.472	59.95
803.782	59.55
804.093	59.05
804.403	58.69
804.714	58.86
805.024	58.27
805.334	58.64
805.645	58.65
805.955	59.32
806.265	59.38
806.575	59.55
806.885	60.2
807.195	60.2
807.505	59.96
807.815	59.43
808.125	59.63
808.435	59.64
808.745	60.17
809.055	59.65
809.365	59.8
809.674	59.77
809.984	60.29
810.294	59.79
810.603	60.48
810.913	60.87
811.222	61.31
811.532	62.38
811.841	61.78
812.151	62.05
812.46	61.64
812.769	61.38
813.079	60.99
813.388	60.82
813.697	60.56
814.006	60.67
814.315	60.87
814.624	60.67
814.933	60.84
815.242	60.73
815.551	60.35
815.86	60.31
816.169	61.06
816.478	61.14
816.786	61.01
817.095	60.78
817.404	61.14
817.712	61.09
818.021	61.34
818.33	61.36
818.638	61.65
818.947	62.03
819.255	61.91
819.563	61.89
819.872	61.89
820.18	61.94
820.488	61.87
820.796	61.67
821.105	61.89
821.413	62.1
821.721	62.2
822.029	62.16
822.337	62.14
822.645	62.1
822.953	61.89
823.26	61.99
823.568	61.93
823.876	61.76
824.184	61.87
824.491	61.74
824.799	61.78
825.107	61.61
825.414	61.47
825.722	61.6
826.029	61.53
826.337	61.42
826.644	61.15
826.951	61.1
827.259	61.24
827.566	60.9
827.873	60.73
828.18	60.77
828.488	60.87
828.795	60.56
829.102	60.43
829.409	60.54
829.716	60.56
830.023	60.58
830.329	60.53
830.636	60.15
830.943	60.13
831.25	60.16
831.557	60.32
831.863	60.23
832.17	59.71
832.476	59.67
832.783	60.15
833.089	59.75
833.396	59.65
833.702	59.56
834.009	59.86
834.315	59.65
834.621	59.24
834.928	58.96
835.234	58.91
835.54	58.96
835.846	58.74
836.152	58.65
836.458	58.79
836.764	58.92
837.07	59.01
837.376	58.36
837.682	57.27
837.988	56.76
838.293	56.61
838.599	56.84
838.905	56.54
839.211	56.08
839.516	57.29
839.822	57.34
840.127	56.89
840.433	56.9
840.738	57.11
841.044	57.08
841.349	56.47
841.654	56.03
841.959	55.56
842.265	56.33
842.57	56.75
842.875	55.76
843.18	56.67
843.485	57.3
843.79	58.63
844.095	60.12
844.4	61.31
844.705	61.5
845.01	60.57
845.315	61.41
845.619	60.61
845.924	59.82
846.229	60.09
846.533	59.52
846.838	58.85
847.142	57.87
847.447	56.11
847.751	56.26
848.056	59.37
848.36	60.62
848.664	58.7
848.969	58.84
849.273	60.35
849.577	59.73
849.881	57.85
850.185	58.07
850.489	59.16
850.794	58
851.097	56.87
851.401	56.26
851.705	54.93
852.009	54.61
852.313	53.47
852.617	55.22
852.92	56.66
853.224	56.88
853.528	56.33
853.831	58.09
854.135	60.32
854.438	57.53
854.742	56.28
855.045	55.84
855.349	54.26
855.652	53.32
855.955	51.33
856.259	49.97
856.562	49.7
856.865	47.52
857.168	47.11
857.471	48.95
857.774	48.55
858.077	50.17
858.38	50.5
858.683	53.1
858.986	52.91
859.289	51.03
859.592	52.3
859.894	51.82
860.197	50.85
860.5	52.87
860.802	53.22
861.105	52.6
861.407	55.91
861.71	55.88
862.012	54.71
862.315	55.68
862.617	56.37
862.919	57.11
863.222	59.47
863.524	61.83
863.826	61.21
864.128	65.25
864.43	63.72
864.732	64.44
865.034	64.7
865.336	61.28
865.638	62.63
865.94	61.46
866.242	62.65
866.544	62.31
866.846	58.47
867.147	58.42
867.449	59
867.751	56.51
868.052	55.46
868.354	54.24
868.655	55.76
868.957	57.22
869.258	55.04
869.56	55.81
869.861	52.78
870.162	51.33
870.463	48.01
870.765	47.2
871.066	46.9
871.367	47.03
871.668	48.14
871.969	47.91
872.27	48.57
872.571	48.44
872.872	49.6
873.173	51.5
873.473	52.9
873.774	52.28
874.075	52.77
874.376	53.94
874.676	56.34
874.977	54.25
875.277	53.06
875.578	54.42
875.878	52.56
876.179	53.89
876.479	54.76
876.78	56.38
877.08	59.08
877.38	60.12
877.68	56.79
877.981	56.96
878.281	57.38
878.581	56.71
