Data from BU58131_Reflection_00009.txt Node
Date: Mon Nov 18 16:32:26 EST 2019
User: vgr7
Spectrometer: USB2G7710
Scans to average: 3
Trigger mode: 4
Integration Time (sec): 2.000000E-2
Electric dark correction enabled: true
Boxcar width: 10
XAxis mode: Wavelengths
Number of Pixels in Spectrum: 2048
>>>>>Begin Spectral Data<<<<<
177.721	-59.74
178.105	-108.96
178.488	-104.49
178.871	108.93
179.254	40.95
179.636	-292.86
180.019	287.85
180.402	200
180.785	-162.83
181.168	128.5
181.55	65.61
181.933	71.28
182.316	65.89
182.698	88.09
183.081	96.26
183.463	130.05
183.846	90.02
184.228	128.7
184.611	147.38
184.993	246.79
185.376	177.32
185.758	168.19
186.14	240.56
186.522	332.89
186.904	306.48
187.287	239.03
187.669	374.15
188.051	411.88
188.433	854.25
188.815	856.76
189.197	2220.17
189.579	-547.4
189.961	-293.81
190.342	-322.9
190.724	-246.32
191.106	-336.15
191.488	-159.05
191.869	-144.55
192.251	-179.09
192.633	-166.27
193.014	-239.79
193.396	-193.17
193.777	-150.09
194.159	-151.23
194.54	-178.81
194.922	-140.51
195.303	-157.86
195.684	-196.89
196.065	-121.25
196.447	-76.19
196.828	-98
197.209	-98.11
197.59	-100.78
197.971	-101.37
198.352	-69.86
198.733	-83.71
199.114	-71.58
199.495	-113.93
199.876	-68.44
200.257	-60.58
200.638	-41.52
201.018	-36.51
201.399	-42.12
201.78	-43.95
202.16	-94.22
202.541	-120.45
202.922	-150.74
203.302	-154.64
203.683	-139.52
204.063	-215.24
204.444	-292.41
204.824	-330.9
205.204	-257.89
205.585	-382.06
205.965	-215.85
206.345	-327.73
206.725	-788.42
207.106	-1315.47
207.486	-5054.64
207.866	1003.64
208.246	19491.3
208.626	1890.79
209.006	-1604.62
209.386	1420.55
209.766	1826.96
210.145	-1301.66
210.525	-276.96
210.905	-247.21
211.285	-241.3
211.664	-253.11
212.044	-195.1
212.424	-146.8
212.803	-154.71
213.183	-174.73
213.562	-141.62
213.942	-158.5
214.321	-128.74
214.701	-108.41
215.08	-110.85
215.459	-126.91
215.838	-123.55
216.218	-132.13
216.597	-132.5
216.976	-130.03
217.355	-100.75
217.734	-94.79
218.113	-96.11
218.492	-109.19
218.871	-121.01
219.25	-118.22
219.629	-123.34
220.008	-128.09
220.387	-142.46
220.766	-116.54
221.144	-123.12
221.523	-119.08
221.902	-124.56
222.28	-141.62
222.659	-130.4
223.037	-119.52
223.416	-103.73
223.794	-100.65
224.173	-98.77
224.551	-95.91
224.929	-84.58
225.308	-78.95
225.686	-64.13
226.064	-59.65
226.442	-55.6
226.821	-41.02
227.199	-40.01
227.577	-34.31
227.955	-31.39
228.333	-25.27
228.711	-17.11
229.089	-13.3
229.467	-15.43
229.845	-11.71
230.222	-11.01
230.6	-14.44
230.978	-12.85
231.356	-10.05
231.733	-7.62
232.111	-6.69
232.488	-5.07
232.866	-4.69
233.243	-1.91
233.621	-2
233.998	-0.4
234.376	-2.02
234.753	-3.34
235.13	-1.98
235.508	-0.76
235.885	-0.61
236.262	-2.46
236.639	-2.83
237.016	-2.54
237.393	-1.27
237.77	-1.67
238.147	0.23
238.524	0.63
238.901	2.32
239.278	2.59
239.655	3.04
240.032	2.79
240.409	2.64
240.785	3.05
241.162	2.51
241.539	2.93
241.915	2.91
242.292	2.76
242.668	3.03
243.045	2.82
243.421	2.81
243.798	2.81
244.174	2.67
244.551	2.57
244.927	2.44
245.303	2.59
245.679	2.91
246.056	2.97
246.432	3.07
246.808	2.79
247.184	2.57
247.56	2.32
247.936	2.26
248.312	2.27
248.688	2.17
249.064	2.2
249.44	1.97
249.815	2.09
250.191	2.38
250.567	2.72
250.943	2.9
251.318	2.75
251.694	2.9
252.069	3.14
252.445	3.18
252.82	3.36
253.196	3.21
253.571	3.07
253.947	2.73
254.322	2.93
254.697	2.69
255.073	2.68
255.448	2.5
255.823	2.64
256.198	2.86
256.573	2.54
256.948	2.73
257.323	2.87
257.698	2.85
258.073	2.76
258.448	2.72
258.823	2.58
259.198	2.55
259.573	2.45
259.948	2.42
260.322	2.25
260.697	2.03
261.072	2.05
261.446	2.02
261.821	2.1
262.195	2.12
262.57	2.27
262.944	2.22
263.319	2.29
263.693	2.27
264.067	2.32
264.442	2.54
264.816	2.48
265.19	2.32
265.564	2.27
265.938	2.35
266.313	2.12
266.687	2.26
267.061	2.4
267.435	2.37
267.809	2.47
268.183	2.78
268.556	2.83
268.93	2.92
269.304	2.92
269.678	2.95
270.051	2.89
270.425	2.83
270.799	2.89
271.172	2.94
271.546	2.76
271.919	2.61
272.293	2.58
272.666	2.66
273.04	2.86
273.413	2.78
273.787	2.76
274.16	2.84
274.533	2.79
274.906	2.62
275.279	2.81
275.653	2.81
276.026	2.56
276.399	2.58
276.772	2.57
277.145	2.51
277.518	2.52
277.891	2.55
278.263	2.52
278.636	2.6
279.009	2.64
279.382	3.01
279.755	2.89
280.127	3.01
280.5	3.07
280.872	3.09
281.245	3.26
281.617	3.27
281.99	3.16
282.362	3.13
282.735	3.11
283.107	3.07
283.479	2.96
283.852	3.04
284.224	3.16
284.596	3.05
284.968	3.11
285.34	3.13
285.713	2.98
286.085	3.01
286.457	3.14
286.829	3.13
287.201	3.06
287.572	3.13
287.944	3.02
288.316	2.92
288.688	2.89
289.06	2.8
289.431	2.83
289.803	2.88
290.175	2.97
290.546	3.26
290.918	3.17
291.289	3.24
291.661	3.36
292.032	3.45
292.403	3.63
292.775	3.74
293.146	3.67
293.517	3.79
293.889	3.9
294.26	3.84
294.631	3.89
295.002	3.8
295.373	3.88
295.744	3.95
296.115	3.97
296.486	3.89
296.857	3.98
297.228	3.92
297.599	3.99
297.97	3.97
298.34	3.95
298.711	4.1
299.082	4.19
299.452	4.17
299.823	4.24
300.194	4.25
300.564	4.17
300.935	4.31
301.305	4.37
301.676	4.41
302.046	4.49
302.416	4.78
302.787	5.01
303.157	5.06
303.527	5.15
303.897	5.29
304.267	5.67
304.637	5.77
305.008	5.95
305.378	6.13
305.748	6.31
306.117	6.22
306.487	6.33
306.857	6.37
307.227	6.57
307.597	6.61
307.967	6.77
308.336	6.97
308.706	7.16
309.076	7.3
309.445	7.32
309.815	7.38
310.184	7.3
310.554	7.39
310.923	7.64
311.293	7.78
311.662	7.76
312.031	7.67
312.401	7.73
312.77	7.91
313.139	7.87
313.508	7.94
313.877	8.11
314.246	8.21
314.616	8.26
314.985	8.34
315.353	8.39
315.722	8.52
316.091	8.61
316.46	8.38
316.829	8.43
317.198	8.54
317.567	8.62
317.935	8.5
318.304	8.47
318.672	8.58
319.041	8.75
319.41	8.87
319.778	9
320.147	9.07
320.515	9.03
320.883	9.09
321.252	9.16
321.62	9.3
321.988	9.29
322.357	9.55
322.725	9.49
323.093	9.78
323.461	9.74
323.829	9.83
324.197	10.14
324.565	10.35
324.933	10.45
325.301	10.59
325.669	10.78
326.037	10.89
326.405	10.86
326.772	10.81
327.14	11.01
327.508	11.1
327.875	11.08
328.243	11.07
328.61	11.05
328.978	11.14
329.346	11.24
329.713	11.32
330.08	11.22
330.448	11.32
330.815	11.13
331.182	11.21
331.55	11.21
331.917	11.29
332.284	11.41
332.651	11.43
333.018	11.42
333.385	11.51
333.752	11.65
334.119	11.63
334.486	11.69
334.853	11.71
335.22	11.76
335.587	11.97
335.954	12.02
336.32	12.16
336.687	12.16
337.054	12.16
337.42	12.26
337.787	12.37
338.153	12.4
338.52	12.57
338.886	12.61
339.253	12.66
339.619	12.59
339.986	12.43
340.352	12.53
340.718	12.45
341.084	12.46
341.451	12.56
341.817	12.62
342.183	12.7
342.549	12.68
342.915	12.7
343.281	12.63
343.647	12.7
344.013	12.82
344.379	12.83
344.745	12.84
345.11	12.82
345.476	12.93
345.842	12.96
346.208	13.03
346.573	13.08
346.939	13.16
347.304	13.18
347.67	13.26
348.035	13.23
348.401	13.35
348.766	13.41
349.132	13.27
349.497	13.27
349.862	13.34
350.228	13.43
350.593	13.46
350.958	13.45
351.323	13.48
351.688	13.52
352.053	13.66
352.418	13.69
352.783	13.75
353.148	13.75
353.513	13.83
353.878	13.79
354.243	13.87
354.608	13.82
354.972	13.84
355.337	13.86
355.702	13.85
356.066	13.85
356.431	13.73
356.795	13.67
357.16	13.62
357.524	13.49
357.889	13.37
358.253	13.32
358.618	13.44
358.982	13.37
359.346	13.33
359.71	13.19
360.075	13.13
360.439	13.14
360.803	13
361.167	12.88
361.531	12.87
361.895	12.71
362.259	12.65
362.623	12.56
362.987	12.54
363.351	12.53
363.714	12.52
364.078	12.58
364.442	12.59
364.806	12.57
365.169	12.57
365.533	12.56
365.896	12.54
366.26	12.45
366.623	12.45
366.987	12.31
367.35	12.29
367.714	12.26
368.077	12.11
368.44	12.05
368.803	12.02
369.167	11.89
369.53	11.89
369.893	11.85
370.256	11.82
370.619	11.74
370.982	11.6
371.345	11.47
371.708	11.36
372.071	11.24
372.434	11.16
372.797	11.05
373.159	10.94
373.522	10.85
373.885	10.71
374.247	10.6
374.61	10.62
374.973	10.55
375.335	10.42
375.698	10.37
376.06	10.28
376.423	10.2
376.785	10.09
377.147	10.04
377.51	9.96
377.872	9.87
378.234	9.78
378.596	9.73
378.958	9.62
379.321	9.58
379.683	9.52
380.045	9.48
380.407	9.39
380.769	9.35
381.13	9.26
381.492	9.15
381.854	9.06
382.216	8.93
382.578	8.85
382.939	8.75
383.301	8.69
383.663	8.65
384.024	8.58
384.386	8.6
384.747	8.49
385.109	8.45
385.47	8.36
385.832	8.31
386.193	8.24
386.554	8.2
386.916	8.06
387.277	8
387.638	7.92
387.999	7.86
388.36	7.76
388.721	7.67
389.082	7.67
389.443	7.61
389.804	7.53
390.165	7.45
390.526	7.42
390.887	7.31
391.248	7.25
391.609	7.16
391.969	7.09
392.33	7.04
392.691	6.97
393.051	6.95
393.412	6.86
393.772	6.79
394.133	6.7
394.493	6.68
394.854	6.62
395.214	6.56
395.574	6.52
395.935	6.48
396.295	6.47
396.655	6.34
397.015	6.29
397.376	6.23
397.736	6.13
398.096	6.08
398.456	6.01
398.816	5.97
399.176	5.92
399.535	5.82
399.895	5.76
400.255	5.69
400.615	5.61
400.975	5.55
401.334	5.5
401.694	5.47
402.054	5.42
402.413	5.39
402.773	5.32
403.132	5.21
403.492	5.18
403.851	5.1
404.211	5.09
404.57	5.04
404.929	5.01
405.288	5
405.648	4.95
406.007	4.92
406.366	4.86
406.725	4.84
407.084	4.85
407.443	4.82
407.802	4.81
408.161	4.79
408.52	4.74
408.879	4.73
409.238	4.7
409.596	4.67
409.955	4.6
410.314	4.59
410.673	4.58
411.031	4.54
411.39	4.53
411.748	4.5
412.107	4.49
412.465	4.44
412.824	4.42
413.182	4.38
413.54	4.36
413.899	4.33
414.257	4.32
414.615	4.25
414.974	4.21
415.332	4.16
415.69	4.14
416.048	4.12
416.406	4.06
416.764	4.03
417.122	4.01
417.48	3.99
417.838	3.96
418.195	3.94
418.553	3.93
418.911	3.89
419.269	3.87
419.626	3.82
419.984	3.8
420.342	3.78
420.699	3.76
421.057	3.75
421.414	3.74
421.772	3.72
422.129	3.7
422.486	3.68
422.844	3.67
423.201	3.62
423.558	3.62
423.915	3.61
424.273	3.58
424.63	3.56
424.987	3.54
425.344	3.52
425.701	3.48
426.058	3.48
426.415	3.46
426.772	3.45
427.128	3.43
427.485	3.43
427.842	3.42
428.199	3.41
428.555	3.39
428.912	3.37
429.269	3.34
429.625	3.32
429.982	3.28
430.338	3.29
430.695	3.31
431.051	3.27
431.407	3.28
431.764	3.27
432.12	3.25
432.476	3.25
432.832	3.23
433.189	3.26
433.545	3.22
433.901	3.21
434.257	3.19
434.613	3.22
434.969	3.24
435.325	3.23
435.681	3.23
436.036	3.22
436.392	3.23
436.748	3.21
437.104	3.23
437.459	3.22
437.815	3.22
438.171	3.22
438.526	3.23
438.882	3.22
439.237	3.24
439.593	3.26
439.948	3.24
440.304	3.25
440.659	3.25
441.014	3.26
441.369	3.26
441.725	3.24
442.08	3.23
442.435	3.2
442.79	3.19
443.145	3.17
443.5	3.17
443.855	3.16
444.21	3.16
444.565	3.14
444.92	3.14
445.275	3.11
445.629	3.1
445.984	3.1
446.339	3.05
446.693	3.02
447.048	2.99
447.403	2.99
447.757	2.99
448.112	2.96
448.466	2.93
448.82	2.94
449.175	2.93
449.529	2.93
449.883	2.91
450.238	2.9
450.592	2.89
450.946	2.87
451.3	2.84
451.654	2.84
452.008	2.84
452.362	2.82
452.716	2.82
453.07	2.82
453.424	2.81
453.778	2.82
454.132	2.83
454.486	2.81
454.839	2.81
455.193	2.8
455.547	2.81
455.9	2.81
456.254	2.79
456.607	2.8
456.961	2.79
457.314	2.79
457.668	2.8
458.021	2.81
458.375	2.81
458.728	2.83
459.081	2.83
459.434	2.8
459.787	2.82
460.141	2.82
460.494	2.8
460.847	2.79
461.2	2.8
461.553	2.8
461.906	2.82
462.259	2.83
462.611	2.85
462.964	2.87
463.317	2.87
463.67	2.89
464.022	2.9
464.375	2.9
464.728	2.9
465.08	2.91
465.433	2.91
465.785	2.92
466.138	2.92
466.49	2.94
466.843	2.97
467.195	2.97
467.547	3.01
467.899	3.03
468.252	3.05
468.604	3.08
468.956	3.11
469.308	3.11
469.66	3.11
470.012	3.11
470.364	3.14
470.716	3.15
471.068	3.17
471.42	3.2
471.772	3.23
472.123	3.26
472.475	3.27
472.827	3.29
473.178	3.32
473.53	3.34
473.882	3.33
474.233	3.34
474.585	3.36
474.936	3.35
475.288	3.36
475.639	3.36
475.99	3.36
476.342	3.36
476.693	3.38
477.044	3.4
477.395	3.38
477.746	3.37
478.097	3.37
478.448	3.35
478.8	3.33
479.15	3.31
479.501	3.3
479.852	3.3
480.203	3.28
480.554	3.29
480.905	3.28
481.255	3.3
481.606	3.3
481.957	3.3
482.307	3.31
482.658	3.29
483.009	3.28
483.359	3.27
483.709	3.26
484.06	3.26
484.41	3.25
484.761	3.25
485.111	3.25
485.461	3.25
485.811	3.24
486.162	3.24
486.512	3.24
486.862	3.24
487.212	3.24
487.562	3.25
487.912	3.24
488.262	3.24
488.612	3.23
488.961	3.23
489.311	3.23
489.661	3.23
490.011	3.23
490.36	3.24
490.71	3.25
491.06	3.26
491.409	3.26
491.759	3.27
492.108	3.27
492.458	3.27
492.807	3.28
493.157	3.3
493.506	3.33
493.855	3.34
494.204	3.35
494.554	3.37
494.903	3.37
495.252	3.37
495.601	3.4
495.95	3.42
496.299	3.45
496.648	3.46
496.997	3.48
497.346	3.52
497.695	3.56
498.043	3.6
498.392	3.61
498.741	3.65
499.09	3.67
499.438	3.72
499.787	3.78
500.135	3.85
500.484	3.92
500.832	3.96
501.181	3.98
501.529	4.02
501.878	4.08
502.226	4.15
502.574	4.22
502.923	4.27
503.271	4.31
503.619	4.38
503.967	4.45
504.315	4.54
504.663	4.63
505.011	4.7
505.359	4.75
505.707	4.85
506.055	4.9
506.403	5.01
506.751	5.1
507.098	5.17
507.446	5.23
507.794	5.3
508.141	5.37
508.489	5.49
508.837	5.6
509.184	5.69
509.531	5.81
509.879	5.92
510.226	6.05
510.574	6.16
510.921	6.27
511.268	6.37
511.616	6.48
511.963	6.58
512.31	6.72
512.657	6.86
513.004	6.98
513.351	7.14
513.698	7.25
514.045	7.39
514.392	7.54
514.739	7.69
515.086	7.86
515.432	8.02
515.779	8.16
516.126	8.32
516.473	8.48
516.819	8.59
517.166	8.72
517.512	8.84
517.859	8.96
518.205	9.07
518.552	9.2
518.898	9.32
519.245	9.45
519.591	9.57
519.937	9.68
520.283	9.82
520.629	9.97
520.976	10.14
521.322	10.31
521.668	10.44
522.014	10.59
522.36	10.75
522.706	10.94
523.052	11.13
523.398	11.29
523.743	11.48
524.089	11.65
524.435	11.84
524.781	12.03
525.126	12.23
525.472	12.41
525.817	12.56
526.163	12.69
526.509	12.82
526.854	12.94
527.199	13.06
527.545	13.16
527.89	13.27
528.235	13.37
528.581	13.5
528.926	13.61
529.271	13.74
529.616	13.85
529.961	13.95
530.306	14.08
530.651	14.2
530.996	14.33
531.341	14.47
531.686	14.62
532.031	14.76
532.376	14.87
532.721	14.99
533.065	15.13
533.41	15.28
533.755	15.43
534.099	15.57
534.444	15.71
534.788	15.86
535.133	15.99
535.477	16.15
535.822	16.27
536.166	16.44
536.51	16.6
536.855	16.79
537.199	16.97
537.543	17.14
537.887	17.34
538.231	17.54
538.576	17.74
538.92	17.9
539.264	18.06
539.608	18.25
539.951	18.41
540.295	18.55
540.639	18.71
540.983	18.86
541.327	19
541.671	19.16
542.014	19.31
542.358	19.45
542.701	19.58
543.045	19.72
543.389	19.86
543.732	20.02
544.075	20.17
544.419	20.31
544.762	20.45
545.105	20.62
545.449	20.77
545.792	20.91
546.135	21.11
546.478	21.3
546.821	21.5
547.165	21.68
547.508	21.9
547.851	22.06
548.194	22.26
548.536	22.47
548.879	22.68
549.222	22.86
549.565	23.09
549.908	23.3
550.25	23.5
550.593	23.71
550.936	23.88
551.278	24.05
551.621	24.26
551.963	24.47
552.306	24.64
552.648	24.81
552.991	25.03
553.333	25.18
553.675	25.38
554.017	25.55
554.36	25.79
554.702	25.92
555.044	26.12
555.386	26.26
555.728	26.46
556.07	26.64
556.412	26.81
556.754	26.93
557.096	27.08
557.438	27.22
557.78	27.35
558.121	27.53
558.463	27.71
558.805	27.85
559.147	27.98
559.488	28.14
559.83	28.31
560.171	28.46
560.513	28.62
560.854	28.75
561.196	28.91
561.537	28.99
561.878	29.14
562.22	29.2
562.561	29.34
562.902	29.45
563.243	29.55
563.584	29.7
563.925	29.81
564.266	29.96
564.607	30.09
564.948	30.23
565.289	30.33
565.63	30.4
565.971	30.53
566.312	30.62
566.653	30.69
566.993	30.79
567.334	30.9
567.675	30.98
568.015	31.07
568.356	31.18
568.696	31.32
569.037	31.47
569.377	31.64
569.718	31.77
570.058	31.86
570.398	31.92
570.739	32.01
571.079	32.11
571.419	32.15
571.759	32.26
572.099	32.34
572.439	32.41
572.779	32.5
573.119	32.62
573.459	32.74
573.799	32.89
574.139	33.02
574.479	33.1
574.819	33.16
575.158	33.25
575.498	33.29
575.838	33.34
576.177	33.32
576.517	33.34
576.856	33.39
577.196	33.44
577.535	33.55
577.875	33.62
578.214	33.69
578.553	33.82
578.893	33.88
579.232	33.98
579.571	34.04
579.91	34.09
580.25	34.11
580.589	34.16
580.928	34.22
581.267	34.2
581.606	34.26
581.945	34.31
582.283	34.36
582.622	34.37
582.961	34.42
583.3	34.55
583.639	34.64
583.977	34.75
584.316	34.8
584.654	34.86
584.993	34.95
585.332	34.98
585.67	35.03
586.008	35.04
586.347	35.03
586.685	35.04
587.024	35.17
587.362	35.22
587.7	35.25
588.038	35.24
588.376	35.27
588.715	35.26
589.053	35.35
589.391	35.4
589.729	35.45
590.067	35.44
590.404	35.48
590.742	35.48
591.08	35.48
591.418	35.53
591.756	35.5
592.093	35.51
592.431	35.6
592.769	35.62
593.106	35.74
593.444	35.75
593.781	35.84
594.119	35.86
594.456	35.82
594.793	35.82
595.131	35.88
595.468	35.82
595.805	35.86
596.143	35.88
596.48	35.91
596.817	35.89
597.154	35.93
597.491	35.85
597.828	35.89
598.165	35.9
598.502	35.93
598.839	36.04
599.176	36.05
599.512	36.01
599.849	36
600.186	35.94
600.523	36.03
600.859	36.09
601.196	36.15
601.532	36.22
601.869	36.22
602.205	36.24
602.542	36.31
602.878	36.38
603.215	36.4
603.551	36.38
603.887	36.41
604.223	36.49
604.56	36.56
604.896	36.57
605.232	36.57
605.568	36.54
605.904	36.53
606.24	36.54
606.576	36.52
606.912	36.57
607.248	36.63
607.583	36.63
607.919	36.62
608.255	36.58
608.591	36.64
608.926	36.76
609.262	36.82
609.597	36.81
609.933	36.76
610.268	36.81
610.604	36.87
610.939	36.93
611.275	36.92
611.61	36.95
611.945	36.99
612.281	37.01
612.616	37.05
612.951	37.09
613.286	37.09
613.621	37.1
613.956	37.07
614.291	37.08
614.626	37.06
614.961	37.07
615.296	37.06
615.631	37.08
615.966	36.99
616.3	36.9
616.635	36.98
616.97	37.03
617.304	36.96
617.639	36.91
617.973	36.89
618.308	36.86
618.642	36.86
618.977	36.84
619.311	36.83
619.646	36.85
619.98	36.71
620.314	36.78
620.648	36.85
620.983	36.84
621.317	36.83
621.651	36.92
621.985	36.91
622.319	36.91
622.653	36.85
622.987	36.96
623.321	36.92
623.655	36.89
623.988	36.88
624.322	36.91
624.656	36.94
624.99	36.97
625.323	37.01
625.657	36.99
625.99	37.05
626.324	37.1
626.657	37.13
626.991	37.23
627.324	37.19
627.658	37.21
627.991	37.2
628.324	37.17
628.657	37.07
628.991	37.08
629.324	37.15
629.657	37.12
629.99	37.12
630.323	37.18
630.656	37.22
630.989	37.31
631.322	37.39
631.655	37.41
631.987	37.43
632.32	37.52
632.653	37.56
632.986	37.51
633.318	37.52
633.651	37.61
633.984	37.63
634.316	37.62
634.649	37.68
634.981	37.77
635.313	37.84
635.646	37.9
635.978	37.93
636.31	37.87
636.643	37.96
636.975	37.96
637.307	37.91
637.639	37.97
637.971	37.92
638.303	37.81
638.635	37.78
638.967	37.79
639.299	37.73
639.631	37.74
639.963	37.66
640.295	37.66
640.626	37.64
640.958	37.62
641.29	37.67
641.621	37.57
641.953	37.49
642.285	37.53
642.616	37.58
642.948	37.62
643.279	37.55
643.61	37.5
643.942	37.53
644.273	37.66
644.604	37.6
644.936	37.57
645.267	37.54
645.598	37.53
645.929	37.55
646.26	37.53
646.591	37.39
646.922	37.41
647.253	37.37
647.584	37.28
647.915	37.29
648.245	37.28
648.576	37.29
648.907	37.36
649.238	37.31
649.568	37.26
649.899	37.15
650.229	37.22
650.56	37.28
650.89	37.21
651.221	37.18
651.551	37.18
651.882	37.14
652.212	37.22
652.542	37.29
652.872	37.18
653.203	37.15
653.533	37.27
653.863	37.36
654.193	37.37
654.523	37.29
654.853	37.25
655.183	37.25
655.513	37.3
655.843	37.29
656.172	37.3
656.502	37.28
656.832	37.34
657.162	37.28
657.491	37.28
657.821	37.37
658.15	37.34
658.48	37.38
658.809	37.43
659.139	37.4
659.468	37.28
659.798	37.3
660.127	37.31
660.456	37.41
660.785	37.48
661.115	37.51
661.444	37.62
661.773	37.69
662.102	37.7
662.431	37.66
662.76	37.67
663.089	37.68
663.418	37.77
663.747	37.77
664.076	37.96
664.404	37.94
664.733	37.81
665.062	37.74
665.39	37.7
665.719	37.68
666.048	37.64
666.376	37.74
666.705	37.75
667.033	37.78
667.362	37.58
667.69	37.47
668.018	37.57
668.347	37.51
668.675	37.47
669.003	37.47
669.331	37.56
669.659	37.64
669.987	37.57
670.315	37.53
670.643	37.58
670.971	37.43
671.299	37.41
671.627	37.49
671.955	37.64
672.283	37.63
672.61	37.62
672.938	37.72
673.266	37.72
673.593	37.77
673.921	37.75
674.249	37.85
674.576	37.88
674.904	37.72
675.231	37.74
675.558	37.72
675.886	37.64
676.213	37.59
676.54	37.56
676.867	37.63
677.195	37.67
677.522	37.5
677.849	37.54
678.176	37.5
678.503	37.39
678.83	37.29
679.157	37.23
679.484	37.25
679.81	37.19
680.137	37.2
680.464	37.13
680.791	37.14
681.117	37.11
681.444	37.08
681.771	37.08
682.097	37.15
682.424	37.23
682.75	37.36
683.077	37.34
683.403	37.28
683.729	37.28
684.056	37.17
684.382	37.19
684.708	37.26
685.034	37.29
685.36	37.41
685.686	37.38
686.012	37.52
686.339	37.53
686.664	37.69
686.99	37.82
687.316	37.85
687.642	37.87
687.968	37.98
688.294	38.03
688.619	38.08
688.945	38.01
689.271	38.02
689.596	38.01
689.922	37.97
690.247	37.99
690.573	37.89
690.898	37.83
691.224	37.98
691.549	37.95
691.874	37.96
692.2	37.94
692.525	38.09
692.85	38.18
693.175	38.13
693.5	37.96
693.825	37.76
694.15	37.86
694.475	37.74
694.8	37.71
695.125	37.7
695.45	37.68
695.775	37.67
696.099	37.64
696.424	37.44
696.749	37.31
697.073	37.34
697.398	37.42
697.723	37.52
698.047	37.36
698.372	37.36
698.696	37.34
699.02	37.24
699.345	37.2
699.669	37.1
699.993	37.16
700.318	37.27
700.642	37.32
700.966	37.28
701.29	37.41
701.614	37.29
701.938	37.18
702.262	37.16
702.586	37.12
702.91	37.04
703.234	37.32
703.557	37.43
703.881	37.44
704.205	37.56
704.529	37.71
704.852	37.92
705.176	37.85
705.499	37.88
705.823	37.87
706.146	37.83
706.47	37.78
706.793	37.79
707.117	37.75
707.44	37.75
707.763	37.71
708.086	37.61
708.409	37.58
708.733	37.76
709.056	37.85
709.379	37.88
709.702	37.87
710.025	37.71
710.348	37.75
710.671	37.7
710.993	37.57
711.316	37.56
711.639	37.64
711.962	37.57
712.284	37.59
712.607	37.63
712.93	37.75
713.252	37.63
713.575	37.74
713.897	37.76
714.22	37.8
714.542	37.84
714.864	37.86
715.187	37.96
715.509	37.95
715.831	37.84
716.153	37.82
716.475	37.71
716.798	37.94
717.12	37.94
717.442	37.83
717.764	37.77
718.085	37.61
718.407	37.46
718.729	37.51
719.051	37.72
719.373	37.74
719.695	37.45
720.016	37.68
720.338	37.56
720.659	37.46
720.981	37.29
721.302	37.3
721.624	37.1
721.945	36.89
722.267	36.73
722.588	36.67
722.909	36.6
723.231	36.85
723.552	36.42
723.873	36.47
724.194	36.42
724.515	36.4
724.836	36.31
725.157	36.36
725.478	36.24
725.799	36.03
726.12	36.09
726.441	36.2
726.762	36.01
727.083	35.99
727.403	35.84
727.724	35.95
728.045	35.89
728.365	35.86
728.686	36.02
729.006	36.03
729.327	36.04
729.647	35.97
729.967	35.89
730.288	35.97
730.608	35.89
730.928	36.24
731.249	36.11
731.569	36.39
731.889	36.37
732.209	36.48
732.529	36.43
732.849	36.21
733.169	36.4
733.489	36.59
733.809	36.58
734.129	36.74
734.448	36.65
734.768	36.76
735.088	37.01
735.408	37.18
735.727	37.06
736.047	37.29
736.366	37.63
736.686	37.67
737.005	37.73
737.325	37.81
737.644	37.67
737.963	37.77
738.283	37.56
738.602	37.55
738.921	37.69
739.24	37.82
739.56	37.92
739.879	37.92
740.198	37.84
740.517	37.78
740.836	37.77
741.155	37.73
741.473	37.77
741.792	37.46
742.111	37.22
742.43	37.31
742.748	37.18
743.067	36.96
743.386	36.9
743.704	36.87
744.023	36.82
744.341	36.79
744.66	36.96
744.978	36.79
745.297	36.64
745.615	36.63
745.933	36.49
746.252	36.55
746.57	36.31
746.888	36.27
747.206	36.26
747.524	36.51
747.842	36.48
748.16	36.53
748.478	36.78
748.796	36.87
749.114	37.17
749.432	37.07
749.749	37.09
750.067	36.86
750.385	36.88
750.703	36.97
751.02	36.8
751.338	36.8
751.655	37.04
751.973	37.34
752.29	37.24
752.608	37.3
752.925	37.5
753.242	37.74
753.56	37.67
753.877	37.84
754.194	37.77
754.511	38.06
754.828	37.94
755.145	38.18
755.462	38.19
755.779	38.05
756.096	37.81
756.413	37.79
756.73	38.24
757.047	38.3
757.364	38.2
757.68	38.6
757.997	38.56
758.314	38.76
758.63	38.86
758.947	38.77
759.264	38.57
759.58	38.58
759.896	38.36
760.213	38.16
760.529	38.05
760.846	37.83
761.162	37.58
761.478	37.52
761.794	37.31
762.11	37.43
762.426	37.36
762.743	37.49
763.059	37.5
763.375	37.37
763.69	37.24
764.006	37.2
764.322	37.1
764.638	37.08
764.954	36.89
765.27	36.69
765.585	36.85
765.901	37.14
766.216	37.07
766.532	37.12
766.848	37.18
767.163	37.32
767.478	37.23
767.794	37.4
768.109	37.2
768.424	37.39
768.74	37.29
769.055	37.3
769.37	37.68
769.685	37.99
770	38.05
770.315	38.36
770.63	38.39
770.945	38.43
771.26	38.61
771.575	38.73
771.89	38.83
772.205	38.56
772.52	38.69
772.834	38.96
773.149	38.62
773.464	38.99
773.778	38.47
774.093	38.4
774.407	38.55
774.722	39.03
775.036	38.67
775.351	38.64
775.665	38.65
775.979	38.38
776.293	37.74
776.608	37.71
776.922	37.61
777.236	37.8
777.55	37.56
777.864	37.27
778.178	37.12
778.492	37.07
778.806	36.69
779.12	36.12
779.434	35.87
779.747	35.77
780.061	35.73
780.375	35.82
780.689	36.11
781.002	36.05
781.316	35.48
781.629	35.58
781.943	35.7
782.256	35.96
782.57	35.89
782.883	36.02
783.196	35.72
783.51	35.63
783.823	35.41
784.136	35.54
784.449	35.45
784.762	35.25
785.075	35.06
785.388	35.62
785.701	35.59
786.014	35.28
786.327	35.98
786.64	35.86
786.953	36.06
787.266	36.05
787.578	35.77
787.891	35.43
788.204	35.22
788.516	34.91
788.829	34.98
789.141	34.87
789.454	35
789.766	35.43
790.079	35.66
790.391	35.63
790.703	35.88
791.016	35.92
791.328	36.06
791.64	36.21
791.952	36.27
792.264	36.71
792.576	36.8
792.888	36.53
793.2	36.89
793.512	36.71
793.824	36.83
794.136	37.11
794.448	38.3
794.76	38.6
795.071	39.55
795.383	39.35
795.695	39.15
796.006	38.47
796.318	38.19
796.629	38.16
796.941	38.25
797.252	37.77
797.564	37.9
797.875	38.03
798.186	37.43
798.497	37.42
798.809	36.77
799.12	36.94
799.431	37.29
799.742	37.03
800.053	37.19
800.364	37.05
800.675	36.66
800.986	35.92
801.297	35.38
801.608	34.56
801.918	34.49
802.229	34.85
802.54	35.13
802.851	35.27
803.161	35.19
803.472	35.1
803.782	35.27
804.093	35.51
804.403	35.87
804.714	36.65
805.024	36.03
805.334	36.59
805.645	36.51
805.955	35.55
806.265	35.44
806.575	35.24
806.885	35.24
807.195	34.75
807.505	35.02
807.815	35.53
808.125	35.33
808.435	34.88
808.745	34.86
809.055	35.73
809.365	35.45
809.674	35.37
809.984	35.43
810.294	35.45
810.603	35.14
810.913	35.11
811.222	34.97
811.532	35.33
811.841	35.36
812.151	35.7
812.46	35.73
812.769	35.71
813.079	36.06
813.388	36.1
813.697	37.01
814.006	37.21
814.315	37.73
814.624	38.08
814.933	38.04
815.242	38.18
815.551	37.42
815.86	37.51
816.169	37.22
816.478	36.84
816.786	37.59
817.095	37.41
817.404	37.06
817.712	36.97
818.021	37.32
818.33	36.81
818.638	36.29
818.947	36.97
819.255	37.11
819.563	36.78
819.872	36.63
820.18	36.78
820.488	36.5
820.796	36.37
821.105	36.21
821.413	36.52
821.721	36.33
822.029	36.32
822.337	36.54
822.645	36.53
822.953	36.76
823.26	36.68
823.568	36.77
823.876	36.67
824.184	36.48
824.491	36.41
824.799	36.5
825.107	36.59
825.414	36.68
825.722	36.53
826.029	36.64
826.337	36.74
826.644	36.61
826.951	36.86
827.259	36.96
827.566	37.04
827.873	37
828.18	37.35
828.488	37.43
828.795	37.13
829.102	37.42
829.409	37.46
829.716	37.07
830.023	36.91
830.329	37.02
830.636	37.42
830.943	37.55
831.25	37.39
831.557	37.16
831.863	36.73
832.17	36.83
832.476	36.75
832.783	36.72
833.089	36.9
833.396	36.26
833.702	36.2
834.009	36.19
834.315	36.44
834.621	36.28
834.928	36.36
835.234	36.37
835.54	36.38
835.846	36.02
836.152	36.41
836.458	36.63
836.764	36.67
837.07	36.46
837.376	36.41
837.682	36.81
837.988	37.31
838.293	37.23
838.599	37.44
838.905	37.31
839.211	37.22
839.516	36.8
839.822	37.62
840.127	37.23
840.433	37.73
840.738	37.17
841.044	35.67
841.349	35.63
841.654	35.72
841.959	35.2
842.265	35.89
842.57	36.1
842.875	36.03
843.18	36.12
843.485	37.15
843.79	36.94
844.095	35.71
844.4	35.88
844.705	35.5
845.01	36.58
845.315	37.97
845.619	37.32
845.924	38.23
846.229	38.83
846.533	38.55
846.838	37.05
847.142	37.54
847.447	39.16
847.751	40.76
848.056	40.97
848.36	40.56
848.664	39.13
848.969	37.94
849.273	36.88
849.577	35.07
849.881	34.74
850.185	36.82
850.489	36.92
850.794	35.11
851.097	35.36
851.401	36.2
851.705	32.9
852.009	34.59
852.313	33.71
852.617	32.8
852.92	34.73
853.224	34.48
853.528	35.15
853.831	36.6
854.135	36.45
854.438	37.3
854.742	35.41
855.045	34.51
855.349	36.7
855.652	37.63
855.955	41.2
856.259	41.18
856.562	37.58
856.865	38.8
857.168	40.35
857.471	40.27
857.774	37.82
858.077	40.16
858.38	40.45
858.683	41.97
858.986	42.03
859.289	39.23
859.592	39.91
859.894	39.72
860.197	37.62
860.5	36
860.802	35.25
861.105	37.68
861.407	38.81
861.71	35.34
862.012	37.1
862.315	34.95
862.617	32.1
862.919	32.04
863.222	32.01
863.524	32.62
863.826	33.34
864.128	34.9
864.43	32.56
864.732	32.08
865.034	31.92
865.336	31.14
865.638	32.81
865.94	33.63
866.242	31.53
866.544	32.14
866.846	32.5
867.147	33.82
867.449	34.32
867.751	34.12
868.052	35.89
868.354	32.81
868.655	34.12
868.957	36.78
869.258	38
869.56	38.66
869.861	35.71
870.162	33.77
870.463	31.79
870.765	33.35
871.066	32.39
871.367	33.41
871.668	34.37
871.969	34.14
872.27	31.94
872.571	32.29
872.872	32.24
873.173	29.86
873.473	29.92
873.774	29.34
874.075	29.98
874.376	28.98
874.676	30.73
874.977	30.16
875.277	29.24
875.578	29.3
875.878	28.47
876.179	30
876.479	32.32
876.78	31.27
877.08	31.77
877.38	32.17
877.68	29.48
877.981	27.25
878.281	26.63
878.581	30
