Data from BU58002_Reflection_00011.txt Node
Date: Tue Nov 19 10:57:55 EST 2019
User: vgr7
Spectrometer: USB2G7710
Scans to average: 3
Trigger mode: 4
Integration Time (sec): 2.000000E-2
Electric dark correction enabled: true
Boxcar width: 10
XAxis mode: Wavelengths
Number of Pixels in Spectrum: 2048
>>>>>Begin Spectral Data<<<<<
177.721	99.51
178.105	76.1
178.488	125.46
178.871	347.73
179.254	259.62
179.636	276.55
180.019	309.8
180.402	400
180.785	-309.37
181.168	-767.65
181.55	1.44
181.933	50.97
182.316	75.63
182.698	69.04
183.081	27.9
183.463	12.4
183.846	30.26
184.228	225
184.611	85.96
184.993	-61.36
185.376	40.05
185.758	677.59
186.14	-121.15
186.522	-194.49
186.904	405
187.287	382.89
187.669	-61.76
188.051	-129.26
188.433	1095.28
188.815	-2480.36
189.197	-560.07
189.579	-282.17
189.961	-115.12
190.342	-85.2
190.724	-77.45
191.106	-106.62
191.488	-134.94
191.869	-134.2
192.251	-126.12
192.633	-90.23
193.014	-76.93
193.396	-71.63
193.777	-81.14
194.159	-87.96
194.54	-69.27
194.922	-74.77
195.303	-82.02
195.684	-102.62
196.065	-105.83
196.447	-66.74
196.828	-57.91
197.209	-43.15
197.59	-42.01
197.971	-42.38
198.352	-36.72
198.733	-46.9
199.114	-41.77
199.495	-39.71
199.876	-41.79
200.257	-42.96
200.638	-53.33
201.018	-69.47
201.399	-54.75
201.78	-34.15
202.16	-45.17
202.541	-34.28
202.922	-41.42
203.302	-21.25
203.683	-19.04
204.063	-15.69
204.444	-6.72
204.824	-5.72
205.204	-21.63
205.585	-16.83
205.965	-7.41
206.345	-5.34
206.725	-3.91
207.106	-10.93
207.486	-11.23
207.866	-16.82
208.246	-9.45
208.626	-19.78
209.006	-19.4
209.386	-8.92
209.766	-16.52
210.145	-6.84
210.525	-22.5
210.905	-16.27
211.285	-24.49
211.664	-16.2
212.044	-19.92
212.424	-32.44
212.803	-37.13
213.183	-37.5
213.562	-39.15
213.942	-45.24
214.321	-50.28
214.701	-49.54
215.08	-39.43
215.459	-24.82
215.838	-24.23
216.218	-31.87
216.597	-31.55
216.976	-38.07
217.355	-56.16
217.734	-62.96
218.113	-59.97
218.492	-61.1
218.871	-44.25
219.25	-36.73
219.629	-68.54
220.008	-58.64
220.387	-61.28
220.766	-61.12
221.144	-57.59
221.523	-63.33
221.902	-48.35
222.28	-32.85
222.659	-27.37
223.037	-34.17
223.416	-26.72
223.794	-25.06
224.173	-19.11
224.551	-10.41
224.929	-5.69
225.308	1.23
225.686	1.75
226.064	2.81
226.442	4.89
226.821	3.18
227.199	0.26
227.577	4.88
227.955	2.46
228.333	2.26
228.711	0.69
229.089	1.73
229.467	0.47
229.845	-2.08
230.222	-1.39
230.6	-0.17
230.978	-0.45
231.356	-4.14
231.733	-2.38
232.111	-2.92
232.488	-2.68
232.866	-1.21
233.243	-3.13
233.621	-2.96
233.998	-3.54
234.376	-3.39
234.753	-3.09
235.13	-1.72
235.508	-2.31
235.885	-2.17
236.262	-2.28
236.639	-2.83
237.016	-2.71
237.393	-2.18
237.77	-0.43
238.147	0.69
238.524	1.36
238.901	1.66
239.278	1.89
239.655	2.04
240.032	2.39
240.409	2.56
240.785	1.54
241.162	1.96
241.539	1.54
241.915	1.51
242.292	1.34
242.668	2.01
243.045	2.34
243.421	2.52
243.798	2.9
244.174	2.94
244.551	3.44
244.927	3.55
245.303	3.72
245.679	3.39
246.056	3.09
246.432	2.88
246.808	2.85
247.184	2.92
247.56	2.7
247.936	2.57
248.312	2.39
248.688	2.43
249.064	2.49
249.44	2.51
249.815	2.7
250.191	2.65
250.567	2.38
250.943	2.34
251.318	2.43
251.694	2.26
252.069	2.48
252.445	2.43
252.82	2.58
253.196	2.58
253.571	2.89
253.947	3.19
254.322	3.17
254.697	3.38
255.073	3.55
255.448	3.71
255.823	3.76
256.198	3.6
256.573	3.94
256.948	3.87
257.323	3.91
257.698	3.75
258.073	3.75
258.448	3.75
258.823	3.55
259.198	3.48
259.573	3.13
259.948	3.09
260.322	3.04
260.697	3.05
261.072	3.16
261.446	3.14
261.821	2.88
262.195	3.05
262.57	3
262.944	2.95
263.319	2.88
263.693	2.87
264.067	2.93
264.442	2.83
264.816	2.81
265.19	2.64
265.564	2.84
265.938	2.94
266.313	2.9
266.687	3.13
267.061	3.02
267.435	3.5
267.809	3.5
268.183	3.29
268.556	3.01
268.93	2.8
269.304	2.75
269.678	2.75
270.051	2.69
270.425	2.63
270.799	2.49
271.172	2.64
271.546	2.68
271.919	2.65
272.293	2.67
272.666	2.66
273.04	2.87
273.413	2.76
273.787	2.56
274.16	2.68
274.533	2.66
274.906	2.68
275.279	2.45
275.653	2.3
276.026	2.35
276.399	2.5
276.772	2.59
277.145	2.72
277.518	2.88
277.891	2.73
278.263	2.88
278.636	3.02
279.009	3.01
279.382	2.86
279.755	2.79
280.127	2.83
280.5	2.81
280.872	2.78
281.245	2.77
281.617	2.95
281.99	2.62
282.362	2.53
282.735	2.57
283.107	2.61
283.479	2.78
283.852	2.91
284.224	2.92
284.596	2.86
284.968	2.77
285.34	2.69
285.713	2.87
286.085	2.68
286.457	2.6
286.829	2.5
287.201	2.6
287.572	2.71
287.944	2.71
288.316	2.76
288.688	2.74
289.06	2.64
289.431	2.61
289.803	2.86
290.175	2.81
290.546	2.73
290.918	2.8
291.289	2.68
291.661	2.58
292.032	2.55
292.403	2.52
292.775	2.66
293.146	2.83
293.517	2.83
293.889	3.02
294.26	3.11
294.631	3.23
295.002	3.3
295.373	3.33
295.744	3.35
296.115	3.44
296.486	3.57
296.857	3.68
297.228	3.63
297.599	3.63
297.97	3.79
298.34	3.91
298.711	3.99
299.082	4.05
299.452	4.21
299.823	4.25
300.194	4.36
300.564	4.32
300.935	4.35
301.305	4.31
301.676	4.31
302.046	4.29
302.416	4.25
302.787	4.29
303.157	4.33
303.527	4.34
303.897	4.28
304.267	4.31
304.637	4.46
305.008	4.58
305.378	4.7
305.748	4.72
306.117	4.67
306.487	4.63
306.857	4.65
307.227	4.85
307.597	4.93
307.967	5.04
308.336	5.09
308.706	4.97
309.076	5.1
309.445	5.16
309.815	5.23
310.184	5.38
310.554	5.33
310.923	5.29
311.293	5.29
311.662	5.34
312.031	5.19
312.401	5.2
312.77	5.28
313.139	5.27
313.508	5.35
313.877	5.41
314.246	5.51
314.616	5.69
314.985	5.55
315.353	5.77
315.722	5.77
316.091	5.77
316.46	6.02
316.829	6.11
317.198	6.16
317.567	6.47
317.935	6.42
318.304	6.64
318.672	6.86
319.041	6.89
319.41	7.01
319.778	7.1
320.147	7.13
320.515	7.25
320.883	7.19
321.252	7.3
321.62	7.32
321.988	7.44
322.357	7.36
322.725	7.39
323.093	7.2
323.461	7.24
323.829	7.39
324.197	7.38
324.565	7.41
324.933	7.41
325.301	7.16
325.669	7.17
326.037	7.18
326.405	7.23
326.772	7.31
327.14	7.15
327.508	7.22
327.875	7.21
328.243	7.25
328.61	7.37
328.978	7.27
329.346	7.44
329.713	7.35
330.08	7.43
330.448	7.42
330.815	7.53
331.182	7.43
331.55	7.39
331.917	7.2
332.284	7.1
332.651	7.17
333.018	7.36
333.385	7.48
333.752	7.45
334.119	7.38
334.486	7.37
334.853	7.55
335.22	7.53
335.587	7.47
335.954	7.35
336.32	7.34
336.687	7.41
337.054	7.36
337.42	7.52
337.787	7.46
338.153	7.6
338.52	7.58
338.886	7.78
339.253	7.78
339.619	7.96
339.986	8.01
340.352	7.94
340.718	7.91
341.084	7.93
341.451	8.06
341.817	8.25
342.183	8.25
342.549	8.23
342.915	8.29
343.281	8.34
343.647	8.29
344.013	8.27
344.379	8.2
344.745	8.22
345.11	8.13
345.476	8.25
345.842	8.16
346.208	8.14
346.573	8.06
346.939	8.09
347.304	8.09
347.67	8.15
348.035	8.2
348.401	8.19
348.766	8.2
349.132	8.13
349.497	7.99
349.862	7.99
350.228	8.04
350.593	7.97
350.958	8.16
351.323	8.25
351.688	8.3
352.053	8.33
352.418	8.29
352.783	8.26
353.148	8.28
353.513	8.35
353.878	8.27
354.243	8.25
354.608	8.27
354.972	8.22
355.337	8.2
355.702	8.14
356.066	8.17
356.431	8.18
356.795	8.14
357.16	8.12
357.524	8.09
357.889	8.06
358.253	8.11
358.618	8.06
358.982	8.04
359.346	8.02
359.71	8.07
360.075	8.05
360.439	8.05
360.803	7.96
361.167	7.86
361.531	7.93
361.895	7.85
362.259	7.82
362.623	7.82
362.987	7.77
363.351	7.76
363.714	7.66
364.078	7.56
364.442	7.52
364.806	7.45
365.169	7.41
365.533	7.38
365.896	7.32
366.26	7.14
366.623	7.07
366.987	7.03
367.35	6.88
367.714	6.83
368.077	6.83
368.44	6.82
368.803	6.78
369.167	6.64
369.53	6.68
369.893	6.64
370.256	6.56
370.619	6.52
370.982	6.44
371.345	6.44
371.708	6.43
372.071	6.34
372.434	6.29
372.797	6.22
373.159	6.13
373.522	6.11
373.885	6.1
374.247	6.07
374.61	5.99
374.973	5.95
375.335	5.89
375.698	5.77
376.06	5.65
376.423	5.64
376.785	5.63
377.147	5.54
377.51	5.42
377.872	5.38
378.234	5.34
378.596	5.29
378.958	5.25
379.321	5.23
379.683	5.22
380.045	5.24
380.407	5.23
380.769	5.17
381.13	5.09
381.492	5.04
381.854	5.02
382.216	5.04
382.578	5.02
382.939	4.98
383.301	4.95
383.663	4.9
384.024	4.85
384.386	4.78
384.747	4.72
385.109	4.72
385.47	4.7
385.832	4.61
386.193	4.64
386.554	4.57
386.916	4.52
387.277	4.45
387.638	4.41
387.999	4.41
388.36	4.39
388.721	4.37
389.082	4.34
389.443	4.31
389.804	4.27
390.165	4.26
390.526	4.25
390.887	4.21
391.248	4.21
391.609	4.21
391.969	4.15
392.33	4.14
392.691	4.13
393.051	4.13
393.412	4.12
393.772	4.09
394.133	4.06
394.493	4
394.854	4.01
395.214	3.98
395.574	3.93
395.935	3.9
396.295	3.88
396.655	3.85
397.015	3.8
397.376	3.74
397.736	3.67
398.096	3.62
398.456	3.62
398.816	3.59
399.176	3.54
399.535	3.59
399.895	3.58
400.255	3.54
400.615	3.5
400.975	3.51
401.334	3.47
401.694	3.45
402.054	3.42
402.413	3.38
402.773	3.37
403.132	3.36
403.492	3.35
403.851	3.34
404.211	3.33
404.57	3.31
404.929	3.29
405.288	3.3
405.648	3.29
406.007	3.28
406.366	3.27
406.725	3.27
407.084	3.27
407.443	3.27
407.802	3.25
408.161	3.23
408.52	3.2
408.879	3.19
409.238	3.2
409.596	3.19
409.955	3.17
410.314	3.17
410.673	3.16
411.031	3.15
411.39	3.15
411.748	3.13
412.107	3.14
412.465	3.14
412.824	3.11
413.182	3.13
413.54	3.08
413.899	3.07
414.257	3.04
414.615	3.02
414.974	3.01
415.332	3.03
415.69	3.02
416.048	3.04
416.406	3
416.764	3
417.122	3.01
417.48	3.01
417.838	3.01
418.195	3
418.553	2.99
418.911	2.98
419.269	2.97
419.626	2.97
419.984	2.96
420.342	2.95
420.699	2.94
421.057	2.95
421.414	2.95
421.772	2.95
422.129	2.93
422.486	2.94
422.844	2.93
423.201	2.93
423.558	2.9
423.915	2.93
424.273	2.92
424.63	2.91
424.987	2.9
425.344	2.89
425.701	2.87
426.058	2.87
426.415	2.86
426.772	2.84
427.128	2.84
427.485	2.83
427.842	2.83
428.199	2.82
428.555	2.83
428.912	2.82
429.269	2.78
429.625	2.79
429.982	2.76
430.338	2.74
430.695	2.72
431.051	2.73
431.407	2.71
431.764	2.7
432.12	2.71
432.476	2.73
432.832	2.72
433.189	2.72
433.545	2.72
433.901	2.72
434.257	2.73
434.613	2.71
434.969	2.69
435.325	2.7
435.681	2.72
436.036	2.7
436.392	2.72
436.748	2.74
437.104	2.73
437.459	2.73
437.815	2.74
438.171	2.74
438.526	2.74
438.882	2.74
439.237	2.74
439.593	2.72
439.948	2.7
440.304	2.7
440.659	2.71
441.014	2.7
441.369	2.72
441.725	2.72
442.08	2.71
442.435	2.73
442.79	2.71
443.145	2.7
443.5	2.7
443.855	2.69
444.21	2.68
444.565	2.69
444.92	2.69
445.275	2.69
445.629	2.69
445.984	2.69
446.339	2.69
446.693	2.69
447.048	2.69
447.403	2.69
447.757	2.7
448.112	2.71
448.466	2.71
448.82	2.69
449.175	2.69
449.529	2.69
449.883	2.69
450.238	2.68
450.592	2.69
450.946	2.67
451.3	2.67
451.654	2.67
452.008	2.68
452.362	2.68
452.716	2.66
453.07	2.64
453.424	2.65
453.778	2.63
454.132	2.63
454.486	2.65
454.839	2.66
455.193	2.65
455.547	2.64
455.9	2.64
456.254	2.67
456.607	2.65
456.961	2.65
457.314	2.64
457.668	2.65
458.021	2.65
458.375	2.68
458.728	2.68
459.081	2.69
459.434	2.66
459.787	2.66
460.141	2.67
460.494	2.68
460.847	2.69
461.2	2.7
461.553	2.69
461.906	2.68
462.259	2.67
462.611	2.67
462.964	2.65
463.317	2.64
463.67	2.65
464.022	2.67
464.375	2.66
464.728	2.69
465.08	2.7
465.433	2.7
465.785	2.69
466.138	2.68
466.49	2.69
466.843	2.72
467.195	2.72
467.547	2.74
467.899	2.73
468.252	2.72
468.604	2.72
468.956	2.72
469.308	2.72
469.66	2.72
470.012	2.73
470.364	2.74
470.716	2.75
471.068	2.73
471.42	2.73
471.772	2.75
472.123	2.74
472.475	2.74
472.827	2.73
473.178	2.76
473.53	2.76
473.882	2.75
474.233	2.73
474.585	2.75
474.936	2.78
475.288	2.77
475.639	2.78
475.99	2.78
476.342	2.79
476.693	2.79
477.044	2.8
477.395	2.78
477.746	2.79
478.097	2.8
478.448	2.8
478.8	2.8
479.15	2.8
479.501	2.79
479.852	2.78
480.203	2.79
480.554	2.78
480.905	2.77
481.255	2.77
481.606	2.78
481.957	2.77
482.307	2.76
482.658	2.78
483.009	2.78
483.359	2.78
483.709	2.78
484.06	2.79
484.41	2.8
484.761	2.81
485.111	2.81
485.461	2.81
485.811	2.82
486.162	2.82
486.512	2.82
486.862	2.82
487.212	2.83
487.562	2.82
487.912	2.82
488.262	2.82
488.612	2.82
488.961	2.82
489.311	2.83
489.661	2.83
490.011	2.82
490.36	2.83
490.71	2.83
491.06	2.83
491.409	2.82
491.759	2.82
492.108	2.83
492.458	2.84
492.807	2.85
493.157	2.85
493.506	2.85
493.855	2.87
494.204	2.87
494.554	2.87
494.903	2.88
495.252	2.89
495.601	2.91
495.95	2.94
496.299	2.94
496.648	2.96
496.997	2.96
497.346	2.98
497.695	3
498.043	3.02
498.392	3.04
498.741	3.08
499.09	3.08
499.438	3.08
499.787	3.07
500.135	3.07
500.484	3.08
500.832	3.07
501.181	3.1
501.529	3.12
501.878	3.15
502.226	3.18
502.574	3.2
502.923	3.21
503.271	3.21
503.619	3.24
503.967	3.24
504.315	3.28
504.663	3.3
505.011	3.29
505.359	3.29
505.707	3.31
506.055	3.33
506.403	3.36
506.751	3.4
507.098	3.45
507.446	3.49
507.794	3.54
508.141	3.58
508.489	3.59
508.837	3.62
509.184	3.65
509.531	3.67
509.879	3.7
510.226	3.74
510.574	3.8
510.921	3.85
511.268	3.92
511.616	3.95
511.963	3.99
512.31	4.06
512.657	4.14
513.004	4.21
513.351	4.26
513.698	4.32
514.045	4.4
514.392	4.47
514.739	4.55
515.086	4.62
515.432	4.7
515.779	4.78
516.126	4.84
516.473	4.92
516.819	5.01
517.166	5.08
517.512	5.17
517.859	5.25
518.205	5.32
518.552	5.38
518.898	5.46
519.245	5.56
519.591	5.63
519.937	5.69
520.283	5.78
520.629	5.88
520.976	5.97
521.322	6.06
521.668	6.16
522.014	6.25
522.36	6.35
522.706	6.45
523.052	6.6
523.398	6.74
523.743	6.88
524.089	7.02
524.435	7.14
524.781	7.26
525.126	7.36
525.472	7.47
525.817	7.55
526.163	7.65
526.509	7.7
526.854	7.77
527.199	7.85
527.545	7.93
527.89	8
528.235	8.08
528.581	8.15
528.926	8.23
529.271	8.31
529.616	8.39
529.961	8.47
530.306	8.54
530.651	8.61
530.996	8.69
531.341	8.78
531.686	8.88
532.031	8.97
532.376	9.06
532.721	9.14
533.065	9.25
533.41	9.35
533.755	9.47
534.099	9.58
534.444	9.7
534.788	9.79
535.133	9.9
535.477	10
535.822	10.11
536.166	10.22
536.51	10.36
536.855	10.47
537.199	10.63
537.543	10.8
537.887	10.95
538.231	11.11
538.576	11.23
538.92	11.38
539.264	11.52
539.608	11.66
539.951	11.8
540.295	11.94
540.639	12.09
540.983	12.2
541.327	12.34
541.671	12.45
542.014	12.57
542.358	12.68
542.701	12.81
543.045	12.93
543.389	13.08
543.732	13.19
544.075	13.34
544.419	13.47
544.762	13.59
545.105	13.73
545.449	13.87
545.792	14.04
546.135	14.21
546.478	14.4
546.821	14.57
547.165	14.77
547.508	14.95
547.851	15.13
548.194	15.34
548.536	15.51
548.879	15.74
549.222	15.96
549.565	16.21
549.908	16.43
550.25	16.64
550.593	16.85
550.936	17.08
551.278	17.3
551.621	17.53
551.963	17.76
552.306	18.02
552.648	18.28
552.991	18.49
553.333	18.69
553.675	18.91
554.017	19.14
554.36	19.33
554.702	19.56
555.044	19.78
555.386	20.01
555.728	20.28
556.07	20.5
556.412	20.77
556.754	21
557.096	21.26
557.438	21.53
557.78	21.81
558.121	22.09
558.463	22.33
558.805	22.56
559.147	22.81
559.488	23.07
559.83	23.34
560.171	23.61
560.513	23.9
560.854	24.12
561.196	24.41
561.537	24.67
561.878	24.95
562.22	25.21
562.561	25.55
562.902	25.78
563.243	26.02
563.584	26.26
563.925	26.56
564.266	26.8
564.607	27.04
564.948	27.26
565.289	27.5
565.63	27.75
565.971	28.01
566.312	28.28
566.653	28.52
566.993	28.76
567.334	29.02
567.675	29.28
568.015	29.59
568.356	29.83
568.696	30.11
569.037	30.35
569.377	30.58
569.718	30.71
570.058	30.97
570.398	31.26
570.739	31.5
571.079	31.69
571.419	31.93
571.759	32.15
572.099	32.43
572.439	32.66
572.779	32.89
573.119	33.12
573.459	33.26
573.799	33.47
574.139	33.66
574.479	33.87
574.819	34.09
575.158	34.3
575.498	34.49
575.838	34.7
576.177	34.92
576.517	35.2
576.856	35.44
577.196	35.67
577.535	35.86
577.875	36.06
578.214	36.36
578.553	36.55
578.893	36.83
579.232	37
579.571	37.24
579.91	37.53
580.25	37.72
580.589	38.02
580.928	38.24
581.267	38.5
581.606	38.71
581.945	38.91
582.283	39.1
582.622	39.32
582.961	39.59
583.3	39.79
583.639	39.99
583.977	40.22
584.316	40.33
584.654	40.55
584.993	40.8
585.332	40.95
585.67	41.12
586.008	41.3
586.347	41.45
586.685	41.53
587.024	41.59
587.362	41.79
587.7	41.99
588.038	42.09
588.376	42.19
588.715	42.3
589.053	42.48
589.391	42.64
589.729	42.84
590.067	42.94
590.404	43.06
590.742	43.13
591.08	43.32
591.418	43.52
591.756	43.67
592.093	43.78
592.431	43.93
592.769	44.08
593.106	44.18
593.444	44.38
593.781	44.63
594.119	44.8
594.456	44.94
594.793	45.05
595.131	45.22
595.468	45.36
595.805	45.54
596.143	45.67
596.48	45.74
596.817	45.87
597.154	46.01
597.491	46.15
597.828	46.26
598.165	46.34
598.502	46.46
598.839	46.58
599.176	46.73
599.512	46.82
599.849	47.07
600.186	47.22
600.523	47.33
600.859	47.44
601.196	47.58
601.532	47.73
601.869	47.79
602.205	47.97
602.542	48.07
602.878	48.09
603.215	48.13
603.551	48.25
603.887	48.26
604.223	48.33
604.56	48.39
604.896	48.53
605.232	48.65
605.568	48.76
605.904	48.78
606.24	48.87
606.576	49
606.912	49.02
607.248	49.15
607.583	49.25
607.919	49.37
608.255	49.48
608.591	49.61
608.926	49.72
609.262	49.75
609.597	49.92
609.933	50.13
610.268	50.24
610.604	50.33
610.939	50.43
611.275	50.46
611.61	50.51
611.945	50.54
612.281	50.64
612.616	50.72
612.951	50.9
613.286	51.02
613.621	51.06
613.956	51.08
614.291	51.16
614.626	51.24
614.961	51.2
615.296	51.31
615.631	51.41
615.966	51.55
616.3	51.68
616.635	51.67
616.97	51.75
617.304	51.81
617.639	51.83
617.973	51.88
618.308	52
618.642	52.1
618.977	52.19
619.311	52.21
619.646	52.25
619.98	52.32
620.314	52.27
620.648	52.4
620.983	52.54
621.317	52.61
621.651	52.68
621.985	52.83
622.319	52.78
622.653	52.74
622.987	52.66
623.321	52.67
623.655	52.71
623.988	52.64
624.322	52.6
624.656	52.61
624.99	52.7
625.323	52.77
625.657	52.77
625.99	52.81
626.324	52.79
626.657	52.79
626.991	52.78
627.324	52.84
627.658	52.81
627.991	52.8
628.324	52.7
628.657	52.69
628.991	52.65
629.324	52.8
629.657	52.82
629.99	53.02
630.323	53.06
630.656	53.1
630.989	53.1
631.322	53.21
631.655	53.37
631.987	53.38
632.32	53.37
632.653	53.46
632.986	53.43
633.318	53.58
633.651	53.66
633.984	53.72
634.316	53.75
634.649	53.83
634.981	53.98
635.313	54.16
635.646	54.29
635.978	54.3
636.31	54.21
636.643	54.24
636.975	54.12
637.307	54.14
637.639	54.15
637.971	54.25
638.303	54.31
638.635	54.14
638.967	54.21
639.299	54.26
639.631	54.21
639.963	54.3
640.295	54.31
640.626	54.37
640.958	54.43
641.29	54.53
641.621	54.5
641.953	54.37
642.285	54.29
642.616	54.31
642.948	54.46
643.279	54.57
643.61	54.6
643.942	54.73
644.273	54.75
644.604	54.83
644.936	54.86
645.267	54.85
645.598	55.01
645.929	55.08
646.26	55.08
646.591	55.19
646.922	55.24
647.253	55.23
647.584	55.33
647.915	55.24
648.245	55.21
648.576	55.23
648.907	55.3
649.238	55.27
649.568	55.23
649.899	55.18
650.229	55.25
650.56	55.29
650.89	55.27
651.221	55.25
651.551	55.17
651.882	55.21
652.212	55.26
652.542	55.33
652.872	55.22
653.203	55.33
653.533	55.35
653.863	55.3
654.193	55.33
654.523	55.19
654.853	55.25
655.183	55.28
655.513	55.4
655.843	55.45
656.172	55.63
656.502	55.62
656.832	55.64
657.162	55.58
657.491	55.62
657.821	55.66
658.15	55.67
658.48	55.71
658.809	55.7
659.139	55.65
659.468	55.61
659.798	55.67
660.127	55.57
660.456	55.65
660.785	55.7
661.115	55.71
661.444	55.76
661.773	55.78
662.102	55.73
662.431	55.6
662.76	55.56
663.089	55.55
663.418	55.56
663.747	55.63
664.076	55.62
664.404	55.53
664.733	55.42
665.062	55.4
665.39	55.42
665.719	55.38
666.048	55.33
666.376	55.35
666.705	55.37
667.033	55.36
667.362	55.13
667.69	55.13
668.018	55.13
668.347	55.26
668.675	55.21
669.003	55.29
669.331	55.39
669.659	55.4
669.987	55.3
670.315	55.24
670.643	55.2
670.971	55.3
671.299	55.3
671.627	55.4
671.955	55.49
672.283	55.58
672.61	55.68
672.938	55.77
673.266	55.81
673.593	55.8
673.921	55.88
674.249	55.92
674.576	55.9
674.904	55.92
675.231	55.71
675.558	55.76
675.886	55.69
676.213	55.62
676.54	55.59
676.867	55.57
677.195	55.72
677.522	55.8
677.849	55.77
678.176	55.9
678.503	55.87
678.83	55.83
679.157	55.83
679.484	55.8
679.81	55.81
680.137	55.8
680.464	55.91
680.791	55.95
681.117	56.05
681.444	56.17
681.771	56.15
682.097	56.25
682.424	56.28
682.75	56.26
683.077	56.34
683.403	56.47
683.729	56.45
684.056	56.4
684.382	56.29
684.708	56.21
685.034	56.18
685.36	56.23
685.686	56.24
686.012	56.12
686.339	56.07
686.664	56.09
686.99	56.09
687.316	55.93
687.642	55.98
687.968	55.96
688.294	55.86
688.619	55.97
688.945	55.95
689.271	56.01
689.596	56.09
689.922	56.1
690.247	55.98
690.573	56.15
690.898	56.19
691.224	56.29
691.549	56.39
691.874	56.52
692.2	56.55
692.525	56.62
692.85	56.71
693.175	56.74
693.5	56.85
693.825	56.95
694.15	56.96
694.475	56.84
694.8	56.74
695.125	56.78
695.45	56.88
695.775	56.87
696.099	56.91
696.424	56.81
696.749	56.77
697.073	56.87
697.398	56.83
697.723	56.76
698.047	56.78
698.372	56.7
698.696	56.63
699.02	56.56
699.345	56.59
699.669	56.59
699.993	56.57
700.318	56.51
700.642	56.45
700.966	56.52
701.29	56.56
701.614	56.7
701.938	56.65
702.262	56.45
702.586	56.45
702.91	56.27
703.234	56.45
703.557	56.45
703.881	56.41
704.205	56.33
704.529	56.53
704.852	56.52
705.176	56.66
705.499	56.54
705.823	56.45
706.146	56.35
706.47	56.22
706.793	56.31
707.117	56.33
707.44	56.31
707.763	56.27
708.086	56.21
708.409	56.1
708.733	55.99
709.056	56.03
709.379	55.92
709.702	56.02
710.025	55.92
710.348	55.88
710.671	55.79
710.993	55.79
711.316	55.7
711.639	55.47
711.962	55.38
712.284	55.38
712.607	55.5
712.93	55.66
713.252	55.69
713.575	55.78
713.897	55.68
714.22	55.64
714.542	55.58
714.864	55.66
715.187	55.64
715.509	55.67
715.831	55.75
716.153	56
716.475	55.97
716.798	56.15
717.12	56.25
717.442	56.2
717.764	56.21
718.085	56.18
718.407	56.36
718.729	56.29
719.051	56.34
719.373	56.3
719.695	56.18
720.016	56.36
720.338	56.24
720.659	56.07
720.981	56.17
721.302	56.31
721.624	56.46
721.945	56.64
722.267	56.96
722.588	56.82
722.909	56.72
723.231	56.66
723.552	56.56
723.873	56.2
724.194	56.39
724.515	56.34
724.836	56.36
725.157	56.61
725.478	56.85
725.799	56.85
726.12	56.97
726.441	56.82
726.762	56.69
727.083	56.81
727.403	57.04
727.724	57.33
728.045	57.4
728.365	57.17
728.686	56.99
729.006	57.05
729.327	57.08
729.647	56.91
729.967	56.98
730.288	57
730.608	57.3
730.928	57.28
731.249	57.41
731.569	57.32
731.889	57.18
732.209	57.07
732.529	57.19
732.849	56.98
733.169	57.25
733.489	57.23
733.809	57.17
734.129	57.13
734.448	56.78
734.768	56.73
735.088	56.72
735.408	56.49
735.727	56.24
736.047	56.3
736.366	56.53
736.686	56.56
737.005	56.56
737.325	56.48
737.644	56.25
737.963	55.96
738.283	56.09
738.602	55.79
738.921	55.81
739.24	55.83
739.56	56.1
739.879	55.89
740.198	56.02
740.517	56.04
740.836	55.86
741.155	55.9
741.473	55.81
741.792	55.99
742.111	56.55
742.43	56.76
742.748	56.91
743.067	56.88
743.386	56.8
743.704	56.72
744.023	56.72
744.341	57.1
744.66	57.27
744.978	57.08
745.297	57.31
745.615	57.25
745.933	57.37
746.252	57.3
746.57	57.36
746.888	57.58
747.206	57.45
747.524	57.68
747.842	57.63
748.16	57.7
748.478	57.86
748.796	57.69
749.114	57.52
749.432	57.4
749.749	57.4
750.067	57.62
750.385	57.55
750.703	57.36
751.02	57.18
751.338	57.23
751.655	57.24
751.973	57.21
752.29	57.06
752.608	56.65
752.925	56.39
753.242	56.46
753.56	56.42
753.877	56.51
754.194	56.34
754.511	56.34
754.828	56.14
755.145	56.08
755.462	56.07
755.779	55.82
756.096	55.69
756.413	55.73
756.73	55.38
757.047	55.32
757.364	55.5
757.68	55.4
757.997	55.35
758.314	55.48
758.63	55.4
758.947	55.73
759.264	55.78
759.58	55.89
759.896	55.9
760.213	55.52
760.529	55.38
760.846	55.71
761.162	56.11
761.478	56.15
761.794	56.19
762.11	56.18
762.426	56.1
762.743	56.56
763.059	56.56
763.375	56.61
763.69	56.59
764.006	56.52
764.322	56.57
764.638	56.72
764.954	56.75
765.27	56.91
765.585	56.7
765.901	56.87
766.216	56.9
766.532	56.71
766.848	56.91
767.163	57.22
767.478	57.21
767.794	56.96
768.109	57.19
768.424	57.08
768.74	57.15
769.055	57.12
769.37	56.62
769.685	56.55
770	56.44
770.315	56.85
770.63	57.1
770.945	57.1
771.26	56.83
771.575	56.76
771.89	56.79
772.205	57.02
772.52	56.5
772.834	56.49
773.149	56.73
773.464	56.45
773.778	56.38
774.093	56.42
774.407	56.35
774.722	56.14
775.036	56
775.351	55.88
775.665	56.02
775.979	56.07
776.293	55.6
776.608	55.59
776.922	55.04
777.236	55.1
777.55	55.05
777.864	55.45
778.178	55.46
778.492	55.63
778.806	55.35
779.12	55.76
779.434	55.76
779.747	55.53
780.061	55.84
780.375	55.73
780.689	55.39
781.002	55.26
781.316	55.74
781.629	56.1
781.943	56.14
782.256	56.07
782.57	56.23
782.883	56.8
783.196	57.18
783.51	57.11
783.823	57.3
784.136	57.15
784.449	57.29
784.762	57.67
785.075	57.77
785.388	57.81
785.701	57.69
786.014	57.89
786.327	57.96
786.64	58.19
786.953	58.17
787.266	58.19
787.578	58.36
787.891	57.9
788.204	57.91
788.516	57.94
788.829	58.38
789.141	58.16
789.454	57.53
789.766	57.82
790.079	57.86
790.391	57.66
790.703	58.03
791.016	57.83
791.328	57.87
791.64	57.69
791.952	57.99
792.264	58.03
792.576	58.12
792.888	58.22
793.2	57.7
793.512	57.64
793.824	57.8
794.136	57.8
794.448	57.94
794.76	57.53
795.071	57.42
795.383	57.54
795.695	57.22
796.006	57.74
796.318	57.8
796.629	58.53
796.941	58.39
797.252	58.51
797.564	58.36
797.875	57.65
798.186	57.26
798.497	56.9
798.809	57.48
799.12	57.86
799.431	58.07
799.742	57.87
800.053	57.55
800.364	57.89
800.675	57.78
800.986	57.54
801.297	57.76
801.608	57.29
801.918	57.02
802.229	57.05
802.54	56.83
802.851	55.95
803.161	55.06
803.472	54.81
803.782	54.44
804.093	54.08
804.403	54.31
804.714	54.69
805.024	55.29
805.334	54.65
805.645	53.6
805.955	53.73
806.265	54.11
806.575	54.99
806.885	53.76
807.195	54.3
807.505	54.72
807.815	54.34
808.125	55.19
808.435	55.57
808.745	55.4
809.055	54.81
809.365	55.14
809.674	54.95
809.984	55.23
810.294	55.52
810.603	55.29
810.913	54.95
811.222	54.79
811.532	54.46
811.841	55.02
812.151	55.35
812.46	54.34
812.769	53.85
813.079	53.6
813.388	54.82
813.697	54.6
814.006	53.86
814.315	53.91
814.624	54.07
814.933	54.07
815.242	55.05
815.551	55.98
815.86	55.61
816.169	55.64
816.478	55.41
816.786	54.69
817.095	55.23
817.404	55.65
817.712	55.85
818.021	56.2
818.33	55.74
818.638	56.42
818.947	56.76
819.255	57.35
819.563	57.16
819.872	56.98
820.18	56.95
820.488	57.07
820.796	57.34
821.105	57.1
821.413	56.71
821.721	56.58
822.029	56.76
822.337	56.84
822.645	57.16
822.953	57.23
823.26	57.33
823.568	57.46
823.876	57.4
824.184	57.55
824.491	57.45
824.799	57.41
825.107	57.26
825.414	57.2
825.722	56.97
826.029	57.01
826.337	56.91
826.644	56.8
826.951	56.66
827.259	56.84
827.566	56.81
827.873	57
828.18	57
828.488	56.76
828.795	56.96
829.102	56.82
829.409	56.86
829.716	57.03
830.023	56.87
830.329	56.73
830.636	56.45
830.943	56.61
831.25	56.8
831.557	56.85
831.863	57.34
832.17	57.91
832.476	57.75
832.783	58.38
833.089	58.46
833.396	59.18
833.702	58.47
834.009	58.73
834.315	58.79
834.621	58.37
834.928	58.41
835.234	58.1
835.54	57.88
835.846	57.72
836.152	57.48
836.458	57.75
836.764	58.02
837.07	57.38
837.376	57.12
837.682	56.61
837.988	56.42
838.293	56.16
838.599	55.94
838.905	56.34
839.211	55.73
839.516	55.86
839.822	55.49
840.127	54.86
840.433	54.71
840.738	54.8
841.044	56.01
841.349	56.61
841.654	57.1
841.959	56.99
842.265	57.61
842.57	58.15
842.875	57.21
843.18	57.17
843.485	58.1
843.79	58.73
844.095	60.43
844.4	61.25
844.705	60.41
845.01	60.94
845.315	60.68
845.619	60.7
845.924	60.28
846.229	59.23
846.533	59.83
846.838	59.4
847.142	58.95
847.447	58
847.751	56.18
848.056	55.87
848.36	54.97
848.664	53.74
848.969	54.35
849.273	54.6
849.577	54.54
849.881	54.42
850.185	54.21
850.489	52.07
850.794	51.05
851.097	52.28
851.401	51.11
851.705	49.71
852.009	49.84
852.313	49.5
852.617	49.59
852.92	51.65
853.224	52.22
853.528	52.13
853.831	52.67
854.135	54.17
854.438	52.54
854.742	55.58
855.045	55.57
855.349	55.51
855.652	55.82
855.955	55.38
856.259	54.96
856.562	54.37
856.865	56.23
857.168	57.83
857.471	57.03
857.774	56.45
858.077	56.27
858.38	54.22
858.683	54.81
858.986	56.92
859.289	55.64
859.592	54
859.894	54.78
860.197	54.61
860.5	52.63
860.802	53.67
861.105	52.47
861.407	52.14
861.71	50.3
862.012	49.61
862.315	50.81
862.617	52.19
862.919	50.85
863.222	48.24
863.524	47.79
863.826	49.14
864.128	50.23
864.43	51.33
864.732	53.2
865.034	52.39
865.336	48.33
865.638	47.02
865.94	49.86
866.242	50.24
866.544	50.26
866.846	53.58
867.147	54.64
867.449	54.74
867.751	55.28
868.052	57.66
868.354	59.52
868.655	59.56
868.957	57.43
869.258	56.38
869.56	58.52
869.861	55.67
870.162	53.11
870.463	53.49
870.765	51.08
871.066	50.05
871.367	49.12
871.668	51.47
871.969	53.05
872.27	50.4
872.571	48.57
872.872	47.71
873.173	45.79
873.473	42.81
873.774	41.61
874.075	42.15
874.376	40.55
874.676	40.67
874.977	40.94
875.277	40.56
875.578	42.49
875.878	41.22
876.179	42.65
876.479	44.32
876.78	42.67
877.08	44.9
877.38	45.65
877.68	47.77
877.981	47.08
878.281	46.36
878.581	47.47
