Data from BU58127_Reflection_00006.txt Node
Date: Mon Nov 18 16:44:11 EST 2019
User: vgr7
Spectrometer: USB2G7710
Scans to average: 3
Trigger mode: 4
Integration Time (sec): 2.000000E-2
Electric dark correction enabled: true
Boxcar width: 10
XAxis mode: Wavelengths
Number of Pixels in Spectrum: 2048
>>>>>Begin Spectral Data<<<<<
177.721	950.24
178.105	137.56
178.488	154.28
178.871	159.18
179.254	120.05
179.636	-136.11
180.019	-5.17
180.402	310
180.785	-83.57
181.168	896.3
181.55	-249.21
181.933	123.74
182.316	140.12
182.698	307.05
183.081	292.35
183.463	374.51
183.846	516.23
184.228	570.35
184.611	422.96
184.993	2544.44
185.376	766.67
185.758	-5489.74
186.14	431.15
186.522	223.46
186.904	170.36
187.287	216.6
187.669	-752.71
188.051	116.56
188.433	396.3
188.815	78.49
189.197	-71.25
189.579	-18.14
189.961	21.22
190.342	42.55
190.724	53.07
191.106	29.03
191.488	0.48
191.869	22.63
192.251	-8.04
192.633	-17.04
193.014	-32.66
193.396	-64.44
193.777	-57.67
194.159	-68.89
194.54	-10.1
194.922	-15.24
195.303	-3.53
195.684	-16.11
196.065	-21.43
196.447	-25.64
196.828	-61.82
197.209	-34.58
197.59	-35.13
197.971	-35.53
198.352	-25.38
198.733	-23.49
199.114	-10.02
199.495	6.39
199.876	10.6
200.257	12.68
200.638	16.97
201.018	15.2
201.399	16.87
201.78	3.29
202.16	0.75
202.541	-24.15
202.922	-36.88
203.302	-47.54
203.683	-38.16
204.063	-52.72
204.444	-52.76
204.824	-47.5
205.204	-47.79
205.585	-44.46
205.965	-46.7
206.345	-51.37
206.725	-50.96
207.106	-58.06
207.486	-67.2
207.866	-84.22
208.246	-85.16
208.626	-102.43
209.006	-83.52
209.386	-79.83
209.766	-64.43
210.145	-49.7
210.525	-30.12
210.905	-25.79
211.285	-12.2
211.664	-23.69
212.044	-11.76
212.424	4.32
212.803	8.35
213.183	-3.73
213.562	3.54
213.942	24.83
214.321	23.94
214.701	22.1
215.08	11.6
215.459	7.26
215.838	19.76
216.218	23.51
216.597	36.62
216.976	27.15
217.355	32.64
217.734	24.02
218.113	18.06
218.492	26.13
218.871	23.96
219.25	21.49
219.629	10.49
220.008	13.01
220.387	4.9
220.766	4.59
221.144	-7.94
221.523	-19.95
221.902	-31.64
222.28	-26.78
222.659	-24.74
223.037	-14.89
223.416	-33.26
223.794	-25.14
224.173	-19.22
224.551	-18.43
224.929	-22.42
225.308	-23.42
225.686	-22.21
226.064	-18.44
226.442	-12.58
226.821	-6.56
227.199	-8.82
227.577	-8.01
227.955	-6.49
228.333	-8.85
228.711	-8.29
229.089	-0.32
229.467	0.32
229.845	-2.19
230.222	-0.96
230.6	0.45
230.978	-0.69
231.356	4.4
231.733	2.82
232.111	3.96
232.488	2.52
232.866	3.77
233.243	6.27
233.621	5.04
233.998	6.19
234.376	3.07
234.753	1.76
235.13	2.3
235.508	4.25
235.885	3.33
236.262	2.79
236.639	1.89
237.016	0.6
237.393	1.72
237.77	2.64
238.147	2.23
238.524	2.25
238.901	3.02
239.278	2.27
239.655	3.08
240.032	3.7
240.409	3.78
240.785	3.27
241.162	2.61
241.539	3.53
241.915	3.32
242.292	2.84
242.668	3.47
243.045	3.41
243.421	3.36
243.798	3.15
244.174	3.6
244.551	3.94
244.927	4.09
245.303	4.12
245.679	4.11
246.056	4.11
246.432	4.07
246.808	3.98
247.184	3.92
247.56	3.65
247.936	3.23
248.312	3.23
248.688	3.43
249.064	3.32
249.44	3.07
249.815	3.06
250.191	3.3
250.567	3.2
250.943	2.97
251.318	2.96
251.694	3.06
252.069	2.81
252.445	2.91
252.82	2.66
253.196	2.45
253.571	2.69
253.947	2.73
254.322	2.78
254.697	2.68
255.073	2.85
255.448	2.81
255.823	3.31
256.198	3.48
256.573	3.76
256.948	4.02
257.323	3.93
257.698	3.8
258.073	3.84
258.448	3.74
258.823	3.93
259.198	3.85
259.573	3.9
259.948	3.83
260.322	3.84
260.697	3.93
261.072	3.8
261.446	3.78
261.821	3.77
262.195	3.85
262.57	3.84
262.944	3.84
263.319	3.93
263.693	3.66
264.067	3.59
264.442	3.52
264.816	3.4
265.19	3.45
265.564	3.56
265.938	3.67
266.313	3.73
266.687	3.57
267.061	3.65
267.435	3.63
267.809	3.65
268.183	3.51
268.556	3.58
268.93	3.83
269.304	3.77
269.678	3.83
270.051	3.7
270.425	3.8
270.799	3.78
271.172	3.79
271.546	3.95
271.919	3.85
272.293	3.79
272.666	3.85
273.04	3.82
273.413	3.66
273.787	3.59
274.16	3.52
274.533	3.62
274.906	3.57
275.279	3.72
275.653	3.84
276.026	3.69
276.399	3.5
276.772	3.4
277.145	3.33
277.518	3.15
277.891	3.24
278.263	3.1
278.636	3.13
279.009	3.16
279.382	3.12
279.755	3.11
280.127	3.15
280.5	3.14
280.872	3.23
281.245	3.39
281.617	3.54
281.99	3.67
282.362	3.6
282.735	3.41
283.107	3.3
283.479	3.2
283.852	3.26
284.224	3.32
284.596	3.31
284.968	3.29
285.34	3.49
285.713	3.49
286.085	3.56
286.457	3.59
286.829	3.48
287.201	3.51
287.572	3.44
287.944	3.31
288.316	3.24
288.688	3.26
289.06	3.15
289.431	2.99
289.803	2.9
290.175	3.03
290.546	3.29
290.918	3.28
291.289	3.3
291.661	3.29
292.032	3.34
292.403	3.37
292.775	3.49
293.146	3.28
293.517	3.17
293.889	3.26
294.26	3.22
294.631	3.25
295.002	3.26
295.373	3.29
295.744	3.42
296.115	3.45
296.486	3.34
296.857	3.29
297.228	3.33
297.599	3.22
297.97	3.13
298.34	3.1
298.711	3.13
299.082	3.11
299.452	3.12
299.823	3.13
300.194	3.15
300.564	3.07
300.935	3.19
301.305	3.17
301.676	3.09
302.046	3.13
302.416	3.25
302.787	3.19
303.157	3.28
303.527	3.19
303.897	3.08
304.267	3.24
304.637	3.35
305.008	3.35
305.378	3.55
305.748	3.67
306.117	3.52
306.487	3.47
306.857	3.5
307.227	3.54
307.597	3.52
307.967	3.47
308.336	3.43
308.706	3.33
309.076	3.37
309.445	3.31
309.815	3.1
310.184	2.83
310.554	2.81
310.923	2.74
311.293	2.77
311.662	2.86
312.031	2.68
312.401	2.65
312.77	2.78
313.139	2.74
313.508	2.57
313.877	2.63
314.246	2.74
314.616	2.69
314.985	2.74
315.353	2.66
315.722	2.76
316.091	2.76
316.46	2.81
316.829	2.85
317.198	3
317.567	3.12
317.935	3.31
318.304	3.41
318.672	3.38
319.041	3.38
319.41	3.33
319.778	3.35
320.147	3.41
320.515	3.2
320.883	3.13
321.252	3.23
321.62	3.24
321.988	3.1
322.357	3.01
322.725	2.9
323.093	2.94
323.461	2.85
323.829	2.88
324.197	2.96
324.565	2.89
324.933	2.83
325.301	2.75
325.669	2.73
326.037	2.63
326.405	2.77
326.772	2.72
327.14	2.68
327.508	2.69
327.875	2.48
328.243	2.59
328.61	2.56
328.978	2.5
329.346	2.52
329.713	2.49
330.08	2.6
330.448	2.57
330.815	2.42
331.182	2.42
331.55	2.33
331.917	2.24
332.284	2.31
332.651	2.21
333.018	2.37
333.385	2.54
333.752	2.67
334.119	2.67
334.486	2.67
334.853	2.73
335.22	2.79
335.587	2.96
335.954	2.87
336.32	2.91
336.687	2.97
337.054	3
337.42	3.15
337.787	3.11
338.153	3.14
338.52	3.31
338.886	3.23
339.253	3.26
339.619	3.26
339.986	3.26
340.352	3.32
340.718	3.23
341.084	3.18
341.451	3.27
341.817	3.32
342.183	3.3
342.549	3.29
342.915	3.26
343.281	3.27
343.647	3.26
344.013	3.38
344.379	3.3
344.745	3.21
345.11	3.09
345.476	3.17
345.842	3.18
346.208	3.22
346.573	3.32
346.939	3.38
347.304	3.39
347.67	3.3
348.035	3.28
348.401	3.35
348.766	3.36
349.132	3.25
349.497	3.12
349.862	3.18
350.228	3.24
350.593	3.17
350.958	3.22
351.323	3.31
351.688	3.24
352.053	3.34
352.418	3.36
352.783	3.4
353.148	3.34
353.513	3.43
353.878	3.29
354.243	3.28
354.608	3.27
354.972	3.27
355.337	3.24
355.702	3.31
356.066	3.35
356.431	3.27
356.795	3.23
357.16	3.17
357.524	3.17
357.889	3.1
358.253	3.19
358.618	3.2
358.982	3.08
359.346	3.01
359.71	3.01
360.075	3.06
360.439	3.02
360.803	3.05
361.167	2.99
361.531	3.03
361.895	2.98
362.259	2.91
362.623	2.88
362.987	2.94
363.351	2.93
363.714	2.91
364.078	2.94
364.442	2.91
364.806	2.95
365.169	2.97
365.533	3
365.896	2.99
366.26	2.98
366.623	2.97
366.987	3
367.35	2.94
367.714	2.89
368.077	2.87
368.44	2.88
368.803	2.87
369.167	2.8
369.53	2.81
369.893	2.88
370.256	2.91
370.619	2.93
370.982	2.85
371.345	2.84
371.708	2.89
372.071	2.91
372.434	2.87
372.797	2.87
373.159	2.88
373.522	2.9
373.885	2.91
374.247	2.99
374.61	2.97
374.973	2.97
375.335	2.94
375.698	2.96
376.06	2.94
376.423	2.92
376.785	2.94
377.147	2.95
377.51	2.95
377.872	2.95
378.234	2.99
378.596	3.03
378.958	3
379.321	2.97
379.683	3
380.045	3.09
380.407	3.07
380.769	3.11
381.13	3.11
381.492	3.04
381.854	3.03
382.216	3.03
382.578	3.09
382.939	3.09
383.301	3.09
383.663	3.11
384.024	3.1
384.386	3.13
384.747	3.14
385.109	3.12
385.47	3.12
385.832	3.08
386.193	3.09
386.554	3.08
386.916	3.06
387.277	3.06
387.638	3.03
387.999	2.99
388.36	2.95
388.721	2.98
389.082	3.01
389.443	3
389.804	2.98
390.165	2.96
390.526	2.97
390.887	2.97
391.248	2.97
391.609	2.95
391.969	2.96
392.33	2.96
392.691	2.96
393.051	2.95
393.412	2.97
393.772	2.95
394.133	3
394.493	3.01
394.854	3.04
395.214	3.04
395.574	3.07
395.935	3.09
396.295	3.08
396.655	3.05
397.015	3.07
397.376	3.08
397.736	3.07
398.096	3.1
398.456	3.09
398.816	3.12
399.176	3.13
399.535	3.1
399.895	3.09
400.255	3.07
400.615	3.06
400.975	3.02
401.334	3.03
401.694	2.98
402.054	2.98
402.413	2.99
402.773	2.95
403.132	2.96
403.492	2.93
403.851	2.91
404.211	2.96
404.57	2.95
404.929	2.96
405.288	2.97
405.648	2.93
406.007	2.95
406.366	2.92
406.725	2.94
407.084	2.95
407.443	2.98
407.802	3.01
408.161	3.02
408.52	3.01
408.879	3.02
409.238	3.06
409.596	3.05
409.955	3.04
410.314	3.08
410.673	3.06
411.031	3.04
411.39	3.04
411.748	3.02
412.107	3.01
412.465	3.01
412.824	2.99
413.182	3.01
413.54	3.01
413.899	3.03
414.257	3
414.615	3.02
414.974	3
415.332	3
415.69	2.98
416.048	3
416.406	2.99
416.764	2.97
417.122	2.97
417.48	2.96
417.838	2.95
418.195	2.98
418.553	2.99
418.911	3
419.269	3.01
419.626	3.03
419.984	3.02
420.342	3.02
420.699	3.02
421.057	3.02
421.414	3
421.772	3.01
422.129	2.99
422.486	3.01
422.844	3
423.201	2.99
423.558	2.99
423.915	3
424.273	3.01
424.63	3.02
424.987	3.02
425.344	3.01
425.701	2.99
426.058	3
426.415	3.01
426.772	3
427.128	2.98
427.485	2.99
427.842	2.99
428.199	2.99
428.555	2.98
428.912	2.99
429.269	3
429.625	3.01
429.982	2.98
430.338	2.96
430.695	3
431.051	2.98
431.407	2.96
431.764	2.95
432.12	2.94
432.476	2.95
432.832	2.95
433.189	2.98
433.545	2.98
433.901	2.96
434.257	2.95
434.613	2.96
434.969	2.97
435.325	2.97
435.681	2.98
436.036	2.99
436.392	3
436.748	2.98
437.104	2.97
437.459	2.99
437.815	3
438.171	3
438.526	3.01
438.882	3.02
439.237	3.04
439.593	3.05
439.948	3.04
440.304	3.05
440.659	3.03
441.014	3.03
441.369	3.03
441.725	3.02
442.08	3.02
442.435	3.02
442.79	3.04
443.145	3.02
443.5	3.03
443.855	3.03
444.21	3.04
444.565	3.06
444.92	3.06
445.275	3.06
445.629	3.05
445.984	3.04
446.339	3.03
446.693	3.01
447.048	2.98
447.403	2.97
447.757	2.96
448.112	2.95
448.466	2.96
448.82	2.96
449.175	2.98
449.529	2.97
449.883	2.94
450.238	2.93
450.592	2.95
450.946	2.92
451.3	2.91
451.654	2.9
452.008	2.91
452.362	2.91
452.716	2.9
453.07	2.92
453.424	2.92
453.778	2.92
454.132	2.92
454.486	2.94
454.839	2.95
455.193	2.95
455.547	2.97
455.9	2.99
456.254	2.99
456.607	2.98
456.961	3
457.314	3.01
457.668	3.01
458.021	2.98
458.375	3
458.728	3
459.081	2.99
459.434	2.96
459.787	2.96
460.141	2.96
460.494	2.95
460.847	2.96
461.2	2.95
461.553	2.98
461.906	2.98
462.259	2.98
462.611	3
462.964	3
463.317	2.98
463.67	2.99
464.022	3
464.375	2.98
464.728	3
465.08	3.01
465.433	3.02
465.785	3.02
466.138	3.04
466.49	3.07
466.843	3.1
467.195	3.09
467.547	3.11
467.899	3.09
468.252	3.1
468.604	3.12
468.956	3.09
469.308	3.09
469.66	3.07
470.012	3.07
470.364	3.07
470.716	3.06
471.068	3.07
471.42	3.06
471.772	3.05
472.123	3.05
472.475	3.02
472.827	3.02
473.178	3.03
473.53	3
473.882	2.98
474.233	2.96
474.585	2.95
474.936	2.94
475.288	2.95
475.639	2.96
475.99	2.96
476.342	2.97
476.693	2.97
477.044	2.99
477.395	2.97
477.746	2.98
478.097	2.99
478.448	3
478.8	3.01
479.15	3.02
479.501	3.01
479.852	3.04
480.203	3.05
480.554	3.05
480.905	3.07
481.255	3.06
481.606	3.08
481.957	3.11
482.307	3.11
482.658	3.11
483.009	3.1
483.359	3.1
483.709	3.1
484.06	3.1
484.41	3.1
484.761	3.1
485.111	3.1
485.461	3.11
485.811	3.1
486.162	3.1
486.512	3.1
486.862	3.11
487.212	3.1
487.562	3.1
487.912	3.11
488.262	3.09
488.612	3.09
488.961	3.08
489.311	3.07
489.661	3.07
490.011	3.07
490.36	3.07
490.71	3.07
491.06	3.07
491.409	3.07
491.759	3.06
492.108	3.04
492.458	3.05
492.807	3.04
493.157	3.03
493.506	3.04
493.855	3.03
494.204	3.03
494.554	3.04
494.903	3.02
495.252	3.01
495.601	3.03
495.95	3.04
496.299	3.04
496.648	3.04
496.997	3.03
497.346	3.04
497.695	3.05
498.043	3.04
498.392	3.04
498.741	3.05
499.09	3.04
499.438	3.07
499.787	3.06
500.135	3.05
500.484	3.07
500.832	3.07
501.181	3.08
501.529	3.06
501.878	3.06
502.226	3.07
502.574	3.08
502.923	3.08
503.271	3.07
503.619	3.07
503.967	3.1
504.315	3.09
504.663	3.09
505.011	3.08
505.359	3.1
505.707	3.11
506.055	3.1
506.403	3.13
506.751	3.14
507.098	3.14
507.446	3.14
507.794	3.11
508.141	3.12
508.489	3.13
508.837	3.15
509.184	3.14
509.531	3.16
509.879	3.17
510.226	3.19
510.574	3.18
510.921	3.19
511.268	3.18
511.616	3.2
511.963	3.19
512.31	3.2
512.657	3.2
513.004	3.2
513.351	3.22
513.698	3.22
514.045	3.22
514.392	3.22
514.739	3.23
515.086	3.26
515.432	3.23
515.779	3.21
516.126	3.23
516.473	3.23
516.819	3.22
517.166	3.21
517.512	3.2
517.859	3.21
518.205	3.2
518.552	3.2
518.898	3.2
519.245	3.19
519.591	3.18
519.937	3.17
520.283	3.16
520.629	3.16
520.976	3.16
521.322	3.16
521.668	3.17
522.014	3.19
522.36	3.18
522.706	3.19
523.052	3.2
523.398	3.21
523.743	3.21
524.089	3.22
524.435	3.22
524.781	3.22
525.126	3.22
525.472	3.22
525.817	3.22
526.163	3.22
526.509	3.24
526.854	3.25
527.199	3.26
527.545	3.26
527.89	3.25
528.235	3.26
528.581	3.25
528.926	3.25
529.271	3.24
529.616	3.24
529.961	3.24
530.306	3.24
530.651	3.23
530.996	3.24
531.341	3.23
531.686	3.23
532.031	3.24
532.376	3.25
532.721	3.24
533.065	3.24
533.41	3.24
533.755	3.23
534.099	3.23
534.444	3.22
534.788	3.22
535.133	3.23
535.477	3.23
535.822	3.21
536.166	3.22
536.51	3.21
536.855	3.21
537.199	3.2
537.543	3.19
537.887	3.19
538.231	3.17
538.576	3.19
538.92	3.18
539.264	3.17
539.608	3.18
539.951	3.18
540.295	3.18
540.639	3.19
540.983	3.19
541.327	3.19
541.671	3.21
542.014	3.2
542.358	3.2
542.701	3.19
543.045	3.2
543.389	3.22
543.732	3.22
544.075	3.23
544.419	3.23
544.762	3.23
545.105	3.23
545.449	3.23
545.792	3.23
546.135	3.25
546.478	3.26
546.821	3.25
547.165	3.26
547.508	3.26
547.851	3.25
548.194	3.26
548.536	3.27
548.879	3.26
549.222	3.26
549.565	3.28
549.908	3.29
550.25	3.29
550.593	3.3
550.936	3.3
551.278	3.33
551.621	3.35
551.963	3.38
552.306	3.37
552.648	3.37
552.991	3.38
553.333	3.36
553.675	3.36
554.017	3.38
554.36	3.38
554.702	3.39
555.044	3.4
555.386	3.4
555.728	3.37
556.07	3.39
556.412	3.36
556.754	3.34
557.096	3.34
557.438	3.34
557.78	3.33
558.121	3.32
558.463	3.31
558.805	3.28
559.147	3.23
559.488	3.24
559.83	3.23
560.171	3.23
560.513	3.23
560.854	3.21
561.196	3.18
561.537	3.2
561.878	3.17
562.22	3.18
562.561	3.17
562.902	3.17
563.243	3.15
563.584	3.17
563.925	3.2
564.266	3.19
564.607	3.19
564.948	3.21
565.289	3.23
565.63	3.22
565.971	3.21
566.312	3.23
566.653	3.24
566.993	3.25
567.334	3.26
567.675	3.25
568.015	3.28
568.356	3.26
568.696	3.28
569.037	3.28
569.377	3.28
569.718	3.29
570.058	3.31
570.398	3.32
570.739	3.32
571.079	3.33
571.419	3.34
571.759	3.35
572.099	3.31
572.439	3.3
572.779	3.29
573.119	3.32
573.459	3.34
573.799	3.35
574.139	3.33
574.479	3.33
574.819	3.32
575.158	3.32
575.498	3.35
575.838	3.32
576.177	3.32
576.517	3.31
576.856	3.32
577.196	3.33
577.535	3.32
577.875	3.29
578.214	3.25
578.553	3.25
578.893	3.25
579.232	3.27
579.571	3.26
579.91	3.28
580.25	3.29
580.589	3.25
580.928	3.27
581.267	3.27
581.606	3.24
581.945	3.23
582.283	3.18
582.622	3.16
582.961	3.14
583.3	3.16
583.639	3.19
583.977	3.17
584.316	3.14
584.654	3.16
584.993	3.2
585.332	3.24
585.67	3.21
586.008	3.23
586.347	3.22
586.685	3.21
587.024	3.17
587.362	3.19
587.7	3.2
588.038	3.15
588.376	3.18
588.715	3.2
589.053	3.24
589.391	3.31
589.729	3.37
590.067	3.37
590.404	3.4
590.742	3.36
591.08	3.37
591.418	3.42
591.756	3.45
592.093	3.42
592.431	3.41
592.769	3.41
593.106	3.4
593.444	3.37
593.781	3.4
594.119	3.41
594.456	3.39
594.793	3.39
595.131	3.42
595.468	3.41
595.805	3.43
596.143	3.44
596.48	3.39
596.817	3.34
597.154	3.33
597.491	3.31
597.828	3.28
598.165	3.3
598.502	3.24
598.839	3.22
599.176	3.22
599.512	3.22
599.849	3.24
600.186	3.22
600.523	3.26
600.859	3.28
601.196	3.3
601.532	3.3
601.869	3.28
602.205	3.27
602.542	3.26
602.878	3.24
603.215	3.23
603.551	3.24
603.887	3.26
604.223	3.3
604.56	3.3
604.896	3.35
605.232	3.36
605.568	3.39
605.904	3.4
606.24	3.44
606.576	3.42
606.912	3.42
607.248	3.42
607.583	3.44
607.919	3.4
608.255	3.38
608.591	3.41
608.926	3.4
609.262	3.41
609.597	3.4
609.933	3.44
610.268	3.43
610.604	3.43
610.939	3.4
611.275	3.37
611.61	3.39
611.945	3.37
612.281	3.31
612.616	3.32
612.951	3.32
613.286	3.27
613.621	3.23
613.956	3.26
614.291	3.24
614.626	3.19
614.961	3.2
615.296	3.17
615.631	3.14
615.966	3.15
616.3	3.14
616.635	3.14
616.97	3.12
617.304	3.14
617.639	3.12
617.973	3.13
618.308	3.12
618.642	3.08
618.977	3.03
619.311	3.09
619.646	3.05
619.98	3.04
620.314	3.05
620.648	3.09
620.983	3.1
621.317	3.13
621.651	3.22
621.985	3.23
622.319	3.24
622.653	3.27
622.987	3.28
623.321	3.31
623.655	3.38
623.988	3.42
624.322	3.4
624.656	3.39
624.99	3.43
625.323	3.45
625.657	3.5
625.99	3.55
626.324	3.58
626.657	3.6
626.991	3.59
627.324	3.59
627.658	3.58
627.991	3.6
628.324	3.63
628.657	3.6
628.991	3.6
629.324	3.63
629.657	3.63
629.99	3.65
630.323	3.64
630.656	3.65
630.989	3.63
631.322	3.61
631.655	3.62
631.987	3.66
632.32	3.68
632.653	3.62
632.986	3.66
633.318	3.59
633.651	3.56
633.984	3.58
634.316	3.59
634.649	3.59
634.981	3.48
635.313	3.43
635.646	3.4
635.978	3.36
636.31	3.36
636.643	3.35
636.975	3.3
637.307	3.29
637.639	3.22
637.971	3.17
638.303	3.2
638.635	3.17
638.967	3.17
639.299	3.17
639.631	3.15
639.963	3
640.295	3.07
640.626	3.1
640.958	3.07
641.29	3.08
641.621	3.12
641.953	3.14
642.285	3.16
642.616	3.25
642.948	3.26
643.279	3.27
643.61	3.24
643.942	3.31
644.273	3.31
644.604	3.28
644.936	3.3
645.267	3.33
645.598	3.36
645.929	3.33
646.26	3.3
646.591	3.35
646.922	3.4
647.253	3.4
647.584	3.42
647.915	3.43
648.245	3.45
648.576	3.42
648.907	3.47
649.238	3.47
649.568	3.44
649.899	3.44
650.229	3.47
650.56	3.53
650.89	3.59
651.221	3.57
651.551	3.59
651.882	3.59
652.212	3.6
652.542	3.62
652.872	3.62
653.203	3.67
653.533	3.69
653.863	3.74
654.193	3.66
654.523	3.65
654.853	3.7
655.183	3.68
655.513	3.61
655.843	3.57
656.172	3.55
656.502	3.51
656.832	3.54
657.162	3.56
657.491	3.56
657.821	3.46
658.15	3.46
658.48	3.46
658.809	3.45
659.139	3.42
659.468	3.36
659.798	3.37
660.127	3.37
660.456	3.4
660.785	3.42
661.115	3.49
661.444	3.48
661.773	3.48
662.102	3.49
662.431	3.54
662.76	3.59
663.089	3.59
663.418	3.63
663.747	3.61
664.076	3.59
664.404	3.55
664.733	3.65
665.062	3.67
665.39	3.72
665.719	3.71
666.048	3.76
666.376	3.77
666.705	3.68
667.033	3.72
667.362	3.77
667.69	3.7
668.018	3.69
668.347	3.69
668.675	3.71
669.003	3.8
669.331	3.86
669.659	3.84
669.987	3.87
670.315	3.89
670.643	3.88
670.971	3.88
671.299	3.87
671.627	3.87
671.955	3.88
672.283	3.83
672.61	3.88
672.938	3.9
673.266	4
673.593	4.18
673.921	4.03
674.249	3.94
674.576	3.98
674.904	3.96
675.231	4.05
675.558	4.06
675.886	3.9
676.213	3.86
676.54	3.88
676.867	3.94
677.195	3.84
677.522	3.9
677.849	3.92
678.176	3.92
678.503	3.83
678.83	3.76
679.157	3.78
679.484	3.76
679.81	3.75
680.137	3.67
680.464	3.55
680.791	3.56
681.117	3.55
681.444	3.54
681.771	3.5
682.097	3.38
682.424	3.35
682.75	3.41
683.077	3.39
683.403	3.37
683.729	3.3
684.056	3.38
684.382	3.38
684.708	3.3
685.034	3.3
685.36	3.34
685.686	3.39
686.012	3.41
686.339	3.42
686.664	3.39
686.99	3.33
687.316	3.34
687.642	3.44
687.968	3.44
688.294	3.51
688.619	3.57
688.945	3.63
689.271	3.58
689.596	3.52
689.922	3.56
690.247	3.54
690.573	3.53
690.898	3.56
691.224	3.49
691.549	3.51
691.874	3.55
692.2	3.55
692.525	3.55
692.85	3.56
693.175	3.64
693.5	3.6
693.825	3.63
694.15	3.6
694.475	3.54
694.8	3.59
695.125	3.52
695.45	3.51
695.775	3.5
696.099	3.52
696.424	3.5
696.749	3.49
697.073	3.51
697.398	3.57
697.723	3.62
698.047	3.61
698.372	3.6
698.696	3.64
699.02	3.66
699.345	3.64
699.669	3.65
699.993	3.61
700.318	3.71
700.642	3.72
700.966	3.76
701.29	3.79
701.614	3.77
701.938	3.81
702.262	3.92
702.586	4
702.91	3.98
703.234	4.07
703.557	4.11
703.881	4.18
704.205	4.18
704.529	4.04
704.852	4.19
705.176	4.12
705.499	4.14
705.823	4.12
706.146	4.18
706.47	4.25
706.793	4.14
707.117	4.06
707.44	4.16
707.763	4.12
708.086	4.01
708.409	3.96
708.733	3.87
709.056	3.74
709.379	3.8
709.702	3.79
710.025	3.76
710.348	3.63
710.671	3.62
710.993	3.62
711.316	3.6
711.639	3.59
711.962	3.59
712.284	3.56
712.607	3.53
712.93	3.59
713.252	3.56
713.575	3.66
713.897	3.74
714.22	3.73
714.542	3.89
714.864	3.92
715.187	4.11
715.509	4.22
715.831	4.38
716.153	4.27
716.475	4.28
716.798	4.31
717.12	4.41
717.442	4.39
717.764	4.39
718.085	4.49
718.407	4.42
718.729	4.6
719.051	4.57
719.373	4.55
719.695	4.54
720.016	4.41
720.338	4.46
720.659	4.48
720.981	4.43
721.302	4.34
721.624	4.31
721.945	4.07
722.267	3.97
722.588	3.75
722.909	3.63
723.231	3.7
723.552	3.66
723.873	3.58
724.194	3.55
724.515	3.6
724.836	3.5
725.157	3.63
725.478	3.61
725.799	3.64
726.12	3.6
726.441	3.5
726.762	3.59
727.083	3.51
727.403	3.3
727.724	3.39
728.045	3.35
728.365	3.48
728.686	3.64
729.006	3.76
729.327	3.76
729.647	3.9
729.967	3.97
730.288	4.07
730.608	4.1
730.928	4.05
731.249	3.98
731.569	4.15
731.889	4.08
732.209	3.98
732.529	3.95
732.849	4.12
733.169	4.05
733.489	4.13
733.809	4.25
734.129	4.35
734.448	4.35
734.768	4.44
735.088	4.55
735.408	4.54
735.727	4.58
736.047	4.68
736.366	4.63
736.686	4.47
737.005	4.36
737.325	4.35
737.644	4.3
737.963	4.49
738.283	4.25
738.602	4.39
738.921	4.39
739.24	4.53
739.56	4.34
739.879	4.42
740.198	4.39
740.517	4.36
740.836	4.4
741.155	4.47
741.473	4.28
741.792	4.05
742.111	4.16
742.43	4.03
742.748	3.92
743.067	3.82
743.386	4.03
743.704	4.09
744.023	4.25
744.341	4.27
744.66	4.18
744.978	4.19
745.297	3.82
745.615	4.03
745.933	3.76
746.252	4.08
746.57	4.15
746.888	4.1
747.206	3.95
747.524	4.06
747.842	3.98
748.16	4.23
748.478	4.4
748.796	4.3
749.114	4.38
749.432	4.21
749.749	4.38
750.067	4.12
750.385	4.27
750.703	4.34
751.02	4.25
751.338	4.21
751.655	4.42
751.973	4.65
752.29	4.55
752.608	4.61
752.925	4.42
753.242	4.42
753.56	4.29
753.877	4.27
754.194	4.05
754.511	3.9
754.828	3.63
755.145	3.44
755.462	3.41
755.779	3.51
756.096	3.84
756.413	4
756.73	4.2
757.047	4.1
757.364	4.01
757.68	4.6
757.997	4.55
758.314	4.35
758.63	4.4
758.947	4.26
759.264	4.21
759.58	4.05
759.896	4.25
760.213	4.23
760.529	4.33
760.846	4.29
761.162	4.46
761.478	4.64
761.794	4.66
762.11	4.56
762.426	4.71
762.743	4.7
763.059	4.7
763.375	4.71
763.69	4.68
764.006	4.78
764.322	4.65
764.638	4.72
764.954	4.79
765.27	4.64
765.585	4.82
765.901	5
766.216	5.07
766.532	4.94
766.848	4.95
767.163	5.05
767.478	5.17
767.794	5.11
768.109	4.93
768.424	5.09
768.74	5.12
769.055	4.87
769.37	4.71
769.685	4.53
770	4.64
770.315	4.77
770.63	4.59
770.945	4.51
771.26	4.71
771.575	4.68
771.89	4.88
772.205	4.65
772.52	4.45
772.834	4.5
773.149	4.43
773.464	4.4
773.778	4.31
774.093	4.18
774.407	4.22
774.722	4.49
775.036	4.48
775.351	4.76
775.665	4.74
775.979	5.06
776.293	5.11
776.608	5
776.922	4.71
777.236	4.67
777.55	4.6
777.864	4.6
778.178	5.01
778.492	5.09
778.806	5.05
779.12	5.24
779.434	5.31
779.747	5.33
780.061	5.77
780.375	5.89
780.689	5.9
781.002	5.62
781.316	5.44
781.629	5.44
781.943	5.23
782.256	5
782.57	4.53
782.883	4.39
783.196	3.95
783.51	3.78
783.823	3.74
784.136	4.12
784.449	3.74
784.762	3.6
785.075	3.45
785.388	3.52
785.701	3.29
786.014	3.57
786.327	3.48
786.64	3.64
786.953	3.37
787.266	3.38
787.578	3.56
787.891	3.91
788.204	3.69
788.516	3.92
788.829	4.04
789.141	4.47
789.454	4.48
789.766	4.91
790.079	5.62
790.391	5.52
790.703	5.17
791.016	5.29
791.328	5.02
791.64	5.02
791.952	5.27
792.264	5.43
792.576	5.01
792.888	4.95
793.2	4.57
793.512	4.58
793.824	4.37
794.136	4.55
794.448	4.69
794.76	4.69
795.071	4.47
795.383	4.39
795.695	3.95
796.006	3.92
796.318	3.97
796.629	3.52
796.941	3.65
797.252	3.67
797.564	3.96
797.875	4.15
798.186	4.11
798.497	3.9
798.809	4.11
799.12	4.04
799.431	4.41
799.742	4.32
800.053	4.88
800.364	5.19
800.675	4.56
800.986	4.24
801.297	4.09
801.608	3.8
801.918	3.81
802.229	3.98
802.54	4.04
802.851	4.23
803.161	4.55
803.472	4.57
803.782	4.69
804.093	4.59
804.403	4.3
804.714	4.62
805.024	4.43
805.334	4.36
805.645	4.97
805.955	4.85
806.265	5.26
806.575	4.72
806.885	5.03
807.195	5.81
807.505	6.1
807.815	6.34
808.125	6.47
808.435	6.95
808.745	7.12
809.055	7.89
809.365	7.62
809.674	7.54
809.984	7.71
810.294	7.55
810.603	7.78
810.913	7.99
811.222	8.4
811.532	8.75
811.841	8.8
812.151	8.78
812.46	8.33
812.769	8.05
813.079	8.18
813.388	7.89
813.697	8.07
814.006	7.15
814.315	6.99
814.624	6.85
814.933	7.08
815.242	7.08
815.551	6.72
815.86	6.88
816.169	6.27
816.478	5.47
816.786	5.14
817.095	4.72
817.404	5.05
817.712	4.53
818.021	4.86
818.33	4.62
818.638	4.44
818.947	5.31
819.255	5.99
819.563	5.85
819.872	5.73
820.18	5.66
820.488	5.52
820.796	5.91
821.105	5.93
821.413	5.78
821.721	5.9
822.029	5.82
822.337	5.9
822.645	6.05
822.953	6.03
823.26	6.16
823.568	6.09
823.876	5.9
824.184	5.83
824.491	5.6
824.799	5.59
825.107	5.57
825.414	5.4
825.722	5.24
826.029	5.35
826.337	5.51
826.644	5.47
826.951	5.71
827.259	5.56
827.566	5.56
827.873	5.47
828.18	5.45
828.488	5.35
828.795	5.15
829.102	5.28
829.409	5.59
829.716	5.4
830.023	5.42
830.329	5.51
830.636	5.52
830.943	5.94
831.25	5.91
831.557	5.8
831.863	5.74
832.17	5.52
832.476	5.5
832.783	5.54
833.089	5.68
833.396	5.78
833.702	5.61
834.009	5.58
834.315	5.75
834.621	5.87
834.928	5.94
835.234	6.09
835.54	6.12
835.846	6.11
836.152	6.05
836.458	6.21
836.764	6.45
837.07	6.69
837.376	6.31
837.682	6.25
837.988	6.31
838.293	6.86
838.599	7.05
838.905	6.42
839.211	6.53
839.516	6.67
839.822	6.9
840.127	7.31
840.433	8.22
840.738	8.64
841.044	7.93
841.349	8.94
841.654	9.01
841.959	8.55
842.265	8.04
842.57	8.63
842.875	8.2
843.18	7.83
843.485	8.06
843.79	8.55
844.095	8.24
844.4	10.32
844.705	9.91
845.01	9.93
845.315	10.74
845.619	9.12
845.924	9.15
846.229	9.15
846.533	10.69
846.838	9.17
847.142	7.98
847.447	7.15
847.751	6.1
848.056	4.98
848.36	4.27
848.664	5.29
848.969	5.21
849.273	5.64
849.577	5.73
849.881	4.17
850.185	4.51
850.489	5.27
850.794	3.88
851.097	3.35
851.401	4.69
851.705	5.86
852.009	8.73
852.313	6.74
852.617	6.02
852.92	4.82
853.224	5.48
853.528	6.07
853.831	7.27
854.135	8.06
854.438	7.07
854.742	7.19
855.045	6.3
855.349	6.79
855.652	6.44
855.955	7.7
856.259	7.07
856.562	5.84
856.865	7.14
857.168	6.21
857.471	5.36
857.774	3.18
858.077	3.51
858.38	2.25
858.683	2.93
858.986	2.79
859.289	1.02
859.592	1.57
859.894	0.77
860.197	-0.23
860.5	-0.73
860.802	2.07
861.105	3.7
861.407	3.99
861.71	1.17
862.012	2.15
862.315	1.2
862.617	4.64
862.919	7.51
863.222	6.49
863.524	7.51
863.826	9.12
864.128	8.04
864.43	5.28
864.732	5.78
865.034	5.01
865.336	3.52
865.638	4.56
865.94	2.92
866.242	4.57
866.544	5.21
866.846	3.09
867.147	1.12
867.449	1.51
867.751	1.54
868.052	7.28
868.354	4.82
868.655	5.34
868.957	2.75
869.258	-0.24
869.56	0.6
869.861	-0.43
870.162	-1.15
870.463	0.19
870.765	1.47
871.066	0.54
871.367	1.87
871.668	2.98
871.969	4.54
872.27	5.18
872.571	7
872.872	7.52
873.173	8.15
873.473	9.52
873.774	8.47
874.075	9
874.376	5.71
874.676	7.41
874.977	5.29
875.277	6.38
875.578	7.08
875.878	6.6
876.179	6.29
876.479	6.65
876.78	7.74
877.08	8.65
877.38	8.88
877.68	9.45
877.981	9.77
878.281	7.61
878.581	8.58
