Data from BU58141_Reflection_00012.txt Node
Date: Mon Nov 18 16:46:58 EST 2019
User: vgr7
Spectrometer: USB2G7710
Scans to average: 3
Trigger mode: 4
Integration Time (sec): 2.000000E-2
Electric dark correction enabled: true
Boxcar width: 10
XAxis mode: Wavelengths
Number of Pixels in Spectrum: 2048
>>>>>Begin Spectral Data<<<<<
177.721	-76.06
178.105	-38.54
178.488	-60.17
178.871	-111.68
179.254	-0.17
179.636	7412.5
180.019	-140.8
180.402	59.26
180.785	74.75
181.168	-694.12
181.55	-38.25
181.933	78.48
182.316	188.34
182.698	88.88
183.081	76.05
183.463	38.09
183.846	5.95
184.228	-7.73
184.611	13.55
184.993	26.28
185.376	20.93
185.758	40.73
186.14	45.69
186.522	73.27
186.904	55.69
187.287	323.97
187.669	-232.18
188.051	-593.14
188.433	-145.57
188.815	-91.03
189.197	357.51
189.579	-3980
189.961	-529.83
190.342	-435.03
190.724	-23.48
191.106	-11.4
191.488	3.01
191.869	-35.21
192.251	-45.04
192.633	-31.23
193.014	-19.65
193.396	-37.96
193.777	-64.99
194.159	-73.63
194.54	-28.55
194.922	-64.73
195.303	-34.7
195.684	-43.53
196.065	-10.36
196.447	-28.86
196.828	-38.67
197.209	-21.59
197.59	-21.06
197.971	-21.76
198.352	-20.95
198.733	-40.24
199.114	-40.79
199.495	-51.4
199.876	-32.82
200.257	-27.98
200.638	-22.42
201.018	-32.74
201.399	-28.87
201.78	-22.67
202.16	-29.85
202.541	-53.15
202.922	-65.59
203.302	-79.2
203.683	-89
204.063	-108.04
204.444	-105.11
204.824	-111.81
205.204	-102.09
205.585	-118.74
205.965	-118.51
206.345	-133.32
206.725	-136.22
207.106	-181.95
207.486	-179.23
207.866	-195.79
208.246	-188.62
208.626	-183.98
209.006	-135.75
209.386	-169.39
209.766	-173.54
210.145	-136.09
210.525	-99.58
210.905	-71.83
211.285	-64.34
211.664	-62.29
212.044	-60.81
212.424	-80.2
212.803	-67.86
213.183	-79.52
213.562	-62.88
213.942	-58.25
214.321	-39.23
214.701	-49.16
215.08	-39.21
215.459	-49.82
215.838	-51.31
216.218	-53.99
216.597	-41.13
216.976	-33.17
217.355	-32.47
217.734	-35.27
218.113	-38.3
218.492	-39.7
218.871	-40.04
219.25	-36.47
219.629	-37.09
220.008	-27.03
220.387	-20.05
220.766	-28.16
221.144	-39.87
221.523	-39.41
221.902	-47.46
222.28	-65.98
222.659	-35.11
223.037	-32.3
223.416	-23.94
223.794	-24.05
224.173	-38.08
224.551	-37.2
224.929	-37.22
225.308	-32.67
225.686	-32.26
226.064	-26.52
226.442	-21.55
226.821	-21.7
227.199	-22.53
227.577	-20.3
227.955	-23.13
228.333	-23.37
228.711	-18.73
229.089	-9.78
229.467	-14.29
229.845	-12.91
230.222	-9.15
230.6	-10.33
230.978	-8.56
231.356	-7.51
231.733	-5.45
232.111	-1.46
232.488	0.71
232.866	-0.36
233.243	-1.24
233.621	-2.08
233.998	-0.71
234.376	-1.94
234.753	-0.36
235.13	1.07
235.508	4.13
235.885	3.45
236.262	3.03
236.639	1.37
237.016	-0.12
237.393	2.67
237.77	4.21
238.147	4.37
238.524	4.4
238.901	4.09
239.278	3.78
239.655	3.89
240.032	3.72
240.409	3
240.785	3.65
241.162	4.06
241.539	4.47
241.915	4.31
242.292	4.09
242.668	3.72
243.045	3.26
243.421	2.41
243.798	2.62
244.174	2.86
244.551	3.31
244.927	3.34
245.303	3.34
245.679	3.42
246.056	3.49
246.432	3.58
246.808	3.82
247.184	3.7
247.56	3.73
247.936	3.71
248.312	3.6
248.688	3.65
249.064	3.52
249.44	3.32
249.815	3.49
250.191	3.66
250.567	3.78
250.943	3.84
251.318	4.33
251.694	4.38
252.069	4.52
252.445	4.34
252.82	4.46
253.196	4.26
253.571	3.95
253.947	3.46
254.322	3.56
254.697	3.28
255.073	3.37
255.448	3.22
255.823	3.31
256.198	3.34
256.573	3.2
256.948	3.11
257.323	3.31
257.698	3.2
258.073	3.16
258.448	3.02
258.823	3.21
259.198	2.86
259.573	2.8
259.948	2.61
260.322	2.73
260.697	2.55
261.072	2.52
261.446	2.69
261.821	2.87
262.195	2.95
262.57	2.93
262.944	2.94
263.319	2.94
263.693	2.86
264.067	2.91
264.442	3.15
264.816	3.18
265.19	3.13
265.564	3.14
265.938	3.11
266.313	3.02
266.687	2.77
267.061	2.91
267.435	2.99
267.809	3.17
268.183	3.22
268.556	3.14
268.93	3.19
269.304	3.05
269.678	3.14
270.051	2.85
270.425	3.07
270.799	3.07
271.172	3.12
271.546	3.11
271.919	3.19
272.293	2.96
272.666	3.04
273.04	3.13
273.413	3.12
273.787	3.15
274.16	3.35
274.533	3.42
274.906	3.38
275.279	3.39
275.653	3.3
276.026	3.2
276.399	3.24
276.772	3.28
277.145	3.16
277.518	2.94
277.891	3
278.263	2.65
278.636	2.65
279.009	2.61
279.382	2.69
279.755	2.55
280.127	2.72
280.5	2.79
280.872	2.76
281.245	2.69
281.617	2.96
281.99	2.97
282.362	3.01
282.735	2.89
283.107	2.81
283.479	2.92
283.852	2.95
284.224	3.05
284.596	3.03
284.968	3.12
285.34	3.2
285.713	3.17
286.085	3.36
286.457	3.43
286.829	3.39
287.201	3.35
287.572	3.36
287.944	3.26
288.316	3.19
288.688	3.22
289.06	3.28
289.431	3.15
289.803	3.14
290.175	3.11
290.546	3.19
290.918	3.16
291.289	3.07
291.661	3.17
292.032	3.23
292.403	3.27
292.775	3.37
293.146	3.22
293.517	3.36
293.889	3.44
294.26	3.4
294.631	3.55
295.002	3.56
295.373	3.58
295.744	3.56
296.115	3.51
296.486	3.43
296.857	3.37
297.228	3.35
297.599	3.23
297.97	3.2
298.34	3.34
298.711	3.43
299.082	3.52
299.452	3.45
299.823	3.56
300.194	3.52
300.564	3.41
300.935	3.54
301.305	3.46
301.676	3.38
302.046	3.44
302.416	3.52
302.787	3.46
303.157	3.54
303.527	3.53
303.897	3.67
304.267	3.83
304.637	4
305.008	4.07
305.378	4.19
305.748	4.34
306.117	4.28
306.487	4.13
306.857	4.2
307.227	4.27
307.597	4.2
307.967	4.27
308.336	4.35
308.706	4.41
309.076	4.38
309.445	4.45
309.815	4.43
310.184	4.29
310.554	4.44
310.923	4.37
311.293	4.4
311.662	4.4
312.031	4.44
312.401	4.5
312.77	4.57
313.139	4.66
313.508	4.74
313.877	4.84
314.246	5.12
314.616	5.13
314.985	5.13
315.353	5.16
315.722	5.32
316.091	5.34
316.46	5.39
316.829	5.56
317.198	5.64
317.567	5.65
317.935	5.81
318.304	5.91
318.672	6.08
319.041	6.27
319.41	6.31
319.778	6.21
320.147	6.18
320.515	6.09
320.883	6.12
321.252	6.16
321.62	6.2
321.988	6.26
322.357	6.3
322.725	6.41
323.093	6.5
323.461	6.52
323.829	6.68
324.197	6.78
324.565	6.69
324.933	6.61
325.301	6.67
325.669	6.68
326.037	6.69
326.405	6.57
326.772	6.51
327.14	6.66
327.508	6.76
327.875	6.74
328.243	6.9
328.61	6.85
328.978	6.86
329.346	6.89
329.713	6.88
330.08	6.97
330.448	6.81
330.815	6.72
331.182	6.72
331.55	6.66
331.917	6.72
332.284	6.95
332.651	6.89
333.018	6.96
333.385	7.02
333.752	7.11
334.119	7.28
334.486	7.3
334.853	7.21
335.22	7.11
335.587	7.22
335.954	7.12
336.32	7.15
336.687	7.05
337.054	7.14
337.42	7.17
337.787	7.13
338.153	7.25
338.52	7.38
338.886	7.32
339.253	7.4
339.619	7.4
339.986	7.32
340.352	7.57
340.718	7.59
341.084	7.5
341.451	7.48
341.817	7.48
342.183	7.5
342.549	7.5
342.915	7.68
343.281	7.63
343.647	7.74
344.013	7.78
344.379	7.83
344.745	7.82
345.11	7.67
345.476	7.82
345.842	7.94
346.208	7.87
346.573	7.92
346.939	7.95
347.304	7.92
347.67	7.91
348.035	7.76
348.401	7.83
348.766	7.82
349.132	7.85
349.497	7.95
349.862	8
350.228	7.97
350.593	7.87
350.958	7.84
351.323	7.88
351.688	7.9
352.053	7.95
352.418	7.94
352.783	8.06
353.148	7.9
353.513	7.78
353.878	7.84
354.243	7.88
354.608	7.94
354.972	7.85
355.337	7.93
355.702	8.02
356.066	7.91
356.431	7.95
356.795	7.91
357.16	7.82
357.524	7.69
357.889	7.78
358.253	7.8
358.618	7.85
358.982	7.77
359.346	7.72
359.71	7.66
360.075	7.59
360.439	7.63
360.803	7.67
361.167	7.61
361.531	7.56
361.895	7.55
362.259	7.43
362.623	7.49
362.987	7.39
363.351	7.31
363.714	7.28
364.078	7.2
364.442	7.1
364.806	7.03
365.169	7.05
365.533	6.97
365.896	6.93
366.26	6.86
366.623	6.87
366.987	6.82
367.35	6.78
367.714	6.86
368.077	6.71
368.44	6.67
368.803	6.66
369.167	6.57
369.53	6.43
369.893	6.43
370.256	6.41
370.619	6.39
370.982	6.33
371.345	6.3
371.708	6.32
372.071	6.41
372.434	6.46
372.797	6.49
373.159	6.45
373.522	6.43
373.885	6.42
374.247	6.36
374.61	6.38
374.973	6.3
375.335	6.17
375.698	6.15
376.06	6.07
376.423	6.1
376.785	6.16
377.147	6.14
377.51	6.08
377.872	6.06
378.234	6.06
378.596	6.07
378.958	5.98
379.321	5.92
379.683	5.82
380.045	5.67
380.407	5.56
380.769	5.55
381.13	5.48
381.492	5.39
381.854	5.37
382.216	5.26
382.578	5.24
382.939	5.17
383.301	5.13
383.663	5.09
384.024	5.02
384.386	4.99
384.747	4.99
385.109	4.96
385.47	4.83
385.832	4.73
386.193	4.7
386.554	4.75
386.916	4.72
387.277	4.69
387.638	4.73
387.999	4.71
388.36	4.63
388.721	4.6
389.082	4.6
389.443	4.56
389.804	4.52
390.165	4.49
390.526	4.52
390.887	4.44
391.248	4.45
391.609	4.42
391.969	4.36
392.33	4.3
392.691	4.28
393.051	4.23
393.412	4.25
393.772	4.19
394.133	4.13
394.493	4.07
394.854	4.03
395.214	3.98
395.574	3.96
395.935	3.9
396.295	3.87
396.655	3.85
397.015	3.83
397.376	3.85
397.736	3.85
398.096	3.81
398.456	3.84
398.816	3.79
399.176	3.75
399.535	3.71
399.895	3.68
400.255	3.66
400.615	3.7
400.975	3.69
401.334	3.68
401.694	3.64
402.054	3.63
402.413	3.64
402.773	3.61
403.132	3.58
403.492	3.58
403.851	3.59
404.211	3.54
404.57	3.48
404.929	3.47
405.288	3.43
405.648	3.4
406.007	3.41
406.366	3.39
406.725	3.37
407.084	3.37
407.443	3.35
407.802	3.37
408.161	3.33
408.52	3.29
408.879	3.26
409.238	3.26
409.596	3.26
409.955	3.21
410.314	3.21
410.673	3.21
411.031	3.21
411.39	3.19
411.748	3.21
412.107	3.25
412.465	3.19
412.824	3.2
413.182	3.18
413.54	3.14
413.899	3.17
414.257	3.18
414.615	3.17
414.974	3.19
415.332	3.14
415.69	3.12
416.048	3.11
416.406	3.11
416.764	3.09
417.122	3.1
417.48	3.1
417.838	3.09
418.195	3.08
418.553	3.07
418.911	3.06
419.269	3.05
419.626	3.03
419.984	3.03
420.342	3.03
420.699	3.01
421.057	3.02
421.414	2.98
421.772	2.97
422.129	2.96
422.486	2.94
422.844	2.96
423.201	2.96
423.558	2.96
423.915	2.96
424.273	2.96
424.63	2.94
424.987	2.93
425.344	2.91
425.701	2.91
426.058	2.92
426.415	2.91
426.772	2.9
427.128	2.89
427.485	2.88
427.842	2.86
428.199	2.86
428.555	2.85
428.912	2.87
429.269	2.85
429.625	2.84
429.982	2.82
430.338	2.82
430.695	2.82
431.051	2.79
431.407	2.79
431.764	2.78
432.12	2.76
432.476	2.76
432.832	2.77
433.189	2.75
433.545	2.72
433.901	2.7
434.257	2.69
434.613	2.71
434.969	2.71
435.325	2.71
435.681	2.72
436.036	2.7
436.392	2.7
436.748	2.69
437.104	2.69
437.459	2.7
437.815	2.69
438.171	2.69
438.526	2.7
438.882	2.7
439.237	2.69
439.593	2.7
439.948	2.71
440.304	2.73
440.659	2.74
441.014	2.77
441.369	2.76
441.725	2.76
442.08	2.76
442.435	2.76
442.79	2.76
443.145	2.75
443.5	2.74
443.855	2.72
444.21	2.73
444.565	2.73
444.92	2.74
445.275	2.72
445.629	2.72
445.984	2.71
446.339	2.7
446.693	2.69
447.048	2.68
447.403	2.67
447.757	2.65
448.112	2.64
448.466	2.62
448.82	2.61
449.175	2.61
449.529	2.61
449.883	2.6
450.238	2.6
450.592	2.58
450.946	2.59
451.3	2.59
451.654	2.58
452.008	2.59
452.362	2.58
452.716	2.61
453.07	2.61
453.424	2.61
453.778	2.61
454.132	2.62
454.486	2.63
454.839	2.64
455.193	2.64
455.547	2.65
455.9	2.65
456.254	2.66
456.607	2.64
456.961	2.64
457.314	2.63
457.668	2.64
458.021	2.64
458.375	2.64
458.728	2.64
459.081	2.63
459.434	2.62
459.787	2.61
460.141	2.6
460.494	2.6
460.847	2.61
461.2	2.59
461.553	2.6
461.906	2.61
462.259	2.61
462.611	2.63
462.964	2.64
463.317	2.64
463.67	2.65
464.022	2.68
464.375	2.66
464.728	2.67
465.08	2.67
465.433	2.68
465.785	2.68
466.138	2.69
466.49	2.7
466.843	2.68
467.195	2.69
467.547	2.7
467.899	2.7
468.252	2.68
468.604	2.71
468.956	2.7
469.308	2.7
469.66	2.69
470.012	2.68
470.364	2.68
470.716	2.68
471.068	2.69
471.42	2.68
471.772	2.71
472.123	2.71
472.475	2.72
472.827	2.73
473.178	2.73
473.53	2.73
473.882	2.73
474.233	2.76
474.585	2.75
474.936	2.74
475.288	2.74
475.639	2.75
475.99	2.76
476.342	2.79
476.693	2.79
477.044	2.79
477.395	2.81
477.746	2.81
478.097	2.82
478.448	2.8
478.8	2.8
479.15	2.79
479.501	2.8
479.852	2.79
480.203	2.8
480.554	2.8
480.905	2.79
481.255	2.8
481.606	2.78
481.957	2.79
482.307	2.8
482.658	2.81
483.009	2.81
483.359	2.8
483.709	2.79
484.06	2.8
484.41	2.8
484.761	2.8
485.111	2.8
485.461	2.8
485.811	2.81
486.162	2.82
486.512	2.83
486.862	2.82
487.212	2.82
487.562	2.82
487.912	2.81
488.262	2.81
488.612	2.82
488.961	2.83
489.311	2.84
489.661	2.84
490.011	2.82
490.36	2.82
490.71	2.82
491.06	2.83
491.409	2.81
491.759	2.81
492.108	2.79
492.458	2.79
492.807	2.79
493.157	2.8
493.506	2.8
493.855	2.79
494.204	2.8
494.554	2.81
494.903	2.82
495.252	2.83
495.601	2.85
495.95	2.86
496.299	2.87
496.648	2.85
496.997	2.87
497.346	2.9
497.695	2.92
498.043	2.93
498.392	2.94
498.741	2.95
499.09	2.96
499.438	3
499.787	3.02
500.135	3.04
500.484	3.04
500.832	3.05
501.181	3.06
501.529	3.07
501.878	3.09
502.226	3.11
502.574	3.12
502.923	3.12
503.271	3.11
503.619	3.12
503.967	3.16
504.315	3.16
504.663	3.19
505.011	3.2
505.359	3.23
505.707	3.28
506.055	3.31
506.403	3.35
506.751	3.38
507.098	3.4
507.446	3.44
507.794	3.48
508.141	3.53
508.489	3.58
508.837	3.62
509.184	3.66
509.531	3.7
509.879	3.77
510.226	3.83
510.574	3.92
510.921	3.97
511.268	4.01
511.616	4.07
511.963	4.13
512.31	4.22
512.657	4.31
513.004	4.38
513.351	4.48
513.698	4.57
514.045	4.65
514.392	4.75
514.739	4.85
515.086	4.96
515.432	5.06
515.779	5.15
516.126	5.26
516.473	5.38
516.819	5.49
517.166	5.58
517.512	5.67
517.859	5.76
518.205	5.87
518.552	5.99
518.898	6.1
519.245	6.21
519.591	6.29
519.937	6.38
520.283	6.51
520.629	6.63
520.976	6.73
521.322	6.87
521.668	7.02
522.014	7.2
522.36	7.35
522.706	7.52
523.052	7.73
523.398	7.93
523.743	8.14
524.089	8.36
524.435	8.58
524.781	8.81
525.126	9
525.472	9.18
525.817	9.33
526.163	9.51
526.509	9.66
526.854	9.82
527.199	9.93
527.545	10.07
527.89	10.21
528.235	10.36
528.581	10.5
528.926	10.64
529.271	10.77
529.616	10.89
529.961	11.03
530.306	11.17
530.651	11.33
530.996	11.49
531.341	11.64
531.686	11.8
532.031	11.97
532.376	12.14
532.721	12.33
533.065	12.52
533.41	12.69
533.755	12.9
534.099	13.08
534.444	13.31
534.788	13.5
535.133	13.7
535.477	13.91
535.822	14.11
536.166	14.32
536.51	14.56
536.855	14.84
537.199	15.08
537.543	15.33
537.887	15.57
538.231	15.82
538.576	16.08
538.92	16.31
539.264	16.53
539.608	16.76
539.951	16.96
540.295	17.17
540.639	17.39
540.983	17.57
541.327	17.8
541.671	17.98
542.014	18.19
542.358	18.38
542.701	18.56
543.045	18.77
543.389	18.97
543.732	19.16
544.075	19.36
544.419	19.58
544.762	19.78
545.105	19.99
545.449	20.24
545.792	20.51
546.135	20.78
546.478	21.06
546.821	21.34
547.165	21.64
547.508	21.93
547.851	22.19
548.194	22.48
548.536	22.74
548.879	23.07
549.222	23.35
549.565	23.66
549.908	23.94
550.25	24.26
550.593	24.6
550.936	24.93
551.278	25.22
551.621	25.55
551.963	25.95
552.306	26.29
552.648	26.57
552.991	26.86
553.333	27.13
553.675	27.41
554.017	27.73
554.36	27.99
554.702	28.28
555.044	28.57
555.386	28.9
555.728	29.21
556.07	29.5
556.412	29.78
556.754	30.08
557.096	30.39
557.438	30.65
557.78	30.89
558.121	31.2
558.463	31.47
558.805	31.7
559.147	31.9
559.488	32.15
559.83	32.43
560.171	32.68
560.513	32.98
560.854	33.3
561.196	33.57
561.537	33.87
561.878	34.14
562.22	34.42
562.561	34.64
562.902	34.89
563.243	35.16
563.584	35.38
563.925	35.62
564.266	35.87
564.607	36.13
564.948	36.38
565.289	36.65
565.63	36.9
565.971	37.17
566.312	37.44
566.653	37.73
566.993	38.01
567.334	38.21
567.675	38.42
568.015	38.61
568.356	38.8
568.696	39.02
569.037	39.19
569.377	39.45
569.718	39.66
570.058	39.91
570.398	40.1
570.739	40.33
571.079	40.55
571.419	40.76
571.759	40.93
572.099	41.12
572.439	41.3
572.779	41.46
573.119	41.64
573.459	41.77
573.799	41.94
574.139	42.1
574.479	42.34
574.819	42.56
575.158	42.71
575.498	42.88
575.838	43.09
576.177	43.31
576.517	43.41
576.856	43.67
577.196	43.82
577.535	44.01
577.875	44.21
578.214	44.41
578.553	44.58
578.893	44.74
579.232	44.92
579.571	45.08
579.91	45.3
580.25	45.47
580.589	45.75
580.928	45.99
581.267	46.07
581.606	46.22
581.945	46.34
582.283	46.59
582.622	46.77
582.961	46.93
583.3	47.13
583.639	47.26
583.977	47.33
584.316	47.44
584.654	47.57
584.993	47.64
585.332	47.85
585.67	48.02
586.008	48.16
586.347	48.32
586.685	48.47
587.024	48.56
587.362	48.62
587.7	48.7
588.038	48.73
588.376	48.91
588.715	49.02
589.053	49.17
589.391	49.26
589.729	49.38
590.067	49.49
590.404	49.58
590.742	49.78
591.08	50
591.418	50.18
591.756	50.33
592.093	50.45
592.431	50.43
592.769	50.57
593.106	50.81
593.444	50.85
593.781	50.9
594.119	51.07
594.456	51.23
594.793	51.33
595.131	51.48
595.468	51.58
595.805	51.67
596.143	51.75
596.48	51.78
596.817	51.89
597.154	51.95
597.491	52.07
597.828	52.17
598.165	52.16
598.502	52.23
598.839	52.23
599.176	52.33
599.512	52.49
599.849	52.57
600.186	52.55
600.523	52.67
600.859	52.77
601.196	52.86
601.532	52.95
601.869	53.01
602.205	53.05
602.542	53.09
602.878	53.14
603.215	53.2
603.551	53.32
603.887	53.34
604.223	53.43
604.56	53.48
604.896	53.52
605.232	53.58
605.568	53.63
605.904	53.76
606.24	53.87
606.576	53.96
606.912	53.98
607.248	54.03
607.583	54.1
607.919	54.24
608.255	54.35
608.591	54.45
608.926	54.52
609.262	54.61
609.597	54.64
609.933	54.77
610.268	54.81
610.604	54.91
610.939	54.94
611.275	54.99
611.61	55.06
611.945	55.07
612.281	55.16
612.616	55.21
612.951	55.31
613.286	55.35
613.621	55.32
613.956	55.41
614.291	55.46
614.626	55.59
614.961	55.55
615.296	55.55
615.631	55.52
615.966	55.48
616.3	55.52
616.635	55.78
616.97	55.8
617.304	55.87
617.639	55.83
617.973	55.98
618.308	56.02
618.642	56
618.977	56.11
619.311	56.14
619.646	56.21
619.98	56.23
620.314	56.35
620.648	56.38
620.983	56.41
621.317	56.55
621.651	56.63
621.985	56.65
622.319	56.72
622.653	56.78
622.987	56.92
623.321	56.96
623.655	56.92
623.988	56.94
624.322	57.02
624.656	57.04
624.99	57.11
625.323	57.1
625.657	57.12
625.99	57.18
626.324	57.25
626.657	57.25
626.991	57.18
627.324	57.11
627.658	57.17
627.991	57.26
628.324	57.32
628.657	57.26
628.991	57.39
629.324	57.35
629.657	57.42
629.99	57.41
630.323	57.47
630.656	57.5
630.989	57.55
631.322	57.52
631.655	57.57
631.987	57.53
632.32	57.58
632.653	57.63
632.986	57.7
633.318	57.64
633.651	57.71
633.984	57.77
634.316	57.86
634.649	57.78
634.981	57.74
635.313	57.76
635.646	57.73
635.978	57.67
636.31	57.75
636.643	57.74
636.975	57.84
637.307	57.86
637.639	57.85
637.971	57.81
638.303	57.89
638.635	57.92
638.967	58.02
639.299	58.09
639.631	58.09
639.963	58.01
640.295	58.04
640.626	58.08
640.958	58.1
641.29	58.14
641.621	58.35
641.953	58.36
642.285	58.4
642.616	58.51
642.948	58.59
643.279	58.71
643.61	58.8
643.942	58.73
644.273	58.7
644.604	58.69
644.936	58.78
645.267	58.87
645.598	58.86
645.929	58.8
646.26	58.78
646.591	58.87
646.922	58.86
647.253	58.9
647.584	58.9
647.915	58.91
648.245	58.89
648.576	58.86
648.907	58.89
649.238	58.85
649.568	58.89
649.899	58.91
650.229	58.77
650.56	58.8
650.89	58.77
651.221	58.82
651.551	58.66
651.882	58.57
652.212	58.52
652.542	58.64
652.872	58.72
653.203	58.8
653.533	58.69
653.863	58.78
654.193	58.81
654.523	58.78
654.853	58.89
655.183	59.01
655.513	59
655.843	59.11
656.172	59.1
656.502	59.19
656.832	59.2
657.162	59.24
657.491	59.17
657.821	59.24
658.15	59.21
658.48	59.35
658.809	59.41
659.139	59.38
659.468	59.24
659.798	59.16
660.127	59.06
660.456	59.09
660.785	59.07
661.115	59.16
661.444	59.2
661.773	59.15
662.102	59.09
662.431	59.03
662.76	58.87
663.089	58.93
663.418	58.79
663.747	58.82
664.076	58.96
664.404	59.11
664.733	59.14
665.062	59.23
665.39	59.21
665.719	59.15
666.048	59.24
666.376	59.3
666.705	59.34
667.033	59.33
667.362	59.5
667.69	59.43
668.018	59.36
668.347	59.39
668.675	59.45
669.003	59.41
669.331	59.54
669.659	59.57
669.987	59.55
670.315	59.65
670.643	59.51
670.971	59.47
671.299	59.37
671.627	59.38
671.955	59.33
672.283	59.43
672.61	59.5
672.938	59.49
673.266	59.5
673.593	59.6
673.921	59.77
674.249	59.87
674.576	60.05
674.904	60.01
675.231	59.91
675.558	59.93
675.886	59.98
676.213	59.96
676.54	60.01
676.867	59.96
677.195	59.99
677.522	60.02
677.849	59.97
678.176	59.96
678.503	59.95
678.83	59.98
679.157	60.03
679.484	60.02
679.81	59.99
680.137	60.05
680.464	60
680.791	59.97
681.117	59.91
681.444	59.81
681.771	59.8
682.097	59.9
682.424	59.89
682.75	59.89
683.077	59.9
683.403	59.88
683.729	59.93
684.056	59.9
684.382	59.99
684.708	59.99
685.034	59.95
685.36	60.02
685.686	59.98
686.012	59.81
686.339	59.86
686.664	59.89
686.99	59.88
687.316	59.84
687.642	59.78
687.968	59.81
688.294	59.79
688.619	59.86
688.945	59.85
689.271	59.82
689.596	59.95
689.922	59.86
690.247	59.87
690.573	59.95
690.898	60.01
691.224	60.01
691.549	59.89
691.874	59.92
692.2	59.83
692.525	59.83
692.85	60.02
693.175	60.01
693.5	60.07
693.825	60.12
694.15	60.14
694.475	60.19
694.8	60.15
695.125	60.2
695.45	60.17
695.775	60.09
696.099	60.11
696.424	59.98
696.749	60.05
697.073	60.25
697.398	60.25
697.723	60.21
698.047	60.06
698.372	60.12
698.696	60.14
699.02	60.15
699.345	60.1
699.669	60.09
699.993	60.04
700.318	60.03
700.642	59.95
700.966	59.85
701.29	59.86
701.614	59.78
701.938	59.9
702.262	60.07
702.586	60.21
702.91	60.16
703.234	60.25
703.557	60.18
703.881	59.86
704.205	59.73
704.529	59.86
704.852	60.14
705.176	60.23
705.499	60.14
705.823	60.28
706.146	60.28
706.47	60.37
706.793	60.58
707.117	60.49
707.44	60.65
707.763	61
708.086	60.99
708.409	61.09
708.733	61
709.056	60.79
709.379	60.85
709.702	61.05
710.025	61
710.348	60.99
710.671	61.23
710.993	61.39
711.316	61.28
711.639	61.29
711.962	61.34
712.284	61.56
712.607	61.56
712.93	61.75
713.252	61.71
713.575	61.28
713.897	61.36
714.22	61.29
714.542	61.28
714.864	61.26
715.187	61.21
715.509	61.08
715.831	61.06
716.153	60.82
716.475	60.75
716.798	60.73
717.12	60.88
717.442	60.83
717.764	60.81
718.085	60.68
718.407	60.74
718.729	60.77
719.051	60.74
719.373	60.78
719.695	60.81
720.016	60.72
720.338	61.05
720.659	61.11
720.981	61.15
721.302	61.02
721.624	61.11
721.945	61.12
722.267	61.27
722.588	61.5
722.909	61.82
723.231	61.64
723.552	61.76
723.873	61.82
724.194	61.91
724.515	61.84
724.836	61.8
725.157	61.45
725.478	61.37
725.799	61.13
726.12	60.89
726.441	60.78
726.762	60.96
727.083	61.02
727.403	60.88
727.724	60.86
728.045	60.82
728.365	60.89
728.686	60.91
729.006	60.92
729.327	60.9
729.647	60.72
729.967	60.76
730.288	60.81
730.608	60.83
730.928	60.74
731.249	60.79
731.569	61
731.889	61.2
732.209	61.27
732.529	61.36
732.849	61.51
733.169	61.63
733.489	61.42
733.809	61.45
734.129	61.48
734.448	61.55
734.768	61.4
735.088	61.32
735.408	61.27
735.727	61.16
736.047	60.86
736.366	60.68
736.686	60.87
737.005	60.7
737.325	60.58
737.644	60.19
737.963	60.15
738.283	59.83
738.602	59.99
738.921	59.86
739.24	60.04
739.56	60.01
739.879	59.94
740.198	59.77
740.517	60
740.836	59.94
741.155	60.03
741.473	60.23
741.792	60.27
742.111	60.28
742.43	60.45
742.748	60.76
743.067	60.82
743.386	60.57
743.704	60.75
744.023	60.97
744.341	61.29
744.66	61.03
744.978	61.04
745.297	60.72
745.615	60.61
745.933	60.82
746.252	60.9
746.57	60.68
746.888	61.07
747.206	60.64
747.524	60.84
747.842	60.69
748.16	60.71
748.478	60.74
748.796	60.79
749.114	60.73
749.432	60.81
749.749	60.95
750.067	60.87
750.385	60.63
750.703	60.48
751.02	60.58
751.338	61.15
751.655	61.39
751.973	61.76
752.29	61.82
752.608	61.28
752.925	60.77
753.242	61
753.56	60.61
753.877	60.67
754.194	60.58
754.511	60.38
754.828	60.29
755.145	59.83
755.462	59.43
755.779	59.45
756.096	59.49
756.413	59.46
756.73	59.57
757.047	59.67
757.364	59.92
757.68	60.13
757.997	60
758.314	60.16
758.63	59.69
758.947	59.59
759.264	59.64
759.58	60.01
759.896	59.98
760.213	60.28
760.529	60.53
760.846	60.87
761.162	60.93
761.478	60.87
761.794	61.1
762.11	61.31
762.426	61.38
762.743	61.14
763.059	61.15
763.375	61.09
763.69	60.97
764.006	60.84
764.322	60.77
764.638	60.63
764.954	60.49
765.27	60.65
765.585	60.7
765.901	60.55
766.216	60.6
766.532	60.54
766.848	60.48
767.163	60.4
767.478	60.09
767.794	60.04
768.109	60.18
768.424	60.63
768.74	60.41
769.055	60.26
769.37	60.66
769.685	60.87
770	60.92
770.315	60.97
770.63	61.06
770.945	61.01
771.26	61.13
771.575	61.46
771.89	61.58
772.205	61.99
772.52	62.3
772.834	62.38
773.149	62.66
773.464	62.73
773.778	62.84
774.093	62.73
774.407	62.82
774.722	62.85
775.036	62.26
775.351	63.09
775.665	63.05
775.979	62.74
776.293	62.48
776.608	62.57
776.922	62.84
777.236	62.72
777.55	62.45
777.864	62.52
778.178	62.94
778.492	62.71
778.806	62.55
779.12	62.86
779.434	62.4
779.747	62.67
780.061	62.7
780.375	62.8
780.689	62.86
781.002	62.67
781.316	62.86
781.629	62.99
781.943	62.56
782.256	62.43
782.57	62.01
782.883	62.12
783.196	62.18
783.51	61.85
783.823	61.81
784.136	62.1
784.449	61.73
784.762	60.51
785.075	60.79
785.388	60.55
785.701	60.56
786.014	60.48
786.327	59.85
786.64	59.33
786.953	58.76
787.266	58.64
787.578	58.69
787.891	58.26
788.204	58.14
788.516	58.45
788.829	59.02
789.141	59.98
789.454	59.99
789.766	59.86
790.079	59.54
790.391	58.92
790.703	58.84
791.016	58.85
791.328	59.33
791.64	58.88
791.952	59.24
792.264	58.86
792.576	59.21
792.888	59.12
793.2	59.69
793.512	59.8
793.824	59.7
794.136	59.85
794.448	60.73
794.76	60.55
795.071	60.61
795.383	59.75
795.695	58.91
796.006	59.1
796.318	59.53
796.629	59.83
796.941	60.04
797.252	60.36
797.564	60.77
797.875	60.54
798.186	60.45
798.497	60.48
798.809	60.84
799.12	60.8
799.431	60.74
799.742	60.74
800.053	61.17
800.364	61.67
800.675	62.19
800.986	61.53
801.297	62.04
801.608	61.64
801.918	62.4
802.229	62.8
802.54	62.99
802.851	62.92
803.161	62.98
803.472	62.95
803.782	63.07
804.093	62.45
804.403	61.89
804.714	62.16
805.024	61.86
805.334	61.57
805.645	61.44
805.955	61.8
806.265	61.47
806.575	61.61
806.885	61.16
807.195	60.87
807.505	60.82
807.815	60.8
808.125	60.86
808.435	60.62
808.745	60.64
809.055	60.37
809.365	60.44
809.674	60.99
809.984	61.68
810.294	60.92
810.603	61.57
810.913	63.23
811.222	63.09
811.532	63.45
811.841	63.9
812.151	64.17
812.46	64.4
812.769	64.93
813.079	63.74
813.388	64.04
813.697	64.45
814.006	64.3
814.315	64.04
814.624	63.37
814.933	63.07
815.242	62.6
815.551	62.39
815.86	62.06
816.169	62.1
816.478	61.38
816.786	61.53
817.095	61.56
817.404	61.32
817.712	61.85
818.021	62.22
818.33	61.81
818.638	62.31
818.947	62.74
819.255	62.26
819.563	62.88
819.872	62.2
820.18	62.27
820.488	62.1
820.796	62.07
821.105	62.26
821.413	62.81
821.721	62.88
822.029	62.94
822.337	63.05
822.645	62.95
822.953	63.07
823.26	63.21
823.568	63.04
823.876	62.64
824.184	62.46
824.491	62.31
824.799	62.43
825.107	62.26
825.414	62.07
825.722	62.28
826.029	62.2
826.337	62.43
826.644	62.35
826.951	62.41
827.259	62.33
827.566	62.24
827.873	61.9
828.18	61.95
828.488	61.98
828.795	61.93
829.102	61.97
829.409	61.86
829.716	61.84
830.023	61.9
830.329	62.17
830.636	62.33
830.943	62.16
831.25	61.77
831.557	61.98
831.863	62.2
832.17	62.12
832.476	62.2
832.783	62.51
833.089	61.69
833.396	61.73
833.702	61.79
834.009	62.24
834.315	62.35
834.621	62.32
834.928	61.9
835.234	61.66
835.54	61.65
835.846	61.53
836.152	61.35
836.458	61.45
836.764	61.72
837.07	62.13
837.376	62.02
837.682	62.17
837.988	62
838.293	62.17
838.599	61.98
838.905	61.7
839.211	61.58
839.516	63
839.822	64.08
840.127	64.49
840.433	64.05
840.738	64.53
841.044	63.6
841.349	63.61
841.654	62.67
841.959	63.13
842.265	64.3
842.57	64.19
842.875	64.07
843.18	65.21
843.485	64.23
843.79	65.46
844.095	66.74
844.4	67.52
844.705	65.83
845.01	64.71
845.315	65.69
845.619	66.13
845.924	65.79
846.229	64.93
846.533	64.84
846.838	64.78
847.142	63.49
847.447	63.86
847.751	63.82
848.056	65.97
848.36	65.43
848.664	63.86
848.969	65.8
849.273	66.33
849.577	64.83
849.881	64.49
850.185	64.43
850.489	63.47
850.794	61.55
851.097	62.31
851.401	64.3
851.705	63.5
852.009	61.48
852.313	60.19
852.617	59.66
852.92	60.1
853.224	60.51
853.528	60.31
853.831	60.39
854.135	62.13
854.438	61.97
854.742	59.14
855.045	58.69
855.349	54.81
855.652	55.25
855.955	54.94
856.259	54.11
856.562	53.15
856.865	53.68
857.168	55.01
857.471	56.25
857.774	55.45
858.077	57.52
858.38	57.09
858.683	58.58
858.986	57.25
859.289	56.14
859.592	56.84
859.894	57.3
860.197	57.2
860.5	58.7
860.802	56.64
861.105	57.42
861.407	58.48
861.71	59.77
862.012	58.34
862.315	58.51
862.617	58.41
862.919	59.76
863.222	58.56
863.524	58.08
863.826	57.68
864.128	60.92
864.43	58.06
864.732	59.2
865.034	58.89
865.336	59.34
865.638	59.05
865.94	56.58
866.242	53.76
866.544	53.77
866.846	51.8
867.147	53.19
867.449	56.09
867.751	55.3
868.052	55.5
868.354	56.13
868.655	56.61
868.957	59.34
869.258	58.53
869.56	58.28
869.861	56.43
870.162	55.73
870.463	54.47
870.765	53.75
871.066	53.38
871.367	54.27
871.668	54.23
871.969	55.11
872.27	56.37
872.571	58.48
872.872	60.3
873.173	59.01
873.473	59.41
873.774	59.51
874.075	60.67
874.376	60.38
874.676	60.96
874.977	59.92
875.277	59.62
875.578	58.87
875.878	59.06
876.179	60.74
876.479	60.92
876.78	59.17
877.08	61.24
877.38	62.17
877.68	59.9
877.981	61.32
878.281	61.35
878.581	61.6
