Data from BU58138_Reflection_00004.txt Node
Date: Mon Nov 18 16:42:05 EST 2019
User: vgr7
Spectrometer: USB2G7710
Scans to average: 3
Trigger mode: 4
Integration Time (sec): 2.000000E-2
Electric dark correction enabled: true
Boxcar width: 10
XAxis mode: Wavelengths
Number of Pixels in Spectrum: 2048
>>>>>Begin Spectral Data<<<<<
177.721	71433.33
178.105	-153.97
178.488	-109.27
178.871	-2191.67
179.254	124.33
179.636	82.74
180.019	1.37
180.402	107.41
180.785	11.65
181.168	24.49
181.55	14.03
181.933	42.6
182.316	37.65
182.698	22.84
183.081	13.43
183.463	-9.05
183.846	-4.94
184.228	-16.07
184.611	-16.97
184.993	-5.8
185.376	23.36
185.758	27.13
186.14	40.06
186.522	29.93
186.904	-24.32
187.287	-192.24
187.669	436.92
188.051	-68.5
188.433	-57.33
188.815	-1541.03
189.197	214.48
189.579	83.63
189.961	28.5
190.342	0.67
190.724	0.94
191.106	-11.48
191.488	-20.38
191.869	-22.54
192.251	-22.9
192.633	-39.6
193.014	-38.93
193.396	-39.8
193.777	-18.42
194.159	-21.71
194.54	-30.52
194.922	-21.17
195.303	-43.37
195.684	-63.16
196.065	-26.57
196.447	-37.52
196.828	-35.05
197.209	-35.56
197.59	-46.79
197.971	-33.33
198.352	-13.75
198.733	-17.93
199.114	-9.79
199.495	-4.15
199.876	2.01
200.257	0.03
200.638	27.04
201.018	24.42
201.399	27
201.78	20.34
202.16	4.69
202.541	6.7
202.922	-37.73
203.302	-54.55
203.683	-54.78
204.063	-87.63
204.444	-66.82
204.824	-50.54
205.204	-45.89
205.585	-43.34
205.965	-48.04
206.345	-58.53
206.725	-76.68
207.106	-85.46
207.486	-92.45
207.866	-83.74
208.246	-80.8
208.626	-79.19
209.006	-56.18
209.386	-67.67
209.766	-52.3
210.145	-44.68
210.525	-35.87
210.905	-25.7
211.285	-14.44
211.664	-17.04
212.044	-10.17
212.424	-10.34
212.803	-19.26
213.183	-17.31
213.562	-11.94
213.942	-10.64
214.321	-15.66
214.701	-11.43
215.08	-12.7
215.459	-13.62
215.838	-16.28
216.218	-20.51
216.597	-10.32
216.976	-11.99
217.355	-13.13
217.734	-17.63
218.113	-7.93
218.492	-16.95
218.871	-19.99
219.25	-23.25
219.629	-12.4
220.008	-23.37
220.387	-17.53
220.766	-12.96
221.144	-27.91
221.523	-50.93
221.902	-63.74
222.28	-80.08
222.659	-61.18
223.037	-55.02
223.416	-28.99
223.794	-26.81
224.173	-22.15
224.551	-23.06
224.929	-33.08
225.308	-20.83
225.686	-19.29
226.064	-17.9
226.442	-13.96
226.821	-9.18
227.199	-7.64
227.577	-11.75
227.955	-11.22
228.333	-7.66
228.711	-4.46
229.089	-2
229.467	-2.36
229.845	-2.89
230.222	-1.06
230.6	-3.28
230.978	-3.72
231.356	-3.16
231.733	-0.04
232.111	-0.1
232.488	1.16
232.866	3.34
233.243	4.46
233.621	4.31
233.998	4.85
234.376	3.9
234.753	3.65
235.13	1.44
235.508	3.88
235.885	3.23
236.262	1
236.639	0.24
237.016	-0.05
237.393	1.5
237.77	2.31
238.147	2.19
238.524	2.85
238.901	4.09
239.278	2.7
239.655	2.97
240.032	4.23
240.409	3.27
240.785	2.81
241.162	2.25
241.539	2.37
241.915	2.15
242.292	2.64
242.668	2.66
243.045	3.66
243.421	3.78
243.798	3.91
244.174	3.96
244.551	3.9
244.927	3.86
245.303	4.05
245.679	4.44
246.056	4.57
246.432	4.71
246.808	4.78
247.184	5.1
247.56	4.71
247.936	4.4
248.312	4.4
248.688	4.56
249.064	4.5
249.44	4.5
249.815	4.67
250.191	4.56
250.567	4.64
250.943	4.4
251.318	4.4
251.694	4.58
252.069	4.76
252.445	4.75
252.82	4.66
253.196	4.27
253.571	3.93
253.947	4.01
254.322	4.03
254.697	3.58
255.073	3.32
255.448	3.41
255.823	3.73
256.198	3.98
256.573	4.13
256.948	4.41
257.323	4.53
257.698	4.5
258.073	4.54
258.448	4.65
258.823	4.67
259.198	4.57
259.573	4.48
259.948	4.33
260.322	4.46
260.697	4.5
261.072	4.75
261.446	4.87
261.821	4.85
262.195	4.91
262.57	4.97
262.944	5.17
263.319	5.2
263.693	5.03
264.067	5
264.442	4.8
264.816	4.68
265.19	4.43
265.564	4.59
265.938	4.49
266.313	4.33
266.687	4.21
267.061	4.31
267.435	4.46
267.809	4.44
268.183	4.4
268.556	4.35
268.93	3.92
269.304	3.72
269.678	3.7
270.051	3.52
270.425	3.35
270.799	3.25
271.172	3.17
271.546	3.13
271.919	3.07
272.293	3.05
272.666	3.22
273.04	3.44
273.413	3.25
273.787	3.36
274.16	3.37
274.533	3.37
274.906	3.36
275.279	3.23
275.653	3.43
276.026	3.38
276.399	3.41
276.772	3.77
277.145	3.76
277.518	3.7
277.891	3.66
278.263	3.79
278.636	3.84
279.009	3.99
279.382	4.16
279.755	4.3
280.127	4.48
280.5	4.39
280.872	4.34
281.245	4.29
281.617	4.14
281.99	4.28
282.362	4.47
282.735	4.46
283.107	4.46
283.479	4.35
283.852	4.26
284.224	4.27
284.596	4.21
284.968	4.29
285.34	4.37
285.713	4.52
286.085	4.58
286.457	4.63
286.829	4.62
287.201	4.6
287.572	4.49
287.944	4.41
288.316	4.36
288.688	4.3
289.06	4.31
289.431	4.36
289.803	4.33
290.175	4.36
290.546	4.45
290.918	4.45
291.289	4.45
291.661	4.66
292.032	4.79
292.403	4.74
292.775	4.77
293.146	4.68
293.517	4.56
293.889	4.64
294.26	4.57
294.631	4.53
295.002	4.45
295.373	4.53
295.744	4.58
296.115	4.52
296.486	4.41
296.857	4.48
297.228	4.58
297.599	4.51
297.97	4.44
298.34	4.38
298.711	4.36
299.082	4.37
299.452	4.19
299.823	4.18
300.194	4.24
300.564	4.08
300.935	4.08
301.305	3.99
301.676	3.94
302.046	4
302.416	4.1
302.787	3.99
303.157	4.01
303.527	4.06
303.897	4.27
304.267	4.64
304.637	4.68
305.008	4.66
305.378	4.7
305.748	4.64
306.117	4.52
306.487	4.53
306.857	4.52
307.227	4.67
307.597	4.66
307.967	4.63
308.336	4.75
308.706	4.7
309.076	4.87
309.445	4.87
309.815	4.87
310.184	4.81
310.554	4.96
310.923	4.78
311.293	4.62
311.662	4.54
312.031	4.47
312.401	4.35
312.77	4.43
313.139	4.54
313.508	4.51
313.877	4.57
314.246	4.59
314.616	4.62
314.985	4.55
315.353	4.49
315.722	4.56
316.091	4.32
316.46	4.36
316.829	4.35
317.198	4.36
317.567	4.18
317.935	4.03
318.304	4.05
318.672	4.09
319.041	4.14
319.41	4.09
319.778	3.98
320.147	3.96
320.515	3.84
320.883	3.56
321.252	3.61
321.62	3.58
321.988	3.63
322.357	3.72
322.725	3.83
323.093	3.91
323.461	3.8
323.829	4.1
324.197	4.12
324.565	4.1
324.933	4.09
325.301	4.2
325.669	4.37
326.037	4.43
326.405	4.53
326.772	4.47
327.14	4.68
327.508	4.72
327.875	4.75
328.243	4.76
328.61	4.8
328.978	4.86
329.346	4.93
329.713	4.82
330.08	4.69
330.448	4.53
330.815	4.45
331.182	4.53
331.55	4.49
331.917	4.56
332.284	4.63
332.651	4.67
333.018	4.69
333.385	4.57
333.752	4.56
334.119	4.68
334.486	4.85
334.853	4.69
335.22	4.63
335.587	4.65
335.954	4.62
336.32	4.66
336.687	4.63
337.054	4.61
337.42	4.63
337.787	4.71
338.153	4.7
338.52	4.66
338.886	4.61
339.253	4.49
339.619	4.58
339.986	4.62
340.352	4.58
340.718	4.52
341.084	4.6
341.451	4.63
341.817	4.64
342.183	4.45
342.549	4.49
342.915	4.51
343.281	4.47
343.647	4.44
344.013	4.41
344.379	4.36
344.745	4.32
345.11	4.38
345.476	4.37
345.842	4.44
346.208	4.52
346.573	4.46
346.939	4.58
347.304	4.43
347.67	4.32
348.035	4.29
348.401	4.35
348.766	4.27
349.132	4.21
349.497	4.07
349.862	4.26
350.228	4.23
350.593	4.15
350.958	4.28
351.323	4.32
351.688	4.29
352.053	4.38
352.418	4.36
352.783	4.36
353.148	4.36
353.513	4.34
353.878	4.32
354.243	4.47
354.608	4.48
354.972	4.54
355.337	4.5
355.702	4.53
356.066	4.51
356.431	4.55
356.795	4.57
357.16	4.55
357.524	4.49
357.889	4.49
358.253	4.54
358.618	4.55
358.982	4.61
359.346	4.62
359.71	4.58
360.075	4.65
360.439	4.65
360.803	4.61
361.167	4.56
361.531	4.52
361.895	4.46
362.259	4.39
362.623	4.34
362.987	4.35
363.351	4.38
363.714	4.41
364.078	4.41
364.442	4.37
364.806	4.42
365.169	4.4
365.533	4.37
365.896	4.38
366.26	4.34
366.623	4.31
366.987	4.3
367.35	4.26
367.714	4.27
368.077	4.28
368.44	4.26
368.803	4.34
369.167	4.36
369.53	4.31
369.893	4.36
370.256	4.42
370.619	4.44
370.982	4.4
371.345	4.32
371.708	4.34
372.071	4.32
372.434	4.28
372.797	4.29
373.159	4.26
373.522	4.23
373.885	4.27
374.247	4.22
374.61	4.3
374.973	4.3
375.335	4.25
375.698	4.23
376.06	4.32
376.423	4.28
376.785	4.26
377.147	4.32
377.51	4.35
377.872	4.36
378.234	4.38
378.596	4.36
378.958	4.37
379.321	4.31
379.683	4.36
380.045	4.36
380.407	4.36
380.769	4.42
381.13	4.38
381.492	4.33
381.854	4.38
382.216	4.35
382.578	4.43
382.939	4.46
383.301	4.46
383.663	4.4
384.024	4.41
384.386	4.45
384.747	4.45
385.109	4.44
385.47	4.41
385.832	4.4
386.193	4.41
386.554	4.4
386.916	4.47
387.277	4.47
387.638	4.53
387.999	4.54
388.36	4.49
388.721	4.52
389.082	4.53
389.443	4.46
389.804	4.46
390.165	4.41
390.526	4.39
390.887	4.41
391.248	4.38
391.609	4.37
391.969	4.32
392.33	4.29
392.691	4.28
393.051	4.28
393.412	4.34
393.772	4.31
394.133	4.35
394.493	4.32
394.854	4.32
395.214	4.27
395.574	4.29
395.935	4.31
396.295	4.32
396.655	4.32
397.015	4.33
397.376	4.32
397.736	4.33
398.096	4.32
398.456	4.31
398.816	4.37
399.176	4.38
399.535	4.38
399.895	4.37
400.255	4.39
400.615	4.4
400.975	4.38
401.334	4.39
401.694	4.39
402.054	4.4
402.413	4.38
402.773	4.37
403.132	4.34
403.492	4.33
403.851	4.31
404.211	4.32
404.57	4.32
404.929	4.37
405.288	4.36
405.648	4.32
406.007	4.31
406.366	4.27
406.725	4.27
407.084	4.3
407.443	4.31
407.802	4.3
408.161	4.3
408.52	4.24
408.879	4.24
409.238	4.23
409.596	4.21
409.955	4.2
410.314	4.2
410.673	4.21
411.031	4.21
411.39	4.2
411.748	4.19
412.107	4.19
412.465	4.15
412.824	4.16
413.182	4.18
413.54	4.2
413.899	4.21
414.257	4.2
414.615	4.2
414.974	4.2
415.332	4.19
415.69	4.15
416.048	4.16
416.406	4.18
416.764	4.19
417.122	4.21
417.48	4.21
417.838	4.21
418.195	4.2
418.553	4.2
418.911	4.22
419.269	4.22
419.626	4.22
419.984	4.2
420.342	4.21
420.699	4.21
421.057	4.2
421.414	4.19
421.772	4.21
422.129	4.21
422.486	4.21
422.844	4.23
423.201	4.24
423.558	4.24
423.915	4.24
424.273	4.23
424.63	4.22
424.987	4.23
425.344	4.24
425.701	4.22
426.058	4.22
426.415	4.2
426.772	4.19
427.128	4.18
427.485	4.19
427.842	4.17
428.199	4.18
428.555	4.19
428.912	4.19
429.269	4.17
429.625	4.16
429.982	4.14
430.338	4.13
430.695	4.14
431.051	4.13
431.407	4.13
431.764	4.13
432.12	4.11
432.476	4.1
432.832	4.11
433.189	4.12
433.545	4.13
433.901	4.14
434.257	4.13
434.613	4.15
434.969	4.16
435.325	4.15
435.681	4.16
436.036	4.15
436.392	4.15
436.748	4.14
437.104	4.13
437.459	4.13
437.815	4.11
438.171	4.12
438.526	4.14
438.882	4.12
439.237	4.13
439.593	4.14
439.948	4.16
440.304	4.15
440.659	4.17
441.014	4.16
441.369	4.17
441.725	4.18
442.08	4.17
442.435	4.17
442.79	4.16
443.145	4.15
443.5	4.14
443.855	4.15
444.21	4.15
444.565	4.16
444.92	4.17
445.275	4.17
445.629	4.15
445.984	4.15
446.339	4.15
446.693	4.14
447.048	4.13
447.403	4.11
447.757	4.09
448.112	4.07
448.466	4.06
448.82	4.05
449.175	4.06
449.529	4.06
449.883	4.05
450.238	4.07
450.592	4.07
450.946	4.06
451.3	4.06
451.654	4.05
452.008	4.04
452.362	4.03
452.716	4.05
453.07	4.06
453.424	4.05
453.778	4.04
454.132	4.01
454.486	4
454.839	4
455.193	3.99
455.547	4.01
455.9	4.02
456.254	4.02
456.607	4.02
456.961	4.02
457.314	4.03
457.668	4.03
458.021	4.02
458.375	4.03
458.728	4.01
459.081	4.01
459.434	4
459.787	4.01
460.141	4
460.494	3.99
460.847	4
461.2	4.01
461.553	4.04
461.906	4.05
462.259	4.06
462.611	4.09
462.964	4.09
463.317	4.1
463.67	4.11
464.022	4.09
464.375	4.07
464.728	4.08
465.08	4.06
465.433	4.07
465.785	4.08
466.138	4.09
466.49	4.11
466.843	4.13
467.195	4.13
467.547	4.14
467.899	4.15
468.252	4.14
468.604	4.16
468.956	4.13
469.308	4.13
469.66	4.13
470.012	4.11
470.364	4.13
470.716	4.13
471.068	4.13
471.42	4.13
471.772	4.14
472.123	4.15
472.475	4.18
472.827	4.17
473.178	4.17
473.53	4.17
473.882	4.16
474.233	4.16
474.585	4.17
474.936	4.17
475.288	4.16
475.639	4.18
475.99	4.17
476.342	4.18
476.693	4.2
477.044	4.21
477.395	4.21
477.746	4.2
478.097	4.19
478.448	4.18
478.8	4.17
479.15	4.17
479.501	4.18
479.852	4.16
480.203	4.18
480.554	4.19
480.905	4.2
481.255	4.21
481.606	4.22
481.957	4.23
482.307	4.22
482.658	4.22
483.009	4.23
483.359	4.23
483.709	4.24
484.06	4.24
484.41	4.23
484.761	4.25
485.111	4.26
485.461	4.26
485.811	4.26
486.162	4.27
486.512	4.28
486.862	4.27
487.212	4.27
487.562	4.28
487.912	4.27
488.262	4.26
488.612	4.27
488.961	4.26
489.311	4.25
489.661	4.25
490.011	4.27
490.36	4.25
490.71	4.25
491.06	4.24
491.409	4.24
491.759	4.24
492.108	4.22
492.458	4.21
492.807	4.19
493.157	4.2
493.506	4.2
493.855	4.2
494.204	4.2
494.554	4.22
494.903	4.2
495.252	4.19
495.601	4.2
495.95	4.21
496.299	4.19
496.648	4.21
496.997	4.22
497.346	4.22
497.695	4.23
498.043	4.24
498.392	4.23
498.741	4.25
499.09	4.25
499.438	4.27
499.787	4.27
500.135	4.28
500.484	4.29
500.832	4.3
501.181	4.3
501.529	4.29
501.878	4.31
502.226	4.32
502.574	4.38
502.923	4.39
503.271	4.39
503.619	4.43
503.967	4.42
504.315	4.43
504.663	4.41
505.011	4.43
505.359	4.45
505.707	4.48
506.055	4.5
506.403	4.5
506.751	4.5
507.098	4.52
507.446	4.55
507.794	4.55
508.141	4.55
508.489	4.54
508.837	4.57
509.184	4.56
509.531	4.59
509.879	4.6
510.226	4.6
510.574	4.58
510.921	4.58
511.268	4.59
511.616	4.61
511.963	4.61
512.31	4.62
512.657	4.63
513.004	4.63
513.351	4.63
513.698	4.65
514.045	4.67
514.392	4.69
514.739	4.69
515.086	4.71
515.432	4.71
515.779	4.73
516.126	4.75
516.473	4.76
516.819	4.75
517.166	4.75
517.512	4.76
517.859	4.78
518.205	4.78
518.552	4.8
518.898	4.78
519.245	4.78
519.591	4.79
519.937	4.78
520.283	4.78
520.629	4.81
520.976	4.8
521.322	4.79
521.668	4.76
522.014	4.76
522.36	4.77
522.706	4.78
523.052	4.8
523.398	4.79
523.743	4.79
524.089	4.79
524.435	4.79
524.781	4.77
525.126	4.79
525.472	4.8
525.817	4.79
526.163	4.79
526.509	4.8
526.854	4.81
527.199	4.83
527.545	4.84
527.89	4.82
528.235	4.81
528.581	4.82
528.926	4.83
529.271	4.84
529.616	4.86
529.961	4.86
530.306	4.86
530.651	4.86
530.996	4.87
531.341	4.87
531.686	4.87
532.031	4.87
532.376	4.87
532.721	4.87
533.065	4.88
533.41	4.89
533.755	4.89
534.099	4.88
534.444	4.87
534.788	4.87
535.133	4.87
535.477	4.88
535.822	4.88
536.166	4.88
536.51	4.86
536.855	4.84
537.199	4.84
537.543	4.83
537.887	4.84
538.231	4.82
538.576	4.81
538.92	4.82
539.264	4.83
539.608	4.83
539.951	4.85
540.295	4.83
540.639	4.84
540.983	4.85
541.327	4.85
541.671	4.85
542.014	4.85
542.358	4.88
542.701	4.88
543.045	4.88
543.389	4.89
543.732	4.91
544.075	4.91
544.419	4.91
544.762	4.91
545.105	4.91
545.449	4.93
545.792	4.93
546.135	4.93
546.478	4.94
546.821	4.93
547.165	4.91
547.508	4.93
547.851	4.9
548.194	4.9
548.536	4.91
548.879	4.95
549.222	4.96
549.565	4.94
549.908	4.93
550.25	4.96
550.593	4.96
550.936	4.97
551.278	4.96
551.621	4.96
551.963	4.98
552.306	4.95
552.648	4.97
552.991	5.01
553.333	4.99
553.675	4.97
554.017	4.98
554.36	4.98
554.702	4.97
555.044	5
555.386	5.01
555.728	5.02
556.07	5
556.412	4.97
556.754	4.95
557.096	4.92
557.438	4.88
557.78	4.87
558.121	4.88
558.463	4.86
558.805	4.85
559.147	4.84
559.488	4.86
559.83	4.84
560.171	4.8
560.513	4.83
560.854	4.87
561.196	4.86
561.537	4.87
561.878	4.89
562.22	4.89
562.561	4.89
562.902	4.89
563.243	4.87
563.584	4.89
563.925	4.93
564.266	4.94
564.607	4.94
564.948	4.93
565.289	4.93
565.63	4.95
565.971	4.95
566.312	4.97
566.653	4.97
566.993	4.99
567.334	5.01
567.675	5
568.015	4.99
568.356	4.99
568.696	5
569.037	5.02
569.377	5.04
569.718	5.04
570.058	5.03
570.398	5.05
570.739	5.02
571.079	5.01
571.419	5.03
571.759	5.06
572.099	5.08
572.439	5.07
572.779	5.08
573.119	5.11
573.459	5.12
573.799	5.13
574.139	5.1
574.479	5.08
574.819	5.08
575.158	5.1
575.498	5.08
575.838	5.07
576.177	5.04
576.517	5
576.856	5.01
577.196	5.01
577.535	5.01
577.875	5.04
578.214	5.03
578.553	5.03
578.893	5.04
579.232	5.05
579.571	5.06
579.91	5.04
580.25	5.03
580.589	5.02
580.928	5
581.267	5.01
581.606	5.02
581.945	5.02
582.283	4.95
582.622	4.98
582.961	4.98
583.3	4.99
583.639	5.01
583.977	4.96
584.316	4.91
584.654	4.91
584.993	4.92
585.332	4.97
585.67	4.97
586.008	4.91
586.347	4.86
586.685	4.85
587.024	4.86
587.362	4.85
587.7	4.85
588.038	4.88
588.376	4.91
588.715	4.91
589.053	4.93
589.391	4.98
589.729	4.98
590.067	4.95
590.404	4.99
590.742	4.97
591.08	4.99
591.418	5.03
591.756	5.04
592.093	5.01
592.431	4.99
592.769	4.97
593.106	5.01
593.444	5.05
593.781	5.04
594.119	5.01
594.456	5.06
594.793	5.04
595.131	5.05
595.468	5.03
595.805	5.03
596.143	5.03
596.48	5.02
596.817	5.03
597.154	5.06
597.491	5.04
597.828	5.08
598.165	5.06
598.502	5.03
598.839	5
599.176	5.02
599.512	5.03
599.849	5.07
600.186	5.07
600.523	5.05
600.859	5.11
601.196	5.17
601.532	5.12
601.869	5.15
602.205	5.16
602.542	5.17
602.878	5.18
603.215	5.17
603.551	5.18
603.887	5.17
604.223	5.16
604.56	5.19
604.896	5.16
605.232	5.21
605.568	5.22
605.904	5.22
606.24	5.26
606.576	5.23
606.912	5.19
607.248	5.17
607.583	5.19
607.919	5.14
608.255	5.1
608.591	5.11
608.926	5.12
609.262	5.11
609.597	5.1
609.933	5.07
610.268	5.09
610.604	5.08
610.939	5.06
611.275	5.03
611.61	4.98
611.945	5.02
612.281	4.99
612.616	4.99
612.951	5.01
613.286	4.97
613.621	4.95
613.956	4.96
614.291	4.98
614.626	4.93
614.961	4.92
615.296	4.95
615.631	4.97
615.966	4.99
616.3	4.97
616.635	4.96
616.97	4.98
617.304	4.96
617.639	4.93
617.973	4.95
618.308	4.92
618.642	4.96
618.977	4.95
619.311	4.97
619.646	4.99
619.98	4.98
620.314	5.04
620.648	5.09
620.983	5.07
621.317	5.06
621.651	5.08
621.985	5.12
622.319	5.09
622.653	5.08
622.987	5.04
623.321	4.98
623.655	5
623.988	5.01
624.322	4.99
624.656	5.05
624.99	5.09
625.323	5.14
625.657	5.11
625.99	5.15
626.324	5.15
626.657	5.16
626.991	5.17
627.324	5.09
627.658	5.12
627.991	5.23
628.324	5.22
628.657	5.24
628.991	5.24
629.324	5.3
629.657	5.27
629.99	5.28
630.323	5.33
630.656	5.36
630.989	5.37
631.322	5.42
631.655	5.39
631.987	5.4
632.32	5.41
632.653	5.4
632.986	5.37
633.318	5.31
633.651	5.31
633.984	5.3
634.316	5.31
634.649	5.3
634.981	5.24
635.313	5.27
635.646	5.32
635.978	5.36
636.31	5.28
636.643	5.3
636.975	5.28
637.307	5.26
637.639	5.25
637.971	5.28
638.303	5.25
638.635	5.26
638.967	5.22
639.299	5.24
639.631	5.3
639.963	5.23
640.295	5.28
640.626	5.29
640.958	5.32
641.29	5.36
641.621	5.31
641.953	5.28
642.285	5.21
642.616	5.23
642.948	5.21
643.279	5.24
643.61	5.23
643.942	5.28
644.273	5.31
644.604	5.28
644.936	5.24
645.267	5.29
645.598	5.29
645.929	5.38
646.26	5.32
646.591	5.28
646.922	5.3
647.253	5.31
647.584	5.29
647.915	5.27
648.245	5.26
648.576	5.3
648.907	5.33
649.238	5.38
649.568	5.33
649.899	5.31
650.229	5.29
650.56	5.3
650.89	5.27
651.221	5.28
651.551	5.27
651.882	5.29
652.212	5.24
652.542	5.25
652.872	5.18
653.203	5.16
653.533	5.17
653.863	5.19
654.193	5.19
654.523	5.17
654.853	5.13
655.183	5.14
655.513	5.05
655.843	5.03
656.172	5.05
656.502	5.04
656.832	5.05
657.162	5.04
657.491	5.02
657.821	5.09
658.15	5.1
658.48	5.13
658.809	5.11
659.139	5.12
659.468	5.12
659.798	5.12
660.127	5.19
660.456	5.22
660.785	5.18
661.115	5.2
661.444	5.23
661.773	5.25
662.102	5.19
662.431	5.27
662.76	5.29
663.089	5.34
663.418	5.24
663.747	5.22
664.076	5.32
664.404	5.33
664.733	5.26
665.062	5.27
665.39	5.25
665.719	5.24
666.048	5.27
666.376	5.25
666.705	5.22
667.033	5.22
667.362	5.22
667.69	5.24
668.018	5.29
668.347	5.33
668.675	5.4
669.003	5.46
669.331	5.57
669.659	5.54
669.987	5.47
670.315	5.57
670.643	5.59
670.971	5.56
671.299	5.66
671.627	5.67
671.955	5.65
672.283	5.78
672.61	5.77
672.938	5.79
673.266	5.83
673.593	5.94
673.921	5.92
674.249	5.9
674.576	5.94
674.904	5.9
675.231	5.85
675.558	5.74
675.886	5.67
676.213	5.53
676.54	5.64
676.867	5.67
677.195	5.65
677.522	5.64
677.849	5.65
678.176	5.6
678.503	5.63
678.83	5.61
679.157	5.45
679.484	5.52
679.81	5.52
680.137	5.4
680.464	5.37
680.791	5.37
681.117	5.3
681.444	5.27
681.771	5.23
682.097	5.12
682.424	5.19
682.75	5.27
683.077	5.22
683.403	5.18
683.729	5.14
684.056	5.13
684.382	5.21
684.708	5.14
685.034	5.1
685.36	5.02
685.686	5.02
686.012	5.04
686.339	4.98
686.664	4.96
686.99	5.07
687.316	4.97
687.642	4.98
687.968	5.08
688.294	5.07
688.619	5.05
688.945	5.14
689.271	5.16
689.596	5.11
689.922	5.15
690.247	4.99
690.573	5.01
690.898	5.02
691.224	4.94
691.549	4.95
691.874	4.97
692.2	5.09
692.525	5.15
692.85	5.24
693.175	5.14
693.5	5.12
693.825	5.23
694.15	5.25
694.475	5.34
694.8	5.44
695.125	5.51
695.45	5.5
695.775	5.49
696.099	5.48
696.424	5.47
696.749	5.47
697.073	5.47
697.398	5.55
697.723	5.65
698.047	5.66
698.372	5.7
698.696	5.69
699.02	5.58
699.345	5.46
699.669	5.47
699.993	5.5
700.318	5.51
700.642	5.41
700.966	5.31
701.29	5.28
701.614	5.17
701.938	5.16
702.262	5.18
702.586	5.26
702.91	5.28
703.234	5.3
703.557	5.35
703.881	5.47
704.205	5.4
704.529	5.17
704.852	5.16
705.176	5.23
705.499	5.24
705.823	5.26
706.146	5.32
706.47	5.32
706.793	5.36
707.117	5.36
707.44	5.46
707.763	5.56
708.086	5.52
708.409	5.43
708.733	5.42
709.056	5.55
709.379	5.68
709.702	5.68
710.025	5.64
710.348	5.7
710.671	5.52
710.993	5.53
711.316	5.52
711.639	5.56
711.962	5.49
712.284	5.46
712.607	5.61
712.93	5.72
713.252	5.67
713.575	5.78
713.897	5.79
714.22	5.68
714.542	5.8
714.864	5.74
715.187	5.86
715.509	5.85
715.831	5.77
716.153	5.63
716.475	5.58
716.798	5.67
717.12	5.57
717.442	5.74
717.764	5.7
718.085	5.9
718.407	5.77
718.729	5.79
719.051	5.79
719.373	5.69
719.695	5.57
720.016	5.62
720.338	5.66
720.659	5.79
720.981	5.94
721.302	5.75
721.624	5.78
721.945	5.7
722.267	5.72
722.588	5.74
722.909	5.63
723.231	5.66
723.552	5.51
723.873	5.64
724.194	5.65
724.515	5.69
724.836	5.41
725.157	5.43
725.478	5.49
725.799	5.4
726.12	5.35
726.441	5.35
726.762	5.42
727.083	5.25
727.403	5.23
727.724	5.12
728.045	5.31
728.365	5.3
728.686	5.23
729.006	5.21
729.327	5.23
729.647	5.25
729.967	5.19
730.288	5.31
730.608	5.21
730.928	5.1
731.249	5.14
731.569	5.46
731.889	5.54
732.209	5.41
732.529	5.48
732.849	5.54
733.169	5.52
733.489	5.48
733.809	5.44
734.129	5.31
734.448	5.35
734.768	5.31
735.088	5.37
735.408	5.54
735.727	5.65
736.047	5.62
736.366	5.58
736.686	5.65
737.005	5.75
737.325	5.65
737.644	5.7
737.963	5.61
738.283	5.42
738.602	5.38
738.921	5.51
739.24	5.51
739.56	5.51
739.879	5.55
740.198	5.54
740.517	5.66
740.836	5.71
741.155	5.68
741.473	5.81
741.792	5.87
742.111	5.68
742.43	5.56
742.748	5.6
743.067	5.69
743.386	5.68
743.704	5.26
744.023	5.46
744.341	5.49
744.66	5.74
744.978	5.62
745.297	5.67
745.615	5.57
745.933	5.61
746.252	5.67
746.57	5.83
746.888	5.59
747.206	5.5
747.524	5.46
747.842	5.4
748.16	5.18
748.478	4.99
748.796	5.26
749.114	5.5
749.432	5.5
749.749	5.63
750.067	5.55
750.385	5.75
750.703	5.6
751.02	5.65
751.338	5.32
751.655	5.36
751.973	5.52
752.29	5.61
752.608	5.73
752.925	5.71
753.242	5.41
753.56	5.52
753.877	5.5
754.194	5.74
754.511	5.92
754.828	5.78
755.145	5.89
755.462	5.95
755.779	5.82
756.096	5.77
756.413	5.77
756.73	5.79
757.047	5.84
757.364	6.04
757.68	5.97
757.997	6.19
758.314	6.06
758.63	5.94
758.947	5.9
759.264	5.8
759.58	5.68
759.896	5.99
760.213	6.11
760.529	6.4
760.846	6.12
761.162	5.78
761.478	6.03
761.794	5.92
762.11	5.74
762.426	5.63
762.743	5.58
763.059	5.63
763.375	5.67
763.69	5.94
764.006	6.03
764.322	6.14
764.638	6.17
764.954	6.35
765.27	6.21
765.585	6.34
765.901	6.38
766.216	6.48
766.532	6.29
766.848	6.21
767.163	5.99
767.478	6.08
767.794	6.33
768.109	6.31
768.424	6.6
768.74	6.77
769.055	7.08
769.37	7.23
769.685	7.02
770	7.19
770.315	6.93
770.63	6.78
770.945	6.64
771.26	6.59
771.575	6.68
771.89	7.03
772.205	7.09
772.52	7.13
772.834	7.21
773.149	7.45
773.464	7.38
773.778	7.84
774.093	7.66
774.407	7.69
774.722	7.63
775.036	7.28
775.351	7.12
775.665	6.7
775.979	6.47
776.293	6.56
776.608	6.34
776.922	6.41
777.236	6.43
777.55	6.39
777.864	6.35
778.178	5.88
778.492	5.53
778.806	5.15
779.12	5.27
779.434	5.13
779.747	5.27
780.061	5.52
780.375	4.76
780.689	4.95
781.002	5.19
781.316	5.31
781.629	5.39
781.943	5.91
782.256	6.24
782.57	6.41
782.883	6.55
783.196	6.54
783.51	6.19
783.823	6.22
784.136	6.86
784.449	7.01
784.762	7.45
785.075	7.55
785.388	7.56
785.701	7.12
786.014	7.03
786.327	6.96
786.64	6.94
786.953	7.52
787.266	7.52
787.578	7.36
787.891	7.18
788.204	7.06
788.516	6.65
788.829	6.54
789.141	6.64
789.454	6.44
789.766	7.11
790.079	7.44
790.391	7.33
790.703	7
791.016	6.7
791.328	6.92
791.64	7.31
791.952	7.97
792.264	8.01
792.576	8.14
792.888	7.93
793.2	7.48
793.512	7.21
793.824	7.56
794.136	7.7
794.448	7.82
794.76	7.92
795.071	8.13
795.383	7.69
795.695	7.75
796.006	8
796.318	7.63
796.629	8.08
796.941	8.1
797.252	8.1
797.564	8.52
797.875	7.99
798.186	7.72
798.497	7.08
798.809	7.37
799.12	7.34
799.431	7.37
799.742	7.52
800.053	7.65
800.364	7.36
800.675	6.63
800.986	6.36
801.297	6.47
801.608	6.14
801.918	6.39
802.229	6.57
802.54	6.27
802.851	6.1
803.161	5.63
803.472	5.51
803.782	5.51
804.093	5.04
804.403	4.87
804.714	4.74
805.024	5.01
805.334	5.03
805.645	5.15
805.955	5.01
806.265	5.37
806.575	5.26
806.885	5.38
807.195	6.01
807.505	6.24
807.815	6.1
808.125	6.15
808.435	6.23
808.745	5.58
809.055	6.38
809.365	5.62
809.674	5.35
809.984	5.31
810.294	5.32
810.603	5.7
810.913	6.71
811.222	6.45
811.532	6.51
811.841	6.59
812.151	6.86
812.46	6.4
812.769	5.96
813.079	6.27
813.388	6.45
813.697	6.66
814.006	6.79
814.315	6.7
814.624	6.49
814.933	6.04
815.242	6.43
815.551	6.86
815.86	7.9
816.169	7.73
816.478	7.44
816.786	7.63
817.095	7.58
817.404	7.32
817.712	7.28
818.021	7.46
818.33	7.75
818.638	7.64
818.947	8.57
819.255	8.82
819.563	8.94
819.872	8.39
820.18	8.26
820.488	8.37
820.796	8.54
821.105	8.48
821.413	8.55
821.721	8.45
822.029	8.22
822.337	8
822.645	8.06
822.953	8.18
823.26	8.06
823.568	7.92
823.876	7.82
824.184	7.86
824.491	7.82
824.799	7.75
825.107	7.68
825.414	7.73
825.722	7.79
826.029	7.74
826.337	7.98
826.644	7.86
826.951	7.7
827.259	7.52
827.566	7.52
827.873	7.77
828.18	7.89
828.488	7.56
828.795	7.81
829.102	8.04
829.409	8.13
829.716	8.02
830.023	8.36
830.329	8.77
830.636	9.13
830.943	8.87
831.25	8.52
831.557	8.54
831.863	7.96
832.17	7.3
832.476	7.46
832.783	7.49
833.089	7.78
833.396	7.84
833.702	7.99
834.009	8.06
834.315	7.44
834.621	7.22
834.928	8.14
835.234	7.91
835.54	7.39
835.846	7.21
836.152	7.28
836.458	7.04
836.764	6.24
837.07	5.69
837.376	5.62
837.682	5.72
837.988	5.75
838.293	5.47
838.599	6.5
838.905	5.24
839.211	4.7
839.516	4.39
839.822	4.4
840.127	3.91
840.433	4.11
840.738	4.17
841.044	3.9
841.349	2.4
841.654	1.8
841.959	2.46
842.265	2.7
842.57	3.32
842.875	2.48
843.18	3.62
843.485	4.64
843.79	4.42
844.095	4.5
844.4	4.86
844.705	5.33
845.01	5.08
845.315	6.35
845.619	5
845.924	4.81
846.229	5.03
846.533	5.08
846.838	4.11
847.142	4
847.447	3.45
847.751	3.47
848.056	4.75
848.36	5.22
848.664	4.19
848.969	3.34
849.273	4.43
849.577	3.66
849.881	2.07
850.185	4.07
850.489	4.16
850.794	3.88
851.097	4.68
851.401	2.77
851.705	1.58
852.009	3.49
852.313	3.61
852.617	3.13
852.92	4.09
853.224	3.96
853.528	5.78
853.831	5.44
854.135	5.86
854.438	5.05
854.742	2.39
855.045	3.35
855.349	2.29
855.652	3.41
855.955	2.37
856.259	1.84
856.562	-0.47
856.865	-0.05
857.168	-1.08
857.471	-0.9
857.774	1.14
858.077	1.22
858.38	2.03
858.683	2.13
858.986	3.06
859.289	2.93
859.592	4.07
859.894	2.33
860.197	3.13
860.5	3.34
860.802	2.67
861.105	5.26
861.407	4.8
861.71	6.06
862.012	5.72
862.315	6.62
862.617	8.54
862.919	10.41
863.222	9.74
863.524	11.21
863.826	11.82
864.128	10.53
864.43	12.31
864.732	10.83
865.034	10.95
865.336	8.38
865.638	8.36
865.94	5.17
866.242	4.87
866.544	3.91
866.846	3.34
867.147	3.12
867.449	1.89
867.751	2.54
868.052	2.78
868.354	4.1
868.655	3.53
868.957	3.95
869.258	3.91
869.56	2.99
869.861	1.52
870.162	-1.81
870.463	-0.77
870.765	-1.53
871.066	-0.19
871.367	-0.32
871.668	2.41
871.969	2.33
872.27	4.24
872.571	3.49
872.872	6.74
873.173	8.76
873.473	11.39
873.774	9.92
874.075	8
874.376	5.1
874.676	6.11
874.977	6.03
875.277	4.87
875.578	5.04
875.878	6.34
876.179	6.48
876.479	9.16
876.78	7.67
877.08	8.37
877.38	7.05
877.68	6.83
877.981	5.32
878.281	4.94
878.581	7.03
