Data from BU58129_Reflection_00014.txt Node
Date: Mon Nov 18 16:35:20 EST 2019
User: vgr7
Spectrometer: USB2G7710
Scans to average: 3
Trigger mode: 4
Integration Time (sec): 2.000000E-2
Electric dark correction enabled: true
Boxcar width: 10
XAxis mode: Wavelengths
Number of Pixels in Spectrum: 2048
>>>>>Begin Spectral Data<<<<<
177.721	74.55
178.105	296.58
178.488	64.09
178.871	-802.78
179.254	1201.45
179.636	-124.59
180.019	-800.58
180.402	55
180.785	-2.82
181.168	322.22
181.55	246.52
181.933	172.03
182.316	132.4
182.698	224.89
183.081	149.25
183.463	258.63
183.846	448.41
184.228	925.96
184.611	7122.22
184.993	-254.1
185.376	-346.79
185.758	-419.25
186.14	-530.1
186.522	-464.28
186.904	-3063.4
187.287	3596.86
187.669	-1067.53
188.051	2356.41
188.433	1891.25
188.815	6079.8
189.197	2014.19
189.579	3687.88
189.961	4363.57
190.342	1007.5
190.724	2092.34
191.106	2325.11
191.488	481.45
191.869	402.24
192.251	240.5
192.633	192.22
193.014	172.06
193.396	174.57
193.777	193.6
194.159	172.42
194.54	208.21
194.922	287.53
195.303	340.11
195.684	301.58
196.065	376.85
196.447	514.41
196.828	817.67
197.209	515.72
197.59	641.47
197.971	558.12
198.352	-1549.72
198.733	1103.75
199.114	-2256.59
199.495	-299.14
199.876	-300.57
200.257	-232.37
200.638	-111.62
201.018	-133.78
201.399	-102.74
201.78	-97.25
202.16	-142.06
202.541	-486.13
202.922	-1478.23
203.302	1442.72
203.683	809.13
204.063	1883.55
204.444	3498.37
204.824	1789.5
205.204	26766.67
205.585	2121.86
205.965	1739.22
206.345	3229.25
206.725	1786.27
207.106	578.51
207.486	680.57
207.866	1079.52
208.246	2710.33
208.626	1212.47
209.006	12188.89
209.386	2586.27
209.766	918.81
210.145	1493.94
210.525	-4253.74
210.905	-11507.84
211.285	-1095.4
211.664	-399.54
212.044	-556.21
212.424	-954.47
212.803	-3419.38
213.183	-870.02
213.562	-738.61
213.942	-558.04
214.321	-804.07
214.701	-998.99
215.08	-452.89
215.459	-441.78
215.838	-347.35
216.218	-505.06
216.597	-303.05
216.976	-443.9
217.355	-387.24
217.734	-273.19
218.113	-245.52
218.492	-210.74
218.871	-245.3
219.25	-250.91
219.629	-339.37
220.008	-285
220.387	-250.7
220.766	-236.4
221.144	-249.87
221.523	-247.34
221.902	-268.59
222.28	-227.3
222.659	-155.23
223.037	-151.83
223.416	-151.48
223.794	-154.29
224.173	-114.37
224.551	-81.21
224.929	-69.89
225.308	-56.5
225.686	-41.78
226.064	-34.8
226.442	-23.96
226.821	-7.86
227.199	-7.07
227.577	-4.58
227.955	-8.21
228.333	-3.95
228.711	-2.32
229.089	-1.3
229.467	-4.63
229.845	-3.01
230.222	-2.18
230.6	-5.27
230.978	-6.66
231.356	-3.79
231.733	-2.63
232.111	-4.62
232.488	-4.48
232.866	-4.52
233.243	-5.42
233.621	-6.96
233.998	-8.45
234.376	-10.3
234.753	-10.54
235.13	-8.46
235.508	-7.37
235.885	-6.44
236.262	-6.6
236.639	-7.3
237.016	-7.44
237.393	-5.88
237.77	-4.58
238.147	-4.39
238.524	-4.25
238.901	-2.14
239.278	-1.91
239.655	-0.74
240.032	-0
240.409	-0.46
240.785	-0.28
241.162	0.73
241.539	0.98
241.915	1.17
242.292	1.67
242.668	1.45
243.045	1.27
243.421	0.77
243.798	1.23
244.174	1.2
244.551	1.55
244.927	1.7
245.303	2.07
245.679	2.03
246.056	2.19
246.432	2.31
246.808	2.18
247.184	1.93
247.56	1.88
247.936	1.67
248.312	1.9
248.688	2.02
249.064	1.79
249.44	1.82
249.815	1.94
250.191	1.87
250.567	1.97
250.943	1.88
251.318	2.17
251.694	2
252.069	2
252.445	1.85
252.82	1.7
253.196	1.39
253.571	1.29
253.947	1.34
254.322	1.69
254.697	1.38
255.073	1.6
255.448	1.29
255.823	1.64
256.198	1.65
256.573	1.55
256.948	1.92
257.323	2.03
257.698	2.17
258.073	2.31
258.448	2.38
258.823	2.59
259.198	2.6
259.573	2.77
259.948	2.73
260.322	2.8
260.697	2.72
261.072	2.83
261.446	2.79
261.821	2.84
262.195	2.84
262.57	2.82
262.944	2.75
263.319	2.78
263.693	2.74
264.067	2.8
264.442	2.8
264.816	2.71
265.19	2.72
265.564	2.48
265.938	2.35
266.313	2.05
266.687	1.84
267.061	1.87
267.435	1.72
267.809	1.68
268.183	1.65
268.556	1.73
268.93	1.71
269.304	1.77
269.678	1.64
270.051	1.54
270.425	1.69
270.799	1.76
271.172	1.86
271.546	1.8
271.919	1.84
272.293	1.89
272.666	1.81
273.04	1.82
273.413	1.95
273.787	1.88
274.16	2.04
274.533	2.04
274.906	2
275.279	2.09
275.653	2.15
276.026	2.2
276.399	2.26
276.772	2.22
277.145	2.18
277.518	2.26
277.891	2.35
278.263	2.22
278.636	2.19
279.009	2.13
279.382	2.18
279.755	2.05
280.127	2.19
280.5	2.33
280.872	2.47
281.245	2.36
281.617	2.65
281.99	2.82
282.362	2.84
282.735	2.8
283.107	2.79
283.479	2.9
283.852	2.84
284.224	2.8
284.596	2.83
284.968	2.92
285.34	2.94
285.713	2.93
286.085	3.03
286.457	3.06
286.829	3.23
287.201	3.3
287.572	3.35
287.944	3.22
288.316	3.26
288.688	3.04
289.06	3
289.431	2.95
289.803	2.8
290.175	2.85
290.546	3.05
290.918	2.94
291.289	2.82
291.661	3.01
292.032	3.14
292.403	3.18
292.775	3.18
293.146	3.12
293.517	3.2
293.889	3.43
294.26	3.45
294.631	3.4
295.002	3.35
295.373	3.35
295.744	3.38
296.115	3.38
296.486	3.39
296.857	3.54
297.228	3.55
297.599	3.65
297.97	3.73
298.34	3.71
298.711	3.87
299.082	3.98
299.452	3.89
299.823	3.97
300.194	4.01
300.564	4.07
300.935	4.11
301.305	4.15
301.676	3.94
302.046	3.98
302.416	4.01
302.787	4.1
303.157	4.24
303.527	4.46
303.897	4.48
304.267	4.73
304.637	4.9
305.008	4.94
305.378	5.02
305.748	5.07
306.117	5.06
306.487	5.04
306.857	5.09
307.227	5.26
307.597	5.36
307.967	5.51
308.336	5.65
308.706	5.82
309.076	5.91
309.445	6.06
309.815	6.18
310.184	6.31
310.554	6.53
310.923	6.61
311.293	6.6
311.662	6.61
312.031	6.67
312.401	6.66
312.77	6.71
313.139	6.83
313.508	6.99
313.877	7.01
314.246	7.06
314.616	7.16
314.985	7.22
315.353	7.11
315.722	7.16
316.091	7.15
316.46	7.12
316.829	7.1
317.198	7.15
317.567	7.23
317.935	7.23
318.304	7.22
318.672	7.31
319.041	7.48
319.41	7.5
319.778	7.44
320.147	7.61
320.515	7.83
320.883	7.8
321.252	7.73
321.62	7.89
321.988	8.01
322.357	7.99
322.725	7.96
323.093	8.14
323.461	8.25
323.829	8.33
324.197	8.53
324.565	8.45
324.933	8.49
325.301	8.42
325.669	8.56
326.037	8.6
326.405	8.57
326.772	8.58
327.14	8.82
327.508	9.03
327.875	8.96
328.243	8.98
328.61	9.03
328.978	9.11
329.346	9.18
329.713	9.26
330.08	9.43
330.448	9.39
330.815	9.38
331.182	9.38
331.55	9.39
331.917	9.48
332.284	9.78
332.651	9.85
333.018	10.11
333.385	10.11
333.752	10.06
334.119	10.16
334.486	10.1
334.853	10.05
335.22	10
335.587	10.01
335.954	9.93
336.32	9.99
336.687	9.92
337.054	9.89
337.42	9.93
337.787	9.97
338.153	10.08
338.52	10.1
338.886	10.05
339.253	10.05
339.619	10.01
339.986	9.95
340.352	10.04
340.718	9.94
341.084	9.96
341.451	10.05
341.817	10.13
342.183	10.18
342.549	10.14
342.915	10.14
343.281	10.2
343.647	10.31
344.013	10.22
344.379	10.37
344.745	10.44
345.11	10.43
345.476	10.44
345.842	10.4
346.208	10.46
346.573	10.62
346.939	10.76
347.304	10.72
347.67	10.75
348.035	10.73
348.401	10.68
348.766	10.71
349.132	10.68
349.497	10.65
349.862	10.71
350.228	10.67
350.593	10.59
350.958	10.55
351.323	10.55
351.688	10.67
352.053	10.56
352.418	10.59
352.783	10.64
353.148	10.67
353.513	10.72
353.878	10.74
354.243	10.72
354.608	10.58
354.972	10.6
355.337	10.61
355.702	10.6
356.066	10.66
356.431	10.57
356.795	10.54
357.16	10.41
357.524	10.32
357.889	10.25
358.253	10.31
358.618	10.31
358.982	10.34
359.346	10.3
359.71	10.39
360.075	10.26
360.439	10.16
360.803	10.11
361.167	10.03
361.531	9.97
361.895	9.86
362.259	9.88
362.623	9.82
362.987	9.71
363.351	9.66
363.714	9.61
364.078	9.53
364.442	9.45
364.806	9.41
365.169	9.35
365.533	9.43
365.896	9.35
366.26	9.36
366.623	9.16
366.987	9.11
367.35	8.93
367.714	8.91
368.077	8.89
368.44	8.82
368.803	8.83
369.167	8.74
369.53	8.67
369.893	8.61
370.256	8.54
370.619	8.56
370.982	8.47
371.345	8.4
371.708	8.4
372.071	8.32
372.434	8.24
372.797	8.23
373.159	8.1
373.522	8.01
373.885	7.93
374.247	7.92
374.61	7.85
374.973	7.78
375.335	7.7
375.698	7.66
376.06	7.56
376.423	7.48
376.785	7.47
377.147	7.46
377.51	7.35
377.872	7.31
378.234	7.2
378.596	7.17
378.958	7.04
379.321	7
379.683	6.95
380.045	6.94
380.407	6.82
380.769	6.8
381.13	6.73
381.492	6.62
381.854	6.57
382.216	6.5
382.578	6.5
382.939	6.42
383.301	6.34
383.663	6.29
384.024	6.22
384.386	6.16
384.747	6.13
385.109	6.1
385.47	6.04
385.832	5.99
386.193	5.98
386.554	5.94
386.916	5.87
387.277	5.85
387.638	5.78
387.999	5.77
388.36	5.74
388.721	5.72
389.082	5.68
389.443	5.64
389.804	5.58
390.165	5.49
390.526	5.46
390.887	5.4
391.248	5.38
391.609	5.32
391.969	5.27
392.33	5.22
392.691	5.15
393.051	5.08
393.412	5.04
393.772	4.95
394.133	4.96
394.493	4.91
394.854	4.85
395.214	4.83
395.574	4.78
395.935	4.7
396.295	4.69
396.655	4.64
397.015	4.6
397.376	4.57
397.736	4.56
398.096	4.54
398.456	4.49
398.816	4.43
399.176	4.38
399.535	4.32
399.895	4.29
400.255	4.27
400.615	4.27
400.975	4.25
401.334	4.19
401.694	4.12
402.054	4.13
402.413	4.13
402.773	4.07
403.132	4.06
403.492	4.05
403.851	3.99
404.211	3.99
404.57	3.95
404.929	3.93
405.288	3.93
405.648	3.89
406.007	3.88
406.366	3.87
406.725	3.86
407.084	3.84
407.443	3.8
407.802	3.8
408.161	3.77
408.52	3.76
408.879	3.76
409.238	3.77
409.596	3.72
409.955	3.67
410.314	3.65
410.673	3.62
411.031	3.59
411.39	3.59
411.748	3.57
412.107	3.56
412.465	3.54
412.824	3.49
413.182	3.49
413.54	3.48
413.899	3.49
414.257	3.49
414.615	3.49
414.974	3.46
415.332	3.45
415.69	3.42
416.048	3.38
416.406	3.36
416.764	3.35
417.122	3.36
417.48	3.35
417.838	3.34
418.195	3.34
418.553	3.34
418.911	3.32
419.269	3.31
419.626	3.29
419.984	3.28
420.342	3.28
420.699	3.27
421.057	3.26
421.414	3.23
421.772	3.22
422.129	3.21
422.486	3.19
422.844	3.17
423.201	3.17
423.558	3.17
423.915	3.16
424.273	3.16
424.63	3.14
424.987	3.14
425.344	3.13
425.701	3.12
426.058	3.1
426.415	3.1
426.772	3.09
427.128	3.07
427.485	3.06
427.842	3.04
428.199	3.02
428.555	3.02
428.912	3.03
429.269	3.02
429.625	3.01
429.982	3
430.338	3.02
430.695	3
431.051	3
431.407	3
431.764	2.98
432.12	2.97
432.476	2.95
432.832	2.95
433.189	2.95
433.545	2.94
433.901	2.94
434.257	2.93
434.613	2.95
434.969	2.95
435.325	2.96
435.681	2.97
436.036	2.96
436.392	2.95
436.748	2.94
437.104	2.94
437.459	2.93
437.815	2.93
438.171	2.93
438.526	2.93
438.882	2.93
439.237	2.94
439.593	2.95
439.948	2.95
440.304	2.94
440.659	2.94
441.014	2.94
441.369	2.94
441.725	2.94
442.08	2.93
442.435	2.92
442.79	2.92
443.145	2.92
443.5	2.91
443.855	2.91
444.21	2.9
444.565	2.91
444.92	2.93
445.275	2.92
445.629	2.92
445.984	2.91
446.339	2.9
446.693	2.88
447.048	2.88
447.403	2.89
447.757	2.87
448.112	2.85
448.466	2.83
448.82	2.81
449.175	2.81
449.529	2.8
449.883	2.79
450.238	2.78
450.592	2.78
450.946	2.76
451.3	2.78
451.654	2.77
452.008	2.75
452.362	2.73
452.716	2.72
453.07	2.73
453.424	2.71
453.778	2.71
454.132	2.7
454.486	2.68
454.839	2.68
455.193	2.69
455.547	2.71
455.9	2.73
456.254	2.74
456.607	2.74
456.961	2.74
457.314	2.74
457.668	2.73
458.021	2.73
458.375	2.76
458.728	2.73
459.081	2.73
459.434	2.72
459.787	2.73
460.141	2.74
460.494	2.74
460.847	2.75
461.2	2.74
461.553	2.75
461.906	2.77
462.259	2.78
462.611	2.78
462.964	2.79
463.317	2.8
463.67	2.8
464.022	2.81
464.375	2.81
464.728	2.82
465.08	2.83
465.433	2.84
465.785	2.81
466.138	2.82
466.49	2.84
466.843	2.85
467.195	2.86
467.547	2.85
467.899	2.86
468.252	2.87
468.604	2.88
468.956	2.89
469.308	2.9
469.66	2.89
470.012	2.9
470.364	2.89
470.716	2.89
471.068	2.92
471.42	2.93
471.772	2.96
472.123	2.98
472.475	3
472.827	3.01
473.178	3.04
473.53	3.04
473.882	3.04
474.233	3.04
474.585	3.04
474.936	3.05
475.288	3.06
475.639	3.05
475.99	3.07
476.342	3.06
476.693	3.06
477.044	3.09
477.395	3.1
477.746	3.1
478.097	3.1
478.448	3.07
478.8	3.06
479.15	3.01
479.501	2.99
479.852	2.99
480.203	2.99
480.554	3
480.905	3
481.255	3
481.606	3.01
481.957	3.02
482.307	3.01
482.658	3.01
483.009	3.01
483.359	3
483.709	3.01
484.06	3.01
484.41	3.01
484.761	3.01
485.111	3
485.461	3.01
485.811	3.01
486.162	3.01
486.512	3.03
486.862	3.04
487.212	3.03
487.562	3.04
487.912	3.03
488.262	3.03
488.612	3.03
488.961	3.03
489.311	3.02
489.661	3.03
490.011	3.03
490.36	3.03
490.71	3.04
491.06	3.03
491.409	3.04
491.759	3.03
492.108	3.04
492.458	3.05
492.807	3.05
493.157	3.06
493.506	3.07
493.855	3.08
494.204	3.08
494.554	3.08
494.903	3.07
495.252	3.09
495.601	3.11
495.95	3.13
496.299	3.14
496.648	3.18
496.997	3.17
497.346	3.21
497.695	3.25
498.043	3.25
498.392	3.29
498.741	3.31
499.09	3.33
499.438	3.36
499.787	3.38
500.135	3.42
500.484	3.46
500.832	3.49
501.181	3.53
501.529	3.57
501.878	3.64
502.226	3.7
502.574	3.73
502.923	3.78
503.271	3.83
503.619	3.91
503.967	3.96
504.315	4.02
504.663	4.08
505.011	4.15
505.359	4.23
505.707	4.27
506.055	4.34
506.403	4.42
506.751	4.48
507.098	4.58
507.446	4.65
507.794	4.71
508.141	4.81
508.489	4.88
508.837	4.97
509.184	5.03
509.531	5.11
509.879	5.22
510.226	5.32
510.574	5.42
510.921	5.5
511.268	5.57
511.616	5.67
511.963	5.76
512.31	5.85
512.657	5.93
513.004	6.06
513.351	6.2
513.698	6.31
514.045	6.44
514.392	6.57
514.739	6.7
515.086	6.87
515.432	6.99
515.779	7.11
516.126	7.24
516.473	7.39
516.819	7.55
517.166	7.64
517.512	7.75
517.859	7.85
518.205	7.96
518.552	8.09
518.898	8.21
519.245	8.33
519.591	8.44
519.937	8.56
520.283	8.71
520.629	8.81
520.976	8.97
521.322	9.13
521.668	9.26
522.014	9.42
522.36	9.58
522.706	9.75
523.052	9.93
523.398	10.13
523.743	10.3
524.089	10.49
524.435	10.7
524.781	10.89
525.126	11.07
525.472	11.25
525.817	11.38
526.163	11.52
526.509	11.63
526.854	11.75
527.199	11.87
527.545	11.98
527.89	12.1
528.235	12.2
528.581	12.3
528.926	12.41
529.271	12.53
529.616	12.65
529.961	12.77
530.306	12.9
530.651	13.01
530.996	13.16
531.341	13.3
531.686	13.44
532.031	13.59
532.376	13.74
532.721	13.89
533.065	14.08
533.41	14.25
533.755	14.43
534.099	14.64
534.444	14.83
534.788	15.02
535.133	15.19
535.477	15.39
535.822	15.58
536.166	15.8
536.51	16.03
536.855	16.25
537.199	16.48
537.543	16.73
537.887	17
538.231	17.24
538.576	17.51
538.92	17.76
539.264	18
539.608	18.23
539.951	18.44
540.295	18.63
540.639	18.84
540.983	19.05
541.327	19.24
541.671	19.43
542.014	19.6
542.358	19.81
542.701	20.02
543.045	20.23
543.389	20.44
543.732	20.62
544.075	20.83
544.419	21.05
544.762	21.28
545.105	21.52
545.449	21.76
545.792	21.97
546.135	22.21
546.478	22.49
546.821	22.78
547.165	23.07
547.508	23.4
547.851	23.66
548.194	23.94
548.536	24.24
548.879	24.62
549.222	24.94
549.565	25.23
549.908	25.56
550.25	25.88
550.593	26.22
550.936	26.55
551.278	26.87
551.621	27.22
551.963	27.52
552.306	27.83
552.648	28.13
552.991	28.49
553.333	28.75
553.675	29.06
554.017	29.33
554.36	29.59
554.702	29.85
555.044	30.22
555.386	30.52
555.728	30.81
556.07	31.08
556.412	31.32
556.754	31.59
557.096	31.81
557.438	32.14
557.78	32.44
558.121	32.75
558.463	33.02
558.805	33.31
559.147	33.59
559.488	33.89
559.83	34.17
560.171	34.44
560.513	34.77
560.854	35.02
561.196	35.33
561.537	35.66
561.878	35.95
562.22	36.2
562.561	36.44
562.902	36.72
563.243	36.94
563.584	37.23
563.925	37.53
564.266	37.79
564.607	38.03
564.948	38.22
565.289	38.45
565.63	38.75
565.971	38.89
566.312	39.12
566.653	39.32
566.993	39.58
567.334	39.78
567.675	40
568.015	40.25
568.356	40.45
568.696	40.7
569.037	40.91
569.377	41.11
569.718	41.31
570.058	41.49
570.398	41.73
570.739	41.96
571.079	42.19
571.419	42.39
571.759	42.58
572.099	42.79
572.439	42.95
572.779	43.12
573.119	43.37
573.459	43.58
573.799	43.78
574.139	43.9
574.479	44.08
574.819	44.24
575.158	44.38
575.498	44.57
575.838	44.64
576.177	44.75
576.517	44.9
576.856	45.08
577.196	45.23
577.535	45.37
577.875	45.46
578.214	45.57
578.553	45.72
578.893	45.88
579.232	46.03
579.571	46.19
579.91	46.36
580.25	46.52
580.589	46.7
580.928	46.82
581.267	47.01
581.606	47.23
581.945	47.43
582.283	47.59
582.622	47.66
582.961	47.86
583.3	48.11
583.639	48.26
583.977	48.41
584.316	48.54
584.654	48.67
584.993	48.92
585.332	49.05
585.67	49.19
586.008	49.25
586.347	49.36
586.685	49.51
587.024	49.6
587.362	49.68
587.7	49.77
588.038	49.92
588.376	50.04
588.715	50.07
589.053	50.16
589.391	50.3
589.729	50.46
590.067	50.53
590.404	50.64
590.742	50.73
591.08	50.83
591.418	50.93
591.756	51.09
592.093	51.18
592.431	51.24
592.769	51.27
593.106	51.44
593.444	51.49
593.781	51.58
594.119	51.65
594.456	51.74
594.793	51.78
595.131	51.84
595.468	51.95
595.805	52.02
596.143	52.11
596.48	52.15
596.817	52.17
597.154	52.26
597.491	52.34
597.828	52.41
598.165	52.43
598.502	52.53
598.839	52.5
599.176	52.45
599.512	52.51
599.849	52.64
600.186	52.71
600.523	52.8
600.859	52.89
601.196	52.96
601.532	53.02
601.869	53.05
602.205	53.08
602.542	53.02
602.878	53.08
603.215	53.12
603.551	53.12
603.887	53.17
604.223	53.17
604.56	53.14
604.896	53.17
605.232	53.3
605.568	53.27
605.904	53.43
606.24	53.55
606.576	53.64
606.912	53.69
607.248	53.74
607.583	53.81
607.919	53.83
608.255	53.95
608.591	54.01
608.926	54.08
609.262	54.18
609.597	54.35
609.933	54.39
610.268	54.45
610.604	54.53
610.939	54.56
611.275	54.63
611.61	54.73
611.945	54.84
612.281	54.85
612.616	54.97
612.951	54.95
613.286	55.04
613.621	55.06
613.956	55.08
614.291	55.05
614.626	55.03
614.961	55.05
615.296	54.96
615.631	55.08
615.966	55.15
616.3	55.23
616.635	55.2
616.97	55.25
617.304	55.26
617.639	55.28
617.973	55.41
618.308	55.45
618.642	55.38
618.977	55.33
619.311	55.35
619.646	55.46
619.98	55.45
620.314	55.48
620.648	55.58
620.983	55.62
621.317	55.76
621.651	55.92
621.985	55.95
622.319	55.93
622.653	55.87
622.987	55.87
623.321	55.85
623.655	55.83
623.988	55.89
624.322	55.92
624.656	55.93
624.99	55.9
625.323	55.94
625.657	56
625.99	56.06
626.324	56.13
626.657	56.09
626.991	56.16
627.324	56.13
627.658	56.11
627.991	56.18
628.324	56.17
628.657	56.2
628.991	56.24
629.324	56.31
629.657	56.42
629.99	56.42
630.323	56.41
630.656	56.46
630.989	56.46
631.322	56.43
631.655	56.43
631.987	56.47
632.32	56.48
632.653	56.46
632.986	56.51
633.318	56.47
633.651	56.49
633.984	56.38
634.316	56.4
634.649	56.38
634.981	56.44
635.313	56.51
635.646	56.42
635.978	56.5
636.31	56.56
636.643	56.47
636.975	56.46
637.307	56.51
637.639	56.5
637.971	56.51
638.303	56.5
638.635	56.55
638.967	56.59
639.299	56.67
639.631	56.82
639.963	56.82
640.295	56.88
640.626	56.85
640.958	57
641.29	56.99
641.621	57.03
641.953	57.02
642.285	56.91
642.616	56.95
642.948	56.86
643.279	56.85
643.61	56.9
643.942	57.04
644.273	57
644.604	57.05
644.936	57.08
645.267	57.2
645.598	57.28
645.929	57.32
646.26	57.36
646.591	57.23
646.922	57.15
647.253	57.15
647.584	57.25
647.915	57.31
648.245	57.31
648.576	57.27
648.907	57.26
649.238	57.26
649.568	57.29
649.899	57.31
650.229	57.37
650.56	57.39
650.89	57.3
651.221	57.42
651.551	57.39
651.882	57.35
652.212	57.36
652.542	57.42
652.872	57.51
653.203	57.44
653.533	57.65
653.863	57.65
654.193	57.64
654.523	57.63
654.853	57.63
655.183	57.59
655.513	57.66
655.843	57.62
656.172	57.71
656.502	57.65
656.832	57.75
657.162	57.82
657.491	57.82
657.821	57.81
658.15	57.72
658.48	57.8
658.809	57.76
659.139	57.71
659.468	57.71
659.798	57.6
660.127	57.56
660.456	57.42
660.785	57.46
661.115	57.48
661.444	57.48
661.773	57.47
662.102	57.46
662.431	57.44
662.76	57.45
663.089	57.49
663.418	57.48
663.747	57.31
664.076	57.19
664.404	57.07
664.733	57.04
665.062	57.1
665.39	56.97
665.719	57.04
666.048	57.11
666.376	57.06
666.705	56.98
667.033	57
667.362	57.06
667.69	57.09
668.018	56.87
668.347	56.79
668.675	56.8
669.003	56.9
669.331	57
669.659	56.95
669.987	56.77
670.315	56.83
670.643	56.91
670.971	56.99
671.299	57.16
671.627	57.29
671.955	57.34
672.283	57.46
672.61	57.5
672.938	57.61
673.266	57.52
673.593	57.82
673.921	57.74
674.249	57.72
674.576	57.69
674.904	58
675.231	58.07
675.558	58.07
675.886	58.08
676.213	58.08
676.54	58.18
676.867	58.43
677.195	58.44
677.522	58.51
677.849	58.43
678.176	58.51
678.503	58.31
678.83	58.22
679.157	58.13
679.484	58.09
679.81	58
680.137	58.04
680.464	57.92
680.791	57.99
681.117	58.06
681.444	58
681.771	57.95
682.097	58.03
682.424	57.9
682.75	57.83
683.077	57.75
683.403	57.65
683.729	57.54
684.056	57.4
684.382	57.31
684.708	57.24
685.034	57.18
685.36	57.36
685.686	57.48
686.012	57.51
686.339	57.47
686.664	57.56
686.99	57.58
687.316	57.54
687.642	57.66
687.968	57.65
688.294	57.64
688.619	57.54
688.945	57.56
689.271	57.81
689.596	58.03
689.922	57.89
690.247	57.98
690.573	58.04
690.898	58.26
691.224	58.35
691.549	58.52
691.874	58.35
692.2	58.41
692.525	58.16
692.85	58.2
693.175	58.2
693.5	58.05
693.825	58.07
694.15	58.06
694.475	58.13
694.8	58.38
695.125	58.39
695.45	58.42
695.775	58.34
696.099	58.22
696.424	58.13
696.749	58.28
697.073	58.4
697.398	58.44
697.723	58.22
698.047	58.11
698.372	58
698.696	58.03
699.02	57.98
699.345	58.15
699.669	58.24
699.993	58.29
700.318	58.27
700.642	58.29
700.966	58.37
701.29	58.28
701.614	57.94
701.938	57.96
702.262	58
702.586	57.98
702.91	57.95
703.234	57.89
703.557	57.88
703.881	57.82
704.205	57.73
704.529	58.02
704.852	58.08
705.176	58.17
705.499	58.27
705.823	58.39
706.146	58.36
706.47	58.1
706.793	58.12
707.117	58.08
707.44	57.96
707.763	57.82
708.086	57.96
708.409	58.19
708.733	58.24
709.056	58.21
709.379	58.18
709.702	58.25
710.025	58.23
710.348	58.3
710.671	58.1
710.993	58.21
711.316	58.25
711.639	58.29
711.962	58.23
712.284	58.16
712.607	58.07
712.93	58.01
713.252	58.24
713.575	58.19
713.897	58.33
714.22	58.48
714.542	58.45
714.864	58.48
715.187	58.44
715.509	58.46
715.831	58.35
716.153	58.26
716.475	58.24
716.798	58.34
717.12	58.32
717.442	58.62
717.764	58.42
718.085	58.45
718.407	58.38
718.729	58.54
719.051	58.52
719.373	58.4
719.695	58.4
720.016	58.06
720.338	58.23
720.659	58.25
720.981	58.26
721.302	58.44
721.624	58.31
721.945	58.35
722.267	58.42
722.588	58.49
722.909	58.6
723.231	58.4
723.552	58.23
723.873	58.34
724.194	58.04
724.515	58.09
724.836	57.8
725.157	57.98
725.478	57.91
725.799	57.78
726.12	57.84
726.441	57.85
726.762	58.13
727.083	57.91
727.403	57.9
727.724	57.82
728.045	57.68
728.365	57.52
728.686	57.47
729.006	57.55
729.327	57.86
729.647	57.99
729.967	58.24
730.288	58.22
730.608	58.22
730.928	58.4
731.249	58.44
731.569	58.72
731.889	58.47
732.209	58.35
732.529	58.44
732.849	58.55
733.169	58.56
733.489	58.64
733.809	58.74
734.129	58.71
734.448	58.79
734.768	58.78
735.088	58.94
735.408	58.87
735.727	58.81
736.047	58.75
736.366	58.58
736.686	58.43
737.005	58.46
737.325	58.39
737.644	58.35
737.963	58.37
738.283	58.2
738.602	58.31
738.921	58.47
739.24	58.7
739.56	58.67
739.879	58.63
740.198	58.38
740.517	58.45
740.836	58.28
741.155	58.03
741.473	58.19
741.792	57.89
742.111	58.14
742.43	58.1
742.748	57.99
743.067	58.19
743.386	58.18
743.704	58.44
744.023	58.45
744.341	58.4
744.66	58.4
744.978	58.28
745.297	58.42
745.615	58.31
745.933	58.2
746.252	58.42
746.57	58.58
746.888	58.81
747.206	58.64
747.524	58.76
747.842	58.69
748.16	58.54
748.478	58.68
748.796	58.61
749.114	58.78
749.432	58.65
749.749	58.56
750.067	58.78
750.385	58.61
750.703	58.47
751.02	58.39
751.338	58.58
751.655	58.95
751.973	58.93
752.29	59.09
752.608	59.18
752.925	58.98
753.242	59.03
753.56	58.91
753.877	59.28
754.194	59.35
754.511	59.49
754.828	59.3
755.145	59.15
755.462	59.06
755.779	59.06
756.096	59.16
756.413	59.4
756.73	58.9
757.047	59.06
757.364	58.85
757.68	58.71
757.997	58.5
758.314	58.35
758.63	58.17
758.947	58.16
759.264	58.11
759.58	57.91
759.896	57.77
760.213	58.01
760.529	57.71
760.846	57.9
761.162	58.02
761.478	58.13
761.794	58.31
762.11	57.91
762.426	57.71
762.743	57.86
763.059	57.63
763.375	57.68
763.69	57.5
764.006	57.41
764.322	57.49
764.638	57.59
764.954	57.56
765.27	57.66
765.585	57.66
765.901	57.62
766.216	57.52
766.532	57.56
766.848	57.27
767.163	57.32
767.478	57.26
767.794	57.27
768.109	57.11
768.424	57.09
768.74	57.25
769.055	57.33
769.37	57.07
769.685	57.16
770	57.66
770.315	57.75
770.63	58.09
770.945	58.29
771.26	58.33
771.575	58.29
771.89	58.47
772.205	58.18
772.52	58
772.834	58.22
773.149	57.87
773.464	58.23
773.778	57.96
774.093	57.69
774.407	57.62
774.722	57.82
775.036	57.88
775.351	58.21
775.665	58.44
775.979	58.35
776.293	58
776.608	57.09
776.922	57
777.236	57.19
777.55	56.98
777.864	57.02
778.178	56.93
778.492	57.02
778.806	56.98
779.12	57.41
779.434	57.42
779.747	57.66
780.061	57.5
780.375	57.7
780.689	57.93
781.002	57.71
781.316	57.71
781.629	57.64
781.943	57.53
782.256	57.34
782.57	57.52
782.883	57.87
783.196	57.98
783.51	58.31
783.823	57.51
784.136	57.77
784.449	57.35
784.762	57.4
785.075	57.18
785.388	56.96
785.701	56.52
786.014	57.12
786.327	57.26
786.64	57.54
786.953	57.79
787.266	57.5
787.578	57.79
787.891	58.43
788.204	58.38
788.516	58.47
788.829	58.83
789.141	58.45
789.454	58.71
789.766	59.01
790.079	58.77
790.391	59.37
790.703	59.22
791.016	59.01
791.328	59.57
791.64	59.08
791.952	60
792.264	60.62
792.576	60.01
792.888	60
793.2	59.97
793.512	59.36
793.824	59.62
794.136	59.71
794.448	59.48
794.76	59.7
795.071	59.39
795.383	58.58
795.695	58.6
796.006	58.18
796.318	58.46
796.629	59.08
796.941	59.12
797.252	59.21
797.564	59.69
797.875	59.41
798.186	59.41
798.497	58.52
798.809	58.23
799.12	57.91
799.431	57.64
799.742	58.24
800.053	59.07
800.364	59.06
800.675	59.12
800.986	58.69
801.297	58.59
801.608	58.62
801.918	58.48
802.229	58.32
802.54	58.28
802.851	58.45
803.161	58.42
803.472	58.72
803.782	58.5
804.093	58.49
804.403	58.31
804.714	58.84
805.024	59.06
805.334	59.05
805.645	58.76
805.955	59.13
806.265	58.39
806.575	57.84
806.885	57.99
807.195	57.96
807.505	58.2
807.815	57.79
808.125	58.39
808.435	58.58
808.745	58.74
809.055	59.09
809.365	59.01
809.674	58.5
809.984	58.27
810.294	58.5
810.603	58.6
810.913	58.72
811.222	59.11
811.532	58.68
811.841	58.58
812.151	59.81
812.46	59.23
812.769	59.52
813.079	60.08
813.388	59.89
813.697	59.94
814.006	59
814.315	59.5
814.624	59.81
814.933	60.39
815.242	60.85
815.551	60.5
815.86	61.03
816.169	60.18
816.478	59.83
816.786	59.35
817.095	59.73
817.404	59.26
817.712	57.95
818.021	58.83
818.33	58.63
818.638	58.25
818.947	58.75
819.255	58.68
819.563	58.92
819.872	58.6
820.18	58.61
820.488	58.73
820.796	58.79
821.105	58.5
821.413	58.32
821.721	58.33
822.029	58.42
822.337	58.49
822.645	58.88
822.953	58.96
823.26	59.04
823.568	58.78
823.876	58.85
824.184	59.09
824.491	59.21
824.799	59.29
825.107	59.21
825.414	59.19
825.722	59.08
826.029	59.11
826.337	59.19
826.644	59.06
826.951	59.14
827.259	59.31
827.566	59.38
827.873	59.68
828.18	59.55
828.488	59.58
828.795	59.11
829.102	58.88
829.409	58.95
829.716	58.84
830.023	59.22
830.329	59.25
830.636	59.35
830.943	58.83
831.25	59.07
831.557	59.38
831.863	59.06
832.17	59.07
832.476	58.42
832.783	58.43
833.089	58.98
833.396	59.02
833.702	58.48
834.009	58.36
834.315	58.01
834.621	58.25
834.928	58.35
835.234	58.72
835.54	59.03
835.846	58.95
836.152	59.22
836.458	58.67
836.764	58.26
837.07	57.99
837.376	57.94
837.682	57.32
837.988	56.78
838.293	56.87
838.599	56.74
838.905	56.65
839.211	56.48
839.516	55.64
839.822	55.53
840.127	55.25
840.433	54.56
840.738	54.74
841.044	55.04
841.349	54.91
841.654	53.77
841.959	52.37
842.265	51.47
842.57	51.54
842.875	52.09
843.18	51.55
843.485	52.14
843.79	52.52
844.095	52.91
844.4	53.5
844.705	53.27
845.01	54.16
845.315	54.67
845.619	54.02
845.924	54.64
846.229	54.83
846.533	55.24
846.838	56.77
847.142	56.2
847.447	54.76
847.751	53.03
848.056	53.84
848.36	55.85
848.664	56.68
848.969	55.76
849.273	55.51
849.577	56.09
849.881	52.71
850.185	52.94
850.489	54.02
850.794	53.7
851.097	52.93
851.401	51.37
851.705	49.58
852.009	50.97
852.313	50.27
852.617	51.67
852.92	51.06
853.224	51.83
853.528	52.05
853.831	51.91
854.135	53.63
854.438	53.43
854.742	51.48
855.045	52.33
855.349	51.08
855.652	50.21
855.955	50.77
856.259	50.69
856.562	51.43
856.865	49.39
857.168	50.69
857.471	51.52
857.774	51.35
858.077	51.85
858.38	52.84
858.683	51.51
858.986	49.43
859.289	49.32
859.592	47.26
859.894	48.39
860.197	49.33
860.5	50.65
860.802	51.48
861.105	51.61
861.407	48.61
861.71	51
862.012	51.01
862.315	51.02
862.617	53.83
862.919	49.98
863.222	51.57
863.524	47.85
863.826	50.67
864.128	51.96
864.43	52.95
864.732	52.85
865.034	55.91
865.336	55.26
865.638	55.72
865.94	57
866.242	55.15
866.544	55.44
866.846	52.78
867.147	52.8
867.449	51.03
867.751	52.61
868.052	52.31
868.354	52.33
868.655	54.47
868.957	53.42
869.258	57.56
869.56	56.81
869.861	61.5
870.162	58.92
870.463	58.13
870.765	58.95
871.066	60.16
871.367	60.88
871.668	62.54
871.969	61.58
872.27	60.91
872.571	58.94
872.872	58.49
873.173	59.19
873.473	58.16
873.774	61.23
874.075	61.33
874.376	58.96
874.676	59.22
874.977	54.23
875.277	56.13
875.578	53.58
875.878	52.93
876.179	50.75
876.479	51.26
876.78	50.49
877.08	49.66
877.38	45.54
877.68	42.6
877.981	41
878.281	41.15
878.581	39.84
