Data from BU58127_Reflection_00009.txt Node
Date: Mon Nov 18 16:44:18 EST 2019
User: vgr7
Spectrometer: USB2G7710
Scans to average: 3
Trigger mode: 4
Integration Time (sec): 2.000000E-2
Electric dark correction enabled: true
Boxcar width: 10
XAxis mode: Wavelengths
Number of Pixels in Spectrum: 2048
>>>>>Begin Spectral Data<<<<<
177.721	-1542.51
178.105	-228.64
178.488	-217.22
178.871	-130.68
179.254	74.94
179.636	-156.94
180.019	45.72
180.402	230
180.785	-460.39
181.168	-1048.15
181.55	798.41
181.933	112.79
182.316	104.72
182.698	156.88
183.081	161.2
183.463	148.27
183.846	103.53
184.228	116.36
184.611	-39.26
184.993	-425.25
185.376	19.41
185.758	-566.67
186.14	-65.58
186.522	55.11
186.904	43.71
187.287	239.42
187.669	-1124.81
188.051	538.92
188.433	9285.19
188.815	-354.69
189.197	-713.46
189.579	-195.36
189.961	-123.4
190.342	-125.78
190.724	-158.11
191.106	-142
191.488	-159.03
191.869	-110.92
192.251	-140.64
192.633	-85.84
193.014	-123.91
193.396	-114.96
193.777	-139.6
194.159	-171.75
194.54	-67.32
194.922	-51.29
195.303	-41.31
195.684	-46.1
196.065	0.21
196.447	0.35
196.828	0.03
197.209	13
197.59	23.21
197.971	10.56
198.352	17.2
198.733	16.47
199.114	26.51
199.495	18.89
199.876	27.44
200.257	20.38
200.638	9.73
201.018	9.17
201.399	-2.84
201.78	11.97
202.16	-1.08
202.541	-13.26
202.922	-24.37
203.302	-33.41
203.683	-28.82
204.063	-30.79
204.444	-30.98
204.824	-30.13
205.204	-33.69
205.585	-43.32
205.965	-30.44
206.345	-39.42
206.725	-36.99
207.106	-60.33
207.486	-71.05
207.866	-84.22
208.246	-78.75
208.626	-89.06
209.006	-68.76
209.386	-65.6
209.766	-97.53
210.145	-87
210.525	-53.59
210.905	-50.38
211.285	-41.02
211.664	-49.14
212.044	-54.48
212.424	-57.07
212.803	-54.49
213.183	-49.07
213.562	-44.42
213.942	-45.64
214.321	-32.42
214.701	-38.11
215.08	-17.7
215.459	-23.96
215.838	-23.63
216.218	-32.98
216.597	-14.84
216.976	-7.09
217.355	-3.6
217.734	9.62
218.113	13.12
218.492	-6.5
218.871	-1.24
219.25	-0.63
219.629	-1.76
220.008	0.8
220.387	-3.72
220.766	-6.18
221.144	-12.62
221.523	-15.01
221.902	-21.28
222.28	-33.8
222.659	-30.39
223.037	-30.02
223.416	-34.36
223.794	-30.06
224.173	-22.31
224.551	-24.45
224.929	-29.57
225.308	-26.45
225.686	-27.39
226.064	-24
226.442	-23.63
226.821	-21.15
227.199	-19.81
227.577	-20.16
227.955	-19.48
228.333	-18.77
228.711	-16.71
229.089	-13.62
229.467	-15.33
229.845	-14.85
230.222	-11.66
230.6	-11.83
230.978	-10.45
231.356	-7.24
231.733	-5.01
232.111	-1.66
232.488	-1.74
232.866	-1.92
233.243	-2.54
233.621	-2
233.998	-1.23
234.376	1.3
234.753	0.88
235.13	1.43
235.508	2.04
235.885	2.32
236.262	3.11
236.639	2.2
237.016	2.5
237.393	4.12
237.77	6.07
238.147	5.19
238.524	5.73
238.901	5.38
239.278	4.55
239.655	4.64
240.032	4.45
240.409	4.81
240.785	4.9
241.162	5.4
241.539	4.97
241.915	5.14
242.292	4.35
242.668	4.6
243.045	4.74
243.421	4.69
243.798	4.75
244.174	4.48
244.551	4.85
244.927	4.32
245.303	4.54
245.679	4.36
246.056	4.38
246.432	4.3
246.808	4.28
247.184	4.22
247.56	3.74
247.936	3.47
248.312	3.41
248.688	3.39
249.064	3.56
249.44	3.72
249.815	3.86
250.191	4.16
250.567	4.08
250.943	4.02
251.318	3.94
251.694	4
252.069	4.36
252.445	4.42
252.82	4.68
253.196	4.26
253.571	4.17
253.947	4.22
254.322	4.53
254.697	4.27
255.073	4.25
255.448	4.43
255.823	4.62
256.198	4.91
256.573	4.87
256.948	4.72
257.323	4.72
257.698	4.41
258.073	4.22
258.448	4.15
258.823	4.03
259.198	3.98
259.573	3.91
259.948	3.77
260.322	3.62
260.697	3.4
261.072	3.49
261.446	3.43
261.821	3.36
262.195	3.25
262.57	3.41
262.944	3.45
263.319	3.36
263.693	3.06
264.067	2.83
264.442	2.91
264.816	2.72
265.19	2.59
265.564	2.65
265.938	2.61
266.313	2.66
266.687	2.6
267.061	2.7
267.435	2.67
267.809	2.72
268.183	2.69
268.556	2.9
268.93	2.9
269.304	3.05
269.678	3.16
270.051	3.28
270.425	3.28
270.799	3.35
271.172	3.43
271.546	3.62
271.919	3.51
272.293	3.45
272.666	3.56
273.04	3.55
273.413	3.39
273.787	3.49
274.16	3.43
274.533	3.58
274.906	3.47
275.279	3.41
275.653	3.25
276.026	3.14
276.399	3.18
276.772	3.16
277.145	3.13
277.518	3.21
277.891	3.05
278.263	2.91
278.636	2.78
279.009	2.98
279.382	3
279.755	3.13
280.127	3.2
280.5	3.36
280.872	3.38
281.245	3.47
281.617	3.63
281.99	3.67
282.362	3.75
282.735	3.77
283.107	3.75
283.479	3.8
283.852	3.79
284.224	3.81
284.596	3.74
284.968	3.66
285.34	3.62
285.713	3.67
286.085	3.89
286.457	4.05
286.829	3.95
287.201	3.93
287.572	3.82
287.944	3.77
288.316	3.71
288.688	3.67
289.06	3.69
289.431	3.58
289.803	3.68
290.175	3.45
290.546	3.52
290.918	3.61
291.289	3.66
291.661	3.8
292.032	3.83
292.403	3.88
292.775	4.01
293.146	3.94
293.517	3.97
293.889	3.99
294.26	4.05
294.631	4.01
295.002	4
295.373	4.13
295.744	4.17
296.115	4.22
296.486	4.2
296.857	4.17
297.228	4.24
297.599	4.19
297.97	4.31
298.34	4.31
298.711	4.47
299.082	4.47
299.452	4.55
299.823	4.61
300.194	4.73
300.564	4.7
300.935	4.88
301.305	4.97
301.676	5
302.046	5.01
302.416	5.18
302.787	5.31
303.157	5.41
303.527	5.52
303.897	5.49
304.267	5.65
304.637	5.81
305.008	5.79
305.378	6.01
305.748	6.15
306.117	6.27
306.487	6.23
306.857	6.39
307.227	6.35
307.597	6.39
307.967	6.47
308.336	6.63
308.706	6.61
309.076	6.67
309.445	6.67
309.815	6.46
310.184	6.47
310.554	6.59
310.923	6.64
311.293	6.77
311.662	6.88
312.031	7.01
312.401	7.04
312.77	7.18
313.139	7.27
313.508	7.32
313.877	7.3
314.246	7.36
314.616	7.44
314.985	7.55
315.353	7.66
315.722	7.8
316.091	7.87
316.46	7.95
316.829	7.92
317.198	8.03
317.567	8.35
317.935	8.44
318.304	8.4
318.672	8.45
319.041	8.49
319.41	8.52
319.778	8.55
320.147	8.63
320.515	8.58
320.883	8.48
321.252	8.77
321.62	8.9
321.988	9.03
322.357	9.1
322.725	9.27
323.093	9.29
323.461	9.15
323.829	9.21
324.197	9.27
324.565	9.44
324.933	9.29
325.301	9.37
325.669	9.5
326.037	9.56
326.405	9.59
326.772	9.63
327.14	9.77
327.508	9.72
327.875	9.8
328.243	9.98
328.61	10.02
328.978	9.94
329.346	10.14
329.713	9.99
330.08	10.14
330.448	10.04
330.815	10
331.182	10.19
331.55	10.2
331.917	10.19
332.284	10.16
332.651	10.34
333.018	10.43
333.385	10.36
333.752	10.4
334.119	10.49
334.486	10.39
334.853	10.31
335.22	10.36
335.587	10.36
335.954	10.25
336.32	10.38
336.687	10.38
337.054	10.27
337.42	10.46
337.787	10.44
338.153	10.51
338.52	10.67
338.886	10.62
339.253	10.59
339.619	10.64
339.986	10.65
340.352	10.67
340.718	10.69
341.084	10.8
341.451	10.92
341.817	11.01
342.183	11.03
342.549	11.11
342.915	11.19
343.281	11.16
343.647	11.26
344.013	11.21
344.379	11.16
344.745	11.19
345.11	11.12
345.476	11.13
345.842	11.16
346.208	11.15
346.573	11.17
346.939	11.22
347.304	11.26
347.67	11.25
348.035	11.31
348.401	11.37
348.766	11.35
349.132	11.26
349.497	11.09
349.862	11.24
350.228	11.22
350.593	11.18
350.958	11.27
351.323	11.34
351.688	11.35
352.053	11.41
352.418	11.45
352.783	11.48
353.148	11.38
353.513	11.45
353.878	11.39
354.243	11.46
354.608	11.54
354.972	11.47
355.337	11.55
355.702	11.57
356.066	11.63
356.431	11.54
356.795	11.58
357.16	11.61
357.524	11.49
357.889	11.44
358.253	11.42
358.618	11.43
358.982	11.31
359.346	11.26
359.71	11.22
360.075	11.18
360.439	11.18
360.803	11.13
361.167	11.05
361.531	11.01
361.895	10.9
362.259	10.81
362.623	10.83
362.987	10.82
363.351	10.72
363.714	10.63
364.078	10.6
364.442	10.5
364.806	10.52
365.169	10.41
365.533	10.39
365.896	10.38
366.26	10.24
366.623	10.19
366.987	10.19
367.35	10.15
367.714	10.05
368.077	9.93
368.44	9.97
368.803	9.93
369.167	9.87
369.53	9.81
369.893	9.76
370.256	9.67
370.619	9.58
370.982	9.52
371.345	9.42
371.708	9.38
372.071	9.37
372.434	9.2
372.797	9.23
373.159	9.17
373.522	9.09
373.885	9.04
374.247	9.06
374.61	8.98
374.973	8.87
375.335	8.77
375.698	8.77
376.06	8.67
376.423	8.6
376.785	8.56
377.147	8.52
377.51	8.47
377.872	8.46
378.234	8.43
378.596	8.37
378.958	8.27
379.321	8.22
379.683	8.19
380.045	8.15
380.407	8.04
380.769	7.97
381.13	7.88
381.492	7.85
381.854	7.78
382.216	7.67
382.578	7.6
382.939	7.59
383.301	7.51
383.663	7.37
384.024	7.3
384.386	7.21
384.747	7.17
385.109	7.14
385.47	7.06
385.832	6.97
386.193	6.94
386.554	6.89
386.916	6.89
387.277	6.79
387.638	6.76
387.999	6.73
388.36	6.68
388.721	6.65
389.082	6.62
389.443	6.54
389.804	6.5
390.165	6.44
390.526	6.38
390.887	6.32
391.248	6.34
391.609	6.3
391.969	6.25
392.33	6.19
392.691	6.12
393.051	6.09
393.412	6.07
393.772	5.98
394.133	5.95
394.493	5.84
394.854	5.78
395.214	5.73
395.574	5.7
395.935	5.63
396.295	5.62
396.655	5.53
397.015	5.51
397.376	5.47
397.736	5.47
398.096	5.44
398.456	5.41
398.816	5.36
399.176	5.32
399.535	5.3
399.895	5.27
400.255	5.26
400.615	5.2
400.975	5.14
401.334	5.12
401.694	5.08
402.054	5.06
402.413	5.06
402.773	5.04
403.132	5.02
403.492	5.01
403.851	4.99
404.211	4.97
404.57	4.95
404.929	4.95
405.288	4.9
405.648	4.87
406.007	4.85
406.366	4.83
406.725	4.81
407.084	4.8
407.443	4.78
407.802	4.77
408.161	4.73
408.52	4.67
408.879	4.67
409.238	4.64
409.596	4.61
409.955	4.6
410.314	4.6
410.673	4.55
411.031	4.54
411.39	4.49
411.748	4.47
412.107	4.46
412.465	4.42
412.824	4.41
413.182	4.4
413.54	4.4
413.899	4.37
414.257	4.34
414.615	4.3
414.974	4.29
415.332	4.25
415.69	4.24
416.048	4.26
416.406	4.22
416.764	4.22
417.122	4.23
417.48	4.18
417.838	4.16
418.195	4.14
418.553	4.1
418.911	4.09
419.269	4.1
419.626	4.06
419.984	4.05
420.342	4.05
420.699	4.03
421.057	4
421.414	3.99
421.772	3.99
422.129	4
422.486	3.96
422.844	3.95
423.201	3.93
423.558	3.9
423.915	3.9
424.273	3.88
424.63	3.85
424.987	3.85
425.344	3.83
425.701	3.83
426.058	3.84
426.415	3.84
426.772	3.81
427.128	3.79
427.485	3.78
427.842	3.74
428.199	3.73
428.555	3.72
428.912	3.73
429.269	3.73
429.625	3.67
429.982	3.7
430.338	3.7
430.695	3.7
431.051	3.69
431.407	3.7
431.764	3.69
432.12	3.68
432.476	3.68
432.832	3.68
433.189	3.68
433.545	3.65
433.901	3.61
434.257	3.59
434.613	3.59
434.969	3.61
435.325	3.61
435.681	3.61
436.036	3.61
436.392	3.58
436.748	3.58
437.104	3.59
437.459	3.55
437.815	3.54
438.171	3.54
438.526	3.54
438.882	3.53
439.237	3.54
439.593	3.56
439.948	3.55
440.304	3.55
440.659	3.56
441.014	3.54
441.369	3.54
441.725	3.56
442.08	3.56
442.435	3.55
442.79	3.54
443.145	3.53
443.5	3.53
443.855	3.53
444.21	3.52
444.565	3.52
444.92	3.55
445.275	3.53
445.629	3.53
445.984	3.53
446.339	3.51
446.693	3.48
447.048	3.45
447.403	3.44
447.757	3.42
448.112	3.41
448.466	3.42
448.82	3.42
449.175	3.42
449.529	3.4
449.883	3.36
450.238	3.37
450.592	3.35
450.946	3.34
451.3	3.34
451.654	3.33
452.008	3.32
452.362	3.3
452.716	3.3
453.07	3.3
453.424	3.28
453.778	3.29
454.132	3.3
454.486	3.32
454.839	3.33
455.193	3.32
455.547	3.28
455.9	3.29
456.254	3.3
456.607	3.28
456.961	3.29
457.314	3.3
457.668	3.3
458.021	3.3
458.375	3.3
458.728	3.28
459.081	3.27
459.434	3.27
459.787	3.28
460.141	3.28
460.494	3.28
460.847	3.3
461.2	3.3
461.553	3.31
461.906	3.3
462.259	3.31
462.611	3.33
462.964	3.36
463.317	3.38
463.67	3.4
464.022	3.41
464.375	3.42
464.728	3.42
465.08	3.43
465.433	3.45
465.785	3.46
466.138	3.48
466.49	3.5
466.843	3.52
467.195	3.51
467.547	3.53
467.899	3.54
468.252	3.54
468.604	3.55
468.956	3.55
469.308	3.59
469.66	3.57
470.012	3.58
470.364	3.6
470.716	3.57
471.068	3.55
471.42	3.57
471.772	3.59
472.123	3.62
472.475	3.63
472.827	3.64
473.178	3.64
473.53	3.65
473.882	3.65
474.233	3.66
474.585	3.67
474.936	3.66
475.288	3.68
475.639	3.68
475.99	3.67
476.342	3.68
476.693	3.69
477.044	3.71
477.395	3.71
477.746	3.7
478.097	3.71
478.448	3.7
478.8	3.69
479.15	3.66
479.501	3.66
479.852	3.66
480.203	3.66
480.554	3.68
480.905	3.68
481.255	3.68
481.606	3.67
481.957	3.67
482.307	3.66
482.658	3.65
483.009	3.64
483.359	3.64
483.709	3.65
484.06	3.64
484.41	3.64
484.761	3.63
485.111	3.63
485.461	3.63
485.811	3.62
486.162	3.62
486.512	3.63
486.862	3.62
487.212	3.61
487.562	3.62
487.912	3.61
488.262	3.6
488.612	3.6
488.961	3.61
489.311	3.61
489.661	3.61
490.011	3.62
490.36	3.63
490.71	3.63
491.06	3.63
491.409	3.63
491.759	3.62
492.108	3.63
492.458	3.64
492.807	3.64
493.157	3.67
493.506	3.7
493.855	3.72
494.204	3.73
494.554	3.76
494.903	3.75
495.252	3.74
495.601	3.76
495.95	3.77
496.299	3.77
496.648	3.8
496.997	3.83
497.346	3.86
497.695	3.88
498.043	3.9
498.392	3.92
498.741	3.95
499.09	3.98
499.438	4.04
499.787	4.07
500.135	4.11
500.484	4.13
500.832	4.15
501.181	4.18
501.529	4.23
501.878	4.29
502.226	4.35
502.574	4.43
502.923	4.49
503.271	4.55
503.619	4.62
503.967	4.64
504.315	4.68
504.663	4.72
505.011	4.81
505.359	4.88
505.707	4.94
506.055	5
506.403	5.07
506.751	5.12
507.098	5.18
507.446	5.25
507.794	5.31
508.141	5.38
508.489	5.45
508.837	5.52
509.184	5.58
509.531	5.67
509.879	5.73
510.226	5.8
510.574	5.87
510.921	5.95
511.268	6.02
511.616	6.12
511.963	6.21
512.31	6.28
512.657	6.38
513.004	6.46
513.351	6.58
513.698	6.68
514.045	6.78
514.392	6.86
514.739	6.96
515.086	7.08
515.432	7.15
515.779	7.24
516.126	7.35
516.473	7.46
516.819	7.55
517.166	7.63
517.512	7.72
517.859	7.8
518.205	7.88
518.552	8
518.898	8.06
519.245	8.14
519.591	8.23
519.937	8.29
520.283	8.41
520.629	8.5
520.976	8.61
521.322	8.71
521.668	8.83
522.014	8.95
522.36	9.05
522.706	9.19
523.052	9.34
523.398	9.46
523.743	9.59
524.089	9.71
524.435	9.86
524.781	10.01
525.126	10.14
525.472	10.25
525.817	10.35
526.163	10.47
526.509	10.56
526.854	10.64
527.199	10.75
527.545	10.83
527.89	10.91
528.235	10.98
528.581	11.06
528.926	11.15
529.271	11.23
529.616	11.32
529.961	11.43
530.306	11.53
530.651	11.61
530.996	11.73
531.341	11.84
531.686	11.96
532.031	12.05
532.376	12.16
532.721	12.3
533.065	12.43
533.41	12.55
533.755	12.69
534.099	12.83
534.444	12.95
534.788	13.09
535.133	13.2
535.477	13.36
535.822	13.5
536.166	13.66
536.51	13.83
536.855	14.01
537.199	14.16
537.543	14.3
537.887	14.48
538.231	14.66
538.576	14.85
538.92	15.04
539.264	15.22
539.608	15.37
539.951	15.51
540.295	15.65
540.639	15.82
540.983	15.97
541.327	16.11
541.671	16.27
542.014	16.43
542.358	16.58
542.701	16.73
543.045	16.89
543.389	17.03
543.732	17.2
544.075	17.36
544.419	17.54
544.762	17.72
545.105	17.93
545.449	18.1
545.792	18.31
546.135	18.52
546.478	18.75
546.821	19.01
547.165	19.28
547.508	19.53
547.851	19.75
548.194	20.01
548.536	20.28
548.879	20.56
549.222	20.77
549.565	21.09
549.908	21.33
550.25	21.61
550.593	21.87
550.936	22.12
551.278	22.41
551.621	22.72
551.963	23.03
552.306	23.3
552.648	23.56
552.991	23.82
553.333	24.09
553.675	24.35
554.017	24.63
554.36	24.86
554.702	25.14
555.044	25.42
555.386	25.69
555.728	25.94
556.07	26.21
556.412	26.46
556.754	26.71
557.096	27.01
557.438	27.28
557.78	27.59
558.121	27.93
558.463	28.24
558.805	28.54
559.147	28.81
559.488	29.12
559.83	29.47
560.171	29.75
560.513	30.05
560.854	30.33
561.196	30.61
561.537	30.9
561.878	31.15
562.22	31.38
562.561	31.61
562.902	31.86
563.243	32.14
563.584	32.5
563.925	32.78
564.266	33.03
564.607	33.31
564.948	33.52
565.289	33.77
565.63	33.98
565.971	34.2
566.312	34.46
566.653	34.69
566.993	34.92
567.334	35.16
567.675	35.34
568.015	35.53
568.356	35.78
568.696	36.05
569.037	36.27
569.377	36.54
569.718	36.87
570.058	37.12
570.398	37.33
570.739	37.54
571.079	37.75
571.419	37.96
571.759	38.14
572.099	38.43
572.439	38.59
572.779	38.77
573.119	38.94
573.459	39.15
573.799	39.32
574.139	39.49
574.479	39.71
574.819	39.92
575.158	40.14
575.498	40.32
575.838	40.46
576.177	40.67
576.517	40.87
576.856	40.95
577.196	41.1
577.535	41.34
577.875	41.49
578.214	41.68
578.553	41.84
578.893	42.01
579.232	42.15
579.571	42.34
579.91	42.57
580.25	42.77
580.589	43.01
580.928	43.19
581.267	43.39
581.606	43.44
581.945	43.52
582.283	43.66
582.622	43.8
582.961	44.01
583.3	44.19
583.639	44.38
583.977	44.51
584.316	44.64
584.654	44.77
584.993	44.89
585.332	44.99
585.67	45.17
586.008	45.37
586.347	45.5
586.685	45.59
587.024	45.71
587.362	45.82
587.7	45.86
588.038	45.99
588.376	46.08
588.715	46.26
589.053	46.48
589.391	46.58
589.729	46.7
590.067	46.82
590.404	46.94
590.742	47.03
591.08	47.19
591.418	47.31
591.756	47.37
592.093	47.52
592.431	47.62
592.769	47.69
593.106	47.8
593.444	47.86
593.781	47.99
594.119	48.02
594.456	48.07
594.793	48.1
595.131	48.16
595.468	48.21
595.805	48.23
596.143	48.31
596.48	48.36
596.817	48.38
597.154	48.39
597.491	48.4
597.828	48.45
598.165	48.5
598.502	48.62
598.839	48.65
599.176	48.67
599.512	48.79
599.849	48.91
600.186	48.93
600.523	49.08
600.859	49.23
601.196	49.35
601.532	49.45
601.869	49.55
602.205	49.67
602.542	49.81
602.878	49.94
603.215	49.98
603.551	50.06
603.887	50.17
604.223	50.2
604.56	50.28
604.896	50.28
605.232	50.32
605.568	50.36
605.904	50.42
606.24	50.5
606.576	50.48
606.912	50.51
607.248	50.57
607.583	50.59
607.919	50.58
608.255	50.58
608.591	50.67
608.926	50.72
609.262	50.76
609.597	50.76
609.933	50.71
610.268	50.73
610.604	50.71
610.939	50.71
611.275	50.77
611.61	50.83
611.945	50.96
612.281	50.97
612.616	50.97
612.951	50.97
613.286	51.01
613.621	51.06
613.956	51.09
614.291	51.12
614.626	51.18
614.961	51.13
615.296	51.19
615.631	51.19
615.966	51.28
616.3	51.25
616.635	51.33
616.97	51.39
617.304	51.5
617.639	51.68
617.973	51.68
618.308	51.62
618.642	51.65
618.977	51.66
619.311	51.8
619.646	51.86
619.98	51.94
620.314	51.92
620.648	51.95
620.983	51.99
621.317	52
621.651	51.98
621.985	51.99
622.319	52.05
622.653	52.1
622.987	52.12
623.321	52.16
623.655	52.18
623.988	52.2
624.322	52.2
624.656	52.1
624.99	52.1
625.323	52.14
625.657	52.08
625.99	52.14
626.324	52.13
626.657	52.14
626.991	52.2
627.324	52.2
627.658	52.26
627.991	52.29
628.324	52.34
628.657	52.39
628.991	52.53
629.324	52.53
629.657	52.6
629.99	52.56
630.323	52.56
630.656	52.64
630.989	52.63
631.322	52.55
631.655	52.57
631.987	52.65
632.32	52.75
632.653	52.79
632.986	52.74
633.318	52.76
633.651	52.81
633.984	52.83
634.316	52.88
634.649	52.9
634.981	52.85
635.313	52.85
635.646	52.82
635.978	52.74
636.31	52.74
636.643	52.67
636.975	52.7
637.307	52.73
637.639	52.71
637.971	52.76
638.303	52.83
638.635	52.95
638.967	52.9
639.299	52.87
639.631	52.88
639.963	52.84
640.295	52.77
640.626	52.65
640.958	52.63
641.29	52.57
641.621	52.57
641.953	52.66
642.285	52.6
642.616	52.59
642.948	52.6
643.279	52.5
643.61	52.55
643.942	52.53
644.273	52.5
644.604	52.36
644.936	52.45
645.267	52.59
645.598	52.37
645.929	52.51
646.26	52.56
646.591	52.57
646.922	52.66
647.253	52.63
647.584	52.8
647.915	52.84
648.245	52.92
648.576	53.01
648.907	53.07
649.238	53.05
649.568	53.18
649.899	53.18
650.229	53.36
650.56	53.27
650.89	53.35
651.221	53.49
651.551	53.68
651.882	53.48
652.212	53.36
652.542	53.49
652.872	53.31
653.203	53.4
653.533	53.4
653.863	53.34
654.193	53.49
654.523	53.36
654.853	53.48
655.183	53.44
655.513	53.22
655.843	53.11
656.172	53.27
656.502	53.2
656.832	53.31
657.162	53.26
657.491	53.31
657.821	53.31
658.15	53.28
658.48	53.28
658.809	53.35
659.139	53.43
659.468	53.45
659.798	53.54
660.127	53.57
660.456	53.58
660.785	53.7
661.115	53.7
661.444	53.73
661.773	53.6
662.102	53.62
662.431	53.76
662.76	53.74
663.089	53.71
663.418	53.77
663.747	53.73
664.076	53.82
664.404	53.82
664.733	53.72
665.062	53.62
665.39	53.5
665.719	53.52
666.048	53.5
666.376	53.47
666.705	53.41
667.033	53.43
667.362	53.47
667.69	53.38
668.018	53.32
668.347	53.24
668.675	53.33
669.003	53.47
669.331	53.48
669.659	53.54
669.987	53.54
670.315	53.56
670.643	53.56
670.971	53.49
671.299	53.53
671.627	53.66
671.955	53.91
672.283	53.93
672.61	53.98
672.938	53.97
673.266	54.02
673.593	54.17
673.921	53.94
674.249	53.87
674.576	53.83
674.904	53.87
675.231	54
675.558	53.97
675.886	53.96
676.213	54.01
676.54	53.95
676.867	53.87
677.195	53.71
677.522	53.67
677.849	53.68
678.176	53.66
678.503	53.65
678.83	53.51
679.157	53.5
679.484	53.5
679.81	53.43
680.137	53.43
680.464	53.32
680.791	53.5
681.117	53.54
681.444	53.55
681.771	53.59
682.097	53.57
682.424	53.55
682.75	53.41
683.077	53.35
683.403	53.43
683.729	53.55
684.056	53.69
684.382	53.65
684.708	53.61
685.034	53.61
685.36	53.63
685.686	53.5
686.012	53.54
686.339	53.5
686.664	53.37
686.99	53.37
687.316	53.44
687.642	53.33
687.968	53.21
688.294	53.31
688.619	53.28
688.945	53.25
689.271	53.18
689.596	53.31
689.922	53.3
690.247	53.33
690.573	53.24
690.898	53.14
691.224	53.23
691.549	53.21
691.874	53.11
692.2	52.94
692.525	53.02
692.85	52.97
693.175	53.01
693.5	53.12
693.825	53.17
694.15	53.22
694.475	53.18
694.8	53.37
695.125	53.36
695.45	53.29
695.775	53.35
696.099	53.39
696.424	53.41
696.749	53.43
697.073	53.44
697.398	53.37
697.723	53.48
698.047	53.31
698.372	53.4
698.696	53.56
699.02	53.59
699.345	53.49
699.669	53.56
699.993	53.6
700.318	53.59
700.642	53.54
700.966	53.56
701.29	53.57
701.614	53.59
701.938	53.6
702.262	53.62
702.586	53.53
702.91	53.69
703.234	53.74
703.557	53.79
703.881	53.66
704.205	53.76
704.529	53.56
704.852	53.79
705.176	53.76
705.499	53.7
705.823	53.8
706.146	53.93
706.47	53.86
706.793	53.68
707.117	53.85
707.44	53.91
707.763	53.9
708.086	54.02
708.409	53.83
708.733	53.62
709.056	53.55
709.379	53.63
709.702	53.58
710.025	53.34
710.348	53.32
710.671	53.26
710.993	53.4
711.316	53.47
711.639	53.37
711.962	53.29
712.284	53.31
712.607	53.41
712.93	53.43
713.252	53.5
713.575	53.48
713.897	53.3
714.22	53.26
714.542	53.26
714.864	53.2
715.187	53.32
715.509	53.65
715.831	53.88
716.153	53.8
716.475	53.7
716.798	53.94
717.12	53.81
717.442	53.84
717.764	53.84
718.085	53.93
718.407	53.96
718.729	54.02
719.051	53.9
719.373	53.78
719.695	53.92
720.016	53.87
720.338	54.07
720.659	54.08
720.981	54.06
721.302	54.03
721.624	54.14
721.945	54.2
722.267	53.9
722.588	53.78
722.909	53.98
723.231	53.89
723.552	53.74
723.873	53.72
724.194	53.87
724.515	53.67
724.836	53.6
725.157	53.89
725.478	53.87
725.799	53.8
726.12	53.61
726.441	53.48
726.762	53.6
727.083	53.65
727.403	53.88
727.724	53.91
728.045	53.85
728.365	53.9
728.686	53.77
729.006	53.69
729.327	53.5
729.647	53.34
729.967	53.36
730.288	53.35
730.608	53.34
730.928	53.36
731.249	53.43
731.569	53.44
731.889	53.19
732.209	53.26
732.529	53.47
732.849	53.7
733.169	53.64
733.489	53.33
733.809	53.2
734.129	53.15
734.448	53.04
734.768	53.05
735.088	53.02
735.408	53.1
735.727	53.32
736.047	53.32
736.366	53.39
736.686	53.57
737.005	53.71
737.325	53.87
737.644	53.8
737.963	53.77
738.283	53.72
738.602	53.99
738.921	53.94
739.24	53.86
739.56	53.92
739.879	53.94
740.198	54.42
740.517	54.48
740.836	54.53
741.155	54.57
741.473	54.51
741.792	54.64
742.111	54.53
742.43	54.54
742.748	54.6
743.067	54.44
743.386	54.26
743.704	54.13
744.023	53.89
744.341	53.5
744.66	53.62
744.978	53.55
745.297	53.36
745.615	53.44
745.933	53.37
746.252	53.17
746.57	53.29
746.888	52.88
747.206	52.98
747.524	52.86
747.842	52.89
748.16	52.86
748.478	52.59
748.796	52.65
749.114	52.54
749.432	52.61
749.749	52.74
750.067	52.78
750.385	52.66
750.703	52.76
751.02	52.99
751.338	52.84
751.655	53.09
751.973	53.14
752.29	52.9
752.608	52.94
752.925	53.24
753.242	53.11
753.56	53.16
753.877	53.04
754.194	53.07
754.511	53.53
754.828	53.38
755.145	53.32
755.462	53.51
755.779	53.56
756.096	53.31
756.413	53.43
756.73	53.62
757.047	53.69
757.364	53.96
757.68	54.3
757.997	54.19
758.314	54.03
758.63	53.97
758.947	53.88
759.264	53.86
759.58	53.62
759.896	53.49
760.213	53.72
760.529	53.6
760.846	53.67
761.162	53.38
761.478	53.53
761.794	53.46
762.11	53.38
762.426	53.36
762.743	53.61
763.059	53.58
763.375	53.64
763.69	53.71
764.006	53.75
764.322	53.53
764.638	53.86
764.954	53.81
765.27	53.59
765.585	53.63
765.901	53.67
766.216	53.42
766.532	53.6
766.848	53.39
767.163	53.42
767.478	53.21
767.794	53.45
768.109	53.55
768.424	53.55
768.74	53.65
769.055	53.72
769.37	53.7
769.685	53.69
770	53.66
770.315	53.87
770.63	53.64
770.945	53.74
771.26	53.46
771.575	53.58
771.89	53.8
772.205	54.06
772.52	53.89
772.834	53.99
773.149	54.07
773.464	53.81
773.778	54.23
774.093	54.14
774.407	53.82
774.722	53.16
775.036	53.46
775.351	53.16
775.665	53.17
775.979	53.06
776.293	53.29
776.608	52.99
776.922	52.89
777.236	53.13
777.55	52.73
777.864	52.54
778.178	52.68
778.492	52.49
778.806	52.24
779.12	52.4
779.434	52.67
779.747	52.64
780.061	52.8
780.375	52.11
780.689	52
781.002	51.84
781.316	52.22
781.629	52.37
781.943	52.35
782.256	52.36
782.57	52.58
782.883	52.37
783.196	52.17
783.51	51.42
783.823	50.77
784.136	51.03
784.449	51.16
784.762	50.89
785.075	50.98
785.388	50.89
785.701	50.5
786.014	50.37
786.327	49.86
786.64	50.29
786.953	51.05
787.266	51.07
787.578	51.11
787.891	51.82
788.204	51.25
788.516	51.42
788.829	51.08
789.141	50.74
789.454	50.67
789.766	51.03
790.079	51.83
790.391	51.97
790.703	52.12
791.016	52.16
791.328	51.51
791.64	51.41
791.952	52.05
792.264	51.91
792.576	51.62
792.888	51.51
793.2	51.44
793.512	51.01
793.824	51.47
794.136	51.57
794.448	50.84
794.76	51.03
795.071	50.89
795.383	51.17
795.695	51.22
796.006	50.81
796.318	50.8
796.629	50.46
796.941	50.89
797.252	50.67
797.564	51.04
797.875	52.11
798.186	51.88
798.497	51.53
798.809	51.88
799.12	52.1
799.431	52.67
799.742	52.92
800.053	53.29
800.364	53.32
800.675	53.05
800.986	53.36
801.297	52.93
801.608	53
801.918	52.52
802.229	52.74
802.54	53.22
802.851	52.79
803.161	52.84
803.472	52.3
803.782	52.38
804.093	52.36
804.403	52.45
804.714	52.35
805.024	52.18
805.334	52.93
805.645	53.24
805.955	53.43
806.265	53.15
806.575	52.42
806.885	52.12
807.195	51.99
807.505	52.25
807.815	52.17
808.125	51.88
808.435	52.58
808.745	51.83
809.055	51.97
809.365	51.81
809.674	52.03
809.984	52.5
810.294	52.64
810.603	52.12
810.913	51.56
811.222	52.8
811.532	52.83
811.841	51.82
812.151	51.96
812.46	51.77
812.769	51.09
813.079	51.95
813.388	52.37
813.697	52.34
814.006	51.7
814.315	52.92
814.624	52.88
814.933	52.76
815.242	53.29
815.551	52.88
815.86	52.93
816.169	52.43
816.478	52.27
816.786	52.68
817.095	52.55
817.404	52.82
817.712	51.93
818.021	52.19
818.33	52.67
818.638	52.28
818.947	52.11
819.255	52.65
819.563	52.41
819.872	51.95
820.18	52.56
820.488	52.59
820.796	52.57
821.105	52.73
821.413	52.62
821.721	53.02
822.029	53.26
822.337	53.46
822.645	53.57
822.953	53.7
823.26	53.54
823.568	53.65
823.876	53.73
824.184	53.75
824.491	53.64
824.799	53.66
825.107	53.78
825.414	53.81
825.722	53.73
826.029	53.68
826.337	54.18
826.644	53.98
826.951	54.08
827.259	53.89
827.566	53.74
827.873	53.89
828.18	53.83
828.488	53.59
828.795	53.45
829.102	53.48
829.409	53.28
829.716	53.4
830.023	53.32
830.329	53.27
830.636	53.08
830.943	53.2
831.25	53.28
831.557	52.83
831.863	53.5
832.17	53.74
832.476	53.95
832.783	53.26
833.089	52.97
833.396	52.95
833.702	53.53
834.009	53.89
834.315	54.06
834.621	53.34
834.928	53.43
835.234	53.32
835.54	53.21
835.846	52.91
836.152	52.87
836.458	52.77
836.764	52.47
837.07	52.63
837.376	52.85
837.682	52.6
837.988	53.08
838.293	52.59
838.599	52.12
838.905	51.73
839.211	51.62
839.516	51.91
839.822	51.49
840.127	50.91
840.433	51.62
840.738	50.85
841.044	51.66
841.349	52.01
841.654	52.19
841.959	51.36
842.265	52.53
842.57	53.22
842.875	52.6
843.18	53.77
843.485	53.97
843.79	52.96
844.095	52.74
844.4	54.03
844.705	53.01
845.01	52.86
845.315	52.62
845.619	53.63
845.924	54.83
846.229	55.59
846.533	56.45
846.838	54.5
847.142	55.62
847.447	53.42
847.751	50.41
848.056	50.22
848.36	51.46
848.664	51.66
848.969	50.03
849.273	50.31
849.577	48.53
849.881	47.99
850.185	49.01
850.489	48.7
850.794	46.4
851.097	47.86
851.401	49.45
851.705	49.91
852.009	47.82
852.313	43.67
852.617	43.52
852.92	43.78
853.224	43.2
853.528	44.8
853.831	46.92
854.135	49.51
854.438	50.22
854.742	50.17
855.045	48.59
855.349	49.24
855.652	49.87
855.955	49.54
856.259	49.11
856.562	46.76
856.865	47.65
857.168	46.26
857.471	43.34
857.774	43.41
858.077	42.61
858.38	43.25
858.683	44.69
858.986	44.45
859.289	42.29
859.592	42.91
859.894	40.22
860.197	41.47
860.5	42.13
860.802	42.05
861.105	40.87
861.407	37.95
861.71	39.38
862.012	40.67
862.315	39.76
862.617	40.52
862.919	42.84
863.222	42.82
863.524	44.68
863.826	46.57
864.128	47.53
864.43	49.45
864.732	51.42
865.034	50.09
865.336	50.98
865.638	52.03
865.94	53.74
866.242	54.72
866.544	52.89
866.846	49.77
867.147	48.91
867.449	50.83
867.751	54.8
868.052	56.42
868.354	53.66
868.655	56.11
868.957	56.13
869.258	56.75
869.56	56.42
869.861	54.53
870.162	53.09
870.463	50.27
870.765	48.84
871.066	46.85
871.367	49.24
871.668	49.02
871.969	51.52
872.27	50.19
872.571	49.24
872.872	49.67
873.173	51.58
873.473	51.94
873.774	53.11
874.075	52.69
874.376	50.44
874.676	50.85
874.977	48.77
875.277	50.57
875.578	48.68
875.878	48.07
876.179	49.33
876.479	50.46
876.78	50.66
877.08	52.03
877.38	52.87
877.68	54.17
877.981	54.41
878.281	50.59
878.581	51.54
