Data from BU58130_Reflection_00011.txt Node
Date: Mon Nov 18 16:37:34 EST 2019
User: vgr7
Spectrometer: USB2G7710
Scans to average: 3
Trigger mode: 4
Integration Time (sec): 2.000000E-2
Electric dark correction enabled: true
Boxcar width: 10
XAxis mode: Wavelengths
Number of Pixels in Spectrum: 2048
>>>>>Begin Spectral Data<<<<<
177.721	364.63
178.105	-13.82
178.488	-11.43
178.871	-22.98
179.254	65.46
179.636	-14.94
180.019	90.87
180.402	34.48
180.785	-48.58
181.168	2.59
181.55	14.26
181.933	65.14
182.316	78.77
182.698	118.19
183.081	110.11
183.463	180.98
183.846	209.45
184.228	140.79
184.611	243.09
184.993	258
185.376	218.33
185.758	179.9
186.14	251.65
186.522	474.7
186.904	623.21
187.287	1232.28
187.669	-759.44
188.051	-4075.44
188.433	-2330.11
188.815	-256.68
189.197	-165.88
189.579	-165.32
189.961	-110.85
190.342	-99.06
190.724	-90.3
191.106	-115.55
191.488	-132.99
191.869	-144.58
192.251	-231.69
192.633	-841.8
193.014	-5159.26
193.396	2445.68
193.777	2853.62
194.159	366.67
194.54	470.37
194.922	-595.3
195.303	-1151.14
195.684	-422.95
196.065	-123.31
196.447	-71.46
196.828	-83.44
197.209	-80.14
197.59	-65.05
197.971	-74.45
198.352	-55.46
198.733	-36
199.114	-42.93
199.495	-34.26
199.876	-11.21
200.257	-10.41
200.638	-8.66
201.018	-11.01
201.399	-16.1
201.78	-6.95
202.16	-13.99
202.541	-24.58
202.922	-51.43
203.302	-44.9
203.683	-54.86
204.063	-58.42
204.444	-68.26
204.824	-62.15
205.204	-49.67
205.585	-57.82
205.965	-54.07
206.345	-87.08
206.725	-113.16
207.106	-100.79
207.486	-191.25
207.866	-322.29
208.246	-294.02
208.626	-301.19
209.006	-270.88
209.386	-279.61
209.766	-299.35
210.145	-228.34
210.525	-180.03
210.905	-118.14
211.285	-207.25
211.664	-138.92
212.044	-362.75
212.424	1707.84
212.803	190.7
213.183	285.79
213.562	-70.27
213.942	-43.93
214.321	-47.32
214.701	-42.27
215.08	-58.61
215.459	-28.45
215.838	-43.67
216.218	-26.51
216.597	23.83
216.976	6.4
217.355	14
217.734	4.94
218.113	13.1
218.492	6.87
218.871	-17.96
219.25	-33.13
219.629	-43.15
220.008	-36.45
220.387	-26.52
220.766	-8.58
221.144	-28.58
221.523	-54.51
221.902	-76.58
222.28	-49.01
222.659	-30.34
223.037	-9.94
223.416	-38.65
223.794	-18.13
224.173	-18.23
224.551	-40.98
224.929	-27.84
225.308	-10.61
225.686	-4.09
226.064	-9.04
226.442	-4.42
226.821	4.43
227.199	4.9
227.577	2.87
227.955	-2.36
228.333	-3.12
228.711	-4.55
229.089	-4.37
229.467	-2.27
229.845	0.42
230.222	1.41
230.6	0.98
230.978	0.18
231.356	4.04
231.733	2.21
232.111	4.14
232.488	5.1
232.866	3.14
233.243	0.72
233.621	-2.13
233.998	0.76
234.376	-1
234.753	-1.43
235.13	-1.16
235.508	0.31
235.885	2.19
236.262	0.7
236.639	0.46
237.016	1.93
237.393	2.93
237.77	3.73
238.147	3.82
238.524	3.17
238.901	3.64
239.278	4.75
239.655	5.2
240.032	4.88
240.409	4.97
240.785	5.07
241.162	5.08
241.539	6.23
241.915	6.21
242.292	5.57
242.668	5.4
243.045	5.55
243.421	5.41
243.798	5.47
244.174	5.54
244.551	5.33
244.927	5.15
245.303	5.43
245.679	5.29
246.056	5.18
246.432	5.23
246.808	5.3
247.184	5.19
247.56	5.14
247.936	4.83
248.312	5.01
248.688	5.13
249.064	5.15
249.44	4.98
249.815	4.67
250.191	4.98
250.567	4.94
250.943	4.84
251.318	5.01
251.694	5.03
252.069	5.35
252.445	5.52
252.82	5.7
253.196	5.51
253.571	5.36
253.947	5.18
254.322	5.66
254.697	5.57
255.073	5.4
255.448	5.12
255.823	5.16
256.198	4.86
256.573	4.86
256.948	4.95
257.323	4.97
257.698	4.99
258.073	4.78
258.448	4.72
258.823	4.59
259.198	4.27
259.573	4.38
259.948	4.25
260.322	4.27
260.697	4.1
261.072	3.93
261.446	4.04
261.821	4.12
262.195	3.95
262.57	3.9
262.944	3.8
263.319	3.93
263.693	3.9
264.067	3.82
264.442	3.75
264.816	3.64
265.19	3.46
265.564	3.6
265.938	3.45
266.313	3.5
266.687	3.65
267.061	3.91
267.435	3.77
267.809	3.74
268.183	3.66
268.556	3.82
268.93	4
269.304	3.93
269.678	4.05
270.051	3.94
270.425	3.97
270.799	4.04
271.172	3.86
271.546	3.85
271.919	3.8
272.293	3.72
272.666	3.75
273.04	3.86
273.413	3.76
273.787	3.85
274.16	3.85
274.533	3.75
274.906	3.74
275.279	3.61
275.653	3.6
276.026	3.61
276.399	3.61
276.772	3.61
277.145	3.69
277.518	3.63
277.891	3.67
278.263	3.68
278.636	3.57
279.009	3.71
279.382	4.03
279.755	3.96
280.127	4.17
280.5	4.22
280.872	4.35
281.245	4.34
281.617	4.43
281.99	4.47
282.362	4.57
282.735	4.45
283.107	4.54
283.479	4.46
283.852	4.35
284.224	4.31
284.596	4.2
284.968	4.11
285.34	4.11
285.713	4.21
286.085	4.23
286.457	4.44
286.829	4.43
287.201	4.24
287.572	4.18
287.944	4.03
288.316	4.04
288.688	4
289.06	4.04
289.431	4.06
289.803	4.08
290.175	4.1
290.546	4.18
290.918	4.11
291.289	4.18
291.661	4.42
292.032	4.4
292.403	4.41
292.775	4.53
293.146	4.54
293.517	4.53
293.889	4.6
294.26	4.43
294.631	4.45
295.002	4.38
295.373	4.72
295.744	4.78
296.115	4.74
296.486	4.6
296.857	4.67
297.228	4.63
297.599	4.57
297.97	4.49
298.34	4.67
298.711	4.85
299.082	4.85
299.452	4.79
299.823	4.83
300.194	4.93
300.564	4.8
300.935	4.93
301.305	4.97
301.676	4.98
302.046	5.07
302.416	5.2
302.787	5.33
303.157	5.23
303.527	5.23
303.897	5.43
304.267	5.79
304.637	5.87
305.008	6.05
305.378	6.22
305.748	6.38
306.117	6.22
306.487	6.31
306.857	6.44
307.227	6.5
307.597	6.63
307.967	6.7
308.336	6.88
308.706	6.91
309.076	6.95
309.445	6.97
309.815	7.04
310.184	6.98
310.554	7.14
310.923	7.1
311.293	7.23
311.662	7.17
312.031	7.05
312.401	7.07
312.77	7.06
313.139	7.12
313.508	7.16
313.877	7.27
314.246	7.24
314.616	7.2
314.985	7.25
315.353	7.31
315.722	7.39
316.091	7.36
316.46	7.37
316.829	7.49
317.198	7.64
317.567	7.68
317.935	7.73
318.304	7.67
318.672	7.74
319.041	7.8
319.41	7.91
319.778	8.06
320.147	8.06
320.515	8.27
320.883	8.18
321.252	8.44
321.62	8.62
321.988	8.51
322.357	8.71
322.725	8.73
323.093	8.76
323.461	8.69
323.829	8.77
324.197	8.87
324.565	8.83
324.933	8.73
325.301	8.68
325.669	8.76
326.037	8.87
326.405	8.99
326.772	9.05
327.14	9.16
327.508	9.03
327.875	9.07
328.243	9.01
328.61	9.19
328.978	9.11
329.346	9.1
329.713	9.03
330.08	9.03
330.448	9
330.815	8.96
331.182	9.14
331.55	9.16
331.917	9.21
332.284	9.29
332.651	9.39
333.018	9.64
333.385	9.6
333.752	9.59
334.119	9.63
334.486	9.64
334.853	9.59
335.22	9.87
335.587	10
335.954	10.07
336.32	10.06
336.687	10.15
337.054	10.13
337.42	10.41
337.787	10.48
338.153	10.58
338.52	10.65
338.886	10.58
339.253	10.63
339.619	10.64
339.986	10.67
340.352	10.71
340.718	10.62
341.084	10.78
341.451	10.83
341.817	10.94
342.183	10.92
342.549	10.92
342.915	10.93
343.281	10.92
343.647	10.84
344.013	10.9
344.379	10.8
344.745	10.81
345.11	10.75
345.476	10.8
345.842	10.91
346.208	10.94
346.573	11.1
346.939	11.18
347.304	11.16
347.67	11.17
348.035	11.12
348.401	11.15
348.766	11.11
349.132	11.11
349.497	11.05
349.862	11.08
350.228	11.14
350.593	11.01
350.958	11.01
351.323	11.09
351.688	11.03
352.053	11.09
352.418	11.08
352.783	11.06
353.148	10.93
353.513	10.76
353.878	10.74
354.243	10.65
354.608	10.57
354.972	10.53
355.337	10.5
355.702	10.6
356.066	10.61
356.431	10.55
356.795	10.51
357.16	10.5
357.524	10.38
357.889	10.29
358.253	10.25
358.618	10.21
358.982	10.11
359.346	10.06
359.71	10
360.075	9.97
360.439	9.91
360.803	9.91
361.167	9.88
361.531	9.86
361.895	9.85
362.259	9.79
362.623	9.74
362.987	9.73
363.351	9.66
363.714	9.63
364.078	9.58
364.442	9.54
364.806	9.44
365.169	9.53
365.533	9.49
365.896	9.46
366.26	9.38
366.623	9.29
366.987	9.2
367.35	9.13
367.714	9.07
368.077	9.08
368.44	9.06
368.803	9.06
369.167	8.95
369.53	8.85
369.893	8.87
370.256	8.85
370.619	8.75
370.982	8.66
371.345	8.52
371.708	8.44
372.071	8.4
372.434	8.35
372.797	8.18
373.159	8.06
373.522	7.98
373.885	7.97
374.247	7.98
374.61	7.96
374.973	7.91
375.335	7.81
375.698	7.76
376.06	7.62
376.423	7.54
376.785	7.54
377.147	7.48
377.51	7.36
377.872	7.36
378.234	7.29
378.596	7.24
378.958	7.24
379.321	7.24
379.683	7.22
380.045	7.24
380.407	7.21
380.769	7.22
381.13	7.14
381.492	7.02
381.854	6.96
382.216	6.92
382.578	6.88
382.939	6.83
383.301	6.76
383.663	6.75
384.024	6.67
384.386	6.57
384.747	6.52
385.109	6.47
385.47	6.32
385.832	6.29
386.193	6.28
386.554	6.24
386.916	6.15
387.277	6.13
387.638	6.08
387.999	6.04
388.36	6.01
388.721	6
389.082	5.99
389.443	5.9
389.804	5.83
390.165	5.73
390.526	5.69
390.887	5.61
391.248	5.58
391.609	5.57
391.969	5.56
392.33	5.5
392.691	5.46
393.051	5.41
393.412	5.37
393.772	5.26
394.133	5.2
394.493	5.19
394.854	5.13
395.214	5.07
395.574	5
395.935	4.92
396.295	4.88
396.655	4.86
397.015	4.84
397.376	4.81
397.736	4.84
398.096	4.82
398.456	4.81
398.816	4.75
399.176	4.66
399.535	4.58
399.895	4.56
400.255	4.52
400.615	4.5
400.975	4.46
401.334	4.44
401.694	4.42
402.054	4.36
402.413	4.32
402.773	4.27
403.132	4.26
403.492	4.24
403.851	4.21
404.211	4.17
404.57	4.14
404.929	4.13
405.288	4.08
405.648	4.01
406.007	3.98
406.366	3.96
406.725	4
407.084	3.98
407.443	3.98
407.802	3.99
408.161	3.97
408.52	3.94
408.879	3.96
409.238	3.93
409.596	3.91
409.955	3.91
410.314	3.9
410.673	3.88
411.031	3.85
411.39	3.85
411.748	3.83
412.107	3.84
412.465	3.81
412.824	3.81
413.182	3.83
413.54	3.83
413.899	3.82
414.257	3.81
414.615	3.79
414.974	3.77
415.332	3.76
415.69	3.76
416.048	3.74
416.406	3.72
416.764	3.69
417.122	3.68
417.48	3.65
417.838	3.65
418.195	3.65
418.553	3.65
418.911	3.61
419.269	3.61
419.626	3.57
419.984	3.57
420.342	3.55
420.699	3.53
421.057	3.53
421.414	3.51
421.772	3.48
422.129	3.48
422.486	3.47
422.844	3.45
423.201	3.44
423.558	3.44
423.915	3.42
424.273	3.43
424.63	3.42
424.987	3.4
425.344	3.38
425.701	3.36
426.058	3.34
426.415	3.34
426.772	3.34
427.128	3.36
427.485	3.34
427.842	3.33
428.199	3.33
428.555	3.29
428.912	3.31
429.269	3.32
429.625	3.29
429.982	3.27
430.338	3.27
430.695	3.27
431.051	3.26
431.407	3.25
431.764	3.23
432.12	3.22
432.476	3.22
432.832	3.2
433.189	3.21
433.545	3.22
433.901	3.21
434.257	3.19
434.613	3.19
434.969	3.16
435.325	3.15
435.681	3.16
436.036	3.18
436.392	3.17
436.748	3.16
437.104	3.16
437.459	3.15
437.815	3.14
438.171	3.14
438.526	3.14
438.882	3.15
439.237	3.17
439.593	3.17
439.948	3.17
440.304	3.17
440.659	3.16
441.014	3.16
441.369	3.16
441.725	3.14
442.08	3.13
442.435	3.15
442.79	3.17
443.145	3.14
443.5	3.13
443.855	3.12
444.21	3.11
444.565	3.12
444.92	3.14
445.275	3.13
445.629	3.11
445.984	3.1
446.339	3.09
446.693	3.08
447.048	3.07
447.403	3.07
447.757	3.05
448.112	3.04
448.466	3.04
448.82	3.04
449.175	3.06
449.529	3.05
449.883	3.02
450.238	2.99
450.592	3
450.946	2.99
451.3	3
451.654	3
452.008	3
452.362	2.98
452.716	2.97
453.07	2.98
453.424	2.96
453.778	2.96
454.132	2.96
454.486	2.94
454.839	2.92
455.193	2.93
455.547	2.95
455.9	2.93
456.254	2.92
456.607	2.91
456.961	2.93
457.314	2.95
457.668	2.94
458.021	2.94
458.375	2.95
458.728	2.94
459.081	2.93
459.434	2.92
459.787	2.91
460.141	2.92
460.494	2.94
460.847	2.95
461.2	2.95
461.553	2.95
461.906	2.98
462.259	2.99
462.611	3
462.964	3
463.317	3.03
463.67	3.02
464.022	3.03
464.375	3.03
464.728	3.03
465.08	3.05
465.433	3.05
465.785	3.05
466.138	3.06
466.49	3.07
466.843	3.08
467.195	3.08
467.547	3.08
467.899	3.08
468.252	3.08
468.604	3.12
468.956	3.14
469.308	3.13
469.66	3.15
470.012	3.17
470.364	3.19
470.716	3.19
471.068	3.21
471.42	3.22
471.772	3.23
472.123	3.24
472.475	3.26
472.827	3.27
473.178	3.29
473.53	3.29
473.882	3.29
474.233	3.32
474.585	3.34
474.936	3.32
475.288	3.33
475.639	3.32
475.99	3.32
476.342	3.33
476.693	3.32
477.044	3.31
477.395	3.3
477.746	3.29
478.097	3.28
478.448	3.27
478.8	3.28
479.15	3.26
479.501	3.24
479.852	3.22
480.203	3.22
480.554	3.21
480.905	3.22
481.255	3.21
481.606	3.21
481.957	3.2
482.307	3.19
482.658	3.19
483.009	3.19
483.359	3.18
483.709	3.18
484.06	3.18
484.41	3.18
484.761	3.17
485.111	3.18
485.461	3.18
485.811	3.18
486.162	3.17
486.512	3.18
486.862	3.19
487.212	3.18
487.562	3.18
487.912	3.18
488.262	3.18
488.612	3.18
488.961	3.18
489.311	3.19
489.661	3.2
490.011	3.2
490.36	3.2
490.71	3.2
491.06	3.2
491.409	3.2
491.759	3.21
492.108	3.21
492.458	3.21
492.807	3.22
493.157	3.23
493.506	3.24
493.855	3.25
494.204	3.26
494.554	3.27
494.903	3.28
495.252	3.29
495.601	3.31
495.95	3.32
496.299	3.33
496.648	3.34
496.997	3.36
497.346	3.38
497.695	3.4
498.043	3.44
498.392	3.46
498.741	3.5
499.09	3.52
499.438	3.54
499.787	3.56
500.135	3.6
500.484	3.63
500.832	3.64
501.181	3.67
501.529	3.69
501.878	3.76
502.226	3.82
502.574	3.82
502.923	3.86
503.271	3.91
503.619	3.95
503.967	4
504.315	4.03
504.663	4.07
505.011	4.14
505.359	4.18
505.707	4.22
506.055	4.24
506.403	4.31
506.751	4.38
507.098	4.44
507.446	4.49
507.794	4.54
508.141	4.62
508.489	4.68
508.837	4.74
509.184	4.79
509.531	4.85
509.879	4.95
510.226	5.01
510.574	5.08
510.921	5.16
511.268	5.23
511.616	5.3
511.963	5.37
512.31	5.43
512.657	5.5
513.004	5.59
513.351	5.71
513.698	5.79
514.045	5.85
514.392	5.93
514.739	6.01
515.086	6.08
515.432	6.15
515.779	6.21
516.126	6.29
516.473	6.39
516.819	6.45
517.166	6.52
517.512	6.57
517.859	6.63
518.205	6.68
518.552	6.75
518.898	6.82
519.245	6.88
519.591	6.93
519.937	6.96
520.283	7.04
520.629	7.11
520.976	7.17
521.322	7.27
521.668	7.37
522.014	7.46
522.36	7.56
522.706	7.67
523.052	7.78
523.398	7.89
523.743	8
524.089	8.13
524.435	8.22
524.781	8.34
525.126	8.44
525.472	8.53
525.817	8.62
526.163	8.7
526.509	8.79
526.854	8.88
527.199	8.96
527.545	9.01
527.89	9.07
528.235	9.14
528.581	9.22
528.926	9.29
529.271	9.36
529.616	9.43
529.961	9.52
530.306	9.59
530.651	9.68
530.996	9.76
531.341	9.85
531.686	9.97
532.031	10.07
532.376	10.17
532.721	10.27
533.065	10.37
533.41	10.49
533.755	10.61
534.099	10.74
534.444	10.86
534.788	10.99
535.133	11.12
535.477	11.28
535.822	11.41
536.166	11.54
536.51	11.7
536.855	11.9
537.199	12.07
537.543	12.25
537.887	12.44
538.231	12.62
538.576	12.81
538.92	12.99
539.264	13.15
539.608	13.36
539.951	13.53
540.295	13.71
540.639	13.87
540.983	14.01
541.327	14.15
541.671	14.33
542.014	14.52
542.358	14.68
542.701	14.85
543.045	15.01
543.389	15.18
543.732	15.37
544.075	15.52
544.419	15.7
544.762	15.9
545.105	16.1
545.449	16.32
545.792	16.54
546.135	16.77
546.478	17.03
546.821	17.25
547.165	17.51
547.508	17.82
547.851	18.1
548.194	18.38
548.536	18.69
548.879	18.97
549.222	19.23
549.565	19.56
549.908	19.82
550.25	20.15
550.593	20.49
550.936	20.76
551.278	21.13
551.621	21.49
551.963	21.89
552.306	22.17
552.648	22.5
552.991	22.84
553.333	23.16
553.675	23.44
554.017	23.79
554.36	24.11
554.702	24.37
555.044	24.69
555.386	25.04
555.728	25.36
556.07	25.72
556.412	26.06
556.754	26.35
557.096	26.67
557.438	27.03
557.78	27.36
558.121	27.72
558.463	28.02
558.805	28.34
559.147	28.61
559.488	28.97
559.83	29.28
560.171	29.55
560.513	29.89
560.854	30.22
561.196	30.58
561.537	30.95
561.878	31.31
562.22	31.62
562.561	31.94
562.902	32.22
563.243	32.5
563.584	32.78
563.925	33.09
564.266	33.4
564.607	33.71
564.948	34.01
565.289	34.25
565.63	34.57
565.971	34.79
566.312	35.06
566.653	35.36
566.993	35.64
567.334	35.9
567.675	36.17
568.015	36.45
568.356	36.66
568.696	36.94
569.037	37.18
569.377	37.44
569.718	37.68
570.058	37.97
570.398	38.24
570.739	38.52
571.079	38.79
571.419	39.04
571.759	39.29
572.099	39.52
572.439	39.8
572.779	39.98
573.119	40.26
573.459	40.5
573.799	40.69
574.139	40.9
574.479	41.15
574.819	41.35
575.158	41.58
575.498	41.82
575.838	42.04
576.177	42.25
576.517	42.49
576.856	42.72
577.196	42.96
577.535	43.13
577.875	43.35
578.214	43.55
578.553	43.85
578.893	43.99
579.232	44.21
579.571	44.43
579.91	44.69
580.25	44.85
580.589	45.01
580.928	45.25
581.267	45.39
581.606	45.51
581.945	45.71
582.283	45.81
582.622	46
582.961	46.11
583.3	46.32
583.639	46.46
583.977	46.61
584.316	46.72
584.654	46.87
584.993	47.06
585.332	47.16
585.67	47.23
586.008	47.34
586.347	47.44
586.685	47.56
587.024	47.71
587.362	47.83
587.7	47.99
588.038	48.07
588.376	48.28
588.715	48.44
589.053	48.6
589.391	48.8
589.729	48.89
590.067	49.04
590.404	49.12
590.742	49.22
591.08	49.3
591.418	49.43
591.756	49.62
592.093	49.67
592.431	49.81
592.769	49.96
593.106	50.13
593.444	50.25
593.781	50.4
594.119	50.51
594.456	50.64
594.793	50.73
595.131	50.78
595.468	50.85
595.805	50.96
596.143	51.05
596.48	51.12
596.817	51.21
597.154	51.24
597.491	51.27
597.828	51.33
598.165	51.42
598.502	51.45
598.839	51.51
599.176	51.63
599.512	51.72
599.849	51.84
600.186	51.95
600.523	52.09
600.859	52.18
601.196	52.3
601.532	52.3
601.869	52.41
602.205	52.57
602.542	52.61
602.878	52.73
603.215	52.73
603.551	52.75
603.887	52.8
604.223	52.86
604.56	52.94
604.896	53.03
605.232	53.14
605.568	53.23
605.904	53.33
606.24	53.42
606.576	53.47
606.912	53.47
607.248	53.47
607.583	53.47
607.919	53.51
608.255	53.45
608.591	53.6
608.926	53.62
609.262	53.72
609.597	53.79
609.933	53.81
610.268	53.89
610.604	54.02
610.939	54.05
611.275	54.16
611.61	54.25
611.945	54.29
612.281	54.3
612.616	54.33
612.951	54.29
613.286	54.31
613.621	54.45
613.956	54.49
614.291	54.6
614.626	54.64
614.961	54.67
615.296	54.69
615.631	54.73
615.966	54.74
616.3	54.71
616.635	54.77
616.97	54.76
617.304	54.82
617.639	54.8
617.973	54.79
618.308	54.78
618.642	54.77
618.977	54.77
619.311	54.77
619.646	54.89
619.98	54.89
620.314	54.89
620.648	54.89
620.983	54.92
621.317	54.96
621.651	55.01
621.985	55.01
622.319	55.15
622.653	55.24
622.987	55.33
623.321	55.45
623.655	55.49
623.988	55.55
624.322	55.6
624.656	55.69
624.99	55.74
625.323	55.83
625.657	55.92
625.99	56
626.324	56.09
626.657	56.1
626.991	56.17
627.324	56.19
627.658	56.19
627.991	56.27
628.324	56.3
628.657	56.29
628.991	56.32
629.324	56.37
629.657	56.32
629.99	56.34
630.323	56.25
630.656	56.28
630.989	56.33
631.322	56.3
631.655	56.31
631.987	56.35
632.32	56.32
632.653	56.32
632.986	56.36
633.318	56.34
633.651	56.27
633.984	56.33
634.316	56.36
634.649	56.43
634.981	56.41
635.313	56.38
635.646	56.39
635.978	56.43
636.31	56.44
636.643	56.4
636.975	56.4
637.307	56.59
637.639	56.63
637.971	56.6
638.303	56.71
638.635	56.64
638.967	56.75
639.299	56.84
639.631	56.76
639.963	56.77
640.295	56.87
640.626	56.89
640.958	56.85
641.29	56.91
641.621	56.93
641.953	56.97
642.285	56.98
642.616	57.11
642.948	57.11
643.279	57.07
643.61	57.17
643.942	57.12
644.273	57.11
644.604	57.05
644.936	57.11
645.267	57
645.598	57.15
645.929	57.09
646.26	57.1
646.591	57.18
646.922	57.19
647.253	57.14
647.584	57.21
647.915	57.25
648.245	57.28
648.576	57.29
648.907	57.23
649.238	57.29
649.568	57.24
649.899	57.3
650.229	57.46
650.56	57.46
650.89	57.57
651.221	57.45
651.551	57.48
651.882	57.4
652.212	57.49
652.542	57.43
652.872	57.39
653.203	57.47
653.533	57.5
653.863	57.57
654.193	57.61
654.523	57.61
654.853	57.55
655.183	57.48
655.513	57.41
655.843	57.45
656.172	57.44
656.502	57.54
656.832	57.52
657.162	57.49
657.491	57.48
657.821	57.46
658.15	57.48
658.48	57.51
658.809	57.59
659.139	57.67
659.468	57.76
659.798	57.82
660.127	57.84
660.456	57.86
660.785	57.72
661.115	57.7
661.444	57.79
661.773	57.86
662.102	57.85
662.431	58
662.76	58.02
663.089	58.04
663.418	58.06
663.747	57.98
664.076	57.95
664.404	57.98
664.733	57.99
665.062	58.15
665.39	58.19
665.719	58.23
666.048	58.07
666.376	57.88
666.705	57.87
667.033	57.87
667.362	57.89
667.69	58.1
668.018	58.1
668.347	58.07
668.675	58.11
669.003	58.21
669.331	58.13
669.659	58.12
669.987	58.04
670.315	58.03
670.643	58.14
670.971	58.19
671.299	58.11
671.627	58.01
671.955	58
672.283	58.05
672.61	57.94
672.938	57.96
673.266	58.1
673.593	58.11
673.921	58.02
674.249	57.92
674.576	57.77
674.904	57.77
675.231	57.73
675.558	57.75
675.886	57.77
676.213	57.81
676.54	57.86
676.867	57.96
677.195	57.84
677.522	57.75
677.849	57.73
678.176	57.85
678.503	57.93
678.83	57.92
679.157	57.77
679.484	57.83
679.81	57.9
680.137	57.8
680.464	57.75
680.791	57.8
681.117	57.94
681.444	57.96
681.771	58
682.097	58.02
682.424	57.97
682.75	58
683.077	57.86
683.403	57.95
683.729	57.86
684.056	57.97
684.382	58.16
684.708	58.19
685.034	58.1
685.36	58.1
685.686	58.09
686.012	58.04
686.339	58.06
686.664	57.97
686.99	58.07
687.316	58.13
687.642	58.17
687.968	58.09
688.294	58.06
688.619	58.05
688.945	58.04
689.271	58.1
689.596	57.98
689.922	58.05
690.247	57.89
690.573	58.1
690.898	58.09
691.224	58.06
691.549	58.06
691.874	58.13
692.2	58.24
692.525	58.13
692.85	58.25
693.175	58.3
693.5	58.45
693.825	58.4
694.15	58.29
694.475	58.19
694.8	58.3
695.125	58.43
695.45	58.5
695.775	58.48
696.099	58.42
696.424	58.39
696.749	58.35
697.073	58.41
697.398	58.42
697.723	58.42
698.047	58.44
698.372	58.35
698.696	58.3
699.02	58.13
699.345	58.19
699.669	58.17
699.993	58.15
700.318	58.15
700.642	58.11
700.966	58.22
701.29	58.2
701.614	58.21
701.938	58.2
702.262	58.15
702.586	58.22
702.91	58.32
703.234	58.47
703.557	58.74
703.881	58.77
704.205	58.63
704.529	58.52
704.852	58.33
705.176	58.43
705.499	58.53
705.823	58.72
706.146	58.62
706.47	58.5
706.793	58.23
707.117	58.19
707.44	58.3
707.763	58.25
708.086	58.07
708.409	58.1
708.733	58.1
709.056	58.11
709.379	58.16
709.702	58.14
710.025	58.1
710.348	57.8
710.671	57.65
710.993	57.49
711.316	57.72
711.639	57.83
711.962	57.95
712.284	57.8
712.607	57.72
712.93	57.69
713.252	57.75
713.575	57.82
713.897	57.85
714.22	57.76
714.542	57.88
714.864	58.01
715.187	57.82
715.509	57.78
715.831	57.9
716.153	57.88
716.475	57.87
716.798	57.92
717.12	58.13
717.442	58.2
717.764	58.41
718.085	58.12
718.407	58.14
718.729	58.08
719.051	58.27
719.373	58.24
719.695	58.07
720.016	58.07
720.338	58.21
720.659	58
720.981	57.97
721.302	57.92
721.624	58.11
721.945	58.43
722.267	58.32
722.588	58.08
722.909	58.07
723.231	57.98
723.552	57.82
723.873	57.74
724.194	57.78
724.515	57.79
724.836	58.09
725.157	58.26
725.478	58.13
725.799	58.21
726.12	58.22
726.441	58.51
726.762	58.53
727.083	58.56
727.403	58.53
727.724	58.56
728.045	58.53
728.365	58.47
728.686	58.24
729.006	58.23
729.327	58.28
729.647	58.14
729.967	58.24
730.288	58.34
730.608	58.14
730.928	58.1
731.249	58.03
731.569	57.75
731.889	57.64
732.209	57.74
732.529	57.81
732.849	57.91
733.169	57.86
733.489	57.87
733.809	57.92
734.129	58.14
734.448	58.24
734.768	58.33
735.088	58.24
735.408	58.25
735.727	58.48
736.047	58.42
736.366	58.67
736.686	58.47
737.005	58.52
737.325	58.59
737.644	58.58
737.963	58.59
738.283	58.69
738.602	58.33
738.921	58.25
739.24	57.89
739.56	57.68
739.879	57.77
740.198	57.87
740.517	57.84
740.836	57.84
741.155	57.87
741.473	57.77
741.792	57.7
742.111	57.46
742.43	57.23
742.748	57.34
743.067	56.9
743.386	57.06
743.704	56.84
744.023	57.28
744.341	57.3
744.66	57.54
744.978	57.72
745.297	57.92
745.615	57.68
745.933	57.7
746.252	58.08
746.57	58.04
746.888	58.01
747.206	57.98
747.524	58.35
747.842	58.2
748.16	58.1
748.478	58.13
748.796	58.15
749.114	58.44
749.432	58.4
749.749	58.73
750.067	58.57
750.385	58.59
750.703	58.45
751.02	58.26
751.338	58.4
751.655	58.31
751.973	58.77
752.29	59.16
752.608	59.39
752.925	59.26
753.242	59.3
753.56	59.01
753.877	58.9
754.194	58.52
754.511	58.74
754.828	58.69
755.145	58.8
755.462	59.24
755.779	59.18
756.096	59.16
756.413	59.06
756.73	58.97
757.047	59.02
757.364	58.99
757.68	59.2
757.997	58.76
758.314	58.75
758.63	58.43
758.947	58.24
759.264	58.16
759.58	57.93
759.896	58.05
760.213	58.49
760.529	58.71
760.846	58.47
761.162	58.13
761.478	58.44
761.794	58.45
762.11	58.19
762.426	58.1
762.743	58.05
763.059	58.2
763.375	58.33
763.69	58.28
764.006	58.09
764.322	57.97
764.638	58.11
764.954	58.18
765.27	58.27
765.585	58.35
765.901	58.36
766.216	58.65
766.532	58.49
766.848	58.25
767.163	58.16
767.478	58.39
767.794	58.53
768.109	58.19
768.424	58.28
768.74	58.56
769.055	58.72
769.37	58.79
769.685	58.54
770	58.67
770.315	59.01
770.63	59.46
770.945	59.71
771.26	59.96
771.575	59.94
771.89	59.8
772.205	59.63
772.52	59.94
772.834	59.7
773.149	60.05
773.464	60.04
773.778	59.75
774.093	59.53
774.407	59.79
774.722	59.95
775.036	59.94
775.351	59.59
775.665	59.46
775.979	59.21
776.293	59.72
776.608	59.6
776.922	59.06
777.236	58.98
777.55	58.99
777.864	58.51
778.178	58.62
778.492	58.67
778.806	58.86
779.12	58.64
779.434	58.62
779.747	58.27
780.061	58.53
780.375	59.16
780.689	59.21
781.002	59.2
781.316	59.07
781.629	58.88
781.943	59.28
782.256	59.44
782.57	59.82
782.883	59.46
783.196	59.47
783.51	59.55
783.823	59.31
784.136	59.47
784.449	59.86
784.762	59.55
785.075	59.64
785.388	59.63
785.701	59.8
786.014	59.91
786.327	60.12
786.64	60.34
786.953	60.32
787.266	60.13
787.578	59.61
787.891	59.82
788.204	59.93
788.516	60.1
788.829	60.08
789.141	60.36
789.454	60.35
789.766	60.14
790.079	60.4
790.391	60.12
790.703	60.04
791.016	59.65
791.328	59.73
791.64	59.96
791.952	60.14
792.264	60.02
792.576	59.75
792.888	59.54
793.2	59.63
793.512	59.14
793.824	59.85
794.136	60.13
794.448	60.16
794.76	60.42
795.071	59.64
795.383	59.39
795.695	58.97
796.006	58.8
796.318	59.1
796.629	59.4
796.941	59.97
797.252	59.63
797.564	60.08
797.875	60.4
798.186	60.19
798.497	59.97
798.809	59.79
799.12	60.09
799.431	60.34
799.742	60.07
800.053	60.57
800.364	60.42
800.675	61
800.986	60.69
801.297	60.27
801.608	60.7
801.918	60.78
802.229	60.62
802.54	60.78
802.851	60.78
803.161	60.35
803.472	59.68
803.782	60.1
804.093	60.42
804.403	60.54
804.714	60.48
805.024	60.6
805.334	60.51
805.645	61.01
805.955	60.99
806.265	61.17
806.575	61.18
806.885	61.23
807.195	60.66
807.505	61.04
807.815	61.5
808.125	60.82
808.435	60.57
808.745	60.84
809.055	61.16
809.365	61.16
809.674	61.3
809.984	61.55
810.294	61.18
810.603	60.95
810.913	61.25
811.222	60.76
811.532	60.66
811.841	61.15
812.151	60.97
812.46	61.43
812.769	61.52
813.079	61.08
813.388	60.45
813.697	60.74
814.006	60.34
814.315	60.55
814.624	60.81
814.933	61.29
815.242	61.84
815.551	61.1
815.86	61.04
816.169	60.85
816.478	60.23
816.786	60.16
817.095	60.45
817.404	59.85
817.712	59.91
818.021	59.71
818.33	59.71
818.638	58.94
818.947	58.65
819.255	58.32
819.563	58.59
819.872	58.56
820.18	58.29
820.488	58.77
820.796	58.39
821.105	58.41
821.413	58.15
821.721	58.04
822.029	58.45
822.337	58.62
822.645	58.53
822.953	58.81
823.26	58.99
823.568	58.98
823.876	59.16
824.184	59.12
824.491	59.23
824.799	59.08
825.107	59.14
825.414	59
825.722	59.17
826.029	59.28
826.337	59.44
826.644	59.78
826.951	59.58
827.259	59.87
827.566	60.07
827.873	60.35
828.18	60.27
828.488	60.19
828.795	60.09
829.102	60.46
829.409	60.39
829.716	60.25
830.023	60.11
830.329	59.81
830.636	60.06
830.943	60.11
831.25	60.22
831.557	60.45
831.863	61.07
832.17	60.46
832.476	59.94
832.783	60.12
833.089	59.72
833.396	60.01
833.702	59.88
834.009	59.65
834.315	59.6
834.621	59.59
834.928	59.24
835.234	59.01
835.54	58.55
835.846	58.54
836.152	58.64
836.458	58.64
836.764	58.69
837.07	58.92
837.376	58.87
837.682	58.77
837.988	58.81
838.293	58.53
838.599	59.1
838.905	58.91
839.211	58.13
839.516	57.62
839.822	57.85
840.127	57.48
840.433	57.59
840.738	56.8
841.044	56.83
841.349	56.88
841.654	57.45
841.959	58.51
842.265	58.99
842.57	59.49
842.875	59.58
843.18	60.25
843.485	59.36
843.79	60.05
844.095	60.16
844.4	61.09
844.705	60
845.01	58.78
845.315	59.84
845.619	60.24
845.924	61.87
846.229	60.5
846.533	60.81
846.838	60.46
847.142	61.32
847.447	62.53
847.751	61.11
848.056	60.5
848.36	58.81
848.664	58.35
848.969	57.96
849.273	56.97
849.577	55.52
849.881	57.95
850.185	57.4
850.489	59.52
850.794	57.54
851.097	57.35
851.401	58.38
851.705	57.54
852.009	56.59
852.313	53.77
852.617	54.02
852.92	54.95
853.224	55.7
853.528	54.7
853.831	55.27
854.135	57.66
854.438	57.63
854.742	57.76
855.045	57.14
855.349	55.49
855.652	56.44
855.955	55.44
856.259	54.47
856.562	54.12
856.865	52.08
857.168	52.86
857.471	53.72
857.774	54.68
858.077	54.52
858.38	56.19
858.683	60.66
858.986	61.45
859.289	61.15
859.592	61
859.894	63.84
860.197	63.44
860.5	62.35
860.802	62.47
861.105	63.47
861.407	63.28
861.71	65.24
862.012	65.26
862.315	68.03
862.617	68.52
862.919	68.15
863.222	67.63
863.524	66.98
863.826	69.11
864.128	67.53
864.43	67.66
864.732	70.14
865.034	68.27
865.336	68.28
865.638	65.9
865.94	67.17
866.242	64.7
866.544	64.61
866.846	64.06
867.147	62.96
867.449	63.16
867.751	63.71
868.052	62.49
868.354	61.07
868.655	59.31
868.957	57.23
869.258	56.51
869.56	58.57
869.861	58.11
870.162	56.86
870.463	58.11
870.765	57.85
871.066	55.57
871.367	53.73
871.668	52.18
871.969	53.89
872.27	53.11
872.571	56.06
872.872	54.57
873.173	55.1
873.473	56.64
873.774	56.55
874.075	56.37
874.376	56.11
874.676	56.97
874.977	55.16
875.277	56.65
875.578	59.07
875.878	57.33
876.179	57.59
876.479	56.59
876.78	56.39
877.08	58.58
877.38	58.07
877.68	58.96
877.981	62.05
878.281	61.22
878.581	60.05
