Data from BU58127_Reflection_00002.txt Node
Date: Mon Nov 18 16:44:04 EST 2019
User: vgr7
Spectrometer: USB2G7710
Scans to average: 3
Trigger mode: 4
Integration Time (sec): 2.000000E-2
Electric dark correction enabled: true
Boxcar width: 10
XAxis mode: Wavelengths
Number of Pixels in Spectrum: 2048
>>>>>Begin Spectral Data<<<<<
177.721	-305.8
178.105	29.58
178.488	-42.49
178.871	60.14
179.254	190.23
179.636	204.17
180.019	-1.78
180.402	55
180.785	505.8
181.168	988.89
181.55	-185.71
181.933	39.73
182.316	39.82
182.698	11.26
183.081	-24.59
183.463	-153.39
183.846	-280.95
184.228	-390.8
184.611	-166.67
184.993	-869.7
185.376	-383.52
185.758	2100
186.14	139.22
186.522	25.93
186.904	73.61
187.287	145.63
187.669	-690.7
188.051	137.27
188.433	2766.67
188.815	-139.63
189.197	-358.72
189.579	-102.53
189.961	-76.37
190.342	-120.44
190.724	-152.59
191.106	-168.76
191.488	-214.93
191.869	-182.99
192.251	-231.49
192.633	-130.13
193.014	-145.88
193.396	-194.21
193.777	-250.09
194.159	-189.52
194.54	-123.67
194.922	-76.03
195.303	-78.38
195.684	-66.09
196.065	-35.26
196.447	-26.73
196.828	-34.96
197.209	-25.45
197.59	-24.16
197.971	-43.21
198.352	-14.98
198.733	-16.83
199.114	2.15
199.495	5.63
199.876	15.81
200.257	10.84
200.638	4.91
201.018	3.47
201.399	5.37
201.78	19.04
202.16	16.63
202.541	-0.05
202.922	-13.6
203.302	-29.49
203.683	-37.77
204.063	-59.26
204.444	-46.19
204.824	-50.23
205.204	-50.68
205.585	-46.37
205.965	-39.84
206.345	-45.57
206.725	-36.66
207.106	-50.88
207.486	-75.75
207.866	-77.06
208.246	-52.66
208.626	-66.3
209.006	-44.65
209.386	-55.16
209.766	-74.94
210.145	-77.16
210.525	-47
210.905	-36.45
211.285	-19.88
211.664	-19.22
212.044	-8.74
212.424	-33.54
212.803	-30.4
213.183	-37.61
213.562	-43.88
213.942	-25.44
214.321	-36.08
214.701	-53.41
215.08	-64.1
215.459	-39.11
215.838	-46.96
216.218	-81.82
216.597	-47.25
216.976	-58
217.355	-58.89
217.734	-39.17
218.113	-51.95
218.492	-46.84
218.871	-55.35
219.25	-49.64
219.629	-35.93
220.008	-38.81
220.387	-21.59
220.766	-22.03
221.144	-32.9
221.523	-34.45
221.902	-47.38
222.28	-45.11
222.659	-35.67
223.037	-30.74
223.416	-40.58
223.794	-46.44
224.173	-35.19
224.551	-37.75
224.929	-38.62
225.308	-35.36
225.686	-34.68
226.064	-22.82
226.442	-24.91
226.821	-21
227.199	-19.68
227.577	-21.56
227.955	-17.96
228.333	-19.68
228.711	-17.25
229.089	-8.2
229.467	-11.54
229.845	-12.12
230.222	-12.09
230.6	-11.51
230.978	-11.77
231.356	-7.61
231.733	-4.73
232.111	-4.3
232.488	-2.69
232.866	-0.68
233.243	2.88
233.621	3.25
233.998	3.18
234.376	2.6
234.753	1.99
235.13	2.71
235.508	2.78
235.885	2.55
236.262	4.12
236.639	3.49
237.016	2.4
237.393	5.24
237.77	6.84
238.147	7.31
238.524	7.05
238.901	7.68
239.278	6.53
239.655	6.07
240.032	6.68
240.409	6.25
240.785	6.13
241.162	5.76
241.539	5.58
241.915	5.67
242.292	5.35
242.668	5.27
243.045	5.07
243.421	4.92
243.798	4.59
244.174	4.43
244.551	4.63
244.927	4.38
245.303	4.29
245.679	4.25
246.056	4.24
246.432	4.22
246.808	4.04
247.184	3.68
247.56	3.54
247.936	3.5
248.312	3.51
248.688	3.46
249.064	3.31
249.44	3.08
249.815	2.87
250.191	3.06
250.567	3.1
250.943	2.98
251.318	3.15
251.694	3.3
252.069	3.06
252.445	3.02
252.82	2.96
253.196	2.79
253.571	2.59
253.947	2.36
254.322	2.67
254.697	2.69
255.073	2.83
255.448	2.76
255.823	2.67
256.198	2.72
256.573	2.98
256.948	3.09
257.323	3.35
257.698	3.42
258.073	3.35
258.448	3.08
258.823	3.05
259.198	3.13
259.573	3.09
259.948	3.03
260.322	3.13
260.697	3.39
261.072	3.31
261.446	3.23
261.821	3.18
262.195	2.9
262.57	2.93
262.944	3.1
263.319	3.13
263.693	3.01
264.067	3.02
264.442	2.9
264.816	2.73
265.19	2.51
265.564	2.55
265.938	2.56
266.313	2.91
266.687	2.92
267.061	2.72
267.435	2.78
267.809	3.03
268.183	2.76
268.556	2.54
268.93	2.76
269.304	2.88
269.678	3
270.051	3.25
270.425	3.35
270.799	3.32
271.172	3.55
271.546	3.63
271.919	3.5
272.293	3.48
272.666	3.63
273.04	3.64
273.413	3.53
273.787	3.48
274.16	3.29
274.533	3.29
274.906	3.18
275.279	3.1
275.653	3.02
276.026	3.07
276.399	3.02
276.772	2.98
277.145	3
277.518	3.01
277.891	2.93
278.263	2.88
278.636	2.73
279.009	2.61
279.382	2.77
279.755	2.9
280.127	2.94
280.5	2.98
280.872	3.15
281.245	3.19
281.617	3.27
281.99	3.38
282.362	3.45
282.735	3.48
283.107	3.55
283.479	3.61
283.852	3.61
284.224	3.52
284.596	3.45
284.968	3.49
285.34	3.49
285.713	3.53
286.085	3.55
286.457	3.67
286.829	3.56
287.201	3.47
287.572	3.4
287.944	3.44
288.316	3.4
288.688	3.33
289.06	3.29
289.431	3.29
289.803	3.19
290.175	3.23
290.546	3.31
290.918	3.32
291.289	3.22
291.661	3.19
292.032	3.32
292.403	3.28
292.775	3.29
293.146	3.24
293.517	3.11
293.889	3.22
294.26	3.21
294.631	3.33
295.002	3.4
295.373	3.36
295.744	3.27
296.115	3.23
296.486	3.15
296.857	3.29
297.228	3.35
297.599	3.34
297.97	3.27
298.34	3.23
298.711	3.35
299.082	3.45
299.452	3.56
299.823	3.72
300.194	3.7
300.564	3.63
300.935	3.68
301.305	3.69
301.676	3.58
302.046	3.58
302.416	3.61
302.787	3.37
303.157	3.48
303.527	3.53
303.897	3.62
304.267	3.79
304.637	3.75
305.008	3.69
305.378	3.8
305.748	3.82
306.117	3.82
306.487	3.71
306.857	3.71
307.227	3.63
307.597	3.45
307.967	3.47
308.336	3.39
308.706	3.36
309.076	3.41
309.445	3.34
309.815	3.27
310.184	3.18
310.554	3.32
310.923	3.2
311.293	3.2
311.662	3.09
312.031	3
312.401	3.02
312.77	2.99
313.139	3.05
313.508	3.05
313.877	3.07
314.246	3.06
314.616	2.86
314.985	2.83
315.353	2.84
315.722	2.94
316.091	2.96
316.46	2.95
316.829	3.05
317.198	3.18
317.567	3.2
317.935	3.18
318.304	3.07
318.672	3.07
319.041	3.15
319.41	3.2
319.778	3.19
320.147	3.07
320.515	3.13
320.883	3
321.252	3.08
321.62	3.13
321.988	3.1
322.357	3.16
322.725	3.14
323.093	3.26
323.461	3.08
323.829	3.2
324.197	3.43
324.565	3.41
324.933	3.41
325.301	3.54
325.669	3.55
326.037	3.58
326.405	3.75
326.772	3.67
327.14	3.78
327.508	3.76
327.875	3.75
328.243	3.64
328.61	3.67
328.978	3.69
329.346	3.72
329.713	3.57
330.08	3.52
330.448	3.57
330.815	3.33
331.182	3.56
331.55	3.55
331.917	3.3
332.284	3.21
332.651	3.16
333.018	3.12
333.385	3.18
333.752	3.26
334.119	3.32
334.486	3.33
334.853	3.28
335.22	3.25
335.587	3.26
335.954	3.33
336.32	3.33
336.687	3.28
337.054	3.18
337.42	3.33
337.787	3.47
338.153	3.47
338.52	3.72
338.886	3.54
339.253	3.49
339.619	3.57
339.986	3.49
340.352	3.55
340.718	3.42
341.084	3.4
341.451	3.43
341.817	3.37
342.183	3.36
342.549	3.37
342.915	3.46
343.281	3.64
343.647	3.6
344.013	3.7
344.379	3.62
344.745	3.67
345.11	3.61
345.476	3.61
345.842	3.55
346.208	3.5
346.573	3.6
346.939	3.64
347.304	3.56
347.67	3.58
348.035	3.5
348.401	3.63
348.766	3.7
349.132	3.78
349.497	3.69
349.862	3.83
350.228	3.8
350.593	3.78
350.958	3.7
351.323	3.66
351.688	3.56
352.053	3.66
352.418	3.64
352.783	3.65
353.148	3.56
353.513	3.58
353.878	3.51
354.243	3.54
354.608	3.55
354.972	3.59
355.337	3.71
355.702	3.81
356.066	3.83
356.431	3.71
356.795	3.72
357.16	3.7
357.524	3.58
357.889	3.57
358.253	3.62
358.618	3.59
358.982	3.6
359.346	3.61
359.71	3.58
360.075	3.6
360.439	3.62
360.803	3.65
361.167	3.67
361.531	3.66
361.895	3.57
362.259	3.6
362.623	3.57
362.987	3.55
363.351	3.48
363.714	3.41
364.078	3.41
364.442	3.31
364.806	3.31
365.169	3.3
365.533	3.32
365.896	3.28
366.26	3.25
366.623	3.29
366.987	3.24
367.35	3.22
367.714	3.27
368.077	3.25
368.44	3.27
368.803	3.22
369.167	3.22
369.53	3.19
369.893	3.22
370.256	3.26
370.619	3.27
370.982	3.29
371.345	3.29
371.708	3.3
372.071	3.33
372.434	3.35
372.797	3.42
373.159	3.31
373.522	3.27
373.885	3.31
374.247	3.34
374.61	3.42
374.973	3.4
375.335	3.38
375.698	3.36
376.06	3.3
376.423	3.23
376.785	3.29
377.147	3.37
377.51	3.3
377.872	3.33
378.234	3.34
378.596	3.35
378.958	3.29
379.321	3.32
379.683	3.31
380.045	3.31
380.407	3.3
380.769	3.36
381.13	3.39
381.492	3.39
381.854	3.35
382.216	3.28
382.578	3.25
382.939	3.27
383.301	3.28
383.663	3.32
384.024	3.36
384.386	3.33
384.747	3.33
385.109	3.33
385.47	3.27
385.832	3.26
386.193	3.26
386.554	3.29
386.916	3.29
387.277	3.26
387.638	3.29
387.999	3.21
388.36	3.22
388.721	3.23
389.082	3.27
389.443	3.25
389.804	3.3
390.165	3.3
390.526	3.28
390.887	3.24
391.248	3.26
391.609	3.3
391.969	3.29
392.33	3.29
392.691	3.27
393.051	3.26
393.412	3.27
393.772	3.23
394.133	3.24
394.493	3.25
394.854	3.27
395.214	3.2
395.574	3.28
395.935	3.26
396.295	3.25
396.655	3.22
397.015	3.24
397.376	3.23
397.736	3.25
398.096	3.26
398.456	3.31
398.816	3.31
399.176	3.32
399.535	3.34
399.895	3.34
400.255	3.37
400.615	3.39
400.975	3.38
401.334	3.41
401.694	3.41
402.054	3.43
402.413	3.44
402.773	3.46
403.132	3.43
403.492	3.43
403.851	3.44
404.211	3.49
404.57	3.48
404.929	3.5
405.288	3.51
405.648	3.46
406.007	3.46
406.366	3.45
406.725	3.46
407.084	3.46
407.443	3.45
407.802	3.45
408.161	3.44
408.52	3.43
408.879	3.45
409.238	3.48
409.596	3.45
409.955	3.46
410.314	3.48
410.673	3.48
411.031	3.47
411.39	3.47
411.748	3.44
412.107	3.46
412.465	3.44
412.824	3.44
413.182	3.46
413.54	3.47
413.899	3.47
414.257	3.47
414.615	3.44
414.974	3.44
415.332	3.43
415.69	3.42
416.048	3.44
416.406	3.43
416.764	3.41
417.122	3.42
417.48	3.41
417.838	3.41
418.195	3.41
418.553	3.41
418.911	3.41
419.269	3.4
419.626	3.4
419.984	3.42
420.342	3.43
420.699	3.42
421.057	3.42
421.414	3.41
421.772	3.41
422.129	3.42
422.486	3.41
422.844	3.42
423.201	3.42
423.558	3.41
423.915	3.41
424.273	3.42
424.63	3.4
424.987	3.41
425.344	3.4
425.701	3.41
426.058	3.41
426.415	3.42
426.772	3.42
427.128	3.42
427.485	3.4
427.842	3.38
428.199	3.41
428.555	3.39
428.912	3.42
429.269	3.43
429.625	3.42
429.982	3.44
430.338	3.43
430.695	3.44
431.051	3.44
431.407	3.43
431.764	3.42
432.12	3.42
432.476	3.41
432.832	3.42
433.189	3.43
433.545	3.43
433.901	3.42
434.257	3.41
434.613	3.41
434.969	3.4
435.325	3.4
435.681	3.38
436.036	3.37
436.392	3.37
436.748	3.35
437.104	3.37
437.459	3.37
437.815	3.37
438.171	3.37
438.526	3.38
438.882	3.4
439.237	3.4
439.593	3.41
439.948	3.39
440.304	3.4
440.659	3.38
441.014	3.39
441.369	3.36
441.725	3.36
442.08	3.36
442.435	3.39
442.79	3.41
443.145	3.4
443.5	3.42
443.855	3.41
444.21	3.41
444.565	3.4
444.92	3.4
445.275	3.41
445.629	3.4
445.984	3.41
446.339	3.38
446.693	3.37
447.048	3.37
447.403	3.39
447.757	3.38
448.112	3.38
448.466	3.37
448.82	3.39
449.175	3.4
449.529	3.41
449.883	3.39
450.238	3.38
450.592	3.4
450.946	3.37
451.3	3.36
451.654	3.37
452.008	3.39
452.362	3.36
452.716	3.37
453.07	3.38
453.424	3.37
453.778	3.38
454.132	3.38
454.486	3.38
454.839	3.36
455.193	3.37
455.547	3.39
455.9	3.41
456.254	3.4
456.607	3.41
456.961	3.41
457.314	3.4
457.668	3.41
458.021	3.39
458.375	3.4
458.728	3.43
459.081	3.43
459.434	3.42
459.787	3.42
460.141	3.43
460.494	3.42
460.847	3.44
461.2	3.45
461.553	3.45
461.906	3.47
462.259	3.48
462.611	3.49
462.964	3.48
463.317	3.49
463.67	3.49
464.022	3.48
464.375	3.45
464.728	3.46
465.08	3.45
465.433	3.45
465.785	3.45
466.138	3.42
466.49	3.43
466.843	3.42
467.195	3.44
467.547	3.44
467.899	3.45
468.252	3.42
468.604	3.42
468.956	3.42
469.308	3.44
469.66	3.42
470.012	3.41
470.364	3.42
470.716	3.41
471.068	3.44
471.42	3.42
471.772	3.45
472.123	3.47
472.475	3.49
472.827	3.52
473.178	3.53
473.53	3.54
473.882	3.52
474.233	3.53
474.585	3.5
474.936	3.49
475.288	3.5
475.639	3.49
475.99	3.49
476.342	3.49
476.693	3.49
477.044	3.53
477.395	3.53
477.746	3.53
478.097	3.54
478.448	3.52
478.8	3.53
479.15	3.51
479.501	3.51
479.852	3.51
480.203	3.49
480.554	3.52
480.905	3.52
481.255	3.53
481.606	3.54
481.957	3.56
482.307	3.57
482.658	3.57
483.009	3.57
483.359	3.58
483.709	3.59
484.06	3.57
484.41	3.56
484.761	3.57
485.111	3.57
485.461	3.57
485.811	3.57
486.162	3.57
486.512	3.59
486.862	3.59
487.212	3.59
487.562	3.59
487.912	3.59
488.262	3.58
488.612	3.59
488.961	3.58
489.311	3.58
489.661	3.58
490.011	3.58
490.36	3.58
490.71	3.57
491.06	3.56
491.409	3.57
491.759	3.57
492.108	3.56
492.458	3.55
492.807	3.54
493.157	3.54
493.506	3.55
493.855	3.54
494.204	3.54
494.554	3.55
494.903	3.53
495.252	3.52
495.601	3.53
495.95	3.54
496.299	3.53
496.648	3.52
496.997	3.52
497.346	3.52
497.695	3.52
498.043	3.53
498.392	3.54
498.741	3.54
499.09	3.52
499.438	3.56
499.787	3.56
500.135	3.56
500.484	3.56
500.832	3.55
501.181	3.54
501.529	3.56
501.878	3.56
502.226	3.59
502.574	3.59
502.923	3.59
503.271	3.56
503.619	3.58
503.967	3.59
504.315	3.59
504.663	3.61
505.011	3.59
505.359	3.58
505.707	3.58
506.055	3.57
506.403	3.6
506.751	3.59
507.098	3.61
507.446	3.62
507.794	3.63
508.141	3.64
508.489	3.65
508.837	3.65
509.184	3.65
509.531	3.65
509.879	3.67
510.226	3.7
510.574	3.7
510.921	3.69
511.268	3.69
511.616	3.7
511.963	3.71
512.31	3.74
512.657	3.75
513.004	3.76
513.351	3.78
513.698	3.8
514.045	3.81
514.392	3.79
514.739	3.8
515.086	3.81
515.432	3.8
515.779	3.79
516.126	3.8
516.473	3.81
516.819	3.82
517.166	3.79
517.512	3.79
517.859	3.82
518.205	3.81
518.552	3.82
518.898	3.82
519.245	3.8
519.591	3.8
519.937	3.78
520.283	3.79
520.629	3.79
520.976	3.78
521.322	3.77
521.668	3.79
522.014	3.78
522.36	3.78
522.706	3.78
523.052	3.78
523.398	3.78
523.743	3.77
524.089	3.76
524.435	3.77
524.781	3.77
525.126	3.77
525.472	3.77
525.817	3.78
526.163	3.76
526.509	3.78
526.854	3.78
527.199	3.8
527.545	3.79
527.89	3.79
528.235	3.8
528.581	3.8
528.926	3.81
529.271	3.82
529.616	3.8
529.961	3.81
530.306	3.82
530.651	3.82
530.996	3.83
531.341	3.83
531.686	3.83
532.031	3.83
532.376	3.83
532.721	3.84
533.065	3.85
533.41	3.88
533.755	3.86
534.099	3.87
534.444	3.86
534.788	3.88
535.133	3.88
535.477	3.89
535.822	3.87
536.166	3.86
536.51	3.86
536.855	3.88
537.199	3.88
537.543	3.88
537.887	3.86
538.231	3.85
538.576	3.87
538.92	3.87
539.264	3.88
539.608	3.87
539.951	3.85
540.295	3.83
540.639	3.81
540.983	3.83
541.327	3.82
541.671	3.83
542.014	3.82
542.358	3.82
542.701	3.83
543.045	3.85
543.389	3.85
543.732	3.85
544.075	3.86
544.419	3.85
544.762	3.85
545.105	3.86
545.449	3.86
545.792	3.86
546.135	3.86
546.478	3.87
546.821	3.89
547.165	3.9
547.508	3.94
547.851	3.95
548.194	3.94
548.536	3.93
548.879	3.93
549.222	3.93
549.565	3.93
549.908	3.92
550.25	3.91
550.593	3.91
550.936	3.91
551.278	3.93
551.621	3.93
551.963	3.94
552.306	3.96
552.648	3.96
552.991	3.95
553.333	3.94
553.675	3.93
554.017	3.92
554.36	3.9
554.702	3.85
555.044	3.86
555.386	3.88
555.728	3.91
556.07	3.92
556.412	3.9
556.754	3.88
557.096	3.86
557.438	3.87
557.78	3.89
558.121	3.92
558.463	3.9
558.805	3.9
559.147	3.87
559.488	3.84
559.83	3.83
560.171	3.83
560.513	3.86
560.854	3.87
561.196	3.85
561.537	3.86
561.878	3.9
562.22	3.88
562.561	3.87
562.902	3.88
563.243	3.89
563.584	3.9
563.925	3.92
564.266	3.92
564.607	3.9
564.948	3.88
565.289	3.86
565.63	3.9
565.971	3.91
566.312	3.95
566.653	3.95
566.993	3.97
567.334	3.98
567.675	3.95
568.015	3.96
568.356	3.96
568.696	3.99
569.037	3.99
569.377	4.01
569.718	4.01
570.058	3.98
570.398	3.97
570.739	3.99
571.079	3.96
571.419	3.97
571.759	4
572.099	4.01
572.439	4
572.779	3.97
573.119	3.97
573.459	3.97
573.799	3.98
574.139	3.99
574.479	3.98
574.819	3.98
575.158	3.95
575.498	3.96
575.838	3.92
576.177	3.91
576.517	3.89
576.856	3.9
577.196	3.93
577.535	3.92
577.875	3.9
578.214	3.91
578.553	3.91
578.893	3.87
579.232	3.89
579.571	3.9
579.91	3.88
580.25	3.88
580.589	3.86
580.928	3.88
581.267	3.84
581.606	3.8
581.945	3.79
582.283	3.82
582.622	3.81
582.961	3.85
583.3	3.81
583.639	3.85
583.977	3.86
584.316	3.85
584.654	3.84
584.993	3.85
585.332	3.9
585.67	3.9
586.008	3.91
586.347	3.87
586.685	3.88
587.024	3.91
587.362	3.89
587.7	3.9
588.038	3.91
588.376	3.9
588.715	3.95
589.053	3.97
589.391	3.98
589.729	4.01
590.067	4
590.404	4.03
590.742	4.02
591.08	3.98
591.418	4
591.756	4.01
592.093	4
592.431	3.97
592.769	3.99
593.106	4.03
593.444	4.02
593.781	4
594.119	4
594.456	3.98
594.793	3.96
595.131	3.94
595.468	3.95
595.805	3.95
596.143	3.96
596.48	3.94
596.817	3.92
597.154	3.95
597.491	3.94
597.828	3.92
598.165	3.94
598.502	3.9
598.839	3.9
599.176	3.9
599.512	3.88
599.849	3.85
600.186	3.85
600.523	3.86
600.859	3.88
601.196	3.91
601.532	3.93
601.869	3.92
602.205	3.92
602.542	3.93
602.878	3.93
603.215	3.91
603.551	3.95
603.887	3.97
604.223	3.96
604.56	3.99
604.896	4
605.232	4
605.568	4.02
605.904	4.05
606.24	4.06
606.576	4.1
606.912	4.12
607.248	4.12
607.583	4.13
607.919	4.11
608.255	4.07
608.591	4.1
608.926	4.12
609.262	4.16
609.597	4.16
609.933	4.18
610.268	4.19
610.604	4.16
610.939	4.14
611.275	4.09
611.61	4.1
611.945	4.11
612.281	4.09
612.616	4.08
612.951	4.09
613.286	4.1
613.621	4.04
613.956	4.03
614.291	3.99
614.626	4.04
614.961	4.02
615.296	4.03
615.631	4.01
615.966	3.99
616.3	3.98
616.635	3.97
616.97	3.94
617.304	3.94
617.639	3.92
617.973	3.89
618.308	3.89
618.642	3.87
618.977	3.86
619.311	3.92
619.646	3.91
619.98	3.86
620.314	3.84
620.648	3.93
620.983	3.95
621.317	3.94
621.651	3.96
621.985	3.99
622.319	4
622.653	3.97
622.987	4.01
623.321	3.99
623.655	3.98
623.988	4.01
624.322	4.02
624.656	4.08
624.99	4.1
625.323	4.15
625.657	4.19
625.99	4.24
626.324	4.21
626.657	4.24
626.991	4.24
627.324	4.21
627.658	4.17
627.991	4.22
628.324	4.2
628.657	4.18
628.991	4.15
629.324	4.14
629.657	4.22
629.99	4.19
630.323	4.21
630.656	4.23
630.989	4.24
631.322	4.26
631.655	4.21
631.987	4.19
632.32	4.17
632.653	4.1
632.986	4.08
633.318	4.07
633.651	4.04
633.984	4.08
634.316	4.11
634.649	4.16
634.981	4.1
635.313	4.09
635.646	4.06
635.978	4.08
636.31	4.08
636.643	4.01
636.975	4.01
637.307	4.01
637.639	3.98
637.971	3.92
638.303	3.89
638.635	3.91
638.967	4
639.299	4.02
639.631	4
639.963	3.94
640.295	3.92
640.626	3.91
640.958	3.95
641.29	3.91
641.621	3.8
641.953	3.83
642.285	3.85
642.616	3.88
642.948	3.93
643.279	3.93
643.61	3.97
643.942	3.97
644.273	3.97
644.604	4
644.936	4
645.267	4.01
645.598	4.02
645.929	3.97
646.26	3.97
646.591	4.03
646.922	4.1
647.253	4.09
647.584	4.13
647.915	4.03
648.245	4.03
648.576	4.11
648.907	4.13
649.238	4.16
649.568	4.18
649.899	4.17
650.229	4.13
650.56	4.15
650.89	4.18
651.221	4.2
651.551	4.17
651.882	4.21
652.212	4.24
652.542	4.22
652.872	4.22
653.203	4.21
653.533	4.27
653.863	4.28
654.193	4.31
654.523	4.33
654.853	4.36
655.183	4.38
655.513	4.31
655.843	4.25
656.172	4.22
656.502	4.18
656.832	4.18
657.162	4.23
657.491	4.22
657.821	4.27
658.15	4.25
658.48	4.23
658.809	4.23
659.139	4.23
659.468	4.25
659.798	4.24
660.127	4.26
660.456	4.2
660.785	4.18
661.115	4.19
661.444	4.2
661.773	4.23
662.102	4.19
662.431	4.23
662.76	4.25
663.089	4.24
663.418	4.26
663.747	4.21
664.076	4.21
664.404	4.21
664.733	4.11
665.062	4.11
665.39	4.16
665.719	4.13
666.048	4.1
666.376	4.09
666.705	4.05
667.033	4.03
667.362	4.1
667.69	4.08
668.018	4.03
668.347	4.03
668.675	4.09
669.003	4.13
669.331	4.25
669.659	4.31
669.987	4.41
670.315	4.38
670.643	4.42
670.971	4.49
671.299	4.53
671.627	4.62
671.955	4.62
672.283	4.56
672.61	4.57
672.938	4.59
673.266	4.49
673.593	4.68
673.921	4.67
674.249	4.58
674.576	4.54
674.904	4.59
675.231	4.54
675.558	4.49
675.886	4.54
676.213	4.46
676.54	4.4
676.867	4.39
677.195	4.31
677.522	4.31
677.849	4.24
678.176	4.19
678.503	4.09
678.83	4.14
679.157	4.21
679.484	4.19
679.81	4.17
680.137	4.19
680.464	4.05
680.791	4.04
681.117	4.04
681.444	4.07
681.771	4.13
682.097	4.15
682.424	4.11
682.75	4.13
683.077	4.1
683.403	4.18
683.729	4.15
684.056	4.3
684.382	4.3
684.708	4.26
685.034	4.29
685.36	4.34
685.686	4.29
686.012	4.26
686.339	4.35
686.664	4.35
686.99	4.38
687.316	4.45
687.642	4.61
687.968	4.59
688.294	4.69
688.619	4.64
688.945	4.55
689.271	4.57
689.596	4.51
689.922	4.43
690.247	4.3
690.573	4.36
690.898	4.29
691.224	4.26
691.549	4.37
691.874	4.26
692.2	4.21
692.525	4.21
692.85	4.27
693.175	4.19
693.5	4.14
693.825	4.17
694.15	4.13
694.475	3.94
694.8	4.02
695.125	3.9
695.45	3.84
695.775	3.96
696.099	3.98
696.424	4.02
696.749	3.99
697.073	4.12
697.398	4.08
697.723	4.12
698.047	4.1
698.372	4.1
698.696	4.25
699.02	4.28
699.345	4.32
699.669	4.34
699.993	4.35
700.318	4.46
700.642	4.53
700.966	4.53
701.29	4.63
701.614	4.61
701.938	4.73
702.262	4.86
702.586	4.83
702.91	4.81
703.234	4.79
703.557	5.08
703.881	4.92
704.205	4.89
704.529	4.8
704.852	4.87
705.176	4.81
705.499	4.77
705.823	4.86
706.146	4.77
706.47	4.63
706.793	4.67
707.117	4.64
707.44	4.59
707.763	4.61
708.086	4.54
708.409	4.46
708.733	4.3
709.056	4.27
709.379	4.36
709.702	4.41
710.025	4.38
710.348	4.17
710.671	4.18
710.993	4.24
711.316	4.33
711.639	4.39
711.962	4.38
712.284	4.41
712.607	4.35
712.93	4.46
713.252	4.42
713.575	4.46
713.897	4.52
714.22	4.43
714.542	4.44
714.864	4.42
715.187	4.57
715.509	4.64
715.831	4.64
716.153	4.68
716.475	4.62
716.798	4.76
717.12	4.83
717.442	4.94
717.764	4.95
718.085	4.98
718.407	4.87
718.729	4.88
719.051	4.83
719.373	4.86
719.695	4.74
720.016	4.88
720.338	4.89
720.659	4.79
720.981	4.94
721.302	5.11
721.624	5.22
721.945	5.17
722.267	5.19
722.588	5.08
722.909	4.99
723.231	5.03
723.552	4.91
723.873	5.02
724.194	5
724.515	5.15
724.836	4.93
725.157	5.11
725.478	5.08
725.799	4.99
726.12	4.83
726.441	5.06
726.762	5.07
727.083	4.93
727.403	5.07
727.724	5.18
728.045	5.15
728.365	5.02
728.686	4.92
729.006	4.92
729.327	5.02
729.647	5.05
729.967	5.16
730.288	5.19
730.608	4.95
730.928	4.96
731.249	4.74
731.569	4.96
731.889	4.89
732.209	4.95
732.529	5.03
732.849	5.15
733.169	5.05
733.489	5.18
733.809	5.2
734.129	5.16
734.448	5.07
734.768	4.96
735.088	5.21
735.408	5.22
735.727	5.38
736.047	5.39
736.366	5.39
736.686	5.38
737.005	5.51
737.325	5.73
737.644	5.81
737.963	5.87
738.283	5.73
738.602	5.76
738.921	5.72
739.24	5.65
739.56	5.61
739.879	5.53
740.198	5.47
740.517	5.57
740.836	5.7
741.155	5.57
741.473	5.74
741.792	5.36
742.111	5.56
742.43	5.65
742.748	5.68
743.067	5.72
743.386	5.78
743.704	5.78
744.023	5.89
744.341	5.77
744.66	6.03
744.978	6.06
745.297	5.91
745.615	5.89
745.933	5.72
746.252	5.9
746.57	5.8
746.888	5.68
747.206	5.48
747.524	5.36
747.842	5.45
748.16	5.2
748.478	5.49
748.796	5.39
749.114	5.39
749.432	5.31
749.749	5.27
750.067	4.97
750.385	4.8
750.703	4.65
751.02	4.56
751.338	4.17
751.655	4.05
751.973	4.35
752.29	4.4
752.608	4.66
752.925	4.74
753.242	4.78
753.56	4.66
753.877	4.93
754.194	4.96
754.511	5.16
754.828	5.14
755.145	4.91
755.462	4.79
755.779	4.8
756.096	4.77
756.413	4.81
756.73	4.98
757.047	5.05
757.364	5.07
757.68	5.12
757.997	5.18
758.314	5.41
758.63	5.34
758.947	5.42
759.264	5.18
759.58	4.94
759.896	5.2
760.213	5.3
760.529	5.06
760.846	5.07
761.162	5.08
761.478	5.12
761.794	5.32
762.11	5.47
762.426	5.32
762.743	5.43
763.059	5.4
763.375	5.33
763.69	5.35
764.006	5.36
764.322	5.45
764.638	5.49
764.954	5.62
765.27	5.59
765.585	5.67
765.901	5.97
766.216	5.96
766.532	5.69
766.848	5.8
767.163	5.9
767.478	5.87
767.794	5.65
768.109	5.46
768.424	5.49
768.74	5.49
769.055	5.5
769.37	5.51
769.685	5.31
770	5.58
770.315	5.49
770.63	5.69
770.945	5.71
771.26	5.88
771.575	5.57
771.89	5.68
772.205	5.73
772.52	5.61
772.834	5.82
773.149	6.26
773.464	6.04
773.778	5.94
774.093	5.71
774.407	5.88
774.722	6.28
775.036	5.95
775.351	5.78
775.665	5.83
775.979	5.57
776.293	5.94
776.608	5.55
776.922	5.55
777.236	5.26
777.55	5.23
777.864	5.45
778.178	5.6
778.492	5.3
778.806	5.09
779.12	4.95
779.434	4.89
779.747	4.91
780.061	5.04
780.375	5.09
780.689	5.3
781.002	5.46
781.316	5.69
781.629	5.73
781.943	5.76
782.256	5.57
782.57	5.52
782.883	5.07
783.196	5.31
783.51	5.25
783.823	5.18
784.136	5.74
784.449	5.55
784.762	5.34
785.075	5.52
785.388	5.56
785.701	5.69
786.014	5.9
786.327	5.61
786.64	5.81
786.953	5.69
787.266	5.37
787.578	5.05
787.891	5.03
788.204	5.15
788.516	5.48
788.829	5.53
789.141	6.06
789.454	6.26
789.766	6.65
790.079	6.89
790.391	6.91
790.703	6.42
791.016	6.62
791.328	6.55
791.64	6.78
791.952	6.9
792.264	6.54
792.576	6.33
792.888	6.5
793.2	6.22
793.512	6.51
793.824	6.8
794.136	7.11
794.448	6.97
794.76	7.08
795.071	7.08
795.383	6.77
795.695	6.19
796.006	6
796.318	5.26
796.629	5.38
796.941	5.18
797.252	5.62
797.564	5.59
797.875	5.66
798.186	5.05
798.497	5.17
798.809	5.64
799.12	5.57
799.431	5.49
799.742	5.23
800.053	5.54
800.364	5.89
800.675	5.83
800.986	5.65
801.297	5.72
801.608	5.19
801.918	5.34
802.229	5.42
802.54	5.84
802.851	5.78
803.161	5.57
803.472	5.69
803.782	5.5
804.093	5.35
804.403	5.44
804.714	5.62
805.024	4.59
805.334	4.57
805.645	4.79
805.955	4.58
806.265	5.18
806.575	4.98
806.885	4.36
807.195	4.41
807.505	4.39
807.815	4.23
808.125	4.29
808.435	4.55
808.745	5.21
809.055	5.81
809.365	6.08
809.674	6.04
809.984	6.62
810.294	6.34
810.603	6.89
810.913	7.64
811.222	7.98
811.532	8.44
811.841	8.71
812.151	9.13
812.46	9.03
812.769	8.87
813.079	8.95
813.388	9.72
813.697	9.74
814.006	10.26
814.315	10.29
814.624	10.26
814.933	10.71
815.242	10.3
815.551	9.52
815.86	10.29
816.169	9.71
816.478	9.52
816.786	9.33
817.095	8.64
817.404	8.69
817.712	8.47
818.021	9.42
818.33	9.05
818.638	8.45
818.947	8.83
819.255	8.83
819.563	8.49
819.872	7.93
820.18	7.93
820.488	7.83
820.796	7.91
821.105	8.04
821.413	7.87
821.721	7.74
822.029	7.67
822.337	7.62
822.645	7.93
822.953	7.78
823.26	7.9
823.568	7.95
823.876	7.74
824.184	7.83
824.491	7.77
824.799	7.82
825.107	7.75
825.414	7.62
825.722	7.67
826.029	7.68
826.337	7.84
826.644	7.83
826.951	7.73
827.259	7.65
827.566	7.61
827.873	7.38
828.18	7.6
828.488	7.58
828.795	7.34
829.102	6.97
829.409	7.1
829.716	6.71
830.023	6.61
830.329	6.41
830.636	6.26
830.943	6.33
831.25	6.25
831.557	6.15
831.863	6.38
832.17	5.86
832.476	5.88
832.783	6.11
833.089	6.01
833.396	6.14
833.702	6.12
834.009	6.03
834.315	6.61
834.621	6.29
834.928	6.1
835.234	6.14
835.54	6.25
835.846	6.54
836.152	6.68
836.458	6.81
836.764	7.06
837.07	7.11
837.376	6.41
837.682	6.61
837.988	6.59
838.293	6.51
838.599	6.49
838.905	6.08
839.211	5.81
839.516	5.63
839.822	5.46
840.127	5.54
840.433	5.31
840.738	5.17
841.044	5.06
841.349	5.32
841.654	5.57
841.959	5.71
842.265	5.43
842.57	6.25
842.875	6.03
843.18	6.91
843.485	7.02
843.79	8.31
844.095	7.99
844.4	8.71
844.705	7.57
845.01	8.85
845.315	9.41
845.619	8.83
845.924	9.74
846.229	10.22
846.533	9.43
846.838	9.57
847.142	9.55
847.447	8.89
847.751	9.77
848.056	9.52
848.36	9.1
848.664	8.01
848.969	5.7
849.273	4.34
849.577	1.93
849.881	0.62
850.185	-0.46
850.489	0.32
850.794	-1.27
851.097	1.03
851.401	-1.15
851.705	-1.69
852.009	-1.47
852.313	-3.52
852.617	-3.06
852.92	-1.68
853.224	-1.19
853.528	-0.76
853.831	-0.44
854.135	-1.54
854.438	-2.65
854.742	-3.12
855.045	-3.38
855.349	-2.43
855.652	-1.85
855.955	-0.13
856.259	-0.97
856.562	-2.05
856.865	-2.5
857.168	0.15
857.471	-0.38
857.774	1.11
858.077	1.83
858.38	2.14
858.683	3.17
858.986	4.09
859.289	4.28
859.592	4.66
859.894	3.14
860.197	2.74
860.5	1.89
860.802	3.57
861.105	3.76
861.407	3.68
861.71	2.15
862.012	3.15
862.315	2.56
862.617	4.33
862.919	2.8
863.222	1.51
863.524	1.94
863.826	1.81
864.128	2.04
864.43	1.88
864.732	2.77
865.034	3.42
865.336	1.47
865.638	1.82
865.94	0.56
866.242	1.27
866.544	1.81
866.846	1.42
867.147	3.13
867.449	4.81
867.751	5.25
868.052	8.22
868.354	7.46
868.655	7.8
868.957	5.44
869.258	6.85
869.56	9.02
869.861	6.38
870.162	6.55
870.463	8.72
870.765	8.78
871.066	6.34
871.367	5.04
871.668	4.88
871.969	1.95
872.27	3.2
872.571	2.65
872.872	4.62
873.173	6.25
873.473	4.81
873.774	4.77
874.075	5.11
874.376	2.2
874.676	2.02
874.977	1.13
875.277	4.33
875.578	4.87
875.878	3.19
876.179	4.38
876.479	3.57
876.78	0.73
877.08	0.56
877.38	1.81
877.68	2.6
877.981	1.89
878.281	4.87
878.581	4.11
