Data from BU58129_Reflection_00009.txt Node
Date: Mon Nov 18 16:35:09 EST 2019
User: vgr7
Spectrometer: USB2G7710
Scans to average: 3
Trigger mode: 4
Integration Time (sec): 2.000000E-2
Electric dark correction enabled: true
Boxcar width: 10
XAxis mode: Wavelengths
Number of Pixels in Spectrum: 2048
>>>>>Begin Spectral Data<<<<<
177.721	147.97
178.105	322.22
178.488	57.35
178.871	1238.89
179.254	-537.68
179.636	52.72
180.019	-344.44
180.402	245
180.785	136.48
181.168	-225.4
181.55	-83.15
181.933	116.86
182.316	83.8
182.698	125.71
183.081	91.59
183.463	130.01
183.846	156.95
184.228	182.6
184.611	1655.56
184.993	-58.26
185.376	-72.38
185.758	-62.82
186.14	-141.91
186.522	-163.94
186.904	-671.24
187.287	804.4
187.669	-259.24
188.051	927.84
188.433	456.9
188.815	807.07
189.197	370.63
189.579	596.97
189.961	456.59
190.342	65.1
190.724	-45.59
191.106	-142.42
191.488	-22.48
191.869	-31.6
192.251	-5.61
192.633	-25.31
193.014	-4.15
193.396	2.93
193.777	11.4
194.159	20.14
194.54	10.71
194.922	9.33
195.303	-1.95
195.684	33.77
196.065	18.05
196.447	182.37
196.828	402.37
197.209	295.18
197.59	387.95
197.971	414.53
198.352	-1278.53
198.733	1103.75
199.114	-2210.08
199.495	-305.61
199.876	-369.24
200.257	-243.9
200.638	-159.33
201.018	-114.52
201.399	-120.63
201.78	-70.8
202.16	-97.43
202.541	-512.98
202.922	-1641.5
203.302	1414.55
203.683	592.57
204.063	1104.33
204.444	1693.5
204.824	885.39
205.204	14366.67
205.585	1269.4
205.965	609.8
206.345	1351.7
206.725	821.57
207.106	271.89
207.486	341.08
207.866	520.86
208.246	1020.19
208.626	476.28
209.006	5655.56
209.386	892.16
209.766	387.69
210.145	444.99
210.525	-825.17
210.905	-3037.25
211.285	-322.99
211.664	-113.04
212.044	-211.11
212.424	-470.81
212.803	-1837.98
213.183	-362.08
213.562	-313.27
213.942	-247.36
214.321	-355.28
214.701	-477.78
215.08	-143.56
215.459	-130.43
215.838	-98.98
216.218	-260.84
216.597	-116.75
216.976	-164.18
217.355	-209.47
217.734	-106.82
218.113	-118.34
218.492	-108.48
218.871	-92.96
219.25	-83.39
219.629	-119.24
220.008	-85.23
220.387	-70.92
220.766	-46.41
221.144	-72.24
221.523	-72.07
221.902	-94.56
222.28	-73.94
222.659	-55.15
223.037	-78.21
223.416	-80.52
223.794	-91.84
224.173	-59.66
224.551	-57.78
224.929	-54.41
225.308	-38.68
225.686	-40.24
226.064	-32.14
226.442	-22.7
226.821	-12.87
227.199	-9.72
227.577	-3.65
227.955	-7.36
228.333	-7.2
228.711	-7.75
229.089	-1.63
229.467	-1.48
229.845	-2.41
230.222	-5.91
230.6	-5
230.978	-4.08
231.356	-1.63
231.733	-1.72
232.111	0.48
232.488	2.11
232.866	3.22
233.243	3.57
233.621	2.61
233.998	2.53
234.376	0.65
234.753	-1.08
235.13	-1.71
235.508	-1.35
235.885	0.49
236.262	0.87
236.639	0.66
237.016	0.47
237.393	0.91
237.77	2.08
238.147	3.13
238.524	3.73
238.901	4.2
239.278	3.6
239.655	4.5
240.032	3.8
240.409	3.07
240.785	2.6
241.162	3.07
241.539	3.33
241.915	3.19
242.292	2.77
242.668	2.85
243.045	3.03
243.421	3.22
243.798	3.27
244.174	3.06
244.551	3.22
244.927	3.11
245.303	3.04
245.679	3.03
246.056	3.1
246.432	3.04
246.808	3.19
247.184	2.82
247.56	2.55
247.936	2.61
248.312	2.9
248.688	3.16
249.064	2.96
249.44	2.79
249.815	2.83
250.191	3.03
250.567	3.02
250.943	2.94
251.318	2.87
251.694	2.74
252.069	3.02
252.445	3.29
252.82	3.14
253.196	3.14
253.571	3.04
253.947	2.83
254.322	2.95
254.697	2.58
255.073	2.68
255.448	2.61
255.823	2.55
256.198	2.41
256.573	2.47
256.948	2.36
257.323	2.68
257.698	2.64
258.073	2.57
258.448	2.67
258.823	2.66
259.198	2.6
259.573	2.63
259.948	2.52
260.322	2.35
260.697	2.5
261.072	2.48
261.446	2.62
261.821	2.78
262.195	2.85
262.57	2.81
262.944	2.91
263.319	3.02
263.693	2.99
264.067	3.15
264.442	3.06
264.816	2.99
265.19	2.89
265.564	2.89
265.938	3.01
266.313	2.74
266.687	2.68
267.061	2.58
267.435	2.55
267.809	2.67
268.183	2.78
268.556	2.53
268.93	2.51
269.304	2.46
269.678	2.51
270.051	2.41
270.425	2.56
270.799	2.49
271.172	2.5
271.546	2.46
271.919	2.3
272.293	2.37
272.666	2.67
273.04	2.71
273.413	2.9
273.787	2.94
274.16	3.13
274.533	3.16
274.906	3.19
275.279	3.3
275.653	3.27
276.026	3.06
276.399	3.1
276.772	3.27
277.145	3.12
277.518	3.19
277.891	3.31
278.263	3.19
278.636	3.36
279.009	3.31
279.382	3.49
279.755	3.48
280.127	3.44
280.5	3.37
280.872	3.34
281.245	3.14
281.617	3.15
281.99	3.03
282.362	3.05
282.735	3.02
283.107	2.98
283.479	3.04
283.852	3.1
284.224	3.18
284.596	3
284.968	3.05
285.34	2.98
285.713	2.86
286.085	3.01
286.457	3.1
286.829	3.34
287.201	3.32
287.572	3.22
287.944	3.26
288.316	3.23
288.688	3.19
289.06	3.24
289.431	3.15
289.803	3.22
290.175	3.3
290.546	3.44
290.918	3.5
291.289	3.5
291.661	3.67
292.032	3.65
292.403	3.87
292.775	3.98
293.146	3.88
293.517	3.88
293.889	3.87
294.26	3.72
294.631	3.51
295.002	3.51
295.373	3.7
295.744	3.63
296.115	3.67
296.486	3.55
296.857	3.61
297.228	3.63
297.599	3.69
297.97	3.72
298.34	3.71
298.711	3.66
299.082	3.64
299.452	3.59
299.823	3.8
300.194	3.74
300.564	3.74
300.935	3.87
301.305	3.82
301.676	3.86
302.046	4.1
302.416	4.22
302.787	4.3
303.157	4.2
303.527	4.22
303.897	4.32
304.267	4.64
304.637	4.65
305.008	4.81
305.378	4.86
305.748	4.88
306.117	4.88
306.487	4.95
306.857	5.01
307.227	5.09
307.597	4.86
307.967	4.84
308.336	4.97
308.706	4.98
309.076	5.23
309.445	5.15
309.815	5
310.184	4.97
310.554	4.78
310.923	4.94
311.293	5.05
311.662	4.98
312.031	4.93
312.401	4.9
312.77	4.92
313.139	4.95
313.508	4.95
313.877	4.98
314.246	5.12
314.616	5.17
314.985	5.17
315.353	5.44
315.722	5.61
316.091	5.52
316.46	5.52
316.829	5.52
317.198	5.57
317.567	5.7
317.935	5.66
318.304	5.89
318.672	5.79
319.041	5.94
319.41	6.05
319.778	6.18
320.147	6.32
320.515	6.29
320.883	6.39
321.252	6.58
321.62	6.6
321.988	6.52
322.357	6.65
322.725	6.74
323.093	6.77
323.461	6.65
323.829	6.79
324.197	6.78
324.565	6.76
324.933	6.84
325.301	6.83
325.669	6.95
326.037	7.01
326.405	7.08
326.772	6.99
327.14	7.13
327.508	7.05
327.875	6.98
328.243	7.05
328.61	7.06
328.978	7.2
329.346	7.25
329.713	7.14
330.08	7.2
330.448	7.22
330.815	7.17
331.182	7.23
331.55	7.28
331.917	7.41
332.284	7.52
332.651	7.53
333.018	7.56
333.385	7.55
333.752	7.61
334.119	7.75
334.486	7.66
334.853	7.69
335.22	7.83
335.587	7.98
335.954	8.04
336.32	8.03
336.687	7.92
337.054	7.96
337.42	8.29
337.787	8.37
338.153	8.33
338.52	8.36
338.886	8.28
339.253	8.31
339.619	8.28
339.986	8.21
340.352	8.25
340.718	8.23
341.084	8.24
341.451	8.32
341.817	8.32
342.183	8.42
342.549	8.4
342.915	8.36
343.281	8.42
343.647	8.38
344.013	8.39
344.379	8.29
344.745	8.28
345.11	8.17
345.476	7.98
345.842	8.05
346.208	8.02
346.573	8.23
346.939	8.25
347.304	8.19
347.67	8.3
348.035	8.32
348.401	8.38
348.766	8.47
349.132	8.42
349.497	8.37
349.862	8.45
350.228	8.44
350.593	8.39
350.958	8.32
351.323	8.31
351.688	8.38
352.053	8.52
352.418	8.62
352.783	8.6
353.148	8.61
353.513	8.54
353.878	8.53
354.243	8.58
354.608	8.58
354.972	8.7
355.337	8.7
355.702	8.75
356.066	8.75
356.431	8.68
356.795	8.71
357.16	8.67
357.524	8.59
357.889	8.51
358.253	8.52
358.618	8.52
358.982	8.55
359.346	8.51
359.71	8.5
360.075	8.44
360.439	8.42
360.803	8.41
361.167	8.43
361.531	8.42
361.895	8.35
362.259	8.29
362.623	8.24
362.987	8.21
363.351	8.1
363.714	8.1
364.078	8.07
364.442	7.99
364.806	7.98
365.169	7.98
365.533	7.94
365.896	7.96
366.26	7.92
366.623	7.86
366.987	7.84
367.35	7.73
367.714	7.65
368.077	7.61
368.44	7.58
368.803	7.47
369.167	7.36
369.53	7.23
369.893	7.17
370.256	7.14
370.619	7.09
370.982	7.07
371.345	6.96
371.708	6.95
372.071	6.87
372.434	6.8
372.797	6.68
373.159	6.63
373.522	6.57
373.885	6.54
374.247	6.49
374.61	6.38
374.973	6.32
375.335	6.3
375.698	6.3
376.06	6.2
376.423	6.19
376.785	6.15
377.147	6.19
377.51	6.11
377.872	6.07
378.234	5.98
378.596	5.94
378.958	5.89
379.321	5.77
379.683	5.75
380.045	5.73
380.407	5.73
380.769	5.69
381.13	5.59
381.492	5.52
381.854	5.48
382.216	5.43
382.578	5.42
382.939	5.36
383.301	5.29
383.663	5.27
384.024	5.2
384.386	5.21
384.747	5.18
385.109	5.16
385.47	5.07
385.832	5.06
386.193	5.02
386.554	4.97
386.916	4.96
387.277	4.99
387.638	4.99
387.999	4.91
388.36	4.88
388.721	4.86
389.082	4.83
389.443	4.8
389.804	4.75
390.165	4.71
390.526	4.65
390.887	4.6
391.248	4.57
391.609	4.57
391.969	4.52
392.33	4.44
392.691	4.39
393.051	4.36
393.412	4.31
393.772	4.27
394.133	4.23
394.493	4.2
394.854	4.09
395.214	3.99
395.574	3.99
395.935	3.95
396.295	3.92
396.655	3.86
397.015	3.8
397.376	3.79
397.736	3.74
398.096	3.72
398.456	3.7
398.816	3.66
399.176	3.58
399.535	3.54
399.895	3.51
400.255	3.51
400.615	3.5
400.975	3.48
401.334	3.46
401.694	3.46
402.054	3.45
402.413	3.47
402.773	3.44
403.132	3.41
403.492	3.38
403.851	3.4
404.211	3.41
404.57	3.39
404.929	3.38
405.288	3.37
405.648	3.35
406.007	3.32
406.366	3.32
406.725	3.35
407.084	3.36
407.443	3.38
407.802	3.38
408.161	3.35
408.52	3.32
408.879	3.31
409.238	3.28
409.596	3.29
409.955	3.26
410.314	3.28
410.673	3.26
411.031	3.26
411.39	3.25
411.748	3.23
412.107	3.24
412.465	3.22
412.824	3.17
413.182	3.16
413.54	3.18
413.899	3.18
414.257	3.16
414.615	3.13
414.974	3.12
415.332	3.12
415.69	3.12
416.048	3.11
416.406	3.1
416.764	3.08
417.122	3.05
417.48	3.04
417.838	3.02
418.195	3.02
418.553	3.01
418.911	2.98
419.269	2.99
419.626	2.99
419.984	2.98
420.342	2.98
420.699	2.97
421.057	2.96
421.414	2.95
421.772	2.94
422.129	2.94
422.486	2.93
422.844	2.92
423.201	2.92
423.558	2.91
423.915	2.92
424.273	2.92
424.63	2.92
424.987	2.92
425.344	2.92
425.701	2.93
426.058	2.94
426.415	2.94
426.772	2.92
427.128	2.9
427.485	2.91
427.842	2.91
428.199	2.91
428.555	2.91
428.912	2.9
429.269	2.9
429.625	2.9
429.982	2.89
430.338	2.88
430.695	2.87
431.051	2.86
431.407	2.83
431.764	2.85
432.12	2.85
432.476	2.84
432.832	2.84
433.189	2.83
433.545	2.84
433.901	2.83
434.257	2.85
434.613	2.86
434.969	2.86
435.325	2.84
435.681	2.86
436.036	2.85
436.392	2.85
436.748	2.86
437.104	2.85
437.459	2.85
437.815	2.85
438.171	2.86
438.526	2.87
438.882	2.9
439.237	2.89
439.593	2.9
439.948	2.9
440.304	2.9
440.659	2.91
441.014	2.91
441.369	2.9
441.725	2.88
442.08	2.88
442.435	2.87
442.79	2.89
443.145	2.88
443.5	2.88
443.855	2.89
444.21	2.87
444.565	2.87
444.92	2.89
445.275	2.87
445.629	2.87
445.984	2.85
446.339	2.82
446.693	2.8
447.048	2.79
447.403	2.78
447.757	2.77
448.112	2.74
448.466	2.72
448.82	2.72
449.175	2.73
449.529	2.72
449.883	2.73
450.238	2.7
450.592	2.71
450.946	2.69
451.3	2.67
451.654	2.66
452.008	2.65
452.362	2.62
452.716	2.63
453.07	2.61
453.424	2.63
453.778	2.63
454.132	2.65
454.486	2.65
454.839	2.66
455.193	2.67
455.547	2.68
455.9	2.7
456.254	2.69
456.607	2.7
456.961	2.7
457.314	2.68
457.668	2.7
458.021	2.67
458.375	2.7
458.728	2.7
459.081	2.72
459.434	2.72
459.787	2.73
460.141	2.73
460.494	2.73
460.847	2.73
461.2	2.73
461.553	2.73
461.906	2.75
462.259	2.76
462.611	2.76
462.964	2.76
463.317	2.76
463.67	2.77
464.022	2.76
464.375	2.75
464.728	2.76
465.08	2.75
465.433	2.77
465.785	2.75
466.138	2.76
466.49	2.74
466.843	2.75
467.195	2.76
467.547	2.76
467.899	2.79
468.252	2.81
468.604	2.82
468.956	2.83
469.308	2.83
469.66	2.81
470.012	2.82
470.364	2.83
470.716	2.85
471.068	2.84
471.42	2.86
471.772	2.87
472.123	2.89
472.475	2.93
472.827	2.94
473.178	2.95
473.53	2.95
473.882	2.98
474.233	2.98
474.585	2.97
474.936	2.97
475.288	2.95
475.639	2.93
475.99	2.95
476.342	2.94
476.693	2.92
477.044	2.94
477.395	2.94
477.746	2.93
478.097	2.9
478.448	2.91
478.8	2.89
479.15	2.87
479.501	2.86
479.852	2.85
480.203	2.86
480.554	2.87
480.905	2.87
481.255	2.87
481.606	2.88
481.957	2.9
482.307	2.9
482.658	2.9
483.009	2.9
483.359	2.89
483.709	2.9
484.06	2.91
484.41	2.91
484.761	2.91
485.111	2.91
485.461	2.91
485.811	2.91
486.162	2.91
486.512	2.92
486.862	2.93
487.212	2.93
487.562	2.92
487.912	2.92
488.262	2.91
488.612	2.9
488.961	2.91
489.311	2.9
489.661	2.9
490.011	2.91
490.36	2.91
490.71	2.92
491.06	2.91
491.409	2.9
491.759	2.9
492.108	2.91
492.458	2.91
492.807	2.91
493.157	2.91
493.506	2.93
493.855	2.93
494.204	2.93
494.554	2.94
494.903	2.95
495.252	2.97
495.601	3
495.95	3.03
496.299	3.03
496.648	3.04
496.997	3.06
497.346	3.09
497.695	3.11
498.043	3.12
498.392	3.14
498.741	3.17
499.09	3.2
499.438	3.24
499.787	3.27
500.135	3.31
500.484	3.35
500.832	3.37
501.181	3.4
501.529	3.45
501.878	3.47
502.226	3.49
502.574	3.54
502.923	3.56
503.271	3.57
503.619	3.63
503.967	3.7
504.315	3.74
504.663	3.76
505.011	3.82
505.359	3.88
505.707	3.93
506.055	3.98
506.403	4.06
506.751	4.1
507.098	4.15
507.446	4.21
507.794	4.28
508.141	4.35
508.489	4.44
508.837	4.48
509.184	4.57
509.531	4.64
509.879	4.71
510.226	4.8
510.574	4.85
510.921	4.9
511.268	4.98
511.616	5.06
511.963	5.15
512.31	5.23
512.657	5.3
513.004	5.38
513.351	5.47
513.698	5.55
514.045	5.67
514.392	5.8
514.739	5.88
515.086	5.98
515.432	6.08
515.779	6.18
516.126	6.31
516.473	6.39
516.819	6.5
517.166	6.58
517.512	6.67
517.859	6.77
518.205	6.88
518.552	6.96
518.898	7.03
519.245	7.12
519.591	7.2
519.937	7.29
520.283	7.4
520.629	7.51
520.976	7.64
521.322	7.74
521.668	7.82
522.014	7.97
522.36	8.09
522.706	8.22
523.052	8.36
523.398	8.52
523.743	8.67
524.089	8.85
524.435	9.02
524.781	9.18
525.126	9.35
525.472	9.49
525.817	9.61
526.163	9.74
526.509	9.85
526.854	9.96
527.199	10.09
527.545	10.18
527.89	10.28
528.235	10.37
528.581	10.45
528.926	10.57
529.271	10.69
529.616	10.8
529.961	10.92
530.306	11.02
530.651	11.13
530.996	11.26
531.341	11.38
531.686	11.51
532.031	11.65
532.376	11.78
532.721	11.92
533.065	12.07
533.41	12.22
533.755	12.38
534.099	12.55
534.444	12.7
534.788	12.88
535.133	13.03
535.477	13.21
535.822	13.4
536.166	13.6
536.51	13.79
536.855	14
537.199	14.22
537.543	14.47
537.887	14.76
538.231	15
538.576	15.25
538.92	15.47
539.264	15.71
539.608	15.9
539.951	16.1
540.295	16.29
540.639	16.51
540.983	16.72
541.327	16.91
541.671	17.1
542.014	17.28
542.358	17.47
542.701	17.65
543.045	17.84
543.389	18.02
543.732	18.22
544.075	18.43
544.419	18.63
544.762	18.84
545.105	19.02
545.449	19.25
545.792	19.48
546.135	19.74
546.478	19.98
546.821	20.27
547.165	20.57
547.508	20.9
547.851	21.17
548.194	21.43
548.536	21.75
548.879	22.04
549.222	22.38
549.565	22.71
549.908	23.03
550.25	23.33
550.593	23.61
550.936	23.9
551.278	24.22
551.621	24.55
551.963	24.86
552.306	25.19
552.648	25.49
552.991	25.79
553.333	26.03
553.675	26.3
554.017	26.61
554.36	26.9
554.702	27.12
555.044	27.36
555.386	27.64
555.728	27.89
556.07	28.15
556.412	28.37
556.754	28.61
557.096	28.91
557.438	29.24
557.78	29.57
558.121	29.85
558.463	30.11
558.805	30.36
559.147	30.6
559.488	30.83
559.83	31.04
560.171	31.28
560.513	31.61
560.854	31.85
561.196	32.12
561.537	32.38
561.878	32.66
562.22	32.96
562.561	33.19
562.902	33.48
563.243	33.74
563.584	34.03
563.925	34.25
564.266	34.45
564.607	34.67
564.948	34.89
565.289	35.14
565.63	35.39
565.971	35.62
566.312	35.87
566.653	36.11
566.993	36.38
567.334	36.62
567.675	36.84
568.015	37.09
568.356	37.27
568.696	37.51
569.037	37.75
569.377	37.92
569.718	38.14
570.058	38.29
570.398	38.47
570.739	38.69
571.079	38.88
571.419	39.08
571.759	39.25
572.099	39.44
572.439	39.64
572.779	39.8
573.119	40.01
573.459	40.15
573.799	40.26
574.139	40.38
574.479	40.52
574.819	40.68
575.158	40.83
575.498	41
575.838	41.1
576.177	41.19
576.517	41.37
576.856	41.53
577.196	41.68
577.535	41.81
577.875	41.93
578.214	42.14
578.553	42.28
578.893	42.46
579.232	42.6
579.571	42.72
579.91	42.9
580.25	43.06
580.589	43.23
580.928	43.4
581.267	43.64
581.606	43.8
581.945	43.88
582.283	43.95
582.622	44.07
582.961	44.24
583.3	44.36
583.639	44.49
583.977	44.6
584.316	44.81
584.654	45.06
584.993	45.18
585.332	45.29
585.67	45.44
586.008	45.55
586.347	45.65
586.685	45.74
587.024	45.75
587.362	45.87
587.7	46.02
588.038	46.14
588.376	46.19
588.715	46.35
589.053	46.53
589.391	46.68
589.729	46.81
590.067	46.91
590.404	47.08
590.742	47.19
591.08	47.22
591.418	47.29
591.756	47.37
592.093	47.53
592.431	47.53
592.769	47.55
593.106	47.62
593.444	47.66
593.781	47.78
594.119	47.94
594.456	47.99
594.793	48
595.131	48.08
595.468	48.15
595.805	48.16
596.143	48.2
596.48	48.32
596.817	48.34
597.154	48.42
597.491	48.46
597.828	48.52
598.165	48.62
598.502	48.64
598.839	48.65
599.176	48.62
599.512	48.75
599.849	48.86
600.186	48.97
600.523	49.07
600.859	49.15
601.196	49.19
601.532	49.21
601.869	49.32
602.205	49.33
602.542	49.41
602.878	49.49
603.215	49.58
603.551	49.57
603.887	49.66
604.223	49.68
604.56	49.75
604.896	49.75
605.232	49.81
605.568	49.82
605.904	49.94
606.24	49.99
606.576	50.04
606.912	50.11
607.248	50.15
607.583	50.2
607.919	50.26
608.255	50.32
608.591	50.42
608.926	50.44
609.262	50.5
609.597	50.57
609.933	50.62
610.268	50.66
610.604	50.73
610.939	50.74
611.275	50.81
611.61	50.82
611.945	50.93
612.281	50.94
612.616	51.19
612.951	51.16
613.286	51.34
613.621	51.41
613.956	51.52
614.291	51.49
614.626	51.6
614.961	51.61
615.296	51.62
615.631	51.56
615.966	51.6
616.3	51.71
616.635	51.65
616.97	51.64
617.304	51.54
617.639	51.52
617.973	51.63
618.308	51.58
618.642	51.56
618.977	51.56
619.311	51.65
619.646	51.62
619.98	51.68
620.314	51.62
620.648	51.67
620.983	51.6
621.317	51.62
621.651	51.6
621.985	51.59
622.319	51.56
622.653	51.67
622.987	51.75
623.321	51.72
623.655	51.79
623.988	51.85
624.322	51.95
624.656	51.96
624.99	51.84
625.323	51.98
625.657	52.04
625.99	52.05
626.324	52.06
626.657	52.09
626.991	52.12
627.324	52.11
627.658	52.05
627.991	52.19
628.324	52.29
628.657	52.33
628.991	52.4
629.324	52.45
629.657	52.5
629.99	52.55
630.323	52.64
630.656	52.69
630.989	52.69
631.322	52.67
631.655	52.65
631.987	52.84
632.32	52.84
632.653	52.86
632.986	52.88
633.318	52.91
633.651	52.84
633.984	52.78
634.316	52.8
634.649	52.84
634.981	52.73
635.313	52.73
635.646	52.71
635.978	52.73
636.31	52.78
636.643	52.71
636.975	52.67
637.307	52.62
637.639	52.68
637.971	52.68
638.303	52.77
638.635	52.81
638.967	52.79
639.299	52.74
639.631	52.85
639.963	52.79
640.295	52.8
640.626	52.82
640.958	52.85
641.29	52.84
641.621	52.87
641.953	53.02
642.285	52.97
642.616	53.05
642.948	53.04
643.279	53.08
643.61	53.13
643.942	53.14
644.273	53.17
644.604	53.13
644.936	53.2
645.267	53.24
645.598	53.34
645.929	53.26
646.26	53.3
646.591	53.17
646.922	53.2
647.253	53.19
647.584	53.17
647.915	53.22
648.245	53.27
648.576	53.27
648.907	53.27
649.238	53.25
649.568	53.25
649.899	53.21
650.229	53.19
650.56	53.32
650.89	53.31
651.221	53.32
651.551	53.33
651.882	53.32
652.212	53.28
652.542	53.37
652.872	53.59
653.203	53.54
653.533	53.58
653.863	53.75
654.193	53.8
654.523	53.83
654.853	53.76
655.183	53.78
655.513	53.77
655.843	53.64
656.172	53.62
656.502	53.68
656.832	53.79
657.162	53.82
657.491	53.69
657.821	53.76
658.15	53.73
658.48	53.69
658.809	53.66
659.139	53.66
659.468	53.54
659.798	53.49
660.127	53.5
660.456	53.6
660.785	53.55
661.115	53.58
661.444	53.6
661.773	53.62
662.102	53.55
662.431	53.54
662.76	53.57
663.089	53.66
663.418	53.59
663.747	53.46
664.076	53.47
664.404	53.46
664.733	53.4
665.062	53.53
665.39	53.5
665.719	53.41
666.048	53.37
666.376	53.35
666.705	53.21
667.033	53.26
667.362	53.19
667.69	52.99
668.018	52.9
668.347	52.88
668.675	52.95
669.003	53.07
669.331	53.24
669.659	53.36
669.987	53.33
670.315	53.37
670.643	53.48
670.971	53.44
671.299	53.48
671.627	53.55
671.955	53.51
672.283	53.64
672.61	53.88
672.938	54
673.266	54.06
673.593	54.17
673.921	53.99
674.249	54.09
674.576	54.27
674.904	54.43
675.231	54.49
675.558	54.59
675.886	54.61
676.213	54.52
676.54	54.5
676.867	54.59
677.195	54.65
677.522	54.54
677.849	54.61
678.176	54.74
678.503	54.5
678.83	54.47
679.157	54.48
679.484	54.46
679.81	54.48
680.137	54.52
680.464	54.45
680.791	54.7
681.117	54.78
681.444	54.68
681.771	54.6
682.097	54.54
682.424	54.46
682.75	54.47
683.077	54.5
683.403	54.46
683.729	54.33
684.056	54.28
684.382	54.36
684.708	54.24
685.034	54.24
685.36	54.41
685.686	54.47
686.012	54.36
686.339	54.33
686.664	54.24
686.99	54.17
687.316	54.25
687.642	54.23
687.968	54.11
688.294	54.22
688.619	54.2
688.945	54.19
689.271	54.14
689.596	54.11
689.922	54.07
690.247	54.08
690.573	54.17
690.898	54.22
691.224	54.32
691.549	54.36
691.874	54.12
692.2	54.21
692.525	54.03
692.85	54.08
693.175	54.08
693.5	54.12
693.825	54.17
694.15	54.07
694.475	53.97
694.8	53.95
695.125	54.05
695.45	54.23
695.775	54.31
696.099	54.36
696.424	54.26
696.749	54.23
697.073	54.26
697.398	54.37
697.723	54.2
698.047	54.14
698.372	54.19
698.696	54.26
699.02	54.22
699.345	54.32
699.669	54.46
699.993	54.44
700.318	54.36
700.642	54.35
700.966	54.3
701.29	54.25
701.614	54.35
701.938	54.25
702.262	54.12
702.586	54.04
702.91	54.04
703.234	54.14
703.557	54.21
703.881	54.14
704.205	54.12
704.529	54.36
704.852	54.34
705.176	54.22
705.499	54.2
705.823	54.25
706.146	54.2
706.47	53.96
706.793	53.82
707.117	54.04
707.44	54.11
707.763	54.38
708.086	54.44
708.409	54.34
708.733	54.32
709.056	54.28
709.379	54.4
709.702	54.51
710.025	54.55
710.348	54.51
710.671	54.48
710.993	54.41
711.316	54.38
711.639	54.38
711.962	54.49
712.284	54.61
712.607	54.63
712.93	54.78
713.252	54.97
713.575	55.06
713.897	54.95
714.22	54.83
714.542	54.66
714.864	54.82
715.187	54.8
715.509	54.97
715.831	54.86
716.153	54.85
716.475	54.94
716.798	55.01
717.12	55.05
717.442	55.12
717.764	55.15
718.085	55.17
718.407	55.05
718.729	55.01
719.051	54.99
719.373	55.1
719.695	54.98
720.016	54.83
720.338	54.72
720.659	54.68
720.981	54.8
721.302	54.92
721.624	54.87
721.945	54.96
722.267	54.83
722.588	55.03
722.909	55.04
723.231	54.91
723.552	54.9
723.873	54.85
724.194	54.57
724.515	54.46
724.836	54.11
725.157	54.44
725.478	54.55
725.799	54.37
726.12	54.01
726.441	54.07
726.762	54.17
727.083	54.48
727.403	54.68
727.724	54.57
728.045	54.43
728.365	54.24
728.686	54.24
729.006	54.21
729.327	54.36
729.647	54.2
729.967	54.28
730.288	54.25
730.608	54.25
730.928	54.55
731.249	54.63
731.569	54.91
731.889	54.73
732.209	54.63
732.529	54.69
732.849	54.84
733.169	55
733.489	54.96
733.809	54.71
734.129	54.47
734.448	54.48
734.768	54.54
735.088	54.7
735.408	54.49
735.727	54.51
736.047	54.4
736.366	54.6
736.686	54.29
737.005	54.33
737.325	54.39
737.644	54.21
737.963	54.14
738.283	54.08
738.602	53.94
738.921	54.02
739.24	54.04
739.56	54.02
739.879	53.94
740.198	53.69
740.517	53.72
740.836	53.95
741.155	54.13
741.473	54.29
741.792	54.03
742.111	54.1
742.43	54.13
742.748	53.83
743.067	53.89
743.386	54.32
743.704	54.11
744.023	54.29
744.341	54.46
744.66	54.32
744.978	54.34
745.297	54.62
745.615	54.66
745.933	54.76
746.252	54.79
746.57	54.6
746.888	54.94
747.206	55.25
747.524	55.04
747.842	54.75
748.16	54.77
748.478	54.96
748.796	55.29
749.114	55.32
749.432	55.19
749.749	55.03
750.067	54.83
750.385	54.85
750.703	54.44
751.02	54.35
751.338	54.83
751.655	54.89
751.973	54.84
752.29	54.74
752.608	54.75
752.925	55.05
753.242	55.33
753.56	55.24
753.877	55.1
754.194	55.57
754.511	55.96
754.828	55.85
755.145	55.65
755.462	55.46
755.779	55.7
756.096	56.29
756.413	56.05
756.73	55.94
757.047	55.99
757.364	55.91
757.68	55.93
757.997	55.9
758.314	55.57
758.63	55.55
758.947	55.63
759.264	55.72
759.58	55.51
759.896	55.18
760.213	55.07
760.529	55.09
760.846	54.72
761.162	54.83
761.478	54.74
761.794	54.85
762.11	54.88
762.426	54.7
762.743	54.47
763.059	54.51
763.375	54.62
763.69	54.63
764.006	54.76
764.322	54.94
764.638	54.89
764.954	55.2
765.27	55.27
765.585	55.2
765.901	55.21
766.216	55.1
766.532	55.27
766.848	55.5
767.163	55.57
767.478	55.6
767.794	55.55
768.109	55.51
768.424	55.42
768.74	55.38
769.055	55.46
769.37	55.35
769.685	55.52
770	55.9
770.315	55.74
770.63	55.78
770.945	55.64
771.26	55.25
771.575	55.03
771.89	55.29
772.205	55.51
772.52	55.61
772.834	56.03
773.149	55.87
773.464	55.61
773.778	55.66
774.093	55.83
774.407	55.77
774.722	56.32
775.036	56.73
775.351	57.05
775.665	57.23
775.979	57.57
776.293	57.47
776.608	56.78
776.922	57
777.236	56.74
777.55	56.66
777.864	57.02
778.178	56.97
778.492	56.89
778.806	56.65
779.12	56.61
779.434	56.38
779.747	56.52
780.061	56.59
780.375	56.07
780.689	55.71
781.002	55.72
781.316	55.25
781.629	55.4
781.943	55.42
782.256	55.4
782.57	55.47
782.883	55.72
783.196	55.5
783.51	55.51
783.823	55.61
784.136	55.78
784.449	55.69
784.762	55.55
785.075	55.42
785.388	55.02
785.701	54.98
786.014	55.24
786.327	55.08
786.64	55.51
786.953	56.38
787.266	56.39
787.578	56.45
787.891	56.92
788.204	56.95
788.516	56.56
788.829	56.22
789.141	55.85
789.454	55.74
789.766	56.58
790.079	56.5
790.391	56.94
790.703	56.97
791.016	57.22
791.328	57.84
791.64	57.71
791.952	58.16
792.264	58.03
792.576	57.61
792.888	57.58
793.2	57.49
793.512	57.23
793.824	57.13
794.136	56.82
794.448	56.36
794.76	55.96
795.071	55.84
795.383	55.79
795.695	56
796.006	56.03
796.318	55.2
796.629	55.92
796.941	55.75
797.252	55.92
797.564	55.99
797.875	55.86
798.186	55.44
798.497	55.42
798.809	55.53
799.12	55.74
799.431	56
799.742	56.03
800.053	56.28
800.364	56.46
800.675	56.75
800.986	56.13
801.297	56.27
801.608	56.45
801.918	56.89
802.229	56.9
802.54	57.02
802.851	57.61
803.161	57.15
803.472	57.43
803.782	56.73
804.093	56.65
804.403	56.47
804.714	57.13
805.024	56.93
805.334	56.57
805.645	56.14
805.955	55.86
806.265	54.98
806.575	54.26
806.885	54.78
807.195	54.7
807.505	55.83
807.815	55.22
808.125	55.09
808.435	54.27
808.745	54.39
809.055	54.73
809.365	54.3
809.674	53.75
809.984	53.75
810.294	54.22
810.603	54.45
810.913	54.86
811.222	54.74
811.532	55.27
811.841	55.37
812.151	55.31
812.46	55.58
812.769	56.14
813.079	55.94
813.388	55.08
813.697	55.03
814.006	54.69
814.315	54.49
814.624	54.61
814.933	54.99
815.242	55.59
815.551	55.08
815.86	55.65
816.169	55.27
816.478	55.24
816.786	55.33
817.095	54.88
817.404	54.79
817.712	54.71
818.021	54
818.33	54.27
818.638	54.44
818.947	54.97
819.255	55.39
819.563	55.84
819.872	55.84
820.18	55.58
820.488	55.19
820.796	55.47
821.105	55.62
821.413	55.45
821.721	55.2
822.029	55.18
822.337	55.25
822.645	55.65
822.953	55.48
823.26	55.36
823.568	55.26
823.876	55.09
824.184	55.13
824.491	55.44
824.799	55.37
825.107	55.49
825.414	55.46
825.722	55.45
826.029	55.41
826.337	55.61
826.644	55.67
826.951	55.9
827.259	56.17
827.566	56.07
827.873	56.31
828.18	56.28
828.488	56.52
828.795	56.65
829.102	56.56
829.409	56.63
829.716	56.76
830.023	56.94
830.329	57.13
830.636	56.94
830.943	56.6
831.25	56.43
831.557	56.38
831.863	55.6
832.17	55.03
832.476	54.57
832.783	53.93
833.089	54.49
833.396	54.86
833.702	54.49
834.009	54.22
834.315	54.19
834.621	54.42
834.928	54.03
835.234	53.66
835.54	53.87
835.846	54.2
836.152	54.39
836.458	54.13
836.764	53.96
837.07	54.2
837.376	54.07
837.682	54.45
837.988	54.07
838.293	54.74
838.599	54.81
838.905	55.13
839.211	55.14
839.516	54.46
839.822	53.12
840.127	52.46
840.433	53.72
840.738	53.05
841.044	52.69
841.349	53.87
841.654	53.46
841.959	52.37
842.265	50.92
842.57	50.56
842.875	51.25
843.18	50.94
843.485	51.08
843.79	51.61
844.095	51.5
844.4	52.26
844.705	51.09
845.01	51.72
845.315	52.32
845.619	53.03
845.924	52.59
846.229	55.07
846.533	55.6
846.838	54.02
847.142	55.81
847.447	55.29
847.751	52.76
848.056	53.28
848.36	53.4
848.664	55.2
848.969	55.61
849.273	55.67
849.577	56.41
849.881	55.41
850.185	53.73
850.489	53.55
850.794	53.38
851.097	54.05
851.401	53.32
851.705	53.27
852.009	53.2
852.313	52.03
852.617	50.85
852.92	51.39
853.224	50.83
853.528	50.21
853.831	50.89
854.135	52.07
854.438	53.26
854.742	53.42
855.045	53.23
855.349	52.33
855.652	52.38
855.955	52.77
856.259	51.24
856.562	51.81
856.865	55.02
857.168	55.02
857.471	55.38
857.774	55.38
858.077	54.42
858.38	55.84
858.683	57.36
858.986	56.35
859.289	54.94
859.592	54.98
859.894	55.17
860.197	54.7
860.5	56.28
860.802	54.67
861.105	57.39
861.407	56.98
861.71	58.53
862.012	56.64
862.315	55.33
862.617	57.85
862.919	60.47
863.222	58.11
863.524	55.87
863.826	57.7
864.128	58.26
864.43	59.19
864.732	58.2
865.034	59.31
865.336	61.27
865.638	64.59
865.94	62.36
866.242	60.44
866.544	61.38
866.846	58.18
867.147	55.85
867.449	52.32
867.751	53.87
868.052	53.77
868.354	56.55
868.655	57.86
868.957	58.96
869.258	60.35
869.56	57.66
869.861	58.88
870.162	56.13
870.463	58.77
870.765	60.02
871.066	62.14
871.367	62.25
871.668	61.15
871.969	57.71
872.27	59.07
872.571	56.62
872.872	58.95
873.173	59.67
873.473	61.93
873.774	64.57
874.075	64.01
874.376	60.43
874.676	58.75
874.977	58
875.277	55.43
875.578	50.57
875.878	52.11
876.179	52.88
876.479	54.82
876.78	50.69
877.08	47.9
877.38	44.24
877.68	42.83
877.981	41.84
878.281	43.07
878.581	45.84
