Data from BU58130_Reflection_00002.txt Node
Date: Mon Nov 18 16:37:13 EST 2019
User: vgr7
Spectrometer: USB2G7710
Scans to average: 3
Trigger mode: 4
Integration Time (sec): 2.000000E-2
Electric dark correction enabled: true
Boxcar width: 10
XAxis mode: Wavelengths
Number of Pixels in Spectrum: 2048
>>>>>Begin Spectral Data<<<<<
177.721	316.28
178.105	-225.2
178.488	-137.02
178.871	-184.79
179.254	-77.89
179.636	-612.64
180.019	-96.35
180.402	106.9
180.785	35.84
181.168	-0.23
181.55	30.88
181.933	70.81
182.316	94.48
182.698	107.73
183.081	129.89
183.463	173.03
183.846	137.67
184.228	91.71
184.611	313.01
184.993	352.41
185.376	297.69
185.758	323.47
186.14	381.83
186.522	739.9
186.904	1285.65
187.287	1935.98
187.669	-1510.44
188.051	-7461.4
188.433	-4340.86
188.815	-386.46
189.197	-311.92
189.579	-323.57
189.961	-275.99
190.342	-316.17
190.724	-282.44
191.106	-319.55
191.488	-494
191.869	-927.61
192.251	-794.91
192.633	-2593.12
193.014	-17418.52
193.396	7050.62
193.777	7824.64
194.159	842.64
194.54	916.76
194.922	-928.63
195.303	-2224.2
195.684	-915.97
196.065	-358.84
196.447	-244.61
196.828	-301.78
197.209	-266.21
197.59	-251.39
197.971	-243.3
198.352	-138.23
198.733	-153.45
199.114	-165.95
199.495	-118.47
199.876	-78.56
200.257	-71.59
200.638	-65.35
201.018	-96.34
201.399	-76.25
201.78	-67.96
202.16	-78.09
202.541	-115.53
202.922	-147.99
203.302	-107.71
203.683	-117.57
204.063	-128.44
204.444	-125.99
204.824	-119.94
205.204	-116.34
205.585	-125.99
205.965	-121.93
206.345	-196.87
206.725	-207.86
207.106	-194.33
207.486	-380.29
207.866	-606.32
208.246	-500.7
208.626	-404.85
209.006	-381.99
209.386	-407.45
209.766	-417.52
210.145	-310.42
210.525	-304.93
210.905	-351.58
211.285	-1044.93
211.664	-522.35
212.044	-1237.25
212.424	8315.69
212.803	914.06
213.183	2356.83
213.562	-677.78
213.942	-248.3
214.321	-179.25
214.701	-149.91
215.08	-171.46
215.459	-136.45
215.838	-126.93
216.218	-132.72
216.597	-123.24
216.976	-102.89
217.355	-105.77
217.734	-118.64
218.113	-139.49
218.492	-117.21
218.871	-99.89
219.25	-85.02
219.629	-116.16
220.008	-112.46
220.387	-88.87
220.766	-79.2
221.144	-86.54
221.523	-97.29
221.902	-146.99
222.28	-130.97
222.659	-126.07
223.037	-114.19
223.416	-95.59
223.794	-74.38
224.173	-69.96
224.551	-66.76
224.929	-69.71
225.308	-45.24
225.686	-38.05
226.064	-37.28
226.442	-38.6
226.821	-39.03
227.199	-37.04
227.577	-28.61
227.955	-25.92
228.333	-23.68
228.711	-23.64
229.089	-20.69
229.467	-21.23
229.845	-21.02
230.222	-16.58
230.6	-15.03
230.978	-12.09
231.356	-10.42
231.733	-11.39
232.111	-8.07
232.488	-6.87
232.866	-5.97
233.243	-6.93
233.621	-5.32
233.998	-3.98
234.376	-1.82
234.753	-2.24
235.13	-2.72
235.508	-4.1
235.885	-1.7
236.262	-1.55
236.639	-1.96
237.016	-0.97
237.393	1.13
237.77	3.47
238.147	3.02
238.524	2.95
238.901	3.45
239.278	3.83
239.655	4.51
240.032	4.38
240.409	4.17
240.785	4.44
241.162	4.49
241.539	4.21
241.915	4.13
242.292	3.64
242.668	3.74
243.045	4.31
243.421	4.19
243.798	3.92
244.174	3.81
244.551	3.99
244.927	3.83
245.303	4.08
245.679	4.03
246.056	4.19
246.432	4
246.808	3.94
247.184	3.63
247.56	3.42
247.936	3.35
248.312	3.2
248.688	3.32
249.064	3.16
249.44	3.27
249.815	3.28
250.191	3.4
250.567	3.44
250.943	3.05
251.318	3.17
251.694	3.11
252.069	3.19
252.445	3.03
252.82	3.37
253.196	2.86
253.571	2.34
253.947	1.74
254.322	2.33
254.697	2.09
255.073	2.2
255.448	2.11
255.823	2.12
256.198	2.55
256.573	2.47
256.948	2.54
257.323	2.61
257.698	2.86
258.073	2.85
258.448	2.92
258.823	3.14
259.198	3.02
259.573	2.91
259.948	2.86
260.322	2.9
260.697	2.65
261.072	2.72
261.446	3.05
261.821	3.14
262.195	3.16
262.57	3.23
262.944	3.1
263.319	3.23
263.693	3.26
264.067	3.07
264.442	3.23
264.816	3.14
265.19	3.08
265.564	2.85
265.938	2.75
266.313	2.83
266.687	2.6
267.061	2.8
267.435	2.73
267.809	2.78
268.183	2.68
268.556	2.63
268.93	2.75
269.304	2.57
269.678	2.76
270.051	2.63
270.425	2.7
270.799	2.69
271.172	2.7
271.546	2.72
271.919	2.73
272.293	2.7
272.666	2.8
273.04	2.85
273.413	2.9
273.787	2.85
274.16	2.9
274.533	2.96
274.906	2.8
275.279	3.06
275.653	3.16
276.026	3.36
276.399	3.45
276.772	3.41
277.145	3.25
277.518	3.24
277.891	3.15
278.263	2.97
278.636	3.12
279.009	3.17
279.382	3.14
279.755	3.07
280.127	3.12
280.5	3.32
280.872	3.31
281.245	3.33
281.617	3.53
281.99	3.5
282.362	3.72
282.735	3.8
283.107	3.75
283.479	3.77
283.852	3.77
284.224	3.82
284.596	3.65
284.968	3.76
285.34	3.7
285.713	3.78
286.085	3.92
286.457	4
286.829	4.08
287.201	4.11
287.572	4.17
287.944	4.07
288.316	3.92
288.688	3.83
289.06	3.9
289.431	3.88
289.803	3.83
290.175	3.78
290.546	3.87
290.918	3.91
291.289	3.84
291.661	3.81
292.032	3.89
292.403	4.04
292.775	4.17
293.146	4.19
293.517	4.11
293.889	4.06
294.26	4.04
294.631	4.03
295.002	4.03
295.373	4.13
295.744	4.05
296.115	4.07
296.486	4.09
296.857	4.1
297.228	4.12
297.599	4.09
297.97	4.01
298.34	3.97
298.711	3.88
299.082	3.88
299.452	3.88
299.823	3.95
300.194	3.97
300.564	3.88
300.935	3.84
301.305	3.87
301.676	3.91
302.046	4.03
302.416	4.03
302.787	3.98
303.157	3.91
303.527	4.14
303.897	4.1
304.267	4.21
304.637	4.09
305.008	4.1
305.378	4.22
305.748	4.27
306.117	4.2
306.487	4.26
306.857	4.29
307.227	4.18
307.597	3.99
307.967	3.88
308.336	3.93
308.706	4.05
309.076	3.97
309.445	3.92
309.815	3.74
310.184	3.73
310.554	3.84
310.923	3.84
311.293	3.69
311.662	3.78
312.031	3.71
312.401	3.68
312.77	3.61
313.139	3.58
313.508	3.62
313.877	3.66
314.246	3.51
314.616	3.31
314.985	3.38
315.353	3.2
315.722	3.34
316.091	3.18
316.46	3.02
316.829	3.1
317.198	3.04
317.567	3.09
317.935	2.92
318.304	2.8
318.672	2.68
319.041	2.77
319.41	2.69
319.778	2.76
320.147	2.93
320.515	2.99
320.883	2.91
321.252	2.88
321.62	2.89
321.988	2.95
322.357	3.09
322.725	2.95
323.093	3.24
323.461	3.02
323.829	3.13
324.197	3.2
324.565	3.2
324.933	3.25
325.301	3.28
325.669	3.41
326.037	3.39
326.405	3.42
326.772	3.46
327.14	3.55
327.508	3.34
327.875	3.13
328.243	3.05
328.61	2.98
328.978	2.92
329.346	2.99
329.713	3
330.08	3.03
330.448	3.02
330.815	2.81
331.182	2.95
331.55	2.86
331.917	2.9
332.284	2.92
332.651	2.91
333.018	2.94
333.385	2.89
333.752	3
334.119	3.01
334.486	2.84
334.853	2.77
335.22	2.89
335.587	2.95
335.954	2.97
336.32	2.87
336.687	2.83
337.054	2.73
337.42	2.84
337.787	2.81
338.153	2.97
338.52	3.1
338.886	3.01
339.253	3.01
339.619	2.88
339.986	2.87
340.352	2.87
340.718	2.74
341.084	2.7
341.451	2.69
341.817	2.74
342.183	2.79
342.549	2.79
342.915	2.9
343.281	2.97
343.647	3.03
344.013	3.19
344.379	3.12
344.745	3.2
345.11	3.14
345.476	3.15
345.842	3.13
346.208	3.13
346.573	3.17
346.939	3.29
347.304	3.36
347.67	3.28
348.035	3.24
348.401	3.3
348.766	3.32
349.132	3.31
349.497	3.26
349.862	3.44
350.228	3.47
350.593	3.33
350.958	3.34
351.323	3.3
351.688	3.24
352.053	3.35
352.418	3.34
352.783	3.4
353.148	3.38
353.513	3.42
353.878	3.43
354.243	3.55
354.608	3.5
354.972	3.52
355.337	3.55
355.702	3.63
356.066	3.7
356.431	3.69
356.795	3.67
357.16	3.73
357.524	3.53
357.889	3.46
358.253	3.5
358.618	3.54
358.982	3.5
359.346	3.46
359.71	3.44
360.075	3.46
360.439	3.48
360.803	3.5
361.167	3.49
361.531	3.48
361.895	3.41
362.259	3.35
362.623	3.29
362.987	3.33
363.351	3.3
363.714	3.22
364.078	3.19
364.442	3.18
364.806	3.14
365.169	3.2
365.533	3.19
365.896	3.23
366.26	3.2
366.623	3.29
366.987	3.3
367.35	3.31
367.714	3.3
368.077	3.22
368.44	3.18
368.803	3.12
369.167	3.08
369.53	3.02
369.893	3.15
370.256	3.16
370.619	3.12
370.982	3.11
371.345	3.09
371.708	3.17
372.071	3.17
372.434	3.16
372.797	3.22
373.159	3.21
373.522	3.16
373.885	3.25
374.247	3.21
374.61	3.27
374.973	3.26
375.335	3.2
375.698	3.25
376.06	3.27
376.423	3.28
376.785	3.33
377.147	3.4
377.51	3.35
377.872	3.37
378.234	3.36
378.596	3.43
378.958	3.42
379.321	3.44
379.683	3.47
380.045	3.46
380.407	3.4
380.769	3.47
381.13	3.47
381.492	3.35
381.854	3.34
382.216	3.34
382.578	3.32
382.939	3.3
383.301	3.26
383.663	3.25
384.024	3.3
384.386	3.29
384.747	3.32
385.109	3.3
385.47	3.31
385.832	3.32
386.193	3.29
386.554	3.29
386.916	3.25
387.277	3.23
387.638	3.25
387.999	3.25
388.36	3.22
388.721	3.23
389.082	3.27
389.443	3.26
389.804	3.22
390.165	3.23
390.526	3.23
390.887	3.25
391.248	3.28
391.609	3.24
391.969	3.22
392.33	3.17
392.691	3.17
393.051	3.18
393.412	3.17
393.772	3.12
394.133	3.16
394.493	3.17
394.854	3.16
395.214	3.16
395.574	3.19
395.935	3.18
396.295	3.21
396.655	3.2
397.015	3.21
397.376	3.24
397.736	3.26
398.096	3.29
398.456	3.26
398.816	3.27
399.176	3.27
399.535	3.29
399.895	3.3
400.255	3.29
400.615	3.29
400.975	3.31
401.334	3.36
401.694	3.35
402.054	3.35
402.413	3.35
402.773	3.29
403.132	3.3
403.492	3.31
403.851	3.29
404.211	3.32
404.57	3.3
404.929	3.34
405.288	3.36
405.648	3.32
406.007	3.34
406.366	3.34
406.725	3.38
407.084	3.38
407.443	3.38
407.802	3.41
408.161	3.39
408.52	3.38
408.879	3.35
409.238	3.34
409.596	3.34
409.955	3.34
410.314	3.37
410.673	3.37
411.031	3.35
411.39	3.35
411.748	3.35
412.107	3.36
412.465	3.34
412.824	3.32
413.182	3.36
413.54	3.38
413.899	3.38
414.257	3.37
414.615	3.35
414.974	3.35
415.332	3.33
415.69	3.35
416.048	3.33
416.406	3.36
416.764	3.37
417.122	3.36
417.48	3.37
417.838	3.37
418.195	3.37
418.553	3.39
418.911	3.39
419.269	3.38
419.626	3.38
419.984	3.4
420.342	3.4
420.699	3.39
421.057	3.39
421.414	3.37
421.772	3.37
422.129	3.38
422.486	3.39
422.844	3.41
423.201	3.4
423.558	3.41
423.915	3.4
424.273	3.39
424.63	3.41
424.987	3.39
425.344	3.4
425.701	3.39
426.058	3.37
426.415	3.36
426.772	3.35
427.128	3.36
427.485	3.35
427.842	3.35
428.199	3.36
428.555	3.35
428.912	3.39
429.269	3.39
429.625	3.39
429.982	3.39
430.338	3.37
430.695	3.38
431.051	3.36
431.407	3.38
431.764	3.39
432.12	3.38
432.476	3.39
432.832	3.37
433.189	3.38
433.545	3.38
433.901	3.39
434.257	3.4
434.613	3.38
434.969	3.38
435.325	3.37
435.681	3.37
436.036	3.37
436.392	3.35
436.748	3.34
437.104	3.33
437.459	3.32
437.815	3.34
438.171	3.34
438.526	3.37
438.882	3.35
439.237	3.36
439.593	3.37
439.948	3.36
440.304	3.36
440.659	3.37
441.014	3.38
441.369	3.36
441.725	3.35
442.08	3.35
442.435	3.37
442.79	3.37
443.145	3.38
443.5	3.37
443.855	3.37
444.21	3.38
444.565	3.38
444.92	3.39
445.275	3.37
445.629	3.35
445.984	3.34
446.339	3.35
446.693	3.33
447.048	3.32
447.403	3.32
447.757	3.32
448.112	3.33
448.466	3.33
448.82	3.34
449.175	3.34
449.529	3.33
449.883	3.3
450.238	3.29
450.592	3.28
450.946	3.29
451.3	3.27
451.654	3.28
452.008	3.28
452.362	3.26
452.716	3.24
453.07	3.26
453.424	3.25
453.778	3.25
454.132	3.26
454.486	3.25
454.839	3.27
455.193	3.26
455.547	3.25
455.9	3.26
456.254	3.26
456.607	3.27
456.961	3.27
457.314	3.29
457.668	3.29
458.021	3.28
458.375	3.27
458.728	3.27
459.081	3.26
459.434	3.26
459.787	3.26
460.141	3.28
460.494	3.28
460.847	3.29
461.2	3.3
461.553	3.31
461.906	3.34
462.259	3.34
462.611	3.36
462.964	3.36
463.317	3.35
463.67	3.36
464.022	3.36
464.375	3.37
464.728	3.37
465.08	3.36
465.433	3.37
465.785	3.38
466.138	3.39
466.49	3.39
466.843	3.39
467.195	3.38
467.547	3.4
467.899	3.41
468.252	3.39
468.604	3.38
468.956	3.38
469.308	3.38
469.66	3.35
470.012	3.34
470.364	3.34
470.716	3.33
471.068	3.35
471.42	3.34
471.772	3.34
472.123	3.33
472.475	3.33
472.827	3.33
473.178	3.33
473.53	3.33
473.882	3.34
474.233	3.33
474.585	3.32
474.936	3.31
475.288	3.3
475.639	3.31
475.99	3.32
476.342	3.33
476.693	3.31
477.044	3.32
477.395	3.32
477.746	3.31
478.097	3.32
478.448	3.31
478.8	3.32
479.15	3.32
479.501	3.33
479.852	3.35
480.203	3.36
480.554	3.38
480.905	3.39
481.255	3.4
481.606	3.41
481.957	3.42
482.307	3.44
482.658	3.46
483.009	3.46
483.359	3.45
483.709	3.46
484.06	3.47
484.41	3.47
484.761	3.48
485.111	3.49
485.461	3.49
485.811	3.5
486.162	3.49
486.512	3.51
486.862	3.52
487.212	3.52
487.562	3.53
487.912	3.53
488.262	3.53
488.612	3.52
488.961	3.53
489.311	3.54
489.661	3.55
490.011	3.54
490.36	3.54
490.71	3.55
491.06	3.54
491.409	3.54
491.759	3.54
492.108	3.54
492.458	3.53
492.807	3.53
493.157	3.53
493.506	3.53
493.855	3.51
494.204	3.49
494.554	3.49
494.903	3.49
495.252	3.48
495.601	3.48
495.95	3.48
496.299	3.47
496.648	3.45
496.997	3.44
497.346	3.43
497.695	3.44
498.043	3.42
498.392	3.4
498.741	3.41
499.09	3.41
499.438	3.39
499.787	3.4
500.135	3.42
500.484	3.42
500.832	3.45
501.181	3.46
501.529	3.44
501.878	3.46
502.226	3.45
502.574	3.44
502.923	3.44
503.271	3.43
503.619	3.43
503.967	3.44
504.315	3.43
504.663	3.44
505.011	3.44
505.359	3.45
505.707	3.49
506.055	3.47
506.403	3.5
506.751	3.51
507.098	3.53
507.446	3.52
507.794	3.52
508.141	3.51
508.489	3.5
508.837	3.54
509.184	3.53
509.531	3.54
509.879	3.56
510.226	3.58
510.574	3.59
510.921	3.6
511.268	3.61
511.616	3.63
511.963	3.63
512.31	3.62
512.657	3.64
513.004	3.64
513.351	3.66
513.698	3.67
514.045	3.66
514.392	3.67
514.739	3.66
515.086	3.67
515.432	3.68
515.779	3.67
516.126	3.68
516.473	3.68
516.819	3.7
517.166	3.69
517.512	3.68
517.859	3.67
518.205	3.68
518.552	3.68
518.898	3.67
519.245	3.68
519.591	3.69
519.937	3.67
520.283	3.68
520.629	3.67
520.976	3.63
521.322	3.64
521.668	3.63
522.014	3.66
522.36	3.65
522.706	3.65
523.052	3.67
523.398	3.68
523.743	3.66
524.089	3.66
524.435	3.66
524.781	3.67
525.126	3.69
525.472	3.69
525.817	3.71
526.163	3.72
526.509	3.72
526.854	3.72
527.199	3.73
527.545	3.73
527.89	3.74
528.235	3.75
528.581	3.75
528.926	3.76
529.271	3.76
529.616	3.76
529.961	3.75
530.306	3.74
530.651	3.73
530.996	3.75
531.341	3.75
531.686	3.74
532.031	3.73
532.376	3.74
532.721	3.74
533.065	3.75
533.41	3.75
533.755	3.74
534.099	3.74
534.444	3.73
534.788	3.75
535.133	3.74
535.477	3.74
535.822	3.74
536.166	3.74
536.51	3.73
536.855	3.74
537.199	3.76
537.543	3.76
537.887	3.76
538.231	3.75
538.576	3.74
538.92	3.77
539.264	3.78
539.608	3.78
539.951	3.77
540.295	3.75
540.639	3.76
540.983	3.76
541.327	3.75
541.671	3.76
542.014	3.75
542.358	3.75
542.701	3.75
543.045	3.75
543.389	3.76
543.732	3.75
544.075	3.74
544.419	3.74
544.762	3.74
545.105	3.74
545.449	3.74
545.792	3.75
546.135	3.75
546.478	3.75
546.821	3.73
547.165	3.72
547.508	3.72
547.851	3.71
548.194	3.7
548.536	3.71
548.879	3.71
549.222	3.73
549.565	3.72
549.908	3.71
550.25	3.7
550.593	3.7
550.936	3.7
551.278	3.7
551.621	3.72
551.963	3.76
552.306	3.76
552.648	3.75
552.991	3.77
553.333	3.74
553.675	3.75
554.017	3.79
554.36	3.8
554.702	3.82
555.044	3.82
555.386	3.84
555.728	3.86
556.07	3.88
556.412	3.83
556.754	3.83
557.096	3.82
557.438	3.83
557.78	3.8
558.121	3.82
558.463	3.81
558.805	3.79
559.147	3.73
559.488	3.74
559.83	3.76
560.171	3.72
560.513	3.76
560.854	3.75
561.196	3.71
561.537	3.7
561.878	3.68
562.22	3.66
562.561	3.65
562.902	3.62
563.243	3.64
563.584	3.68
563.925	3.71
564.266	3.7
564.607	3.72
564.948	3.75
565.289	3.72
565.63	3.73
565.971	3.73
566.312	3.77
566.653	3.76
566.993	3.76
567.334	3.79
567.675	3.8
568.015	3.79
568.356	3.81
568.696	3.83
569.037	3.81
569.377	3.84
569.718	3.85
570.058	3.86
570.398	3.83
570.739	3.8
571.079	3.79
571.419	3.81
571.759	3.81
572.099	3.8
572.439	3.84
572.779	3.82
573.119	3.86
573.459	3.84
573.799	3.86
574.139	3.82
574.479	3.8
574.819	3.79
575.158	3.8
575.498	3.79
575.838	3.77
576.177	3.78
576.517	3.79
576.856	3.79
577.196	3.77
577.535	3.75
577.875	3.77
578.214	3.77
578.553	3.79
578.893	3.75
579.232	3.76
579.571	3.75
579.91	3.74
580.25	3.69
580.589	3.7
580.928	3.69
581.267	3.71
581.606	3.68
581.945	3.66
582.283	3.65
582.622	3.63
582.961	3.66
583.3	3.67
583.639	3.63
583.977	3.63
584.316	3.66
584.654	3.68
584.993	3.66
585.332	3.69
585.67	3.69
586.008	3.71
586.347	3.71
586.685	3.7
587.024	3.75
587.362	3.78
587.7	3.75
588.038	3.77
588.376	3.81
588.715	3.81
589.053	3.85
589.391	3.87
589.729	3.88
590.067	3.85
590.404	3.83
590.742	3.87
591.08	3.85
591.418	3.83
591.756	3.85
592.093	3.83
592.431	3.8
592.769	3.79
593.106	3.77
593.444	3.73
593.781	3.74
594.119	3.73
594.456	3.68
594.793	3.69
595.131	3.67
595.468	3.66
595.805	3.68
596.143	3.67
596.48	3.65
596.817	3.67
597.154	3.66
597.491	3.68
597.828	3.67
598.165	3.7
598.502	3.68
598.839	3.66
599.176	3.71
599.512	3.69
599.849	3.7
600.186	3.73
600.523	3.78
600.859	3.78
601.196	3.8
601.532	3.84
601.869	3.84
602.205	3.85
602.542	3.83
602.878	3.77
603.215	3.77
603.551	3.79
603.887	3.78
604.223	3.79
604.56	3.8
604.896	3.82
605.232	3.82
605.568	3.85
605.904	3.86
606.24	3.86
606.576	3.87
606.912	3.91
607.248	3.87
607.583	3.85
607.919	3.82
608.255	3.78
608.591	3.76
608.926	3.77
609.262	3.8
609.597	3.8
609.933	3.85
610.268	3.86
610.604	3.86
610.939	3.86
611.275	3.85
611.61	3.83
611.945	3.81
612.281	3.79
612.616	3.79
612.951	3.78
613.286	3.79
613.621	3.77
613.956	3.7
614.291	3.74
614.626	3.71
614.961	3.71
615.296	3.7
615.631	3.72
615.966	3.74
616.3	3.69
616.635	3.73
616.97	3.72
617.304	3.67
617.639	3.71
617.973	3.65
618.308	3.65
618.642	3.68
618.977	3.62
619.311	3.61
619.646	3.62
619.98	3.63
620.314	3.59
620.648	3.62
620.983	3.71
621.317	3.7
621.651	3.73
621.985	3.77
622.319	3.83
622.653	3.85
622.987	3.89
623.321	3.89
623.655	3.88
623.988	3.89
624.322	3.88
624.656	3.83
624.99	3.89
625.323	3.9
625.657	3.9
625.99	3.96
626.324	3.96
626.657	3.95
626.991	3.95
627.324	3.95
627.658	3.97
627.991	3.9
628.324	3.89
628.657	3.93
628.991	3.92
629.324	3.87
629.657	3.84
629.99	3.82
630.323	3.81
630.656	3.82
630.989	3.86
631.322	3.89
631.655	3.9
631.987	3.96
632.32	3.95
632.653	3.97
632.986	3.98
633.318	4.01
633.651	4.01
633.984	3.98
634.316	4
634.649	3.95
634.981	3.98
635.313	4.01
635.646	3.99
635.978	4
636.31	4.03
636.643	4.06
636.975	4.04
637.307	4.02
637.639	4
637.971	3.9
638.303	3.94
638.635	3.85
638.967	3.78
639.299	3.79
639.631	3.74
639.963	3.66
640.295	3.65
640.626	3.7
640.958	3.7
641.29	3.67
641.621	3.68
641.953	3.69
642.285	3.66
642.616	3.68
642.948	3.73
643.279	3.77
643.61	3.8
643.942	3.73
644.273	3.78
644.604	3.8
644.936	3.85
645.267	3.81
645.598	3.9
645.929	3.91
646.26	3.93
646.591	3.96
646.922	3.98
647.253	4.02
647.584	3.94
647.915	3.91
648.245	3.94
648.576	3.98
648.907	4
649.238	4.01
649.568	4
649.899	3.94
650.229	3.92
650.56	3.8
650.89	3.88
651.221	3.85
651.551	3.82
651.882	3.79
652.212	3.77
652.542	3.76
652.872	3.74
653.203	3.72
653.533	3.69
653.863	3.74
654.193	3.73
654.523	3.78
654.853	3.82
655.183	3.9
655.513	3.89
655.843	3.85
656.172	3.82
656.502	3.84
656.832	3.82
657.162	3.8
657.491	3.9
657.821	3.89
658.15	3.89
658.48	3.9
658.809	3.92
659.139	3.97
659.468	3.94
659.798	4.03
660.127	4.06
660.456	4.06
660.785	4.06
661.115	4.11
661.444	4.1
661.773	4.15
662.102	4.05
662.431	4.04
662.76	4.09
663.089	4.1
663.418	4.02
663.747	4.02
664.076	4.05
664.404	3.97
664.733	3.97
665.062	4
665.39	3.99
665.719	3.97
666.048	3.98
666.376	3.97
666.705	3.85
667.033	3.74
667.362	3.7
667.69	3.66
668.018	3.58
668.347	3.57
668.675	3.57
669.003	3.66
669.331	3.68
669.659	3.73
669.987	3.72
670.315	3.71
670.643	3.8
670.971	3.85
671.299	3.87
671.627	3.85
671.955	3.82
672.283	3.83
672.61	3.76
672.938	3.73
673.266	3.78
673.593	3.89
673.921	3.99
674.249	4.07
674.576	3.98
674.904	3.96
675.231	3.94
675.558	3.86
675.886	3.75
676.213	3.74
676.54	3.64
676.867	3.65
677.195	3.59
677.522	3.53
677.849	3.52
678.176	3.52
678.503	3.49
678.83	3.46
679.157	3.49
679.484	3.47
679.81	3.43
680.137	3.44
680.464	3.4
680.791	3.4
681.117	3.36
681.444	3.46
681.771	3.51
682.097	3.54
682.424	3.58
682.75	3.64
683.077	3.65
683.403	3.71
683.729	3.67
684.056	3.8
684.382	3.85
684.708	3.74
685.034	3.75
685.36	3.82
685.686	3.83
686.012	3.79
686.339	3.93
686.664	4.01
686.99	4.07
687.316	4.03
687.642	4.1
687.968	4.11
688.294	4.16
688.619	4.17
688.945	4.08
689.271	4.07
689.596	3.98
689.922	3.93
690.247	3.82
690.573	3.81
690.898	3.8
691.224	3.75
691.549	3.86
691.874	3.85
692.2	3.83
692.525	3.98
692.85	4.09
693.175	4.06
693.5	3.94
693.825	3.87
694.15	3.85
694.475	3.7
694.8	3.69
695.125	3.53
695.45	3.38
695.775	3.44
696.099	3.39
696.424	3.53
696.749	3.55
697.073	3.57
697.398	3.7
697.723	3.71
698.047	3.65
698.372	3.6
698.696	3.57
699.02	3.52
699.345	3.38
699.669	3.41
699.993	3.38
700.318	3.39
700.642	3.41
700.966	3.41
701.29	3.38
701.614	3.48
701.938	3.62
702.262	3.75
702.586	3.8
702.91	3.79
703.234	3.7
703.557	3.74
703.881	3.77
704.205	3.71
704.529	3.59
704.852	3.8
705.176	3.82
705.499	3.8
705.823	3.77
706.146	3.87
706.47	3.78
706.793	3.74
707.117	3.79
707.44	3.67
707.763	3.59
708.086	3.63
708.409	3.59
708.733	3.53
709.056	3.57
709.379	3.58
709.702	3.75
710.025	3.75
710.348	3.77
710.671	3.81
710.993	3.82
711.316	3.9
711.639	3.81
711.962	3.84
712.284	4.02
712.607	4.1
712.93	4.07
713.252	4.06
713.575	4.08
713.897	4.22
714.22	4.3
714.542	4.46
714.864	4.53
715.187	4.44
715.509	4.27
715.831	4.3
716.153	4.27
716.475	4.09
716.798	4.13
717.12	4.18
717.442	4.14
717.764	4.02
718.085	3.93
718.407	3.86
718.729	3.85
719.051	3.82
719.373	3.76
719.695	3.79
720.016	3.77
720.338	3.87
720.659	3.71
720.981	3.77
721.302	3.81
721.624	3.79
721.945	3.91
722.267	4.07
722.588	3.93
722.909	3.86
723.231	3.91
723.552	3.94
723.873	3.83
724.194	3.71
724.515	3.88
724.836	4.07
725.157	4.22
725.478	4.09
725.799	3.94
726.12	3.83
726.441	3.76
726.762	3.78
727.083	3.66
727.403	3.69
727.724	3.78
728.045	3.83
728.365	3.8
728.686	3.7
729.006	3.72
729.327	3.78
729.647	3.86
729.967	3.86
730.288	3.97
730.608	4.03
730.928	4.05
731.249	4
731.569	4.01
731.889	4.04
732.209	4.14
732.529	4.23
732.849	4.39
733.169	4.48
733.489	4.43
733.809	4.62
734.129	4.61
734.448	4.55
734.768	4.46
735.088	4.58
735.408	4.63
735.727	4.63
736.047	4.66
736.366	4.53
736.686	4.46
737.005	4.28
737.325	4.11
737.644	4.27
737.963	4.44
738.283	4.36
738.602	4.26
738.921	4.14
739.24	4.14
739.56	3.96
739.879	3.88
740.198	3.96
740.517	3.73
740.836	3.77
741.155	3.7
741.473	3.67
741.792	3.45
742.111	3.43
742.43	3.51
742.748	3.47
743.067	3.56
743.386	3.72
743.704	3.79
744.023	4.02
744.341	3.95
744.66	3.96
744.978	3.84
745.297	3.68
745.615	3.59
745.933	3.61
746.252	3.83
746.57	3.87
746.888	3.83
747.206	3.72
747.524	3.71
747.842	3.71
748.16	3.68
748.478	3.84
748.796	3.91
749.114	4.04
749.432	3.84
749.749	3.88
750.067	3.82
750.385	3.65
750.703	3.43
751.02	3.53
751.338	3.46
751.655	3.52
751.973	3.79
752.29	4.04
752.608	4.07
752.925	3.97
753.242	3.82
753.56	3.79
753.877	3.89
754.194	3.99
754.511	4.1
754.828	3.83
755.145	3.64
755.462	3.57
755.779	3.45
756.096	3.54
756.413	3.73
756.73	3.81
757.047	3.89
757.364	3.69
757.68	3.63
757.997	3.43
758.314	3.53
758.63	3.43
758.947	3.48
759.264	3.23
759.58	3.24
759.896	3.34
760.213	3.39
760.529	3.58
760.846	3.51
761.162	3.44
761.478	3.91
761.794	3.98
762.11	4.07
762.426	4.06
762.743	4.15
763.059	3.88
763.375	3.94
763.69	3.94
764.006	4.11
764.322	4.06
764.638	4.19
764.954	4.33
765.27	4.37
765.585	4.3
765.901	4.6
766.216	4.66
766.532	4.56
766.848	4.54
767.163	4.51
767.478	4.46
767.794	4.37
768.109	4.13
768.424	4.05
768.74	3.89
769.055	3.82
769.37	3.75
769.685	3.66
770	3.82
770.315	3.96
770.63	4.12
770.945	4.17
771.26	3.98
771.575	3.93
771.89	3.9
772.205	3.7
772.52	3.49
772.834	3.45
773.149	3.33
773.464	3.37
773.778	3.7
774.093	3.57
774.407	3.56
774.722	3.59
775.036	3.62
775.351	3.66
775.665	3.29
775.979	3.24
776.293	3.6
776.608	3.07
776.922	3.12
777.236	2.96
777.55	2.95
777.864	3.25
778.178	3.03
778.492	3.25
778.806	3.06
779.12	3.15
779.434	3.36
779.747	3.69
780.061	3.59
780.375	3.17
780.689	3.49
781.002	3.77
781.316	3.97
781.629	4.29
781.943	4.63
782.256	4.97
782.57	5.04
782.883	5.23
783.196	5.02
783.51	4.75
783.823	5.01
784.136	5.08
784.449	5.04
784.762	5.14
785.075	5.15
785.388	5.52
785.701	5.23
786.014	4.88
786.327	4.7
786.64	5.13
786.953	5.13
787.266	4.59
787.578	4.58
787.891	4.33
788.204	3.94
788.516	3.84
788.829	3.94
789.141	4.09
789.454	3.78
789.766	4.28
790.079	4.67
790.391	4.14
790.703	4.06
791.016	3.9
791.328	3.91
791.64	3.74
791.952	4.06
792.264	4.04
792.576	4.11
792.888	4.52
793.2	4.36
793.512	4.06
793.824	4.37
794.136	4.16
794.448	4.15
794.76	4.31
795.071	3.84
795.383	3.78
795.695	3.58
796.006	3.46
796.318	3.41
796.629	3.23
796.941	3.65
797.252	4.01
797.564	3.96
797.875	4.41
798.186	3.93
798.497	3.96
798.809	4.11
799.12	4.45
799.431	3.41
799.742	3.24
800.053	3.83
800.364	3.89
800.675	4.03
800.986	4.01
801.297	4.25
801.608	4.25
801.918	4.12
802.229	4.26
802.54	4.68
802.851	4.9
803.161	4.62
803.472	4.86
803.782	4.77
804.093	4.81
804.403	4.25
804.714	4.27
805.024	4.11
805.334	4.12
805.645	3.75
805.955	4.7
806.265	5.08
806.575	4.49
806.885	4.61
807.195	4.7
807.505	4.38
807.815	3.96
808.125	4.62
808.435	4.99
808.745	5.17
809.055	5.17
809.365	4.61
809.674	4.85
809.984	3.86
810.294	3.4
810.603	4.18
810.913	4.35
811.222	4.49
811.532	4.57
811.841	5.12
812.151	5.52
812.46	5.26
812.769	4.63
813.079	4.67
813.388	5.04
813.697	4.96
814.006	4.83
814.315	5.37
814.624	4.64
814.933	4.96
815.242	4.71
815.551	4.57
815.86	5.08
816.169	4.49
816.478	5.02
816.786	5.05
817.095	4.3
817.404	4.43
817.712	4.84
818.021	5.41
818.33	5.21
818.638	5.23
818.947	5.91
819.255	6.12
819.563	6.11
819.872	6.1
820.18	6.13
820.488	6.47
820.796	6.34
821.105	6.28
821.413	6.13
821.721	6.2
822.029	6.28
822.337	6.32
822.645	6.44
822.953	6.33
823.26	6.47
823.568	6.35
823.876	6.28
824.184	6.16
824.491	5.95
824.799	5.92
825.107	5.88
825.414	5.77
825.722	5.89
826.029	5.99
826.337	5.93
826.644	5.92
826.951	5.81
827.259	5.59
827.566	5.68
827.873	5.5
828.18	5.23
828.488	4.95
828.795	4.71
829.102	4.55
829.409	4.64
829.716	4.49
830.023	4.52
830.329	4.29
830.636	4.38
830.943	4.13
831.25	4.04
831.557	4.11
831.863	3.83
832.17	3.52
832.476	3.47
832.783	3.51
833.089	3.31
833.396	3.25
833.702	3.88
834.009	3.8
834.315	3.88
834.621	4.07
834.928	4.51
835.234	4.46
835.54	4.36
835.846	4.22
836.152	4.06
836.458	4.25
836.764	4.05
837.07	3.87
837.376	3.55
837.682	3.26
837.988	2.61
838.293	2.66
838.599	2.12
838.905	1.61
839.211	0.33
839.516	-0.36
839.822	-0.95
840.127	-2.1
840.433	-2.46
840.738	-1.99
841.044	-2.08
841.349	-2.83
841.654	-2.54
841.959	-2.01
842.265	-2.14
842.57	-1.38
842.875	-2.77
843.18	-2.08
843.485	-1.81
843.79	-0.41
844.095	-0.6
844.4	-0.77
844.705	-1.45
845.01	-1.91
845.315	-0.91
845.619	-1
845.924	0.28
846.229	1.23
846.533	2.81
846.838	2.71
847.142	1.64
847.447	-0.52
847.751	-1.28
848.056	-2.63
848.36	-2.48
848.664	-2.21
848.969	-3.31
849.273	-1.98
849.577	-2.88
849.881	-4.01
850.185	-4.12
850.489	-2.51
850.794	-2.1
851.097	-3.27
851.401	-0.66
851.705	-2.66
852.009	-0.3
852.313	-1.4
852.617	-1.74
852.92	-1.16
853.224	-0.85
853.528	-1.73
853.831	-0.74
854.135	-0.68
854.438	-0.44
854.742	-1.06
855.045	0.35
855.349	-1.03
855.652	-1.52
855.955	-1.46
856.259	-2.15
856.562	-3.64
856.865	-5.78
857.168	-5.99
857.471	-5.15
857.774	-6.54
858.077	-5.38
858.38	-5.29
858.683	-5.68
858.986	-4.06
859.289	-7.09
859.592	-7.87
859.894	-3.56
860.197	-2.67
860.5	-2.01
860.802	-1.75
861.105	-1.89
861.407	-6.75
861.71	-7.31
862.012	-7.22
862.315	-7.68
862.617	-7.23
862.919	-6.14
863.222	-4.73
863.524	-4.4
863.826	-0.86
864.128	-1.04
864.43	-0.11
864.732	1.13
865.034	1.91
865.336	0.43
865.638	1.91
865.94	1.94
866.242	-1.85
866.544	-1.31
866.846	0.15
867.147	-1.86
867.449	-1.73
867.751	2.6
868.052	4
868.354	2.23
868.655	3.76
868.957	2.58
869.258	2.22
869.56	-0.15
869.861	-0.1
870.162	-0.98
870.463	2.14
870.765	2.13
871.066	0.23
871.367	0.1
871.668	-0.36
871.969	-2.91
872.27	-5
872.571	-4.13
872.872	-2.39
873.173	-4.68
873.473	-3.8
873.774	-2.93
874.075	-2.57
874.376	-3.83
874.676	-0.95
874.977	-2.6
875.277	0.59
875.578	0.87
875.878	2.66
876.179	3.66
876.479	2.07
876.78	-1.08
877.08	-2.89
877.38	-2.61
877.68	-2.42
877.981	-2.22
878.281	1.21
878.581	5.84
