Data from BU58131_Reflection_00007.txt Node
Date: Mon Nov 18 16:32:21 EST 2019
User: vgr7
Spectrometer: USB2G7710
Scans to average: 3
Trigger mode: 4
Integration Time (sec): 2.000000E-2
Electric dark correction enabled: true
Boxcar width: 10
XAxis mode: Wavelengths
Number of Pixels in Spectrum: 2048
>>>>>Begin Spectral Data<<<<<
177.721	48.88
178.105	-183.58
178.488	-249.13
178.871	204.91
179.254	112.84
179.636	-16.07
180.019	-452.49
180.402	33.33
180.785	-290.14
181.168	195.85
181.55	77.64
181.933	78.28
182.316	107.7
182.698	129.77
183.081	175.51
183.463	227
183.846	150.59
184.228	175.14
184.611	205.69
184.993	328.52
185.376	220.02
185.758	199.95
186.14	313.22
186.522	405.27
186.904	337.02
187.287	285.06
187.669	445.17
188.051	527.92
188.433	801.7
188.815	735.93
189.197	1997
189.579	-501.16
189.961	-277.16
190.342	-257.84
190.724	-204.37
191.106	-261.46
191.488	-157.35
191.869	-149.72
192.251	-156.76
192.633	-124.62
193.014	-207.69
193.396	-134.01
193.777	-112.11
194.159	-83.68
194.54	-98.29
194.922	-88.27
195.303	-90.82
195.684	-85.37
196.065	-22.43
196.447	-66.59
196.828	-67.54
197.209	-74.7
197.59	-73.09
197.971	-58.35
198.352	-25.05
198.733	-44.15
199.114	-26.53
199.495	-5.6
199.876	-1.55
200.257	-30.75
200.638	-30.84
201.018	-47.4
201.399	-80.83
201.78	-62.94
202.16	-107.62
202.541	-151.58
202.922	-169.25
203.302	-178.81
203.683	-176.15
204.063	-267.15
204.444	-311.38
204.824	-387.6
205.204	-307.43
205.585	-488.78
205.965	-300
206.345	-486.64
206.725	-1121.05
207.106	-1682.23
207.486	-6559.79
207.866	1483.3
208.246	28708.7
208.626	3003.77
209.006	-1887.69
209.386	1721.92
209.766	2100
210.145	-1706.09
210.525	-349.59
210.905	-344.59
211.285	-349.15
211.664	-370.34
212.044	-279.25
212.424	-184.71
212.803	-183.19
213.183	-194.75
213.562	-156.22
213.942	-190.62
214.321	-131.06
214.701	-127.26
215.08	-136.44
215.459	-138.19
215.838	-96
216.218	-98.42
216.597	-85.62
216.976	-78.43
217.355	-50.06
217.734	-51.61
218.113	-48.31
218.492	-48.97
218.871	-39.56
219.25	-38.73
219.629	-16.94
220.008	-32.88
220.387	-39.84
220.766	-18.7
221.144	-35.67
221.523	-30.42
221.902	-27.04
222.28	-43.84
222.659	-32.59
223.037	-24.5
223.416	-23.1
223.794	-27.81
224.173	-25.37
224.551	-21.16
224.929	-29.03
225.308	-24.27
225.686	-19.82
226.064	-15.76
226.442	-20.61
226.821	-18.24
227.199	-16.53
227.577	-16.94
227.955	-14.97
228.333	-19.5
228.711	-17.98
229.089	-11.34
229.467	-12.47
229.845	-8.62
230.222	-7.84
230.6	-7.96
230.978	-5.49
231.356	-5.15
231.733	-6.03
232.111	-5.44
232.488	-4.08
232.866	-2.93
233.243	-3.56
233.621	-6.03
233.998	-4.86
234.376	-5.02
234.753	-5.96
235.13	-5.07
235.508	-3.99
235.885	-2.06
236.262	-1.86
236.639	-3.04
237.016	-2.89
237.393	-0.51
237.77	-0.25
238.147	-0.14
238.524	0.29
238.901	0.95
239.278	1.58
239.655	2.86
240.032	2.69
240.409	2.42
240.785	2.17
241.162	2.27
241.539	2.48
241.915	2.44
242.292	2.45
242.668	2.75
243.045	2.56
243.421	2.09
243.798	2.08
244.174	2.47
244.551	2.62
244.927	2.74
245.303	2.66
245.679	2.78
246.056	3.01
246.432	2.85
246.808	2.71
247.184	2.44
247.56	2.07
247.936	2.14
248.312	2.2
248.688	2.25
249.064	2.21
249.44	2.29
249.815	2.42
250.191	2.53
250.567	2.21
250.943	2.2
251.318	2.38
251.694	2.57
252.069	2.31
252.445	2.32
252.82	2
253.196	1.79
253.571	1.71
253.947	1.51
254.322	1.68
254.697	1.85
255.073	2.14
255.448	2.38
255.823	2.33
256.198	2.38
256.573	2.51
256.948	2.79
257.323	2.86
257.698	2.85
258.073	2.98
258.448	3.26
258.823	3.27
259.198	3.26
259.573	2.97
259.948	3.08
260.322	3.05
260.697	3.08
261.072	3.13
261.446	3.15
261.821	3.04
262.195	3.18
262.57	3.06
262.944	2.91
263.319	2.79
263.693	2.76
264.067	2.77
264.442	2.85
264.816	2.74
265.19	2.76
265.564	2.68
265.938	2.5
266.313	2.47
266.687	2.59
267.061	2.76
267.435	2.83
267.809	2.91
268.183	2.95
268.556	2.96
268.93	2.87
269.304	2.63
269.678	2.74
270.051	2.59
270.425	2.55
270.799	2.66
271.172	2.81
271.546	2.74
271.919	2.51
272.293	2.3
272.666	2.38
273.04	2.42
273.413	2.37
273.787	2.29
274.16	2.09
274.533	2
274.906	1.94
275.279	1.95
275.653	2.02
276.026	2.07
276.399	2.09
276.772	2.14
277.145	2.23
277.518	2.27
277.891	2.41
278.263	2.33
278.636	2.28
279.009	2.31
279.382	2.62
279.755	2.9
280.127	3.02
280.5	3.01
280.872	3.07
281.245	3.1
281.617	3.31
281.99	3.62
282.362	3.62
282.735	3.41
283.107	3.44
283.479	3.33
283.852	3.41
284.224	3.45
284.596	3.49
284.968	3.59
285.34	3.64
285.713	3.64
286.085	3.86
286.457	3.94
286.829	3.95
287.201	3.89
287.572	3.74
287.944	3.81
288.316	3.88
288.688	3.75
289.06	3.79
289.431	3.71
289.803	3.71
290.175	3.84
290.546	3.96
290.918	4.01
291.289	4.09
291.661	4.05
292.032	4.1
292.403	4.05
292.775	4.01
293.146	4
293.517	4.03
293.889	4.06
294.26	4.09
294.631	4.15
295.002	4.14
295.373	4.36
295.744	4.39
296.115	4.29
296.486	4.42
296.857	4.42
297.228	4.52
297.599	4.54
297.97	4.46
298.34	4.58
298.711	4.72
299.082	4.82
299.452	4.81
299.823	4.93
300.194	5.04
300.564	5.15
300.935	5.3
301.305	5.24
301.676	5.3
302.046	5.48
302.416	5.69
302.787	5.89
303.157	5.96
303.527	5.93
303.897	6.08
304.267	6.21
304.637	6.37
305.008	6.57
305.378	6.65
305.748	6.87
306.117	6.96
306.487	7.07
306.857	7.1
307.227	7.31
307.597	7.39
307.967	7.54
308.336	7.64
308.706	7.64
309.076	7.85
309.445	7.91
309.815	7.94
310.184	7.86
310.554	7.92
310.923	7.99
311.293	8.2
311.662	8.3
312.031	8.32
312.401	8.32
312.77	8.38
313.139	8.49
313.508	8.53
313.877	8.54
314.246	8.47
314.616	8.55
314.985	8.5
315.353	8.43
315.722	8.5
316.091	8.48
316.46	8.51
316.829	8.61
317.198	8.72
317.567	8.7
317.935	8.78
318.304	8.83
318.672	8.74
319.041	8.64
319.41	8.73
319.778	8.85
320.147	9.04
320.515	9.11
320.883	9.02
321.252	9.06
321.62	9.27
321.988	9.48
322.357	9.63
322.725	9.86
323.093	10.06
323.461	10.28
323.829	10.43
324.197	10.64
324.565	10.69
324.933	10.69
325.301	10.68
325.669	10.76
326.037	10.86
326.405	10.99
326.772	11.22
327.14	11.37
327.508	11.43
327.875	11.46
328.243	11.45
328.61	11.54
328.978	11.75
329.346	11.94
329.713	12
330.08	12.08
330.448	12
330.815	11.93
331.182	11.88
331.55	12.07
331.917	12.12
332.284	12.24
332.651	12.2
333.018	12.39
333.385	12.49
333.752	12.52
334.119	12.7
334.486	12.58
334.853	12.57
335.22	12.6
335.587	12.71
335.954	12.71
336.32	12.78
336.687	12.76
337.054	12.67
337.42	12.56
337.787	12.62
338.153	12.65
338.52	12.79
338.886	12.77
339.253	12.77
339.619	12.82
339.986	12.84
340.352	13.04
340.718	13.02
341.084	12.95
341.451	12.92
341.817	12.92
342.183	13.1
342.549	13.12
342.915	13.32
343.281	13.31
343.647	13.42
344.013	13.55
344.379	13.53
344.745	13.52
345.11	13.64
345.476	13.61
345.842	13.77
346.208	13.87
346.573	13.94
346.939	13.95
347.304	13.95
347.67	13.85
348.035	13.87
348.401	13.97
348.766	14.11
349.132	14.28
349.497	14.29
349.862	14.3
350.228	14.27
350.593	14.08
350.958	14.13
351.323	14.14
351.688	14.19
352.053	14.16
352.418	14.18
352.783	14.15
353.148	14.19
353.513	14.09
353.878	14.03
354.243	14.07
354.608	14.02
354.972	13.99
355.337	14.02
355.702	14.07
356.066	14.04
356.431	14.02
356.795	13.97
357.16	13.91
357.524	13.76
357.889	13.8
358.253	13.87
358.618	13.82
358.982	13.78
359.346	13.63
359.71	13.7
360.075	13.65
360.439	13.72
360.803	13.69
361.167	13.7
361.531	13.68
361.895	13.63
362.259	13.54
362.623	13.52
362.987	13.54
363.351	13.47
363.714	13.45
364.078	13.33
364.442	13.19
364.806	13.19
365.169	13.27
365.533	13.26
365.896	13.14
366.26	13.13
366.623	13.09
366.987	13.1
367.35	13.01
367.714	12.99
368.077	12.8
368.44	12.69
368.803	12.62
369.167	12.57
369.53	12.49
369.893	12.49
370.256	12.39
370.619	12.27
370.982	12.13
371.345	12.04
371.708	12.05
372.071	11.95
372.434	11.87
372.797	11.74
373.159	11.58
373.522	11.54
373.885	11.45
374.247	11.42
374.61	11.34
374.973	11.21
375.335	11.09
375.698	11.07
376.06	11.06
376.423	10.96
376.785	10.91
377.147	10.77
377.51	10.68
377.872	10.63
378.234	10.51
378.596	10.44
378.958	10.4
379.321	10.32
379.683	10.28
380.045	10.15
380.407	10.03
380.769	9.96
381.13	9.85
381.492	9.71
381.854	9.64
382.216	9.54
382.578	9.51
382.939	9.37
383.301	9.28
383.663	9.09
384.024	9.02
384.386	8.96
384.747	8.95
385.109	8.89
385.47	8.83
385.832	8.83
386.193	8.74
386.554	8.65
386.916	8.57
387.277	8.49
387.638	8.44
387.999	8.45
388.36	8.38
388.721	8.33
389.082	8.27
389.443	8.15
389.804	8.04
390.165	7.95
390.526	7.93
390.887	7.83
391.248	7.8
391.609	7.72
391.969	7.64
392.33	7.56
392.691	7.5
393.051	7.45
393.412	7.36
393.772	7.3
394.133	7.23
394.493	7.15
394.854	7.09
395.214	7.04
395.574	6.95
395.935	6.86
396.295	6.83
396.655	6.74
397.015	6.64
397.376	6.62
397.736	6.56
398.096	6.45
398.456	6.42
398.816	6.39
399.176	6.31
399.535	6.23
399.895	6.16
400.255	6.11
400.615	6.03
400.975	5.95
401.334	5.86
401.694	5.8
402.054	5.76
402.413	5.72
402.773	5.64
403.132	5.6
403.492	5.58
403.851	5.51
404.211	5.49
404.57	5.49
404.929	5.48
405.288	5.44
405.648	5.44
406.007	5.43
406.366	5.39
406.725	5.37
407.084	5.34
407.443	5.34
407.802	5.3
408.161	5.24
408.52	5.21
408.879	5.21
409.238	5.18
409.596	5.14
409.955	5.12
410.314	5.12
410.673	5.09
411.031	5.07
411.39	5.01
411.748	5.02
412.107	5
412.465	4.94
412.824	4.94
413.182	4.89
413.54	4.84
413.899	4.78
414.257	4.75
414.615	4.72
414.974	4.71
415.332	4.68
415.69	4.68
416.048	4.66
416.406	4.63
416.764	4.61
417.122	4.59
417.48	4.56
417.838	4.54
418.195	4.52
418.553	4.46
418.911	4.44
419.269	4.41
419.626	4.39
419.984	4.35
420.342	4.32
420.699	4.29
421.057	4.27
421.414	4.27
421.772	4.24
422.129	4.22
422.486	4.17
422.844	4.15
423.201	4.12
423.558	4.1
423.915	4.07
424.273	4.05
424.63	4.04
424.987	4.02
425.344	4
425.701	3.96
426.058	3.95
426.415	3.93
426.772	3.9
427.128	3.86
427.485	3.87
427.842	3.86
428.199	3.86
428.555	3.85
428.912	3.84
429.269	3.86
429.625	3.83
429.982	3.81
430.338	3.78
430.695	3.77
431.051	3.76
431.407	3.76
431.764	3.74
432.12	3.7
432.476	3.7
432.832	3.68
433.189	3.68
433.545	3.67
433.901	3.68
434.257	3.67
434.613	3.68
434.969	3.65
435.325	3.65
435.681	3.64
436.036	3.62
436.392	3.61
436.748	3.57
437.104	3.56
437.459	3.56
437.815	3.58
438.171	3.58
438.526	3.61
438.882	3.6
439.237	3.59
439.593	3.62
439.948	3.61
440.304	3.6
440.659	3.61
441.014	3.62
441.369	3.6
441.725	3.61
442.08	3.62
442.435	3.62
442.79	3.59
443.145	3.59
443.5	3.58
443.855	3.57
444.21	3.57
444.565	3.61
444.92	3.6
445.275	3.58
445.629	3.58
445.984	3.54
446.339	3.54
446.693	3.53
447.048	3.5
447.403	3.49
447.757	3.5
448.112	3.49
448.466	3.45
448.82	3.46
449.175	3.45
449.529	3.43
449.883	3.41
450.238	3.41
450.592	3.39
450.946	3.38
451.3	3.38
451.654	3.37
452.008	3.33
452.362	3.32
452.716	3.31
453.07	3.3
453.424	3.3
453.778	3.29
454.132	3.27
454.486	3.26
454.839	3.23
455.193	3.21
455.547	3.21
455.9	3.24
456.254	3.22
456.607	3.22
456.961	3.23
457.314	3.23
457.668	3.21
458.021	3.2
458.375	3.22
458.728	3.21
459.081	3.22
459.434	3.23
459.787	3.23
460.141	3.22
460.494	3.23
460.847	3.24
461.2	3.24
461.553	3.28
461.906	3.29
462.259	3.31
462.611	3.33
462.964	3.35
463.317	3.32
463.67	3.33
464.022	3.33
464.375	3.32
464.728	3.33
465.08	3.36
465.433	3.37
465.785	3.38
466.138	3.38
466.49	3.38
466.843	3.38
467.195	3.4
467.547	3.43
467.899	3.44
468.252	3.41
468.604	3.43
468.956	3.4
469.308	3.4
469.66	3.41
470.012	3.41
470.364	3.42
470.716	3.46
471.068	3.47
471.42	3.48
471.772	3.52
472.123	3.55
472.475	3.56
472.827	3.6
473.178	3.6
473.53	3.61
473.882	3.64
474.233	3.66
474.585	3.65
474.936	3.64
475.288	3.66
475.639	3.7
475.99	3.73
476.342	3.76
476.693	3.78
477.044	3.8
477.395	3.8
477.746	3.8
478.097	3.8
478.448	3.8
478.8	3.81
479.15	3.78
479.501	3.79
479.852	3.79
480.203	3.77
480.554	3.78
480.905	3.78
481.255	3.77
481.606	3.76
481.957	3.76
482.307	3.77
482.658	3.75
483.009	3.75
483.359	3.75
483.709	3.74
484.06	3.73
484.41	3.73
484.761	3.72
485.111	3.71
485.461	3.71
485.811	3.71
486.162	3.7
486.512	3.71
486.862	3.7
487.212	3.69
487.562	3.68
487.912	3.67
488.262	3.67
488.612	3.68
488.961	3.68
489.311	3.68
489.661	3.68
490.011	3.68
490.36	3.66
490.71	3.65
491.06	3.67
491.409	3.67
491.759	3.68
492.108	3.68
492.458	3.7
492.807	3.71
493.157	3.72
493.506	3.74
493.855	3.74
494.204	3.74
494.554	3.75
494.903	3.77
495.252	3.8
495.601	3.81
495.95	3.83
496.299	3.83
496.648	3.86
496.997	3.89
497.346	3.94
497.695	4
498.043	4.03
498.392	4.02
498.741	4.08
499.09	4.1
499.438	4.16
499.787	4.19
500.135	4.23
500.484	4.28
500.832	4.33
501.181	4.39
501.529	4.47
501.878	4.52
502.226	4.61
502.574	4.66
502.923	4.73
503.271	4.8
503.619	4.9
503.967	4.97
504.315	5.02
504.663	5.07
505.011	5.14
505.359	5.21
505.707	5.32
506.055	5.39
506.403	5.48
506.751	5.56
507.098	5.64
507.446	5.74
507.794	5.82
508.141	5.92
508.489	6.01
508.837	6.11
509.184	6.19
509.531	6.27
509.879	6.4
510.226	6.51
510.574	6.6
510.921	6.68
511.268	6.78
511.616	6.89
511.963	7.01
512.31	7.11
512.657	7.23
513.004	7.35
513.351	7.47
513.698	7.6
514.045	7.71
514.392	7.85
514.739	7.97
515.086	8.13
515.432	8.25
515.779	8.37
516.126	8.49
516.473	8.65
516.819	8.8
517.166	8.88
517.512	9
517.859	9.11
518.205	9.25
518.552	9.38
518.898	9.48
519.245	9.6
519.591	9.72
519.937	9.84
520.283	9.98
520.629	10.12
520.976	10.27
521.322	10.39
521.668	10.53
522.014	10.69
522.36	10.81
522.706	10.99
523.052	11.18
523.398	11.36
523.743	11.54
524.089	11.71
524.435	11.91
524.781	12.08
525.126	12.26
525.472	12.39
525.817	12.51
526.163	12.65
526.509	12.77
526.854	12.89
527.199	13.02
527.545	13.11
527.89	13.21
528.235	13.31
528.581	13.43
528.926	13.53
529.271	13.63
529.616	13.76
529.961	13.88
530.306	13.99
530.651	14.12
530.996	14.24
531.341	14.36
531.686	14.49
532.031	14.62
532.376	14.76
532.721	14.89
533.065	15.05
533.41	15.21
533.755	15.36
534.099	15.52
534.444	15.65
534.788	15.8
535.133	15.96
535.477	16.12
535.822	16.29
536.166	16.48
536.51	16.68
536.855	16.86
537.199	17.06
537.543	17.28
537.887	17.47
538.231	17.68
538.576	17.92
538.92	18.12
539.264	18.32
539.608	18.49
539.951	18.69
540.295	18.85
540.639	19.02
540.983	19.18
541.327	19.33
541.671	19.5
542.014	19.65
542.358	19.81
542.701	19.97
543.045	20.14
543.389	20.28
543.732	20.47
544.075	20.64
544.419	20.79
544.762	20.95
545.105	21.16
545.449	21.35
545.792	21.52
546.135	21.72
546.478	21.92
546.821	22.15
547.165	22.36
547.508	22.59
547.851	22.82
548.194	23.06
548.536	23.3
548.879	23.56
549.222	23.84
549.565	24.08
549.908	24.32
550.25	24.52
550.593	24.77
550.936	24.96
551.278	25.2
551.621	25.43
551.963	25.7
552.306	25.9
552.648	26.15
552.991	26.39
553.333	26.63
553.675	26.84
554.017	27.08
554.36	27.33
554.702	27.48
555.044	27.65
555.386	27.83
555.728	28.02
556.07	28.21
556.412	28.37
556.754	28.59
557.096	28.84
557.438	29.11
557.78	29.33
558.121	29.57
558.463	29.79
558.805	30
559.147	30.22
559.488	30.35
559.83	30.5
560.171	30.7
560.513	30.88
560.854	31.1
561.196	31.29
561.537	31.45
561.878	31.67
562.22	31.9
562.561	32.14
562.902	32.35
563.243	32.57
563.584	32.78
563.925	32.92
564.266	33.09
564.607	33.22
564.948	33.41
565.289	33.56
565.63	33.72
565.971	33.89
566.312	34.02
566.653	34.16
566.993	34.35
567.334	34.52
567.675	34.71
568.015	34.84
568.356	34.95
568.696	35.15
569.037	35.31
569.377	35.42
569.718	35.55
570.058	35.63
570.398	35.71
570.739	35.82
571.079	35.94
571.419	36
571.759	36.2
572.099	36.29
572.439	36.41
572.779	36.52
573.119	36.61
573.459	36.69
573.799	36.84
574.139	36.93
574.479	37.03
574.819	37.11
575.158	37.2
575.498	37.31
575.838	37.34
576.177	37.45
576.517	37.53
576.856	37.64
577.196	37.77
577.535	37.88
577.875	37.98
578.214	38.06
578.553	38.22
578.893	38.24
579.232	38.36
579.571	38.46
579.91	38.54
580.25	38.64
580.589	38.75
580.928	38.81
581.267	38.9
581.606	38.94
581.945	39.02
582.283	39.14
582.622	39.18
582.961	39.25
583.3	39.3
583.639	39.38
583.977	39.38
584.316	39.43
584.654	39.51
584.993	39.58
585.332	39.73
585.67	39.74
586.008	39.76
586.347	39.77
586.685	39.82
587.024	39.89
587.362	39.91
587.7	39.97
588.038	40.05
588.376	40.05
588.715	40.17
589.053	40.22
589.391	40.26
589.729	40.31
590.067	40.37
590.404	40.44
590.742	40.55
591.08	40.62
591.418	40.67
591.756	40.71
592.093	40.8
592.431	40.87
592.769	40.95
593.106	41.04
593.444	41.08
593.781	41.12
594.119	41.16
594.456	41.25
594.793	41.26
595.131	41.32
595.468	41.35
595.805	41.27
596.143	41.28
596.48	41.3
596.817	41.36
597.154	41.38
597.491	41.32
597.828	41.34
598.165	41.37
598.502	41.4
598.839	41.43
599.176	41.45
599.512	41.46
599.849	41.47
600.186	41.43
600.523	41.48
600.859	41.57
601.196	41.58
601.532	41.58
601.869	41.62
602.205	41.58
602.542	41.59
602.878	41.68
603.215	41.71
603.551	41.73
603.887	41.78
604.223	41.84
604.56	41.92
604.896	41.98
605.232	41.98
605.568	42.01
605.904	42.06
606.24	42.01
606.576	42.04
606.912	42.04
607.248	42.12
607.583	42.26
607.919	42.3
608.255	42.34
608.591	42.4
608.926	42.44
609.262	42.58
609.597	42.65
609.933	42.7
610.268	42.73
610.604	42.8
610.939	42.84
611.275	42.83
611.61	42.85
611.945	42.74
612.281	42.78
612.616	42.79
612.951	42.82
613.286	42.89
613.621	42.91
613.956	42.94
614.291	42.96
614.626	42.88
614.961	42.85
615.296	42.76
615.631	42.78
615.966	42.79
616.3	42.72
616.635	42.62
616.97	42.63
617.304	42.69
617.639	42.71
617.973	42.62
618.308	42.63
618.642	42.65
618.977	42.72
619.311	42.75
619.646	42.8
619.98	42.76
620.314	42.8
620.648	42.82
620.983	42.89
621.317	42.88
621.651	42.85
621.985	42.88
622.319	42.96
622.653	42.96
622.987	43.03
623.321	43.06
623.655	43.23
623.988	43.27
624.322	43.28
624.656	43.18
624.99	43.28
625.323	43.29
625.657	43.39
625.99	43.44
626.324	43.48
626.657	43.5
626.991	43.52
627.324	43.45
627.658	43.49
627.991	43.45
628.324	43.42
628.657	43.41
628.991	43.36
629.324	43.42
629.657	43.4
629.99	43.38
630.323	43.4
630.656	43.35
630.989	43.35
631.322	43.36
631.655	43.45
631.987	43.37
632.32	43.46
632.653	43.43
632.986	43.42
633.318	43.4
633.651	43.46
633.984	43.45
634.316	43.48
634.649	43.43
634.981	43.53
635.313	43.6
635.646	43.67
635.978	43.67
636.31	43.69
636.643	43.75
636.975	43.81
637.307	43.84
637.639	43.85
637.971	43.82
638.303	43.75
638.635	43.8
638.967	43.88
639.299	43.93
639.631	43.9
639.963	43.83
640.295	43.83
640.626	43.83
640.958	43.91
641.29	43.99
641.621	43.94
641.953	43.78
642.285	43.68
642.616	43.71
642.948	43.73
643.279	43.7
643.61	43.74
643.942	43.71
644.273	43.66
644.604	43.62
644.936	43.6
645.267	43.68
645.598	43.67
645.929	43.77
646.26	43.74
646.591	43.62
646.922	43.62
647.253	43.66
647.584	43.57
647.915	43.48
648.245	43.42
648.576	43.4
648.907	43.54
649.238	43.62
649.568	43.6
649.899	43.69
650.229	43.75
650.56	43.6
650.89	43.59
651.221	43.56
651.551	43.53
651.882	43.48
652.212	43.38
652.542	43.37
652.872	43.21
653.203	43.16
653.533	43.36
653.863	43.48
654.193	43.54
654.523	43.63
654.853	43.64
655.183	43.71
655.513	43.77
655.843	43.66
656.172	43.74
656.502	43.71
656.832	43.69
657.162	43.57
657.491	43.7
657.821	43.67
658.15	43.71
658.48	43.79
658.809	43.83
659.139	43.89
659.468	43.86
659.798	43.88
660.127	43.85
660.456	43.83
660.785	43.77
661.115	43.73
661.444	43.63
661.773	43.62
662.102	43.61
662.431	43.54
662.76	43.59
663.089	43.59
663.418	43.57
663.747	43.56
664.076	43.65
664.404	43.68
664.733	43.68
665.062	43.5
665.39	43.57
665.719	43.5
666.048	43.6
666.376	43.61
666.705	43.67
667.033	43.65
667.362	43.57
667.69	43.55
668.018	43.5
668.347	43.55
668.675	43.62
669.003	43.49
669.331	43.68
669.659	43.82
669.987	43.69
670.315	43.81
670.643	43.73
670.971	43.67
671.299	43.56
671.627	43.56
671.955	43.81
672.283	43.63
672.61	43.76
672.938	43.57
673.266	43.64
673.593	43.68
673.921	43.71
674.249	43.83
674.576	43.78
674.904	43.8
675.231	43.71
675.558	43.6
675.886	43.58
676.213	43.39
676.54	43.36
676.867	43.44
677.195	43.42
677.522	43.41
677.849	43.52
678.176	43.51
678.503	43.61
678.83	43.54
679.157	43.61
679.484	43.57
679.81	43.72
680.137	43.63
680.464	43.61
680.791	43.54
681.117	43.41
681.444	43.54
681.771	43.49
682.097	43.57
682.424	43.69
682.75	43.86
683.077	43.98
683.403	43.97
683.729	44
684.056	43.86
684.382	43.91
684.708	43.9
685.034	43.88
685.36	43.84
685.686	43.86
686.012	43.87
686.339	43.84
686.664	43.7
686.99	43.83
687.316	43.73
687.642	43.77
687.968	43.9
688.294	43.84
688.619	43.9
688.945	44.01
689.271	43.95
689.596	43.85
689.922	43.84
690.247	43.77
690.573	43.71
690.898	43.8
691.224	43.93
691.549	43.86
691.874	44.06
692.2	43.95
692.525	43.9
692.85	44.05
693.175	44.1
693.5	44.24
693.825	44.22
694.15	44.21
694.475	44.23
694.8	44.22
695.125	44.17
695.45	44.13
695.775	44.01
696.099	44.08
696.424	44.1
696.749	44.03
697.073	44.15
697.398	44.09
697.723	44.09
698.047	43.97
698.372	43.84
698.696	43.72
699.02	43.75
699.345	43.76
699.669	43.62
699.993	43.63
700.318	43.51
700.642	43.38
700.966	43.39
701.29	43.4
701.614	43.25
701.938	43.29
702.262	43.29
702.586	43.32
702.91	43.18
703.234	43.13
703.557	43.2
703.881	43.06
704.205	43.16
704.529	43.15
704.852	43.12
705.176	43.24
705.499	43.36
705.823	43.38
706.146	43.36
706.47	43.52
706.793	43.47
707.117	43.51
707.44	43.5
707.763	43.63
708.086	43.47
708.409	43.55
708.733	43.53
709.056	43.67
709.379	43.66
709.702	43.68
710.025	43.6
710.348	43.41
710.671	43.5
710.993	43.5
711.316	43.51
711.639	43.53
711.962	43.54
712.284	43.39
712.607	43.32
712.93	43.35
713.252	43.12
713.575	43.18
713.897	43.4
714.22	43.51
714.542	43.55
714.864	43.53
715.187	43.46
715.509	43.46
715.831	43.32
716.153	43.39
716.475	43.36
716.798	43.69
717.12	43.91
717.442	43.73
717.764	43.68
718.085	43.57
718.407	43.58
718.729	43.66
719.051	43.79
719.373	43.87
719.695	43.72
720.016	43.83
720.338	43.97
720.659	43.76
720.981	43.64
721.302	43.61
721.624	43.68
721.945	43.79
722.267	43.69
722.588	43.63
722.909	43.44
723.231	43.42
723.552	43
723.873	42.84
724.194	42.87
724.515	42.74
724.836	42.88
725.157	42.87
725.478	42.6
725.799	42.58
726.12	42.54
726.441	42.69
726.762	42.89
727.083	42.76
727.403	42.64
727.724	42.79
728.045	42.81
728.365	42.91
728.686	42.93
729.006	43.08
729.327	43.16
729.647	43.31
729.967	43.18
730.288	43.42
730.608	43.51
730.928	43.57
731.249	43.53
731.569	43.51
731.889	43.5
732.209	43.76
732.529	43.75
732.849	43.66
733.169	43.59
733.489	43.46
733.809	43.54
734.129	43.67
734.448	43.57
734.768	43.34
735.088	43.34
735.408	43.42
735.727	43.37
736.047	43.31
736.366	43.13
736.686	43.22
737.005	43.06
737.325	42.94
737.644	42.82
737.963	42.85
738.283	42.77
738.602	42.67
738.921	42.68
739.24	42.88
739.56	42.93
739.879	43.1
740.198	43.09
740.517	42.8
740.836	42.77
741.155	42.71
741.473	42.73
741.792	42.54
742.111	42.44
742.43	42.4
742.748	42.53
743.067	42.52
743.386	42.71
743.704	42.7
744.023	42.68
744.341	42.86
744.66	43.01
744.978	42.78
745.297	42.76
745.615	42.65
745.933	42.46
746.252	42.61
746.57	42.64
746.888	42.47
747.206	42.52
747.524	42.31
747.842	42.36
748.16	42.52
748.478	42.52
748.796	42.56
749.114	42.89
749.432	42.67
749.749	42.63
750.067	42.47
750.385	42.61
750.703	42.79
751.02	42.77
751.338	42.67
751.655	43.02
751.973	43.11
752.29	43.04
752.608	42.96
752.925	42.85
753.242	42.44
753.56	42.64
753.877	42.95
754.194	43.31
754.511	43.65
754.828	43.5
755.145	43.49
755.462	43.54
755.779	43.24
756.096	43.47
756.413	43.9
756.73	44.02
757.047	43.72
757.364	43.69
757.68	43.77
757.997	44.14
758.314	43.86
758.63	44.06
758.947	43.99
759.264	43.73
759.58	43.96
759.896	44.36
760.213	44.36
760.529	44.53
760.846	44.52
761.162	44.18
761.478	44.39
761.794	44.62
762.11	44.57
762.426	44.71
762.743	44.69
763.059	44.45
763.375	44.61
763.69	44.62
764.006	44.7
764.322	44.65
764.638	44.34
764.954	44.61
765.27	44.53
765.585	44.66
765.901	44.81
766.216	44.74
766.532	44.5
766.848	44.62
767.163	44.26
767.478	43.74
767.794	43.9
768.109	43.6
768.424	43.57
768.74	43.77
769.055	43.57
769.37	43.46
769.685	43.6
770	43.52
770.315	43.91
770.63	43.68
770.945	43.69
771.26	44.06
771.575	44.13
771.89	44
772.205	43.82
772.52	43.77
772.834	43.43
773.149	43.75
773.464	43.75
773.778	44.11
774.093	44.3
774.407	44.21
774.722	44.52
775.036	44.85
775.351	44.57
775.665	44.52
775.979	44.86
776.293	44.62
776.608	44.37
776.922	44.08
777.236	44.21
777.55	44.31
777.864	44.12
778.178	43.94
778.492	44.17
778.806	44.33
779.12	44.43
779.434	44.9
779.747	44.86
780.061	44.48
780.375	44.02
780.689	44.15
781.002	44.1
781.316	43.69
781.629	43.06
781.943	43.08
782.256	43.35
782.57	42.78
782.883	42.55
783.196	42.18
783.51	41.95
783.823	41.67
784.136	41.27
784.449	40.89
784.762	40.78
785.075	40.07
785.388	40.02
785.701	40.13
786.014	39.7
786.327	39.75
786.64	39.63
786.953	40.07
787.266	40.39
787.578	40.15
787.891	40.54
788.204	40.76
788.516	40.57
788.829	40.51
789.141	40.57
789.454	40.79
789.766	41.42
790.079	41.76
790.391	41.59
790.703	41.22
791.016	41.24
791.328	41.15
791.64	41.74
791.952	41.59
792.264	41
792.576	41.5
792.888	40.83
793.2	41.44
793.512	41.1
793.824	41.16
794.136	41.68
794.448	41.99
794.76	41.95
795.071	41.95
795.383	41.34
795.695	40.87
796.006	41.06
796.318	40.82
796.629	40.71
796.941	40.74
797.252	41.44
797.564	41.82
797.875	42.08
798.186	42.31
798.497	41.75
798.809	42.26
799.12	41.96
799.431	42.29
799.742	41.82
800.053	42.12
800.364	41.85
800.675	41.41
800.986	41.25
801.297	40.91
801.608	41.01
801.918	41.32
802.229	41.67
802.54	41.66
802.851	41.81
803.161	42.06
803.472	42.3
803.782	41.93
804.093	41.95
804.403	42.39
804.714	42.43
805.024	42.98
805.334	43.7
805.645	43.79
805.955	43.88
806.265	44.19
806.575	43.76
806.885	44.26
807.195	44.4
807.505	44.44
807.815	44.32
808.125	44.12
808.435	44.34
808.745	44.89
809.055	44.96
809.365	45.18
809.674	44.84
809.984	45.63
810.294	45.87
810.603	45.74
810.913	45.08
811.222	44.85
811.532	44.65
811.841	43.58
812.151	43.79
812.46	44
812.769	44.53
813.079	44.43
813.388	44.39
813.697	44.66
814.006	43.97
814.315	44.89
814.624	44.75
814.933	44.87
815.242	45.01
815.551	44.83
815.86	44.42
816.169	44.04
816.478	42.88
816.786	42.55
817.095	42.49
817.404	42.64
817.712	42.28
818.021	42.61
818.33	42.61
818.638	42.36
818.947	42.39
819.255	42.37
819.563	42.53
819.872	41.95
820.18	41.74
820.488	41.81
820.796	42.02
821.105	41.92
821.413	41.95
821.721	41.93
822.029	42.12
822.337	42.12
822.645	42.37
822.953	42.7
823.26	42.92
823.568	43.01
823.876	43.01
824.184	43.07
824.491	43.15
824.799	43.26
825.107	43.18
825.414	43.26
825.722	43.12
826.029	43.07
826.337	43.25
826.644	43.36
826.951	43.53
827.259	43.36
827.566	43.7
827.873	43.63
828.18	43.84
828.488	43.56
828.795	43.59
829.102	43.52
829.409	43.24
829.716	43.05
830.023	43.02
830.329	42.91
830.636	43.12
830.943	42.92
831.25	42.69
831.557	42.45
831.863	42.49
832.17	42.27
832.476	42.5
832.783	43.14
833.089	43.43
833.396	43.82
833.702	43.94
834.009	44.01
834.315	44.45
834.621	43.72
834.928	44.14
835.234	44.67
835.54	44.34
835.846	44.42
836.152	44.15
836.458	44.16
836.764	44.22
837.07	44.21
837.376	44.07
837.682	44.43
837.988	44.63
838.293	44.32
838.599	44.83
838.905	44.98
839.211	43.94
839.516	43.68
839.822	42.83
840.127	43.1
840.433	42.83
840.738	42.93
841.044	43.19
841.349	43.46
841.654	42.93
841.959	43.77
842.265	44.02
842.57	44.85
842.875	44.89
843.18	45.04
843.485	45.32
843.79	46.19
844.095	45.84
844.4	47.72
844.705	47.99
845.01	47.06
845.315	48.15
845.619	48.3
845.924	47.52
846.229	47.86
846.533	46.86
846.838	46.28
847.142	44.65
847.447	43.83
847.751	43.16
848.056	42.65
848.36	41.61
848.664	41.3
848.969	40.97
849.273	40.47
849.577	40.14
849.881	39.21
850.185	39.14
850.489	38.4
850.794	35.56
851.097	35.99
851.401	36.65
851.705	34.39
852.009	33.86
852.313	35.37
852.617	36.38
852.92	38
853.224	38.95
853.528	40.91
853.831	41.52
854.135	41.26
854.438	40.85
854.742	40.36
855.045	40.75
855.349	39.26
855.652	38.86
855.955	41.33
856.259	40.37
856.562	40.53
856.865	42.42
857.168	44.06
857.471	44.57
857.774	45.89
858.077	46.29
858.38	45.82
858.683	44.16
858.986	42.98
859.289	42.06
859.592	40.66
859.894	37.2
860.197	36.57
860.5	36.52
860.802	36.15
861.105	36.65
861.407	35.97
861.71	35.86
862.012	38.44
862.315	35.08
862.617	32.03
862.919	32.17
863.222	30.97
863.524	31.16
863.826	30.32
864.128	31.15
864.43	29.82
864.732	31.05
865.034	33.23
865.336	33.48
865.638	32.95
865.94	32.15
866.242	33.92
866.544	35.67
866.846	37.39
867.147	38.48
867.449	39.49
867.751	39.7
868.052	41.36
868.354	37.25
868.655	37.49
868.957	42.55
869.258	41.73
869.56	41.99
869.861	40.37
870.162	39.18
870.463	38.72
870.765	36.61
871.066	40.02
871.367	36.36
871.668	35.68
871.969	34.29
872.27	36.15
872.571	35.03
872.872	36.85
873.173	35.89
873.473	34.23
873.774	35.3
874.075	36.45
874.376	34.68
874.676	38.47
874.977	38.24
875.277	37.72
875.578	39.06
875.878	39.24
876.179	40.81
876.479	41.5
876.78	40.02
877.08	44.6
877.38	41.33
877.68	45.39
877.981	46.43
878.281	49.12
878.581	48.06
