Data from BU58140_Reflection_00003.txt Node
Date: Tue Nov 19 10:53:25 EST 2019
User: vgr7
Spectrometer: USB2G7710
Scans to average: 3
Trigger mode: 4
Integration Time (sec): 2.000000E-2
Electric dark correction enabled: true
Boxcar width: 10
XAxis mode: Wavelengths
Number of Pixels in Spectrum: 2048
>>>>>Begin Spectral Data<<<<<
177.721	651.8
178.105	-258.97
178.488	-69.32
178.871	-147.62
179.254	-94.44
179.636	415.6
180.019	785.9
180.402	766.67
180.785	97.92
181.168	-561.46
181.55	1547.92
181.933	707.64
182.316	248.5
182.698	131.89
183.081	84.29
183.463	96.74
183.846	175.14
184.228	226.3
184.611	1337.18
184.993	-291.67
185.376	-190.16
185.758	-167.08
186.14	-539.58
186.522	-373
186.904	-208.33
187.287	-206.35
187.669	-116.23
188.051	-119.01
188.433	-140.6
188.815	-130.46
189.197	-115.28
189.579	-95.64
189.961	-77.76
190.342	-62.27
190.724	-86.63
191.106	-90.16
191.488	-68.76
191.869	-41.05
192.251	-25.6
192.633	-40.8
193.014	-54.64
193.396	-53.74
193.777	-40.59
194.159	-27.81
194.54	-13.75
194.922	-23.12
195.303	-22.98
195.684	-27.47
196.065	-30.71
196.447	-21.49
196.828	-30.16
197.209	-13.78
197.59	-7.88
197.971	-0.67
198.352	-10.92
198.733	-8.74
199.114	-2.96
199.495	3.48
199.876	-10.94
200.257	-14.19
200.638	-3.2
201.018	-4.46
201.399	-0.59
201.78	-1.34
202.16	-6.42
202.541	-16.56
202.922	-16.04
203.302	-20.89
203.683	-24.66
204.063	-22.03
204.444	-19.72
204.824	-15.8
205.204	-23.86
205.585	-25.15
205.965	-33.43
206.345	-28.19
206.725	-36.73
207.106	-28.98
207.486	-39.77
207.866	-33.43
208.246	-23.58
208.626	-30.16
209.006	-34.45
209.386	-32.69
209.766	-41.52
210.145	-47.2
210.525	-41.94
210.905	-37.37
211.285	-32.04
211.664	-19.18
212.044	-26.65
212.424	-32.35
212.803	-32.71
213.183	-35.23
213.562	-31.64
213.942	-33.3
214.321	-40.69
214.701	-41.01
215.08	-47.98
215.459	-36.89
215.838	-44.41
216.218	-63.84
216.597	-55.83
216.976	-54.64
217.355	-61.22
217.734	-46.66
218.113	-27.8
218.492	-29.32
218.871	-40.6
219.25	-43.04
219.629	-58.4
220.008	-51.47
220.387	-54.53
220.766	-58.37
221.144	-58.5
221.523	-58.48
221.902	-51.47
222.28	-41.74
222.659	-31.98
223.037	-37.66
223.416	-39.5
223.794	-35.51
224.173	-35.22
224.551	-36.67
224.929	-38
225.308	-32.38
225.686	-32.58
226.064	-40.31
226.442	-32.91
226.821	-24.85
227.199	-24.12
227.577	-21.01
227.955	-15.48
228.333	-16.93
228.711	-13.99
229.089	-13.04
229.467	-14.39
229.845	-17.91
230.222	-14.48
230.6	-12.7
230.978	-9.04
231.356	-10.44
231.733	-9.41
232.111	-9.64
232.488	-9.03
232.866	-6.41
233.243	-6.36
233.621	-6.93
233.998	-3.81
234.376	-4.92
234.753	-5.14
235.13	-4.22
235.508	-4.35
235.885	-5.01
236.262	-4.39
236.639	-4.99
237.016	-5.01
237.393	-2.87
237.77	-0.37
238.147	0.05
238.524	0.26
238.901	-0.18
239.278	-0.15
239.655	0.46
240.032	1.48
240.409	2.02
240.785	2.26
241.162	2.54
241.539	2.95
241.915	2.32
242.292	2.67
242.668	2.96
243.045	3.22
243.421	3.38
243.798	3.18
244.174	3.45
244.551	3.51
244.927	3.76
245.303	3.72
245.679	3.75
246.056	3.64
246.432	3.49
246.808	3.72
247.184	4.22
247.56	3.92
247.936	3.99
248.312	3.98
248.688	3.91
249.064	3.89
249.44	3.73
249.815	3.66
250.191	3.59
250.567	3.34
250.943	3.31
251.318	3.22
251.694	3.21
252.069	3.18
252.445	3.33
252.82	3.26
253.196	3.2
253.571	3.06
253.947	3.1
254.322	3.02
254.697	2.94
255.073	2.45
255.448	2.75
255.823	2.63
256.198	2.87
256.573	2.9
256.948	2.81
257.323	3.12
257.698	3.22
258.073	3.52
258.448	3.62
258.823	3.43
259.198	3.59
259.573	3.63
259.948	3.63
260.322	3.61
260.697	3.79
261.072	3.92
261.446	3.96
261.821	3.83
262.195	3.97
262.57	4.08
262.944	4.22
263.319	4.16
263.693	4.21
264.067	4.16
264.442	4.18
264.816	4.19
265.19	4.04
265.564	4.04
265.938	3.63
266.313	3.65
266.687	3.74
267.061	3.51
267.435	3.61
267.809	3.65
268.183	3.68
268.556	3.38
268.93	3.18
269.304	3.17
269.678	3.39
270.051	3.14
270.425	3
270.799	3.07
271.172	3.15
271.546	3.24
271.919	3.3
272.293	3.38
272.666	3.47
273.04	3.51
273.413	3.51
273.787	3.59
274.16	3.63
274.533	3.75
274.906	3.71
275.279	3.63
275.653	3.41
276.026	3.42
276.399	3.53
276.772	3.53
277.145	3.61
277.518	3.52
277.891	3.7
278.263	3.87
278.636	3.83
279.009	3.8
279.382	3.75
279.755	3.6
280.127	3.61
280.5	3.75
280.872	3.77
281.245	3.86
281.617	3.77
281.99	3.91
282.362	3.99
282.735	4.08
283.107	4.07
283.479	4.23
283.852	4.19
284.224	4.32
284.596	4.21
284.968	4.07
285.34	4.13
285.713	4.16
286.085	3.94
286.457	3.86
286.829	3.92
287.201	3.97
287.572	4.14
287.944	4.16
288.316	4.03
288.688	4.09
289.06	3.99
289.431	4.05
289.803	4.01
290.175	3.94
290.546	3.89
290.918	3.96
291.289	3.91
291.661	3.82
292.032	3.68
292.403	3.79
292.775	3.95
293.146	3.97
293.517	3.87
293.889	3.95
294.26	3.99
294.631	3.98
295.002	3.92
295.373	3.81
295.744	3.76
296.115	3.79
296.486	3.6
296.857	3.67
297.228	3.64
297.599	3.54
297.97	3.53
298.34	3.62
298.711	3.65
299.082	3.67
299.452	3.73
299.823	3.77
300.194	3.82
300.564	3.67
300.935	3.67
301.305	3.62
301.676	3.55
302.046	3.48
302.416	3.44
302.787	3.52
303.157	3.56
303.527	3.53
303.897	3.47
304.267	3.62
304.637	3.69
305.008	3.78
305.378	3.9
305.748	3.78
306.117	3.64
306.487	3.73
306.857	3.87
307.227	3.89
307.597	3.98
307.967	4.05
308.336	4.18
308.706	4.14
309.076	4.32
309.445	4.42
309.815	4.6
310.184	4.62
310.554	4.48
310.923	4.27
311.293	4.29
311.662	4.32
312.031	4.34
312.401	4.27
312.77	4.19
313.139	4.09
313.508	4.19
313.877	4.3
314.246	4.12
314.616	4.07
314.985	4.02
315.353	3.97
315.722	4
316.091	3.94
316.46	3.97
316.829	3.89
317.198	3.9
317.567	3.8
317.935	3.88
318.304	4.17
318.672	4.43
319.041	4.45
319.41	4.47
319.778	4.49
320.147	4.52
320.515	4.49
320.883	4.58
321.252	4.74
321.62	4.74
321.988	4.86
322.357	4.8
322.725	4.91
323.093	4.84
323.461	4.77
323.829	4.79
324.197	4.72
324.565	4.77
324.933	4.77
325.301	4.67
325.669	4.53
326.037	4.37
326.405	4.3
326.772	4.32
327.14	4.25
327.508	4.3
327.875	4.36
328.243	4.45
328.61	4.43
328.978	4.24
329.346	4.27
329.713	4.19
330.08	4.19
330.448	4.12
330.815	4.12
331.182	4.16
331.55	4.15
331.917	4.32
332.284	4.26
332.651	4.18
333.018	4.23
333.385	4.29
333.752	4.33
334.119	4.46
334.486	4.37
334.853	4.43
335.22	4.32
335.587	4.24
335.954	4.13
336.32	4.1
336.687	4.24
337.054	4.27
337.42	4.35
337.787	4.35
338.153	4.28
338.52	4.3
338.886	4.3
339.253	4.23
339.619	4.1
339.986	4.05
340.352	4.16
340.718	4.19
341.084	4.16
341.451	4.19
341.817	4.09
342.183	4.09
342.549	4.11
342.915	4.13
343.281	4.21
343.647	4.3
344.013	4.33
344.379	4.27
344.745	4.25
345.11	4.18
345.476	4.18
345.842	4.26
346.208	4.27
346.573	4.25
346.939	4.3
347.304	4.28
347.67	4.37
348.035	4.23
348.401	4.27
348.766	4.26
349.132	4.28
349.497	4.33
349.862	4.36
350.228	4.35
350.593	4.37
350.958	4.32
351.323	4.26
351.688	4.25
352.053	4.19
352.418	4.14
352.783	4.2
353.148	4.27
353.513	4.27
353.878	4.28
354.243	4.3
354.608	4.34
354.972	4.37
355.337	4.38
355.702	4.5
356.066	4.46
356.431	4.56
356.795	4.58
357.16	4.58
357.524	4.58
357.889	4.57
358.253	4.55
358.618	4.6
358.982	4.64
359.346	4.66
359.71	4.74
360.075	4.83
360.439	4.79
360.803	4.71
361.167	4.7
361.531	4.77
361.895	4.72
362.259	4.71
362.623	4.71
362.987	4.71
363.351	4.65
363.714	4.67
364.078	4.66
364.442	4.6
364.806	4.6
365.169	4.59
365.533	4.59
365.896	4.61
366.26	4.56
366.623	4.55
366.987	4.51
367.35	4.48
367.714	4.42
368.077	4.37
368.44	4.46
368.803	4.48
369.167	4.43
369.53	4.46
369.893	4.51
370.256	4.52
370.619	4.51
370.982	4.5
371.345	4.51
371.708	4.51
372.071	4.47
372.434	4.46
372.797	4.47
373.159	4.4
373.522	4.37
373.885	4.37
374.247	4.36
374.61	4.34
374.973	4.31
375.335	4.3
375.698	4.28
376.06	4.25
376.423	4.24
376.785	4.24
377.147	4.26
377.51	4.2
377.872	4.18
378.234	4.18
378.596	4.2
378.958	4.17
379.321	4.08
379.683	4.13
380.045	4.07
380.407	4.05
380.769	4.09
381.13	4.09
381.492	4.11
381.854	4.11
382.216	4.15
382.578	4.15
382.939	4.15
383.301	4.17
383.663	4.12
384.024	4.13
384.386	4.11
384.747	4.06
385.109	4.05
385.47	4.09
385.832	4.06
386.193	4.04
386.554	4.02
386.916	4.05
387.277	4.03
387.638	4.07
387.999	4.09
388.36	4.11
388.721	4.1
389.082	4.13
389.443	4.11
389.804	4.1
390.165	4.15
390.526	4.15
390.887	4.18
391.248	4.2
391.609	4.23
391.969	4.23
392.33	4.22
392.691	4.23
393.051	4.2
393.412	4.21
393.772	4.22
394.133	4.21
394.493	4.21
394.854	4.24
395.214	4.25
395.574	4.24
395.935	4.21
396.295	4.24
396.655	4.18
397.015	4.19
397.376	4.17
397.736	4.14
398.096	4.12
398.456	4.1
398.816	4.09
399.176	4.02
399.535	4
399.895	4.05
400.255	4.02
400.615	4.01
400.975	4.02
401.334	3.98
401.694	3.99
402.054	4
402.413	3.95
402.773	3.92
403.132	3.92
403.492	3.93
403.851	3.91
404.211	3.91
404.57	3.91
404.929	3.9
405.288	3.86
405.648	3.84
406.007	3.84
406.366	3.82
406.725	3.85
407.084	3.83
407.443	3.8
407.802	3.8
408.161	3.79
408.52	3.78
408.879	3.82
409.238	3.83
409.596	3.83
409.955	3.82
410.314	3.84
410.673	3.81
411.031	3.82
411.39	3.83
411.748	3.88
412.107	3.87
412.465	3.87
412.824	3.9
413.182	3.93
413.54	3.93
413.899	3.93
414.257	3.93
414.615	3.97
414.974	3.99
415.332	4.02
415.69	4.04
416.048	4.05
416.406	4.04
416.764	4.03
417.122	4.01
417.48	4.01
417.838	4.01
418.195	4.02
418.553	4
418.911	3.99
419.269	3.98
419.626	4
419.984	3.99
420.342	3.99
420.699	3.99
421.057	3.98
421.414	3.99
421.772	3.99
422.129	3.96
422.486	3.94
422.844	3.93
423.201	3.92
423.558	3.91
423.915	3.91
424.273	3.9
424.63	3.91
424.987	3.91
425.344	3.91
425.701	3.92
426.058	3.93
426.415	3.92
426.772	3.9
427.128	3.89
427.485	3.9
427.842	3.88
428.199	3.87
428.555	3.86
428.912	3.85
429.269	3.83
429.625	3.86
429.982	3.86
430.338	3.87
430.695	3.86
431.051	3.86
431.407	3.85
431.764	3.84
432.12	3.86
432.476	3.89
432.832	3.88
433.189	3.86
433.545	3.85
433.901	3.86
434.257	3.87
434.613	3.87
434.969	3.83
435.325	3.84
435.681	3.85
436.036	3.85
436.392	3.84
436.748	3.86
437.104	3.85
437.459	3.85
437.815	3.86
438.171	3.87
438.526	3.89
438.882	3.89
439.237	3.91
439.593	3.91
439.948	3.88
440.304	3.87
440.659	3.88
441.014	3.86
441.369	3.88
441.725	3.9
442.08	3.88
442.435	3.92
442.79	3.92
443.145	3.92
443.5	3.93
443.855	3.92
444.21	3.92
444.565	3.93
444.92	3.94
445.275	3.92
445.629	3.91
445.984	3.89
446.339	3.88
446.693	3.87
447.048	3.85
447.403	3.85
447.757	3.85
448.112	3.85
448.466	3.86
448.82	3.84
449.175	3.8
449.529	3.81
449.883	3.78
450.238	3.78
450.592	3.76
450.946	3.75
451.3	3.77
451.654	3.75
452.008	3.72
452.362	3.7
452.716	3.7
453.07	3.71
453.424	3.71
453.778	3.7
454.132	3.67
454.486	3.69
454.839	3.69
455.193	3.69
455.547	3.69
455.9	3.69
456.254	3.7
456.607	3.72
456.961	3.71
457.314	3.71
457.668	3.72
458.021	3.73
458.375	3.72
458.728	3.69
459.081	3.71
459.434	3.73
459.787	3.74
460.141	3.75
460.494	3.75
460.847	3.75
461.2	3.76
461.553	3.79
461.906	3.8
462.259	3.79
462.611	3.78
462.964	3.79
463.317	3.78
463.67	3.78
464.022	3.78
464.375	3.78
464.728	3.8
465.08	3.79
465.433	3.8
465.785	3.82
466.138	3.85
466.49	3.85
466.843	3.85
467.195	3.84
467.547	3.83
467.899	3.86
468.252	3.85
468.604	3.85
468.956	3.85
469.308	3.84
469.66	3.86
470.012	3.88
470.364	3.89
470.716	3.93
471.068	3.94
471.42	3.97
471.772	4
472.123	3.99
472.475	4.01
472.827	4.03
473.178	4.02
473.53	4
473.882	3.99
474.233	3.98
474.585	3.98
474.936	4
475.288	3.99
475.639	4.01
475.99	4.01
476.342	4.02
476.693	4.01
477.044	3.99
477.395	4
477.746	3.97
478.097	3.95
478.448	3.94
478.8	3.93
479.15	3.91
479.501	3.91
479.852	3.9
480.203	3.9
480.554	3.92
480.905	3.94
481.255	3.95
481.606	3.97
481.957	3.99
482.307	3.98
482.658	3.98
483.009	3.98
483.359	3.98
483.709	3.98
484.06	3.97
484.41	3.98
484.761	3.98
485.111	3.99
485.461	3.99
485.811	3.99
486.162	3.99
486.512	3.99
486.862	3.99
487.212	3.99
487.562	3.98
487.912	3.98
488.262	3.97
488.612	3.96
488.961	3.95
489.311	3.94
489.661	3.95
490.011	3.93
490.36	3.91
490.71	3.9
491.06	3.9
491.409	3.91
491.759	3.9
492.108	3.89
492.458	3.89
492.807	3.88
493.157	3.89
493.506	3.88
493.855	3.89
494.204	3.89
494.554	3.9
494.903	3.91
495.252	3.92
495.601	3.93
495.95	3.95
496.299	3.96
496.648	3.95
496.997	3.95
497.346	3.98
497.695	3.99
498.043	4.01
498.392	4.01
498.741	4.01
499.09	4.03
499.438	4.05
499.787	4.06
500.135	4.06
500.484	4.06
500.832	4.08
501.181	4.09
501.529	4.11
501.878	4.1
502.226	4.12
502.574	4.11
502.923	4.11
503.271	4.1
503.619	4.12
503.967	4.12
504.315	4.13
504.663	4.13
505.011	4.15
505.359	4.15
505.707	4.17
506.055	4.19
506.403	4.19
506.751	4.19
507.098	4.2
507.446	4.21
507.794	4.23
508.141	4.24
508.489	4.24
508.837	4.26
509.184	4.28
509.531	4.28
509.879	4.3
510.226	4.3
510.574	4.32
510.921	4.31
511.268	4.33
511.616	4.35
511.963	4.36
512.31	4.37
512.657	4.39
513.004	4.38
513.351	4.41
513.698	4.41
514.045	4.42
514.392	4.43
514.739	4.46
515.086	4.48
515.432	4.49
515.779	4.48
516.126	4.51
516.473	4.48
516.819	4.49
517.166	4.51
517.512	4.52
517.859	4.52
518.205	4.54
518.552	4.55
518.898	4.54
519.245	4.55
519.591	4.55
519.937	4.56
520.283	4.56
520.629	4.56
520.976	4.56
521.322	4.56
521.668	4.56
522.014	4.54
522.36	4.55
522.706	4.54
523.052	4.59
523.398	4.57
523.743	4.6
524.089	4.63
524.435	4.62
524.781	4.65
525.126	4.67
525.472	4.68
525.817	4.69
526.163	4.69
526.509	4.7
526.854	4.71
527.199	4.73
527.545	4.75
527.89	4.75
528.235	4.76
528.581	4.77
528.926	4.79
529.271	4.8
529.616	4.8
529.961	4.8
530.306	4.79
530.651	4.8
530.996	4.81
531.341	4.81
531.686	4.81
532.031	4.8
532.376	4.8
532.721	4.8
533.065	4.8
533.41	4.81
533.755	4.82
534.099	4.81
534.444	4.79
534.788	4.77
535.133	4.79
535.477	4.78
535.822	4.77
536.166	4.77
536.51	4.77
536.855	4.77
537.199	4.78
537.543	4.81
537.887	4.82
538.231	4.83
538.576	4.83
538.92	4.84
539.264	4.87
539.608	4.86
539.951	4.86
540.295	4.87
540.639	4.87
540.983	4.86
541.327	4.87
541.671	4.89
542.014	4.91
542.358	4.9
542.701	4.91
543.045	4.92
543.389	4.92
543.732	4.92
544.075	4.93
544.419	4.92
544.762	4.91
545.105	4.89
545.449	4.88
545.792	4.88
546.135	4.87
546.478	4.86
546.821	4.88
547.165	4.89
547.508	4.88
547.851	4.88
548.194	4.87
548.536	4.88
548.879	4.88
549.222	4.88
549.565	4.86
549.908	4.84
550.25	4.83
550.593	4.8
550.936	4.81
551.278	4.81
551.621	4.82
551.963	4.8
552.306	4.81
552.648	4.79
552.991	4.77
553.333	4.78
553.675	4.79
554.017	4.77
554.36	4.76
554.702	4.76
555.044	4.77
555.386	4.81
555.728	4.8
556.07	4.81
556.412	4.78
556.754	4.8
557.096	4.83
557.438	4.85
557.78	4.89
558.121	4.92
558.463	4.9
558.805	4.89
559.147	4.89
559.488	4.9
559.83	4.9
560.171	4.92
560.513	4.91
560.854	4.9
561.196	4.9
561.537	4.88
561.878	4.87
562.22	4.85
562.561	4.83
562.902	4.85
563.243	4.86
563.584	4.89
563.925	4.9
564.266	4.89
564.607	4.87
564.948	4.86
565.289	4.86
565.63	4.87
565.971	4.87
566.312	4.86
566.653	4.84
566.993	4.85
567.334	4.86
567.675	4.88
568.015	4.89
568.356	4.87
568.696	4.89
569.037	4.89
569.377	4.91
569.718	4.93
570.058	4.92
570.398	4.88
570.739	4.9
571.079	4.89
571.419	4.9
571.759	4.9
572.099	4.89
572.439	4.88
572.779	4.87
573.119	4.88
573.459	4.9
573.799	4.92
574.139	4.92
574.479	4.91
574.819	4.91
575.158	4.88
575.498	4.9
575.838	4.92
576.177	4.9
576.517	4.87
576.856	4.84
577.196	4.84
577.535	4.84
577.875	4.8
578.214	4.82
578.553	4.79
578.893	4.79
579.232	4.78
579.571	4.77
579.91	4.76
580.25	4.77
580.589	4.79
580.928	4.77
581.267	4.74
581.606	4.72
581.945	4.74
582.283	4.77
582.622	4.8
582.961	4.81
583.3	4.85
583.639	4.9
583.977	4.91
584.316	4.92
584.654	4.95
584.993	4.96
585.332	4.92
585.67	4.94
586.008	4.96
586.347	4.98
586.685	4.98
587.024	5
587.362	4.99
587.7	4.99
588.038	5.05
588.376	5.1
588.715	5.12
589.053	5.08
589.391	5.09
589.729	5.03
590.067	4.99
590.404	5.01
590.742	5.02
591.08	5.01
591.418	4.98
591.756	5
592.093	5.02
592.431	5.07
592.769	5.09
593.106	5.07
593.444	5.08
593.781	5.11
594.119	5.1
594.456	5.1
594.793	5.07
595.131	5.02
595.468	5.02
595.805	5.03
596.143	5.05
596.48	5.01
596.817	5.05
597.154	5.03
597.491	5.02
597.828	4.99
598.165	4.99
598.502	5
598.839	4.98
599.176	5
599.512	4.94
599.849	4.92
600.186	4.94
600.523	4.95
600.859	4.94
601.196	4.91
601.532	4.9
601.869	4.91
602.205	4.92
602.542	4.95
602.878	4.94
603.215	4.96
603.551	4.98
603.887	4.95
604.223	5
604.56	5.02
604.896	5.01
605.232	5.02
605.568	5.02
605.904	5.04
606.24	5.03
606.576	5.07
606.912	5.06
607.248	5.08
607.583	5.08
607.919	5.09
608.255	5.13
608.591	5.15
608.926	5.16
609.262	5.14
609.597	5.1
609.933	5.11
610.268	5.08
610.604	5.07
610.939	5.12
611.275	5.1
611.61	5.08
611.945	5.09
612.281	5.1
612.616	5.1
612.951	5.08
613.286	5.08
613.621	5.04
613.956	5.08
614.291	5.03
614.626	5.02
614.961	5.01
615.296	5.01
615.631	5
615.966	5.01
616.3	5.07
616.635	5.15
616.97	5.1
617.304	5.14
617.639	5.16
617.973	5.09
618.308	5.13
618.642	5.09
618.977	5.1
619.311	5.12
619.646	5.13
619.98	5.14
620.314	5.15
620.648	5.17
620.983	5.15
621.317	5.19
621.651	5.19
621.985	5.16
622.319	5.2
622.653	5.19
622.987	5.16
623.321	5.15
623.655	5.09
623.988	5.13
624.322	5.11
624.656	5.12
624.99	5.14
625.323	5.06
625.657	5.12
625.99	5.17
626.324	5.13
626.657	5.13
626.991	5.16
627.324	5.17
627.658	5.15
627.991	5.15
628.324	5.11
628.657	5.1
628.991	5.07
629.324	5.04
629.657	5.02
629.99	5.05
630.323	5.03
630.656	5.03
630.989	5
631.322	5
631.655	4.99
631.987	5.01
632.32	5.09
632.653	5.05
632.986	5.04
633.318	5.1
633.651	5.12
633.984	5.07
634.316	5.06
634.649	5.06
634.981	5.06
635.313	5.1
635.646	5.1
635.978	5.18
636.31	5.15
636.643	5.22
636.975	5.26
637.307	5.29
637.639	5.3
637.971	5.29
638.303	5.22
638.635	5.16
638.967	5.16
639.299	5.12
639.631	5.1
639.963	5.02
640.295	4.96
640.626	4.97
640.958	4.96
641.29	4.97
641.621	4.98
641.953	4.96
642.285	4.97
642.616	4.99
642.948	4.99
643.279	5
643.61	4.96
643.942	4.89
644.273	4.82
644.604	4.82
644.936	4.83
645.267	4.88
645.598	4.92
645.929	4.9
646.26	4.9
646.591	4.93
646.922	5
647.253	5.01
647.584	4.97
647.915	4.99
648.245	4.99
648.576	4.99
648.907	5.01
649.238	4.95
649.568	4.97
649.899	4.95
650.229	5
650.56	4.99
650.89	5.04
651.221	5.11
651.551	5.14
651.882	5.22
652.212	5.22
652.542	5.24
652.872	5.22
653.203	5.26
653.533	5.28
653.863	5.31
654.193	5.27
654.523	5.26
654.853	5.25
655.183	5.23
655.513	5.23
655.843	5.25
656.172	5.34
656.502	5.27
656.832	5.24
657.162	5.2
657.491	5.19
657.821	5.19
658.15	5.2
658.48	5.2
658.809	5.16
659.139	5.14
659.468	5.17
659.798	5.28
660.127	5.21
660.456	5.16
660.785	5.13
661.115	5.11
661.444	5.12
661.773	5.21
662.102	5.23
662.431	5.22
662.76	5.18
663.089	5.22
663.418	5.26
663.747	5.31
664.076	5.28
664.404	5.32
664.733	5.28
665.062	5.23
665.39	5.2
665.719	5.16
666.048	5.18
666.376	5.13
666.705	5.03
667.033	5.13
667.362	5.12
667.69	5.07
668.018	5.2
668.347	5.15
668.675	5.09
669.003	4.99
669.331	5.05
669.659	5.06
669.987	4.97
670.315	5.01
670.643	4.97
670.971	4.98
671.299	4.94
671.627	4.97
671.955	4.88
672.283	4.85
672.61	4.88
672.938	4.9
673.266	4.88
673.593	4.96
673.921	4.9
674.249	4.93
674.576	5.02
674.904	4.97
675.231	5.08
675.558	5.09
675.886	5.21
676.213	5.2
676.54	5.26
676.867	5.27
677.195	5.28
677.522	5.29
677.849	5.38
678.176	5.42
678.503	5.37
678.83	5.38
679.157	5.37
679.484	5.4
679.81	5.42
680.137	5.45
680.464	5.42
680.791	5.43
681.117	5.47
681.444	5.43
681.771	5.38
682.097	5.37
682.424	5.35
682.75	5.31
683.077	5.27
683.403	5.22
683.729	5.15
684.056	5.1
684.382	5.07
684.708	5.04
685.034	5.07
685.36	5.01
685.686	5.15
686.012	5.25
686.339	5.24
686.664	5.24
686.99	5.24
687.316	5.16
687.642	5.17
687.968	5.21
688.294	5.14
688.619	5.16
688.945	5.1
689.271	5.13
689.596	5.14
689.922	5.18
690.247	5.26
690.573	5.34
690.898	5.42
691.224	5.46
691.549	5.39
691.874	5.35
692.2	5.5
692.525	5.36
692.85	5.31
693.175	5.3
693.5	5.24
693.825	5.31
694.15	5.44
694.475	5.35
694.8	5.21
695.125	5.34
695.45	5.29
695.775	5.38
696.099	5.38
696.424	5.47
696.749	5.57
697.073	5.53
697.398	5.54
697.723	5.53
698.047	5.54
698.372	5.62
698.696	5.62
699.02	5.55
699.345	5.69
699.669	5.71
699.993	5.71
700.318	5.78
700.642	5.65
700.966	5.67
701.29	5.81
701.614	5.89
701.938	5.83
702.262	5.94
702.586	5.97
702.91	5.95
703.234	5.83
703.557	5.75
703.881	5.77
704.205	5.78
704.529	5.75
704.852	5.79
705.176	5.76
705.499	5.69
705.823	5.76
706.146	5.61
706.47	5.58
706.793	5.55
707.117	5.55
707.44	5.66
707.763	5.53
708.086	5.4
708.409	5.51
708.733	5.51
709.056	5.56
709.379	5.51
709.702	5.57
710.025	5.58
710.348	5.54
710.671	5.47
710.993	5.48
711.316	5.59
711.639	5.58
711.962	5.66
712.284	5.79
712.607	5.75
712.93	5.82
713.252	5.81
713.575	5.94
713.897	5.9
714.22	5.81
714.542	5.87
714.864	5.9
715.187	5.92
715.509	5.9
715.831	5.77
716.153	5.79
716.475	5.76
716.798	5.78
717.12	5.78
717.442	5.81
717.764	5.79
718.085	5.74
718.407	5.72
718.729	5.7
719.051	5.64
719.373	5.67
719.695	5.78
720.016	5.79
720.338	5.64
720.659	5.72
720.981	5.77
721.302	5.88
721.624	5.81
721.945	5.64
722.267	5.62
722.588	5.53
722.909	5.43
723.231	5.33
723.552	5.32
723.873	5.43
724.194	5.45
724.515	5.46
724.836	5.51
725.157	5.5
725.478	5.55
725.799	5.51
726.12	5.59
726.441	5.55
726.762	5.49
727.083	5.7
727.403	5.67
727.724	5.79
728.045	5.74
728.365	5.73
728.686	5.8
729.006	5.85
729.327	6.02
729.647	6.06
729.967	6.06
730.288	5.97
730.608	5.96
730.928	6.04
731.249	5.93
731.569	5.73
731.889	5.72
732.209	5.59
732.529	5.5
732.849	5.43
733.169	5.4
733.489	5.39
733.809	5.1
734.129	5.05
734.448	4.93
734.768	4.87
735.088	5.04
735.408	4.92
735.727	5.03
736.047	5.03
736.366	4.92
736.686	4.99
737.005	5.1
737.325	4.97
737.644	4.78
737.963	4.97
738.283	4.97
738.602	5.14
738.921	5.31
739.24	5.59
739.56	5.65
739.879	5.7
740.198	5.7
740.517	5.77
740.836	5.88
741.155	6.08
741.473	6.01
741.792	5.75
742.111	5.98
742.43	6.1
742.748	6.09
743.067	6.33
743.386	6.27
743.704	6.19
744.023	6.28
744.341	6.51
744.66	6.41
744.978	6.55
745.297	6.44
745.615	6.17
745.933	6.1
746.252	6.01
746.57	5.92
746.888	6.27
747.206	6.5
747.524	6.49
747.842	6.24
748.16	6.49
748.478	6.66
748.796	6.53
749.114	6.37
749.432	6.37
749.749	6.25
750.067	6.19
750.385	6.3
750.703	6.38
751.02	6.28
751.338	6.18
751.655	6.34
751.973	6.13
752.29	6.17
752.608	5.93
752.925	5.84
753.242	5.99
753.56	5.79
753.877	5.54
754.194	5.64
754.511	5.87
754.828	5.47
755.145	5.45
755.462	5.56
755.779	5.7
756.096	5.74
756.413	6.03
756.73	6.13
757.047	6.02
757.364	5.76
757.68	6.01
757.997	6.2
758.314	6.27
758.63	6.45
758.947	6.52
759.264	6.71
759.58	6.94
759.896	6.62
760.213	6.47
760.529	6.64
760.846	6.61
761.162	6.63
761.478	7.01
761.794	7.21
762.11	7.09
762.426	6.79
762.743	6.84
763.059	6.63
763.375	6.7
763.69	6.74
764.006	6.98
764.322	6.78
764.638	6.77
764.954	6.67
765.27	6.7
765.585	6.74
765.901	6.62
766.216	6.49
766.532	6.41
766.848	6.55
767.163	6.41
767.478	6.13
767.794	5.97
768.109	5.87
768.424	5.62
768.74	5.56
769.055	6.01
769.37	5.85
769.685	5.9
770	5.86
770.315	6.01
770.63	5.97
770.945	6.23
771.26	6.2
771.575	5.95
771.89	5.94
772.205	5.9
772.52	6.05
772.834	6.23
773.149	6.59
773.464	6.56
773.778	6.54
774.093	6.89
774.407	6.99
774.722	7.08
775.036	7.13
775.351	7.26
775.665	6.71
775.979	6.7
776.293	6.62
776.608	6.74
776.922	6.31
777.236	6.17
777.55	5.62
777.864	5.47
778.178	5.48
778.492	5.63
778.806	5.47
779.12	5.58
779.434	5.89
779.747	5.9
780.061	5.65
780.375	5.83
780.689	5.88
781.002	5.95
781.316	5.81
781.629	5.85
781.943	5.74
782.256	5.53
782.57	5.55
782.883	5.8
783.196	5.55
783.51	5.56
783.823	5.76
784.136	5.93
784.449	5.65
784.762	5.86
785.075	5.57
785.388	5.82
785.701	5.92
786.014	5.35
786.327	5.6
786.64	6.13
786.953	6.07
787.266	5.84
787.578	6
787.891	6.09
788.204	6.18
788.516	6.26
788.829	7.07
789.141	7.23
789.454	7.09
789.766	7.88
790.079	8.12
790.391	7.63
790.703	7.75
791.016	8.09
791.328	8.08
791.64	8.25
791.952	8.09
792.264	7.66
792.576	8
792.888	7.69
793.2	7.74
793.512	7.66
793.824	7.66
794.136	7.06
794.448	6.97
794.76	7.3
795.071	7.31
795.383	6.67
795.695	6.49
796.006	6.3
796.318	5.67
796.629	5.67
796.941	5.93
797.252	6.11
797.564	5.93
797.875	6.11
798.186	5.89
798.497	5.8
798.809	5.97
799.12	5.8
799.431	5.62
799.742	5.03
800.053	4.7
800.364	4.86
800.675	5.28
800.986	5.01
801.297	4.41
801.608	4.37
801.918	4.49
802.229	4.59
802.54	4.39
802.851	4.45
803.161	4.15
803.472	4.27
803.782	4.56
804.093	4.77
804.403	4.59
804.714	4.29
805.024	4.32
805.334	4.21
805.645	3.81
805.955	4.1
806.265	4.47
806.575	4.85
806.885	5.02
807.195	5.31
807.505	5.54
807.815	6.31
808.125	6.18
808.435	6.17
808.745	5.99
809.055	6.38
809.365	6.1
809.674	6.37
809.984	5.92
810.294	5.3
810.603	5.14
810.913	4.96
811.222	5.43
811.532	5.65
811.841	6.1
812.151	6.46
812.46	6.4
812.769	6.23
813.079	6.34
813.388	6.08
813.697	5.33
814.006	5.51
814.315	4.49
814.624	5.02
814.933	5.54
815.242	5.76
815.551	5.49
815.86	5.62
816.169	5.05
816.478	5.46
816.786	5.34
817.095	5.71
817.404	5.84
817.712	5.8
818.021	5.81
818.33	5.18
818.638	5.46
818.947	5.76
819.255	6.04
819.563	6.09
819.872	6.25
820.18	6.53
820.488	6.62
820.796	6.9
821.105	6.87
821.413	6.8
821.721	7.12
822.029	7.31
822.337	7.44
822.645	7.82
822.953	7.84
823.26	7.91
823.568	7.89
823.876	7.94
824.184	7.87
824.491	7.86
824.799	8.05
825.107	8.1
825.414	8.07
825.722	8.16
826.029	8.25
826.337	8.32
826.644	8.56
826.951	8.66
827.259	8.77
827.566	8.81
827.873	8.95
828.18	8.68
828.488	8.55
828.795	8.33
829.102	8.08
829.409	7.82
829.716	7.84
830.023	7.93
830.329	8.12
830.636	8.29
830.943	8.35
831.25	8.34
831.557	8.26
831.863	8.64
832.17	8.4
832.476	8.27
832.783	7.99
833.089	7.48
833.396	7.25
833.702	6.85
834.009	7.11
834.315	6.73
834.621	6.75
834.928	6.88
835.234	6.92
835.54	6.77
835.846	6.9
836.152	6.65
836.458	6.4
836.764	6.68
837.07	6.11
837.376	6.03
837.682	5.5
837.988	5.56
838.293	5.18
838.599	5.39
838.905	5.06
839.211	5.23
839.516	5.44
839.822	5.08
840.127	5.27
840.433	5.2
840.738	5.38
841.044	5.49
841.349	5.42
841.654	5.2
841.959	5.93
842.265	6.34
842.57	6.59
842.875	7.21
843.18	5.42
843.485	6.84
843.79	6.71
844.095	8.36
844.4	8.02
844.705	8.27
845.01	8.71
845.315	10.18
845.619	10.99
845.924	10.16
846.229	11.25
846.533	11.35
846.838	9.85
847.142	10.44
847.447	9.99
847.751	11.03
848.056	12.54
848.36	12.66
848.664	13.01
848.969	12.96
849.273	11.86
849.577	11.97
849.881	11.03
850.185	10.78
850.489	9.36
850.794	8.57
851.097	7.69
851.401	5.88
851.705	4.64
852.009	3.86
852.313	2.77
852.617	3.13
852.92	3.41
853.224	4.25
853.528	4.33
853.831	5.56
854.135	5.22
854.438	3.94
854.742	1.88
855.045	0.83
855.349	0.88
855.652	1.45
855.955	2
856.259	3.16
856.562	3.62
856.865	5.2
857.168	4.65
857.471	5.13
857.774	6.41
858.077	5.44
858.38	4.49
858.683	6.58
858.986	5.99
859.289	5.06
859.592	5.7
859.894	6.19
860.197	5.07
860.5	3.67
860.802	4.02
861.105	5.29
861.407	6.46
861.71	6.35
862.012	6.64
862.315	5.29
862.617	4.24
862.919	2.94
863.222	1.32
863.524	1.84
863.826	-0.22
864.128	0.38
864.43	3.39
864.732	4.21
865.034	2.99
865.336	2.71
865.638	2.77
865.94	3.09
866.242	2.79
866.544	3.19
866.846	3.39
867.147	5.76
867.449	4.8
867.751	4.52
868.052	5.82
868.354	5.75
868.655	5.94
868.957	6.07
869.258	9.08
869.56	10.77
869.861	11.38
870.162	12.7
870.463	10.58
870.765	8.78
871.066	7.26
871.367	7.03
871.668	5.88
871.969	6.6
872.27	5.28
872.571	4.3
872.872	3.46
873.173	4.01
873.473	1.6
873.774	4.75
874.075	4.99
874.376	3.98
874.676	5.6
874.977	7.43
875.277	7.12
875.578	4.15
875.878	2.55
876.179	2.6
876.479	2.36
876.78	2.65
877.08	2.39
877.38	3.78
877.68	5.86
877.981	7.18
878.281	6.77
878.581	7.57
