Data from BU58119_Reflection_00003.txt Node
Date: Tue Nov 19 10:50:42 EST 2019
User: vgr7
Spectrometer: USB2G7710
Scans to average: 3
Trigger mode: 4
Integration Time (sec): 2.000000E-2
Electric dark correction enabled: true
Boxcar width: 10
XAxis mode: Wavelengths
Number of Pixels in Spectrum: 2048
>>>>>Begin Spectral Data<<<<<
177.721	-99.68
178.105	2.91
178.488	167.72
178.871	177.27
179.254	480
179.636	43.97
180.019	-5.15
180.402	118.52
180.785	-109.09
181.168	83.77
181.55	91.17
181.933	80.64
182.316	61.88
182.698	43.74
183.081	35.1
183.463	206.41
183.846	121.06
184.228	405.76
184.611	291.7
184.993	76.06
185.376	101.81
185.758	-213.08
186.14	-143.28
186.522	-102.82
186.904	-60.76
187.287	-1.34
187.669	-0
188.051	2.67
188.433	2.43
188.815	3.6
189.197	-18.15
189.579	-4.55
189.961	10.23
190.342	14.73
190.724	28.25
191.106	47.58
191.488	63.78
191.869	68.19
192.251	80.48
192.633	67.59
193.014	47.27
193.396	37.72
193.777	27.4
194.159	43.3
194.54	41.39
194.922	27.61
195.303	21.21
195.684	41.48
196.065	35.4
196.447	47.49
196.828	35.96
197.209	66.71
197.59	91.31
197.971	50.4
198.352	34.59
198.733	22.69
199.114	-5.47
199.495	-25.72
199.876	-74.52
200.257	-323.08
200.638	-62.34
201.018	1664.52
201.399	-75.77
201.78	8.92
202.16	-98.51
202.541	-772.88
202.922	-104.7
203.302	2215.38
203.683	3240
204.063	-726.32
204.444	-528.71
204.824	-9600
205.204	-49.22
205.585	-66.24
205.965	-50.64
206.345	-40.45
206.725	-38.08
207.106	-37.67
207.486	-22.33
207.866	-24.61
208.246	-21.68
208.626	-38.11
209.006	-19.61
209.386	-16.78
209.766	-38.48
210.145	-7.85
210.525	-3.99
210.905	-8.02
211.285	-6.83
211.664	6.72
212.044	4.4
212.424	0.75
212.803	3.05
213.183	-2.88
213.562	3.33
213.942	19.14
214.321	29.09
214.701	46.14
215.08	45.01
215.459	43.4
215.838	44.91
216.218	37.17
216.597	45.11
216.976	42.21
217.355	44.59
217.734	48.4
218.113	50.96
218.492	46.11
218.871	44.65
219.25	57.21
219.629	55.37
220.008	54.92
220.387	47.23
220.766	54.04
221.144	50.35
221.523	54.42
221.902	44.83
222.28	32.03
222.659	23.12
223.037	26.06
223.416	30.07
223.794	41.89
224.173	44.6
224.551	45.55
224.929	30.12
225.308	18.48
225.686	20.83
226.064	11.35
226.442	13.12
226.821	13.27
227.199	5.88
227.577	7.81
227.955	10.76
228.333	12.53
228.711	8.36
229.089	8.07
229.467	7.37
229.845	6.08
230.222	4.92
230.6	-0.45
230.978	1.93
231.356	0.07
231.733	-4.09
232.111	-1.74
232.488	-4.03
232.866	-2.28
233.243	-0.4
233.621	-2.59
233.998	-2.63
234.376	-3.15
234.753	-0.45
235.13	-0
235.508	2.1
235.885	2.77
236.262	3.17
236.639	2.04
237.016	4.66
237.393	5
237.77	5.07
238.147	5.44
238.524	6.39
238.901	5.54
239.278	5.03
239.655	5.6
240.032	5.33
240.409	5.45
240.785	6.02
241.162	6.39
241.539	6.19
241.915	7.03
242.292	7.88
242.668	6.9
243.045	6.78
243.421	6.72
243.798	6.65
244.174	6.29
244.551	6.84
244.927	6.64
245.303	6.64
245.679	6.7
246.056	6.78
246.432	6.98
246.808	7.34
247.184	7.64
247.56	7.3
247.936	7.3
248.312	7.49
248.688	7.26
249.064	7.02
249.44	7.32
249.815	6.95
250.191	6.66
250.567	6.51
250.943	6.43
251.318	6.27
251.694	5.97
252.069	6.13
252.445	6.03
252.82	6.28
253.196	6.19
253.571	6.41
253.947	6.05
254.322	5.9
254.697	5.67
255.073	5.65
255.448	5.7
255.823	6.11
256.198	5.96
256.573	6.12
256.948	6.24
257.323	6.1
257.698	6.11
258.073	6.03
258.448	6.33
258.823	6.17
259.198	6.11
259.573	6.09
259.948	5.98
260.322	6.02
260.697	5.87
261.072	5.72
261.446	5.67
261.821	5.77
262.195	5.64
262.57	5.58
262.944	5.47
263.319	5.6
263.693	5.4
264.067	5.31
264.442	5.26
264.816	5.06
265.19	5
265.564	5.14
265.938	4.99
266.313	4.63
266.687	5
267.061	5.03
267.435	5.35
267.809	5.29
268.183	5.2
268.556	5.12
268.93	5.22
269.304	5.05
269.678	5.25
270.051	5.39
270.425	5.45
270.799	5.27
271.172	5.33
271.546	5.34
271.919	5.31
272.293	5.38
272.666	5.61
273.04	5.77
273.413	5.68
273.787	5.73
274.16	5.73
274.533	5.79
274.906	5.89
275.279	5.72
275.653	6.03
276.026	6.16
276.399	6.18
276.772	6.32
277.145	6.44
277.518	6.29
277.891	6.14
278.263	6.05
278.636	6.37
279.009	6.35
279.382	6.19
279.755	6.2
280.127	6.1
280.5	6.02
280.872	6.06
281.245	5.93
281.617	5.84
281.99	5.88
282.362	5.7
282.735	5.6
283.107	5.32
283.479	5.1
283.852	5.12
284.224	5.01
284.596	4.99
284.968	5.13
285.34	5.04
285.713	5.1
286.085	5.18
286.457	5.1
286.829	5.2
287.201	5.27
287.572	5.35
287.944	5.42
288.316	5.35
288.688	5.29
289.06	5.29
289.431	5.29
289.803	5.44
290.175	5.53
290.546	5.5
290.918	5.72
291.289	5.77
291.661	5.71
292.032	5.9
292.403	5.88
292.775	5.83
293.146	5.97
293.517	5.98
293.889	6.11
294.26	6.13
294.631	6.13
295.002	6.21
295.373	6.14
295.744	6.01
296.115	6.16
296.486	6.22
296.857	6.27
297.228	6.22
297.599	6.08
297.97	6.13
298.34	6.1
298.711	6.18
299.082	6.17
299.452	6.01
299.823	5.94
300.194	5.93
300.564	5.86
300.935	5.96
301.305	6.06
301.676	5.99
302.046	6.07
302.416	5.97
302.787	5.97
303.157	6.04
303.527	6.24
303.897	6.17
304.267	6.02
304.637	6.15
305.008	6.4
305.378	6.6
305.748	6.71
306.117	6.88
306.487	6.81
306.857	6.86
307.227	7.17
307.597	7.16
307.967	7.11
308.336	7.17
308.706	7.11
309.076	7.12
309.445	6.98
309.815	6.98
310.184	7.05
310.554	7.03
310.923	7
311.293	6.91
311.662	7.03
312.031	7.08
312.401	7.07
312.77	6.96
313.139	6.94
313.508	6.82
313.877	6.69
314.246	6.66
314.616	6.74
314.985	6.58
315.353	6.76
315.722	6.97
316.091	6.84
316.46	6.77
316.829	6.69
317.198	6.71
317.567	6.78
317.935	6.86
318.304	6.95
318.672	7.02
319.041	7.06
319.41	6.79
319.778	6.8
320.147	6.86
320.515	7.01
320.883	7.01
321.252	6.9
321.62	6.95
321.988	7.16
322.357	7.02
322.725	7.09
323.093	6.9
323.461	6.86
323.829	6.94
324.197	6.96
324.565	7.01
324.933	7.25
325.301	7.12
325.669	7.03
326.037	7.09
326.405	7.09
326.772	7.16
327.14	7.18
327.508	7.19
327.875	7.06
328.243	6.99
328.61	7.01
328.978	7.1
329.346	7.18
329.713	7.06
330.08	7.21
330.448	7.17
330.815	7.09
331.182	7.1
331.55	7.15
331.917	7.2
332.284	7.23
332.651	7.09
333.018	7.19
333.385	7.16
333.752	6.99
334.119	7.04
334.486	7.06
334.853	7.19
335.22	7.22
335.587	7.21
335.954	7.24
336.32	7.15
336.687	7.28
337.054	7.18
337.42	7.25
337.787	7.2
338.153	7.25
338.52	7.54
338.886	7.51
339.253	7.43
339.619	7.55
339.986	7.47
340.352	7.54
340.718	7.42
341.084	7.44
341.451	7.48
341.817	7.48
342.183	7.48
342.549	7.46
342.915	7.39
343.281	7.19
343.647	7.16
344.013	7.17
344.379	7.02
344.745	7.03
345.11	6.95
345.476	6.94
345.842	6.89
346.208	6.67
346.573	6.63
346.939	6.68
347.304	6.57
347.67	6.6
348.035	6.49
348.401	6.67
348.766	6.68
349.132	6.73
349.497	6.66
349.862	6.62
350.228	6.69
350.593	6.79
350.958	7.05
351.323	7.05
351.688	7.02
352.053	6.98
352.418	7.06
352.783	7.17
353.148	7.2
353.513	7.16
353.878	7.17
354.243	7.17
354.608	7.14
354.972	7.08
355.337	7.03
355.702	7.1
356.066	7.02
356.431	7.04
356.795	6.99
357.16	7.02
357.524	6.98
357.889	6.89
358.253	6.83
358.618	6.7
358.982	6.72
359.346	6.75
359.71	6.78
360.075	6.76
360.439	6.72
360.803	6.7
361.167	6.68
361.531	6.68
361.895	6.68
362.259	6.71
362.623	6.74
362.987	6.82
363.351	6.77
363.714	6.74
364.078	6.64
364.442	6.66
364.806	6.72
365.169	6.69
365.533	6.72
365.896	6.77
366.26	6.86
366.623	6.86
366.987	6.89
367.35	6.87
367.714	6.85
368.077	6.79
368.44	6.83
368.803	6.86
369.167	6.9
369.53	6.89
369.893	6.88
370.256	6.85
370.619	6.7
370.982	6.69
371.345	6.68
371.708	6.72
372.071	6.67
372.434	6.58
372.797	6.6
373.159	6.5
373.522	6.44
373.885	6.4
374.247	6.36
374.61	6.37
374.973	6.39
375.335	6.43
375.698	6.44
376.06	6.4
376.423	6.43
376.785	6.46
377.147	6.47
377.51	6.47
377.872	6.53
378.234	6.66
378.596	6.64
378.958	6.63
379.321	6.6
379.683	6.65
380.045	6.65
380.407	6.63
380.769	6.68
381.13	6.66
381.492	6.64
381.854	6.69
382.216	6.71
382.578	6.7
382.939	6.69
383.301	6.66
383.663	6.66
384.024	6.65
384.386	6.65
384.747	6.56
385.109	6.55
385.47	6.49
385.832	6.48
386.193	6.49
386.554	6.47
386.916	6.51
387.277	6.47
387.638	6.47
387.999	6.48
388.36	6.51
388.721	6.57
389.082	6.6
389.443	6.56
389.804	6.52
390.165	6.53
390.526	6.52
390.887	6.54
391.248	6.59
391.609	6.59
391.969	6.55
392.33	6.56
392.691	6.54
393.051	6.52
393.412	6.44
393.772	6.4
394.133	6.41
394.493	6.39
394.854	6.43
395.214	6.45
395.574	6.44
395.935	6.41
396.295	6.37
396.655	6.36
397.015	6.36
397.376	6.37
397.736	6.31
398.096	6.31
398.456	6.3
398.816	6.23
399.176	6.21
399.535	6.21
399.895	6.28
400.255	6.3
400.615	6.32
400.975	6.39
401.334	6.45
401.694	6.44
402.054	6.46
402.413	6.44
402.773	6.46
403.132	6.48
403.492	6.48
403.851	6.5
404.211	6.5
404.57	6.48
404.929	6.45
405.288	6.5
405.648	6.5
406.007	6.52
406.366	6.5
406.725	6.49
407.084	6.53
407.443	6.5
407.802	6.5
408.161	6.51
408.52	6.47
408.879	6.48
409.238	6.53
409.596	6.53
409.955	6.52
410.314	6.5
410.673	6.48
411.031	6.46
411.39	6.46
411.748	6.46
412.107	6.48
412.465	6.52
412.824	6.48
413.182	6.45
413.54	6.48
413.899	6.45
414.257	6.47
414.615	6.44
414.974	6.46
415.332	6.45
415.69	6.44
416.048	6.43
416.406	6.38
416.764	6.34
417.122	6.31
417.48	6.31
417.838	6.29
418.195	6.31
418.553	6.32
418.911	6.33
419.269	6.34
419.626	6.34
419.984	6.33
420.342	6.35
420.699	6.36
421.057	6.33
421.414	6.36
421.772	6.36
422.129	6.35
422.486	6.35
422.844	6.36
423.201	6.37
423.558	6.38
423.915	6.42
424.273	6.41
424.63	6.42
424.987	6.4
425.344	6.4
425.701	6.38
426.058	6.38
426.415	6.37
426.772	6.39
427.128	6.39
427.485	6.38
427.842	6.36
428.199	6.35
428.555	6.34
428.912	6.33
429.269	6.31
429.625	6.34
429.982	6.33
430.338	6.34
430.695	6.32
431.051	6.31
431.407	6.31
431.764	6.32
432.12	6.33
432.476	6.35
432.832	6.35
433.189	6.35
433.545	6.37
433.901	6.34
434.257	6.31
434.613	6.3
434.969	6.31
435.325	6.32
435.681	6.34
436.036	6.34
436.392	6.37
436.748	6.37
437.104	6.36
437.459	6.33
437.815	6.33
438.171	6.33
438.526	6.35
438.882	6.35
439.237	6.38
439.593	6.4
439.948	6.4
440.304	6.4
440.659	6.41
441.014	6.39
441.369	6.4
441.725	6.42
442.08	6.42
442.435	6.41
442.79	6.41
443.145	6.42
443.5	6.42
443.855	6.4
444.21	6.42
444.565	6.4
444.92	6.42
445.275	6.39
445.629	6.39
445.984	6.37
446.339	6.37
446.693	6.35
447.048	6.31
447.403	6.3
447.757	6.3
448.112	6.29
448.466	6.3
448.82	6.29
449.175	6.29
449.529	6.31
449.883	6.29
450.238	6.3
450.592	6.27
450.946	6.26
451.3	6.27
451.654	6.24
452.008	6.25
452.362	6.26
452.716	6.28
453.07	6.26
453.424	6.27
453.778	6.26
454.132	6.24
454.486	6.26
454.839	6.27
455.193	6.26
455.547	6.28
455.9	6.29
456.254	6.31
456.607	6.3
456.961	6.28
457.314	6.3
457.668	6.28
458.021	6.28
458.375	6.28
458.728	6.28
459.081	6.3
459.434	6.29
459.787	6.29
460.141	6.3
460.494	6.32
460.847	6.31
461.2	6.32
461.553	6.33
461.906	6.33
462.259	6.32
462.611	6.32
462.964	6.31
463.317	6.3
463.67	6.29
464.022	6.28
464.375	6.28
464.728	6.27
465.08	6.3
465.433	6.31
465.785	6.33
466.138	6.33
466.49	6.32
466.843	6.35
467.195	6.36
467.547	6.34
467.899	6.34
468.252	6.35
468.604	6.34
468.956	6.35
469.308	6.37
469.66	6.4
470.012	6.41
470.364	6.42
470.716	6.43
471.068	6.45
471.42	6.46
471.772	6.47
472.123	6.47
472.475	6.49
472.827	6.48
473.178	6.47
473.53	6.47
473.882	6.47
474.233	6.45
474.585	6.47
474.936	6.48
475.288	6.46
475.639	6.47
475.99	6.48
476.342	6.47
476.693	6.47
477.044	6.47
477.395	6.46
477.746	6.47
478.097	6.46
478.448	6.45
478.8	6.47
479.15	6.47
479.501	6.46
479.852	6.44
480.203	6.46
480.554	6.47
480.905	6.48
481.255	6.49
481.606	6.51
481.957	6.51
482.307	6.52
482.658	6.53
483.009	6.54
483.359	6.54
483.709	6.55
484.06	6.55
484.41	6.56
484.761	6.56
485.111	6.55
485.461	6.53
485.811	6.54
486.162	6.53
486.512	6.53
486.862	6.54
487.212	6.54
487.562	6.53
487.912	6.54
488.262	6.54
488.612	6.55
488.961	6.53
489.311	6.51
489.661	6.5
490.011	6.5
490.36	6.48
490.71	6.49
491.06	6.48
491.409	6.47
491.759	6.47
492.108	6.47
492.458	6.47
492.807	6.5
493.157	6.5
493.506	6.53
493.855	6.53
494.204	6.53
494.554	6.53
494.903	6.54
495.252	6.54
495.601	6.53
495.95	6.52
496.299	6.53
496.648	6.55
496.997	6.57
497.346	6.58
497.695	6.59
498.043	6.59
498.392	6.62
498.741	6.62
499.09	6.63
499.438	6.63
499.787	6.63
500.135	6.64
500.484	6.63
500.832	6.6
501.181	6.62
501.529	6.64
501.878	6.65
502.226	6.68
502.574	6.67
502.923	6.66
503.271	6.68
503.619	6.7
503.967	6.68
504.315	6.69
504.663	6.7
505.011	6.7
505.359	6.69
505.707	6.69
506.055	6.69
506.403	6.7
506.751	6.72
507.098	6.73
507.446	6.74
507.794	6.75
508.141	6.75
508.489	6.77
508.837	6.75
509.184	6.76
509.531	6.75
509.879	6.77
510.226	6.77
510.574	6.76
510.921	6.77
511.268	6.78
511.616	6.79
511.963	6.8
512.31	6.82
512.657	6.84
513.004	6.83
513.351	6.85
513.698	6.84
514.045	6.83
514.392	6.86
514.739	6.86
515.086	6.88
515.432	6.9
515.779	6.89
516.126	6.9
516.473	6.91
516.819	6.92
517.166	6.94
517.512	6.95
517.859	6.95
518.205	6.91
518.552	6.93
518.898	6.9
519.245	6.9
519.591	6.89
519.937	6.88
520.283	6.9
520.629	6.89
520.976	6.91
521.322	6.89
521.668	6.88
522.014	6.89
522.36	6.87
522.706	6.88
523.052	6.88
523.398	6.89
523.743	6.89
524.089	6.9
524.435	6.87
524.781	6.9
525.126	6.92
525.472	6.95
525.817	6.95
526.163	6.96
526.509	6.96
526.854	6.96
527.199	6.97
527.545	6.95
527.89	6.96
528.235	6.96
528.581	6.96
528.926	6.96
529.271	6.94
529.616	6.95
529.961	6.94
530.306	6.95
530.651	6.95
530.996	6.96
531.341	6.96
531.686	6.98
532.031	6.98
532.376	6.98
532.721	6.96
533.065	6.97
533.41	6.96
533.755	6.96
534.099	6.96
534.444	6.94
534.788	6.96
535.133	6.96
535.477	6.97
535.822	6.97
536.166	6.98
536.51	7
536.855	7.01
537.199	7.01
537.543	7.01
537.887	7.03
538.231	7.03
538.576	7.01
538.92	7.02
539.264	7.02
539.608	7.02
539.951	7.03
540.295	7.03
540.639	7.05
540.983	7.05
541.327	7.06
541.671	7.09
542.014	7.11
542.358	7.12
542.701	7.13
543.045	7.12
543.389	7.11
543.732	7.12
544.075	7.13
544.419	7.12
544.762	7.13
545.105	7.13
545.449	7.14
545.792	7.16
546.135	7.13
546.478	7.13
546.821	7.14
547.165	7.15
547.508	7.18
547.851	7.19
548.194	7.19
548.536	7.18
548.879	7.16
549.222	7.13
549.565	7.09
549.908	7.05
550.25	7.06
550.593	7.06
550.936	7.04
551.278	7.03
551.621	7.04
551.963	7.04
552.306	7.01
552.648	7
552.991	7
553.333	7
553.675	7.01
554.017	7
554.36	6.98
554.702	6.95
555.044	6.92
555.386	6.93
555.728	6.97
556.07	6.96
556.412	6.95
556.754	6.97
557.096	7.02
557.438	7.05
557.78	7.11
558.121	7.09
558.463	7.05
558.805	7.08
559.147	7.05
559.488	7.06
559.83	7.07
560.171	7.03
560.513	7.06
560.854	7.04
561.196	7.03
561.537	7.05
561.878	7.08
562.22	7.1
562.561	7.11
562.902	7.08
563.243	7.1
563.584	7.12
563.925	7.12
564.266	7.12
564.607	7.12
564.948	7.1
565.289	7.15
565.63	7.2
565.971	7.17
566.312	7.17
566.653	7.14
566.993	7.15
567.334	7.21
567.675	7.2
568.015	7.18
568.356	7.17
568.696	7.17
569.037	7.12
569.377	7.1
569.718	7.1
570.058	7.12
570.398	7.1
570.739	7.05
571.079	7.05
571.419	7.05
571.759	7.04
572.099	7
572.439	6.98
572.779	6.98
573.119	6.98
573.459	7.02
573.799	7.06
574.139	7.04
574.479	7.04
574.819	7.06
575.158	7.12
575.498	7.15
575.838	7.16
576.177	7.17
576.517	7.19
576.856	7.16
577.196	7.18
577.535	7.22
577.875	7.23
578.214	7.29
578.553	7.28
578.893	7.28
579.232	7.33
579.571	7.32
579.91	7.36
580.25	7.36
580.589	7.34
580.928	7.32
581.267	7.38
581.606	7.36
581.945	7.34
582.283	7.33
582.622	7.3
582.961	7.29
583.3	7.28
583.639	7.3
583.977	7.36
584.316	7.33
584.654	7.34
584.993	7.36
585.332	7.35
585.67	7.36
586.008	7.37
586.347	7.35
586.685	7.34
587.024	7.33
587.362	7.37
587.7	7.36
588.038	7.4
588.376	7.36
588.715	7.37
589.053	7.37
589.391	7.38
589.729	7.4
590.067	7.36
590.404	7.4
590.742	7.4
591.08	7.37
591.418	7.41
591.756	7.42
592.093	7.42
592.431	7.41
592.769	7.42
593.106	7.39
593.444	7.4
593.781	7.42
594.119	7.38
594.456	7.37
594.793	7.37
595.131	7.33
595.468	7.35
595.805	7.34
596.143	7.33
596.48	7.34
596.817	7.35
597.154	7.38
597.491	7.38
597.828	7.33
598.165	7.33
598.502	7.3
598.839	7.29
599.176	7.32
599.512	7.3
599.849	7.31
600.186	7.3
600.523	7.3
600.859	7.31
601.196	7.3
601.532	7.3
601.869	7.3
602.205	7.3
602.542	7.26
602.878	7.29
603.215	7.29
603.551	7.26
603.887	7.26
604.223	7.26
604.56	7.26
604.896	7.33
605.232	7.36
605.568	7.4
605.904	7.38
606.24	7.36
606.576	7.37
606.912	7.34
607.248	7.38
607.583	7.38
607.919	7.31
608.255	7.34
608.591	7.33
608.926	7.3
609.262	7.28
609.597	7.31
609.933	7.27
610.268	7.27
610.604	7.29
610.939	7.3
611.275	7.31
611.61	7.3
611.945	7.26
612.281	7.24
612.616	7.18
612.951	7.19
613.286	7.18
613.621	7.18
613.956	7.25
614.291	7.24
614.626	7.28
614.961	7.35
615.296	7.32
615.631	7.33
615.966	7.39
616.3	7.39
616.635	7.42
616.97	7.45
617.304	7.48
617.639	7.51
617.973	7.48
618.308	7.45
618.642	7.44
618.977	7.42
619.311	7.42
619.646	7.42
619.98	7.5
620.314	7.52
620.648	7.52
620.983	7.41
621.317	7.39
621.651	7.39
621.985	7.38
622.319	7.4
622.653	7.41
622.987	7.44
623.321	7.48
623.655	7.49
623.988	7.43
624.322	7.39
624.656	7.4
624.99	7.43
625.323	7.43
625.657	7.48
625.99	7.46
626.324	7.43
626.657	7.43
626.991	7.33
627.324	7.34
627.658	7.29
627.991	7.37
628.324	7.4
628.657	7.4
628.991	7.41
629.324	7.39
629.657	7.35
629.99	7.33
630.323	7.32
630.656	7.26
630.989	7.28
631.322	7.33
631.655	7.27
631.987	7.27
632.32	7.32
632.653	7.28
632.986	7.28
633.318	7.32
633.651	7.32
633.984	7.34
634.316	7.36
634.649	7.43
634.981	7.39
635.313	7.37
635.646	7.36
635.978	7.35
636.31	7.35
636.643	7.35
636.975	7.33
637.307	7.31
637.639	7.35
637.971	7.37
638.303	7.34
638.635	7.39
638.967	7.34
639.299	7.37
639.631	7.38
639.963	7.34
640.295	7.38
640.626	7.35
640.958	7.36
641.29	7.36
641.621	7.24
641.953	7.19
642.285	7.2
642.616	7.24
642.948	7.29
643.279	7.33
643.61	7.38
643.942	7.3
644.273	7.4
644.604	7.42
644.936	7.47
645.267	7.53
645.598	7.5
645.929	7.55
646.26	7.51
646.591	7.5
646.922	7.6
647.253	7.59
647.584	7.59
647.915	7.6
648.245	7.59
648.576	7.7
648.907	7.81
649.238	7.76
649.568	7.73
649.899	7.74
650.229	7.81
650.56	7.86
650.89	7.97
651.221	7.92
651.551	7.93
651.882	7.9
652.212	7.83
652.542	7.84
652.872	7.81
653.203	7.83
653.533	7.88
653.863	7.82
654.193	7.79
654.523	7.79
654.853	7.81
655.183	7.84
655.513	7.89
655.843	7.86
656.172	7.93
656.502	7.95
656.832	7.94
657.162	7.85
657.491	7.85
657.821	7.87
658.15	7.87
658.48	7.95
658.809	8
659.139	8.07
659.468	8.04
659.798	8.08
660.127	8.08
660.456	7.99
660.785	8.1
661.115	8.12
661.444	8.25
661.773	8.26
662.102	8.23
662.431	8.25
662.76	8.25
663.089	8.26
663.418	8.25
663.747	8.22
664.076	8.24
664.404	8.27
664.733	8.29
665.062	8.35
665.39	8.21
665.719	8.12
666.048	8.03
666.376	8.03
666.705	8.03
667.033	8.03
667.362	8.11
667.69	8.07
668.018	8.08
668.347	7.97
668.675	7.91
669.003	7.85
669.331	7.79
669.659	7.75
669.987	7.7
670.315	7.61
670.643	7.65
670.971	7.69
671.299	7.59
671.627	7.58
671.955	7.48
672.283	7.56
672.61	7.56
672.938	7.66
673.266	7.75
673.593	7.75
673.921	7.74
674.249	7.77
674.576	7.87
674.904	7.79
675.231	7.84
675.558	7.98
675.886	7.92
676.213	7.92
676.54	7.98
676.867	8
677.195	8.11
677.522	8.08
677.849	8.02
678.176	7.97
678.503	8
678.83	8.07
679.157	7.92
679.484	7.92
679.81	7.85
680.137	7.87
680.464	7.88
680.791	7.97
681.117	7.95
681.444	7.99
681.771	8.02
682.097	8.04
682.424	7.99
682.75	8.1
683.077	8.09
683.403	8.12
683.729	8.05
684.056	8.09
684.382	8.13
684.708	8.22
685.034	8.26
685.36	8.12
685.686	8.11
686.012	8.26
686.339	8.3
686.664	8.36
686.99	8.27
687.316	8.24
687.642	8.09
687.968	8.08
688.294	7.94
688.619	7.96
688.945	7.84
689.271	7.83
689.596	7.83
689.922	7.81
690.247	7.75
690.573	7.86
690.898	7.88
691.224	7.92
691.549	7.86
691.874	7.95
692.2	8.01
692.525	7.94
692.85	7.96
693.175	8.03
693.5	7.99
693.825	8.12
694.15	8.15
694.475	8.19
694.8	8.07
695.125	8.1
695.45	8.03
695.775	8.13
696.099	8.2
696.424	8.2
696.749	8.3
697.073	8.31
697.398	8.31
697.723	8.28
698.047	8.3
698.372	8.34
698.696	8.36
699.02	8.39
699.345	8.45
699.669	8.48
699.993	8.36
700.318	8.4
700.642	8.34
700.966	8.42
701.29	8.43
701.614	8.65
701.938	8.69
702.262	8.75
702.586	8.82
702.91	8.84
703.234	8.74
703.557	8.71
703.881	8.68
704.205	8.61
704.529	8.54
704.852	8.53
705.176	8.45
705.499	8.3
705.823	8.37
706.146	8.31
706.47	8.26
706.793	8.35
707.117	8.36
707.44	8.33
707.763	8.16
708.086	8.29
708.409	8.11
708.733	8.12
709.056	8.12
709.379	8.09
709.702	8
710.025	8.06
710.348	8.04
710.671	8.17
710.993	8.14
711.316	8.24
711.639	8.11
711.962	8.2
712.284	8.32
712.607	8.19
712.93	8.2
713.252	8.2
713.575	8.14
713.897	8.09
714.22	8.13
714.542	8.34
714.864	8.09
715.187	8.13
715.509	8.03
715.831	8.13
716.153	7.89
716.475	7.95
716.798	7.98
717.12	8.03
717.442	7.92
717.764	8.07
718.085	8.08
718.407	8.3
718.729	8.28
719.051	8.18
719.373	8.26
719.695	8.46
720.016	8.36
720.338	8.35
720.659	8.39
720.981	8.37
721.302	8.2
721.624	8.46
721.945	8.57
722.267	8.54
722.588	8.49
722.909	8.82
723.231	8.7
723.552	8.8
723.873	8.75
724.194	8.89
724.515	9.16
724.836	9.03
725.157	8.81
725.478	8.84
725.799	8.91
726.12	9.03
726.441	8.92
726.762	9.06
727.083	9.19
727.403	9.01
727.724	9.07
728.045	9.15
728.365	9.15
728.686	9.13
729.006	9.16
729.327	9.16
729.647	9.1
729.967	9.2
730.288	9.17
730.608	9.27
730.928	9.21
731.249	8.92
731.569	8.97
731.889	8.95
732.209	8.88
732.529	8.93
732.849	8.76
733.169	8.67
733.489	8.6
733.809	8.5
734.129	8.59
734.448	8.43
734.768	8.17
735.088	8.24
735.408	8.32
735.727	8.47
736.047	8.37
736.366	8.33
736.686	8.33
737.005	8.21
737.325	8
737.644	7.9
737.963	8.02
738.283	7.92
738.602	8.09
738.921	8.16
739.24	8.29
739.56	8.53
739.879	8.62
740.198	8.63
740.517	8.75
740.836	8.87
741.155	9.11
741.473	9.46
741.792	9.37
742.111	9.32
742.43	9.38
742.748	9.64
743.067	9.85
743.386	9.64
743.704	9.97
744.023	9.99
744.341	10.08
744.66	9.86
744.978	10.06
745.297	10.09
745.615	10.01
745.933	9.93
746.252	9.98
746.57	10.22
746.888	10.24
747.206	10.37
747.524	10.22
747.842	9.92
748.16	9.94
748.478	10.07
748.796	9.99
749.114	9.82
749.432	9.71
749.749	9.6
750.067	9.74
750.385	9.73
750.703	9.78
751.02	9.97
751.338	9.91
751.655	9.94
751.973	9.95
752.29	10
752.608	9.86
752.925	9.68
753.242	9.36
753.56	9.22
753.877	9.25
754.194	9.78
754.511	10.03
754.828	9.81
755.145	9.66
755.462	9.66
755.779	9.53
756.096	9.63
756.413	9.88
756.73	10.2
757.047	9.81
757.364	9.8
757.68	9.74
757.997	10.03
758.314	10.1
758.63	10.05
758.947	10.21
759.264	10.12
759.58	10.27
759.896	10.37
760.213	10.49
760.529	10.4
760.846	10.34
761.162	10.34
761.478	10.43
761.794	10.67
762.11	10.71
762.426	10.65
762.743	10.62
763.059	10.35
763.375	10.3
763.69	10.54
764.006	10.71
764.322	10.73
764.638	10.84
764.954	10.87
765.27	10.92
765.585	10.78
765.901	10.98
766.216	10.89
766.532	10.88
766.848	11.25
767.163	11.14
767.478	10.96
767.794	11.05
768.109	11.11
768.424	10.79
768.74	10.52
769.055	10.83
769.37	10.64
769.685	10.85
770	10.71
770.315	10.36
770.63	10.5
770.945	10.46
771.26	10.46
771.575	10.33
771.89	10.07
772.205	10.27
772.52	10.31
772.834	10.41
773.149	10.11
773.464	9.77
773.778	9.58
774.093	9.47
774.407	9.42
774.722	9.22
775.036	9.32
775.351	9.62
775.665	9.69
775.979	9.67
776.293	9.57
776.608	9.43
776.922	9.75
777.236	9.82
777.55	9.56
777.864	9.14
778.178	9.19
778.492	9.25
778.806	9.07
779.12	8.93
779.434	8.89
779.747	9.2
780.061	9.16
780.375	9.77
780.689	10.24
781.002	10.22
781.316	10.54
781.629	10.55
781.943	10.39
782.256	10.18
782.57	10.25
782.883	10.63
783.196	10.67
783.51	10.52
783.823	10.4
784.136	10.76
784.449	11.15
784.762	11.15
785.075	11.43
785.388	11.78
785.701	11.78
786.014	11.48
786.327	11.63
786.64	12.02
786.953	11.63
787.266	11.04
787.578	11.54
787.891	11.39
788.204	11.4
788.516	11.71
788.829	12.14
789.141	12.47
789.454	12.07
789.766	12.88
790.079	13.11
790.391	13.04
790.703	12.67
791.016	12.57
791.328	12.68
791.64	12.42
791.952	12.49
792.264	12.11
792.576	12.36
792.888	12.26
793.2	11.52
793.512	11.89
793.824	12.15
794.136	11.94
794.448	12.33
794.76	12.67
795.071	12.47
795.383	12.05
795.695	11.87
796.006	11.68
796.318	11
796.629	11.2
796.941	11.44
797.252	12.06
797.564	12.29
797.875	11.92
798.186	11.82
798.497	11.39
798.809	11.32
799.12	11.34
799.431	11.3
799.742	12.13
800.053	11.59
800.364	11.91
800.675	11.51
800.986	11.25
801.297	10.96
801.608	10.72
801.918	10.95
802.229	11.1
802.54	11.21
802.851	11.48
803.161	11.06
803.472	10.98
803.782	10.23
804.093	9.84
804.403	10.02
804.714	10.43
805.024	10.73
805.334	11.33
805.645	10.91
805.955	11.12
806.265	10.55
806.575	11.13
806.885	11.1
807.195	11.03
807.505	10.75
807.815	11.09
808.125	11.89
808.435	11.4
808.745	10.91
809.055	11.15
809.365	11.25
809.674	11.59
809.984	11.04
810.294	11.05
810.603	11.12
810.913	11.24
811.222	10.75
811.532	10.51
811.841	11.03
812.151	11.65
812.46	11.53
812.769	11.8
813.079	11.56
813.388	11.18
813.697	10.47
814.006	9.78
814.315	9.52
814.624	8.88
814.933	9.56
815.242	9.51
815.551	8.95
815.86	8.87
816.169	8.08
816.478	8.06
816.786	8.52
817.095	8.32
817.404	7.95
817.712	8.61
818.021	8.91
818.33	8.14
818.638	8.13
818.947	8.5
819.255	8.88
819.563	9
819.872	9.24
820.18	10.06
820.488	10.77
820.796	10.65
821.105	10.81
821.413	11.02
821.721	11.16
822.029	11.44
822.337	11.45
822.645	11.62
822.953	11.77
823.26	11.75
823.568	11.74
823.876	11.84
824.184	11.76
824.491	11.78
824.799	11.85
825.107	11.88
825.414	11.78
825.722	11.55
826.029	11.55
826.337	11.43
826.644	11.2
826.951	11.06
827.259	11.39
827.566	11.39
827.873	11.08
828.18	11.25
828.488	11
828.795	10.82
829.102	10.57
829.409	10.44
829.716	10.63
830.023	10.76
830.329	10.87
830.636	11.06
830.943	10.89
831.25	11.06
831.557	11.2
831.863	11.25
832.17	11.6
832.476	11.84
832.783	12.11
833.089	12.49
833.396	12.68
833.702	12.2
834.009	12.02
834.315	12.3
834.621	11.83
834.928	12.12
835.234	12.32
835.54	12.38
835.846	12.11
836.152	11.8
836.458	11.84
836.764	11.71
837.07	11.86
837.376	12.13
837.682	12.28
837.988	12.4
838.293	13.3
838.599	13.79
838.905	14.19
839.211	14.2
839.516	13.9
839.822	13.91
840.127	14.06
840.433	15.27
840.738	15.04
841.044	15.22
841.349	14.52
841.654	13.35
841.959	13.98
842.265	14.69
842.57	14.67
842.875	14.76
843.18	14.4
843.485	14.24
843.79	13.75
844.095	11.86
844.4	11.33
844.705	10.75
845.01	10.85
845.315	10.67
845.619	11.24
845.924	11.63
846.229	10.99
846.533	10.28
846.838	9.77
847.142	9.79
847.447	9.81
847.751	10.46
848.056	12.78
848.36	13.71
848.664	13.03
848.969	13.55
849.273	12.41
849.577	12.84
849.881	11.82
850.185	11.94
850.489	14.81
850.794	15.31
851.097	14.98
851.401	13.69
851.705	13.31
852.009	14.01
852.313	12.33
852.617	13.6
852.92	12.15
853.224	10.44
853.528	10.75
853.831	12.48
854.135	12.34
854.438	12.01
854.742	10.06
855.045	11.61
855.349	10.45
855.652	11.36
855.955	12.13
856.259	12.15
856.562	13.69
856.865	12.89
857.168	13.26
857.471	12.27
857.774	14.26
858.077	13.16
858.38	11.94
858.683	14.35
858.986	14.76
859.289	18.64
859.592	19.36
859.894	21.79
860.197	20.39
860.5	22.26
860.802	23.33
861.105	23.82
861.407	23.93
861.71	23.96
862.012	24.79
862.315	24.84
862.617	26.57
862.919	24.66
863.222	26.41
863.524	25.12
863.826	22.31
864.128	23.32
864.43	25.16
864.732	25.52
865.034	25.08
865.336	23.26
865.638	23.3
865.94	24.55
866.242	22.79
866.544	23.12
866.846	22.28
867.147	22.86
867.449	23.79
867.751	21.07
868.052	20.21
868.354	20.63
868.655	22.55
868.957	21.59
869.258	21.8
869.56	22.05
869.861	22.53
870.162	25
870.463	24.09
870.765	22.97
871.066	23.05
871.367	21.55
871.668	20.57
871.969	16.66
872.27	14.74
872.571	15.16
872.872	15.94
873.173	15.04
873.473	10.11
873.774	9.63
874.075	11.7
874.376	11.83
874.676	10.99
874.977	9.93
875.277	9.18
875.578	9
875.878	6.84
876.179	6.55
876.479	7.43
876.78	4.57
877.08	3.59
877.38	2.3
877.68	4.7
877.981	6.65
878.281	10.48
878.581	10.72
