Data from BU58002_Reflection_00009.txt Node
Date: Tue Nov 19 10:57:50 EST 2019
User: vgr7
Spectrometer: USB2G7710
Scans to average: 3
Trigger mode: 4
Integration Time (sec): 2.000000E-2
Electric dark correction enabled: true
Boxcar width: 10
XAxis mode: Wavelengths
Number of Pixels in Spectrum: 2048
>>>>>Begin Spectral Data<<<<<
177.721	43.74
178.105	-12.13
178.488	-29.8
178.871	-170.45
179.254	-40.38
179.636	25.88
180.019	-36.93
180.402	75
180.785	103.12
181.168	908.82
181.55	261.06
181.933	125.55
182.316	146.66
182.698	114.6
183.081	100.67
183.463	171.85
183.846	146.14
184.228	65.16
184.611	85.96
184.993	61.36
185.376	33.26
185.758	263.79
186.14	-167.31
186.522	-207.2
186.904	435
187.287	422.37
187.669	-185.29
188.051	-94.7
188.433	500.94
188.815	-1355.36
189.197	-171.58
189.579	-79.3
189.961	-29.25
190.342	-24.21
190.724	-33.58
191.106	-44.92
191.488	-51
191.869	-41.5
192.251	-56.66
192.633	-31.28
193.014	-35.17
193.396	-48.19
193.777	-59.57
194.159	-46.61
194.54	-51.16
194.922	-76.28
195.303	-68.72
195.684	-80.14
196.065	-101.98
196.447	-79.34
196.828	-67.18
197.209	-83.4
197.59	-75.13
197.971	-79.58
198.352	-87.22
198.733	-91.92
199.114	-88.95
199.495	-86.67
199.876	-106.71
200.257	-83.1
200.638	-104.89
201.018	-90.62
201.399	-90.79
201.78	-71.77
202.16	-98.01
202.541	-100.41
202.922	-77.09
203.302	-85.98
203.683	-82.99
204.063	-63.39
204.444	-49.83
204.824	-38.77
205.204	-38.07
205.585	-40.68
205.965	-38.92
206.345	-31.17
206.725	-27.69
207.106	-20.86
207.486	-27.09
207.866	-30.32
208.246	-42.59
208.626	-31.17
209.006	-34.62
209.386	-37.01
209.766	-25.77
210.145	-14.95
210.525	-12.12
210.905	-4.92
211.285	-2.34
211.664	-0.52
212.044	-1.5
212.424	-10.96
212.803	-21.09
213.183	-22.25
213.562	1.65
213.942	0.97
214.321	1.15
214.701	-4.31
215.08	-0.82
215.459	13.53
215.838	23.3
216.218	33.35
216.597	24.92
216.976	25.17
217.355	34.91
217.734	2.11
218.113	-0.47
218.492	-11.92
218.871	-20.25
219.25	-11.4
219.629	-20.72
220.008	-8.18
220.387	-4.57
220.766	-5.25
221.144	0.46
221.523	-18.71
221.902	-13.5
222.28	-3.1
222.659	7.23
223.037	5.07
223.416	8.91
223.794	3.47
224.173	-5.81
224.551	-6.67
224.929	-11.31
225.308	-12.71
225.686	-7.67
226.064	-10.14
226.442	-4.11
226.821	-1.68
227.199	-4.2
227.577	-1.09
227.955	-2.46
228.333	-1.15
228.711	1.28
229.089	2.9
229.467	-0.08
229.845	0.55
230.222	1.65
230.6	0.57
230.978	0.5
231.356	-3.24
231.733	-4.61
232.111	-2.49
232.488	-2.68
232.866	-1.01
233.243	-0.99
233.621	0.76
233.998	1.24
234.376	0.97
234.753	0.28
235.13	2.63
235.508	2.21
235.885	2.2
236.262	2.41
236.639	0.26
237.016	-0.42
237.393	0.49
237.77	1.65
238.147	1.36
238.524	1.57
238.901	0.82
239.278	1.38
239.655	1.72
240.032	1.65
240.409	2.22
240.785	2.19
241.162	2.44
241.539	1.99
241.915	2.2
242.292	2.47
242.668	3.01
243.045	2.63
243.421	2.83
243.798	3.04
244.174	3.24
244.551	3.59
244.927	3.84
245.303	3.85
245.679	3.39
246.056	3.22
246.432	3.15
246.808	3.26
247.184	3.32
247.56	3.29
247.936	3.61
248.312	3.63
248.688	3.58
249.064	3.68
249.44	3.87
249.815	3.9
250.191	3.92
250.567	3.71
250.943	3.99
251.318	3.76
251.694	3.75
252.069	3.72
252.445	3.87
252.82	3.83
253.196	4.04
253.571	4.8
253.947	5
254.322	5
254.697	5.22
255.073	5.07
255.448	4.86
255.823	4.44
256.198	4.31
256.573	4.38
256.948	4.34
257.323	4.23
257.698	4.32
258.073	4.11
258.448	4.28
258.823	3.95
259.198	4.11
259.573	3.87
259.948	3.89
260.322	3.87
260.697	3.84
261.072	3.71
261.446	3.44
261.821	3.34
262.195	3.37
262.57	3.21
262.944	3.22
263.319	3.31
263.693	3.33
264.067	3.39
264.442	3.22
264.816	3.2
265.19	3.25
265.564	3.12
265.938	3.19
266.313	2.82
266.687	3
267.061	2.84
267.435	3.11
267.809	2.82
268.183	2.83
268.556	2.71
268.93	2.85
269.304	2.83
269.678	3
270.051	3.09
270.425	3.32
270.799	3.28
271.172	3.37
271.546	3.46
271.919	3.51
272.293	3.69
272.666	3.62
273.04	3.5
273.413	3.41
273.787	3.32
274.16	3.42
274.533	3.46
274.906	3.64
275.279	3.52
275.653	3.79
276.026	3.85
276.399	3.96
276.772	3.85
277.145	3.94
277.518	3.89
277.891	3.84
278.263	3.71
278.636	3.69
279.009	3.61
279.382	3.63
279.755	3.52
280.127	3.48
280.5	3.39
280.872	3.51
281.245	3.57
281.617	3.64
281.99	3.69
282.362	3.66
282.735	3.55
283.107	3.66
283.479	3.57
283.852	3.41
284.224	3.43
284.596	3.55
284.968	3.47
285.34	3.4
285.713	3.51
286.085	3.46
286.457	3.66
286.829	3.64
287.201	3.62
287.572	3.67
287.944	3.65
288.316	3.74
288.688	3.78
289.06	3.88
289.431	3.95
289.803	4.03
290.175	4.07
290.546	4.09
290.918	4.01
291.289	3.99
291.661	4.06
292.032	3.99
292.403	4.01
292.775	4.17
293.146	4.26
293.517	4.25
293.889	4.28
294.26	4.1
294.631	4.29
295.002	4.37
295.373	4.36
295.744	4.57
296.115	4.6
296.486	4.59
296.857	4.68
297.228	4.61
297.599	4.53
297.97	4.63
298.34	4.71
298.711	4.7
299.082	4.85
299.452	4.86
299.823	4.93
300.194	4.96
300.564	5.01
300.935	5.12
301.305	5.15
301.676	5.18
302.046	5.3
302.416	5.33
302.787	5.19
303.157	5.2
303.527	5.08
303.897	5.08
304.267	5.11
304.637	5.08
305.008	5.18
305.378	5.3
305.748	5.2
306.117	5.26
306.487	5.38
306.857	5.39
307.227	5.53
307.597	5.8
307.967	5.75
308.336	5.76
308.706	5.69
309.076	5.78
309.445	6.1
309.815	6.36
310.184	6.39
310.554	6.59
310.923	6.69
311.293	6.84
311.662	7.13
312.031	7.22
312.401	7.27
312.77	7.25
313.139	7.29
313.508	7.37
313.877	7.43
314.246	7.59
314.616	7.69
314.985	7.73
315.353	7.77
315.722	7.99
316.091	8.16
316.46	8.43
316.829	8.5
317.198	8.27
317.567	8.33
317.935	8.4
318.304	8.52
318.672	8.63
319.041	8.67
319.41	8.59
319.778	8.74
320.147	8.74
320.515	9.03
320.883	9.13
321.252	9.38
321.62	9.41
321.988	9.52
322.357	9.59
322.725	9.67
323.093	9.73
323.461	9.86
323.829	9.93
324.197	9.96
324.565	9.96
324.933	10.04
325.301	9.79
325.669	9.78
326.037	9.77
326.405	9.71
326.772	9.7
327.14	9.73
327.508	9.61
327.875	9.83
328.243	9.8
328.61	9.79
328.978	9.7
329.346	9.67
329.713	9.79
330.08	9.93
330.448	9.95
330.815	9.95
331.182	9.86
331.55	9.71
331.917	9.66
332.284	9.86
332.651	9.97
333.018	10.31
333.385	10.43
333.752	10.48
334.119	10.77
334.486	10.81
334.853	10.76
335.22	10.8
335.587	10.54
335.954	10.54
336.32	10.59
336.687	10.74
337.054	10.87
337.42	10.78
337.787	10.69
338.153	10.72
338.52	10.64
338.886	10.66
339.253	10.84
339.619	10.95
339.986	10.83
340.352	10.88
340.718	10.81
341.084	10.76
341.451	10.89
341.817	10.86
342.183	10.85
342.549	11.01
342.915	11.09
343.281	11.27
343.647	11.36
344.013	11.44
344.379	11.35
344.745	11.38
345.11	11.34
345.476	11.43
345.842	11.4
346.208	11.47
346.573	11.51
346.939	11.47
347.304	11.38
347.67	11.44
348.035	11.46
348.401	11.42
348.766	11.44
349.132	11.33
349.497	11.27
349.862	11.28
350.228	11.22
350.593	11.24
350.958	11.32
351.323	11.29
351.688	11.23
352.053	11.3
352.418	11.25
352.783	11.25
353.148	11.21
353.513	11.26
353.878	11.28
354.243	11.23
354.608	11.23
354.972	11.27
355.337	11.3
355.702	11.27
356.066	11.28
356.431	11.27
356.795	11.28
357.16	11.3
357.524	11.34
357.889	11.27
358.253	11.24
358.618	11.15
358.982	11.13
359.346	11.13
359.71	10.98
360.075	10.96
360.439	10.99
360.803	10.95
361.167	10.87
361.531	10.86
361.895	10.82
362.259	10.8
362.623	10.75
362.987	10.65
363.351	10.62
363.714	10.49
364.078	10.42
364.442	10.38
364.806	10.29
365.169	10.18
365.533	10.09
365.896	10.03
366.26	9.97
366.623	9.89
366.987	9.85
367.35	9.88
367.714	9.78
368.077	9.62
368.44	9.57
368.803	9.53
369.167	9.37
369.53	9.31
369.893	9.21
370.256	9.11
370.619	8.94
370.982	8.8
371.345	8.77
371.708	8.74
372.071	8.62
372.434	8.57
372.797	8.53
373.159	8.51
373.522	8.4
373.885	8.33
374.247	8.21
374.61	8.09
374.973	8.02
375.335	8.01
375.698	7.94
376.06	7.79
376.423	7.77
376.785	7.73
377.147	7.7
377.51	7.59
377.872	7.56
378.234	7.56
378.596	7.52
378.958	7.48
379.321	7.36
379.683	7.35
380.045	7.29
380.407	7.19
380.769	7.11
381.13	7.07
381.492	7.02
381.854	7.04
382.216	6.95
382.578	6.82
382.939	6.73
383.301	6.66
383.663	6.61
384.024	6.52
384.386	6.51
384.747	6.46
385.109	6.43
385.47	6.42
385.832	6.34
386.193	6.33
386.554	6.25
386.916	6.24
387.277	6.15
387.638	6.1
387.999	6.08
388.36	6.05
388.721	6.06
389.082	6
389.443	5.95
389.804	5.89
390.165	5.88
390.526	5.82
390.887	5.82
391.248	5.77
391.609	5.73
391.969	5.68
392.33	5.64
392.691	5.58
393.051	5.49
393.412	5.49
393.772	5.47
394.133	5.46
394.493	5.4
394.854	5.36
395.214	5.32
395.574	5.28
395.935	5.24
396.295	5.15
396.655	5.12
397.015	5.06
397.376	5.05
397.736	5.02
398.096	4.99
398.456	4.95
398.816	4.95
399.176	4.92
399.535	4.89
399.895	4.83
400.255	4.77
400.615	4.79
400.975	4.76
401.334	4.75
401.694	4.73
402.054	4.75
402.413	4.74
402.773	4.69
403.132	4.68
403.492	4.67
403.851	4.65
404.211	4.6
404.57	4.59
404.929	4.57
405.288	4.54
405.648	4.53
406.007	4.49
406.366	4.49
406.725	4.47
407.084	4.43
407.443	4.44
407.802	4.45
408.161	4.44
408.52	4.41
408.879	4.35
409.238	4.32
409.596	4.29
409.955	4.27
410.314	4.26
410.673	4.24
411.031	4.2
411.39	4.2
411.748	4.21
412.107	4.18
412.465	4.16
412.824	4.14
413.182	4.12
413.54	4.13
413.899	4.1
414.257	4.07
414.615	4.04
414.974	4.04
415.332	4.03
415.69	4
416.048	4
416.406	3.96
416.764	3.94
417.122	3.91
417.48	3.9
417.838	3.89
418.195	3.88
418.553	3.87
418.911	3.85
419.269	3.82
419.626	3.8
419.984	3.81
420.342	3.79
420.699	3.77
421.057	3.77
421.414	3.75
421.772	3.76
422.129	3.75
422.486	3.73
422.844	3.73
423.201	3.71
423.558	3.69
423.915	3.7
424.273	3.69
424.63	3.7
424.987	3.68
425.344	3.68
425.701	3.65
426.058	3.63
426.415	3.62
426.772	3.61
427.128	3.62
427.485	3.61
427.842	3.62
428.199	3.63
428.555	3.6
428.912	3.58
429.269	3.55
429.625	3.58
429.982	3.57
430.338	3.54
430.695	3.55
431.051	3.54
431.407	3.53
431.764	3.51
432.12	3.5
432.476	3.52
432.832	3.5
433.189	3.52
433.545	3.53
433.901	3.52
434.257	3.53
434.613	3.52
434.969	3.51
435.325	3.49
435.681	3.49
436.036	3.49
436.392	3.49
436.748	3.49
437.104	3.48
437.459	3.49
437.815	3.49
438.171	3.48
438.526	3.47
438.882	3.45
439.237	3.48
439.593	3.45
439.948	3.45
440.304	3.44
440.659	3.44
441.014	3.43
441.369	3.44
441.725	3.43
442.08	3.45
442.435	3.43
442.79	3.42
443.145	3.42
443.5	3.39
443.855	3.4
444.21	3.39
444.565	3.37
444.92	3.36
445.275	3.37
445.629	3.37
445.984	3.38
446.339	3.39
446.693	3.38
447.048	3.38
447.403	3.36
447.757	3.36
448.112	3.34
448.466	3.34
448.82	3.32
449.175	3.32
449.529	3.3
449.883	3.3
450.238	3.3
450.592	3.29
450.946	3.29
451.3	3.3
451.654	3.28
452.008	3.28
452.362	3.27
452.716	3.25
453.07	3.22
453.424	3.2
453.778	3.18
454.132	3.16
454.486	3.17
454.839	3.19
455.193	3.2
455.547	3.22
455.9	3.24
456.254	3.24
456.607	3.21
456.961	3.22
457.314	3.24
457.668	3.24
458.021	3.24
458.375	3.25
458.728	3.25
459.081	3.27
459.434	3.27
459.787	3.28
460.141	3.27
460.494	3.3
460.847	3.31
461.2	3.33
461.553	3.34
461.906	3.35
462.259	3.33
462.611	3.32
462.964	3.32
463.317	3.32
463.67	3.32
464.022	3.35
464.375	3.35
464.728	3.34
465.08	3.35
465.433	3.35
465.785	3.34
466.138	3.35
466.49	3.38
466.843	3.39
467.195	3.4
467.547	3.4
467.899	3.41
468.252	3.4
468.604	3.4
468.956	3.41
469.308	3.41
469.66	3.44
470.012	3.44
470.364	3.43
470.716	3.43
471.068	3.46
471.42	3.46
471.772	3.48
472.123	3.5
472.475	3.5
472.827	3.5
473.178	3.52
473.53	3.52
473.882	3.5
474.233	3.5
474.585	3.49
474.936	3.5
475.288	3.48
475.639	3.5
475.99	3.47
476.342	3.46
476.693	3.46
477.044	3.46
477.395	3.47
477.746	3.48
478.097	3.48
478.448	3.47
478.8	3.45
479.15	3.44
479.501	3.44
479.852	3.44
480.203	3.45
480.554	3.45
480.905	3.47
481.255	3.47
481.606	3.46
481.957	3.48
482.307	3.48
482.658	3.49
483.009	3.49
483.359	3.5
483.709	3.51
484.06	3.51
484.41	3.51
484.761	3.51
485.111	3.51
485.461	3.5
485.811	3.5
486.162	3.52
486.512	3.53
486.862	3.53
487.212	3.53
487.562	3.54
487.912	3.53
488.262	3.52
488.612	3.52
488.961	3.54
489.311	3.54
489.661	3.55
490.011	3.54
490.36	3.54
490.71	3.54
491.06	3.54
491.409	3.54
491.759	3.56
492.108	3.56
492.458	3.56
492.807	3.57
493.157	3.57
493.506	3.57
493.855	3.57
494.204	3.57
494.554	3.58
494.903	3.6
495.252	3.61
495.601	3.62
495.95	3.65
496.299	3.65
496.648	3.68
496.997	3.68
497.346	3.7
497.695	3.73
498.043	3.76
498.392	3.77
498.741	3.78
499.09	3.82
499.438	3.85
499.787	3.88
500.135	3.9
500.484	3.95
500.832	3.98
501.181	4.03
501.529	4.05
501.878	4.08
502.226	4.09
502.574	4.13
502.923	4.17
503.271	4.19
503.619	4.24
503.967	4.27
504.315	4.31
504.663	4.35
505.011	4.4
505.359	4.44
505.707	4.49
506.055	4.54
506.403	4.56
506.751	4.6
507.098	4.65
507.446	4.71
507.794	4.75
508.141	4.8
508.489	4.86
508.837	4.91
509.184	4.96
509.531	5.02
509.879	5.07
510.226	5.15
510.574	5.21
510.921	5.26
511.268	5.33
511.616	5.38
511.963	5.45
512.31	5.51
512.657	5.58
513.004	5.66
513.351	5.75
513.698	5.87
514.045	5.98
514.392	6.07
514.739	6.15
515.086	6.25
515.432	6.34
515.779	6.44
516.126	6.55
516.473	6.66
516.819	6.76
517.166	6.85
517.512	6.94
517.859	7.04
518.205	7.13
518.552	7.23
518.898	7.34
519.245	7.44
519.591	7.55
519.937	7.65
520.283	7.76
520.629	7.88
520.976	7.98
521.322	8.11
521.668	8.24
522.014	8.39
522.36	8.55
522.706	8.7
523.052	8.86
523.398	9.03
523.743	9.2
524.089	9.37
524.435	9.54
524.781	9.71
525.126	9.86
525.472	10
525.817	10.13
526.163	10.24
526.509	10.35
526.854	10.44
527.199	10.55
527.545	10.64
527.89	10.72
528.235	10.83
528.581	10.93
528.926	11.03
529.271	11.13
529.616	11.22
529.961	11.32
530.306	11.42
530.651	11.54
530.996	11.65
531.341	11.76
531.686	11.89
532.031	12.01
532.376	12.15
532.721	12.28
533.065	12.4
533.41	12.54
533.755	12.67
534.099	12.81
534.444	12.95
534.788	13.08
535.133	13.24
535.477	13.39
535.822	13.53
536.166	13.7
536.51	13.9
536.855	14.11
537.199	14.31
537.543	14.51
537.887	14.68
538.231	14.87
538.576	15.08
538.92	15.25
539.264	15.43
539.608	15.59
539.951	15.74
540.295	15.92
540.639	16.07
540.983	16.27
541.327	16.44
541.671	16.6
542.014	16.78
542.358	16.93
542.701	17.09
543.045	17.25
543.389	17.38
543.732	17.51
544.075	17.66
544.419	17.83
544.762	18.01
545.105	18.21
545.449	18.41
545.792	18.61
546.135	18.84
546.478	19.08
546.821	19.31
547.165	19.56
547.508	19.78
547.851	20.07
548.194	20.26
548.536	20.49
548.879	20.76
549.222	21.03
549.565	21.32
549.908	21.61
550.25	21.9
550.593	22.18
550.936	22.46
551.278	22.74
551.621	23.01
551.963	23.32
552.306	23.61
552.648	23.87
552.991	24.16
553.333	24.43
553.675	24.7
554.017	24.96
554.36	25.21
554.702	25.46
555.044	25.74
555.386	26.07
555.728	26.38
556.07	26.66
556.412	26.97
556.754	27.2
557.096	27.49
557.438	27.79
557.78	28.15
558.121	28.46
558.463	28.78
558.805	29.09
559.147	29.39
559.488	29.69
559.83	30.02
560.171	30.32
560.513	30.65
560.854	30.92
561.196	31.23
561.537	31.57
561.878	31.94
562.22	32.23
562.561	32.51
562.902	32.82
563.243	33.1
563.584	33.37
563.925	33.7
564.266	33.97
564.607	34.21
564.948	34.45
565.289	34.75
565.63	35.03
565.971	35.34
566.312	35.57
566.653	35.85
566.993	36.05
567.334	36.29
567.675	36.57
568.015	36.89
568.356	37.16
568.696	37.44
569.037	37.71
569.377	38
569.718	38.22
570.058	38.5
570.398	38.8
570.739	39.04
571.079	39.3
571.419	39.54
571.759	39.8
572.099	40.1
572.439	40.37
572.779	40.65
573.119	40.84
573.459	41.1
573.799	41.34
574.139	41.63
574.479	41.91
574.819	42.12
575.158	42.32
575.498	42.55
575.838	42.79
576.177	42.95
576.517	43.16
576.856	43.41
577.196	43.65
577.535	43.87
577.875	44.13
578.214	44.29
578.553	44.52
578.893	44.76
579.232	44.96
579.571	45.13
579.91	45.3
580.25	45.47
580.589	45.64
580.928	45.82
581.267	46
581.606	46.18
581.945	46.39
582.283	46.56
582.622	46.75
582.961	46.93
583.3	47.19
583.639	47.37
583.977	47.57
584.316	47.66
584.654	47.88
584.993	48.05
585.332	48.25
585.67	48.45
586.008	48.63
586.347	48.67
586.685	48.82
587.024	49
587.362	49.24
587.7	49.45
588.038	49.63
588.376	49.79
588.715	49.93
589.053	50.07
589.391	50.22
589.729	50.34
590.067	50.43
590.404	50.56
590.742	50.71
591.08	50.86
591.418	51.03
591.756	51.21
592.093	51.35
592.431	51.49
592.769	51.57
593.106	51.66
593.444	51.88
593.781	51.98
594.119	52.07
594.456	52.19
594.793	52.28
595.131	52.37
595.468	52.44
595.805	52.55
596.143	52.67
596.48	52.78
596.817	52.91
597.154	52.97
597.491	53.15
597.828	53.18
598.165	53.27
598.502	53.35
598.839	53.35
599.176	53.46
599.512	53.55
599.849	53.7
600.186	53.83
600.523	53.95
600.859	54.08
601.196	54.17
601.532	54.26
601.869	54.32
602.205	54.42
602.542	54.58
602.878	54.64
603.215	54.7
603.551	54.72
603.887	54.79
604.223	54.91
604.56	54.88
604.896	54.99
605.232	55.07
605.568	55.19
605.904	55.28
606.24	55.35
606.576	55.46
606.912	55.56
607.248	55.66
607.583	55.67
607.919	55.73
608.255	55.78
608.591	55.91
608.926	56
609.262	56
609.597	56.04
609.933	56.14
610.268	56.21
610.604	56.3
610.939	56.38
611.275	56.42
611.61	56.58
611.945	56.65
612.281	56.73
612.616	56.78
612.951	56.86
613.286	56.9
613.621	56.97
613.956	56.91
614.291	56.96
614.626	57.07
614.961	57.19
615.296	57.34
615.631	57.28
615.966	57.34
616.3	57.48
616.635	57.42
616.97	57.48
617.304	57.53
617.639	57.6
617.973	57.6
618.308	57.7
618.642	57.6
618.977	57.65
619.311	57.72
619.646	57.72
619.98	57.84
620.314	57.89
620.648	57.96
620.983	58.11
621.317	58.16
621.651	58.22
621.985	58.15
622.319	58.11
622.653	58.16
622.987	58.16
623.321	58.13
623.655	58.28
623.988	58.27
624.322	58.36
624.656	58.31
624.99	58.34
625.323	58.39
625.657	58.48
625.99	58.47
626.324	58.43
626.657	58.49
626.991	58.37
627.324	58.33
627.658	58.29
627.991	58.3
628.324	58.25
628.657	58.17
628.991	58.24
629.324	58.33
629.657	58.49
629.99	58.6
630.323	58.72
630.656	58.74
630.989	58.73
631.322	58.75
631.655	58.86
631.987	58.92
632.32	58.89
632.653	58.85
632.986	58.87
633.318	58.91
633.651	58.92
633.984	59.08
634.316	59.17
634.649	59.18
634.981	59.15
635.313	59.21
635.646	59.38
635.978	59.49
636.31	59.5
636.643	59.32
636.975	59.31
637.307	59.27
637.639	59.21
637.971	59.26
638.303	59.31
638.635	59.25
638.967	59.26
639.299	59.39
639.631	59.53
639.963	59.63
640.295	59.72
640.626	59.78
640.958	59.79
641.29	59.92
641.621	59.94
641.953	59.96
642.285	60.02
642.616	60.05
642.948	60.1
643.279	60.15
643.61	60.32
643.942	60.36
644.273	60.4
644.604	60.53
644.936	60.47
645.267	60.44
645.598	60.52
645.929	60.55
646.26	60.57
646.591	60.7
646.922	60.68
647.253	60.61
647.584	60.69
647.915	60.59
648.245	60.51
648.576	60.67
648.907	60.71
649.238	60.71
649.568	60.64
649.899	60.58
650.229	60.56
650.56	60.41
650.89	60.45
651.221	60.44
651.551	60.47
651.882	60.61
652.212	60.63
652.542	60.69
652.872	60.69
653.203	60.72
653.533	60.56
653.863	60.55
654.193	60.65
654.523	60.62
654.853	60.66
655.183	60.7
655.513	60.56
655.843	60.57
656.172	60.75
656.502	60.84
656.832	60.92
657.162	60.9
657.491	61.09
657.821	61.01
658.15	60.91
658.48	60.91
658.809	60.85
659.139	60.87
659.468	60.86
659.798	60.81
660.127	60.64
660.456	60.69
660.785	60.66
661.115	60.6
661.444	60.54
661.773	60.59
662.102	60.49
662.431	60.58
662.76	60.6
663.089	60.46
663.418	60.35
663.747	60.24
664.076	60.3
664.404	60.25
664.733	60.19
665.062	60.39
665.39	60.23
665.719	60.32
666.048	60.19
666.376	60.24
666.705	60.3
667.033	60.28
667.362	60.16
667.69	60.15
668.018	60.21
668.347	60.3
668.675	60.32
669.003	60.47
669.331	60.53
669.659	60.56
669.987	60.56
670.315	60.55
670.643	60.47
670.971	60.4
671.299	60.42
671.627	60.58
671.955	60.53
672.283	60.58
672.61	60.45
672.938	60.43
673.266	60.44
673.593	60.5
673.921	60.66
674.249	60.75
674.576	60.79
674.904	60.79
675.231	60.81
675.558	60.81
675.886	60.68
676.213	60.58
676.54	60.6
676.867	60.56
677.195	60.63
677.522	60.71
677.849	60.8
678.176	60.81
678.503	60.85
678.83	60.96
679.157	61.1
679.484	61.07
679.81	61.29
680.137	61.27
680.464	61.26
680.791	61.2
681.117	61.16
681.444	61.24
681.771	61.31
682.097	61.27
682.424	61.24
682.75	61.29
683.077	61.39
683.403	61.4
683.729	61.34
684.056	61.3
684.382	61.32
684.708	61.35
685.034	61.33
685.36	61.32
685.686	61.24
686.012	61.17
686.339	61.33
686.664	61.22
686.99	61.05
687.316	60.93
687.642	60.99
687.968	61.09
688.294	61.08
688.619	61.05
688.945	60.99
689.271	60.97
689.596	61.03
689.922	61.06
690.247	61.06
690.573	61.1
690.898	61.19
691.224	61.25
691.549	61.1
691.874	61.2
692.2	61.22
692.525	61.32
692.85	61.34
693.175	61.24
693.5	61.3
693.825	61.41
694.15	61.51
694.475	61.63
694.8	61.5
695.125	61.56
695.45	61.51
695.775	61.54
696.099	61.55
696.424	61.44
696.749	61.33
697.073	61.24
697.398	61.36
697.723	61.36
698.047	61.48
698.372	61.51
698.696	61.49
699.02	61.45
699.345	61.31
699.669	61.36
699.993	61.39
700.318	61.37
700.642	61.53
700.966	61.57
701.29	61.52
701.614	61.57
701.938	61.55
702.262	61.62
702.586	61.71
702.91	61.69
703.234	61.83
703.557	61.8
703.881	61.87
704.205	61.82
704.529	61.92
704.852	61.79
705.176	61.79
705.499	61.65
705.823	61.44
706.146	61.46
706.47	61.47
706.793	61.54
707.117	61.52
707.44	61.5
707.763	61.39
708.086	61.29
708.409	61.31
708.733	60.95
709.056	60.88
709.379	60.66
709.702	60.69
710.025	60.6
710.348	60.53
710.671	60.5
710.993	60.44
711.316	60.38
711.639	60.2
711.962	60.2
712.284	60.1
712.607	60.18
712.93	60.14
713.252	59.96
713.575	59.87
713.897	59.89
714.22	59.72
714.542	59.85
714.864	59.87
715.187	59.81
715.509	60.05
715.831	60.12
716.153	60.31
716.475	60.49
716.798	60.55
717.12	60.54
717.442	60.56
717.764	60.56
718.085	60.5
718.407	60.68
718.729	60.67
719.051	60.75
719.373	60.91
719.695	60.97
720.016	61.25
720.338	61.46
720.659	61.53
720.981	61.71
721.302	61.64
721.624	61.83
721.945	62.11
722.267	62.36
722.588	62.26
722.909	62.2
723.231	61.97
723.552	61.82
723.873	62.13
724.194	62.03
724.515	62.07
724.836	61.92
725.157	61.91
725.478	61.95
725.799	62.02
726.12	61.89
726.441	61.74
726.762	61.42
727.083	61.59
727.403	61.43
727.724	61.34
728.045	61.54
728.365	61.45
728.686	61.19
729.006	61
729.327	60.83
729.647	60.85
729.967	60.83
730.288	60.96
730.608	60.79
730.928	60.74
731.249	60.85
731.569	60.88
731.889	60.89
732.209	61.05
732.529	60.98
732.849	61.06
733.169	61.03
733.489	61.02
733.809	60.72
734.129	60.78
734.448	60.73
734.768	60.68
735.088	60.48
735.408	60.4
735.727	60.28
736.047	60.62
736.366	60.43
736.686	60.41
737.005	60.43
737.325	60.44
737.644	60.76
737.963	60.69
738.283	60.78
738.602	60.58
738.921	60.44
739.24	60.62
739.56	60.68
739.879	60.77
740.198	61.02
740.517	61.08
740.836	60.97
741.155	60.95
741.473	60.59
741.792	60.74
742.111	60.88
742.43	61.35
742.748	61.31
743.067	61.49
743.386	61.66
743.704	61.59
744.023	61.7
744.341	61.67
744.66	61.68
744.978	61.72
745.297	62.1
745.615	61.78
745.933	61.89
746.252	61.71
746.57	62.14
746.888	62.03
747.206	61.84
747.524	61.98
747.842	62.06
748.16	62.21
748.478	62.32
748.796	62.38
749.114	61.93
749.432	61.59
749.749	61.84
750.067	61.95
750.385	61.67
750.703	61.53
751.02	61.42
751.338	61.51
751.655	61.57
751.973	61.59
752.29	61.73
752.608	61.39
752.925	61.32
753.242	61.09
753.56	61.15
753.877	61.44
754.194	61.58
754.511	61.39
754.828	61.4
755.145	61.25
755.462	61.29
755.779	61.42
756.096	61.75
756.413	61.37
756.73	61.43
757.047	61.83
757.364	61.93
757.68	61.82
757.997	61.62
758.314	61.65
758.63	61.58
758.947	61.93
759.264	62
759.58	62.03
759.896	61.97
760.213	61.88
760.529	61.71
760.846	62
761.162	62.24
761.478	62.39
761.794	62.27
762.11	62.31
762.426	61.97
762.743	61.98
763.059	62.14
763.375	62.13
763.69	61.85
764.006	61.63
764.322	61.52
764.638	61.83
764.954	61.7
765.27	61.67
765.585	61.45
765.901	61.58
766.216	61.69
766.532	61.89
766.848	61.91
767.163	61.99
767.478	61.5
767.794	61.56
768.109	61.36
768.424	61.46
768.74	61.73
769.055	62.05
769.37	62
769.685	62.16
770	61.84
770.315	62.3
770.63	62.62
770.945	62.82
771.26	62.57
771.575	62.45
771.89	62.41
772.205	62.51
772.52	62.32
772.834	62.28
773.149	61.99
773.464	62.02
773.778	61.85
774.093	62.21
774.407	61.89
774.722	62.05
775.036	62.27
775.351	62.1
775.665	62.3
775.979	62.38
776.293	61.84
776.608	61.84
776.922	61.88
777.236	61.85
777.55	62.04
777.864	62.15
778.178	62.28
778.492	62.33
778.806	62.27
779.12	62.24
779.434	62.21
779.747	62.73
780.061	62.91
780.375	62.82
780.689	62.74
781.002	63.19
781.316	63.52
781.629	63.67
781.943	63.55
782.256	63.28
782.57	63.31
782.883	64.09
783.196	64.12
783.51	64.14
783.823	64.36
784.136	64.15
784.449	63.78
784.762	64.52
785.075	64.57
785.388	64.58
785.701	64.71
786.014	65.23
786.327	64.49
786.64	64.33
786.953	64.5
787.266	64.54
787.578	64.12
787.891	63.27
788.204	62.94
788.516	62.87
788.829	63.11
789.141	62.42
789.454	62.01
789.766	62.18
790.079	62.4
790.391	62.14
790.703	62.54
791.016	62.82
791.328	62.65
791.64	62.79
791.952	63.05
792.264	62.91
792.576	62.5
792.888	62.3
793.2	62.19
793.512	62.13
793.824	61.96
794.136	62.18
794.448	63.13
794.76	62.84
795.071	62.88
795.383	62.7
795.695	62.8
796.006	62.85
796.318	62.88
796.629	62.6
796.941	63.09
797.252	63.05
797.564	62.72
797.875	61.64
798.186	61.04
798.497	60.59
798.809	61.05
799.12	61.31
799.431	61.71
799.742	61.8
800.053	61.45
800.364	61.78
800.675	61.96
800.986	61.07
801.297	61.12
801.608	60.49
801.918	60.02
802.229	60.11
802.54	60.05
802.851	59.8
803.161	60.25
803.472	60.38
803.782	60.28
804.093	60.67
804.403	61.49
804.714	61.89
805.024	62.12
805.334	60.82
805.645	60.3
805.955	60.44
806.265	60.32
806.575	60.89
806.885	60.27
807.195	60.17
807.505	60.69
807.815	61.04
808.125	61.35
808.435	62.33
808.745	62.81
809.055	62.13
809.365	62
809.674	61.21
809.984	60.86
810.294	60.29
810.603	60.06
810.913	60.2
811.222	59.82
811.532	60.19
811.841	61.85
812.151	61.64
812.46	61.1
812.769	61.29
813.079	61.23
813.388	61.78
813.697	62.04
814.006	62.25
814.315	62.11
814.624	62.48
814.933	62.41
815.242	62.17
815.551	62.88
815.86	63.49
816.169	62.72
816.478	61.51
816.786	61.89
817.095	61.92
817.404	61.17
817.712	62.08
818.021	61.75
818.33	60.87
818.638	61.74
818.947	61.83
819.255	61.45
819.563	61.34
819.872	61.28
820.18	61
820.488	60.87
820.796	61.07
821.105	61.41
821.413	61.27
821.721	61.29
822.029	61.6
822.337	61.53
822.645	61.71
822.953	61.93
823.26	61.86
823.568	61.89
823.876	62.08
824.184	62.22
824.491	62.23
824.799	62.24
825.107	62.24
825.414	62.36
825.722	62.28
826.029	62.41
826.337	62.43
826.644	62.51
826.951	62.57
827.259	62.71
827.566	62.5
827.873	62.54
828.18	62.6
828.488	62.25
828.795	62.47
829.102	62.74
829.409	62.85
829.716	63.03
830.023	62.91
830.329	62.73
830.636	62.19
830.943	62.04
831.25	62.22
831.557	61.8
831.863	61.71
832.17	62.43
832.476	62.67
832.783	62.65
833.089	62.57
833.396	62.77
833.702	62.23
834.009	61.86
834.315	61.88
834.621	61.37
834.928	61.51
835.234	61.08
835.54	60.76
835.846	60.72
836.152	60.51
836.458	60.8
836.764	60.98
837.07	60.55
837.376	60.9
837.682	60.64
837.988	60.78
838.293	60.63
838.599	60.05
838.905	59.95
839.211	60.21
839.516	59.83
839.822	59.88
840.127	59.59
840.433	60.08
840.738	59.08
841.044	59.59
841.349	59.4
841.654	59.12
841.959	58.83
842.265	59.2
842.57	58.89
842.875	58.46
843.18	58.39
843.485	58.54
843.79	59.1
844.095	59.29
844.4	59.78
844.705	60.91
845.01	61.86
845.315	60.68
845.619	60.37
845.924	61.4
846.229	60.49
846.533	61.49
846.838	61
847.142	61.21
847.447	62.28
847.751	61.93
848.056	61.18
848.36	60.99
848.664	60.65
848.969	61.72
849.273	60.94
849.577	60.38
849.881	61.33
850.185	58.3
850.489	58.12
850.794	56.93
851.097	56.1
851.401	57.01
851.705	56.24
852.009	55.65
852.313	55.73
852.617	56.2
852.92	55.13
853.224	54.6
853.528	56.49
853.831	56.02
854.135	57.07
854.438	58.49
854.742	60.71
855.045	62.01
855.349	61.45
855.652	61.62
855.955	60.28
856.259	60.11
856.562	63.66
856.865	65.39
857.168	66.36
857.471	66.07
857.774	63.2
858.077	64.03
858.38	63.81
858.683	63.97
858.986	64.76
859.289	65.64
859.592	68.05
859.894	70.34
860.197	71.37
860.5	70.17
860.802	70.55
861.105	68.24
861.407	66.77
861.71	69.21
862.012	67.8
862.315	70.82
862.617	73.85
862.919	70.6
863.222	69.42
863.524	68.94
863.826	66.91
864.128	69.87
864.43	70.78
864.732	70.81
865.034	70.75
865.336	69.43
865.638	69.47
865.94	69.98
866.242	66.95
866.544	65.13
866.846	67.33
867.147	67.62
867.449	68.56
867.751	67.83
868.052	66.59
868.354	70.57
868.655	70.85
868.957	68.36
869.258	67.92
869.56	67.4
869.861	65.82
870.162	67.81
870.463	66.18
870.765	65.3
871.066	63.66
871.367	61.79
871.668	60.75
871.969	60.25
872.27	58.99
872.571	59.31
872.872	58.74
873.173	56.97
873.473	56.12
873.774	57.76
874.075	59.65
874.376	58.15
874.676	56.02
874.977	54.33
875.277	53
875.578	55.06
875.878	54.92
876.179	55.73
876.479	55.63
876.78	54.47
877.08	53.69
877.38	54.85
877.68	57.49
877.981	58.99
878.281	60.21
878.581	58.75
